### header ###
fiducial parameters:
Omega_m = 0.31
Omega_nu = 0
Omega_de = 0.69
Omega_k = 0
H_0 = 100
w_de = -1
zeff = 0
beta = 0
fgrowth = 0
b_1 = 2
gamma = 0.55
Lx = 3500 Ly = 3500 Lz = 3500
nx = 700 ny = 700 nz = 700
xoffset = 857.220397 yoffset = 15.9954215 zoffset = 262.898189
bins = 400 dk = 0.001
kx_ny = 0.628318531 ky_ny = 0.628318531 kz_ny = 0.628318531
############################
A(data) = 3.09556961 (not used)
A(ran) = 3.09692435 (used)
Ngal = 188803
weighted Ngal = 0
Nran = 9360983
weighted Nran = 0
SN(data) = 3440.81481
SN(ran) = 69.5452822
SN(data+ran) = 3510.36009
############################
13 columns: k_central k_mean P_0(k) sigma^{lin}_{P_0(k)} P^img_1(k) sigma^{lin}_{P_1(k)} P_2(k) sigma^{lin}_{P_2(k)} P^img_3(k) sigma^{lin}_{P_3(k)} P_4(k) sigma^{lin}_{P_4(k)} N_modes
### header ###
0.00050000 0 0 0 0 0 0 0 0 0 0 0 0
0.00150000 0.00179520 7537.82301109 0 -14594.29887658 0 -14781.45571125 0 9710.52839089 0 11891.59681482 0 3
0.00250000 0.00253879 17014.74819849 0 -18560.89970653 0 -6233.54782547 0 -8822.37085468 0 3439.50423587 0 6
0.00350000 0.00331552 26529.39700973 0 -17560.81901100 0 -20884.79183866 0 -4095.72218490 0 -11475.91755079 0 7
0.00450000 0.00420575 39706.36223565 0 -18968.59810855 0 -24264.96791998 0 -3297.44489194 0 7582.47087580 0 24
0.00550000 0.00557378 53985.81048525 0 -15279.30413213 0 -38644.68277410 0 -6737.73597336 0 11288.42349660 0 45
0.00650000 0.00659388 68165.10453685 0 -12866.16123320 0 -29063.26449751 0 -15022.56766943 0 -11179.45662841 0 40
0.00750000 0.00754703 69392.47119016 0 -10674.14441545 0 -45562.40404697 0 -8889.41009564 0 8393.21405042 0 57
0.00850000 0.00846663 79623.03704647 0 -6312.47967491 0 -44793.99316300 0 -11925.88079955 0 7595.48754934 0 75
0.00950000 0.00948925 85529.32456656 0 -5272.75320424 0 -44453.40144585 0 -23334.91647849 0 24949.41114299 0 112
0.01050000 0.01054430 80293.65426908 0 -145.39894127 0 -26154.85852738 0 -4734.29231228 0 -3953.31438079 0 105
0.01150000 0.01145670 84956.72581832 0 1486.75590959 0 -30870.53632204 0 -16074.58017135 0 12700.13682190 0 144
0.01250000 0.01249090 80656.16525515 0 2265.27213856 0 -15242.88442376 0 -7640.46139292 0 11509.52709648 0 169
0.01350000 0.01339930 84120.08418442 0 7508.87833546 0 8478.98021550 0 -19665.51845387 0 20913.45549802 0 180
0.01450000 0.01448870 73132.23568836 0 1832.32723501 0 6616.50555523 0 994.72789766 0 8165.06256253 0 267
0.01550000 0.01550050 69937.41793760 0 5935.82795021 0 9885.51160082 0 -18504.13442034 0 -4466.75358423 0 238
0.01650000 0.01653350 68370.24641269 0 1024.43468941 0 23405.39535858 0 -4932.59987247 0 -12331.55588443 0 315
0.01750000 0.01747870 71019.44297697 0 -70.79451756 0 36107.55549761 0 -15850.55400228 0 -15972.62746922 0 297
0.01850000 0.01844180 73298.26009966 0 1068.38900596 0 35442.22138084 0 -14316.54239702 0 -17154.24467406 0 388
0.01950000 0.01947590 72885.72821783 0 -2230.72961887 0 37816.69644126 0 -7986.43738177 0 -23364.02976389 0 399
0.02050000 0.02045430 75182.86760122 0 -645.73941441 0 35164.68971430 0 994.43676480 0 -12865.71160717 0 462
0.02150000 0.02154770 79170.26363502 0 1617.04629221 0 32693.20783807 0 4678.05533667 0 -14915.55667447 0 571
0.02250000 0.02255340 75846.85283990 0 4197.06789189 0 34950.10569184 0 8231.95567503 0 -12702.27254554 0 510
0.02350000 0.02348930 73785.09268282 0 5249.68738894 0 32756.60510820 0 -2603.15485889 0 -17243.72025388 0 555
0.02450000 0.02439640 68610.00949278 0 4489.14496048 0 30674.27456028 0 1232.51487135 0 -26601.56198743 0 592
0.02550000 0.02547300 66435.73042188 0 3035.85246812 0 34622.66553605 0 -12805.79893877 0 -22344.05311656 0 837
0.02650000 0.02652900 64473.45002378 0 1878.09916478 0 34485.30478412 0 -10449.00542196 0 -34302.41939672 0 723
0.02750000 0.02749970 66609.51088219 0 843.12299312 0 45313.87325931 0 -4259.39730019 0 -27312.64555267 0 826
0.02850000 0.02848090 65257.82263178 0 34.89738704 0 34700.78805863 0 -4372.87166932 0 -36191.41075206 0 831
0.02950000 0.02946900 67630.49918808 0 -327.48287027 0 36748.27258928 0 9675.51376386 0 -31202.58514464 0 996
0.03050000 0.03053250 64628.23378434 0 -716.56001028 0 25559.44125816 0 13760.69221837 0 -33027.61719732 0 1041
0.03150000 0.03150510 65765.90004482 0 1696.88863435 0 23116.17341527 0 13288.58488767 0 -33142.27183478 0 1036
0.03250000 0.03246190 62476.32360840 0 3157.28521797 0 18460.97032154 0 8759.95152117 0 -25880.02461700 0 1059
0.03350000 0.03345080 59279.81976003 0 4506.34315610 0 15987.01550215 0 1766.56942823 0 -21536.74958106 0 1302
0.03450000 0.03451200 53338.34900315 0 3915.70316344 0 14547.53776954 0 -813.48364527 0 -8761.21047405 0 1339
0.03550000 0.03553350 51547.82574821 0 3868.04280434 0 16184.28892248 0 -3889.48996594 0 -11036.83525194 0 1365
0.03650000 0.03647120 49001.14391860 0 3645.79265809 0 15414.86637994 0 313.89854386 0 -13945.60092290 0 1308
0.03750000 0.03744890 47207.47328145 0 2291.50781737 0 17703.01324275 0 654.40708019 0 -7962.02268838 0 1579
0.03850000 0.03847530 43569.21185935 0 2784.57896168 0 17386.47651816 0 2923.74945838 0 -6418.51273325 0 1662
0.03950000 0.03950240 43908.45469841 0 374.36537634 0 19268.38626354 0 5954.58859628 0 -5635.75877895 0 1683
0.04050000 0.04050350 41179.67432696 0 964.20278653 0 17484.83221206 0 3957.23736789 0 -3813.51440765 0 1822
0.04150000 0.04152450 42533.04867497 0 64.78099423 0 14950.06547222 0 382.01126696 0 -4023.63589176 0 1887
0.04250000 0.04250150 41757.10655501 0 -371.40346487 0 17996.84385285 0 1184.12386995 0 -2149.48219538 0 1920
0.04350000 0.04349210 42197.40284414 0 193.70001746 0 14701.42227805 0 400.30317790 0 -4254.65374558 0 2005
0.04450000 0.04448520 42881.50884763 0 -732.80162652 0 16420.90462037 0 321.01949610 0 -1397.93228751 0 2151
0.04550000 0.04548030 43213.10804419 0 -682.75937353 0 15372.37672018 0 1273.92542864 0 -3779.90486196 0 2274
0.04650000 0.04648670 42974.80624870 0 973.57973737 0 16168.66441796 0 2179.42728893 0 -1675.54263861 0 2311
0.04750000 0.04749250 42401.75787443 0 2247.43322585 0 14850.13608722 0 -396.62298885 0 -3053.57897433 0 2568
0.04850000 0.04851840 39660.72519368 0 2344.13654409 0 17475.16525243 0 -1107.76500547 0 3024.78042715 0 2493
0.04950000 0.04949480 38624.11238327 0 2155.39477767 0 16432.03286459 0 -53.93668884 0 485.19257222 0 2644
0.05050000 0.05050630 38035.21469147 0 325.29319150 0 21727.95304999 0 -505.99789266 0 5646.08893697 0 2829
0.05150000 0.05149060 36839.09704718 0 626.65840980 0 17059.71080141 0 1262.31383644 0 470.80566335 0 2784
0.05250000 0.05249300 37735.08931695 0 -282.32917628 0 24657.15422398 0 2068.79680444 0 4025.44563653 0 3055
0.05350000 0.05348950 36813.13114400 0 422.99805172 0 17783.27148896 0 1503.12229705 0 308.46031703 0 3009
0.05450000 0.05448610 37295.46746686 0 601.89975250 0 21088.02280388 0 3237.61090810 0 6647.15880977 0 3336
0.05550000 0.05550870 35431.09313662 0 593.70082185 0 18414.32162100 0 2023.92412672 0 4170.62988137 0 3349
0.05650000 0.05647670 36114.18748154 0 1073.37311050 0 17926.81459880 0 4535.77117972 0 7423.14589233 0 3324
0.05750000 0.05747970 35157.83291735 0 333.64049874 0 14317.77886860 0 2418.90935275 0 7077.85558318 0 3639
0.05850000 0.05849280 35632.75041073 0 487.46430773 0 15343.26343479 0 1515.71182587 0 6919.39612983 0 3846
0.05950000 0.05951020 34414.71349752 0 456.79531628 0 12590.42807077 0 993.49030201 0 9030.52522491 0 3787
0.06050000 0.06049470 34309.05138065 0 94.40865180 0 12040.31062399 0 1241.14769111 0 6475.49159181 0 3930
0.06150000 0.06148310 33456.56042921 0 356.46576411 0 10587.38907311 0 1476.00984749 0 5512.75233800 0 4083
0.06250000 0.06249100 34271.39520070 0 272.30476396 0 10359.94574622 0 2234.03437018 0 3133.62364818 0 4303
0.06350000 0.06350600 31954.02264600 0 730.80641102 0 10093.22758567 0 771.59985658 0 1865.70072703 0 4470
0.06450000 0.06451750 32313.27384337 0 1027.55284592 0 11237.85180896 0 -998.51712102 0 1734.19635413 0 4479
0.06550000 0.06550280 31643.66827932 0 606.25100840 0 11904.52356316 0 -1161.30534897 0 3371.52078025 0 4636
0.06650000 0.06648880 31163.24286708 0 644.46584869 0 13888.04879115 0 -679.26577928 0 4657.17020761 0 4653
0.06750000 0.06749660 31371.53212512 0 154.56119568 0 15091.13563889 0 3.80442072 0 4277.44978527 0 5220
0.06850000 0.06852730 31275.19974836 0 482.67579052 0 17252.71277446 0 1446.77291494 0 5892.95610833 0 5029
0.06950000 0.06949320 30148.43691908 0 1217.31751156 0 15139.13321751 0 2021.42870226 0 6038.66866375 0 5040
0.07050000 0.07048030 29647.66592902 0 618.30435817 0 14038.78591746 0 2721.38402327 0 8623.45629934 0 5475
0.07150000 0.07148790 28921.29507878 0 584.43402939 0 13322.75646589 0 3364.86631502 0 7215.20509446 0 5509
0.07250000 0.07249820 28730.42882937 0 299.14294164 0 10693.97292334 0 3451.81274842 0 7900.79486385 0 5916
0.07350000 0.07351270 27601.41786995 0 766.31675074 0 10736.15908553 0 1121.94733450 0 4618.12018697 0 5721
0.07450000 0.07449140 27191.24652477 0 1182.84243577 0 7720.40490092 0 -1198.69175330 0 5334.47561741 0 6028
0.07550000 0.07549160 26384.16780229 0 400.11883123 0 9274.84076855 0 -493.80515881 0 2936.39519046 0 6183
0.07650000 0.07648840 26125.29561595 0 15.40486220 0 7586.61867592 0 -1253.46744431 0 3623.00785906 0 6330
0.07750000 0.07749960 26190.15417067 0 -736.47619524 0 7609.53836276 0 329.04307259 0 153.91373420 0 6583
0.07850000 0.07848650 26794.33914746 0 -325.43707183 0 6864.84525183 0 739.35604996 0 -1833.67611310 0 6549
0.07950000 0.07947320 26386.64074545 0 165.81421113 0 6186.21344525 0 693.40314571 0 -1314.49293713 0 6828
0.08050000 0.08048110 25831.01537982 0 1085.27133930 0 6128.51518504 0 331.16530745 0 -1591.61994025 0 7147
0.08150000 0.08149960 25127.35064406 0 1077.57036948 0 6726.69765434 0 377.95564018 0 281.88404651 0 7386
0.08250000 0.08250610 23591.20331516 0 991.72214765 0 7759.21886789 0 972.05550513 0 1016.29983048 0 7227
0.08350000 0.08350160 23491.61114968 0 635.19118777 0 7439.48979850 0 -106.18885376 0 2920.01756234 0 7798
0.08450000 0.08449610 22923.62106825 0 335.44125098 0 8572.77220520 0 969.55446035 0 2274.02860548 0 7371
0.08550000 0.08548940 22789.40769852 0 262.63218400 0 8006.60310918 0 73.64368530 0 2411.31067286 0 8256
0.08650000 0.08650700 22037.63297763 0 585.88294927 0 7320.64239832 0 -838.08493346 0 1541.63276645 0 8037
0.08750000 0.08749060 21712.21613897 0 597.58783888 0 7293.79972437 0 -438.57759364 0 -813.32740023 0 8155
0.08850000 0.08849210 21389.38464997 0 301.99244660 0 6803.71859315 0 46.08352061 0 -288.53851174 0 8718
0.08950000 0.08949900 20921.32395354 0 86.49467165 0 6292.55000116 0 485.08803417 0 -2716.80907843 0 8571
0.09050000 0.09049190 21022.48981011 0 115.75284903 0 5366.26417767 0 863.73497436 0 -2594.51079847 0 8932
0.09150000 0.09150830 21099.26345461 0 79.48758721 0 5253.89139232 0 904.23841114 0 -2360.72774457 0 9285
0.09250000 0.09250820 20543.41327596 0 394.81998847 0 5532.33355157 0 662.48573587 0 -985.78933220 0 9204
0.09350000 0.09350330 20632.32682324 0 794.19468862 0 5210.54744310 0 306.91697569 0 808.43434496 0 9349
0.09450000 0.09448040 19727.45443940 0 446.41232720 0 6231.94041242 0 17.74853788 0 690.83353295 0 9564
0.09550000 0.09549270 19636.51757498 0 662.34297961 0 6695.15638839 0 -83.08425822 0 2636.85432978 0 10155
0.09650000 0.09649430 19066.72898943 0 175.96451874 0 6089.89230913 0 -528.73210876 0 1486.69970633 0 9913
0.09750000 0.09749140 19004.90541041 0 89.70556353 0 6755.56364542 0 -89.16106641 0 1181.78581460 0 10476
0.09850000 0.09850240 19007.26594706 0 -21.49369789 0 6455.82045303 0 -187.58847566 0 111.56997808 0 10575
0.09950000 0.09950330 18929.81786353 0 47.11833492 0 5654.57562827 0 -316.43555873 0 -1521.05113497 0 10882
0.10050000 0.10051200 19026.15024029 0 134.10658355 0 6176.38911651 0 -704.45720164 0 -2015.15641915 0 10875
0.10150000 0.10150300 18545.94964106 0 582.81874788 0 6306.45468612 0 -801.41680671 0 -2455.26161722 0 11118
0.10250000 0.10250800 18460.63310201 0 729.68009781 0 6448.09812598 0 295.48523390 0 -1256.97452734 0 11575
0.10350000 0.10349800 17408.39578709 0 531.53440299 0 6326.73282003 0 748.12263347 0 -1525.21017574 0 11364
0.10450000 0.10450100 17628.15050888 0 244.59093958 0 6558.87473893 0 1652.80280218 0 -141.49731140 0 12093
0.10550000 0.10551000 17228.54537539 0 117.35126957 0 6265.25770119 0 1832.03497809 0 210.96790511 0 12067
0.10650000 0.10649700 17001.59663713 0 259.35441025 0 5561.84025974 0 1182.30288454 0 497.97319210 0 12054
0.10750000 0.10749900 16667.74931042 0 283.74999453 0 5436.84422361 0 895.08177706 0 970.44359582 0 12807
0.10850000 0.10850100 16137.07818941 0 424.22440672 0 5107.48191654 0 -378.13773872 0 616.33387210 0 12736
0.10950000 0.10950300 15816.71964358 0 277.99028510 0 4851.92572218 0 -83.09673534 0 296.69247978 0 12933
0.11050000 0.11050200 15731.51551104 0 272.40705388 0 5151.05067878 0 -542.62555306 0 102.78507232 0 13428
0.11150000 0.11150900 15457.46844622 0 226.41593141 0 4655.20309373 0 -177.00203080 0 -3.38922481 0 13453
0.11250000 0.11250000 15338.31754847 0 358.08216969 0 4974.56122165 0 91.66818115 0 -984.03017036 0 13668
0.11350000 0.11349100 15069.89080901 0 353.43865687 0 4492.43847115 0 137.77553194 0 -18.53324771 0 13791
0.11450000 0.11448600 14532.81251708 0 433.24390486 0 4573.69713528 0 321.66695758 0 -1095.00911502 0 14205
0.11550000 0.11549300 14650.50213024 0 198.98761957 0 4973.70693220 0 -18.10183153 0 468.72052264 0 14776
0.11650000 0.11649800 14179.74367762 0 118.48657529 0 5001.19032323 0 -100.99398703 0 25.66285524 0 14553
0.11750000 0.11747300 14480.43108468 0 210.62843746 0 5291.14290884 0 170.67466850 0 1406.14920319 0 14568
0.11850000 0.11849100 14476.38445041 0 61.54166350 0 5981.54367674 0 -471.30812043 0 832.40840484 0 16015
0.11950000 0.11950300 14402.42096860 0 56.42593095 0 6150.18715965 0 -170.31496768 0 1115.74361936 0 15270
0.12050000 0.12050700 14388.14534218 0 152.33554684 0 6698.53982426 0 -262.69288352 0 305.15668978 0 15999
0.12150000 0.12150000 14411.86311522 0 96.98410969 0 6312.58084076 0 -249.99319632 0 203.30515351 0 15670
0.12250000 0.12250700 14294.96034762 0 196.88336975 0 6823.73819210 0 -405.47837349 0 -71.34047596 0 16887
0.12350000 0.12352200 14237.40821587 0 119.64548638 0 6328.31775179 0 125.88966786 0 -229.03949929 0 16407
0.12450000 0.12449800 14178.39479954 0 -52.93458483 0 6176.38911651 0 506.88253187 0 -832.51069476 0 16306
0.12550000 0.12549900 14131.74609900 0 22.06708348 0 5886.65010326 0 634.75954678 0 -1236.56150561 0 17523
0.12650000 0.12650100 13953.91900444 0 275.13403575 0 5404.81960968 0 573.16078077 0 -1521.86046182 0 17154
0.12750000 0.12750600 13595.67946564 0 245.11587797 0 5269.06627080 0 457.58890622 0 -1195.44320524 0 18007
0.12850000 0.12850300 13355.24194651 0 348.07124615 0 4441.93422741 0 306.36730787 0 -1376.30527550 0 17496
0.12950000 0.12949900 13095.02088208 0 194.52395716 0 4488.71781576 0 549.51157570 0 -968.17860470 0 18405
0.13050000 0.13049000 12764.43334408 0 76.55130442 0 3929.82142076 0 714.57828355 0 -1341.42553628 0 18100
0.13150000 0.13148800 12623.70039693 0 99.76988016 0 3324.04027157 0 800.44449042 0 -750.03579222 0 19059
0.13250000 0.13249300 12609.98680304 0 203.44790978 0 3490.44686499 0 346.96741424 0 -1113.58991068 0 18957
0.13350000 0.13349100 12373.70832468 0 224.29482062 0 3037.83082265 0 128.80324453 0 -1003.26854408 0 19468
0.13450000 0.13450700 12283.22108629 0 313.31965035 0 3580.46199604 0 -261.60591259 0 -729.55757472 0 19953
0.13550000 0.13551000 12108.09174790 0 250.43270577 0 3627.88630148 0 -698.84024847 0 -508.63494932 0 19956
0.13650000 0.13649900 11908.68260393 0 86.82008849 0 3601.60566007 0 -282.61131661 0 -685.98993655 0 19723
0.13750000 0.13749600 12122.70459385 0 -65.43609935 0 3897.04368323 0 38.15526484 0 -701.48067732 0 20946
0.13850000 0.13851100 12134.28246410 0 -50.78042652 0 3772.65464224 0 418.34105013 0 -710.27423839 0 20955
0.13950000 0.13949800 12114.72373183 0 22.63822095 0 3551.43863585 0 359.86156470 0 -638.78257568 0 20506
0.14050000 0.14048300 11929.70262080 0 228.62471928 0 3579.32669032 0 214.20071626 0 -289.41528250 0 21447
0.14150000 0.14148400 11909.58185599 0 301.07071324 0 3796.96816977 0 135.24076520 0 416.37955657 0 21771
0.14250000 0.14249400 11610.01851401 0 262.66365783 0 3873.61816711 0 200.22858741 0 869.47894689 0 22470
0.14350000 0.14350900 11541.33813805 0 193.37516266 0 4349.61476296 0 210.01469793 0 1795.58154777 0 22519
0.14450000 0.14449900 11345.52600231 0 135.49705204 0 4382.87584847 0 503.41479112 0 2210.65381666 0 22218
0.14550000 0.14550500 11349.68504308 0 128.70095461 0 4936.79263519 0 441.36977128 0 2802.88998172 0 23559
0.14650000 0.14650700 11266.72904069 0 133.50408467 0 4407.71768659 0 426.50738288 0 2696.82320143 0 23044
0.14750000 0.14750500 11127.12015861 0 261.18551226 0 4663.73474764 0 352.43823895 0 3226.26909151 0 23649
0.14850000 0.14849900 10711.80059540 0 180.13704829 0 3480.04926306 0 437.32088888 0 2780.04897944 0 23640
0.14950000 0.14949500 10549.99142813 0 13.40661172 0 3838.55857748 0 657.31054028 0 2688.92102396 0 24457
0.15050000 0.15050000 10593.05436108 0 -42.18177834 0 2764.72797249 0 388.24982812 0 1867.75776611 0 24591
0.15150000 0.15149900 10592.55977245 0 -89.07608709 0 2999.07305893 0 379.32812363 0 1621.46386795 0 25020
0.15250000 0.15250500 10673.02035038 0 29.45814856 0 2597.89423434 0 -102.10366407 0 1208.96570807 0 25297
0.15350000 0.15350100 10595.19008472 0 141.72549661 0 2817.44662442 0 -444.15408046 0 1067.82135310 0 25452
0.15450000 0.15450400 10452.32141393 0 162.19696972 0 3080.32048242 0 -204.57422298 0 1137.01430274 0 26061
0.15550000 0.15549900 10334.42946906 0 292.47498763 0 3223.08798735 0 -100.33371121 0 1118.39304074 0 26128
0.15650000 0.15649500 10219.97716332 0 331.24061981 0 3240.84821551 0 88.94771886 0 1015.03638133 0 26331
0.15750000 0.15749700 9819.52898102 0 263.08855442 0 3374.78056897 0 201.63928907 0 927.24015473 0 27345
0.15850000 0.15849900 9734.47097694 0 224.99736129 0 3148.21401283 0 105.28409379 0 1253.23139065 0 26980
0.15950000 0.15949700 9440.64036683 0 117.95264438 0 3199.75239643 0 360.93729497 0 1375.50718930 0 27777
0.16050000 0.16050000 9500.13713115 0 37.62684185 0 2966.75618808 0 270.34551854 0 1323.78895529 0 28224
0.16150000 0.16150500 9470.73158884 0 55.82500576 0 2609.10116312 0 212.88331200 0 1199.91698423 0 28075
0.16250000 0.16249700 9343.27385020 0 85.34362902 0 2690.56215897 0 125.25569516 0 1017.72064873 0 28590
0.16350000 0.16349900 9270.69296843 0 161.90696093 0 2264.53025561 0 -168.45126779 0 1245.30673188 0 29163
0.16450000 0.16449100 9104.79220429 0 189.87707215 0 2324.67897768 0 141.38153270 0 781.11843962 0 28996
0.16550000 0.16550500 8969.80322967 0 182.48746836 0 2462.11841416 0 -32.70399886 0 802.71285374 0 30777
0.16650000 0.16650700 8776.45279644 0 156.77335575 0 2311.51617567 0 128.61777379 0 416.75049805 0 29211
0.16750000 0.16749900 8681.69411078 0 113.84081434 0 2452.74371145 0 6.39971837 0 633.48036073 0 30922
0.16850000 0.16850800 8678.42308142 0 89.57629605 0 2286.29215543 0 56.03644240 0 324.53107538 0 30867
0.16950000 0.16949900 8499.92154781 0 37.86806622 0 2343.79932457 0 45.24361919 0 940.82448114 0 30852
0.17050000 0.17049200 8688.09004105 0 146.20489593 0 2485.60013354 0 -52.33354723 0 697.35198631 0 31257
0.17150000 0.17149500 8544.44576535 0 86.29267716 0 2450.15836179 0 252.56393314 0 663.15005833 0 32608
0.17250000 0.17250900 8387.38015269 0 175.32942197 0 2432.29696777 0 -8.77054021 0 956.51530550 0 32361
0.17350000 0.17350400 8319.83508245 0 178.16431409 0 2342.43920583 0 -86.03953770 0 632.56199956 0 32508
0.17450000 0.17449800 8162.78071043 0 137.56308365 0 2384.91762494 0 -31.33117819 0 649.80178559 0 32791
0.17550000 0.17549800 8134.88141532 0 96.52852612 0 2239.63221425 0 -79.26344863 0 593.56593405 0 33633
0.17650000 0.17650100 8064.84092061 0 33.04133079 0 2268.35207686 0 147.50656328 0 690.57050172 0 33984
0.17750000 0.17750300 8047.90125996 0 -22.89608147 0 2337.90922359 0 329.59723667 0 808.16456935 0 34069
