### header ###
fiducial parameters:
Omega_m = 0.31
Omega_nu = 0
Omega_de = 0.69
Omega_k = 0
H_0 = 100
w_de = -1
zeff = 0
beta = 0
fgrowth = 0
b_1 = 2
gamma = 0.55
Lx = 3500 Ly = 3500 Lz = 3500
nx = 700 ny = 700 nz = 700
xoffset = 857.220397 yoffset = 15.9954215 zoffset = 262.898189
bins = 400 dk = 0.001
kx_ny = 0.628318531 ky_ny = 0.628318531 kz_ny = 0.628318531
############################
A(data) = 3.10701911 (not used)
A(ran) = 3.10733715 (used)
Ngal = 189220
weighted Ngal = 0
Nran = 9360983
weighted Nran = 0
SN(data) = 3449.62622
SN(ran) = 69.7791144
SN(data+ran) = 3519.40533
############################
13 columns: k_central k_mean P_0(k) sigma^{lin}_{P_0(k)} P^img_1(k) sigma^{lin}_{P_1(k)} P_2(k) sigma^{lin}_{P_2(k)} P^img_3(k) sigma^{lin}_{P_3(k)} P_4(k) sigma^{lin}_{P_4(k)} N_modes
### header ###
0.00050000 0 0 0 0 0 0 0 0 0 0 0 0
0.00150000 0.00179520 2409.01758011 0 -8857.20563129 0 -10372.90621651 0 10338.24004966 0 1786.43165807 0 3
0.00250000 0.00253879 13095.92013414 0 -20566.56901647 0 5171.21640619 0 -15350.79467078 0 5256.43177938 0 6
0.00350000 0.00331552 27181.69197165 0 -30017.59574458 0 -22308.98228628 0 34532.62792369 0 -16836.13425837 0 7
0.00450000 0.00420575 51615.60687212 0 -39027.20211848 0 -15903.49746722 0 7764.15351356 0 1116.81372931 0 24
0.00550000 0.00557378 83707.21508307 0 -26140.92012047 0 -32531.34246755 0 -9137.40133206 0 -23509.03415832 0 45
0.00650000 0.00659388 108650.78108767 0 -22302.68752187 0 -38888.49248846 0 -12440.92741605 0 -10347.22132959 0 40
0.00750000 0.00754703 104957.89010302 0 -6232.72725797 0 -72225.56480040 0 -17293.40393011 0 -10922.88877548 0 57
0.00850000 0.00846663 118126.87446691 0 -12653.15090185 0 -78120.38685675 0 -40024.58505784 0 -21328.34791650 0 75
0.00950000 0.00948925 115930.45131408 0 -15970.15452606 0 -80714.95385848 0 -44183.62582831 0 -15874.15936881 0 112
0.01050000 0.01054430 142827.08038319 0 -16930.33091150 0 -75705.89507973 0 -44832.66100151 0 -27638.39961085 0 105
0.01150000 0.01145670 142530.32720389 0 -8014.50528664 0 -60903.86897764 0 -54705.43694505 0 -16156.86173470 0 144
0.01250000 0.01249090 146072.25624923 0 3433.94011376 0 -36750.85793895 0 -57268.75493775 0 -15777.93939856 0 169
0.01350000 0.01339930 150015.47652566 0 -834.61494458 0 -28331.49813493 0 -44227.35195965 0 -29994.66481708 0 180
0.01450000 0.01448870 146798.40228645 0 10182.50083378 0 8083.38799432 0 -55862.21231178 0 -28913.87624930 0 267
0.01550000 0.01550050 140648.64227153 0 21931.74604774 0 32473.11589676 0 -44795.90407362 0 -60849.91385413 0 238
0.01650000 0.01653350 121384.41504875 0 24859.26112412 0 47500.74185902 0 -36120.93187198 0 -30478.57483105 0 315
0.01750000 0.01747870 106168.50818675 0 23180.13271793 0 45250.36358268 0 -9849.03568919 0 -51963.28019923 0 297
0.01850000 0.01844180 89999.05692323 0 12683.16343930 0 54648.44684584 0 10330.70881367 0 -47530.86680298 0 388
0.01950000 0.01947590 80355.14062858 0 4989.53376842 0 46300.01554794 0 30190.70176583 0 -57415.78264931 0 399
0.02050000 0.02045430 79980.93936574 0 -171.49860820 0 39723.78524428 0 23747.44836032 0 -44472.96017812 0 462
0.02150000 0.02154770 76474.30596370 0 74.33858232 0 28040.02806147 0 16506.44597243 0 -26859.53492170 0 571
0.02250000 0.02255340 77960.20758383 0 2595.93836112 0 36689.25917294 0 -1791.99578019 0 -19034.91794786 0 510
0.02350000 0.02348930 76429.90539332 0 1798.67272672 0 28205.15322071 0 3040.69718859 0 -7922.51180106 0 555
0.02450000 0.02439640 75830.55389634 0 491.45361467 0 42369.94683286 0 -965.69779308 0 -10609.24089813 0 592
0.02550000 0.02547300 78360.48715636 0 624.71714942 0 29326.52053763 0 -1259.25637944 0 -4885.53526786 0 837
0.02650000 0.02652900 72895.84480349 0 -2032.46702127 0 30448.89951312 0 3825.87912345 0 -23915.38368224 0 723
0.02750000 0.02749970 80202.26777864 0 468.81831630 0 18034.27521979 0 933.43038109 0 -27163.36971096 0 826
0.02850000 0.02848090 74086.45452892 0 106.79258912 0 13561.17066790 0 5167.04612477 0 -36935.09220443 0 831
0.02950000 0.02946900 69188.11615987 0 4242.41267694 0 4014.90190614 0 2491.38906867 0 -27840.39410449 0 996
0.03050000 0.03053250 69771.39352631 0 2534.64309268 0 7374.47387467 0 3673.51210279 0 -26806.02942422 0 1041
0.03150000 0.03150510 63272.49889968 0 5331.57552952 0 -2033.52364244 0 4165.59406984 0 -28126.80588512 0 1036
0.03250000 0.03246190 61829.76137835 0 3486.60256244 0 4291.47811738 0 2770.26961330 0 -16845.68881149 0 1059
0.03350000 0.03345080 55746.77082877 0 4009.84361331 0 619.14066259 0 -506.87016715 0 -18434.10516629 0 1302
0.03450000 0.03451200 54474.10435301 0 2922.25445184 0 544.36785393 0 3923.45921245 0 -4338.90242281 0 1339
0.03550000 0.03553350 50654.98086065 0 1257.90750135 0 -471.06532238 0 383.54673985 0 -8447.69748451 0 1365
0.03650000 0.03647120 52149.87500136 0 -1131.89980666 0 -5123.83706336 0 2223.94026583 0 -8045.06861598 0 1308
0.03750000 0.03744890 51574.57849695 0 -423.99172525 0 -1780.18185627 0 -2129.37267123 0 -10377.87458413 0 1579
0.03850000 0.03847530 54395.86942392 0 -461.19265884 0 -5549.32941548 0 -1884.18035683 0 -8475.85531459 0 1662
0.03950000 0.03950240 52039.82903070 0 61.72567295 0 4286.89193188 0 -3563.67970450 0 -6179.85123693 0 1683
0.04050000 0.04050350 53304.28983143 0 526.32098918 0 1938.01183318 0 -4215.59248429 0 -4303.05598763 0 1822
0.04150000 0.04152450 52764.06415730 0 763.43802009 0 12715.98613943 0 705.19908458 0 5084.59595166 0 1887
0.04250000 0.04250150 53186.15059225 0 2223.01853247 0 9049.12850187 0 -3647.05161097 0 5215.38092291 0 1920
0.04350000 0.04349210 51783.09256801 0 2267.17180854 0 17944.46242045 0 1079.72857442 0 11488.84429913 0 2005
0.04450000 0.04448520 49688.84693032 0 2498.97650791 0 18273.13904782 0 -245.83190742 0 9164.08663690 0 2151
0.04550000 0.04548030 48547.02162906 0 2392.93220891 0 18037.19778898 0 -1453.91072815 0 9688.37306829 0 2274
0.04650000 0.04648670 44662.58995595 0 2325.42086062 0 20417.51798777 0 -2854.48456858 0 6919.07015095 0 2311
0.04750000 0.04749250 44811.52857814 0 1624.79110056 0 20366.82265298 0 -196.30897250 0 3779.80369610 0 2568
0.04850000 0.04851840 42698.17383421 0 619.32838146 0 18572.58998329 0 -142.98332543 0 2681.14249366 0 2493
0.04950000 0.04949480 43622.60495032 0 -267.48702105 0 16595.69673924 0 4467.92261190 0 -496.59621238 0 2644
0.05050000 0.05050630 43935.43226017 0 -122.98283558 0 17869.26246706 0 2190.64545836 0 2159.23908022 0 2829
0.05150000 0.05149060 42306.77437575 0 989.35261848 0 10900.58732443 0 3354.61484155 0 -4606.92449884 0 2784
0.05250000 0.05249300 43423.42061937 0 912.57672586 0 18153.31371103 0 -1257.99742656 0 4519.11253533 0 3055
0.05350000 0.05348950 42844.30229371 0 1424.05555981 0 17421.32253543 0 -2428.35149937 0 733.82677387 0 3009
0.05450000 0.05448610 40867.29664314 0 1303.87052219 0 16678.54033512 0 3.42985976 0 -1452.75294112 0 3336
0.05550000 0.05550870 40572.79159399 0 1518.85920807 0 21283.38531358 0 168.18936063 0 -933.57313736 0 3349
0.05650000 0.05647670 37625.60537883 0 1096.39396319 0 15486.91895113 0 570.91489876 0 -4654.06778801 0 3324
0.05750000 0.05747970 37745.99274816 0 877.13045784 0 16998.33684842 0 2163.63417465 0 -6235.49245805 0 3639
0.05850000 0.05849280 35782.02625244 0 837.11486530 0 15016.38531153 0 2781.62267054 0 -7589.03541582 0 3846
0.05950000 0.05951020 35029.68949902 0 1112.88624595 0 11265.94219514 0 1377.05839910 0 -6861.10211513 0 3787
0.06050000 0.06049470 34741.25440126 0 200.37921213 0 11393.86080045 0 1126.94267969 0 -6265.24646054 0 3930
0.06150000 0.06148310 33050.43571830 0 -130.50170686 0 8222.91819184 0 180.36748163 0 -8063.60444903 0 4083
0.06250000 0.06249100 34964.94335081 0 -226.32825434 0 8195.77202033 0 1055.67470592 0 -7452.42778749 0 4303
0.06350000 0.06350600 33663.38840266 0 549.25191667 0 8245.52314046 0 873.46375757 0 -6435.95822319 0 4470
0.06450000 0.06451750 33786.58593468 0 800.10277464 0 6483.52865708 0 1127.16749270 0 -5163.17934092 0 4479
0.06550000 0.06550280 31715.49603749 0 1249.80299218 0 6384.95939082 0 807.91727503 0 -4508.01801306 0 4636
0.06650000 0.06648880 31813.28969885 0 443.53022435 0 7016.72892451 0 2250.49068285 0 -2680.18703835 0 4653
0.06750000 0.06749660 30796.57284023 0 174.72467496 0 6186.58438672 0 2486.33077584 0 -1955.50228572 0 5220
0.06850000 0.06852730 31040.60736760 0 397.81337376 0 6589.19077395 0 1393.26741746 0 389.95053857 0 5029
0.06950000 0.06949320 29921.82540035 0 931.14740493 0 7644.91269061 0 927.41213669 0 1630.25405682 0 5040
0.07050000 0.07048030 29620.68836726 0 724.40598449 0 6137.08056090 0 1623.11624360 0 3741.67540883 0 5475
0.07150000 0.07148790 28170.64442297 0 744.42558344 0 6877.99681318 0 2934.81025870 0 5535.76195005 0 5509
0.07250000 0.07249820 27404.48166914 0 560.51954496 0 5420.42163290 0 2679.71493101 0 5835.51638309 0 5916
0.07350000 0.07351270 26591.22058875 0 281.16127267 0 5008.24945189 0 2379.25233698 0 3997.07423408 0 5721
0.07450000 0.07449140 26706.43725875 0 459.14910854 0 3708.80774609 0 -779.92243438 0 4694.33179893 0 6028
0.07550000 0.07549160 26004.12140107 0 427.05480257 0 3941.25316255 0 -1264.93290806 0 3504.95854508 0 6183
0.07650000 0.07648840 26210.16252897 0 419.04696299 0 4238.56837439 0 -3121.42754214 0 2674.74656339 0 6330
0.07750000 0.07749960 26491.85323629 0 494.91236290 0 6783.01331451 0 -2233.06767422 0 3915.35470327 0 6583
0.07850000 0.07848650 26068.86754929 0 760.35695772 0 7723.39491401 0 -1827.06661047 0 1812.37507996 0 6549
0.07950000 0.07947320 26328.07695514 0 731.11890111 0 9816.04437930 0 -471.73751329 0 5282.67869884 0 6828
0.08050000 0.08048110 25419.71996957 0 869.91171194 0 10452.61367084 0 573.90828405 0 2434.53385727 0 7147
0.08150000 0.08149960 24754.16103979 0 1151.71707390 0 10572.80994911 0 532.52695245 0 3633.66399595 0 7386
0.08250000 0.08250610 23943.48530907 0 757.34333926 0 10391.64438128 0 1059.68537010 0 3113.86258420 0 7227
0.08350000 0.08350160 23532.41471184 0 521.30653489 0 9910.70189910 0 586.76534035 0 2988.43940334 0 7798
0.08450000 0.08449610 23027.37227449 0 106.95074507 0 9734.67330866 0 503.62836348 0 2929.25737724 0 7371
0.08550000 0.08548940 23140.79044037 0 -177.49774350 0 9174.88890225 0 135.97140750 0 821.47462388 0 8256
0.08650000 0.08650700 23141.35247291 0 -384.81243712 0 8172.38022616 0 346.75609001 0 460.65760387 0 8037
0.08750000 0.08749060 23447.21057930 0 -302.00481132 0 7661.16667156 0 545.05465769 0 -308.51989248 0 8155
0.08850000 0.08849210 23500.15404424 0 56.00699189 0 6584.04255592 0 780.27314269 0 -1011.97442807 0 8718
0.08950000 0.08949900 23197.33091355 0 237.78809776 0 5637.01773183 0 2276.85000882 0 -1558.72979622 0 8571
0.09050000 0.09049190 22589.77374154 0 561.15913799 0 5516.12453322 0 1273.77930019 0 197.08570146 0 8932
0.09150000 0.09150830 21637.35340510 0 770.70285265 0 3867.49201246 0 1825.04329333 0 -726.76652114 0 9285
0.09250000 0.09250820 21245.95394665 0 581.10005238 0 3819.22465822 0 1265.00035196 0 837.48805491 0 9204
0.09350000 0.09350330 20291.51029308 0 574.49954228 0 3999.12003252 0 -59.91210636 0 2549.44702969 0 9349
0.09450000 0.09448040 20437.75115909 0 358.49245344 0 4494.68660129 0 215.39447337 0 3064.61729335 0 9564
0.09550000 0.09549270 19812.77097844 0 204.27746980 0 5199.40795822 0 -425.94422628 0 4024.13048039 0 10155
0.09650000 0.09649430 20169.77404566 0 457.88790753 0 5605.69003824 0 92.33284083 0 4326.18924684 0 9913
0.09750000 0.09749140 19725.20630925 0 169.52250180 0 5777.35725621 0 303.68866080 0 5343.10843717 0 10476
0.09850000 0.09850240 19761.06398508 0 105.14021346 0 5504.74899468 0 1059.17504456 0 5415.71180024 0 10575
0.09950000 0.09950330 19567.61238600 0 -124.80044881 0 5161.89790673 0 732.33738764 0 4517.92102636 0 10882
0.10050000 0.10051200 19451.83368347 0 -1.34981106 0 4413.92252579 0 139.67407785 0 3672.84890440 0 10875
0.10150000 0.10150300 19485.66804217 0 297.78956730 0 3793.02270136 0 -249.27716687 0 2494.04186224 0 11118
0.10250000 0.10250800 19044.47250098 0 456.47832993 0 4137.08777959 0 -1597.09413716 0 2214.41943466 0 11575
0.10350000 0.10349800 18787.28641226 0 684.92432286 0 4351.63808009 0 -1776.09025940 0 386.93804418 0 11364
0.10450000 0.10450100 18198.27631395 0 624.24616615 0 5255.97091270 0 -1466.10683419 0 -441.90932251 0 12093
0.10550000 0.10551000 17591.95561352 0 731.91923544 0 5407.04525853 0 -822.47953805 0 -1739.19844370 0 12067
0.10650000 0.10649700 17104.67340433 0 637.43482165 0 5503.24274748 0 -187.54463712 0 -1771.20057633 0 12054
0.10750000 0.10749900 16511.72907827 0 477.07682239 0 5130.55897250 0 645.12230269 0 -2736.13175703 0 12807
0.10850000 0.10850100 16038.83490202 0 497.41115956 0 5043.83735211 0 899.15089262 0 -2055.75764959 0 12736
0.10950000 0.10950300 15725.67037266 0 129.12135495 0 4651.33630988 0 818.49247924 0 -2567.43207086 0 12933
0.11050000 0.11050200 15777.04014650 0 -34.87052188 0 4419.05950318 0 187.00171369 0 -1574.74772351 0 13428
0.11150000 0.11150900 15866.17850679 0 -145.52146436 0 4640.12938110 0 189.60280027 0 -1379.40769510 0 13453
0.11250000 0.11250000 16049.62592672 0 -26.52051690 0 4068.17134996 0 -284.35024528 0 -1703.36324917 0 13668
0.11350000 0.11349100 15888.65980826 0 203.58167352 0 4477.09498290 0 83.28400458 0 -881.86839212 0 13791
0.11450000 0.11448600 15716.34063255 0 261.37885145 0 4331.79833155 0 334.84774463 0 -915.18568089 0 14205
0.11550000 0.11549300 15496.92313028 0 278.48262560 0 3802.24003496 0 982.20244055 0 -1068.70037199 0 14776
0.11650000 0.11649800 14878.01290103 0 259.66690034 0 3548.77460163 0 791.36541683 0 -1498.58107415 0 14553
0.11750000 0.11747300 14886.89301511 0 180.60915562 0 2859.99248744 0 408.44815342 0 -886.37139681 0 14568
0.11850000 0.11849100 14639.48629252 0 237.08106083 0 2996.66755968 0 429.83798769 0 -931.07771289 0 16015
0.11950000 0.11950300 14499.54019092 0 204.84849486 0 3267.09513496 0 -288.52727109 0 -229.42055735 0 15270
0.12050000 0.12050700 14272.70385917 0 366.51265773 0 3467.70702856 0 -26.94114205 0 83.73228173 0 15999
0.12150000 0.12150000 14171.76281560 0 322.62353696 0 3749.02679440 0 -444.77568845 0 541.98033971 0 15670
0.12250000 0.12250700 13838.58992794 0 294.52415826 0 4037.70918648 0 7.54858031 0 901.20231138 0 16887
0.12350000 0.12352200 13983.36950935 0 120.33678640 0 3872.31425162 0 14.93893723 0 987.93517242 0 16407
0.12450000 0.12449800 13780.36335715 0 -43.68454094 0 4274.72954779 0 388.83771415 0 909.03929307 0 16306
0.12550000 0.12549900 13630.75029592 0 140.42720145 0 3883.63358691 0 255.82934218 0 709.28955739 0 17523
0.12650000 0.12650100 13724.38491651 0 220.79110979 0 4083.63848536 0 22.52716332 0 893.56204108 0 17154
0.12750000 0.12750600 13412.00723270 0 229.80498761 0 3701.26526945 0 -111.80434565 0 535.65410148 0 18007
0.12850000 0.12850300 13286.56157054 0 201.86297802 0 4258.86898961 0 -71.26044253 0 576.25758005 0 17496
0.12950000 0.12949900 13150.54969669 0 65.93102520 0 3837.49071566 0 -12.59885856 0 102.87578437 0 18405
0.13050000 0.13049000 13150.21247717 0 86.95126688 0 4448.95963412 0 155.45370335 0 -224.70622844 0 18100
0.13150000 0.13148800 12936.52770678 0 62.36335507 0 3784.24375314 0 -301.03024690 0 -343.74584374 0 19059
0.13250000 0.13249300 13129.19246030 0 35.34060590 0 3847.47241351 0 56.46954467 0 -959.48845762 0 18957
0.13350000 0.13349100 12992.39374091 0 100.17645450 0 3668.25147825 0 -199.52379861 0 -1137.82362959 0 19468
0.13450000 0.13450700 12979.01736654 0 50.48625869 0 3521.63967077 0 117.17029509 0 -1188.69881480 0 19953
0.13550000 0.13551000 12813.55498778 0 216.13073600 0 3167.45800688 0 63.11479257 0 -1753.15933191 0 19956
0.13650000 0.13649900 12764.32093758 0 163.31878667 0 3027.09600121 0 177.04924153 0 -1066.57701307 0 19723
0.13750000 0.13749600 12392.59261790 0 208.63209789 0 3273.76084085 0 222.09952153 0 -1704.71212726 0 20946
0.13850000 0.13851100 12314.35768882 0 191.56879008 0 3220.89606046 0 326.30709820 0 -835.49733566 0 20955
0.13950000 0.13949800 12073.92016968 0 237.43401726 0 3096.87796094 0 372.24089335 0 -1167.55515078 0 20506
0.14050000 0.14048300 11898.22879875 0 330.67858727 0 3100.29511877 0 423.23635352 0 -592.95893891 0 21447
0.14150000 0.14148400 11631.37575040 0 361.72976085 0 3096.99036745 0 340.83563927 0 -487.77904595 0 21771
0.14250000 0.14249400 11242.67404812 0 271.17620262 0 2904.68531474 0 306.38641697 0 70.18370060 0 22470
0.14350000 0.14350900 11276.39600032 0 30.64932032 0 2915.43137684 0 305.11509938 0 -53.58125947 0 22519
0.14450000 0.14449900 11306.40853777 0 -127.34533213 0 2890.34224441 0 100.11586739 0 509.62187845 0 22218
0.14550000 0.14550500 11508.85265743 0 10.83464967 0 3091.13398842 0 -444.12260664 0 230.07701136 0 23559
0.14650000 0.14650700 11484.01081932 0 143.71621586 0 3870.81924507 0 -666.96625925 0 225.15697853 0 23044
0.14750000 0.14750500 11417.24135398 0 321.39268570 0 3948.04251560 0 -547.43430345 0 937.94125423 0 23649
0.14850000 0.14849900 11135.68553447 0 277.95431502 0 4630.30505236 0 -92.37409402 0 531.79631015 0 23640
0.14950000 0.14949500 11078.56054745 0 224.83099966 0 4185.24272732 0 258.72830601 0 607.86966210 0 24457
0.15050000 0.15050000 10746.12954273 0 70.15267640 0 4167.24644550 0 826.32833686 0 219.97616261 0 24591
0.15150000 0.15149900 10749.17575908 0 158.62356686 0 3729.07463936 0 440.80324248 0 301.18199569 0 25020
0.15250000 0.15250500 10532.54593819 0 48.74305858 0 3263.45316413 0 413.03546298 0 -349.65055757 0 25297
0.15350000 0.15350100 10532.73702925 0 139.84381168 0 3257.42817533 0 -56.70964497 0 -241.93702194 0 25452
0.15450000 0.15450400 10399.36670833 0 110.98467740 0 2801.72095405 0 -149.39386854 0 -641.36904941 0 26061
0.15550000 0.15549900 10304.85531699 0 123.88658390 0 2915.62246791 0 -83.36077823 0 -646.63866647 0 26128
0.15650000 0.15649500 10226.66535050 0 -43.35451543 0 2719.49559395 0 285.44620873 0 -551.07515022 0 26331
0.15750000 0.15749700 10217.59414536 0 -9.61385879 0 2445.90939581 0 594.64278839 0 -513.55947840 0 27345
0.15850000 0.15849900 10305.21501781 0 19.40574702 0 2201.29035460 0 710.63169108 0 -385.78025715 0 26980
0.15950000 0.15949700 10068.71172643 0 187.48730980 0 1944.14922848 0 490.31381269 0 -452.22374362 0 27777
0.16050000 0.16050000 9905.19398025 0 350.74652102 0 2125.79814429 0 47.11114090 0 57.78728616 0 28224
0.16150000 0.16150500 9519.41484716 0 398.81041948 0 1820.26601677 0 -248.11937985 0 21.51898935 0 28075
0.16250000 0.16249700 9343.91456729 0 248.68141238 0 2271.67930948 0 -110.16051289 0 1.82317735 0 28590
0.16350000 0.16349900 9083.23263619 0 181.58934036 0 2319.10361491 0 -60.41827287 0 367.09379938 0 29163
0.16450000 0.16449100 8993.73457507 0 85.12893259 0 2343.90049043 0 104.39608238 0 -38.01981500 0 28996
0.16550000 0.16550500 8899.45923739 0 64.52909124 0 2372.03583921 0 146.39373886 0 273.12083520 0 30777
0.16650000 0.16650700 9016.83411232 0 92.12084216 0 2312.87629441 0 20.23081078 0 238.50637534 0 29211
0.16750000 0.16749900 8786.23216258 0 60.43558347 0 2496.02021677 0 67.03373304 0 826.36655507 0 30922
0.16850000 0.16850800 8887.55538827 0 113.38669205 0 2809.56692826 0 -162.91861950 0 1117.95802756 0 30867
0.16950000 0.16949900 8751.10512904 0 158.70225141 0 2658.87476456 0 -61.05336963 0 1159.46188225 0 30852
0.17050000 0.17049200 8715.47226623 0 236.92818798 0 3184.18409517 0 -87.14157110 0 1597.61120709 0 31257
0.17150000 0.17149500 8536.09396186 0 168.43440681 0 3012.92154063 0 -3.02400482 0 1204.87411120 0 32608
0.17250000 0.17250900 8502.15843730 0 76.64302813 0 3142.73981593 0 130.60174865 0 1739.92908600 0 32361
0.17350000 0.17350400 8377.09495727 0 0.74755498 0 2811.79257710 0 113.07645009 0 825.67637912 0 32508
0.17450000 0.17449800 8403.91514992 0 37.71294524 0 2626.71526282 0 242.81379270 0 1055.42403941 0 32791
0.17550000 0.17549800 8278.15474954 0 115.96417327 0 2242.84704035 0 200.86480824 0 91.01049068 0 33633
0.17650000 0.17650100 8154.29401913 0 186.02040488 0 2122.34726452 0 311.62905648 0 627.19346477 0 33984
0.17750000 0.17750300 7920.01637660 0 218.70821721 0 1734.92699642 0 407.93670381 0 100.18106317 0 34069
