### header ###
fiducial parameters:
Omega_m = 0.31
Omega_nu = 0
Omega_de = 0.69
Omega_k = 0
H_0 = 100
w_de = -1
zeff = 0
beta = 0
fgrowth = 0
b_1 = 2
gamma = 0.55
Lx = 3500 Ly = 3500 Lz = 3500
nx = 700 ny = 700 nz = 700
xoffset = 857.220397 yoffset = 15.9954215 zoffset = 262.898189
bins = 400 dk = 0.001
kx_ny = 0.628318531 ky_ny = 0.628318531 kz_ny = 0.628318531
############################
A(data) = 3.07909959 (not used)
A(ran) = 3.08054852 (used)
Ngal = 188209
weighted Ngal = 0
Nran = 9360983
weighted Nran = 0
SN(data) = 3446.60522
SN(ran) = 69.1775424
SN(data+ran) = 3515.78276
############################
13 columns: k_central k_mean P_0(k) sigma^{lin}_{P_0(k)} P^img_1(k) sigma^{lin}_{P_1(k)} P_2(k) sigma^{lin}_{P_2(k)} P^img_3(k) sigma^{lin}_{P_3(k)} P_4(k) sigma^{lin}_{P_4(k)} N_modes
### header ###
0.00050000 0 0 0 0 0 0 0 0 0 0 0 0
0.00150000 0.00179520 7972.27416185 0 -20594.78304980 0 -15872.47327120 0 7483.91285019 0 24104.56383404 0 3
0.00250000 0.00253879 14031.59190099 0 -17625.67756572 0 -14692.87938349 0 -12623.36317741 0 -36036.85180451 0 6
0.00350000 0.00331552 26800.18428584 0 -19901.90933874 0 -22187.02122584 0 7937.74288280 0 -1168.74665975 0 7
0.00450000 0.00420575 35482.91253649 0 -19055.15111918 0 -28310.02849203 0 -4141.23557971 0 312.08767503 0 24
0.00550000 0.00557378 44959.11832224 0 -9953.03418976 0 -37853.22855613 0 -17529.34518895 0 -14453.56592943 0 45
0.00650000 0.00659388 51001.97974871 0 -16372.12019620 0 -39743.23157004 0 -26287.38579950 0 -10097.63392076 0 40
0.00750000 0.00754703 53819.11163491 0 -14156.47553061 0 -40477.13365627 0 -29506.14613632 0 -7928.90773133 0 57
0.00850000 0.00846663 70121.53979658 0 -14097.57452078 0 -48103.12833170 0 -18329.45470798 0 11087.32825502 0 75
0.00950000 0.00948925 82434.09898127 0 -12158.78708270 0 -43949.25826057 0 -13058.82598673 0 26530.29626179 0 112
0.01050000 0.01054430 90298.62026521 0 3676.44591263 0 -27774.07426518 0 -19441.49228480 0 28029.57425629 0 105
0.01150000 0.01145670 87927.85461954 0 9890.43500584 0 -21335.20471345 0 -5150.12894542 0 36660.03348104 0 144
0.01250000 0.01249090 75913.50989873 0 12091.45558482 0 -1468.06270742 0 -3233.81156815 0 37292.76971069 0 169
0.01350000 0.01339930 78389.15081573 0 6992.58400673 0 8341.81055463 0 6376.98976945 0 27819.71130714 0 180
0.01450000 0.01448870 65935.97109038 0 1348.72071861 0 26676.19990828 0 -705.39467191 0 31742.13637972 0 267
0.01550000 0.01550050 65726.10814124 0 -4328.78583716 0 9455.14080628 0 -1808.11487333 0 -5112.15802725 0 238
0.01650000 0.01653350 69441.93005338 0 289.25341713 0 25386.78486293 0 -8498.35909736 0 9455.83772662 0 315
0.01750000 0.01747870 76095.15881455 0 -609.66366996 0 4048.41028597 0 -2835.91501357 0 -11652.39576727 0 297
0.01850000 0.01844180 69241.39684434 0 -193.12337208 0 1660.32279752 0 -6613.58298604 0 -9592.63644602 0 388
0.01950000 0.01947590 73047.03155582 0 215.29443158 0 4887.72719475 0 -5934.08564935 0 -37062.11155769 0 399
0.02050000 0.02045430 69270.73494275 0 2922.46802420 0 4647.41332278 0 -8584.29387220 0 -31735.16717627 0 462
0.02150000 0.02154770 65557.16116075 0 5465.27182931 0 18342.15664331 0 -7928.03096057 0 -26785.34662688 0 571
0.02250000 0.02255340 65187.45615821 0 4647.30091627 0 19451.04683792 0 -11749.29017657 0 -8939.06004992 0 510
0.02350000 0.02348930 59789.02123814 0 1065.87110020 0 30147.98729305 0 5502.86056536 0 -9758.86318903 0 555
0.02450000 0.02439640 65698.23132742 0 -1937.65213236 0 39630.48784321 0 5618.75167439 0 3731.87356139 0 592
0.02550000 0.02547300 68217.82318878 0 -2497.79623958 0 32279.88911069 0 10960.79224974 0 7551.31179197 0 837
0.02650000 0.02652900 73527.79418759 0 610.25605225 0 47094.95436763 0 8505.76668619 0 15662.04828952 0 723
0.02750000 0.02749970 71038.77689623 0 2916.21822239 0 38981.22785699 0 2334.03119908 0 13379.29693907 0 826
0.02850000 0.02848090 70044.76615208 0 4352.37996304 0 47761.63736249 0 3714.86645683 0 10451.96171310 0 831
0.02950000 0.02946900 65469.48408505 0 6143.26291880 0 40703.40795548 0 -4403.73849623 0 10459.09952632 0 996
0.03050000 0.03053250 60284.28430935 0 5659.39786744 0 46786.51091158 0 1931.45853380 0 8335.45958696 0 1041
0.03150000 0.03150510 58317.17043143 0 3853.08149822 0 43899.34977132 0 636.99418814 0 -10037.56388325 0 1036
0.03250000 0.03246190 55757.22463395 0 1796.82926000 0 45848.81582760 0 8989.10342697 0 5397.14224523 0 1059
0.03350000 0.03345080 53759.87340556 0 -878.01172486 0 34196.86968636 0 9542.71671612 0 -16112.57357082 0 1302
0.03450000 0.03451200 54397.78033454 0 -1568.43047780 0 31722.01561492 0 7098.56086183 0 -3961.12663305 0 1339
0.03550000 0.03553350 56284.63596625 0 -1516.45370882 0 22791.09379613 0 7774.92205696 0 -14442.88731124 0 1365
0.03650000 0.03647120 53695.91410290 0 1104.93123742 0 19082.91552648 0 5084.32617604 0 -8891.95048270 0 1308
0.03750000 0.03744890 52322.53139659 0 2248.50108767 0 12509.49538551 0 5246.45008153 0 -7528.75180595 0 1579
0.03850000 0.03847530 48854.34102005 0 2401.43014087 0 10123.04903206 0 3424.39680129 0 -7795.05406242 0 1662
0.03950000 0.03950240 47838.52341349 0 2221.11886249 0 9063.78631043 0 2977.77202580 0 -7122.09878446 0 1683
0.04050000 0.04050350 45059.49733327 0 1182.44901300 0 8798.41702797 0 1149.46894375 0 -9764.07885097 0 1822
0.04150000 0.04152450 43730.51519734 0 188.68443911 0 6890.20415988 0 3263.48688608 0 -8675.68036264 0 1887
0.04250000 0.04250150 44180.02882007 0 533.00130791 0 9287.00315264 0 675.09212567 0 -7670.03554499 0 1920
0.04350000 0.04349210 42757.86168959 0 730.07801685 0 4653.43831157 0 -581.91162737 0 -4592.35661550 0 2005
0.04450000 0.04448520 42032.39009141 0 325.85185185 0 5499.35348233 0 3100.43000657 0 -2895.38929659 0 2151
0.04550000 0.04548030 40670.58525535 0 418.59171664 0 2850.49413757 0 909.58671276 0 -5003.97800461 0 2274
0.04650000 0.04648670 40626.97153051 0 1110.39868994 0 4708.77603512 0 -137.96887114 0 -704.49092359 0 2311
0.04750000 0.04749250 39870.47573632 0 1449.23461745 0 5166.76510850 0 -3514.53557950 0 -2234.00064823 0 2568
0.04850000 0.04851840 39997.49508958 0 1493.77007564 0 7395.24659722 0 -2680.44557331 0 4935.11777824 0 2493
0.04950000 0.04949480 39157.93088648 0 1272.22809038 0 7489.35332514 0 -2173.93061072 0 4319.96192633 0 2644
0.05050000 0.05050630 39229.64623814 0 -51.82715592 0 10448.70192439 0 -646.71173070 0 6525.10782413 0 2829
0.05150000 0.05149060 39599.46364719 0 -47.38856016 0 9005.55973964 0 1677.84697201 0 2415.51467623 0 2784
0.05250000 0.05249300 39692.19901572 0 80.55027833 0 10538.66085219 0 825.95739539 0 2122.77440925 0 3055
0.05350000 0.05348950 38332.75471632 0 174.45939561 0 10043.46522489 0 2009.74966615 0 -1229.64850542 0 3009
0.05450000 0.05448610 37764.31500885 0 1019.24488097 0 6898.29742840 0 736.51216533 0 -67.62600293 0 3336
0.05550000 0.05550870 37081.22066393 0 951.44239982 0 7202.46943718 0 2266.71094186 0 334.50715291 0 3349
0.05650000 0.05647670 34936.61691096 0 1422.52683131 0 6528.28892829 0 1209.85371948 0 717.81896316 0 3324
0.05750000 0.05747970 34349.40531678 0 1129.42686350 0 6829.45968333 0 125.72443030 0 -829.38129760 0 3639
0.05850000 0.05849280 34677.85713114 0 177.85182400 0 6985.43495287 0 298.23919332 0 381.65156614 0 3846
0.05950000 0.05951020 33822.55601702 0 -95.88286314 0 9154.90302525 0 -1575.62449426 0 2409.80442566 0 3787
0.06050000 0.06049470 35611.61798736 0 112.62907219 0 11333.16128651 0 -2610.75353878 0 11.39948113 0 3930
0.06150000 0.06148310 35064.76032930 0 32.26212888 0 10978.46255269 0 -1988.23506065 0 475.13443794 0 4083
0.06250000 0.06249100 35178.74052771 0 1061.07134234 0 12717.89705006 0 -1641.67455796 0 -2282.27924312 0 4303
0.06350000 0.06350600 33840.20383866 0 433.91159952 0 8592.39838137 0 897.90655259 0 -3606.20308622 0 4470
0.06450000 0.06451750 33094.27425615 0 1096.84358922 0 9733.43683708 0 1208.85330156 0 -7381.00469274 0 4479
0.06550000 0.06550280 31521.14518635 0 962.78646454 0 5352.59554638 0 289.79184430 0 -7596.19571034 0 4636
0.06650000 0.06648880 30414.61552839 0 905.18150174 0 7705.51103870 0 873.64473205 0 -8626.94090107 0 4653
0.06750000 0.06749660 30285.23563848 0 1148.46852584 0 7320.48502921 0 -1400.03428920 0 -6431.90034827 0 5220
0.06850000 0.06852730 29561.67495093 0 873.42216716 0 8702.88273741 0 264.21374356 0 -4250.44974221 0 5029
0.06950000 0.06949320 29152.17804480 0 583.84389523 0 11164.86626376 0 153.27189304 0 -1149.81740392 0 5040
0.07050000 0.07048030 29401.60808452 0 220.40330734 0 11467.48706274 0 431.78262027 0 29.12306476 0 5475
0.07150000 0.07148790 29284.93012993 0 102.11423028 0 13572.29891212 0 1218.29544818 0 1387.10754086 0 5509
0.07250000 0.07249820 29270.65450350 0 258.05386696 0 13593.09411597 0 770.42071232 0 3205.76614457 0 5916
0.07350000 0.07351270 29550.88392622 0 174.23233446 0 14153.32814841 0 -588.39635877 0 3540.86118352 0 5721
0.07450000 0.07449140 29444.54737031 0 -52.48473399 0 13347.48589750 0 634.07836334 0 3314.32834933 0 6028
0.07550000 0.07549160 29164.31794759 0 419.61236772 0 14126.01336713 0 -170.32733240 0 2693.75450378 0 6183
0.07650000 0.07648840 29279.08499155 0 219.32083267 0 11056.31529965 0 1641.00011892 0 352.35393407 0 6330
0.07750000 0.07749960 28436.82303228 0 885.55195337 0 12459.13727023 0 1528.39127989 0 -486.96859503 0 6583
0.07850000 0.07848650 27544.20295773 0 622.72643017 0 9180.76776258 0 742.16059232 0 -1529.30177260 0 6549
0.07950000 0.07947320 26601.11236140 0 783.79146637 0 10151.81385728 0 955.35639441 0 -1469.13056924 0 6828
0.08050000 0.08048110 26438.68495834 0 418.19042541 0 9250.01017109 0 -1038.89241438 0 -2753.85826324 0 7147
0.08150000 0.08149960 25735.13262908 0 290.90354466 0 9821.83331442 0 -184.40512337 0 -2613.32764780 0 7386
0.08250000 0.08250610 25879.91221050 0 252.82246811 0 10598.94446206 0 -93.74298046 0 -2296.74596061 0 7227
0.08350000 0.08350160 24964.24880195 0 412.28795971 0 9131.12904896 0 415.04641540 0 -1458.54187625 0 7798
0.08450000 0.08449610 25019.44039704 0 856.57243172 0 11170.93621516 0 893.86104239 0 187.50754297 0 7371
0.08550000 0.08548940 23781.28271902 0 999.01395778 0 10446.82473572 0 1336.52461257 0 82.49524812 0 8256
0.08650000 0.08650700 23058.95850305 0 1226.64725167 0 10361.93534140 0 1545.76932592 0 2037.67144256 0 8037
0.08750000 0.08749060 22059.10262053 0 805.42185057 0 9599.68433403 0 1110.75614263 0 3798.98024625 0 8155
0.08850000 0.08849210 21619.81798996 0 434.16451416 0 8864.78182989 0 2025.17183895 0 4308.30537152 0 8718
0.08950000 0.08949900 21175.58747307 0 -56.85757193 0 8110.33183412 0 1842.53374587 0 3812.14304826 0 8571
0.09050000 0.09049190 21388.71021093 0 -414.50574010 0 6201.99531887 0 1747.20178702 0 3662.31641466 0 8932
0.09150000 0.09150830 21363.86837281 0 -105.99382847 0 5050.45809539 0 1392.99764184 0 1722.47235541 0 9285
0.09250000 0.09250820 21119.15940640 0 232.39595760 0 3727.98429623 0 513.78878768 0 2037.04196612 0 9204
0.09350000 0.09350330 20703.36773586 0 505.07166304 0 3575.30253736 0 -200.99632385 0 751.99278951 0 9349
0.09450000 0.09448040 20381.21068591 0 740.85892496 0 4011.48474832 0 -582.16454201 0 1112.44786057 0 9564
0.09550000 0.09549270 19744.09060248 0 796.98461813 0 4818.01267892 0 -1588.85474017 0 260.70553647 0 10155
0.09650000 0.09649430 18957.58227083 0 840.97153257 0 5254.11620533 0 -655.55924689 0 75.58674418 0 9913
0.09750000 0.09749140 18571.35351171 0 624.89250357 0 6004.64321399 0 -343.93693481 0 671.87617549 0 10476
0.09850000 0.09850240 17703.57527528 0 628.36136838 0 6040.45592722 0 326.79943870 0 193.38865144 0 10575
0.09950000 0.09950330 17613.20044340 0 292.94934309 0 5373.32330633 0 906.84286992 0 -303.47059218 0 10882
0.10050000 0.10051200 17024.52756462 0 339.67223192 0 5258.16283959 0 676.65794831 0 -317.90358771 0 10875
0.10150000 0.10150300 16733.05749117 0 369.84551068 0 4065.26002142 0 706.17926933 0 -664.63270016 0 11118
0.10250000 0.10250800 16228.68949287 0 188.49784430 0 4037.22583849 0 931.36097729 0 5.53910042 0 11575
0.10350000 0.10349800 16009.04717758 0 -24.49618811 0 3531.10429868 0 712.45829683 0 -388.70395041 0 11364
0.10450000 0.10450100 16234.98425728 0 120.51101649 0 3276.60472548 0 691.25056109 0 -37.36527191 0 12093
0.10550000 0.10551000 16040.07137360 0 187.73797631 0 3632.37132112 0 151.64087462 0 211.29725618 0 12067
0.10650000 0.10649700 15779.73790267 0 276.31318001 0 3479.81320940 0 -146.85010928 0 1656.75951124 0 12054
0.10750000 0.10749900 15819.97943229 0 120.76617926 0 4233.58876611 0 -327.37496002 0 1481.50652569 0 12807
0.10850000 0.10850100 15962.96050959 0 -23.83040436 0 4769.31817995 0 -40.07044691 0 2663.28109965 0 12736
0.10950000 0.10950300 15854.26341702 0 -15.53660263 0 5052.04302714 0 -151.04512013 0 2020.68681931 0 12933
0.11050000 0.11050200 16048.95148768 0 191.01350194 0 5275.78817994 0 -169.45618196 0 2178.28074256 0 13428
0.11150000 0.11150900 15897.53992233 0 193.00084899 0 5969.49369915 0 -335.56377408 0 2674.97137641 0 13453
0.11250000 0.11250000 15561.55687198 0 468.02360229 0 5579.56676594 0 240.99168322 0 1391.35650683 0 13668
0.11350000 0.11349100 15333.48406865 0 229.38795947 0 5453.15440782 0 895.80117870 0 3012.80913413 0 13791
0.11450000 0.11448600 14921.17699984 0 177.99570433 0 5015.81440983 0 637.12570376 0 1340.62745008 0 14205
0.11550000 0.11549300 15074.16225629 0 130.56240637 0 4648.88584802 0 913.19496165 0 1960.38072814 0 14776
0.11650000 0.11649800 14481.77996277 0 149.20952187 0 3761.63880452 0 554.69126756 0 664.16621316 0 14553
0.11750000 0.11747300 14353.29932491 0 217.85392775 0 3333.38125232 0 44.44024988 0 991.79296375 0 14568
0.11850000 0.11849100 14343.18273925 0 275.37795787 0 3914.66902357 0 -320.98465008 0 1174.33326317 0 16015
0.11950000 0.11950300 14294.39831508 0 112.42898861 0 3992.29695752 0 -313.71644532 0 877.26309752 0 15270
0.12050000 0.12050700 14212.11675173 0 -39.45266075 0 3912.97168531 0 404.80730665 0 1657.79365111 0 15999
0.12150000 0.12150000 14331.49246249 0 -103.91104830 0 4040.39570200 0 301.05722446 0 1041.88467560 0 15670
0.12250000 0.12250700 14361.95462597 0 109.84318932 0 3960.72196962 0 506.22158161 0 2449.30407233 0 16887
0.12350000 0.12352200 14354.53579649 0 384.64607549 0 4113.86459518 0 202.62509414 0 1475.15555803 0 16407
0.12450000 0.12449800 13797.89877229 0 453.19830804 0 4014.95810940 0 1.05143586 0 2477.69795608 0 16306
0.12550000 0.12549900 13545.88338290 0 386.00507017 0 3899.01079711 0 249.45814135 0 1857.55125525 0 17523
0.12650000 0.12650100 13084.56707690 0 326.63982146 0 3409.26688541 0 635.38340289 0 1998.48653411 0 17154
0.12750000 0.12750600 13015.21226189 0 93.45049873 0 3176.61913723 0 418.30283191 0 1772.23471620 0 18007
0.12850000 0.12850300 12649.89111314 0 108.55208817 0 2981.51516249 0 368.67535894 0 1354.28484072 0 17496
0.12950000 0.12949900 12930.79497490 0 35.55563955 0 3277.66134665 0 -86.97678316 0 1087.60040213 0 18405
0.13050000 0.13049000 12603.24241260 0 8.02310438 0 2938.91309622 0 -699.55402979 0 923.23173868 0 18100
0.13150000 0.13148800 12825.58248406 0 207.21127964 0 3550.77543746 0 -312.31923243 0 1713.10889336 0 19059
0.13250000 0.13249300 12629.77034833 0 15.81390948 0 3974.30067570 0 -578.13139653 0 1094.30095403 0 18957
0.13350000 0.13349100 12815.46589840 0 104.72228606 0 4188.71608840 0 252.67633965 0 1549.13028049 0 19468
0.13450000 0.13450700 12599.87021738 0 211.58614090 0 4472.31770634 0 -87.23048465 0 1024.18964322 0 19953
0.13550000 0.13551000 12468.69182335 0 327.54469385 0 4166.30223084 0 169.48428359 0 1519.93831054 0 19956
0.13650000 0.13649900 12113.59966676 0 247.59893772 0 4105.63643884 0 285.29895620 0 1375.56339255 0 19723
0.13750000 0.13749600 12039.29896543 0 222.19731519 0 4117.82130424 0 92.75515208 0 1370.47137777 0 20946
0.13850000 0.13851100 11953.19558083 0 -16.43720356 0 3569.06397620 0 510.52450270 0 772.17200571 0 20955
0.13950000 0.13949800 12034.24067260 0 -1.78480176 0 3977.45929856 0 139.67857411 0 1217.54232458 0 20506
0.14050000 0.14048300 11863.94481402 0 136.01974230 0 3379.81638049 0 28.31947064 0 553.55146557 0 21447
0.14150000 0.14148400 11886.98814802 0 126.91369114 0 3802.27375692 0 61.82121848 0 659.35633871 0 21771
0.14250000 0.14249400 11596.08010711 0 148.15964509 0 3093.19102750 0 211.54230237 0 120.06363859 0 22470
0.14350000 0.14350900 11513.23651122 0 160.93352058 0 3606.03447645 0 374.60367813 0 -171.08382819 0 22519
0.14450000 0.14449900 11312.70330218 0 217.77861539 0 2603.34594995 0 226.47101060 0 -371.64513886 0 22218
0.14550000 0.14550500 11056.52887202 0 289.77610739 0 2693.52969076 0 -134.19313656 0 -166.39310464 0 23559
0.14650000 0.14650700 10928.70019190 0 329.64107521 0 2578.49287118 0 -86.68733640 0 -726.63612959 0 23044
0.14750000 0.14750500 10533.99598214 0 269.60251152 0 2387.55917787 0 150.81693492 0 -420.84434304 0 23649
0.14850000 0.14849900 10293.49101910 0 176.92671844 0 2527.28046645 0 4.52936401 0 -370.51770159 0 23640
0.14950000 0.14949500 10225.72113584 0 109.31375467 0 2271.07231434 0 279.48079538 0 -264.13281088 0 24457
0.15050000 0.15050000 10209.86057766 0 42.00136590 0 2691.70870534 0 317.90021552 0 315.23280910 0 24591
0.15150000 0.15149900 10137.59443411 0 115.36954284 0 2137.96052838 0 368.89117943 0 487.01355764 0 25020
0.15250000 0.15250500 10257.77947172 0 -56.53563970 0 2619.25147073 0 553.59418005 0 1126.13335283 0 25297
0.15350000 0.15350100 10252.33899677 0 -47.40924296 0 2064.10945308 0 321.34997123 0 1132.15834163 0 25452
0.15450000 0.15450400 10353.12267122 0 33.72296385 0 2504.10224464 0 283.22618021 0 1552.89589849 0 26061
0.15550000 0.15549900 10235.89392475 0 86.68351458 0 2370.19237249 0 97.74914838 0 1412.94979689 0 26128
0.15650000 0.15649500 10203.65573845 0 151.67234844 0 2629.82892307 0 -48.68539404 0 2041.04363778 0 26331
0.15750000 0.15749700 10106.12061206 0 241.63464844 0 2697.80113804 0 -43.06697958 0 1628.39934945 0 27345
0.15850000 0.15849900 9892.42460101 0 255.09195549 0 2812.74803242 0 -171.00514364 0 1746.79712360 0 26980
0.15950000 0.15949700 9678.85223713 0 272.94098479 0 2948.66998106 0 6.91874417 0 1432.57597306 0 27777
0.16050000 0.16050000 9448.99217033 0 336.77776436 0 3036.97653320 0 -345.00704476 0 1580.78395295 0 28224
0.16150000 0.16150500 9154.10493905 0 218.86671038 0 3227.89898586 0 -88.11074001 0 1146.71498432 0 28075
0.16250000 0.16249700 9036.30291939 0 165.28365241 0 2979.63797382 0 -23.88694484 0 994.82569132 0 28590
0.16350000 0.16349900 9062.95450227 0 20.93694846 0 3043.01276264 0 95.99740537 0 840.63768524 0 29163
0.16450000 0.16449100 8892.54623719 0 58.74420275 0 2694.66499649 0 57.09407523 0 464.17480348 0 28996
0.16550000 0.16550500 8871.14403820 0 41.85355134 0 2425.48513343 0 196.75747446 0 167.08665279 0 30777
0.16650000 0.16650700 8761.89615375 0 28.65882588 0 2366.44923579 0 104.17037011 0 131.47065095 0 29211
0.16750000 0.16749900 8760.00772442 0 58.53962291 0 2199.15463096 0 157.09483836 0 7.56412613 0 30922
0.16850000 0.16850800 8771.43946622 0 76.06031280 0 2447.20207064 0 -125.78737794 0 -339.92964282 0 30867
0.16950000 0.16949900 8710.35777014 0 85.32193456 0 2215.36364932 0 -280.33508484 0 -189.98273426 0 30852
0.17050000 0.17049200 8637.45090950 0 122.72542468 0 2662.29192238 0 -373.67969664 0 -370.12652694 0 31257
0.17150000 0.17149500 8596.93960427 0 121.51480660 0 2607.87593219 0 -205.84554058 0 -36.84415534 0 32608
0.17250000 0.17250900 8447.71996581 0 92.24235359 0 2956.93185934 0 73.45562921 0 160.60416951 0 32361
0.17350000 0.17350400 8460.29825398 0 67.89757705 0 2590.49788616 0 380.49939944 0 198.37388004 0 32508
0.17450000 0.17449800 8387.72861286 0 114.28482005 0 2618.49834713 0 579.40046599 0 208.90974197 0 32791
0.17550000 0.17549800 8200.39192778 0 101.62717288 0 2101.09119399 0 443.39870873 0 321.11504163 0 33633
0.17650000 0.17650100 8177.42727834 0 179.51319217 0 2065.14359295 0 407.49831843 0 622.85007733 0 33984
0.17750000 0.17750300 7942.83489758 0 109.35264732 0 1722.13513589 0 114.88057454 0 284.83471733 0 34069
0.17850000 0.17849800 7884.18118207 0 194.16650447 0 1773.97701706 0 -76.66000151 0 612.98977851 0 34536
