### header ###
fiducial parameters:
Omega_m = 0.31
Omega_nu = 0
Omega_de = 0.69
Omega_k = 0
H_0 = 100
w_de = -1
zeff = 0
beta = 0
fgrowth = 0
b_1 = 2
gamma = 0.55
Lx = 3500 Ly = 3500 Lz = 3500
nx = 700 ny = 700 nz = 700
xoffset = 857.220397 yoffset = 15.9954215 zoffset = 262.898189
bins = 400 dk = 0.001
kx_ny = 0.628318531 ky_ny = 0.628318531 kz_ny = 0.628318531
############################
A(data) = 3.07064211 (not used)
A(ran) = 3.07026183 (used)
Ngal = 187553
weighted Ngal = 0
Nran = 9360983
weighted Nran = 0
SN(data) = 3445.45599
SN(ran) = 68.946542
SN(data+ran) = 3514.40253
############################
13 columns: k_central k_mean P_0(k) sigma^{lin}_{P_0(k)} P^img_1(k) sigma^{lin}_{P_1(k)} P_2(k) sigma^{lin}_{P_2(k)} P^img_3(k) sigma^{lin}_{P_3(k)} P_4(k) sigma^{lin}_{P_4(k)} N_modes
### header ###
0.00050000 0 0 0 0 0 0 0 0 0 0 0 0
0.00150000 0.00179520 24305.09704309 0 -57309.89571942 0 -63930.63899998 0 28494.15035100 0 105485.30143532 0 3
0.00250000 0.00253879 35999.53284409 0 -48153.71125999 0 -38444.48678458 0 -66492.94533410 0 -125334.37971562 0 6
0.00350000 0.00331552 78232.34373803 0 -53575.63914008 0 -74779.44064648 0 9395.19441593 0 20828.47617850 0 7
0.00450000 0.00420575 101053.56247812 0 -42205.60851917 0 -67324.30386217 0 -53305.52630301 0 -6093.20830110 0 24
0.00550000 0.00557378 108768.13348130 0 11466.02577815 0 -70465.95333497 0 -83694.28833473 0 8804.93660539 0 45
0.00650000 0.00659388 92431.42133491 0 314.86748795 0 -45070.96279701 0 -36812.79392447 0 23956.86168344 0 40
0.00750000 0.00754703 79017.05356556 0 -6207.95286376 0 -64982.20187586 0 -8348.64487027 0 18656.89486378 0 57
0.00850000 0.00846663 101099.87395913 0 -31929.96765344 0 -74123.88589585 0 -17330.04845149 0 -19822.43793807 0 75
0.00950000 0.00948925 115806.80415604 0 -20129.64492255 0 -64851.47310786 0 -34998.66530300 0 -41682.46863415 0 112
0.01050000 0.01054430 136807.71191675 0 -440.84483289 0 -41047.25946135 0 -75170.39047891 0 -22191.96711217 0 105
0.01150000 0.01145670 127696.04043421 0 27943.69568471 0 -7161.74455959 0 -92849.34872909 0 -4512.10960993 0 144
0.01250000 0.01249090 112956.17513066 0 29013.24360176 0 31737.19049340 0 -54126.88065193 0 -6764.19646518 0 169
0.01350000 0.01339930 84835.43919694 0 20492.04350212 0 65454.42161307 0 -26010.64097850 0 -24157.50729899 0 180
0.01450000 0.01448870 89658.57761259 0 6725.49490472 0 69055.13926173 0 21271.91984983 0 -19935.74369744 0 267
0.01550000 0.01550050 84898.38684103 0 1391.99722392 0 99635.89160792 0 33390.35299641 0 -40705.54367912 0 238
0.01650000 0.01653350 87975.29016562 0 -8.41050217 0 56552.50067317 0 28614.42531383 0 -14072.95749568 0 315
0.01750000 0.01747870 82126.21755775 0 -4037.95648079 0 58510.50962400 0 26019.40868607 0 -13727.86951824 0 297
0.01850000 0.01844180 87720.57702006 0 2188.43105017 0 51018.72831830 0 657.33077345 0 2960.29281391 0 388
0.01950000 0.01947590 84509.01069971 0 1255.61440860 0 55299.73014920 0 15487.59339017 0 4022.50058604 0 399
0.02050000 0.02045430 82084.73955656 0 2899.93051949 0 49899.83394454 0 4139.23474388 0 10804.96310866 0 462
0.02150000 0.02154770 81920.06402335 0 2384.37807371 0 64148.37040463 0 6361.48891209 0 20631.09035166 0 571
0.02250000 0.02255340 78810.22559211 0 4099.86998502 0 52298.47640402 0 5294.82984228 0 10350.43615570 0 510
0.02350000 0.02348930 80375.03658037 0 3777.02725537 0 59249.47000305 0 9833.36622207 0 16773.63624031 0 555
0.02450000 0.02439640 73509.92155293 0 3181.53130160 0 48098.74447791 0 10392.97077807 0 -2152.29235807 0 592
0.02550000 0.02547300 70833.97223991 0 2519.35580769 0 37793.09107472 0 10572.63009870 0 10293.12007762 0 837
0.02650000 0.02652900 65867.06590140 0 688.76974948 0 21522.58636114 0 12025.36055852 0 -14407.02963540 0 723
0.02750000 0.02749970 62473.62585222 0 2055.53283657 0 19013.67311798 0 10452.70359605 0 -7569.37551769 0 826
0.02850000 0.02848090 61092.48709691 0 682.47048881 0 7776.72056108 0 5207.16400723 0 -20935.59957996 0 831
0.02950000 0.02946900 59879.73328954 0 379.36971404 0 2047.13607048 0 1024.29755347 0 -11979.83592306 0 996
0.03050000 0.03053250 59352.77158327 0 996.79842552 0 5963.34506320 0 -5767.40928031 0 -11149.93867959 0 1041
0.03150000 0.03150510 56687.16366892 0 1926.96227351 0 9290.55519827 0 -5724.98706445 0 -12953.27627636 0 1036
0.03250000 0.03246190 56391.87177422 0 468.10116278 0 9136.33347025 0 -3191.13081732 0 1221.66764340 0 1059
0.03350000 0.03345080 59055.79359096 0 894.74792973 0 21758.97724601 0 -2310.06613173 0 -1339.70571672 0 1302
0.03450000 0.03451200 56367.14234261 0 1523.28802446 0 19643.59918494 0 3699.65785639 0 8032.00697983 0 1339
0.03550000 0.03553350 57064.28750095 0 -362.25020298 0 17347.13424060 0 4918.27928344 0 -1576.50126502 0 1365
0.03650000 0.03647120 55022.42329567 0 382.23495591 0 14172.21244163 0 3080.59025803 0 5110.24711662 0 1308
0.03750000 0.03744890 54651.59422805 0 619.47450992 0 12955.86162603 0 4594.70591150 0 -2680.91768064 0 1579
0.03850000 0.03847530 55828.93998561 0 133.00837197 0 10554.22915345 0 1137.43020682 0 3114.04243461 0 1662
0.03950000 0.03950240 51931.24434464 0 1975.18466515 0 6557.55958279 0 2595.09531231 0 -1501.00905471 0 1683
0.04050000 0.04050350 52027.23950189 0 863.90470819 0 6997.47368980 0 1943.55347399 0 -3178.42888200 0 1822
0.04150000 0.04152450 49862.85220363 0 1402.34986325 0 6122.40027105 0 1305.09575312 0 -5442.05988555 0 1887
0.04250000 0.04250150 49758.76377786 0 1219.36331000 0 7335.28896622 0 2145.23322941 0 -1058.21846518 0 1920
0.04350000 0.04349210 46427.59693373 0 761.29667612 0 7781.30674658 0 1402.94561774 0 5491.82224634 0 2005
0.04450000 0.04448520 47272.44424268 0 1993.12474371 0 9624.06530546 0 781.24995524 0 5891.97817171 0 2151
0.04550000 0.04548030 44684.28441187 0 3022.36368725 0 12231.96371896 0 719.05880694 0 12125.17753701 0 2274
0.04650000 0.04648670 43367.66699174 0 3853.23886733 0 11624.85617298 0 -1952.92817670 0 10834.23376316 0 2311
0.04750000 0.04749250 39279.89194691 0 3384.45876924 0 14886.89301511 0 -2994.59927994 0 7855.41635685 0 2568
0.04850000 0.04851840 39274.49643456 0 1639.67372213 0 17584.53678404 0 -4947.56117860 0 9264.31951947 0 2493
0.04950000 0.04949480 38741.01515087 0 -441.05952932 0 19584.24854908 0 -4634.44161183 0 5151.88248693 0 2644
0.05050000 0.05050630 40762.75859134 0 -2305.64855599 0 20097.04703543 0 -3695.67866603 0 1846.33308582 0 2829
0.05150000 0.05149060 43443.76619719 0 -1843.65781094 0 23533.42637040 0 -1164.14923361 0 1198.28708988 0 2784
0.05250000 0.05249300 45035.32993419 0 117.77166990 0 21415.23814666 0 820.33931815 0 1145.37734689 0 3055
0.05350000 0.05348950 44993.73952649 0 1223.36498166 0 24713.58229065 0 3413.15615056 0 2231.75251808 0 3009
0.05450000 0.05448610 42831.60035838 0 2025.57650238 0 25962.08136734 0 5065.65545517 0 8716.97851342 0 3336
0.05550000 0.05550870 41651.21962512 0 2592.17274312 0 25624.41221938 0 6534.75230246 0 10293.29992803 0 3349
0.05650000 0.05647670 38945.48258766 0 2527.14557864 0 23429.67516416 0 5926.81294833 0 11582.70373274 0 3324
0.05750000 0.05747970 36920.70417149 0 2407.85979309 0 22698.80805363 0 2820.44787817 0 15627.42708527 0 3639
0.05850000 0.05849280 34154.38002659 0 1012.15203036 0 19173.29035836 0 3759.61548739 0 12433.50858656 0 3846
0.05950000 0.05951020 34391.44535051 0 219.13873413 0 18627.33195235 0 2693.11378669 0 15276.38156294 0 3787
0.06050000 0.06049470 33603.13851475 0 -439.98155091 0 16362.56564307 0 2306.18810722 0 9276.44818161 0 3930
0.06150000 0.06148310 34259.81733045 0 -359.58729282 0 15196.34812973 0 1001.60043152 0 8270.39870053 0 4083
0.06250000 0.06249100 33460.04503094 0 643.33279109 0 14928.70823583 0 774.50444073 0 4878.33001074 0 4303
0.06350000 0.06350600 33641.91875977 0 893.64409783 0 13024.31718898 0 -1513.37377052 0 5297.58380171 0 4470
0.06450000 0.06451750 32989.73620436 0 177.52921732 0 14866.09781126 0 935.47617952 0 3761.57136062 0 4479
0.06550000 0.06550280 33437.11410345 0 -53.11162508 0 13996.97069674 0 1777.25928708 0 7367.80816879 0 4636
0.06650000 0.06648880 33059.09101937 0 -146.98050083 0 12664.05433306 0 3139.91841259 0 5287.72575102 0 4653
0.06750000 0.06749660 33040.99357169 0 1242.37292204 0 13312.30266071 0 2417.61667792 0 6988.70598223 0 5220
0.06850000 0.06852730 31576.11196843 0 1190.62096608 0 10021.07384863 0 2054.55489996 0 6924.39821940 0 5029
0.06950000 0.06949320 30330.76027394 0 1427.66380869 0 11181.27761383 0 2584.11319655 0 8312.86587899 0 5040
0.07050000 0.07048030 29259.52625928 0 -14.60790006 0 6939.95528001 0 1548.01745607 0 6732.63271793 0 5475
0.07150000 0.07148790 29589.77657775 0 -1033.91168204 0 6681.20674084 0 2369.93383752 0 6144.57807494 0 5509
0.07250000 0.07249820 29965.66393820 0 -819.76604497 0 4519.10129468 0 1358.59000995 0 6168.03731301 0 5916
0.07350000 0.07351270 30435.41073225 0 -386.38837636 0 4448.19526987 0 -74.28451479 0 3725.76988804 0 5721
0.07450000 0.07449140 30845.24485790 0 106.38938697 0 2854.42836533 0 -711.67931973 0 3623.94083307 0 6028
0.07550000 0.07549160 30412.59221126 0 1101.08805894 0 5948.12522211 0 -2610.61865097 0 2337.51580081 0 6183
0.07650000 0.07648840 29149.48028862 0 1167.51018817 0 6520.74645165 0 -2477.46190241 0 -388.41843788 0 6330
0.07750000 0.07749960 28541.81071010 0 1649.63293868 0 8107.75772511 0 -2302.40000793 0 955.26197294 0 6583
0.07850000 0.07848650 26992.62422636 0 1548.73685772 0 10130.18684528 0 -1426.64090948 0 -429.74019403 0 6549
0.07950000 0.07947320 25870.69487690 0 1434.66673410 0 9615.44372635 0 340.00832738 0 1334.82727431 0 6828
0.08050000 0.08048110 24567.67864416 0 822.51438407 0 10309.55390899 0 2162.48762828 0 -9.56876130 0 7147
0.08150000 0.08149960 23870.87070535 0 238.18714086 0 8089.22189205 0 2794.81919450 0 752.40419733 0 7386
0.08250000 0.08250610 23556.46970440 0 -2.24086869 0 6558.88597958 0 2236.61971985 0 846.05118263 0 7227
0.08350000 0.08350160 23324.46267331 0 -86.82177459 0 5685.62230559 0 1839.25147586 0 375.10276302 0 7798
0.08450000 0.08449610 23715.30009923 0 36.42948773 0 4810.40275838 0 579.02165606 0 2204.89860349 0 7371
0.08550000 0.08548940 22949.24975191 0 220.55842832 0 3449.98052236 0 249.83020689 0 579.43306388 0 8256
0.08650000 0.08650700 22828.86238258 0 569.34907611 0 4016.08217447 0 -546.23042975 0 2354.68027448 0 8037
0.08750000 0.08749060 22250.75571549 0 510.37050579 0 3851.11438434 0 -475.67398918 0 -348.24547623 0 8155
0.08850000 0.08849210 21990.75946408 0 701.23225894 0 4958.58825696 0 -989.62239410 0 1664.85277977 0 8718
0.08950000 0.08949900 21578.78961479 0 514.93870625 0 5325.08967405 0 -1123.46369829 0 -1095.47560203 0 8571
0.09050000 0.09049190 21215.60418967 0 506.23844258 0 5660.72426422 0 -1522.06279353 0 -1169.85948418 0 8932
0.09150000 0.09150830 20959.09253999 0 424.59534819 0 6897.36445439 0 -1114.94665723 0 -1933.05470621 0 9285
0.09250000 0.09250820 20666.61080797 0 689.12495404 0 7160.46312540 0 -714.63223868 0 -2377.81353368 0 9204
0.09350000 0.09350330 19971.48896677 0 467.53238585 0 7104.63081322 0 266.62935940 0 -2399.76652456 0 9349
0.09450000 0.09448040 19699.69003209 0 348.48490209 0 6658.90528979 0 1151.14380071 0 -2356.31016883 0 9564
0.09550000 0.09549270 19445.76373208 0 63.79316584 0 6252.10613983 0 1845.08537359 0 -1978.55686037 0 10155
0.09650000 0.09649430 19043.01121639 0 153.61698102 0 5511.65075423 0 1559.67401088 0 -2497.78499893 0 9913
0.09750000 0.09749140 19124.50593419 0 328.51363794 0 5767.42052096 0 229.73192338 0 -1744.62767800 0 10476
0.09850000 0.09850240 18569.55500760 0 663.45580403 0 4971.90842808 0 -299.45992799 0 -856.97147482 0 10575
0.09950000 0.09950330 18220.53280240 0 641.26338729 0 5928.65641505 0 -881.09503535 0 275.70056454 0 10882
0.10050000 0.10051200 17788.32978179 0 281.24445348 0 5653.57521036 0 668.66696971 0 217.33685782 0 10875
0.10150000 0.10150300 17698.29216944 0 118.22017187 0 5718.25391466 0 762.61408039 0 262.35678806 0 11118
0.10250000 0.10250800 17710.43207223 0 -18.04056998 0 4995.05292793 0 1547.25309182 0 1226.92826794 0 11575
0.10350000 0.10349800 17114.90239650 0 87.53769163 0 4946.81929565 0 811.84813059 0 906.44495088 0 11364
0.10450000 0.10450100 17528.33353039 0 249.48174671 0 4628.66391736 0 389.71223678 0 1984.81790282 0 12093
0.10550000 0.10551000 17118.94903076 0 193.54152429 0 4832.78289398 0 5.30079863 0 1846.49045493 0 12067
0.10650000 0.10649700 17238.43714803 0 122.87829753 0 5380.71965451 0 -644.50181877 0 3412.00960419 0 12054
0.10750000 0.10749900 16928.86962690 0 207.82726730 0 5614.18797020 0 212.09197019 0 3016.46234561 0 12807
0.10850000 0.10850100 17056.67582571 0 185.17735608 0 6053.39391621 0 560.91858806 0 3811.90699459 0 12736
0.10950000 0.10950300 16845.68881149 0 305.46693174 0 5572.38399013 0 631.43568636 0 2811.84878036 0 12933
0.11050000 0.11050200 16664.03989568 0 312.01461080 0 5913.06563248 0 475.49751096 0 2208.65298083 0 13428
0.11150000 0.11150900 16425.06366114 0 50.46939772 0 5084.13508498 0 175.71272816 0 2345.50790348 0 13453
0.11250000 0.11250000 16259.93850190 0 -50.09227389 0 4786.34776581 0 116.28115962 0 1072.24342510 0 13668
0.11350000 0.11349100 16362.45323657 0 -35.48887008 0 5056.97767281 0 -440.73917077 0 1306.65820357 0 13791
0.11450000 0.11448600 16393.14021306 0 172.75980921 0 4354.31335497 0 -107.83605872 0 -197.12616780 0 14205
0.11550000 0.11549300 15861.79465301 0 470.82589652 0 4574.97856947 0 141.88511385 0 417.67335547 0 14776
0.11650000 0.11649800 15566.95238433 0 596.11418957 0 4311.02560900 0 -154.12168624 0 24.22562564 0 14553
0.11750000 0.11747300 15085.74012654 0 527.04376302 0 4454.69236599 0 647.87176586 0 -397.10633683 0 14568
0.11850000 0.11849100 14678.26653754 0 406.40123092 0 4680.61820504 0 46.23695550 0 429.26246638 0 16015
0.11950000 0.11950300 14463.34529557 0 279.64041263 0 4307.24875035 0 -358.24066286 0 -421.35804078 0 15270
0.12050000 0.12050700 14272.25423314 0 163.10184211 0 4872.88953579 0 -343.95154765 0 457.62487630 0 15999
0.12150000 0.12150000 14204.92273526 0 90.28546870 0 4669.64732992 0 -254.41302019 0 -635.63182128 0 15670
0.12250000 0.12250700 14126.35058665 0 -105.29016374 0 4707.88802371 0 176.77159746 0 -223.82383736 0 16887
0.12350000 0.12352200 14347.11696701 0 2.37717282 0 4780.95225346 0 258.20336762 0 -1057.72949688 0 16407
0.12450000 0.12449800 14361.72981296 0 211.52993765 0 4527.61046729 0 29.03336437 0 -778.27343092 0 16306
0.12550000 0.12549900 14143.09915624 0 349.50442911 0 5034.18163313 0 221.55210184 0 -520.77147991 0 17523
0.12650000 0.12650100 13704.60137122 0 497.84392462 0 4646.64895853 0 46.17636839 0 91.13425024 0 17154
0.12750000 0.12750600 13567.12821278 0 312.72052366 0 5125.33206991 0 346.91907945 0 454.10542856 0 18007
0.12850000 0.12850300 13321.40758780 0 56.73999473 0 5074.58053186 0 500.16624306 0 1169.58970856 0 17496
0.12950000 0.12949900 13218.44322711 0 7.71107516 0 4848.92446843 0 649.51627306 0 812.98118818 0 18405
0.13050000 0.13049000 13494.62601557 0 -198.30756020 0 4461.42551578 0 429.43669646 0 838.35470908 0 18100
0.13150000 0.13148800 13405.60006178 0 -48.91717626 0 4128.63481024 0 373.07494963 0 1376.18162834 0 19059
0.13250000 0.13249300 13535.54198423 0 62.40056162 0 4033.10051968 0 259.67476880 0 961.65902727 0 18957
0.13350000 0.13349100 13267.22765128 0 167.14960043 0 3807.32080909 0 312.12814137 0 898.78107521 0 19468
0.13450000 0.13450700 12969.01318739 0 406.94303028 0 3841.51486862 0 249.15014752 0 905.78062842 0 19953
0.13550000 0.13551000 12741.39001009 0 247.79902130 0 3532.20588245 0 353.74440257 0 395.47419434 0 19956
0.13650000 0.13649900 12489.03740118 0 140.30130616 0 3805.82580255 0 -57.99512579 0 421.15570907 0 19723
0.13750000 0.13749600 12483.30466930 0 77.64996562 0 3626.21144452 0 -264.05862258 0 161.16732612 0 20946
0.13850000 0.13851100 12558.61702920 0 -139.46162955 0 4251.70869509 0 -311.05465922 0 652.57148193 0 20955
0.13950000 0.13949800 12651.91443027 0 30.40843317 0 4001.33444071 0 -585.33440551 0 -14.95298804 0 20506
0.14050000 0.14048300 12809.17113399 0 138.15883813 0 4584.90406406 0 -6.77524602 0 466.43529834 0 21447
0.14150000 0.14148400 12600.99428246 0 236.03905250 0 4075.94988026 0 163.84822132 0 -151.93987593 0 21771
0.14250000 0.14249400 12290.97713529 0 276.09735951 0 4375.90664502 0 185.39992096 0 -61.92204712 0 22470
0.14350000 0.14350900 12063.01673847 0 301.83844969 0 3814.02023693 0 452.17203663 0 -412.97476347 0 22519
0.14450000 0.14449900 11606.08428626 0 379.44165421 0 3826.49735924 0 283.98155194 0 -487.24286691 0 22218
0.14550000 0.14550500 11433.98992356 0 376.34148273 0 3403.19693401 0 123.63704146 0 -392.64604662 0 23559
0.14650000 0.14650700 11085.11384683 0 209.43018409 0 3755.28783686 0 197.94336311 0 61.73556473 0 23044
0.14750000 0.14750500 10943.32427851 0 231.44499855 0 3252.84198984 0 269.54630827 0 349.07278813 0 23649
0.14850000 0.14849900 10874.62142124 0 67.08352912 0 3626.36881363 0 228.57413635 0 479.34293758 0 23640
0.14950000 0.14949500 10855.24253938 0 123.36838990 0 3402.51125432 0 54.43138988 0 905.92001249 0 24457
0.15050000 0.15050000 10777.96306560 0 175.53849808 0 3845.69639069 0 61.10440219 0 1079.00692464 0 24591
0.15150000 0.15149900 10602.76628331 0 214.27153236 0 3445.03463603 0 175.66214523 0 1334.37764828 0 25020
0.15250000 0.15250500 10450.97253584 0 181.91307110 0 3620.57987850 0 189.97823800 0 1396.60589072 0 25297
0.15350000 0.15350100 10196.27063092 0 229.20810906 0 3273.72711889 0 186.65662571 0 1019.68326635 0 25452
0.15450000 0.15450400 10202.83517095 0 110.90351990 0 3341.29467044 0 457.85755777 0 1337.49130853 0 26061
0.15550000 0.15549900 9977.08918232 0 162.32174095 0 3035.75130227 0 -47.26502541 0 1134.40647177 0 26128
0.15650000 0.15649500 9919.68317904 0 39.53707804 0 3139.23273290 0 272.17212428 0 1350.82272030 0 26331
0.15750000 0.15749700 9860.77092856 0 29.06877242 0 2945.37647039 0 110.19176190 0 922.06158694 0 27345
0.15850000 0.15849900 9874.33839399 0 1.90224408 0 2977.10882740 0 288.13160019 0 1262.93207223 0 26980
0.15950000 0.15949700 9930.55288829 0 -81.45222814 0 2691.96724031 0 224.75568730 0 272.86342430 0 27777
0.16050000 0.16050000 9887.77097161 0 -37.44024705 0 2676.35397645 0 134.59105559 0 634.34139457 0 28224
0.16150000 0.16150500 9903.39547613 0 17.50382891 0 2395.73113095 0 -18.50301036 0 -63.51765749 0 28075
0.16250000 0.16249700 9817.88784602 0 94.15034164 0 2184.83404193 0 -5.84014753 0 116.61837914 0 28590
0.16350000 0.16349900 9808.33329290 0 117.30181070 0 2059.95041231 0 151.79936780 0 158.96640670 0 29163
0.16450000 0.16449100 9715.69909022 0 113.12366083 0 1857.11286987 0 272.55767860 0 253.75656619 0 28996
0.16550000 0.16550500 9530.03726210 0 223.31463588 0 1893.86979776 0 260.04683434 0 203.23770961 0 30777
0.16650000 0.16650700 9394.95836226 0 243.94685029 0 2054.83591623 0 82.43713396 0 283.63084363 0 29211
0.16750000 0.16749900 9036.61765761 0 295.46387666 0 2055.57779918 0 -99.33981287 0 557.14172942 0 30922
0.16850000 0.16850800 8914.36434026 0 227.21626575 0 2209.09136621 0 -137.64289227 0 327.29515140 0 30867
0.16950000 0.16949900 8763.80706437 0 163.13893625 0 2304.97411694 0 -316.15341839 0 621.88787763 0 30852
0.17050000 0.17049200 8692.92352086 0 102.31139129 0 2411.04089724 0 -248.07329318 0 92.03215342 0 31257
0.17150000 0.17149500 8676.00634151 0 101.69000812 0 2696.93560793 0 -263.51232696 0 216.19817990 0 32608
0.17250000 0.17250900 8526.43824288 0 85.46143104 0 2472.52725674 0 -70.92558354 0 130.28476230 0 32361
0.17350000 0.17350400 8550.40331024 0 83.96080416 0 2735.44607734 0 -136.47161646 0 -55.12662413 0 32508
0.17450000 0.17449800 8551.23511840 0 71.94286243 0 2617.12698774 0 52.84836904 0 2.63830437 0 32791
0.17550000 0.17549800 8478.21585125 0 51.73329649 0 2700.28532185 0 196.30560030 0 -147.57737938 0 33633
0.17650000 0.17650100 8490.95150853 0 -6.06280234 0 2428.54259043 0 394.47265236 0 183.77002661 0 33984
0.17750000 0.17750300 8475.50685442 0 -104.38113231 0 2042.87586385 0 490.85561206 0 169.54273498 0 34069
