### header ###
fiducial parameters:
Omega_m = 0.31
Omega_nu = 0
Omega_de = 0.69
Omega_k = 0
H_0 = 100
w_de = -1
zeff = 0
beta = 0
fgrowth = 0
b_1 = 2
gamma = 0.55
Lx = 3500 Ly = 3500 Lz = 3500
nx = 700 ny = 700 nz = 700
xoffset = 857.220397 yoffset = 15.9954215 zoffset = 262.898189
bins = 400 dk = 0.001
kx_ny = 0.628318531 ky_ny = 0.628318531 kz_ny = 0.628318531
############################
A(data) = 3.10614168 (not used)
A(ran) = 3.10782356 (used)
Ngal = 189628
weighted Ngal = 0
Nran = 9360983
weighted Nran = 0
SN(data) = 3445.82641
SN(ran) = 69.7900374
SN(data+ran) = 3515.61645
############################
13 columns: k_central k_mean P_0(k) sigma^{lin}_{P_0(k)} P^img_1(k) sigma^{lin}_{P_1(k)} P_2(k) sigma^{lin}_{P_2(k)} P^img_3(k) sigma^{lin}_{P_3(k)} P_4(k) sigma^{lin}_{P_4(k)} N_modes
### header ###
0.00050000 0 0 0 0 0 0 0 0 0 0 0 0
0.00150000 0.00179520 5538.92057290 0 -9647.47958094 0 15909.90463814 0 11581.69207417 0 48860.52337795 0 3
0.00250000 0.00253879 16503.74821626 0 -17737.74685350 0 4492.77569067 0 -6964.66223032 0 -9263.72376498 0 6
0.00350000 0.00331552 30900.09923347 0 -18833.03586073 0 36908.67667521 0 -41019.60746055 0 6465.06026793 0 7
0.00450000 0.00420575 53186.71262479 0 -22463.76604684 0 28655.45368899 0 -16946.06782252 0 -8797.91119869 0 24
0.00550000 0.00557378 85112.29642444 0 -17160.53943847 0 80563.54229313 0 -29345.96686340 0 43672.62584608 0 45
0.00650000 0.00659388 107673.74372613 0 -11773.79479516 0 10198.90094320 0 12470.26551445 0 -81977.61615509 0 40
0.00750000 0.00754703 117688.48908840 0 -7461.81373085 0 115805.68009096 0 1483.95698755 0 58249.72652704 0 57
0.00850000 0.00846663 118598.98179761 0 2387.90763804 0 49148.28403666 0 47064.15498463 0 -16753.62788201 0 75
0.00950000 0.00948925 122520.84483766 0 4808.69417946 0 78571.58657709 0 74012.94067314 0 58563.67790196 0 112
0.01050000 0.01054430 106125.68130746 0 15574.37121382 0 44008.38408341 0 42909.04844192 0 20571.73971580 0 105
0.01150000 0.01145670 101701.47358625 0 12863.46347702 0 34195.97043430 0 39871.93702091 0 46738.62573946 0 144
0.01250000 0.01249090 84348.94383330 0 12112.58800819 0 28923.09358290 0 14422.54173341 0 35392.76251763 0 169
0.01350000 0.01339930 78741.54521614 0 13244.40913030 0 13290.04617227 0 -5808.89852216 0 53430.40993263 0 180
0.01450000 0.01448870 70289.58752500 0 5023.93015966 0 34661.55818758 0 -7249.60148570 0 33192.18032402 0 267
0.01550000 0.01550050 70187.74722938 0 1581.93049932 0 27255.65545346 0 -13423.47269644 0 9924.46045560 0 238
0.01650000 0.01653350 66328.38220740 0 -2246.10682907 0 21023.05184265 0 12760.94874236 0 9254.61883789 0 315
0.01750000 0.01747870 70605.89943657 0 -4906.81381970 0 6177.98528891 0 11848.09549649 0 -2625.55747579 0 297
0.01850000 0.01844180 68337.08649303 0 -1700.62053039 0 1859.93427320 0 1717.39158128 0 -11955.89333700 0 388
0.01950000 0.01947590 72074.49045458 0 1029.67620485 0 -1159.90026763 0 229.38683540 0 -23135.28252151 0 399
0.02050000 0.02045430 67837.88919407 0 5018.59085056 0 -177.32351341 0 -17955.92788419 0 -7283.49204765 0 462
0.02150000 0.02154770 66753.16639853 0 4177.95878565 0 2809.89290713 0 -13858.82309925 0 -8157.96971192 0 571
0.02250000 0.02255340 65966.09603434 0 1571.87011692 0 21862.39123273 0 -11429.15644375 0 -2566.67894726 0 510
0.02350000 0.02348930 65236.46539539 0 2910.05834579 0 19005.46744295 0 -10252.62001304 0 -7235.88789181 0 555
0.02450000 0.02439640 70026.21907838 0 572.97980630 0 33477.80525910 0 -6522.18525494 0 -15910.12945115 0 592
0.02550000 0.02547300 71351.15458004 0 -1353.67784558 0 32927.23818629 0 -7185.97940256 0 -12560.52793982 0 837
0.02650000 0.02652900 74879.70725100 0 1180.25708610 0 37091.56206260 0 -9248.87486536 0 -30653.14213691 0 723
0.02750000 0.02749970 74545.74751779 0 -119.32850003 0 38605.45290305 0 -7680.34322171 0 -31566.44500880 0 826
0.02850000 0.02848090 72423.84987930 0 5737.90257214 0 43973.53806614 0 -8917.96134849 0 -37897.62912652 0 831
0.02950000 0.02946900 75067.98815075 0 2071.20230369 0 47349.77991971 0 -1527.63815629 0 -40932.60482389 0 996
0.03050000 0.03053250 70545.19992263 0 870.73115538 0 43191.97562082 0 4673.72768614 0 -42479.88039701 0 1041
0.03150000 0.03150510 69828.83325154 0 220.66409044 0 34677.85713114 0 6071.08670046 0 -52869.27664814 0 1036
0.03250000 0.03246190 67658.37600189 0 307.78362986 0 31745.62098145 0 11265.15534958 0 -42700.30955785 0 1059
0.03350000 0.03345080 67546.86874664 0 190.94043771 0 22376.42619066 0 11731.52994841 0 -43035.05613661 0 1302
0.03450000 0.03451200 65960.58811549 0 912.61831626 0 19290.86756501 0 10413.70977866 0 -31859.37636685 0 1339
0.03550000 0.03553350 63383.44412239 0 2825.66354011 0 11301.68746446 0 8237.67716625 0 -31165.26618421 0 1365
0.03650000 0.03647120 60175.92443630 0 4445.19401613 0 13739.11016897 0 7502.74094016 0 -20625.80724582 0 1308
0.03750000 0.03744890 56121.64653065 0 5705.49577608 0 9984.48553050 0 3096.87796094 0 -15308.41741752 0 1579
0.03850000 0.03847530 50667.34557645 0 3414.76356362 0 10712.62116290 0 2652.19781803 0 -3448.14829629 0 1662
0.03950000 0.03950240 50557.18719929 0 1620.17119311 0 16338.51065051 0 670.11701365 0 -3255.41609885 0 1683
0.04050000 0.04050350 47022.33976391 0 1476.35830766 0 10939.44625400 0 8.77723964 0 -5542.52882179 0 1822
0.04150000 0.04152450 46623.29666296 0 3379.76017724 0 18606.98637453 0 -2408.72532319 0 1679.13964685 0 1887
0.04250000 0.04250150 44437.32731531 0 3083.28801421 0 17737.97166652 0 -3501.19292709 0 -3929.13574107 0 1920
0.04350000 0.04349210 42380.73785756 0 2271.26340540 0 20364.01249029 0 759.80953803 0 3140.50292643 0 2005
0.04450000 0.04448520 41061.42268127 0 816.90305122 0 21341.38707135 0 1064.35136422 0 670.35981171 0 2151
0.04550000 0.04548030 40979.59074395 0 -369.92307117 0 20235.86907196 0 3911.46543812 0 2310.34714799 0 2274
0.04650000 0.04648670 41748.33884744 0 30.43720924 0 22848.64592787 0 2357.50167781 0 -62.57805150 0 2311
0.04750000 0.04749250 42412.43649262 0 -40.10439368 0 21490.88772607 0 346.74597342 0 1029.60651281 0 2568
0.04850000 0.04851840 41945.83708078 0 949.46067310 0 21848.56523233 0 2128.13619964 0 1994.76587872 0 2493
0.04950000 0.04949480 41399.87867478 0 105.06737404 0 19881.11413489 0 270.41296244 0 -1025.65542408 0 2644
0.05050000 0.05050630 41418.87537451 0 658.61782796 0 21249.21373536 0 2300.38793145 0 3798.14843810 0 2829
0.05150000 0.05149060 41584.67497279 0 536.77479436 0 18892.94852913 0 1225.24217033 0 -1137.73370439 0 2784
0.05250000 0.05249300 39460.19198464 0 1106.13848331 0 16956.18440818 0 3203.74282744 0 1478.52775325 0 3055
0.05350000 0.05348950 38467.64252509 0 2202.38069772 0 16883.79461747 0 3303.89702546 0 -2439.28865253 0 3009
0.05450000 0.05448610 36187.25171129 0 1743.36872512 0 15614.27552391 0 976.25950851 0 1793.17604851 0 3336
0.05550000 0.05550870 34252.06128145 0 1666.12297330 0 15508.05137450 0 1145.39982819 0 -2210.38404104 0 3349
0.05650000 0.05647670 33613.03028739 0 829.00585987 0 13677.62380947 0 514.93758218 0 -3411.30144319 0 3324
0.05750000 0.05747970 32537.41241894 0 332.20843983 0 14081.83760976 0 2922.27693314 0 -1864.16075788 0 3639
0.05850000 0.05849280 31845.66277296 0 174.20760503 0 10925.18186823 0 2741.43734418 0 -3649.69316389 0 3846
0.05950000 0.05951020 32059.68476287 0 -45.73348675 0 10456.04206932 0 3959.40681348 0 -1279.88297353 0 3787
0.06050000 0.06049470 32367.45377989 0 -624.73850665 0 9853.40830233 0 2567.06112939 0 -1148.82822666 0 3930
0.06150000 0.06148310 32868.78680249 0 -11.35463093 0 8289.82254500 0 1177.39072017 0 1564.15903052 0 4083
0.06250000 0.06249100 33208.25445457 0 -341.53143555 0 9227.23661271 0 130.53318068 0 1764.34377939 0 4303
0.06350000 0.06350600 33474.65787689 0 49.76303523 0 9145.88802337 0 -2413.48011845 0 3250.04306780 0 4470
0.06450000 0.06451750 33915.40379205 0 175.37775677 0 10766.83482138 0 -842.15180090 0 2550.24511590 0 4479
0.06550000 0.06550280 33673.05536229 0 426.29268645 0 13734.50150217 0 -3195.07628573 0 7020.87672462 0 4636
0.06650000 0.06648880 33560.87366800 0 839.32140504 0 14505.61014231 0 745.56313729 0 3437.13245857 0 4653
0.06750000 0.06749660 32955.00259360 0 1454.55144524 0 16035.46270680 0 -39.21806837 0 3204.97929902 0 5220
0.06850000 0.06852730 31258.67599178 0 1066.48821192 0 13129.64208633 0 1825.87510149 0 2596.82637252 0 5029
0.06950000 0.06949320 30349.75697368 0 1468.16387328 0 15326.96449123 0 1628.70284702 0 3641.64485797 0 5040
0.07050000 0.07048030 29463.76888306 0 601.25341508 0 11081.95522397 0 3208.05923732 0 2906.15783999 0 5475
0.07150000 0.07148790 27959.88222176 0 674.99658014 0 9695.40971565 0 3272.68173838 0 408.64711293 0 5509
0.07250000 0.07249820 27596.02235760 0 598.80407729 0 7496.00779037 0 1754.04734332 0 368.57306901 0 5916
0.07350000 0.07351270 26465.21289406 0 323.88698610 0 6243.42835747 0 1056.94489945 0 -892.07490299 0 5721
0.07450000 0.07449140 26409.00964041 0 574.46132406 0 6147.48940348 0 -108.60727977 0 -766.78998214 0 6028
0.07550000 0.07549160 25509.53276891 0 306.52242885 0 5246.02293680 0 -562.48328664 0 -866.44621932 0 6183
0.07650000 0.07648840 25855.74481143 0 41.86591605 0 6465.04902728 0 -815.22482207 0 -2653.74902783 0 6330
0.07750000 0.07749960 25931.16957783 0 76.12078750 0 6348.04509382 0 -412.46668605 0 -1800.08904871 0 6583
0.07850000 0.07848650 25915.43266681 0 -273.70310091 0 6674.86701382 0 -4.74860166 0 -2750.44110541 0 6549
0.07950000 0.07947320 25754.46654834 0 34.17551245 0 5643.67219706 0 -178.00806904 0 -4527.01471280 0 6828
0.08050000 0.08048110 26146.99007187 0 -141.65130832 0 6609.60379568 0 -432.45368712 0 -5166.86627436 0 7147
0.08150000 0.08149960 25711.75207556 0 607.33123493 0 6851.43515551 0 -373.61562493 0 -6034.21736606 0 7386
0.08250000 0.08250610 25374.19533411 0 386.71885149 0 7019.05573921 0 -52.17325555 0 -4650.61690823 0 7227
0.08350000 0.08350160 24628.94019065 0 294.60284281 0 6698.27004865 0 -381.39752743 0 -4978.65281852 0 7798
0.08450000 0.08449610 25197.26749160 0 412.39474589 0 6877.67083431 0 382.52159251 0 -5303.56382790 0 7371
0.08550000 0.08548940 24231.47078080 0 465.18084172 0 7248.28632956 0 779.56385763 0 -4427.17525300 0 8256
0.08650000 0.08650700 24115.13004573 0 790.94838869 0 6992.62896934 0 -469.43317989 0 -3135.56828076 0 8037
0.08750000 0.08749060 23418.43451342 0 879.01663903 0 6832.41597447 0 299.95788882 0 -3299.20967410 0 8155
0.08850000 0.08849210 22547.05926876 0 873.82345840 0 7083.38598334 0 44.16294303 0 -2523.73966147 0 8718
0.08950000 0.08949900 21536.52476804 0 917.12132095 0 6553.23193226 0 -204.86872803 0 -3514.69294861 0 8571
0.09050000 0.09049190 21420.63365901 0 405.38732422 0 7377.57629427 0 434.73216702 0 -2496.13262328 0 8932
0.09150000 0.09150830 20933.35144982 0 119.29815027 0 6810.08080147 0 118.12350227 0 -3751.57842212 0 9285
0.09250000 0.09250820 21260.34197958 0 58.86953601 0 7040.55910405 0 211.46361781 0 -3165.36724585 0 9204
0.09350000 0.09350330 20804.98321847 0 236.19754568 0 7711.12012341 0 249.67283778 0 -1033.75318887 0 9349
0.09450000 0.09448040 20675.71573506 0 543.89687066 0 8128.33935659 0 876.48749262 0 -370.37606939 0 9564
0.09550000 0.09549270 20412.57210145 0 717.37383339 0 8900.70694962 0 1191.96984417 0 3079.53363687 0 10155
0.09650000 0.09649430 19504.66474191 0 697.17325996 0 8545.73844019 0 1411.64588140 0 2827.84422635 0 9913
0.09750000 0.09749140 19282.54948346 0 510.03553440 0 9190.85062629 0 1820.26601677 0 5691.73721959 0 10476
0.09850000 0.09850240 18548.31017772 0 331.61830567 0 8077.99248197 0 778.03063287 0 4623.70679038 0 10575
0.09950000 0.09950330 18617.32777320 0 521.87306368 0 8890.19694119 0 -193.24252298 0 5585.16461001 0 10882
0.10050000 0.10051200 17717.96330822 0 643.47667142 0 8215.49936236 0 -993.00582997 0 3874.28136550 0 10875
0.10150000 0.10150300 17126.48026675 0 652.33655233 0 7548.19813172 0 -449.25059151 0 2540.62311887 0 11118
0.10250000 0.10250800 16704.61864482 0 593.47263664 0 7882.50632511 0 -806.79096183 0 1427.23666396 0 11575
0.10350000 0.10349800 16018.82654372 0 429.12870263 0 7227.00777773 0 -858.11352493 0 -598.04308523 0 11364
0.10450000 0.10450100 16049.73833323 0 -126.88446545 0 7623.90391439 0 -189.47802905 0 -1369.33607205 0 12093
0.10550000 0.10551000 16356.83291120 0 -402.71092528 0 6624.38525139 0 -88.58172327 0 -2099.55122484 0 12067
0.10650000 0.10649700 16613.45696739 0 -457.61363565 0 6796.06371001 0 517.48021738 0 -2020.96783558 0 12054
0.10750000 0.10749900 17348.14589917 0 -271.51567028 0 6281.69153255 0 978.70997037 0 -2580.94333304 0 12807
0.10850000 0.10850100 17083.42857445 0 39.18412160 0 5489.74272595 0 1614.74195881 0 -1220.15015555 0 12736
0.10950000 0.10950300 17100.62677007 0 182.19745957 0 4214.09747775 0 1965.93360960 0 -1346.50631041 0 12933
0.11050000 0.11050200 16595.02230019 0 186.28905643 0 3784.21003119 0 1801.74142437 0 -717.97183601 0 13428
0.11150000 0.11150900 16439.11447455 0 364.56015670 0 2875.45962284 0 1311.03081671 0 -71.68174212 0 13453
0.11250000 0.11250000 15868.65144995 0 506.64085788 0 2662.05586872 0 -127.21044432 0 -3.95069531 0 13668
0.11350000 0.11349100 15514.23373241 0 628.48389148 0 2832.98120373 0 -643.43058475 0 1577.22066667 0 13791
0.11450000 0.11448600 15093.60858205 0 378.86725695 0 3858.13979105 0 -1080.24564435 0 334.15307241 0 14205
0.11550000 0.11549300 14981.42688776 0 227.38712364 0 4208.18489546 0 -1011.34045537 0 1244.01405705 0 14776
0.11650000 0.11649800 15012.00145775 0 46.39511145 0 4717.72359310 0 -58.81423201 0 109.47146100 0 14553
0.11750000 0.11747300 14707.71704246 0 -41.04366245 0 4603.60850688 0 195.88632403 0 346.62907066 0 14568
0.11850000 0.11849100 14972.99639971 0 149.59395212 0 3731.40145406 0 486.50323209 0 -997.97307352 0 16015
0.11950000 0.11950300 14611.38466569 0 344.00213058 0 3744.08090808 0 459.00185601 0 -1377.33941537 0 15270
0.12050000 0.12050700 14136.12995279 0 451.31212685 0 2703.17416909 0 183.78576352 0 -1938.42773726 0 15999
0.12150000 0.12150000 13704.26415170 0 474.87815111 0 2840.35507061 0 -20.17258421 0 -1823.95295021 0 15670
0.12250000 0.12250700 13487.43199910 0 78.84799418 0 2384.04085419 0 -109.82239411 0 -2264.53025561 0 16887
0.12350000 0.12352200 13379.85897161 0 41.68898821 0 2652.64744405 0 -103.88013651 0 -2148.85271894 0 16407
0.12450000 0.12449800 13680.99600469 0 -223.56979865 0 2898.87389832 0 18.59484647 0 -2116.56957004 0 16306
0.12550000 0.12549900 13626.81606817 0 -140.78240602 0 2895.91760717 0 -19.14485151 0 -2235.67550519 0 17523
0.12650000 0.12650100 14061.94165796 0 -188.12465470 0 3079.57859947 0 44.76667838 0 -1943.30617968 0 17154
0.12750000 0.12750600 13936.72080882 0 -19.65281652 0 3176.19199250 0 -58.46273686 0 -1673.20458326 0 18007
0.12850000 0.12850300 13994.94737961 0 213.32506957 0 3292.34163650 0 395.20666686 0 -1350.23820646 0 17496
0.12950000 0.12949900 13749.78878716 0 446.31453353 0 3185.06086593 0 483.12429248 0 -823.11238669 0 18405
0.13050000 0.13049000 13339.16781596 0 591.14132568 0 2834.20643466 0 43.70342523 0 -1512.63188757 0 18100
0.13150000 0.13148800 12828.39264674 0 532.09531146 0 3246.91816690 0 -229.14291328 0 -951.25243283 0 19059
0.13250000 0.13249300 12347.63001498 0 393.35982794 0 3092.23557219 0 -273.37262578 0 -1434.30703327 0 18957
0.13350000 0.13349100 12298.17115176 0 74.65714237 0 3294.70217316 0 -91.70741102 0 -1141.67917279 0 19468
0.13450000 0.13450700 12205.21097022 0 -114.95813503 0 2853.77640758 0 -6.43324923 0 -1784.50950680 0 19953
0.13550000 0.13551000 12404.84492720 0 -163.35250862 0 2962.74327577 0 203.30852571 0 -1718.86410653 0 19956
0.13650000 0.13649900 12386.41026000 0 -20.11952834 0 3020.13803840 0 207.54962323 0 -1841.76938162 0 19723
0.13750000 0.13749600 12528.49208524 0 266.15837614 0 3125.49665770 0 -100.48163817 0 -1898.11876374 0 20946
0.13850000 0.13851100 12299.29521684 0 318.96358108 0 3150.73191860 0 -74.56777919 0 -1350.72155444 0 20955
0.13950000 0.13949800 11907.44613235 0 361.38916913 0 3705.43555087 0 -31.05904203 0 -820.14935116 0 20506
0.14050000 0.14048300 12032.32976197 0 132.06865357 0 3481.34193790 0 347.24955458 0 -240.50159085 0 21447
0.14150000 0.14148400 11905.76003474 0 -90.98969547 0 3822.45072498 0 238.06461777 0 159.43176964 0 21771
0.14250000 0.14249400 11990.96416728 0 -77.16717967 0 3313.39537532 0 580.15021740 0 -249.83470315 0 22470
0.14350000 0.14350900 12036.26398973 0 -33.05538160 0 3426.88098510 0 194.28677943 0 -266.44950899 0 22519
0.14450000 0.14449900 11791.89224284 0 173.84902827 0 2917.47717528 0 -163.86395823 0 -992.73717841 0 22218
0.14550000 0.14550500 11770.53500645 0 276.54248928 0 3147.56205509 0 -516.90132386 0 -988.73550675 0 23559
0.14650000 0.14650700 11401.50444295 0 269.18211119 0 3003.60304118 0 -287.41894293 0 -1693.29162612 0 23044
0.14750000 0.14750500 11300.78821240 0 286.83105690 0 2770.83164584 0 31.18358844 0 -1113.54944434 0 23649
0.14850000 0.14849900 11079.58344667 0 197.14640098 0 2980.76203889 0 173.26788663 0 -1849.35682087 0 23640
0.14950000 0.14949500 10822.90318722 0 247.30668080 0 2610.32639405 0 571.48367568 0 -1041.95099544 0 24457
0.15050000 0.15050000 10811.80866495 0 233.16481811 0 3023.86993445 0 412.08675206 0 -1007.01392891 0 24591
0.15150000 0.15149900 10427.61446362 0 272.98369926 0 2304.27719660 0 190.45371753 0 -796.45967974 0 25020
0.15250000 0.15250500 10369.75883431 0 222.04219421 0 2962.79947902 0 130.32860084 0 -389.81565077 0 25297
0.15350000 0.15350100 10100.65765581 0 161.25163100 0 2426.73284566 0 70.76652834 0 -457.75189565 0 25452
0.15450000 0.15450400 10154.38796630 0 1.72835122 0 2890.51085417 0 133.50408467 0 192.85134833 0 26061
0.15550000 0.15549900 10142.56280173 0 9.87273098 0 2606.13363133 0 310.32514099 0 85.01573923 0 26128
0.15650000 0.15649500 10137.59443411 0 93.04055220 0 2868.08575596 0 41.47103199 0 -254.91322915 0 26331
0.15750000 0.15749700 10010.65376540 0 227.68500088 0 2772.36037434 0 -310.73992100 0 -126.90919488 0 27345
0.15850000 0.15849900 9736.37064692 0 385.98146480 0 3167.58165404 0 -326.57574975 0 176.15898200 0 26980
0.15950000 0.15949700 9606.45120577 0 259.89958181 0 3320.89288936 0 -416.31773299 0 418.78505583 0 27777
0.16050000 0.16050000 9289.49857711 0 149.45007179 0 3233.35070147 0 137.23036038 0 251.55564677 0 28224
0.16150000 0.16150500 9382.26766759 0 -42.84610080 0 3435.98591220 0 574.70524618 0 439.40715366 0 28075
0.16250000 0.16249700 9306.26962800 0 43.08923607 0 3008.67257466 0 502.05017612 0 335.01298219 0 28590
0.16350000 0.16349900 9432.60330156 0 -13.25621181 0 3044.64265700 0 531.82103958 0 1061.15227502 0 29163
0.16450000 0.16449100 9334.93328736 0 145.17188013 0 2939.32900030 0 -56.01677126 0 928.50922420 0 28996
0.16550000 0.16550500 9203.62000552 0 175.40923059 0 3271.02936272 0 63.16987176 0 1151.02015355 0 30777
0.16650000 0.16650700 9100.80177328 0 132.25974463 0 3088.38002899 0 4.20695966 0 1052.64872274 0 29211
0.16750000 0.16749900 8902.85391391 0 53.21054280 0 2931.82024561 0 148.58116949 0 1171.71419155 0 30922
0.16850000 0.16850800 8970.99473864 0 -11.48479766 0 2889.63408342 0 369.43972319 0 909.11348137 0 30867
0.16950000 0.16949900 8961.57507333 0 -27.60973595 0 2544.42245882 0 575.60225011 0 717.69194381 0 30852
0.17050000 0.17049200 8860.63402977 0 81.30182823 0 1941.06929018 0 261.09446298 0 365.82922617 0 31257
0.17150000 0.17149500 8811.47866412 0 92.68725855 0 1771.32422349 0 53.61599308 0 503.83631552 0 32608
0.17250000 0.17250900 8787.64848457 0 87.26859045 0 1711.17550143 0 -124.66668506 0 701.85386693 0 32361
0.17350000 0.17350400 8793.76339857 0 150.39878272 0 1862.36225376 0 -0.74729420 0 481.67312447 0 32508
0.17450000 0.17449800 8620.91591228 0 152.40074261 0 2125.17990850 0 -341.10541489 0 652.25899184 0 32791
0.17550000 0.17549800 8568.29842621 0 227.53662429 0 2544.02903604 0 -300.00509955 0 682.35021384 0 33633
0.17650000 0.17650100 8434.60212641 0 215.78227582 0 2727.45397467 0 -109.57273926 0 903.63254007 0 33984
0.17750000 0.17750300 8372.90219455 0 61.99578579 0 2466.26621428 0 97.39506788 0 723.78999683 0 34069
