### header ###
fiducial parameters:
Omega_m = 0.31
Omega_nu = 0
Omega_de = 0.69
Omega_k = 0
H_0 = 100
w_de = -1
zeff = 0
beta = 0
fgrowth = 0
b_1 = 2
gamma = 0.55
Lx = 3500 Ly = 3500 Lz = 3500
nx = 700 ny = 700 nz = 700
xoffset = 857.220397 yoffset = 15.9954215 zoffset = 262.898189
bins = 400 dk = 0.001
kx_ny = 0.628318531 ky_ny = 0.628318531 kz_ny = 0.628318531
############################
A(data) = 3.03301768 (not used)
A(ran) = 3.0341233 (used)
Ngal = 185573
weighted Ngal = 0
Nran = 9360983
weighted Nran = 0
SN(data) = 3434.85548
SN(ran) = 68.1350065
SN(data+ran) = 3502.99049
############################
13 columns: k_central k_mean P_0(k) sigma^{lin}_{P_0(k)} P^img_1(k) sigma^{lin}_{P_1(k)} P_2(k) sigma^{lin}_{P_2(k)} P^img_3(k) sigma^{lin}_{P_3(k)} P_4(k) sigma^{lin}_{P_4(k)} N_modes
### header ###
0.00050000 0 0 0 0 0 0 0 0 0 0 0 0
0.00150000 0.00179520 11017.24279771 0 -22219.39429995 0 -26981.04635611 0 38631.30639973 0 19316.27143566 0 3
0.00250000 0.00253879 21682.42841453 0 -22949.36215842 0 -4424.48873748 0 -35202.23348774 0 -9486.79447874 0 6
0.00350000 0.00331552 38585.78176427 0 -23274.89140359 0 -18006.17359296 0 -9287.73379494 0 4031.27953426 0 7
0.00450000 0.00420575 52890.29666501 0 -16744.97258094 0 -3523.73043180 0 -40392.94118229 0 -2326.11778097 0 24
0.00550000 0.00557378 66781.83005789 0 2472.44857219 0 12268.83305335 0 -44663.03958198 0 18626.65751331 0 45
0.00650000 0.00659388 65219.26719978 0 8029.92745944 0 49997.62760590 0 -33315.60266905 0 -11570.67623645 0 40
0.00750000 0.00754703 65222.97661452 0 9058.15474441 0 56023.62805627 0 -16681.01327828 0 22814.69916266 0 57
0.00850000 0.00846663 69299.84822814 0 262.01732041 0 62292.20174943 0 15074.72428882 0 -28357.01441209 0 75
0.00950000 0.00948925 71317.76984737 0 -1019.09875251 0 62891.89046592 0 27616.81756145 0 -7990.22548106 0 112
0.01050000 0.01054430 86223.43474920 0 -7698.31702223 0 69575.24417105 0 10796.72371167 0 -47158.23923125 0 105
0.01150000 0.01145670 85400.95633521 0 250.77442155 0 50007.96900457 0 22937.44706865 0 -41040.96469694 0 144
0.01250000 0.01249090 91942.22821510 0 275.31276209 0 52634.23464136 0 5416.46492384 0 -37435.97560100 0 169
0.01350000 0.01339930 84067.36553249 0 287.07385495 0 32207.94894602 0 8812.04069666 0 -12384.16212985 0 180
0.01450000 0.01448870 85608.34634120 0 1567.56494769 0 30186.43031855 0 14672.64621218 0 -20043.09191192 0 267
0.01550000 0.01550050 89962.97443439 0 3222.57091742 0 19021.99119952 0 33988.24320879 0 -35216.50911417 0 238
0.01650000 0.01653350 78279.66687761 0 -967.45807898 0 4424.87091960 0 28995.82059313 0 -5431.30258280 0 315
0.01750000 0.01747870 79858.97830531 0 -324.57603799 0 -12389.44523570 0 22727.58411950 0 7814.08448411 0 297
0.01850000 0.01844180 79327.85755827 0 -4784.95392512 0 -25740.75295445 0 17453.58320302 0 13467.98567334 0 388
0.01950000 0.01947590 77898.49641132 0 437.62213832 0 -29129.47193032 0 5771.77065279 0 -4488.20074582 0 399
0.02050000 0.02045430 79138.56499996 0 4664.24057692 0 -27846.23924287 0 -13689.87611877 0 8129.65451273 0 462
0.02150000 0.02154770 72287.38837942 0 7490.64599997 0 -9029.92947043 0 -31524.40497506 0 10783.41478121 0 571
0.02250000 0.02255340 70716.84465929 0 8153.36104512 0 1467.52315618 0 -23786.34101185 0 16273.53968929 0 510
0.02350000 0.02348930 66154.71415361 0 4238.88311261 0 20012.85456146 0 -15833.58061967 0 17623.31702906 0 555
0.02450000 0.02439640 64399.59894847 0 1485.38455020 0 30337.05503835 0 912.59695903 0 2255.63890089 0 592
0.02550000 0.02547300 67174.35358142 0 1494.00612931 0 39696.69527602 0 1919.91438550 0 13847.47004202 0 837
0.02650000 0.02652900 64717.48455114 0 3049.20636119 0 38038.69929320 0 6260.10948315 0 7348.03586415 0 723
0.02750000 0.02749970 61093.49875547 0 2815.95161787 0 46903.18886616 0 4343.88203109 0 29915.98026197 0 826
0.02850000 0.02848090 63840.15176159 0 2531.68680154 0 38618.04243187 0 5822.72452256 0 13847.80726154 0 831
0.02950000 0.02946900 59529.47461276 0 2942.73491747 0 40380.68887300 0 7329.74732541 0 20538.24257662 0 996
0.03050000 0.03053250 57259.20038462 0 2472.86447626 0 36030.66944661 0 5390.44281740 0 16151.80344187 0 1041
0.03150000 0.03150510 55403.36894894 0 925.81146803 0 32028.32334733 0 7032.80305505 0 5721.64859118 0 1036
0.03250000 0.03246190 56799.00814370 0 -565.63516511 0 30321.43053383 0 5934.11937130 0 13981.00897270 0 1059
0.03350000 0.03345080 53683.21216757 0 -1553.58157818 0 16247.57378610 0 10394.66811633 0 -2826.95621494 0 1302
0.03450000 0.03451200 55924.48551683 0 -74.80068548 0 12427.66344818 0 8278.67181947 0 2882.10284743 0 1339
0.03550000 0.03553350 54019.64484395 0 467.90220326 0 4291.36571087 0 3725.89353520 0 -7003.64480705 0 1365
0.03650000 0.03647120 52432.46496074 0 1916.60963419 0 78.29652785 0 1570.22898191 0 -5180.37753654 0 1308
0.03750000 0.03744890 50609.00659916 0 1402.48475106 0 -4959.61115618 0 -1722.05645134 0 -11909.01982346 0 1579
0.03850000 0.03847530 48941.79328274 0 1547.02827880 0 -2270.89246393 0 -4164.40256087 0 -12140.35241550 0 1662
0.03950000 0.03950240 47275.59162488 0 247.82487480 0 -1871.86060363 0 -4277.64087633 0 -13475.62931583 0 1683
0.04050000 0.04050350 48317.82476066 0 -4.29831243 0 537.24577762 0 -3427.92636562 0 -13453.59764040 0 1822
0.04150000 0.04152450 48950.11136428 0 -699.38204783 0 6925.80330074 0 -2031.02821798 0 -8609.97875912 0 1887
0.04250000 0.04250150 48847.48422310 0 1162.13715712 0 8191.12963158 0 -3877.29385989 0 -9233.38524866 0 1920
0.04350000 0.04349210 49972.22373525 0 2870.83971539 0 17907.25586653 0 -4447.97045686 0 -1662.03137643 0 2005
0.04450000 0.04448520 47153.18093842 0 3824.55272666 0 21988.51133394 0 -3042.01234473 0 1659.00764139 0 2151
0.04550000 0.04548030 45811.15964765 0 4283.26120169 0 26766.12511413 0 -934.32401283 0 7724.94612381 0 2274
0.04650000 0.04648670 43171.51763649 0 1350.38433492 0 32721.30946490 0 4662.95914274 0 11625.98023805 0 2311
0.04750000 0.04749250 43304.26972162 0 45.31533454 0 26785.12181386 0 5157.59273750 0 11169.93579724 0 2568
0.04850000 0.04851840 42829.91426077 0 -601.77498127 0 26459.03053616 0 8336.57241139 0 9023.61222471 0 2493
0.04950000 0.04949480 42996.61311111 0 315.01361641 0 21727.16620444 0 4744.02671581 0 10267.91853868 0 2644
0.05050000 0.05050630 40711.05159798 0 944.84301378 0 18580.45843881 0 4416.86757628 0 7580.78477819 0 2829
0.05150000 0.05149060 39295.85367095 0 1837.12699287 0 16804.66043632 0 3351.45621870 0 7441.00728635 0 2784
0.05250000 0.05249300 37471.04643128 0 1329.72401887 0 10548.88984436 0 3756.35569868 0 3351.63606911 0 3055
0.05350000 0.05348950 35880.94397887 0 461.22638079 0 10722.54665750 0 3485.92812339 0 2893.83808679 0 3009
0.05450000 0.05448610 35407.82498961 0 236.76519854 0 6748.41459156 0 1639.53883432 0 2315.75390100 0 3336
0.05550000 0.05550870 35445.14395003 0 28.23190597 0 7703.85866304 0 884.92472506 0 845.65551173 0 3349
0.05650000 0.05647670 34974.61031044 0 851.95814459 0 8467.77328672 0 -1773.71848210 0 584.25530304 0 3324
0.05750000 0.05747970 34232.83976870 0 1757.13852227 0 8562.99283906 0 -3989.26198183 0 -840.37465402 0 3639
0.05850000 0.05849280 33889.88751489 0 1297.45211062 0 13686.72873656 0 -3236.80158124 0 439.89612197 0 3846
0.05950000 0.05951020 33331.33958007 0 728.43800591 0 14525.95572014 0 -1874.52463785 0 1944.98103663 0 3787
0.06050000 0.06049470 33002.43813968 0 -238.40745761 0 16194.18069512 0 871.55397101 0 341.29425782 0 3930
0.06150000 0.06148310 33996.11166430 0 -680.90354209 0 15887.98536921 0 998.55983549 0 126.91481521 0 4083
0.06250000 0.06249100 34422.35714002 0 -474.31836670 0 15578.64266110 0 2667.42889977 0 864.44650756 0 4303
0.06350000 0.06350600 34498.11912595 0 176.61760055 0 16531.73743658 0 1308.63655810 0 1218.87996202 0 4470
0.06450000 0.06451750 35082.07093142 0 475.09959193 0 15578.30544157 0 206.62339361 0 1845.80477523 0 4479
0.06550000 0.06550280 33614.82879151 0 596.76277511 0 13944.92648385 0 -212.85183818 0 1804.98997243 0 4636
0.06650000 0.06648880 34104.02191132 0 659.56541481 0 15099.90334646 0 1391.76117026 0 2962.20372454 0 4653
0.06750000 0.06749660 33912.59362937 0 -104.48690684 0 13224.85039803 0 1350.71031379 0 1939.30450801 0 5220
0.06850000 0.06852730 33596.05690479 0 357.59882171 0 11314.72661931 0 1582.43632861 0 1518.00491862 0 5029
0.06950000 0.06949320 33789.39609736 0 -80.22407464 0 9628.60652836 0 1853.08871691 0 -1104.37932147 0 5040
0.07050000 0.07048030 33159.69484341 0 233.76619293 0 8895.42384378 0 355.37542099 0 -1289.15651039 0 5475
0.07150000 0.07148790 32957.36313025 0 251.91759573 0 8426.77863350 0 187.88298071 0 -3600.23430068 0 5509
0.07250000 0.07249820 31530.25011344 0 987.72834445 0 8157.65497370 0 -797.79169685 0 -4529.48765596 0 5916
0.07350000 0.07351270 31216.86077106 0 1058.21059673 0 8151.01174912 0 -1342.77441437 0 -5396.36664033 0 5721
0.07450000 0.07449140 29354.73457097 0 1572.21857709 0 9963.53295754 0 174.19074405 0 -6120.17462220 0 6028
0.07550000 0.07549160 28781.68619670 0 1169.36489555 0 9679.72900788 0 133.23880531 0 -5428.98700875 0 6183
0.07650000 0.07648840 27522.84572134 0 1055.12391404 0 9082.31090283 0 990.72172974 0 -6718.15475979 0 6330
0.07750000 0.07749960 26739.14755237 0 982.59136706 0 9089.79717622 0 1205.59351285 0 -4815.19127559 0 6583
0.07850000 0.07848650 25590.80267370 0 737.91612260 0 7954.04182636 0 771.36942324 0 -6764.53368470 0 6549
0.07950000 0.07947320 24925.80577645 0 634.62465897 0 6469.32047456 0 510.22887359 0 -4863.52607373 0 6828
0.08050000 0.08048110 24506.41709768 0 571.36452479 0 8432.93851010 0 -633.52419926 0 -5991.61529979 0 7147
0.08150000 0.08149960 24027.56537654 0 452.47665827 0 6755.10277874 0 -624.72614194 0 -5132.59353028 0 7386
0.08250000 0.08250610 23431.02404224 0 281.69070732 0 8622.18610581 0 -160.70421131 0 -4118.02363595 0 7227
0.08350000 0.08350160 23356.38612139 0 398.15733767 0 7775.79882772 0 37.86514365 0 -4019.31948188 0 7798
0.08450000 0.08449610 23081.88943054 0 505.70451167 0 8215.79161928 0 722.80081956 0 -2185.48599967 0 7371
0.08550000 0.08548940 22934.52449946 0 282.16056652 0 8662.14661916 0 1357.08376275 0 -2379.15117112 0 8256
0.08650000 0.08650700 22609.44488032 0 140.71383805 0 7725.68800676 0 1748.64059032 0 1183.52811547 0 8037
0.08750000 0.08749060 22918.67518193 0 -133.28938824 0 7475.20134587 0 1956.55890689 0 -1243.21597085 0 8155
0.08850000 0.08849210 22878.54605882 0 -551.01332664 0 5921.75465550 0 1860.44010249 0 194.31600512 0 8718
0.08950000 0.08949900 23159.67473360 0 174.52009512 0 5315.20914205 0 430.44161064 0 -789.26566327 0 8571
0.09050000 0.09049190 22925.30716586 0 473.56411904 0 6027.82143580 0 -58.84705471 0 340.09712852 0 8932
0.09150000 0.09150830 22133.17850884 0 874.27196036 0 5975.11402452 0 -275.32400274 0 -202.17097185 0 9285
0.09250000 0.09250820 21689.62243100 0 1094.01881370 0 6213.73055824 0 -81.64478049 0 670.42613155 0 9204
0.09350000 0.09350330 20754.06307066 0 805.24200016 0 6543.98087671 0 -57.32922964 0 486.18174948 0 9349
0.09450000 0.09448040 20481.36488392 0 447.39925633 0 6974.32918995 0 -253.28783105 0 549.46324090 0 9564
0.09550000 0.09549270 20348.50039228 0 283.61735485 0 7443.35658235 0 -77.41829581 0 1117.21389648 0 10155
0.09650000 0.09649430 19924.39064020 0 474.68256378 0 8685.47096943 0 -518.20523935 0 1360.65828969 0 9913
0.09750000 0.09749140 19829.96917406 0 560.83203505 0 8055.09527643 0 -332.28038000 0 1543.63360228 0 10476
0.09850000 0.09850240 18943.19423790 0 584.72853444 0 8247.99608363 0 -28.82316420 0 -253.91618343 0 10575
0.09950000 0.09950330 19071.56246924 0 404.87250242 0 9136.50208001 0 406.56084816 0 949.22124724 0 10882
0.10050000 0.10051200 18589.22614638 0 122.26680613 0 8722.96978026 0 170.88711680 0 -939.54866728 0 10875
0.10150000 0.10150300 18748.95579326 0 104.27074912 0 8414.95346893 0 706.33326624 0 -276.46268066 0 11118
0.10250000 0.10250800 18226.60275379 0 105.05264879 0 8097.98959962 0 490.73196490 0 -1050.75017684 0 11575
0.10350000 0.10349800 18341.93183029 0 271.71912606 0 7345.45051448 0 424.29634688 0 -1900.31069063 0 11364
0.10450000 0.10450100 17793.50048113 0 486.75614673 0 6517.52038489 0 329.85239944 0 -2368.57371878 0 12093
0.10550000 0.10551000 17058.92395586 0 717.13665566 0 6683.12889211 0 -117.94365186 0 -3378.72603737 0 12067
0.10650000 0.10649700 16524.09379408 0 771.06929787 0 5451.80552974 0 -675.70361707 0 -3061.44742984 0 12054
0.10750000 0.10749900 15722.52299045 0 506.07770128 0 6869.33027147 0 -365.92701983 0 -3981.01134419 0 12807
0.10850000 0.10850100 15659.80015937 0 238.92115535 0 5823.03926078 0 -284.70769797 0 -3435.19906664 0 12736
0.10950000 0.10950300 15457.80566574 0 -21.18053336 0 6751.04490383 0 -25.61924152 0 -3795.22586891 0 12933
0.11050000 0.11050200 15808.17674902 0 -111.11754189 0 6384.32991438 0 -71.56056790 0 -3745.82320894 0 13428
0.11150000 0.11150900 15572.01067716 0 -66.41909426 0 6473.10857385 0 375.00047310 0 -3078.96036368 0 13453
0.11250000 0.11250000 16002.52760016 0 79.31639209 0 6819.92761151 0 477.77936306 0 -3356.80676845 0 13668
0.11350000 0.11349100 15712.51881130 0 127.27339197 0 6711.94992059 0 700.35324005 0 -1871.44469955 0 13791
0.11450000 0.11448600 15708.13495752 0 255.82372186 0 5961.69268755 0 577.57273619 0 -2547.19889955 0 14205
0.11550000 0.11549300 15229.17082987 0 407.33645306 0 6458.14726773 0 694.48000005 0 -1436.26290650 0 14776
0.11650000 0.11649800 14972.09714765 0 326.45435072 0 5859.91983583 0 548.44596201 0 -2206.16879702 0 14553
0.11750000 0.11747300 14607.67525095 0 246.22195800 0 5887.34702361 0 606.94230842 0 -1345.94427788 0 14568
0.11850000 0.11849100 14198.17834482 0 205.31835406 0 5135.69594988 0 646.00469377 0 -1666.68500584 0 16015
0.11950000 0.11950300 14131.52128599 0 100.03628359 0 4224.01173169 0 646.29133036 0 -1715.32330155 0 15270
0.12050000 0.12050700 13799.47246339 0 115.17957585 0 4388.94579987 0 700.36335664 0 -1755.40746206 0 15999
0.12150000 0.12150000 13851.74148929 0 172.96888532 0 3254.12342402 0 547.90753484 0 -2121.18947749 0 15670
0.12250000 0.12250700 13443.70586776 0 197.12391967 0 3317.91411692 0 214.68968457 0 -2052.52034218 0 16887
0.12350000 0.12352200 13595.56705913 0 189.93777166 0 3171.40347529 0 -111.23568113 0 -1570.26270387 0 16407
0.12450000 0.12449800 13430.44189990 0 71.95039367 0 3367.11444517 0 -10.84628374 0 -771.50655918 0 16306
0.12550000 0.12549900 13462.14053496 0 46.24954503 0 3745.87941220 0 -167.58011736 0 -600.06078204 0 17523
0.12650000 0.12650100 13668.29406936 0 -128.73917282 0 4230.59875302 0 -56.51169711 0 445.78285075 0 17154
0.12750000 0.12750600 13804.86797574 0 -61.00278670 0 4755.02007222 0 58.30581737 0 450.50280000 0 18007
0.12850000 0.12850300 14217.28745106 0 64.20805826 0 5036.45224458 0 19.33830311 0 1069.39392014 0 17496
0.12950000 0.12949900 13992.69924946 0 149.76031375 0 5371.47983961 0 -60.57047128 0 1134.51887828 0 18405
0.13050000 0.13049000 13767.77382833 0 278.69507390 0 5052.79615074 0 200.13641407 0 1652.33069485 0 18100
0.13150000 0.13148800 13620.63371026 0 335.68517310 0 4894.35917869 0 461.55573186 0 949.99347994 0 19059
0.13250000 0.13249300 13156.28242857 0 211.15899618 0 4736.47299852 0 685.27390710 0 494.50207915 0 18957
0.13350000 0.13349100 12878.97557503 0 303.12438013 0 3957.54086546 0 465.79458125 0 107.42285240 0 19468
0.13450000 0.13450700 12578.73779401 0 283.37905306 0 4172.49582939 0 260.08055629 0 -131.34925192 0 19953
0.13550000 0.13551000 12053.79940487 0 487.65652286 0 3222.52595481 0 -388.51173528 0 -740.22270413 0 19956
0.13650000 0.13649900 11836.40521973 0 317.14709192 0 3949.48131889 0 -275.36784128 0 -434.42642132 0 19723
0.13750000 0.13749600 11640.93030352 0 292.05908355 0 3408.90718458 0 -320.79580715 0 -988.70066074 0 20946
0.13850000 0.13851100 11530.09748731 0 162.05196533 0 3753.86027422 0 -63.16829807 0 -539.17467329 0 20955
0.13950000 0.13949800 11249.30603205 0 221.72858006 0 3483.50014284 0 78.77931380 0 -585.97287448 0 20506
0.14050000 0.14048300 11308.99388744 0 53.16906480 0 3675.09703455 0 489.74728389 0 -386.95378109 0 21447
0.14150000 0.14148400 11188.24681728 0 163.13556406 0 3666.57662129 0 405.29402682 0 -157.77602179 0 21771
0.14250000 0.14249400 11171.36335989 0 126.91256708 0 3274.40155794 0 272.00688671 0 -190.46720631 0 22470
0.14350000 0.14350900 11032.30526969 0 141.19831009 0 3680.20028998 0 -223.50235474 0 208.73326375 0 22519
0.14450000 0.14449900 10967.43547432 0 112.14325127 0 3701.90598654 0 -249.28615939 0 -105.09873546 0 22218
0.14550000 0.14550500 10952.85635033 0 58.81097222 0 4217.69448598 0 -35.96940790 0 35.54529815 0 23559
0.14650000 0.14650700 10963.36635876 0 61.98387070 0 3520.07722031 0 146.38474634 0 -736.80779444 0 23044
0.14750000 0.14750500 10831.60345089 0 87.04310300 0 4033.33657334 0 271.07840896 0 -179.34008615 0 23649
0.14850000 0.14849900 10696.56951366 0 115.94056790 0 3252.71834268 0 388.72755577 0 -1187.00147654 0 23640
0.14950000 0.14949500 10513.75157017 0 158.54937856 0 3096.25972515 0 577.16132837 0 -717.39406656 0 24457
0.15050000 0.15050000 10471.26191041 0 67.77460433 0 2825.70850271 0 270.22861577 0 -1092.51369056 0 24591
0.15150000 0.15149900 10255.46389767 0 -14.98513630 0 2224.82827723 0 542.35914964 0 -872.52741137 0 25020
0.15250000 0.15250500 10281.54220737 0 26.79883541 0 2249.52398689 0 359.22534387 0 -999.42986186 0 25297
0.15350000 0.15350100 10267.18789639 0 34.01634484 0 2072.04535250 0 363.87110481 0 -753.83513217 0 25452
0.15450000 0.15450400 10112.90996510 0 183.87568872 0 2089.64821154 0 173.71414046 0 -566.38491651 0 26061
0.15550000 0.15549900 10123.61106460 0 153.62372541 0 2307.72807637 0 0.41181023 0 -304.32150944 0 26128
0.15650000 0.15649500 9882.97121375 0 246.69069314 0 2220.02851937 0 -202.69141398 0 -326.85789009 0 26331
0.15750000 0.15749700 9831.74756837 0 252.45152664 0 2638.66407455 0 -192.06675091 0 -181.22514328 0 27345
0.15850000 0.15849900 9610.45287743 0 211.01961211 0 2749.46316880 0 -305.94578347 0 -144.15235310 0 26980
0.15950000 0.15949700 9550.55144968 0 157.54221626 0 2793.07689364 0 -53.63386571 0 -59.82296800 0 27777
0.16050000 0.16050000 9482.47806886 0 42.56283640 0 3010.42611617 0 133.34221930 0 -123.79778276 0 28224
0.16150000 0.16150500 9499.38400755 0 -9.29662515 0 2620.29685125 0 372.55338344 0 -94.91639199 0 28075
0.16250000 0.16249700 9429.56832586 0 -18.26122396 0 2575.76139305 0 488.02296807 0 -39.85294032 0 28590
0.16350000 0.16349900 9479.01594843 0 -2.44762922 0 2388.61579903 0 418.02856003 0 89.44444322 0 29163
0.16450000 0.16449100 9359.84256938 0 116.02712091 0 2152.73074344 0 298.41005122 0 159.37107013 0 28996
0.16550000 0.16550500 9176.78857223 0 216.45334267 0 2313.55073345 0 80.83376754 0 581.83406688 0 30777
0.16650000 0.16650700 8965.00347180 0 218.67674339 0 2223.79413737 0 158.82927076 0 650.52455943 0 29211
0.16750000 0.16749900 8889.34265173 0 185.73714048 0 2226.10971142 0 106.74032009 0 697.85669153 0 30922
0.16850000 0.16850800 8745.08014025 0 191.86666733 0 2182.22621096 0 55.46946398 0 789.55679613 0 30867
0.16950000 0.16949900 8525.95489490 0 192.73444556 0 2251.45737881 0 -92.48470202 0 619.81847383 0 30852
0.17050000 0.17049200 8347.16110437 0 208.23755105 0 2265.22717596 0 -317.57311258 0 161.28647701 0 31257
0.17150000 0.17149500 8333.07656901 0 139.57066387 0 2301.28718351 0 -289.05445761 0 36.55796837 0 32608
0.17250000 0.17250900 8209.02474754 0 54.66699392 0 2525.62809079 0 -317.94068186 0 132.92856335 0 32361
0.17350000 0.17350400 8302.78301529 0 -15.92980059 0 2415.88561771 0 132.81278465 0 60.37331026 0 32508
0.17450000 0.17449800 8317.98037508 0 -92.54146731 0 2492.85035326 0 239.43260496 0 163.94489091 0 32791
0.17550000 0.17549800 8443.33611203 0 47.31920535 0 2335.22270806 0 495.46989918 0 50.37677476 0 33633
0.17650000 0.17650100 8358.86262179 0 75.32787200 0 2428.94725386 0 441.51027941 0 662.40929945 0 33984
0.17750000 0.17750300 8275.04108928 0 127.39141880 0 2113.47839109 0 343.65367041 0 746.37021602 0 34069
