### header ###
fiducial parameters:
Omega_m = 0.31
Omega_nu = 0
Omega_de = 0.69
Omega_k = 0
H_0 = 100
w_de = -1
zeff = 0
beta = 0
fgrowth = 0
b_1 = 2
gamma = 0.55
Lx = 3500 Ly = 3500 Lz = 3500
nx = 700 ny = 700 nz = 700
xoffset = 857.220397 yoffset = 15.9954215 zoffset = 262.898189
bins = 400 dk = 0.001
kx_ny = 0.628318531 ky_ny = 0.628318531 kz_ny = 0.628318531
############################
A(data) = 3.08778094 (not used)
A(ran) = 3.08681781 (used)
Ngal = 188685
weighted Ngal = 0
Nran = 9360983
weighted Nran = 0
SN(data) = 3450.17939
SN(ran) = 69.3183273
SN(data+ran) = 3519.49771
############################
13 columns: k_central k_mean P_0(k) sigma^{lin}_{P_0(k)} P^img_1(k) sigma^{lin}_{P_1(k)} P_2(k) sigma^{lin}_{P_2(k)} P^img_3(k) sigma^{lin}_{P_3(k)} P_4(k) sigma^{lin}_{P_4(k)} N_modes
### header ###
0.00050000 0 0 0 0 0 0 0 0 0 0 0 0
0.00150000 0.00179520 43556.06029800 0 -62598.73429486 0 -58949.79425457 0 109551.60683725 0 8274.41161284 0 3
0.00250000 0.00253879 82157.91619281 0 -70920.97487656 0 -31723.02727348 0 -60437.94400484 0 14575.52698986 0 6
0.00350000 0.00331552 121497.94562114 0 -66051.07535387 0 -82563.25405817 0 0.72745557 0 2655.64869780 0 7
0.00450000 0.00420575 152198.41089762 0 -41219.80345007 0 -79161.27111444 0 -47613.82280538 0 14078.35300803 0 24
0.00550000 0.00557378 162666.82892339 0 4562.54640976 0 -92647.01701593 0 -54274.24558301 0 33733.86728275 0 45
0.00650000 0.00659388 122186.99751095 0 29715.33464642 0 -25960.73248925 0 -37025.12981678 0 16253.30651797 0 40
0.00750000 0.00754703 100101.92898723 0 36428.02644995 0 -47638.21501746 0 -23012.53461553 0 41001.28519986 0 57
0.00850000 0.00846663 71972.76256546 0 23559.39227359 0 -15976.78650999 0 4142.58445780 0 34253.85978556 0 75
0.00950000 0.00948925 58735.32263862 0 13866.24192874 0 2393.42679755 0 -8632.72983620 0 48820.95628738 0 112
0.01050000 0.01054430 51734.19573733 0 378.51317646 0 18413.75958847 0 4775.79279477 0 29638.78581494 0 105
0.01150000 0.01145670 57866.75755664 0 1584.84182786 0 35742.45916187 0 3977.81899938 0 66880.63537782 0 144
0.01250000 0.01249090 62456.98968914 0 -3100.39628462 0 29375.86699434 0 22967.68441911 0 53903.97854793 0 169
0.01350000 0.01339930 67440.19497121 0 -5219.38259457 0 33032.67549015 0 35901.28955670 0 73142.91430656 0 180
0.01450000 0.01448870 71861.92974926 0 -7456.80040062 0 14788.98694724 0 36651.04096046 0 43502.55480052 0 267
0.01550000 0.01550050 84701.78785974 0 -2651.05127165 0 -9957.42928419 0 25951.40274915 0 13024.65440851 0 238
0.01650000 0.01653350 75480.07040655 0 981.44257256 0 -6661.09721668 0 -10147.84590757 0 10858.54729069 0 315
0.01750000 0.01747870 71717.15016784 0 3207.96931212 0 -11519.98090166 0 -17780.68613930 0 1202.63722171 0 297
0.01850000 0.01844180 68560.21341004 0 1389.82777833 0 -6307.89348941 0 -19894.71532227 0 2216.43151114 0 388
0.01950000 0.01947590 70789.12204349 0 -2063.33384818 0 6269.69775822 0 -25238.63308629 0 -16140.22557162 0 399
0.02050000 0.02045430 72608.30895779 0 -2096.44880523 0 7600.36599176 0 -17429.97783649 0 -22917.32630384 0 462
0.02150000 0.02154770 69917.74679882 0 1969.50813653 0 11809.54006449 0 -9315.44199899 0 -25538.64605430 0 571
0.02250000 0.02255340 71527.18317049 0 3968.43305602 0 14746.27247447 0 -6575.75819633 0 -23944.38456113 0 510
0.02350000 0.02348930 67850.14150336 0 1034.89074272 0 18315.29148806 0 -571.55224365 0 -27672.34637606 0 555
0.02450000 0.02439640 71776.16358418 0 161.55962483 0 12848.28859854 0 6309.52338376 0 -26291.43243376 0 592
0.02550000 0.02547300 68399.80932411 0 -1060.12038329 0 11644.41490525 0 4749.65828183 0 -23086.16087782 0 837
0.02650000 0.02652900 71120.38402053 0 -141.25451335 0 8825.32714582 0 4249.93267228 0 -28031.03554089 0 723
0.02750000 0.02749970 68649.91380287 0 1889.63207243 0 12045.81854285 0 1557.94295066 0 -14773.58725574 0 826
0.02850000 0.02848090 69039.62716372 0 3574.48196985 0 7502.32503608 0 -3548.29125365 0 -12391.91817886 0 831
0.02950000 0.02946900 65204.65435383 0 4874.35082038 0 20795.65347836 0 -6508.71895537 0 -428.94098376 0 996
0.03050000 0.03053250 62633.91753165 0 4352.71718256 0 27222.60794031 0 -5410.50737895 0 1908.24659005 0 1041
0.03150000 0.03150510 61229.62303583 0 2772.52898410 0 33432.28062364 0 -5018.70325707 0 -1009.09344929 0 1036
0.03250000 0.03246190 58348.30703395 0 616.85768642 0 30708.55854501 0 -5600.42941370 0 3384.78474812 0 1059
0.03350000 0.03345080 63391.53739092 0 -373.93598348 0 42337.46135225 0 2867.68109254 0 2282.83003500 0 1302
0.03450000 0.03451200 63586.78749411 0 -751.01934916 0 38786.42737982 0 7140.20747279 0 1298.26143748 0 1339
0.03550000 0.03553350 64274.49050584 0 -702.60024614 0 34744.06456394 0 9414.66322300 0 -2150.44889135 0 1365
0.03650000 0.03647120 62698.32646034 0 2405.28568407 0 28730.42882937 0 8872.54911954 0 -500.00662582 0 1308
0.03750000 0.03744890 60254.15936539 0 3847.41621025 0 26828.51072569 0 9641.51079540 0 1825.23438440 0 1579
0.03850000 0.03847530 54414.41649763 0 3928.36013617 0 22036.17169304 0 10739.02545147 0 5180.81592191 0 1662
0.03950000 0.03950240 51659.22059695 0 4197.57372117 0 20045.90207461 0 6913.69711990 0 10597.61806527 0 1683
0.04050000 0.04050350 46090.37741180 0 4210.72528253 0 14354.98542252 0 7677.39817122 0 8376.88138491 0 1822
0.04150000 0.04152450 43923.29235738 0 3007.16632746 0 22017.62461933 0 3014.41654718 0 17800.35727808 0 1887
0.04250000 0.04250150 42023.84719685 0 2750.28373630 0 14961.75574898 0 -1303.73563438 0 14598.23310434 0 1920
0.04350000 0.04349210 41275.44467118 0 1809.95834005 0 24160.99190071 0 -185.53256064 0 21559.45569553 0 2005
0.04450000 0.04448520 39818.99355597 0 1224.41036217 0 23451.14480705 0 -2071.49456061 0 19325.93839529 0 2151
0.04550000 0.04548030 38934.91637598 0 178.71398191 0 24650.52224005 0 854.18716563 0 17392.43406305 0 2274
0.04650000 0.04648670 39410.62071491 0 623.84487492 0 25867.77230771 0 -150.68991557 0 14304.17768122 0 2311
0.04750000 0.04749250 38992.01888169 0 -168.42991055 0 23091.66879668 0 545.23225997 0 6882.68416454 0 2568
0.04850000 0.04851840 38483.26702961 0 -75.02336277 0 21463.34813178 0 543.75748659 0 6139.50854146 0 2493
0.04950000 0.04949480 39057.66428196 0 -16.78858631 0 21767.96976659 0 -656.32361114 0 381.26376369 0 2644
0.05050000 0.05050630 38537.44696613 0 -172.04827602 0 16596.93321082 0 2627.18737015 0 -1729.84622229 0 2829
0.05150000 0.05149060 38941.88557943 0 21.13152412 0 14174.34816527 0 3671.79228323 0 -2760.97359515 0 2784
0.05250000 0.05249300 37450.25122743 0 -368.23247730 0 10074.66927132 0 5470.36384409 0 -2140.47843415 0 3055
0.05350000 0.05348950 36816.16611969 0 960.67996659 0 9119.48373480 0 3563.54481669 0 -3350.14106256 0 3009
0.05450000 0.05448610 36051.91427649 0 1003.91600557 0 6129.72917532 0 3658.60699992 0 334.01706054 0 3336
0.05550000 0.05550870 33822.89323654 0 1566.14862570 0 6453.80837655 0 1087.38345757 0 1092.99029415 0 3349
0.05650000 0.05647670 33211.40183677 0 899.60164272 0 6344.99887747 0 653.21444715 0 2964.03595060 0 3324
0.05750000 0.05747970 32763.68671816 0 -236.07727072 0 4515.45932384 0 769.20559798 0 2542.06192216 0 3639
0.05850000 0.05849280 32711.86731829 0 -650.13450885 0 6323.41682807 0 1012.77813460 0 2464.83865164 0 3846
0.05950000 0.05951020 34135.04610734 0 -611.39248204 0 4574.61886864 0 601.29837768 0 2850.94376360 0 3787
0.06050000 0.06049470 32767.05891338 0 267.35100918 0 7525.00866926 0 -119.95572834 0 1961.11137043 0 3930
0.06150000 0.06148310 34556.68291626 0 1216.11476194 0 7604.61495774 0 -3795.14718435 0 3618.84881829 0 4083
0.06250000 0.06249100 33311.44362828 0 1160.49602212 0 11983.09571177 0 -905.66484972 0 6258.53579205 0 4303
0.06350000 0.06350600 31942.33236924 0 1306.26478080 0 10394.90416999 0 -1961.75208752 0 6690.44655574 0 4470
0.06450000 0.06451750 32327.88668932 0 1287.39172822 0 15835.37912379 0 622.46901927 0 10377.22262639 0 4479
0.06550000 0.06550280 30764.64939216 0 884.35819626 0 14070.93417855 0 151.72742763 0 8845.54907649 0 4636
0.06650000 0.06648880 31206.85659191 0 611.90730384 0 17015.19782452 0 1698.75458237 0 8482.75707414 0 4653
0.06750000 0.06749660 30325.36476159 0 285.36190385 0 15672.61450121 0 1440.51187248 0 8148.56128726 0 5220
0.06850000 0.06852730 29970.04779198 0 42.15929704 0 15260.98187144 0 835.66594542 0 6080.96723245 0 5029
0.06950000 0.06949320 30737.33461088 0 -294.90746445 0 14743.79953130 0 350.61388134 0 3894.89671894 0 5040
0.07050000 0.07048030 30443.39159427 0 487.65427473 0 13039.94169350 0 -215.80700525 0 2772.28168978 0 5475
0.07150000 0.07148790 29353.94772542 0 286.78384616 0 10930.02658869 0 1271.18270987 0 -234.01685944 0 5509
0.07250000 0.07249820 28801.35733548 0 706.87506561 0 9963.46551363 0 930.70677142 0 -249.56605159 0 5916
0.07350000 0.07351270 28318.68379309 0 222.06467552 0 7460.80207228 0 1906.86399001 0 -3042.15847318 0 5721
0.07450000 0.07449140 27391.33010779 0 639.91001294 0 6276.49835192 0 1117.44432982 0 -4754.88518442 0 6028
0.07550000 0.07549160 27522.62090832 0 473.90021449 0 5199.44168018 0 -681.88147871 0 -2690.31486465 0 6183
0.07650000 0.07648840 26621.79515874 0 470.67077554 0 6159.41573390 0 384.88774948 0 -4037.16963524 0 6330
0.07750000 0.07749960 26585.48785688 0 403.00430627 0 6216.65312743 0 -443.67635281 0 -2289.55194414 0 6583
0.07850000 0.07848650 26352.01954120 0 137.61591470 0 5916.57271551 0 -120.19965046 0 -4575.11345727 0 6549
0.07950000 0.07947320 26042.90164610 0 499.82003101 0 7876.98716560 0 -276.30193936 0 -3027.93905001 0 6828
0.08050000 0.08048110 26117.31475394 0 555.95696483 0 6912.34824182 0 -78.79122889 0 -3441.17909283 0 7147
0.08150000 0.08149960 25043.38298310 0 724.75332060 0 9185.97218387 0 94.36717380 0 -1883.05629176 0 7386
0.08250000 0.08250610 25005.95161616 0 800.10839497 0 7712.46900150 0 297.74910095 0 -538.04386382 0 7227
0.08350000 0.08350160 23869.85904678 0 711.73215079 0 8263.64306944 0 1131.87732536 0 -194.54081814 0 7798
0.08450000 0.08449610 23849.40106245 0 895.17057820 0 8251.42448210 0 1101.92998368 0 1090.46002367 0 7371
0.08550000 0.08548940 22468.93674618 0 885.41818962 0 7690.19003175 0 1084.59127993 0 1058.10605867 0 8256
0.08650000 0.08650700 21899.26056713 0 688.59776752 0 7748.49528709 0 822.05014519 0 2065.54825637 0 8037
0.08750000 0.08749060 21508.87276724 0 557.95105627 0 7797.71809664 0 -47.18881380 0 1509.36085821 0 8155
0.08850000 0.08849210 20860.51203308 0 244.33240461 0 7089.07375261 0 814.97527962 0 1587.53958404 0 8718
0.08950000 0.08949900 20867.25642352 0 -18.95679543 0 7427.41733961 0 431.92425247 0 1488.32960069 0 8571
0.09050000 0.09049190 20781.60266495 0 -200.88841360 0 5841.82238815 0 757.41415536 0 1515.84671368 0 8932
0.09150000 0.09150830 20691.56505259 0 -1.69685491 0 6122.46771495 0 1208.51608204 0 223.62712597 0 9285
0.09250000 0.09250820 20448.99180982 0 503.03710525 0 5258.12911764 0 -229.88704436 0 -432.98424583 0 9204
0.09350000 0.09350330 19850.31475189 0 677.27506004 0 5385.42948717 0 -482.43299246 0 448.14338741 0 9349
0.09450000 0.09448040 19258.60689741 0 993.82414934 0 6172.07270663 0 -1864.56542130 0 -510.98424532 0 9564
0.09550000 0.09549270 18832.24901518 0 855.25390339 0 7470.55895712 0 -1577.00709430 0 -673.79158238 0 10155
0.09650000 0.09649430 18216.26135512 0 496.76819434 0 7943.01474799 0 -1048.91457857 0 -1074.29484386 0 9913
0.09750000 0.09749140 17892.53061407 0 402.90201635 0 8469.95397296 0 -93.69914192 0 -178.85336598 0 10476
0.09850000 0.09850240 17915.57394807 0 -0.31297231 0 8147.57211000 0 1219.02609047 0 -334.94553829 0 10575
0.09950000 0.09950330 18032.02708964 0 -221.66113615 0 8342.84469449 0 2130.29440459 0 634.16604042 0 10882
0.10050000 0.10051200 18136.67754795 0 -17.73785926 0 7147.32280470 0 1756.72261819 0 -76.40787372 0 10875
0.10150000 0.10150300 18376.44062804 0 80.64211444 0 6881.87483769 0 1250.05028649 0 1697.75416446 0 11118
0.10250000 0.10250800 17990.21186892 0 261.93189146 0 7178.04350315 0 12.36156842 0 1548.87174552 0 11575
0.10350000 0.10349800 18011.68151182 0 510.08724139 0 6419.97401785 0 -233.61332008 0 2207.55139706 0 11364
0.10450000 0.10450100 17445.15271498 0 165.75126348 0 7023.51827755 0 -502.30084263 0 1537.35007853 0 12093
0.10550000 0.10551000 17305.99345893 0 442.42639245 0 6709.90412215 0 24.28362740 0 1003.72379044 0 12067
0.10650000 0.10649700 16981.70068534 0 214.75375628 0 6918.55308102 0 570.73167615 0 1135.06967016 0 12054
0.10750000 0.10749900 16518.58587522 0 314.15483069 0 6200.57899688 0 580.44135025 0 34.23430105 0 12807
0.10850000 0.10850100 16507.79485052 0 248.59485937 0 5866.73167017 0 1286.97582414 0 368.12681518 0 12736
0.10950000 0.10950300 15969.92971304 0 -27.90165565 0 5517.02378528 0 1084.12591699 0 381.04681913 0 12933
0.11050000 0.11050200 16103.80586325 0 15.68295590 0 5229.67903064 0 663.61204908 0 1087.90502376 0 13428
0.11150000 0.11150900 16305.01351133 0 -34.25745679 0 5971.40460978 0 329.25439682 0 2104.03624448 0 13453
0.11250000 0.11250000 16139.88835209 0 168.14327396 0 5297.72993017 0 -235.33538777 0 2133.85769087 0 13668
0.11350000 0.11349100 16067.49856139 0 350.77574671 0 6214.23638752 0 189.70846239 0 3300.71592130 0 13791
0.11450000 0.11448600 15787.15673216 0 254.19832376 0 5338.46604842 0 33.18251336 0 2279.03069506 0 14205
0.11550000 0.11549300 15513.55929336 0 57.66217771 0 5652.70968025 0 740.35421975 0 1760.11729471 0 14776
0.11650000 0.11649800 15288.07183970 0 0.25076430 0 4385.27010708 0 -34.33355600 0 193.77308169 0 14553
0.11750000 0.11747300 15443.53003931 0 31.50293533 0 4708.39385299 0 -76.44283214 0 -911.54258599 0 14568
0.11850000 0.11849100 15152.73440490 0 250.30793454 0 3878.84506970 0 -879.51797206 0 -1489.08272429 0 16015
0.11950000 0.11950300 15165.32393372 0 136.48622931 0 4748.44429155 0 -865.95500288 0 -1805.69813343 0 15270
0.12050000 0.12050700 14941.18535814 0 287.00753511 0 4696.81598274 0 -644.84016235 0 -1837.52041565 0 15999
0.12150000 0.12150000 15006.38113238 0 257.48171784 0 5287.80443557 0 326.34419235 0 -1200.97360540 0 15670
0.12250000 0.12250700 14604.75268176 0 230.31194096 0 5213.43629034 0 1007.62204811 0 -621.22467923 0 16887
0.12350000 0.12352200 14553.04568840 0 216.98277732 0 5394.12975084 0 1269.04698623 0 533.73644646 0 16407
0.12450000 0.12449800 14439.06548999 0 197.28241285 0 4784.39189258 0 1152.59384465 0 870.88964855 0 16306
0.12550000 0.12549900 14243.70298028 0 198.54361386 0 4511.39020828 0 773.45119176 0 1528.31259534 0 17523
0.12650000 0.12650100 13966.62093976 0 344.96995061 0 4039.95731662 0 420.73418467 0 2026.90289916 0 17154
0.12750000 0.12750600 13527.78593523 0 249.15914004 0 3811.58101572 0 332.56364440 0 2082.00456904 0 18007
0.12850000 0.12850300 13412.34445222 0 224.46343038 0 3455.81442009 0 285.90707541 0 2020.70930061 0 17496
0.12950000 0.12949900 13166.62382724 0 185.82032130 0 3233.02472260 0 143.76567472 0 845.86233970 0 18405
0.13050000 0.13049000 12840.86976906 0 358.25752384 0 3239.45437482 0 -88.35825914 0 485.15435401 0 18100
0.13150000 0.13148800 12653.60052788 0 285.61481849 0 2832.04822972 0 -239.10100576 0 518.56943643 0 19059
0.13250000 0.13249300 12237.02201179 0 307.52284676 0 3271.91737413 0 -278.91089439 0 -280.62396956 0 18957
0.13350000 0.13349100 12119.89443117 0 196.40901429 0 2938.89061492 0 -68.68936849 0 -111.60414966 0 19468
0.13450000 0.13450700 12101.90939000 0 18.79717818 0 3597.17684368 0 236.90345855 0 -208.91985855 0 19953
0.13550000 0.13551000 11933.52444205 0 47.74623767 0 2876.28019035 0 84.32331515 0 -724.89270467 0 19956
0.13650000 0.13649900 12135.96856171 0 41.17686416 0 3215.12960663 0 224.71971722 0 70.11625669 0 19723
0.13750000 0.13749600 11961.51366237 0 106.02035641 0 3291.62223486 0 -32.81123467 0 -516.67763492 0 20946
0.13850000 0.13851100 12102.92104857 0 192.65913320 0 3287.74421036 0 -194.00801129 0 429.57608053 0 20955
0.13950000 0.13949800 11996.35967964 0 90.50904525 0 3509.30867691 0 -101.02636010 0 -82.65261723 0 20506
0.14050000 0.14048300 11995.34802107 0 90.04919023 0 3538.41072166 0 -260.08168035 0 530.14730669 0 21447
0.14150000 0.14148400 12021.31392426 0 46.89026212 0 3619.17479716 0 223.02687522 0 540.59998780 0 21771
0.14250000 0.14249400 11841.12629304 0 38.01093489 0 3557.18260838 0 150.96081525 0 458.97263032 0 22470
0.14350000 0.14350900 11903.51190460 0 117.61317673 0 3777.69045377 0 378.77395955 0 742.83615543 0 22519
0.14450000 0.14449900 11891.37200181 0 32.82742121 0 3381.40131225 0 495.44629381 0 702.84529232 0 22218
0.14550000 0.14550500 11746.92963991 0 169.86534165 0 3657.50541615 0 389.12435075 0 1007.26571948 0 23559
0.14650000 0.14650700 11558.19911414 0 274.33370142 0 3599.87459985 0 -300.60535030 0 451.23344229 0 23044
0.14750000 0.14750500 11295.50510656 0 335.90548986 0 3754.26493764 0 -146.14532048 0 1136.72204582 0 23649
0.14850000 0.14849900 11027.12332971 0 328.37312980 0 3840.30087834 0 -330.63250060 0 1175.05266481 0 23640
0.14950000 0.14949500 10797.16209705 0 173.70852014 0 3483.08423876 0 187.33443695 0 905.23096060 0 24457
0.15050000 0.15050000 10739.36267099 0 24.25395208 0 3413.51585138 0 644.96718171 0 515.74915716 0 24591
0.15150000 0.15149900 10691.80347775 0 40.63247945 0 2831.22766222 0 576.34525713 0 621.56976721 0 25020
0.15250000 0.15250500 10604.29501181 0 83.44991659 0 2681.68204489 0 350.60601289 0 504.68161245 0 25297
0.15350000 0.15350100 10533.22037724 0 222.16246918 0 2650.79273668 0 -304.42829562 0 655.77506739 0 25452
0.15450000 0.15450400 10419.09405036 0 342.75441835 0 3050.19553846 0 -96.88822694 0 935.68637969 0 26061
0.15550000 0.15549900 10075.97318680 0 259.59720831 0 3287.06977131 0 -422.22244682 0 830.18275600 0 26128
0.15650000 0.15649500 10002.38064647 0 219.31633641 0 3822.27087457 0 -113.45863222 0 1053.58057269 0 26331
0.15750000 0.15749700 9906.32928597 0 126.59108447 0 3700.98425318 0 -6.99910358 0 660.75804785 0 27345
0.15850000 0.15849900 9771.01433247 0 129.25624276 0 4038.84449220 0 -18.48536253 0 614.86359499 0 26980
0.15950000 0.15949700 9649.89632084 0 167.07091588 0 3545.55977552 0 47.17746074 0 485.37242263 0 27777
0.16050000 0.16050000 9523.00061474 0 122.86930501 0 3751.65710667 0 257.21981068 0 614.10597513 0 28224
0.16150000 0.16150500 9408.93049112 0 49.69176950 0 3324.09647482 0 349.81916733 0 760.68630879 0 28075
0.16250000 0.16249700 9303.87536939 0 84.56959781 0 3179.74403813 0 469.06336248 0 852.48420705 0 28590
0.16350000 0.16349900 9330.71804334 0 111.07640111 0 3359.17854575 0 324.65472254 0 1004.47241778 0 29163
0.16450000 0.16449100 9095.54114874 0 163.38847870 0 3102.71185867 0 118.25839008 0 905.10618938 0 28996
0.16550000 0.16550500 9009.57265195 0 148.12142688 0 3114.59322650 0 194.52845342 0 1483.96822820 0 30777
0.16650000 0.16650700 8781.45488602 0 165.05097094 0 2843.62609997 0 -143.22162722 0 782.42572730 0 29211
0.16750000 0.16749900 8792.70677740 0 72.82952496 0 2924.23280637 0 141.90085076 0 939.77910062 0 30922
0.16850000 0.16850800 8693.21577778 0 148.32713079 0 2753.41987786 0 -148.24057778 0 370.93135754 0 30867
0.16950000 0.16949900 8562.88043255 0 70.43785171 0 2606.12239068 0 8.66540641 0 359.42655151 0 30852
0.17050000 0.17049200 8423.26030982 0 121.69802920 0 2517.59102552 0 -26.16598677 0 -145.14040630 0 31257
0.17150000 0.17149500 8440.03136071 0 70.99505076 0 2591.49830408 0 45.09175800 0 5.53716703 0 32608
0.17250000 0.17250900 8366.61867079 0 39.22874699 0 2623.75897168 0 188.62823585 0 79.85189670 0 32361
0.17350000 0.17350400 8536.11644316 0 -32.30282004 0 2721.78868670 0 210.07539745 0 494.30311964 0 32508
0.17450000 0.17449800 8542.44492952 0 -61.08484345 0 2587.05824704 0 203.69745222 0 400.96974849 0 32791
0.17550000 0.17549800 8723.53181280 0 -108.77060642 0 2655.87351081 0 347.96333590 0 468.02585042 0 33633
0.17650000 0.17650100 8709.67209045 0 -24.91265422 0 2275.23135511 0 128.70882307 0 649.20490703 0 33984
0.17750000 0.17750300 8808.09522825 0 42.67501809 0 2162.15040876 0 275.83994861 0 584.20134792 0 34069
0.17850000 0.17849800 8688.22492885 0 77.73134793 0 1867.34186204 0 111.08899064 0 436.83641684 0 34536
