### header ###
fiducial parameters:
Omega_m = 0.31
Omega_nu = 0
Omega_de = 0.69
Omega_k = 0
H_0 = 100
w_de = -1
zeff = 0
beta = 0
fgrowth = 0
b_1 = 2
gamma = 0.55
Lx = 3500 Ly = 3500 Lz = 3500
nx = 700 ny = 700 nz = 700
xoffset = 857.220397 yoffset = 15.9954215 zoffset = 262.898189
bins = 400 dk = 0.001
kx_ny = 0.628318531 ky_ny = 0.628318531 kz_ny = 0.628318531
############################
A(data) = 3.14454276 (not used)
A(ran) = 3.13747661 (used)
Ngal = 191070
weighted Ngal = 0
Nran = 9360983
weighted Nran = 0
SN(data) = 3469.34486
SN(ran) = 70.4559335
SN(data+ran) = 3539.80079
############################
13 columns: k_central k_mean P_0(k) sigma^{lin}_{P_0(k)} P^img_1(k) sigma^{lin}_{P_1(k)} P_2(k) sigma^{lin}_{P_2(k)} P^img_3(k) sigma^{lin}_{P_3(k)} P_4(k) sigma^{lin}_{P_4(k)} N_modes
### header ###
0.00050000 0 0 0 0 0 0 0 0 0 0 0 0
0.00150000 0.00179520 10356.19136887 0 -6005.26144978 0 -9713.92306741 0 23382.91405712 0 23218.01371089 0 3
0.00250000 0.00253879 17522.82561153 0 -9696.79231569 0 1384.99429852 0 -9378.73810326 0 -16977.42923806 0 6
0.00350000 0.00331552 26092.69772884 0 -11080.57262393 0 -8553.26967618 0 -10615.18720237 0 7880.76402424 0 7
0.00450000 0.00420575 37742.39573993 0 -12221.62232028 0 -6525.11906479 0 -9876.20434201 0 -1707.11762652 0 24
0.00550000 0.00557378 47196.34503723 0 -4631.78881826 0 -13702.35324108 0 -20951.11167797 0 2439.55842815 0 45
0.00650000 0.00659388 59898.61758277 0 -5196.20437276 0 5378.55020892 0 -26250.96609113 0 -15498.27200837 0 40
0.00750000 0.00754703 51223.64538113 0 578.58214662 0 -7089.44469408 0 -19178.57346420 0 -1070.44379692 0 57
0.00850000 0.00846663 55708.55261628 0 -682.60537662 0 -10717.51084597 0 -4216.49173635 0 -7089.47841604 0 75
0.00950000 0.00948925 53654.32369520 0 -2700.62254137 0 -11570.33901693 0 3500.68709780 0 -9013.52936101 0 112
0.01050000 0.01054430 63581.16716875 0 -3594.72638182 0 -738.83223564 0 -3052.14017103 0 -17204.15316330 0 105
0.01150000 0.01145670 63766.52549930 0 265.59971580 0 622.77026871 0 -312.24167194 0 -3527.95691648 0 144
0.01250000 0.01249090 62998.56424136 0 1878.70615992 0 8098.76520452 0 -4747.37642973 0 -3472.82152464 0 169
0.01350000 0.01339930 66025.78388972 0 758.53260011 0 17534.06626226 0 -5812.61917755 0 -9984.18203293 0 180
0.01450000 0.01448870 68049.66305384 0 -1648.22785734 0 32504.25249929 0 -16203.17321571 0 -98.07737538 0 267
0.01550000 0.01550050 67900.38721213 0 985.98941578 0 27875.80215429 0 4593.81790009 0 -25160.51056371 0 238
0.01650000 0.01653350 70383.10973909 0 -415.96477656 0 41989.90043165 0 -17945.02445298 0 -12513.65442628 0 315
0.01750000 0.01747870 70854.43022424 0 1058.91201333 0 38197.52968802 0 -8185.73411923 0 -25117.68368443 0 297
0.01850000 0.01844180 67304.63272339 0 235.43430550 0 37972.26704738 0 4507.51218378 0 -14783.59143489 0 388
0.01950000 0.01947590 70343.65505502 0 -769.67770531 0 33337.74675099 0 2363.23440968 0 -31905.01340882 0 399
0.02050000 0.02045430 68755.91313927 0 1092.09216616 0 30015.12280141 0 14408.94054603 0 -21374.09736498 0 462
0.02150000 0.02154770 68018.18923179 0 3461.25489504 0 29432.51987403 0 6887.75369802 0 -9542.17716489 0 571
0.02250000 0.02255340 60237.41079580 0 4432.59324666 0 20525.31582828 0 6305.38682430 0 5131.89660993 0 510
0.02350000 0.02348930 59756.64816404 0 2814.90623736 0 29542.34103167 0 7889.25071555 0 23745.08782367 0 555
0.02450000 0.02439640 59629.62881078 0 3068.28174548 0 23457.66438448 0 6397.35782858 0 25447.70918989 0 592
0.02550000 0.02547300 63147.50286355 0 -3800.09307067 0 40716.55951684 0 9633.41752687 0 35634.54891485 0 837
0.02650000 0.02652900 64467.82969841 0 -217.68756612 0 45917.15898404 0 -5238.10951869 0 33072.24258072 0 723
0.02750000 0.02749970 68325.95824881 0 2061.98497009 0 49274.51654437 0 -5431.39250801 0 24071.96594692 0 826
0.02850000 0.02848090 66381.32567235 0 2868.13071857 0 60757.74051814 0 -2348.23938161 0 33071.90536120 0 831
0.02950000 0.02946900 67501.68133070 0 4839.75209743 0 58078.86863593 0 5178.54531047 0 30303.67030568 0 996
0.03050000 0.03053250 63954.58158603 0 1901.55840286 0 54025.15276281 0 10590.13179189 0 17103.09971323 0 1041
0.03150000 0.03150510 61484.44858790 0 1081.48211593 0 46848.10967758 0 14169.17746594 0 5434.79842518 0 1036
0.03250000 0.03246190 60917.47016503 0 1132.91146522 0 40654.06149878 0 9912.09573979 0 1418.23290273 0 1059
0.03350000 0.03345080 58781.07208709 0 181.42185467 0 28525.39936004 0 11030.12458345 0 -6042.87266712 0 1302
0.03450000 0.03451200 55849.06075042 0 156.16973280 0 22019.87274948 0 5226.59909234 0 -12108.42896742 0 1339
0.03550000 0.03553350 54308.75438075 0 1462.40866010 0 17204.71519584 0 1333.55708077 0 -15147.00167303 0 1365
0.03650000 0.03647120 54042.01373891 0 2273.09563147 0 18533.69733177 0 -2005.62434733 0 -18385.20833561 0 1308
0.03750000 0.03744890 50522.34118202 0 2844.10944796 0 17745.16568299 0 -1901.19870204 0 -15222.08921991 0 1579
0.03850000 0.03847530 51227.35479587 0 1562.78767113 0 22766.92639706 0 -2828.14772392 0 -6306.73570238 0 1662
0.03950000 0.03950240 49433.34693920 0 -954.46388674 0 20374.57870198 0 2239.58725164 0 -6013.36595896 0 1683
0.04050000 0.04050350 52025.21618475 0 -587.15201874 0 23402.13556987 0 6993.80923766 0 -1855.70778853 0 1822
0.04150000 0.04152450 51903.25512432 0 -344.40117368 0 15907.31928847 0 5819.18371758 0 1616.95636700 0 1887
0.04250000 0.04250150 50894.06950169 0 1310.31141506 0 16076.71589499 0 9366.64316307 0 2539.83627332 0 1920
0.04350000 0.04349210 48218.34500169 0 2013.09938006 0 9475.00303612 0 5018.57960991 0 3105.30844899 0 2005
0.04450000 0.04448520 47494.33468811 0 2323.68980041 0 6103.96560385 0 2948.55757455 0 -150.70452842 0 2151
0.04550000 0.04548030 44899.88009289 0 1029.12541296 0 5180.36629588 0 1971.74502602 0 3703.09749552 0 2274
0.04650000 0.04648670 44335.48701968 0 -146.65901822 0 2203.76329776 0 -705.74200802 0 723.86868138 0 2311
0.04750000 0.04749250 44220.38275620 0 34.96022228 0 1880.13372257 0 -413.03096672 0 128.79200388 0 2568
0.04850000 0.04851840 43917.33481249 0 452.46092135 0 4061.29207171 0 -151.02039070 0 -1842.90468735 0 2493
0.04950000 0.04949480 43363.62035748 0 2511.90325625 0 1065.30681953 0 -1220.27380271 0 2993.62134333 0 2644
0.05050000 0.05050630 41152.02232616 0 2500.32538600 0 6259.79474493 0 -653.35945154 0 4584.06101526 0 2829
0.05150000 0.05149060 37748.01606529 0 2669.55338275 0 6152.33412394 0 -843.69851444 0 3487.59173970 0 2784
0.05250000 0.05249300 37577.38298720 0 1436.67881058 0 8658.69573938 0 1386.71411808 0 9702.91847034 0 3055
0.05350000 0.05348950 35146.70467313 0 699.21456214 0 9308.00068821 0 500.85079869 0 6068.40018493 0 3009
0.05450000 0.05448610 37327.39091494 0 -439.15536308 0 9289.73463077 0 1705.25167849 0 12185.31501842 0 3336
0.05550000 0.05550870 36355.63665924 0 -465.14824383 0 9355.80717577 0 1386.80404329 0 8643.10495682 0 3349
0.05650000 0.05647670 37961.70083569 0 -311.34579208 0 11479.62696553 0 -181.65341207 0 11467.48706274 0 3324
0.05750000 0.05747970 37028.05238597 0 884.13675544 0 10741.83561415 0 -575.87539792 0 9461.61542110 0 3639
0.05850000 0.05849280 36934.86739141 0 918.43085676 0 14830.12772892 0 -526.73464512 0 11935.66016569 0 3846
0.05950000 0.05951020 35510.45213078 0 1632.67079672 0 16210.36723218 0 -1257.79509485 0 14882.05953530 0 3787
0.06050000 0.06049470 35080.04761429 0 717.40081095 0 16061.31620348 0 1395.67291671 0 9860.72596595 0 3930
0.06150000 0.06148310 34190.01288941 0 964.46469370 0 17898.71297197 0 539.13757914 0 10716.34181829 0 4083
0.06250000 0.06249100 33142.04702176 0 818.24068866 0 15394.18358260 0 455.22274924 0 6048.57167704 0 4303
0.06350000 0.06350600 32823.37457354 0 514.92858966 0 15960.59997293 0 691.51471638 0 7179.33617798 0 4470
0.06450000 0.06451750 32655.88887765 0 -512.73666277 0 13362.77318249 0 358.63408564 0 3703.98550692 0 4479
0.06550000 0.06550280 32541.45905320 0 -221.38011989 0 11808.75321894 0 1894.35314574 0 145.07745866 0 4636
0.06650000 0.06648880 32994.12005814 0 -60.63881443 0 10102.34375342 0 1662.85194394 0 334.98038430 0 4653
0.06750000 0.06749660 31805.64605635 0 520.56914820 0 9284.91239161 0 1545.16233078 0 -2042.38127522 0 5220
0.06850000 0.06852730 31442.68544425 0 888.11819393 0 9157.44341232 0 1163.10385309 0 351.60530674 0 5029
0.06950000 0.06949320 30507.01367740 0 877.24848467 0 7953.72708814 0 -668.26230628 0 -1779.28260421 0 5040
0.07050000 0.07048030 30586.82229759 0 295.30088722 0 9292.25253653 0 -1097.37752013 0 248.12949643 0 5475
0.07150000 0.07148790 30359.31152680 0 338.14462748 0 9758.45852560 0 -1541.79013556 0 -1723.37160747 0 5509
0.07250000 0.07249820 30137.30867486 0 190.09963703 0 10393.30799759 0 -1410.11715290 0 1248.31922628 0 5916
0.07350000 0.07351270 30153.94483794 0 326.85339383 0 10966.97460764 0 462.05144456 0 -941.49442393 0 5721
0.07450000 0.07449140 30023.66569597 0 825.35714464 0 10605.00317280 0 1085.22075637 0 -1999.80169025 0 6028
0.07550000 0.07549160 29061.01636737 0 907.32846603 0 10270.42520380 0 1843.74773615 0 -1869.88224910 0 6183
0.07650000 0.07648840 28313.51309376 0 1265.60734710 0 10542.96602142 0 1450.71838334 0 -1859.22611221 0 6330
0.07750000 0.07749960 27133.24476700 0 902.27242133 0 10119.20472951 0 849.02883101 0 -849.01084597 0 6583
0.07850000 0.07848650 26974.52677868 0 455.00130842 0 9933.52042009 0 122.91089542 0 116.09906108 0 6549
0.07950000 0.07947320 26372.92715156 0 341.29088562 0 9760.60548989 0 249.48849110 0 296.66775035 0 6828
0.08050000 0.08048110 26202.06926045 0 215.85871225 0 10166.51662844 0 -290.46965554 0 267.51624675 0 7147
0.08150000 0.08149960 25933.30530147 0 555.88952093 0 10708.49584408 0 59.57454962 0 -544.42180905 0 7386
0.08250000 0.08250610 25634.30399203 0 868.15817043 0 10466.79937207 0 105.67032255 0 -487.78803847 0 7227
0.08350000 0.08350160 24477.52862530 0 937.61190316 0 10484.32354656 0 1088.69636557 0 -729.92401993 0 7798
0.08450000 0.08449610 23657.18593495 0 657.87369688 0 8856.53119225 0 1687.40152513 0 175.71385223 0 7371
0.08550000 0.08548940 23625.26248688 0 267.27344869 0 8980.86402998 0 1889.85688545 0 239.91370481 0 8256
0.08650000 0.08650700 22859.88657860 0 294.31395809 0 8054.19602437 0 1445.52520270 0 1522.28760655 0 8037
0.08750000 0.08749060 23060.86941367 0 481.75967748 0 8364.69651951 0 265.33106424 0 1880.88684617 0 8155
0.08850000 0.08849210 22679.36172786 0 695.77042675 0 9855.80256093 0 -382.07309054 0 3904.17025579 0 8718
0.08950000 0.08949900 22213.32434856 0 758.46515620 0 10621.92035215 0 -981.13457873 0 4664.16189237 0 8571
0.09050000 0.09049190 21739.98054627 0 402.65134983 0 10933.94957580 0 -559.48090883 0 4938.81595233 0 8932
0.09150000 0.09150830 21878.12814376 0 225.39415626 0 12374.83238975 0 112.10784322 0 4497.54172658 0 9285
0.09250000 0.09250820 21264.83823987 0 74.38534343 0 11278.41931745 0 405.35922260 0 4229.42972534 0 9204
0.09350000 0.09350330 21267.98562208 0 135.68139871 0 10936.45624091 0 1453.48358342 0 3457.52299900 0 9349
0.09450000 0.09448040 21341.04985183 0 59.30893305 0 9414.10119046 0 971.60138284 0 1364.01924425 0 9564
0.09550000 0.09549270 20467.42647702 0 83.80467152 0 8518.94072885 0 1444.01895551 0 571.80291016 0 10155
0.09650000 0.09649430 20391.10245855 0 137.21574754 0 7009.56862999 0 744.75830670 0 -1373.64124128 0 9913
0.09750000 0.09749140 19700.70169066 0 107.09945888 0 5370.62555016 0 1073.02577439 0 -1708.26417289 0 10476
0.09850000 0.09850240 19609.20279371 0 300.75260283 0 4350.48029307 0 858.35407486 0 -2934.92266521 0 10575
0.09950000 0.09950330 19052.79058252 0 702.38105345 0 4499.52008111 0 291.58472809 0 -2032.74803754 0 10882
0.10050000 0.10051200 18436.46570294 0 715.21225626 0 3977.74031483 0 3.02617427 0 -2318.51910108 0 10875
0.10150000 0.10150300 18047.42678114 0 657.60167313 0 3697.94927748 0 -308.50303151 0 -1098.45774667 0 11118
0.10250000 0.10250800 17611.40193929 0 422.51695187 0 5495.58786433 0 -122.69395086 0 -361.76573093 0 11575
0.10350000 0.10349800 17642.42613531 0 151.33175673 0 4929.08154879 0 -109.79181954 0 -482.46446629 0 11364
0.10450000 0.10450100 17682.21803889 0 -231.43038571 0 5814.00177759 0 205.81631488 0 176.32871582 0 12093
0.10550000 0.10551000 17995.04534874 0 46.46727643 0 5969.13399833 0 -309.22130909 0 93.96947957 0 12067
0.10650000 0.10649700 17922.31833851 0 151.14741005 0 5906.82707133 0 -48.31478978 0 384.18296068 0 12054
0.10750000 0.10749900 17653.77919254 0 265.19505237 0 5162.80839944 0 -190.84376811 0 -473.68439400 0 12807
0.10850000 0.10850100 17461.90128457 0 220.43702929 0 5468.85759690 0 58.88403645 0 -494.15024679 0 12736
0.10950000 0.10950300 17337.24246796 0 293.34051774 0 4803.79325575 0 459.98653702 0 -2032.84920340 0 12933
0.11050000 0.11050200 16941.57156223 0 415.23188613 0 5134.89786368 0 417.12705985 0 -1484.97988677 0 13428
0.11150000 0.11150900 16491.60831347 0 384.40777370 0 4455.90635627 0 464.05565258 0 -1335.53543530 0 13453
0.11250000 0.11250000 16214.18905343 0 203.08146456 0 5249.04667185 0 679.77273263 0 -1354.70074480 0 13668
0.11350000 0.11349100 16167.65275940 0 179.71552389 0 4646.62647722 0 1162.00226932 0 -313.54558743 0 13791
0.11450000 0.11448600 15647.77266309 0 314.88547299 0 4898.28216579 0 884.38967008 0 -399.30275998 0 14205
0.11550000 0.11549300 15570.43698606 0 461.77492455 0 4078.15304781 0 336.06285897 0 -120.13333062 0 14776
0.11650000 0.11649800 14967.15126133 0 477.76362615 0 4500.95888440 0 539.36351622 0 502.73473175 0 14553
0.11750000 0.11747300 14358.58243075 0 531.96716804 0 3876.50701434 0 -35.41535623 0 404.39365070 0 14568
0.11850000 0.11849100 14098.58617935 0 234.74300548 0 4114.77508789 0 -46.98018732 0 -143.38574072 0 16015
0.11950000 0.11950300 14030.69264893 0 -53.41377377 0 3630.88755522 0 -54.02369148 0 -566.24890464 0 15270
0.12050000 0.12050700 13990.67593233 0 -65.37865963 0 3455.10625909 0 -201.03566613 0 -411.92825888 0 15999
0.12150000 0.12150000 14226.39237816 0 -158.69887922 0 3466.32442852 0 -352.23590724 0 -655.76045454 0 15670
0.12250000 0.12250700 14361.39259344 0 -60.05643632 0 3628.07739254 0 -315.20470747 0 -226.02250864 0 16887
0.12350000 0.12352200 14626.55954418 0 105.47192506 0 3744.42936825 0 -420.54871393 0 -932.25685716 0 16407
0.12450000 0.12449800 14525.95572014 0 65.58987145 0 4035.44981568 0 -430.88449228 0 -892.37840056 0 16306
0.12550000 0.12549900 14433.78238414 0 176.96156446 0 4142.05614721 0 -180.11681512 0 -1228.17598017 0 17523
0.12650000 0.12650100 14546.07648495 0 124.65656848 0 4212.97341267 0 144.47945604 0 -964.77156346 0 17154
0.12750000 0.12750600 14197.50390578 0 133.94809037 0 3866.01948721 0 772.59465417 0 -1102.78539720 0 18007
0.12850000 0.12850300 14004.95155876 0 69.90695577 0 2983.48227637 0 1274.75723680 0 -824.49273860 0 17496
0.12950000 0.12949900 13935.37193073 0 56.79451188 0 2294.65519957 0 1293.14694139 0 -887.30324675 0 18405
0.13050000 0.13049000 13456.40780308 0 206.06360920 0 1367.71741834 0 974.37894764 0 -1080.91446307 0 18100
0.13150000 0.13148800 13252.05277279 0 234.14387879 0 1574.21941292 0 463.66560200 0 -50.24548395 0 19059
0.13250000 0.13249300 13115.92849244 0 279.07838009 0 1205.82956652 0 2.60774104 0 0.31579597 0 18957
0.13350000 0.13349100 13127.28154968 0 241.50875315 0 1644.41727674 0 -123.66514308 0 507.80314116 0 19468
0.13450000 0.13450700 12900.89484396 0 212.34151263 0 2067.23435398 0 -494.59762468 0 634.81125377 0 19953
0.13550000 0.13551000 12895.04970558 0 228.44936513 0 2701.62295929 0 -532.54493749 0 994.67619066 0 19956
0.13650000 0.13649900 12899.77077889 0 224.65339738 0 3178.11414378 0 -632.75196656 0 937.07235193 0 19723
0.13750000 0.13749600 12707.21843186 0 113.87903256 0 3639.40796847 0 -266.29888427 0 749.60752343 0 20946
0.13850000 0.13851100 12815.35349190 0 87.92155986 0 3313.69887289 0 -178.51277426 0 405.09731543 0 20955
0.13950000 0.13949800 12771.06532802 0 90.99329248 0 3808.34370831 0 -304.08995203 0 270.43881594 0 20506
0.14050000 0.14048300 12625.94852708 0 308.97064258 0 3441.10040828 0 -209.98322411 0 -267.60954415 0 21447
0.14150000 0.14148400 12253.77058138 0 357.76518334 0 3560.49860034 0 -100.87517335 0 -935.62905237 0 21771
0.14250000 0.14249400 12023.78686742 0 324.03423862 0 3306.41493122 0 61.53132210 0 -814.23339668 0 22470
0.14350000 0.14350900 11689.04028865 0 278.19261681 0 3373.29680307 0 537.45934999 0 -835.61761063 0 22519
0.14450000 0.14449900 11583.49057829 0 81.80473495 0 2900.58247723 0 926.10484901 0 -476.40912774 0 22218
0.14550000 0.14550500 11411.84584162 0 -60.46829376 0 2400.63205467 0 1211.35996668 0 51.97530770 0 23559
0.14650000 0.14650700 11431.29216739 0 40.01761585 0 1797.71727141 0 1040.70440728 0 97.93090971 0 23044
0.14750000 0.14750500 11330.91315636 0 -20.27914558 0 1874.87309802 0 701.89545733 0 482.15197619 0 23649
0.14850000 0.14849900 11184.35755213 0 236.45832878 0 1632.72699998 0 102.69121288 0 427.52578584 0 23640
0.14950000 0.14949500 10974.95546966 0 250.61705244 0 1434.44192108 0 -267.56008528 0 807.95436918 0 24457
0.15050000 0.15050000 10781.06548520 0 311.89770803 0 2142.01840330 0 -671.27030442 0 568.35877478 0 24591
0.15150000 0.15149900 10699.41339829 0 214.74813596 0 2260.16888313 0 -679.17922627 0 800.22304960 0 25020
0.15250000 0.15250500 10531.34318856 0 223.99919151 0 2831.99202647 0 -701.77181018 0 182.11989908 0 25297
0.15350000 0.15350100 10596.83121972 0 123.08624957 0 3015.21463338 0 -608.86895595 0 454.86979281 0 25452
0.15450000 0.15450400 10521.23784356 0 87.50082230 0 3535.25209880 0 -103.83281337 0 425.49684838 0 26061
0.15550000 0.15549900 10619.76214721 0 74.91477808 0 3430.91637872 0 137.83960365 0 560.05305796 0 26128
0.15650000 0.15649500 10500.33023320 0 36.21119430 0 3605.28135286 0 335.80319994 0 500.81820080 0 26331
0.15750000 0.15749700 10392.55487399 0 243.24206149 0 3600.35794783 0 243.59389386 0 198.74257338 0 27345
0.15850000 0.15849900 10168.75351793 0 288.02931027 0 3465.54882362 0 123.89220423 0 718.03927991 0 26980
0.15950000 0.15949700 9883.61193084 0 338.43800847 0 3651.34553955 0 117.44119477 0 461.15219250 0 27777
0.16050000 0.16050000 9459.54714136 0 194.49360740 0 3015.81038787 0 249.54581842 0 555.95134450 0 28224
0.16150000 0.16150500 9380.22186916 0 77.77676016 0 2850.88756035 0 457.30451775 0 521.34587716 0 28075
0.16250000 0.16249700 9358.79718886 0 -14.46031032 0 2375.10453686 0 489.65735869 0 264.85333659 0 28590
0.16350000 0.16349900 9291.89283571 0 6.08025907 0 2354.09576064 0 463.26093858 0 555.22969473 0 29163
0.16450000 0.16449100 9256.99061519 0 81.65793205 0 2233.77583521 0 41.06164749 0 679.05220692 0 28996
0.16550000 0.16550500 9190.06378074 0 120.06813485 0 2113.89429517 0 76.98260819 0 839.85983221 0 30777
0.16650000 0.16650700 9194.15537761 0 66.18247856 0 2289.96784822 0 5.26489599 0 1003.94073500 0 29211
0.16750000 0.16749900 9100.65564483 0 120.60881015 0 2263.97946373 0 -28.51101133 0 1023.69168240 0 30922
0.16850000 0.16850800 9122.40630399 0 174.23795479 0 2514.37619941 0 -93.29414128 0 980.29152992 0 30867
0.16950000 0.16949900 8976.88483963 0 234.10903277 0 2495.06476146 0 -27.68684682 0 903.63928446 0 30852
0.17050000 0.17049200 8695.38522337 0 210.80041942 0 2329.02910951 0 208.75799318 0 1165.11592957 0 31257
0.17150000 0.17149500 8559.28342432 0 157.25782779 0 2182.12504511 0 264.68135463 0 970.47057338 0 32608
0.17250000 0.17250900 8465.12049315 0 31.75899736 0 1951.75914902 0 587.68594965 0 1142.75827526 0 32361
0.17350000 0.17350400 8362.84181214 0 31.00104028 0 1894.03840752 0 293.38885253 0 794.13174097 0 32508
0.17450000 0.17449800 8401.07126528 0 45.90737962 0 1756.03693850 0 -163.84147692 0 966.32389733 0 32791
0.17550000 0.17549800 8391.02212353 0 59.74057403 0 2082.98250566 0 -475.98985146 0 594.82488693 0 33633
0.17650000 0.17650100 8337.04451872 0 94.52341884 0 2260.41617745 0 -732.93426620 0 687.38714944 0 33984
0.17750000 0.17750300 8391.37058370 0 58.52175027 0 2397.81065133 0 -384.04807288 0 279.26722302 0 34069
0.17850000 0.17849800 8326.97289566 0 49.29463731 0 2630.07621739 0 -120.19178201 0 -10.25341810 0 34536
