### header ###
fiducial parameters:
Omega_m = 0.31
Omega_nu = 0
Omega_de = 0.69
Omega_k = 0
H_0 = 100
w_de = -1
zeff = 0
beta = 0
fgrowth = 0
b_1 = 2
gamma = 0.55
Lx = 3500 Ly = 3500 Lz = 3500
nx = 700 ny = 700 nz = 700
xoffset = 857.220397 yoffset = 15.9954215 zoffset = 262.898189
bins = 400 dk = 0.001
kx_ny = 0.628318531 ky_ny = 0.628318531 kz_ny = 0.628318531
############################
A(data) = 3.08217895 (not used)
A(ran) = 3.07943157 (used)
Ngal = 188099
weighted Ngal = 0
Nran = 9360983
weighted Nran = 0
SN(data) = 3455.1633
SN(ran) = 69.1524601
SN(data+ran) = 3524.31576
############################
13 columns: k_central k_mean P_0(k) sigma^{lin}_{P_0(k)} P^img_1(k) sigma^{lin}_{P_1(k)} P_2(k) sigma^{lin}_{P_2(k)} P^img_3(k) sigma^{lin}_{P_3(k)} P_4(k) sigma^{lin}_{P_4(k)} N_modes
### header ###
0.00050000 0 0 0 0 0 0 0 0 0 0 0 0
0.00150000 0.00179520 5292.23325196 0 -9732.88604519 0 17873.08428831 0 -45741.91723914 0 -16844.56474642 0 3
0.00250000 0.00253879 16842.42902278 0 -18053.27191952 0 -21128.37674000 0 29057.30695263 0 10974.66321274 0 6
0.00350000 0.00331552 28975.25020229 0 -22012.00429396 0 -776.84586828 0 -16678.42792862 0 -5734.39548911 0 7
0.00450000 0.00420575 52840.27576926 0 -28270.46140146 0 -25790.77385020 0 7269.19393992 0 7932.45977696 0 24
0.00550000 0.00557378 83431.25710762 0 -25571.69356745 0 -15784.23416297 0 4238.29859877 0 30154.84409000 0 45
0.00650000 0.00659388 117543.48469397 0 -14730.76037646 0 -68176.00796806 0 11786.27191747 0 -8528.29295025 0 40
0.00750000 0.00754703 112883.11090091 0 -1902.91852160 0 -7958.27955169 0 -6991.51614492 0 32739.06969306 0 57
0.00850000 0.00846663 114704.09631933 0 15297.73879933 0 -6464.22845978 0 -12165.08184711 0 25323.49999931 0 75
0.00950000 0.00948925 96787.62311920 0 17732.91337369 0 37079.53456632 0 -9861.77134647 0 65017.49751916 0 112
0.01050000 0.01054430 85170.29818221 0 21065.42909591 0 36130.26161209 0 5135.42617426 0 23825.79569592 0 105
0.01150000 0.01145670 73328.16023061 0 9994.48970965 0 69667.19269403 0 15345.96119096 0 56208.08713477 0 144
0.01250000 0.01249090 70341.51933138 0 119.08907417 0 58953.84088883 0 29087.65670960 0 30563.44174407 0 169
0.01350000 0.01339930 78107.90973444 0 -5875.16215822 0 76938.65724540 0 21614.87210364 0 48698.65800742 0 180
0.01450000 0.01448870 82368.67839402 0 -5524.75735298 0 50529.31038547 0 21991.32149662 0 15243.89608233 0 267
0.01550000 0.01550050 92810.11885804 0 -4826.49937022 0 59875.57424877 0 -1284.79513790 0 -12008.83680195 0 238
0.01650000 0.01653350 93662.49740297 0 3047.92492701 0 39636.44538810 0 -12157.32579810 0 -14571.81757512 0 315
0.01750000 0.01747870 92523.25745138 0 7269.82341636 0 55228.57683007 0 -15866.06610029 0 -44246.57347240 0 297
0.01850000 0.01844180 79543.34083279 0 6934.36867660 0 43141.72991205 0 -15668.79267996 0 -34392.11978956 0 388
0.01950000 0.01947590 85377.91300121 0 3173.46051437 0 47060.33316338 0 -1698.24875309 0 -59018.02500450 0 399
0.02050000 0.02045430 81034.86277828 0 278.79061943 0 35884.99061314 0 14601.26808004 0 -63017.67334760 0 462
0.02150000 0.02154770 77351.86356627 0 -2494.80622649 0 28846.43234491 0 18380.59966881 0 -60839.01042292 0 571
0.02250000 0.02255340 75652.27717575 0 176.30848265 0 24550.48044854 0 15348.88376015 0 -56052.17930913 0 510
0.02350000 0.02348930 75591.24044228 0 2826.48410761 0 15257.38486320 0 10737.99131160 0 -36336.63995951 0 555
0.02450000 0.02439640 73842.86962758 0 5462.06824385 0 16393.47743258 0 -2170.94059763 0 -30751.72264382 0 592
0.02550000 0.02547300 69702.48833732 0 4860.87328016 0 21995.70535040 0 -2291.18183850 0 -1507.33754107 0 837
0.02650000 0.02652900 68977.57877168 0 1942.05846744 0 27683.24980727 0 6544.05956127 0 4339.30708624 0 723
0.02750000 0.02749970 65874.70954390 0 1773.30257802 0 28510.22448155 0 10122.70057189 0 18551.79477944 0 826
0.02850000 0.02848090 65736.89916594 0 1295.47375610 0 27126.83759609 0 13203.71797465 0 3256.40527612 0 831
0.02950000 0.02946900 63449.31433567 0 2634.95465980 0 26293.45575089 0 6698.65223077 0 6474.68226496 0 996
0.03050000 0.03053250 60689.84698772 0 3188.98385303 0 25582.48459216 0 1924.03970432 0 1940.30492593 0 1041
0.03150000 0.03150510 57281.11965355 0 1738.08561928 0 19683.72830805 0 -3880.38503885 0 2387.54793721 0 1036
0.03250000 0.03246190 55164.72993392 0 2314.14648794 0 25456.02727143 0 -4982.90178449 0 -2432.55550274 0 1059
0.03350000 0.03345080 57558.65132010 0 1253.41124106 0 25478.39616639 0 -4067.59807677 0 -4729.25650075 0 1302
0.03450000 0.03451200 53165.24298189 0 1087.55431546 0 28552.82654782 0 509.63536723 0 29.69667517 0 1339
0.03550000 0.03553350 55122.35268066 0 1735.00568098 0 30551.63906080 0 1845.79353458 0 2904.87640581 0 1365
0.03650000 0.03647120 53296.30896941 0 555.62648970 0 33818.17216323 0 7711.56974944 0 8509.09391881 0 1308
0.03750000 0.03744890 52980.33427737 0 540.45161121 0 32200.53011653 0 6920.26165993 0 9279.60680446 0 1579
0.03850000 0.03847530 52804.30568692 0 628.63901246 0 28341.27750106 0 8131.21696318 0 10783.24617145 0 1662
0.03950000 0.03950240 51279.51141526 0 1540.08155665 0 26923.26941135 0 3433.89515116 0 14348.12862557 0 1683
0.04050000 0.04050350 49247.53898262 0 2472.92067952 0 22125.19764682 0 2433.18497918 0 6351.23743863 0 1822
0.04150000 0.04152450 48427.87073131 0 1745.85290893 0 20479.79119282 0 1652.47682331 0 7756.77964668 0 1887
0.04250000 0.04250150 45379.06903355 0 1848.94091679 0 18242.56447783 0 2816.42372520 0 101.36054465 0 1920
0.04350000 0.04349210 44183.06379577 0 1246.46451891 0 10650.43788306 0 1901.38979310 0 50.55550110 0 2005
0.04450000 0.04448520 42096.68661359 0 1322.02417312 0 11650.93448267 0 3752.01680750 0 -6244.64234775 0 2151
0.04550000 0.04548030 40008.06130127 0 1705.43152891 0 7400.22620549 0 713.86675036 0 -3894.41337096 0 2274
0.04650000 0.04648670 38881.29847199 0 711.83444071 0 8166.41144062 0 4483.20989690 0 -2306.35671698 0 2311
0.04750000 0.04749250 36984.77588066 0 969.15541725 0 4512.36814489 0 2231.29165140 0 -3599.89708116 0 2568
0.04850000 0.04851840 37664.83524988 0 182.17497827 0 7352.43095859 0 2788.05232276 0 -536.02054669 0 2493
0.04950000 0.04949480 37001.41204374 0 1582.08786843 0 8270.89328916 0 -556.17053719 0 1183.67424393 0 2644
0.05050000 0.05050630 36332.25610572 0 1655.32070795 0 9880.27345757 0 524.52922945 0 3605.53988782 0 2829
0.05150000 0.05149060 33954.97088263 0 -50.59652948 0 7979.17592139 0 1183.16841464 0 5820.65624282 0 2784
0.05250000 0.05249300 35682.99611950 0 -174.70893805 0 11157.24510257 0 1244.42996113 0 5046.73743999 0 3055
0.05350000 0.05348950 35342.29199585 0 -872.96579674 0 9409.32391390 0 1165.39694584 0 2228.82994889 0 3009
0.05450000 0.05448610 35912.64261394 0 1181.12261621 0 9038.82082515 0 -1140.73495813 0 1876.48051108 0 3336
0.05550000 0.05550870 34516.89101267 0 914.16053354 0 9912.05077719 0 -3050.71260839 0 -459.22779309 0 3349
0.05650000 0.05647670 34049.16753575 0 1392.61545971 0 9305.73007676 0 -922.14139556 0 1461.90283082 0 3324
0.05750000 0.05747970 33013.56638391 0 308.03654450 0 9660.68734554 0 745.27650070 0 -783.98817775 0 3639
0.05850000 0.05849280 34225.08371969 0 -251.89061817 0 8460.33197593 0 2339.95502202 0 -940.38609576 0 3846
0.05950000 0.05951020 33037.95859599 0 168.24556388 0 9292.03896417 0 2183.27159148 0 913.55353840 0 3787
0.06050000 0.06049470 33821.88157797 0 1057.50131167 0 9129.20689768 0 624.04046224 0 106.21942833 0 3930
0.06150000 0.06148310 31930.19246645 0 1355.37518384 0 9932.78977779 0 -709.61216406 0 2462.17461742 0 4083
0.06250000 0.06249100 31574.53827732 0 1234.36957872 0 12083.47472280 0 -2147.06545548 0 3411.50377490 0 4303
0.06350000 0.06350600 31126.14871967 0 51.76656881 0 12002.31722452 0 227.08699826 0 4728.67198691 0 4470
0.06450000 0.06451750 32039.45159156 0 -1153.75163168 0 13119.18828115 0 844.86641805 0 3687.64160076 0 4479
0.06550000 0.06550280 32845.29384246 0 -562.53611770 0 12334.25364061 0 1300.03746029 0 2482.53143589 0 4636
0.06650000 0.06648880 33032.67549015 0 -283.10815338 0 12116.40982944 0 1998.05938939 0 996.24538551 0 4653
0.06750000 0.06749660 32895.20233171 0 427.77982454 0 9932.11533875 0 165.51858201 0 109.73269372 0 5220
0.06850000 0.06852730 32263.70257364 0 888.80499769 0 9042.64264640 0 1308.29933858 0 1275.09445632 0 5029
0.06950000 0.06949320 31567.34426086 0 332.88400294 0 7814.18564996 0 1614.34853603 0 -447.58247894 0 5040
0.07050000 0.07048030 30905.04511979 0 23.17529924 0 5467.04785213 0 2719.41690940 0 -449.89355673 0 5475
0.07150000 0.07148790 30878.96681009 0 -144.99765004 0 3992.43184533 0 2280.21096338 0 -2546.11979708 0 5509
0.07250000 0.07249820 29846.40063394 0 582.09822217 0 3657.73022917 0 912.63405317 0 -2489.51188000 0 5916
0.07350000 0.07351270 29723.87754097 0 847.23594722 0 1596.12744120 0 505.04580954 0 -1985.85204269 0 5721
0.07450000 0.07449140 28485.60745645 0 1007.08474501 0 3571.71676977 0 -970.47956590 0 195.86047053 0 6028
0.07550000 0.07549160 28357.12681859 0 846.68740347 0 2231.48274247 0 -190.19967882 0 1317.24689656 0 6183
0.07650000 0.07648840 27641.77180607 0 422.01112259 0 5371.16510139 0 394.48951334 0 2000.38620409 0 6330
0.07750000 0.07749960 27496.65500514 0 554.88123455 0 5231.37636890 0 199.18657908 0 5172.21682410 0 6583
0.07850000 0.07848650 27135.49289715 0 582.53885568 0 6842.56628208 0 354.37949934 0 4116.30381639 0 6549
0.07950000 0.07947320 26611.45376007 0 896.71841580 0 6992.05569615 0 -286.86140665 0 6091.60088804 0 6828
0.08050000 0.08048110 25973.20961156 0 964.63217939 0 6874.46724885 0 -815.68681281 0 4367.36375046 0 7147
0.08150000 0.08149960 24984.36956676 0 728.51219420 0 6876.85026681 0 -946.29193366 0 2843.74974713 0 7386
0.08250000 0.08250610 24156.38323391 0 866.95317267 0 7193.36451009 0 -474.17898263 0 1206.54896816 0 7227
0.08350000 0.08350160 24020.25895356 0 835.52431323 0 7665.03345542 0 -1251.24179547 0 -723.03687323 0 7798
0.08450000 0.08449610 23299.73324171 0 495.20349576 0 6772.88548820 0 392.06265685 0 -1853.48213968 0 7371
0.08550000 0.08548940 22738.26273769 0 396.02048997 0 6699.82125845 0 -149.53325261 0 -2630.73941578 0 8256
0.08650000 0.08650700 22738.71236372 0 -189.06999343 0 6178.46863689 0 409.79815557 0 -3029.34413135 0 8037
0.08750000 0.08749060 23012.75942854 0 98.95504539 0 7452.48399074 0 72.04515236 0 -3869.12190681 0 8155
0.08850000 0.08849210 23059.97016161 0 319.56832809 0 6878.08673839 0 -415.76694111 0 -2163.98263483 0 8718
0.08950000 0.08949900 22175.44335559 0 635.01470955 0 7765.65976076 0 -344.05271351 0 -2114.32143990 0 8571
0.09050000 0.09049190 21989.07336647 0 558.42765986 0 8373.12700756 0 524.55845514 0 -856.95798604 0 8932
0.09150000 0.09150830 21422.43216312 0 541.11143741 0 8651.37807576 0 649.72197697 0 -564.09407189 0 9285
0.09250000 0.09250820 20732.48102125 0 467.85386847 0 7883.27068936 0 1224.12934591 0 -382.48674649 0 9204
0.09350000 0.09350330 20250.36951140 0 526.10292055 0 8250.27793572 0 313.02964156 0 42.25675348 0 9349
0.09450000 0.09448040 19778.26218070 0 837.05753798 0 8077.07074861 0 147.85951972 0 -506.49248129 0 9564
0.09550000 0.09549270 18778.40629818 0 771.09627543 0 8128.84518588 0 -214.70204929 0 -273.97737279 0 10155
0.09650000 0.09649430 18360.36649749 0 510.38736677 0 7604.12036910 0 113.61824946 0 -1780.01324651 0 9913
0.09750000 0.09749140 17744.26643093 0 433.59573723 0 7510.19349160 0 345.49264087 0 -2328.34342981 0 10476
0.09850000 0.09850240 17701.88917767 0 262.34217522 0 7342.69655505 0 344.85192378 0 -2223.38947394 0 10575
0.09950000 0.09950330 17439.64479612 0 -200.07908675 0 6478.61649271 0 1098.32847919 0 -1728.72215722 0 10882
0.10050000 0.10051200 17688.40039679 0 -99.83294022 0 5884.52562028 0 1623.26237206 0 -1184.16883256 0 10875
0.10150000 0.10150300 17599.93647554 0 -352.96992173 0 5339.00559965 0 1390.53593933 0 -1074.97377916 0 11118
0.10250000 0.10250800 18086.99387172 0 -27.27723750 0 4621.84084236 0 854.14332710 0 -414.12468204 0 11575
0.10350000 0.10349800 17816.20659561 0 65.14654019 0 4171.54037408 0 -84.25159980 0 -1150.85154379 0 11364
0.10450000 0.10450100 17757.64280530 0 377.26321609 0 4364.98073251 0 -1154.38110812 0 -392.42123360 0 12093
0.10550000 0.10551000 17351.51809439 0 207.91831657 0 3835.74841479 0 -891.49263728 0 -2210.37280039 0 12067
0.10650000 0.10649700 17417.72552719 0 8.95997890 0 4730.86391380 0 -824.55568624 0 -1724.11349042 0 12054
0.10750000 0.10749900 17060.94727299 0 117.17029509 0 3777.46564075 0 -366.82964409 0 -4080.28877145 0 12807
0.10850000 0.10850100 17273.50797831 0 171.71555276 0 4653.57319938 0 205.04857844 0 -3645.25310685 0 12736
0.10950000 0.10950300 16758.68617483 0 340.58722089 0 3965.51048683 0 58.68777469 0 -4313.01520418 0 12933
0.11050000 0.11050200 16553.43189249 0 576.43293420 0 4299.68379241 0 45.57948984 0 -3840.93035478 0 13428
0.11150000 0.11150900 16020.62504784 0 633.88277602 0 4297.58179073 0 271.36392149 0 -2933.43889931 0 13453
0.11250000 0.11250000 15501.19457756 0 551.66303625 0 4906.28550911 0 328.18203874 0 -3147.19111362 0 13668
0.11350000 0.11349100 14961.75574898 0 530.23610783 0 4865.65055672 0 404.18794679 0 -1567.00291515 0 13791
0.11450000 0.11448600 14738.40401895 0 304.74190977 0 4417.41836817 0 719.78045671 0 -1884.41641050 0 14205
0.11550000 0.11549300 14425.35189610 0 211.77948010 0 4790.84402610 0 245.85888498 0 -1073.38659928 0 14776
0.11650000 0.11649800 14253.25753340 0 152.40074261 0 4117.85502619 0 504.77266173 0 -1009.89715582 0 14553
0.11750000 0.11747300 14372.07121163 0 129.37089739 0 4684.15901002 0 101.68213967 0 29.96206693 0 14568
0.11850000 0.11849100 14092.40382144 0 172.16630286 0 4493.51757362 0 -282.57309840 0 -774.68991147 0 16015
0.11950000 0.11950300 14336.32594231 0 71.90441941 0 5155.06359109 0 -65.57458417 0 145.23033151 0 15270
0.12050000 0.12050700 14192.55801946 0 72.66518665 0 5023.50301493 0 71.40499730 0 256.86010985 0 15999
0.12150000 0.12150000 14357.23355267 0 182.43126510 0 5083.83158741 0 181.07227043 0 279.03903781 0 15670
0.12250000 0.12250700 14274.16514376 0 49.90758999 0 5338.15131020 0 172.22363017 0 653.16836048 0 16887
0.12350000 0.12352200 14227.74125624 0 196.42587526 0 5507.71652647 0 434.59278295 0 723.93275309 0 16407
0.12450000 0.12449800 14117.35806607 0 226.72392524 0 5600.75539257 0 220.69556426 0 1139.74578087 0 16306
0.12550000 0.12549900 13802.95706512 0 90.45576456 0 5506.89595897 0 151.85781918 0 679.39167457 0 17523
0.12650000 0.12650100 13931.88732901 0 8.76092946 0 5318.60381857 0 446.98560038 0 1309.68193862 0 17154
0.12750000 0.12750600 13767.66142183 0 -86.23692353 0 5164.51697835 0 344.33485384 0 666.32891436 0 18007
0.12850000 0.12850300 13892.09542542 0 -101.88997930 0 4633.77841344 0 891.87481940 0 1038.55519486 0 17496
0.12950000 0.12949900 13913.90228784 0 -48.84478647 0 4431.16568401 0 829.32846654 0 1007.44444583 0 18405
0.13050000 0.13049000 13682.79450881 0 221.98711503 0 3294.11765932 0 792.07582595 0 341.53480775 0 18100
0.13150000 0.13148800 13443.48105474 0 301.71030627 0 3442.59541483 0 489.32800762 0 1215.92367087 0 19059
0.13250000 0.13249300 12969.35040691 0 448.85829279 0 2936.13665549 0 92.97951546 0 304.13154244 0 18957
0.13350000 0.13349100 12681.92696772 0 408.94611424 0 3054.24217272 0 11.54223739 0 1377.28321212 0 19468
0.13450000 0.13450700 12297.38430621 0 269.75201218 0 2804.89081755 0 77.80193922 0 1058.25331120 0 19953
0.13550000 0.13551000 12293.00045243 0 86.55492154 0 3090.53823393 0 -26.43542517 0 1400.15793635 0 19956
0.13650000 0.13649900 12353.36274685 0 170.72637550 0 3051.93783932 0 -130.55341385 0 1516.03780474 0 19723
0.13750000 0.13749600 12093.59130846 0 256.03617016 0 3181.90224307 0 174.74603220 0 1093.26681416 0 20946
0.13850000 0.13851100 12151.48065972 0 192.95588638 0 3452.73448178 0 -71.33676655 0 1674.14879792 0 20955
0.13950000 0.13949800 11762.55414443 0 205.74437472 0 2944.45473703 0 82.52098921 0 1124.54842108 0 20506
0.14050000 0.14048300 11910.48110805 0 117.36700648 0 3149.49544701 0 414.11793765 0 1652.13960379 0 21447
0.14150000 0.14148400 11390.71341825 0 172.71372255 0 3024.71298325 0 216.14984510 0 915.35653878 0 21771
0.14250000 0.14249400 11378.23629594 0 307.62064042 0 2663.16869314 0 30.69641864 0 782.34704275 0 22470
0.14350000 0.14350900 11123.73672274 0 318.72640335 0 3064.50488684 0 -3.72823159 0 1063.49595070 0 22519
0.14450000 0.14449900 10786.85442033 0 240.60500483 0 2834.46496963 0 -31.87983435 0 648.37647107 0 22218
0.14550000 0.14550500 10835.90862012 0 15.62765190 0 3161.95008802 0 -67.29193079 0 1140.20664755 0 23559
0.14650000 0.14650700 10806.88525993 0 -42.92118834 0 3140.61533294 0 -11.71657988 0 496.63330653 0 23044
0.14750000 0.14750500 10921.73098845 0 54.69947940 0 3032.28918184 0 -34.91953112 0 856.91414750 0 23649
0.14850000 0.14849900 10873.47487486 0 90.65596055 0 3020.80123680 0 -18.58866411 0 444.71611300 0 23640
0.14950000 0.14949500 10668.55781204 0 204.55286574 0 2975.00682572 0 79.12620028 0 1066.38142574 0 24457
0.15050000 0.15050000 10595.69591400 0 162.57690372 0 2936.13665549 0 409.78803898 0 541.67571808 0 24591
0.15150000 0.15149900 10418.54325848 0 81.87847362 0 2621.37595372 0 498.87694042 0 640.24948060 0 25020
0.15250000 0.15250500 10177.40881900 0 127.51956222 0 2150.29152224 0 421.37265363 0 396.98943406 0 25297
0.15350000 0.15350100 10125.48825327 0 174.26718048 0 2093.82973361 0 497.60225062 0 576.95899666 0 25452
0.15450000 0.15450400 9765.73122663 0 189.88269247 0 1582.17779364 0 278.67146853 0 847.87666431 0 26061
0.15550000 0.15549900 9745.12711384 0 152.30294895 0 1634.24448783 0 353.06883946 0 764.84085330 0 26128
0.15650000 0.15649500 9476.66665243 0 59.76271812 0 1047.85458521 0 203.14778440 0 566.95818970 0 26331
0.15750000 0.15749700 9464.32441792 0 14.51033122 0 1050.27806951 0 274.24939653 0 203.28941660 0 27345
0.15850000 0.15849900 9443.68658318 0 53.74143874 0 976.57537079 0 -123.35152893 0 181.13072181 0 26980
0.15950000 0.15949700 9284.47400623 0 59.71314685 0 1101.51745180 0 -26.51478416 0 160.82448627 0 27777
0.16050000 0.16050000 9339.11480943 0 158.63143531 0 1056.15805390 0 -335.65032709 0 101.73721886 0 28224
0.16150000 0.16150500 9285.38449894 0 157.87269139 0 1572.82557223 0 -159.05858004 0 401.04506085 0 28075
0.16250000 0.16249700 9154.65573094 0 178.02268189 0 1711.14177948 0 -247.77654000 0 222.86500985 0 28590
0.16350000 0.16349900 9163.77189868 0 109.13705164 0 2005.63558798 0 -143.43295146 0 701.92131083 0 29163
0.16450000 0.16449100 9043.58686106 0 118.37192065 0 2068.79680444 0 -66.74855773 0 648.80473987 0 28996
0.16550000 0.16550500 9099.12691633 0 120.34015860 0 2227.08764803 0 -33.23691811 0 914.77876933 0 30777
0.16650000 0.16650700 8881.78893444 0 112.73810651 0 2073.81013466 0 -91.10390048 0 402.03985844 0 29211
0.16750000 0.16749900 8907.26024900 0 127.07668058 0 2141.18659514 0 53.50594711 0 611.36325635 0 30922
0.16850000 0.16850800 8698.26282996 0 96.39094055 0 1962.75250544 0 -89.79256617 0 174.62463317 0 30867
0.16950000 0.16949900 8776.68885011 0 61.36552250 0 1930.33446873 0 128.64699949 0 229.04736775 0 30852
0.17050000 0.17049200 8549.94244356 0 22.30954432 0 1706.56683463 0 48.63818331 0 -42.49741581 0 31257
0.17150000 0.17149500 8691.06881349 0 35.31722534 0 1503.84169870 0 377.89606473 0 -113.80596833 0 32608
0.17250000 0.17250900 8522.43657122 0 61.61832474 0 1451.25793458 0 368.84734089 0 -4.14674350 0 32361
0.17350000 0.17350400 8539.08397496 0 103.54314180 0 1161.63132784 0 407.34319745 0 -178.81964402 0 32508
0.17450000 0.17449800 8248.68176332 0 103.75761342 0 1141.02721505 0 177.77763570 0 -24.66985616 0 32791
0.17550000 0.17549800 8245.83787869 0 175.91056361 0 989.94500077 0 -3.23417127 0 72.29750497 0 33633
0.17650000 0.17650100 8048.08111038 0 109.07444121 0 1153.29076500 0 104.44261867 0 235.36686159 0 33984
0.17750000 0.17750300 7972.17299599 0 121.67554790 0 946.86408278 0 -155.51440286 0 419.71016138 0 34069
0.17850000 0.17849800 7875.84061922 0 78.24257273 0 1181.93194306 0 42.70109640 0 -22.89484500 0 34536
