### header ###
fiducial parameters:
Omega_m = 0.31
Omega_nu = 0
Omega_de = 0.69
Omega_k = 0
H_0 = 100
w_de = -1
zeff = 0
beta = 0
fgrowth = 0
b_1 = 2
gamma = 0.55
Lx = 3500 Ly = 3500 Lz = 3500
nx = 700 ny = 700 nz = 700
xoffset = 857.220397 yoffset = 15.9954215 zoffset = 262.898189
bins = 400 dk = 0.001
kx_ny = 0.628318531 ky_ny = 0.628318531 kz_ny = 0.628318531
############################
A(data) = 3.05008805 (not used)
A(ran) = 3.04988661 (used)
Ngal = 185736
weighted Ngal = 0
Nran = 9360983
weighted Nran = 0
SN(data) = 3438.57067
SN(ran) = 68.4889913
SN(data+ran) = 3507.05966
############################
13 columns: k_central k_mean P_0(k) sigma^{lin}_{P_0(k)} P^img_1(k) sigma^{lin}_{P_1(k)} P_2(k) sigma^{lin}_{P_2(k)} P^img_3(k) sigma^{lin}_{P_3(k)} P_4(k) sigma^{lin}_{P_4(k)} N_modes
### header ###
0.00050000 0 0 0 0 0 0 0 0 0 0 0 0
0.00150000 0.00179520 9272.53643515 0 -4795.32904575 0 9596.25593555 0 -14011.92076221 0 13900.63831997 0 3
0.00250000 0.00253879 22027.17917245 0 -6020.33516241 0 16301.97853563 0 -19718.46191881 0 7607.90846840 0 6
0.00350000 0.00331552 26988.46518559 0 -2057.78096672 0 25889.01713759 0 -26495.67505754 0 4628.72012061 0 7
0.00450000 0.00420575 38711.22742643 0 -667.48782545 0 47192.07358995 0 -28242.02255511 0 9839.30128566 0 24
0.00550000 0.00557378 49967.05303591 0 -3901.56242482 0 76576.93310488 0 -10751.51381443 0 16801.40064761 0 45
0.00650000 0.00659388 66984.72380359 0 3348.74722187 0 72129.45723665 0 24250.13026101 0 -38798.11765658 0 40
0.00750000 0.00754703 59723.37583787 0 6534.74106181 0 72089.10330053 0 14684.56130195 0 -6685.18593119 0 57
0.00850000 0.00846663 60541.80761760 0 9499.47393276 0 59996.18643111 0 25934.99139908 0 -35134.90198986 0 75
0.00950000 0.00948925 54229.28298009 0 -373.96296104 0 49750.33328982 0 13493.95157653 0 -23950.11729300 0 112
0.01050000 0.01054430 55099.53415968 0 -1315.40342984 0 32025.51318465 0 7690.67337973 0 -37378.64828227 0 105
0.01150000 0.01145670 59379.41192550 0 -4406.41377110 0 37661.01342863 0 -7596.94883394 0 -35934.44947635 0 144
0.01250000 0.01249090 63149.07655465 0 -295.40542528 0 33275.13632642 0 -13715.84202196 0 -30915.04929894 0 169
0.01350000 0.01339930 64202.66274767 0 2854.09114580 0 41832.64372792 0 -6802.45964027 0 -15616.18643454 0 180
0.01450000 0.01448870 62498.35528383 0 -202.95894147 0 46106.78876187 0 -823.44061369 0 -3025.17384993 0 267
0.01550000 0.01550050 71464.23552639 0 1756.89122795 0 34488.90179235 0 26998.01973871 0 -12844.12955777 0 238
0.01650000 0.01653350 65596.05381228 0 -3293.13972271 0 31600.05455448 0 25999.73754729 0 4572.40446045 0 315
0.01750000 0.01747870 70447.85588730 0 -4223.46093981 0 12091.79280434 0 29937.00027883 0 4121.66560679 0 297
0.01850000 0.01844180 67462.33905315 0 -3717.27195609 0 15282.11429481 0 16295.90858424 0 6630.59009059 0 388
0.01950000 0.01947590 73986.97476995 0 -5049.06425470 0 1110.46950604 0 1044.06648591 0 -1708.12928508 0 399
0.02050000 0.02045430 75208.72109790 0 -2038.53697267 0 6448.18805118 0 -12267.37176876 0 8858.07116140 0 462
0.02150000 0.02154770 76977.21267741 0 1918.84652368 0 15229.84526891 0 -18954.54729513 0 -8060.73808310 0 571
0.02250000 0.02255340 78001.23595900 0 784.53896964 0 14155.46387204 0 -17783.04667595 0 -18381.61132738 0 510
0.02350000 0.02348930 74502.47101247 0 6141.05975126 0 28229.20821327 0 -13143.80530626 0 -24757.64564152 0 555
0.02450000 0.02439640 72479.26628740 0 6450.15516506 0 24974.92742015 0 -11658.24090565 0 -31489.22173828 0 592
0.02550000 0.02547300 66124.70161616 0 2099.53998419 0 18516.72394916 0 4999.16700610 0 -26486.45772394 0 837
0.02650000 0.02652900 65224.10067959 0 556.97873998 0 16757.78692278 0 10728.49296173 0 -34322.20294201 0 723
0.02750000 0.02749970 66477.99526863 0 -2611.18068351 0 1865.89181809 0 15584.26298646 0 -24559.92259516 0 826
0.02850000 0.02848090 65520.06701334 0 -2655.49132869 0 909.30457243 0 19087.29938027 0 -20650.42427092 0 831
0.02950000 0.02946900 62313.44657931 0 1418.35654989 0 -12414.39948032 0 9490.88607560 0 -1016.83151326 0 996
0.03050000 0.03053250 62283.99607439 0 2470.11051683 0 -14864.41171365 0 4994.90679947 0 -2823.25804085 0 1041
0.03150000 0.03150510 57258.97557161 0 5418.66809138 0 -9469.47263596 0 -6252.98291059 0 5383.97944323 0 1036
0.03250000 0.03246190 53045.97967763 0 5771.79313410 0 -10721.36638917 0 -6277.88095196 0 14088.13237417 0 1059
0.03350000 0.03345080 49096.91426282 0 4628.43910434 0 -3811.62597832 0 -7591.71069070 0 6857.21284998 0 1302
0.03450000 0.03451200 47601.12087005 0 -838.39517542 0 -4528.19498112 0 1218.81251811 0 7857.66448699 0 1339
0.03550000 0.03553350 46304.84902775 0 47.61685778 0 -2534.44076097 0 3510.50018589 0 173.46459802 0 1365
0.03650000 0.03647120 47311.89892674 0 1082.27458181 0 -3629.42627063 0 -1712.77167383 0 -2093.93089947 0 1308
0.03750000 0.03744890 46349.36200465 0 3099.67688298 0 -153.32809630 0 -1497.35584322 0 6164.60891454 0 1579
0.03850000 0.03847530 43193.43690541 0 2796.70762382 0 7703.34159311 0 -5062.39566646 0 10812.34821619 0 1662
0.03950000 0.03950240 43176.57592932 0 3257.57430379 0 15791.65299245 0 -6484.15813352 0 18161.74419908 0 1683
0.04050000 0.04050350 42198.97653524 0 1239.65268457 0 22467.81268111 0 -2213.94732733 0 18813.25231545 0 1822
0.04150000 0.04152450 44866.04573419 0 -39.19513744 0 33462.06834807 0 -3321.75841947 0 25808.08445233 0 1887
0.04250000 0.04250150 45348.38205705 0 -1849.54791193 0 29926.88369318 0 715.95975953 0 17185.26887008 0 1920
0.04350000 0.04349210 47530.30477044 0 -1698.06890268 0 36146.67296216 0 3694.32978795 0 16751.26734535 0 2005
0.04450000 0.04448520 46862.61011702 0 -47.85111294 0 26198.69706523 0 2227.96441879 0 4892.24593635 0 2151
0.04550000 0.04548030 46085.99355802 0 1638.75198877 0 29624.17296899 0 3020.04811320 0 5246.52876609 0 2274
0.04650000 0.04648670 43426.34318856 0 3026.47776541 0 22323.03309969 0 2014.33585164 0 754.95694911 0 2311
0.04750000 0.04749250 40869.88199281 0 2375.07081490 0 18257.85176283 0 1355.37518384 0 -3172.77483468 0 2568
0.04850000 0.04851840 39191.54043217 0 1227.64766959 0 18645.87902606 0 2906.41637496 0 178.87921947 0 2493
0.04950000 0.04949480 39551.91569460 0 8.47766506 0 17988.97539734 0 -302.68374662 0 -1748.11227973 0 2644
0.05050000 0.05050630 40411.15103648 0 -1323.71027073 0 21317.44448530 0 1690.54890734 0 8214.73499811 0 2829
0.05150000 0.05149060 41286.57291541 0 -1072.50308413 0 19601.10952518 0 806.56165255 0 5059.99016721 0 2784
0.05250000 0.05249300 44037.83458833 0 -1847.44591024 0 22865.73171698 0 3805.27501066 0 11973.76597167 0 3055
0.05350000 0.05348950 44188.23449511 0 46.25988642 0 19483.08269251 0 3313.64266964 0 7036.10780637 0 3009
0.05450000 0.05448610 44258.71337519 0 564.98208330 0 20139.53669519 0 5168.40624351 0 10893.52819577 0 3336
0.05550000 0.05550870 42866.33396914 0 2006.25382377 0 15861.12021397 0 2782.56688520 0 9462.11000973 0 3349
0.05650000 0.05647670 40022.33692769 0 2037.00824417 0 15210.39894315 0 2577.35756546 0 4909.60150108 0 3324
0.05750000 0.05747970 38361.19356267 0 1868.88183119 0 12304.69072919 0 2420.29195279 0 4441.22606642 0 3639
0.05850000 0.05849280 36218.50072033 0 1669.93355390 0 10989.43342780 0 1306.12989299 0 942.76349339 0 3846
0.05950000 0.05951020 35661.41407010 0 336.29216824 0 10183.87219317 0 578.80021524 0 6491.92542318 0 3787
0.06050000 0.06049470 34337.60263351 0 181.11048864 0 8240.44236633 0 2985.95521953 0 1063.12388516 0 3930
0.06150000 0.06148310 35684.45740410 0 -146.98724522 0 8164.62417715 0 1538.75515987 0 3495.35902936 0 4083
0.06250000 0.06249100 33853.24299351 0 1102.24134970 0 6471.73721446 0 643.41035158 0 1116.65636020 0 4303
0.06350000 0.06350600 33179.36598219 0 2251.54730402 0 9560.87036705 0 -325.56633932 0 2895.50170310 0 4470
0.06450000 0.06451750 31026.10692816 0 2362.07662266 0 7849.25648025 0 -1640.46056768 0 1549.84968214 0 4479
0.06550000 0.06550280 28551.47766973 0 2007.19803843 0 10284.57718307 0 -735.76128986 0 1088.01405807 0 4636
0.06650000 0.06648880 28059.24957422 0 1309.53581016 0 10151.37547190 0 -2939.41892550 0 57.36317640 0 4653
0.06750000 0.06749660 27153.25312530 0 12.80231434 0 12082.12584471 0 -170.44985549 0 -944.59571946 0 5220
0.06850000 0.06852730 27620.75178921 0 -459.92021718 0 11767.72484377 0 484.35626780 0 -102.43683696 0 5029
0.06950000 0.06949320 28163.67521951 0 -894.88056941 0 11410.72177655 0 728.98430153 0 -1350.45177882 0 5040
0.07050000 0.07048030 28930.84963190 0 -1278.41044829 0 10794.73411649 0 1834.69901231 0 -2034.01823107 0 5475
0.07150000 0.07148790 30065.14369717 0 -685.90900387 0 9046.61059611 0 3234.38484134 0 -2058.54533097 0 5509
0.07250000 0.07249820 30103.69912917 0 84.16448475 0 6955.24256501 0 1178.06515921 0 -3197.11084351 0 5916
0.07350000 0.07351270 29046.74074094 0 1480.60727364 0 7171.43400052 0 -944.90708549 0 -3908.67775674 0 5721
0.07450000 0.07449140 28376.23592484 0 1572.51083401 0 7013.42417319 0 -824.67483714 0 -3819.22465822 0 6028
0.07550000 0.07549160 26722.51138929 0 1422.07720528 0 6731.20515529 0 -1345.55085510 0 -4684.91213361 0 6183
0.07650000 0.07648840 26273.67220560 0 805.74558131 0 7330.86014983 0 -786.91299507 0 -4715.21692799 0 6330
0.07750000 0.07749960 25791.33588274 0 36.22052404 0 8469.62799409 0 -289.53330933 0 -4514.94225391 0 6583
0.07850000 0.07848650 25782.68058167 0 120.13333062 0 8984.78701709 0 -483.49186176 0 -4763.86646435 0 6549
0.07950000 0.07947320 25789.98700465 0 387.03358971 0 9627.45998198 0 1165.82409056 0 -3040.33748777 0 6828
0.08050000 0.08048110 25344.96964221 0 887.74950059 0 9237.00473819 0 1198.69175330 0 -2308.55988453 0 7147
0.08150000 0.08149960 24470.44701534 0 991.91773498 0 10149.80178080 0 550.90654046 0 -580.40987643 0 7386
0.08250000 0.08250610 23624.92526735 0 1256.68227042 0 9515.71667307 0 1155.04430651 0 -419.00649665 0 7227
0.08350000 0.08350160 22765.01548643 0 766.75288799 0 9952.74193284 0 1373.14665265 0 -162.94672113 0 7798
0.08450000 0.08449610 22053.14507564 0 616.04948364 0 8257.89909692 0 102.62938930 0 -1222.16223203 0 7371
0.08550000 0.08548940 21651.29181201 0 170.55214541 0 8189.55594048 0 728.12776395 0 -248.53753205 0 8256
0.08650000 0.08650700 21369.93832421 0 -19.34886932 0 8213.89194931 0 214.81220766 0 -638.11600509 0 8037
0.08750000 0.08749060 21785.16796221 0 -33.50500763 0 6443.32084942 0 428.11029968 0 -460.91838696 0 8155
0.08850000 0.08849210 21721.32106606 0 41.90818090 0 7787.52282643 0 730.80641102 0 -194.14627130 0 8718
0.08950000 0.08949900 21259.55513403 0 370.77623656 0 6595.35065055 0 358.79819914 0 -532.41904220 0 8571
0.09050000 0.09049190 21095.89125939 0 585.51875219 0 8562.32964067 0 -174.68083642 0 412.83537940 0 8932
0.09150000 0.09150830 20773.95902245 0 595.37905101 0 8818.42538627 0 -1387.56840754 0 438.67089104 0 9285
0.09250000 0.09250820 20352.65943305 0 667.98353814 0 9860.66976270 0 -716.49369044 0 -98.20596843 0 9204
0.09350000 0.09350330 20039.15768417 0 135.13285496 0 10124.46535405 0 613.22021185 0 1649.17207200 0 9349
0.09450000 0.09448040 19977.44651165 0 -92.78943606 0 8667.72198192 0 1353.22821955 0 276.40647741 0 9564
0.09550000 0.09549270 19970.81452772 0 -209.08622018 0 8484.60054086 0 2440.48016151 0 1170.39903541 0 10155
0.09650000 0.09649430 20155.38601273 0 -90.88718074 0 7102.20283266 0 2292.53071659 0 677.74829143 0 9913
0.09750000 0.09749140 19645.28528255 0 391.21398772 0 6568.94636199 0 1725.84455063 0 2709.76119042 0 10476
0.09850000 0.09850240 19282.43707696 0 611.52961798 0 5567.67415747 0 733.16919580 0 2100.04581347 0 10575
0.09950000 0.09950330 18682.74836046 0 609.16795726 0 5796.03921772 0 495.75878390 0 3471.40520265 0 10882
0.10050000 0.10051200 18193.33042763 0 635.60709184 0 5929.27465084 0 60.26281467 0 3092.10068438 0 10875
0.10150000 0.10150300 17502.59244021 0 531.07690850 0 5896.14845313 0 -34.67965564 0 3377.15234627 0 11118
0.10250000 0.10250800 17336.11840289 0 614.08911415 0 6274.20525917 0 224.69948405 0 3713.30400638 0 11575
0.10350000 0.10349800 16636.50030139 0 500.73164779 0 5122.44322267 0 65.64731118 0 2668.42931768 0 11364
0.10450000 0.10450100 16340.98359367 0 416.97868326 0 5666.05233267 0 609.09601710 0 2835.81384772 0 12093
0.10550000 0.10551000 16013.09381185 0 310.46340099 0 5221.34970845 0 117.02191850 0 1592.23817604 0 12067
0.10650000 0.10649700 15652.04411037 0 368.18414250 0 4949.21355425 0 271.65505435 0 2286.96659447 0 12054
0.10750000 0.10749900 15327.41411726 0 430.99914691 0 4931.19479113 0 -448.90100727 0 1382.98222204 0 12807
0.10850000 0.10850100 15017.39697010 0 408.76064351 0 4837.18922907 0 -277.24278182 0 1339.95301104 0 12736
0.10950000 0.10950300 14778.64554857 0 408.96971961 0 4858.02939552 0 -479.51491953 0 887.80120758 0 12933
0.11050000 0.11050200 14451.09298627 0 121.73287522 0 5442.43082703 0 273.51987830 0 1236.87624384 0 13428
0.11150000 0.11150900 14417.37103408 0 191.63848212 0 5315.42271442 0 175.01805595 0 960.71144042 0 13453
0.11250000 0.11250000 14318.67812066 0 1.96045941 0 5233.90551532 0 718.98686677 0 323.39576966 0 13668
0.11350000 0.11349100 14406.35519636 0 -51.83052811 0 5403.32460313 0 393.34071883 0 1146.67002172 0 13791
0.11450000 0.11448600 14398.93636688 0 -51.52107300 0 4742.01463933 0 433.44061625 0 132.03043536 0 14205
0.11550000 0.11549300 14449.74410818 0 47.58695765 0 4829.51186462 0 321.64560034 0 917.39784095 0 14776
0.11650000 0.11649800 14523.93240301 0 72.31560241 0 4499.20534289 0 362.41881274 0 123.46056324 0 14553
0.11750000 0.11747300 14239.43153300 0 206.12880497 0 3914.73646748 0 284.20074463 0 538.00564561 0 14568
0.11850000 0.11849100 14108.36554548 0 272.91175910 0 4201.66531804 0 319.22886043 0 31.55452992 0 16015
0.11950000 0.11950300 13946.83739448 0 208.54104862 0 3466.25698461 0 207.01794045 0 -65.32537894 0 15270
0.12050000 0.12050700 13685.82948450 0 28.76516244 0 3660.00084061 0 311.14458443 0 359.69070681 0 15999
0.12150000 0.12150000 13910.53009262 0 -68.10586631 0 2889.55539886 0 447.67128008 0 -278.35110999 0 15670
0.12250000 0.12250700 13779.23929208 0 -168.86267561 0 3525.56265787 0 134.35612599 0 227.84911438 0 16887
0.12350000 0.12352200 13990.45111931 0 -168.69294178 0 2666.34979730 0 261.10120737 0 -261.17876786 0 16407
0.12450000 0.12449800 14257.30416767 0 -66.88625570 0 3170.00963460 0 255.93725243 0 494.27951427 0 16306
0.12550000 0.12549900 14100.27227696 0 88.56261417 0 2296.56611020 0 24.67660055 0 -238.77615096 0 17523
0.12650000 0.12650100 14247.07517550 0 140.30243023 0 2766.00940668 0 233.53463552 0 -10.71118236 0 17154
0.12750000 0.12750600 13711.79538769 0 286.15549379 0 2132.22779651 0 20.47630659 0 -160.93127245 0 18007
0.12850000 0.12850300 13723.48566445 0 227.91093796 0 2172.08714400 0 23.96720308 0 -459.00522821 0 17496
0.12950000 0.12949900 13278.35589551 0 308.11410499 0 1844.25356543 0 -195.41421670 0 -1055.19473014 0 18405
0.13050000 0.13049000 13087.71445911 0 349.06716780 0 2582.92168757 0 -570.08309060 0 -649.61181859 0 18100
0.13150000 0.13148800 12722.05609083 0 373.98769047 0 2403.99300923 0 -257.92347541 0 -577.95829051 0 19059
0.13250000 0.13249300 12642.35987715 0 224.76917608 0 3030.29958666 0 -286.54329624 0 -854.18941376 0 18957
0.13350000 0.13349100 12401.13551246 0 209.59542166 0 3079.43247101 0 -199.60023503 0 -630.50833267 0 19468
0.13450000 0.13450700 12248.48747553 0 129.12023088 0 3449.99176301 0 44.63370148 0 -1110.37171238 0 19953
0.13550000 0.13551000 12206.78466132 0 183.40358139 0 3594.95119483 0 -199.47209161 0 -624.93634211 0 19956
0.13650000 0.13649900 11905.98484776 0 239.99913376 0 3164.06333036 0 335.11414805 0 -1024.21662079 0 19723
0.13750000 0.13749600 11978.59945148 0 188.36970088 0 3460.29943973 0 424.12661306 0 -204.08750280 0 20946
0.13850000 0.13851100 11742.54578613 0 89.25841045 0 3085.13148093 0 638.81180137 0 -308.36252337 0 20955
0.13950000 0.13949800 11705.22682570 0 101.74913395 0 2963.88982214 0 602.09421575 0 -61.51862017 0 20506
0.14050000 0.14048300 11694.66061402 0 -20.66987060 0 3056.92868825 0 235.58155802 0 602.14929494 0 21447
0.14150000 0.14148400 11664.19845053 0 73.93942682 0 3094.15772347 0 -80.56039491 0 660.16341743 0 21771
0.14250000 0.14249400 11803.91973912 0 51.74970784 0 3648.23187930 0 9.96702880 0 1345.69698356 0 22470
0.14350000 0.14350900 11518.18239754 0 74.98941600 0 3535.63428093 0 -18.20917975 0 1207.14472265 0 22519
0.14450000 0.14449900 11637.67051481 0 134.78439479 0 3705.07585004 0 228.01435195 0 1486.77839089 0 22218
0.14550000 0.14550500 11432.52863897 0 152.86385742 0 3303.57104658 0 361.89724654 0 1225.10728252 0 23559
0.14650000 0.14650700 11315.96309089 0 210.08101777 0 3466.59420414 0 128.42668273 0 865.64363686 0 23044
0.14750000 0.14750500 10932.52201315 0 267.18689568 0 3120.91047221 0 -21.91544710 0 795.24231727 0 23649
0.14850000 0.14849900 10774.83816470 0 356.37471484 0 3095.23682594 0 133.75025492 0 689.01479566 0 23640
0.14950000 0.14949500 10451.45588382 0 196.40002177 0 2894.31019412 0 67.99087445 0 433.76322293 0 24457
0.15050000 0.15050000 10437.89965904 0 -29.26672028 0 2700.00430558 0 161.87548711 0 319.27045084 0 24591
0.15150000 0.15149900 10383.24761518 0 -78.33407163 0 2453.60924156 0 384.33920573 0 -257.23442352 0 25020
0.15250000 0.15250500 10517.73076053 0 -51.50657256 0 2200.62715621 0 46.13747574 0 -494.39416891 0 25297
0.15350000 0.15350100 10423.02827812 0 149.26684919 0 1931.59342161 0 119.86355500 0 -606.73772857 0 25452
0.15450000 0.15450400 10290.28743364 0 346.65942041 0 1767.33379248 0 -10.77206172 0 -430.07741355 0 26061
0.15550000 0.15549900 9965.74736573 0 403.05826139 0 2084.17401464 0 92.32137536 0 -17.64253854 0 26128
0.15650000 0.15649500 9603.04528860 0 348.76816649 0 2009.91827591 0 178.38463084 0 143.04402494 0 26331
0.15750000 0.15749700 9487.14293891 0 110.44726189 0 1876.32314197 0 522.06190662 0 461.44894568 0 27345
0.15850000 0.15849900 9412.90968148 0 -79.44846974 0 1988.77461188 0 395.13472669 0 704.40999090 0 26980
0.15950000 0.15949700 9585.92577753 0 -68.90001828 0 1823.58200874 0 251.40277392 0 752.27942611 0 27777
0.16050000 0.16050000 9545.80789507 0 75.40970393 0 1977.21922293 0 -118.11788195 0 867.91649644 0 28224
0.16150000 0.16150500 9452.90391678 0 249.23445240 0 1845.88345979 0 -204.79229160 0 714.35459461 0 28075
0.16250000 0.16249700 9241.53472044 0 313.43880124 0 1982.69341984 0 -272.58465616 0 613.91938032 0 28590
0.16350000 0.16349900 9060.89746319 0 246.68170062 0 1874.05253052 0 3.86078134 0 719.97491997 0 29163
0.16450000 0.16449100 8794.64016932 0 200.05997765 0 1840.13948727 0 -35.23460656 0 390.85878315 0 28996
0.16550000 0.16550500 8848.13442615 0 109.99336441 0 1936.55054859 0 -18.27999584 0 367.94696477 0 30777
0.16650000 0.16650700 8644.39763165 0 132.31145162 0 2014.71803377 0 -57.22188142 0 139.87753363 0 29211
0.16750000 0.16749900 8640.89054863 0 147.28737059 0 2302.35504532 0 -185.69105382 0 562.77554356 0 30922
0.16850000 0.16850800 8496.84160951 0 110.53819875 0 2304.07486489 0 -101.81432972 0 580.97865336 0 30867
0.16950000 0.16949900 8452.53096433 0 57.84697401 0 2755.88158037 0 177.90240692 0 543.68891862 0 30852
0.17050000 0.17049200 8405.16286215 0 35.81664746 0 2427.92435464 0 324.73340710 0 289.25791339 0 31257
0.17150000 0.17149500 8442.30197216 0 34.38818556 0 2422.71993335 0 515.21072999 0 182.13563599 0 32608
0.17250000 0.17250900 8288.33877910 0 74.47740436 0 1873.32188822 0 280.16535101 0 323.91283959 0 32361
0.17350000 0.17350400 8129.11496149 0 140.08660973 0 1764.22013223 0 210.95329227 0 158.67752198 0 32508
0.17450000 0.17449800 8080.65651619 0 125.41306427 0 1507.38250368 0 8.90230312 0 174.94274359 0 32791
0.17550000 0.17549800 8089.40174246 0 48.49688833 0 1761.54485736 0 -73.90109620 0 220.97208427 0 33633
0.17650000 0.17650100 8069.69688173 0 47.43183667 0 1694.25832208 0 -188.49672024 0 319.74817850 0 33984
0.17750000 0.17750300 8059.43416761 0 67.44525326 0 1938.06803643 0 -119.25431174 0 407.80518819 0 34069
