### header ###
fiducial parameters:
Omega_m = 0.31
Omega_nu = 0
Omega_de = 0.69
Omega_k = 0
H_0 = 100
w_de = -1
zeff = 0
beta = 0
fgrowth = 0
b_1 = 2
gamma = 0.55
Lx = 3500 Ly = 3500 Lz = 3500
nx = 700 ny = 700 nz = 700
xoffset = 857.220397 yoffset = 15.9954215 zoffset = 262.898189
bins = 400 dk = 0.001
kx_ny = 0.628318531 ky_ny = 0.628318531 kz_ny = 0.628318531
############################
A(data) = 3.08228719 (not used)
A(ran) = 3.08330485 (used)
Ngal = 187789
weighted Ngal = 0
Nran = 9360983
weighted Nran = 0
SN(data) = 3439.14913
SN(ran) = 69.2394392
SN(data+ran) = 3508.38857
############################
13 columns: k_central k_mean P_0(k) sigma^{lin}_{P_0(k)} P^img_1(k) sigma^{lin}_{P_1(k)} P_2(k) sigma^{lin}_{P_2(k)} P^img_3(k) sigma^{lin}_{P_3(k)} P_4(k) sigma^{lin}_{P_4(k)} N_modes
### header ###
0.00050000 0 0 0 0 0 0 0 0 0 0 0 0
0.00150000 0.00179520 17549.69076677 0 -28154.90751194 0 -14996.82657926 0 -773.14432199 0 6628.92647429 0 3
0.00250000 0.00253879 30626.50179467 0 -27301.96693448 0 -21600.93369673 0 -11402.06647549 0 4417.48581207 0 6
0.00350000 0.00331552 46665.22429019 0 -21816.86659727 0 -30422.59639041 0 -18367.33570095 0 -23746.54910826 0 7
0.00450000 0.00420575 58187.67813500 0 -14641.95923568 0 -36618.66788635 0 -24013.73937614 0 -1778.86670013 0 24
0.00550000 0.00557378 66935.26494037 0 -5312.52262653 0 -31732.80663962 0 -35686.59312774 0 -8867.45710476 0 45
0.00650000 0.00659388 71794.71065788 0 -6368.28950579 0 -22169.71062372 0 -38749.10841939 0 -5086.32701187 0 40
0.00750000 0.00754703 76891.22169932 0 -7210.67511222 0 -12476.44787236 0 -19896.62623290 0 -30401.23915402 0 57
0.00850000 0.00846663 85626.10656935 0 -9630.87713981 0 4216.78399327 0 -36789.75059048 0 -19782.64603449 0 75
0.00950000 0.00948925 88194.25804186 0 -3259.14799490 0 5402.17805676 0 -19409.34402371 0 -22340.34370182 0 112
0.01050000 0.01054430 92976.93011489 0 -192.50176409 0 12307.38848536 0 4571.10054496 0 -18465.12936231 0 105
0.01150000 0.01145670 86054.71258173 0 3016.13636674 0 5969.40377395 0 4180.04954668 0 -16273.31487627 0 144
0.01250000 0.01249090 84464.72253583 0 4081.62640888 0 4778.18705338 0 14915.33186146 0 -24709.53565639 0 169
0.01350000 0.01339930 78178.83824055 0 3026.03938004 0 6215.87752252 0 -4915.42415816 0 -7968.99189183 0 180
0.01450000 0.01448870 73268.80959475 0 6239.12318824 0 5788.19324351 0 -9803.73586675 0 -19044.92212701 0 267
0.01550000 0.01550050 67521.68968901 0 5129.67096109 0 18799.31390854 0 -22347.87493781 0 -21637.91543764 0 238
0.01650000 0.01653350 66293.64859664 0 2365.51626178 0 28942.42750216 0 -14598.12069783 0 -5306.85733856 0 315
0.01750000 0.01747870 71209.29756781 0 851.57483840 0 41947.18595887 0 -11353.95649036 0 2606.21231588 0 297
0.01850000 0.01844180 66283.19479146 0 3211.76865206 0 46726.93546270 0 4116.39374159 0 -602.12456551 0 388
0.01950000 0.01947590 70635.57475450 0 842.04051845 0 45476.75028840 0 14335.20187723 0 6816.09454961 0 399
0.02050000 0.02045430 67194.02472020 0 3010.96566741 0 44080.66146761 0 14003.37786765 0 14683.54964339 0 462
0.02150000 0.02154770 64411.17681873 0 1721.47193750 0 26027.95158062 0 15610.56610917 0 9026.13013048 0 571
0.02250000 0.02255340 60691.19586581 0 -557.74310423 0 23292.20200572 0 15532.55599310 0 6169.81333583 0 510
0.02350000 0.02348930 62175.29898182 0 -1076.73631320 0 14145.45969289 0 -2568.67978309 0 4755.66078932 0 555
0.02450000 0.02439640 61805.36916627 0 1.70290238 0 7264.18060970 0 -6032.23901153 0 -20860.73684610 0 592
0.02550000 0.02547300 61738.71210743 0 687.67715823 0 16750.70531282 0 -13451.68672978 0 -9367.69978424 0 837
0.02650000 0.02652900 62023.66260346 0 2389.31271938 0 15408.68402204 0 -10199.13699686 0 -19902.47137128 0 723
0.02750000 0.02749970 62192.27236443 0 3819.04480781 0 31519.34668224 0 -7216.54273190 0 1129.21329113 0 826
0.02850000 0.02848090 58290.41768269 0 3420.20403857 0 28210.43632655 0 3524.04517002 0 -8670.06003727 0 831
0.02950000 0.02946900 58053.35235877 0 1829.96669835 0 35985.25721766 0 7273.22933354 0 6755.91210559 0 996
0.03050000 0.03053250 56053.64059373 0 1611.51589205 0 34414.03905848 0 5453.19937043 0 4048.66882094 0 1041
0.03150000 0.03150510 58268.83563328 0 -15.03212222 0 36859.21781199 0 5883.21046414 0 10502.96054547 0 1036
0.03250000 0.03246190 54211.63515844 0 99.48425523 0 34884.12307205 0 5550.12750168 0 14743.01268575 0 1059
0.03350000 0.03345080 58974.29887316 0 -688.60563598 0 29690.26799529 0 6530.14363566 0 12433.17136704 0 1302
0.03450000 0.03451200 54535.81552552 0 -547.87606102 0 24527.21230153 0 7938.08010232 0 3574.15599098 0 1339
0.03550000 0.03553350 56655.68984688 0 1372.82067378 0 19614.59830606 0 8541.33210510 0 3704.10915408 0 1365
0.03650000 0.03647120 53146.58350168 0 1141.87026386 0 13426.84489166 0 8864.89423639 0 4083.04273087 0 1308
0.03750000 0.03744890 50509.18962066 0 1663.85236185 0 9888.83883343 0 6105.39316649 0 7249.63520765 0 1579
0.03850000 0.03847530 49501.80250215 0 975.53111434 0 8510.94862618 0 5081.27995969 0 7932.45977696 0 1662
0.03950000 0.03950240 48362.22533105 0 2717.96686545 0 10741.68948569 0 -191.46650016 0 7629.70409017 0 1683
0.04050000 0.04050350 47697.79046634 0 1619.03588739 0 14254.94363101 0 -3499.43938557 0 8775.18260291 0 1822
0.04150000 0.04152450 45499.90602891 0 2362.71733975 0 17629.27457395 0 -8622.39967817 0 13987.64095663 0 1887
0.04250000 0.04250150 47854.82235705 0 1869.14036615 0 22189.83138853 0 -5443.91459292 0 10534.36692361 0 1920
0.04350000 0.04349210 44778.81828451 0 1394.62753619 0 27353.67392784 0 261.61490511 0 12325.26112002 0 2005
0.04450000 0.04448520 44182.61416974 0 1160.12508064 0 23607.27744571 0 -1864.84643757 0 1792.77138509 0 2151
0.04550000 0.04548030 43176.57592932 0 1388.34401244 0 23035.24073001 0 -1038.08196346 0 -2962.19248388 0 2274
0.04650000 0.04648670 41876.03263974 0 2624.45589202 0 23065.59048698 0 88.06173077 0 -6077.93225675 0 2311
0.04750000 0.04749250 38865.67396747 0 1813.97125236 0 18786.72437972 0 2211.67671588 0 -11193.95706785 0 2568
0.04850000 0.04851840 36760.97452460 0 543.18084121 0 17430.98949506 0 4766.47429532 0 -9180.80148454 0 2493
0.04950000 0.04949480 36803.57659087 0 -710.73285694 0 14616.21814551 0 5401.69470878 0 -12233.76222307 0 2644
0.05050000 0.05050630 38404.13284846 0 -1884.28152269 0 13642.32816617 0 7018.97705465 0 -6568.39557010 0 2829
0.05150000 0.05149060 39929.82637218 0 -1463.85870405 0 12741.50241659 0 3727.35481979 0 -4336.22714794 0 2784
0.05250000 0.05249300 40842.90443106 0 -0.85982885 0 14910.27356863 0 -910.90973735 0 1478.70760366 0 3055
0.05350000 0.05348950 41011.73900504 0 1073.88118791 0 17180.66020328 0 -4569.43692866 0 1652.57798917 0 3009
0.05450000 0.05448610 40668.89915774 0 2214.91402329 0 23374.48356907 0 -5339.78120455 0 8377.66823046 0 3336
0.05550000 0.05550870 40118.89411747 0 1875.87351594 0 26586.04988942 0 -2871.33430403 0 4443.50791852 0 3349
0.05650000 0.05647670 39164.00083788 0 1353.17201630 0 29373.28164467 0 -2531.03484380 0 4908.91582138 0 3324
0.05750000 0.05747970 37512.63683899 0 888.66898582 0 27763.17083397 0 3467.03258951 0 1019.23139219 0 3639
0.05850000 0.05849280 36847.75234825 0 653.08068341 0 25910.59918699 0 4489.63954912 0 673.37567830 0 3846
0.05950000 0.05951020 36349.34189484 0 411.97546962 0 22235.24361748 0 8229.17923430 0 -279.50664888 0 3787
0.06050000 0.06049470 34188.32679180 0 527.29780173 0 17025.08959716 0 6678.19424644 0 -892.24014055 0 3930
0.06150000 0.06148310 34027.47307984 0 559.28869371 0 12211.39332812 0 3979.93224172 0 -653.10428877 0 4083
0.06250000 0.06249100 32418.26152119 0 302.77367183 0 9256.85572738 0 3443.98925552 0 -634.44368449 0 4303
0.06350000 0.06350600 32725.35609916 0 454.85293183 0 8600.46916860 0 2199.80658871 0 1433.38529991 0 4470
0.06450000 0.06451750 32089.36008080 0 295.82470155 0 5279.75612965 0 1375.52967060 0 1448.33536539 0 4479
0.06550000 0.06550280 31600.39177401 0 553.55483777 0 5371.98566890 0 552.16998960 0 2842.82801377 0 4636
0.06650000 0.06648880 31036.33592033 0 540.80681577 0 6620.56343014 0 1127.42602767 0 2912.73362067 0 4653
0.06750000 0.06749660 30708.55854501 0 713.85888191 0 6321.44971419 0 1754.03610267 0 4877.17222372 0 5220
0.06850000 0.06852730 30272.87092268 0 441.39787290 0 6945.73297449 0 1008.25826894 0 6667.26833393 0 5029
0.06950000 0.06949320 29858.09091070 0 725.55140680 0 8505.71048294 0 297.71313087 0 6920.90237702 0 5040
0.07050000 0.07048030 29640.58431906 0 671.23096214 0 8139.22030650 0 878.21293251 0 9213.48929686 0 5475
0.07150000 0.07148790 28369.26672138 0 800.12975220 0 7383.33150745 0 -1183.40446831 0 4532.72496337 0 5509
0.07250000 0.07249820 28878.91782553 0 802.55098837 0 8765.41447742 0 -1959.85241755 0 7136.44185479 0 5916
0.07350000 0.07351270 27477.88311842 0 319.11982612 0 9662.27227730 0 -99.40500864 0 1286.97582414 0 5721
0.07450000 0.07449140 27399.19856330 0 575.65845337 0 6770.76100521 0 -2139.54546014 0 892.31208072 0 6028
0.07550000 0.07549160 27112.22475014 0 154.67809845 0 6681.78001402 0 112.68864764 0 -2332.47998928 0 6183
0.07650000 0.07648840 26369.89217586 0 178.77692955 0 4931.47580740 0 136.28164946 0 -4061.15718390 0 6330
0.07750000 0.07749960 26366.96960667 0 191.37657496 0 4050.63593482 0 1730.95904672 0 -4998.72862072 0 6583
0.07850000 0.07848650 26256.13679046 0 -177.52134886 0 3117.38090788 0 1304.89342141 0 -5304.19330434 0 6549
0.07950000 0.07947320 25830.79056680 0 75.92699868 0 3072.93537489 0 2296.03779961 0 -3031.08643221 0 6828
0.08050000 0.08048110 25716.24833585 0 126.44158381 0 2938.23865718 0 656.05495959 0 -3400.30808678 0 7147
0.08150000 0.08149960 26065.04572804 0 573.14504386 0 4976.77562984 0 605.56195651 0 -1498.67099936 0 7386
0.08250000 0.08250610 25237.39661471 0 728.31098655 0 5709.96955508 0 -1212.28170004 0 -834.05516017 0 7227
0.08350000 0.08350160 24606.79610871 0 1305.80391412 0 7016.51535214 0 -1580.55913994 0 1136.12629133 0 7798
0.08450000 0.08449610 24103.21495596 0 1084.94760856 0 8545.13144505 0 -1552.37882855 0 1700.89030601 0 7371
0.08550000 0.08548940 23103.69629296 0 1095.53405341 0 9288.50939984 0 -1307.61365889 0 5.39298320 0 8256
0.08650000 0.08650700 22568.64131816 0 693.41213823 0 9283.24877530 0 556.93040518 0 1746.72967969 0 8037
0.08750000 0.08749060 21620.82964852 0 532.91025864 0 8727.21874624 0 423.88269094 0 1100.28210428 0 8155
0.08850000 0.08849210 21500.21746618 0 344.08755953 0 8947.51301927 0 1428.73167051 0 843.38265215 0 8718
0.08950000 0.08949900 21036.87784305 0 527.98348142 0 7620.63288503 0 773.31855208 0 735.92203116 0 8571
0.09050000 0.09049190 20534.75797490 0 543.43600398 0 7258.25678676 0 889.44346665 0 -247.05713835 0 8932
0.09150000 0.09150830 20093.89965323 0 309.40003544 0 7116.30984933 0 -1.56408035 0 357.82925505 0 9285
0.09250000 0.09250820 19915.62293263 0 308.36701963 0 6131.86489896 0 726.21235706 0 420.70383491 0 9204
0.09350000 0.09350330 19525.34753925 0 -117.99760698 0 6206.09815639 0 569.44574571 0 438.41685233 0 9349
0.09450000 0.09448040 19762.52526968 0 -111.16846204 0 5220.28184663 0 1169.36489555 0 20.72967086 0 9564
0.09550000 0.09549270 19545.91793009 0 161.10100628 0 4814.57303980 0 656.03135422 0 -36.57955042 0 10155
0.09650000 0.09649430 19558.39505240 0 342.54421818 0 3934.52001277 0 702.60699053 0 -327.20410213 0 9913
0.09750000 0.09749140 19006.92872754 0 462.54940539 0 4250.65207392 0 410.51306096 0 763.12890219 0 10476
0.09850000 0.09850240 18362.95184716 0 618.26051964 0 4049.99521773 0 71.55303667 0 467.85274440 0 10575
0.09950000 0.09950330 18178.94239470 0 430.55176901 0 4292.16379707 0 493.38700660 0 1442.41154245 0 10882
0.10050000 0.10051200 17665.01984327 0 380.53874172 0 4357.31460871 0 382.01801135 0 1265.25888693 0 10875
0.10150000 0.10150300 17558.68328736 0 15.12171021 0 4074.21882005 0 928.20460257 0 2090.04163432 0 11118
0.10250000 0.10250800 17278.56627114 0 46.12904525 0 3626.08779736 0 1207.59434868 0 2580.69603873 0 11575
0.10350000 0.10349800 17626.01478524 0 187.27935776 0 3337.11314837 0 535.97108783 0 2120.26774413 0 11364
0.10450000 0.10450100 16963.60323766 0 260.07718409 0 3335.07859058 0 -314.63480648 0 1921.96018394 0 12093
0.10550000 0.10551000 16938.87380605 0 711.34097614 0 3926.89885157 0 -1337.97465651 0 1454.94486802 0 12067
0.10650000 0.10649700 16586.25459262 0 385.65773406 0 5163.51656044 0 -1634.55922605 0 1489.52110967 0 12054
0.10750000 0.10749900 16210.03001266 0 389.70774052 0 6154.70590125 0 -1672.15920274 0 1221.09437021 0 12807
0.10850000 0.10850100 16428.21104334 0 184.60520696 0 7343.25858759 0 -1243.84544729 0 1511.29425013 0 12736
0.10950000 0.10950300 16566.80826686 0 -188.80021781 0 8482.47605787 0 -23.72699038 0 1278.21935722 0 12933
0.11050000 0.11050200 16785.88854960 0 -229.93200696 0 9195.85271587 0 -57.31439198 0 1672.09175884 0 13428
0.11150000 0.11150900 17434.58650329 0 -109.67828897 0 9259.26122664 0 731.90574666 0 2737.21085950 0 13453
0.11250000 0.11250000 17114.56517698 0 124.99940832 0 9240.46685862 0 1068.27097913 0 2932.51716595 0 13668
0.11350000 0.11349100 17110.85576224 0 397.43681196 0 8385.64909248 0 916.40978776 0 3348.08402348 0 13791
0.11450000 0.11448600 16563.43607164 0 468.38330311 0 8523.96529972 0 707.71024596 0 2769.05562302 0 14205
0.11550000 0.11549300 16310.63383670 0 419.35720495 0 7184.04601064 0 577.42885586 0 2507.90158459 0 14776
0.11650000 0.11649800 15425.54499814 0 435.85848022 0 6972.48572323 0 247.65851317 0 1379.58754552 0 14553
0.11750000 0.11747300 15258.62133478 0 468.98580199 0 6557.99796817 0 70.99077932 0 1048.88310475 0 14568
0.11850000 0.11849100 14657.02170766 0 353.47350289 0 6105.13463152 0 352.52141977 0 76.59716628 0 16015
0.11950000 0.11950300 14550.57274524 0 161.11786725 0 5687.31964385 0 430.27637307 0 14.61127226 0 15270
0.12050000 0.12050700 14391.62994390 0 13.49485083 0 5401.53733967 0 459.34694399 0 -148.25069436 0 15999
0.12150000 0.12150000 14318.56571415 0 172.12583651 0 5358.77790429 0 581.81158558 0 -501.36562049 0 15670
0.12250000 0.12250700 14430.63500194 0 122.15664775 0 5231.56745996 0 -204.22014248 0 121.10452285 0 16887
0.12350000 0.12352200 14017.31627456 0 39.79224081 0 4911.24263608 0 -143.17778869 0 -579.80962568 0 16407
0.12450000 0.12449800 14270.00610299 0 67.77190657 0 5694.64854813 0 -129.07189608 0 -78.30012486 0 16306
0.12550000 0.12549900 14114.54790338 0 -37.22577543 0 4655.00076202 0 -32.69163415 0 -1713.45735353 0 17523
0.12650000 0.12650100 14232.23751654 0 9.07080048 0 5185.82925214 0 281.00839982 0 -1490.78006255 0 17154
0.12750000 0.12750600 14091.16734986 0 84.07186179 0 4329.90990223 0 55.59794461 0 -2296.03779961 0 18007
0.12850000 0.12850300 13823.97708199 0 246.44002663 0 3726.32067993 0 534.78519918 0 -2500.16801689 0 17496
0.12950000 0.12949900 13655.14250801 0 272.60039307 0 3503.75579545 0 437.87842516 0 -2631.70611174 0 18405
0.13050000 0.13049000 13314.55079086 0 313.68047523 0 3198.99927283 0 234.71377978 0 -2376.18363933 0 18100
0.13150000 0.13148800 13186.63218554 0 202.01247868 0 3072.82296838 0 761.64626036 0 -1945.01475859 0 19059
0.13250000 0.13249300 12736.21931075 0 221.51500770 0 3053.78130604 0 272.18224087 0 -1742.96406170 0 18957
0.13350000 0.13349100 12740.37835152 0 144.30297782 0 3105.80303762 0 367.57827142 0 -1086.36280648 0 19468
0.13450000 0.13450700 12667.87615431 0 73.88682057 0 3817.29126629 0 0.99622515 0 -679.42989278 0 19953
0.13550000 0.13551000 12697.32665922 0 116.15638839 0 3221.91895967 0 -114.23086492 0 -675.55186828 0 19956
0.13650000 0.13649900 12598.74615231 0 133.61761524 0 3677.10911103 0 158.05254180 0 30.58423695 0 19723
0.13750000 0.13749600 12338.30027487 0 275.13965607 0 3592.69182404 0 181.60620134 0 -387.49895265 0 20946
0.13850000 0.13851100 12377.30533291 0 227.75356885 0 3151.86722432 0 926.22175178 0 589.07979034 0 20955
0.13950000 0.13949800 12007.48792386 0 137.04376558 0 2890.19611595 0 878.92896196 0 583.17395244 0 20506
0.14050000 0.14048300 11882.60429424 0 261.45191568 0 2425.87855621 0 725.32322159 0 928.83070681 0 21447
0.14150000 0.14148400 11738.94877790 0 268.24351685 0 2541.90455305 0 222.76721619 0 726.00665315 0 21771
0.14250000 0.14249400 11308.54426141 0 274.78445151 0 2465.81658825 0 -134.24371949 0 1058.36908990 0 22470
0.14350000 0.14350900 11293.48178943 0 250.21576121 0 2735.68213100 0 -493.88047117 0 1344.60664044 0 22519
0.14450000 0.14449900 10944.44834358 0 5.12430917 0 2800.31587271 0 -278.61076902 0 1140.27409145 0 22218
0.14550000 0.14550500 11107.88740521 0 68.84921054 0 2875.21232853 0 202.79820016 0 1428.32700709 0 23559
0.14650000 0.14650700 10856.15303209 0 -11.81426114 0 2658.86352391 0 263.61124468 0 714.73902486 0 23044
0.14750000 0.14750500 11057.96767531 0 61.47983992 0 2361.43590557 0 341.15937001 0 859.43654953 0 23649
0.14850000 0.14849900 10917.26845011 0 139.43690012 0 2305.98577551 0 133.95146257 0 300.92458478 0 23640
0.14950000 0.14949500 10891.06649326 0 238.52323632 0 2078.87966814 0 -438.89120779 0 765.88623382 0 24457
0.15050000 0.15050000 10625.02277176 0 247.99573269 0 2548.44661178 0 -398.90146875 0 864.54879748 0 24591
0.15150000 0.15149900 10615.44573733 0 222.74248676 0 2870.22147960 0 -397.46828578 0 1344.10081116 0 25020
0.15250000 0.15250500 10404.03157838 0 19.54614274 0 2918.42138994 0 44.75285238 0 774.67867082 0 25297
0.15350000 0.15350100 10501.69035194 0 -21.44457625 0 3470.56215384 0 4.22081939 0 1162.80035552 0 25452
0.15450000 0.15450400 10586.84952187 0 27.97584395 0 3196.06546299 0 122.52196890 0 634.69097881 0 26061
0.15550000 0.15549900 10427.23228149 0 216.05092738 0 3512.33241196 0 66.20507227 0 1015.69620753 0 26128
0.15650000 0.15649500 10278.75452599 0 350.84319062 0 3157.21777407 0 -188.25617031 0 942.53306005 0 26331
0.15750000 0.15749700 9895.71811168 0 335.47384887 0 3192.26612305 0 204.06726963 0 708.08343556 0 27345
0.15850000 0.15849900 9703.75027849 0 322.40884053 0 3133.58992623 0 388.48475772 0 864.20932983 0 26980
0.15950000 0.15949700 9398.28559488 0 192.61304654 0 2715.43771904 0 347.17873848 0 371.27194925 0 27777
0.16050000 0.16050000 9274.97565636 0 126.24824462 0 2928.47053169 0 368.87993878 0 748.39690534 0 28224
0.16150000 0.16150500 9073.57691721 0 30.12145936 0 2428.41894327 0 422.20783398 0 74.99413708 0 28075
0.16250000 0.16249700 9143.61741192 0 -7.28793210 0 2603.81805728 0 59.76530347 0 617.41522270 0 28590
0.16350000 0.16349900 9113.70604032 0 73.87265735 0 2587.35050396 0 30.82591094 0 417.49800132 0 29163
0.16450000 0.16449100 9038.32623652 0 74.20324489 0 2602.28932878 0 -7.82685386 0 515.19724121 0 28996
0.16550000 0.16550500 9094.33839911 0 20.78486245 0 2507.32831140 0 67.32621477 0 610.89002495 0 30777
0.16650000 0.16650700 9076.63437421 0 -36.35788479 0 2455.78992780 0 105.89592241 0 553.05462881 0 29211
0.16750000 0.16749900 9169.39222405 0 70.89444694 0 2371.61993513 0 239.23139731 0 456.22541528 0 30922
0.16850000 0.16850800 8985.45021548 0 130.09591937 0 2428.92477256 0 -26.77590448 0 181.57472752 0 30867
0.16950000 0.16949900 8797.13559379 0 371.64289073 0 2077.66567786 0 -117.46592420 0 384.28075435 0 30852
0.17050000 0.17049200 8506.91323256 0 359.17026468 0 2410.25405169 0 -73.92672488 0 447.15308608 0 31257
0.17150000 0.17149500 8150.13497836 0 322.50663419 0 2259.91034816 0 0.29870118 0 427.13910745 0 32608
0.17250000 0.17250900 8091.67235391 0 89.41004682 0 2197.76079027 0 419.36732154 0 691.81034550 0 32361
0.17350000 0.17350400 8045.22598509 0 -14.23965635 0 2229.63927575 0 477.79060371 0 679.90200011 0 32508
0.17450000 0.17449800 8029.42163016 0 20.86287257 0 1981.34454175 0 295.84943098 0 605.42482057 0 32791
0.17550000 0.17549800 7983.08766785 0 -2.67821992 0 2113.69196346 0 86.10136128 0 947.66329305 0 33633
0.17650000 0.17650100 8062.00827663 0 75.72208162 0 2118.88514409 0 -219.74123301 0 909.24499698 0 33984
0.17750000 0.17750300 8024.95909182 0 43.76176421 0 2304.28843725 0 -124.70939953 0 1006.25518498 0 34069
0.17850000 0.17849800 8082.61238942 0 51.79793023 0 2294.25053615 0 -207.18655021 0 1130.44976271 0 34536
