### header ###
fiducial parameters:
Omega_m = 0.31
Omega_nu = 0
Omega_de = 0.69
Omega_k = 0
H_0 = 100
w_de = -1
zeff = 0
beta = 0
fgrowth = 0
b_1 = 2
gamma = 0.55
Lx = 3500 Ly = 3500 Lz = 3500
nx = 700 ny = 700 nz = 700
xoffset = 857.220397 yoffset = 15.9954215 zoffset = 262.898189
bins = 400 dk = 0.001
kx_ny = 0.628318531 ky_ny = 0.628318531 kz_ny = 0.628318531
############################
A(data) = 3.10224885 (not used)
A(ran) = 3.10186052 (used)
Ngal = 188854
weighted Ngal = 0
Nran = 9360983
weighted Nran = 0
SN(data) = 3445.338
SN(ran) = 69.65613
SN(data+ran) = 3514.99413
############################
13 columns: k_central k_mean P_0(k) sigma^{lin}_{P_0(k)} P^img_1(k) sigma^{lin}_{P_1(k)} P_2(k) sigma^{lin}_{P_2(k)} P^img_3(k) sigma^{lin}_{P_3(k)} P_4(k) sigma^{lin}_{P_4(k)} N_modes
### header ###
0.00050000 0 0 0 0 0 0 0 0 0 0 0 0
0.00150000 0.00179520 15088.88750875 0 -27257.11673806 0 -15237.37650490 0 38227.20500595 0 28825.18751503 0 3
0.00250000 0.00253879 26558.51029513 0 -25192.88363782 0 -8486.46648888 0 -30014.44836237 0 -29285.82938199 0 6
0.00350000 0.00331552 42357.80693007 0 -23434.05901794 0 -22756.69740489 0 5935.53569329 0 2884.89052881 0 7
0.00450000 0.00420575 53540.11868377 0 -18855.96678822 0 -23224.19606879 0 -11547.74530896 0 1593.19363136 0 24
0.00550000 0.00557378 59233.95790505 0 1819.81639074 0 -22514.46138164 0 -25933.41770798 0 1403.48516897 0 45
0.00650000 0.00659388 59785.64904292 0 2477.72043738 0 -18386.44480719 0 -10466.47339320 0 2542.82628641 0 40
0.00750000 0.00754703 43650.48176414 0 10814.46145853 0 -20879.28391980 0 -4513.40228476 0 14328.56989330 0 57
0.00850000 0.00846663 40808.62044633 0 6631.71415567 0 -18917.11592820 0 -10284.09383509 0 8553.82046806 0 75
0.00950000 0.00948925 40735.66862308 0 -13581.62865223 0 -32438.83191203 0 19791.41374206 0 13692.34906193 0 112
0.01050000 0.01054430 54441.95609192 0 -11248.85640602 0 -37069.75520018 0 7207.98859669 0 -6614.21246248 0 105
0.01150000 0.01145670 62502.62673111 0 -14190.75951534 0 -42469.76381135 0 1187.63095298 0 -3356.31217981 0 144
0.01250000 0.01249090 68601.69141124 0 -8779.64514125 0 -43804.02905312 0 -7425.11300621 0 -2148.24572380 0 169
0.01350000 0.01339930 70122.88867466 0 -557.82178879 0 -47997.24140181 0 -20659.30438500 0 9072.27300173 0 180
0.01450000 0.01448870 70291.94806166 0 -209.62239922 0 -43503.45405257 0 -17394.23256716 0 -833.27843121 0 267
0.01550000 0.01550050 69016.69623623 0 257.48621410 0 -40618.99066849 0 -26987.79074654 0 -8509.59974809 0 238
0.01650000 0.01653350 68859.32712599 0 349.39876700 0 -29608.43605797 0 -25863.50086043 0 666.85272868 0 315
0.01750000 0.01747870 68616.86628973 0 -1598.20696158 0 -20788.23464888 0 -17865.10342629 0 10111.10022034 0 297
0.01850000 0.01844180 72782.76385714 0 -4576.57474187 0 -20478.66712775 0 -6544.72275966 0 10351.22300125 0 388
0.01950000 0.01947590 80600.18681451 0 -2579.95415578 0 4547.94480446 0 -40.72926145 0 13443.81827427 0 399
0.02050000 0.02045430 81906.35042945 0 -3049.35248965 0 10967.72773124 0 7517.71348693 0 19755.55606622 0 462
0.02150000 0.02154770 84655.58878524 0 1472.58144901 0 13797.22433325 0 3908.17192745 0 21180.75817241 0 571
0.02250000 0.02255340 84484.39367461 0 2298.17352325 0 23172.60148194 0 -3761.88609884 0 12403.49604911 0 510
0.02350000 0.02348930 87052.88236664 0 1696.86615305 0 23133.14679787 0 -3178.22655028 0 24724.59812837 0 555
0.02450000 0.02439640 80037.81705844 0 4571.51644904 0 33796.47770732 0 -5825.11878116 0 5015.35354315 0 592
0.02550000 0.02547300 79910.46048566 0 4362.46282675 0 29903.16592013 0 -11648.12431999 0 8767.69632952 0 837
0.02650000 0.02652900 75635.07898013 0 6419.42322596 0 36562.12741317 0 -5475.46709953 0 -15375.29928937 0 723
0.02750000 0.02749970 70961.66603221 0 8492.33410857 0 28704.91255221 0 -13593.54374200 0 -8857.70021993 0 826
0.02850000 0.02848090 65925.85450473 0 5695.26678392 0 38113.22480754 0 -9297.20966351 0 -23742.39006749 0 831
0.02950000 0.02946900 61906.08539682 0 5356.45108959 0 44165.97800666 0 -2783.05023318 0 -13683.46894785 0 996
0.03050000 0.03053250 61133.62787858 0 2656.17700838 0 40899.78212376 0 1430.49645268 0 -17972.56404727 0 1041
0.03150000 0.03150510 60366.11624667 0 -1205.77336326 0 39837.76544269 0 18351.48638342 0 -14916.68073955 0 1036
0.03250000 0.03246190 62244.54139033 0 -3297.83831471 0 38438.07961367 0 13852.97796087 0 -4160.70438677 0 1059
0.03350000 0.03345080 63925.24348762 0 -889.48168486 0 30262.97915003 0 16555.23039660 0 -7675.20624433 0 1302
0.03450000 0.03451200 65394.39653817 0 1776.59608868 0 28645.67432286 0 6864.75532662 0 -930.85177581 0 1339
0.03550000 0.03553350 58441.15480899 0 4904.67809606 0 26821.65392874 0 5393.46655244 0 -7.07260620 0 1365
0.03650000 0.03647120 57257.06466099 0 4679.79763753 0 25365.42762654 0 3962.44178918 0 9727.14207267 0 1308
0.03750000 0.03744890 51277.37569162 0 2126.52878659 0 24124.79700536 0 8606.71897040 0 5345.67130553 0 1579
0.03850000 0.03847530 49551.82339791 0 690.77957783 0 19465.65968387 0 6069.49052806 0 7965.50729011 0 1662
0.03950000 0.03950240 48427.98313782 0 -339.16865077 0 16258.25240429 0 7950.89444415 0 -1654.81487866 0 1683
0.04050000 0.04050350 47470.72932157 0 786.28127050 0 13756.30836459 0 1942.39568697 0 3906.93545587 0 1822
0.04150000 0.04152450 46608.00937797 0 1424.60635169 0 12549.17488259 0 -4143.77596677 0 3519.53766908 0 1887
0.04250000 0.04250150 45383.67770035 0 686.75879706 0 16405.39252236 0 -489.69108064 0 3735.34692246 0 1920
0.04350000 0.04349210 44482.28991823 0 1711.90614373 0 18116.10715711 0 -6432.51858406 0 5377.17884953 0 2005
0.04450000 0.04448520 45498.89437034 0 1154.76329025 0 21678.15696725 0 -3613.07112381 0 2437.73744273 0 2151
0.04550000 0.04548030 45255.30946900 0 825.34702805 0 27519.92315215 0 -3135.14113603 0 10966.95212634 0 2274
0.04650000 0.04648670 45121.32091229 0 456.25688911 0 25021.91334020 0 1167.84740770 0 1712.87283969 0 2311
0.04750000 0.04749250 46150.85211274 0 572.53804872 0 30216.33044950 0 1114.74095332 0 7798.05531617 0 2568
0.04850000 0.04851840 45299.93485240 0 1911.05675273 0 24438.41116076 0 2109.85890156 0 819.64689407 0 2493
0.04950000 0.04949480 43563.59153399 0 2119.41345468 0 26733.30241399 0 4640.43287867 0 7013.12067562 0 2644
0.05050000 0.05050630 40705.20645960 0 2174.35775545 0 19596.95048441 0 4789.56259192 0 2440.43519890 0 2829
0.05150000 0.05149060 39622.50698119 0 1117.63654495 0 22784.91143823 0 5631.99316095 0 2417.00968278 0 2784
0.05250000 0.05249300 37679.67290885 0 525.76794916 0 17335.10674432 0 4461.40303448 0 908.97409730 0 3055
0.05350000 0.05348950 36497.26885846 0 1386.32069530 0 15726.79443773 0 1665.38109035 0 537.03670152 0 3009
0.05450000 0.05448610 34780.25945930 0 2507.96902850 0 15811.54894424 0 -1804.27057078 0 649.58371696 0 3336
0.05550000 0.05550870 32459.06508335 0 2121.58290027 0 15426.33184369 0 -1387.17498476 0 445.73001970 0 3349
0.05650000 0.05647670 30917.52224210 0 2132.46385018 0 16330.30497548 0 -1287.53785668 0 1450.79706790 0 3324
0.05750000 0.05747970 30450.81042375 0 563.26113967 0 16829.16505492 0 -545.04791330 0 752.22322285 0 3639
0.05850000 0.05849280 30339.19076199 0 -110.58518467 0 17321.73036995 0 318.64884286 0 -978.70547411 0 3846
0.05950000 0.05951020 31340.05830308 0 -654.76003662 0 17304.19495481 0 421.97740064 0 1828.88759588 0 3787
0.06050000 0.06049470 31886.57874162 0 -1847.86181432 0 17043.29945134 0 3469.40436682 0 -636.93011644 0 3930
0.06150000 0.06148310 34129.31337546 0 -1337.67115894 0 16484.18948398 0 2830.02491259 0 1655.32070795 0 4083
0.06250000 0.06249100 34595.46316128 0 -1232.06524532 0 13132.78946854 0 5389.10517996 0 354.25135592 0 4303
0.06350000 0.06350600 35444.13229147 0 -305.39274345 0 12681.47734169 0 2456.23955383 0 1636.85231880 0 4470
0.06450000 0.06451750 34726.19192928 0 446.72481729 0 9374.06199255 0 2258.16804730 0 -733.09051124 0 4479
0.06550000 0.06550280 34224.29687414 0 1729.45279952 0 10415.63192994 0 -725.73575347 0 860.59096436 0 4636
0.06650000 0.06648880 32759.97730342 0 1339.33477525 0 8984.50600082 0 -550.07810450 0 650.63921407 0 4653
0.06750000 0.06749660 30870.08669601 0 1572.49959336 0 9374.42169338 0 -1314.90884121 0 -659.90375840 0 5220
0.06850000 0.06852730 30457.44240768 0 866.81940893 0 9689.46341142 0 -44.09415025 0 -216.51629032 0 5029
0.06950000 0.06949320 29447.13271998 0 619.78700001 0 9665.81308228 0 1067.20761357 0 -1950.51143679 0 5040
0.07050000 0.07048030 29312.58213073 0 -11.02439185 0 8275.20969905 0 1615.68617347 0 -515.74466090 0 5475
0.07150000 0.07148790 29078.21456299 0 119.36334605 0 8303.87335841 0 1389.96266614 0 -1451.10056547 0 5509
0.07250000 0.07249820 29260.76273086 0 -83.76712775 0 7623.03838428 0 1551.24352283 0 -562.40010583 0 5916
0.07350000 0.07351270 29246.82432395 0 148.12479907 0 8468.66129813 0 -195.40297605 0 -431.04523358 0 5721
0.07450000 0.07449140 28972.66485262 0 -25.84056993 0 8192.35486251 0 -869.72624120 0 148.52384217 0 6028
0.07550000 0.07549160 29517.49919355 0 415.71523411 0 9767.17002992 0 -1027.03802412 0 771.16821559 0 6183
0.07650000 0.07648840 28680.85755965 0 484.39111382 0 10667.95081690 0 -898.17745227 0 1296.44045206 0 6330
0.07750000 0.07749960 28978.50999100 0 864.98493473 0 11588.21165159 0 -1718.69549677 0 -46.92027466 0 6583
0.07850000 0.07848650 28113.87913677 0 1176.21045184 0 11872.37530207 0 312.37431162 0 393.50033607 0 6549
0.07950000 0.07947320 27078.61520445 0 1319.50626736 0 12452.50528630 0 906.64953073 0 103.01820341 0 6828
0.08050000 0.08048110 26156.54462499 0 759.87360974 0 10986.53333992 0 2096.28019547 0 49.51023299 0 7147
0.08150000 0.08149960 25050.12737354 0 478.49988877 0 9811.43571250 0 2462.57928084 0 84.15818999 0 7386
0.08250000 0.08250610 25171.63880794 0 93.31190151 0 8355.65903633 0 3068.74261216 0 -790.70446657 0 7227
0.08350000 0.08350160 24127.94438757 0 118.61247058 0 6588.26904059 0 2666.21490949 0 -55.55747827 0 7798
0.08450000 0.08449610 23948.09397587 0 778.04636978 0 6713.87207186 0 985.96468635 0 1520.98369106 0 7371
0.08550000 0.08548940 22937.89669468 0 710.18094099 0 5463.42836259 0 639.77512514 0 436.07542478 0 8256
0.08650000 0.08650700 22673.17936996 0 509.53644951 0 7369.53922900 0 318.95009230 0 3316.27298191 0 8037
0.08750000 0.08749060 22085.85536927 0 422.54055724 0 4907.06111401 0 807.91839909 0 1494.17473907 0 8155
0.08850000 0.08849210 21961.30895917 0 51.69451624 0 6160.96694370 0 319.69309931 0 2207.01184582 0 8718
0.08950000 0.08949900 21644.09779554 0 438.11560289 0 4392.01449752 0 272.04622899 0 336.01564824 0 8571
0.09050000 0.09049190 21306.87827361 0 786.07331846 0 4780.35649897 0 -750.15381905 0 40.29110089 0 8932
0.09150000 0.09150830 20422.01424806 0 622.55332415 0 4622.21178384 0 -800.99753044 0 -1210.83165609 0 9285
0.09250000 0.09250820 20185.96058271 0 539.02629670 0 5299.49471233 0 -616.78799439 0 -1058.66809121 0 9204
0.09350000 0.09350330 19468.69465957 0 428.23619496 0 5251.76690933 0 -174.19411625 0 -1070.42356375 0 9349
0.09450000 0.09448040 19903.48302984 0 102.16717375 0 5667.73843028 0 175.43508409 0 -199.81155926 0 9564
0.09550000 0.09549270 19509.38581522 0 257.53005264 0 6629.21873120 0 48.80915360 0 653.03122454 0 10155
0.09650000 0.09649430 19694.96895878 0 387.66756241 0 7276.89378567 0 -238.84247080 0 1215.18178792 0 9913
0.09750000 0.09749140 19297.83676846 0 324.74689588 0 7489.04982757 0 -51.00366585 0 1993.15846567 0 10476
0.09850000 0.09850240 19038.06533007 0 494.50207915 0 8650.63619281 0 338.97755970 0 1763.06234520 0 10575
0.09950000 0.09950330 18607.09878104 0 380.68374611 0 8040.37002397 0 -58.95878678 0 1795.78387948 0 10882
0.10050000 0.10051200 18271.90257624 0 279.59432596 0 7664.41521962 0 567.74278712 0 842.95101116 0 10875
0.10150000 0.10150300 18131.39444210 0 211.81994644 0 6994.40499215 0 365.96973430 0 720.00976599 0 11118
0.10250000 0.10250800 17884.10012602 0 216.43423356 0 5853.98477224 0 1201.13097451 0 430.29210998 0 11575
0.10350000 0.10349800 17492.25104154 0 258.43829722 0 5828.60338289 0 544.27118433 0 -146.45668650 0 11364
0.10450000 0.10450100 17217.75435069 0 331.44182745 0 5154.74885287 0 257.63009443 0 -290.77090498 0 12093
0.10550000 0.10551000 17076.45937100 0 398.12136759 0 5183.43499353 0 -239.27186366 0 -817.83939743 0 12067
0.10650000 0.10649700 16748.79440219 0 230.64466422 0 5311.00513868 0 -121.30573049 0 43.74793821 0 12054
0.10750000 0.10749900 16700.23479103 0 122.33087784 0 5432.87627391 0 7.10704755 0 -799.54636243 0 12807
0.10850000 0.10850100 16608.62348758 0 155.46606807 0 5518.30521946 0 876.33461977 0 16.56669586 0 12736
0.10950000 0.10950300 16227.34061478 0 168.89752162 0 5152.16350320 0 619.09682405 0 0.21711429 0 12933
0.11050000 0.11050200 15821.77793641 0 279.71460092 0 4787.55051544 0 1380.01469024 0 342.24746500 0 13428
0.11150000 0.11150900 15951.04541981 0 295.47174511 0 4785.63960482 0 564.53807760 0 789.84568085 0 13453
0.11250000 0.11250000 15413.74231487 0 169.57196067 0 4719.25232160 0 190.52116143 0 346.90221847 0 13668
0.11350000 0.11349100 15474.77904834 0 222.94931473 0 4482.27692289 0 -548.64829372 0 1259.86337458 0 13791
0.11450000 0.11448600 15365.85714276 0 56.27766676 0 5087.24874523 0 -152.34791155 0 1170.83742079 0 14205
0.11550000 0.11549300 15401.49000557 0 176.33433615 0 4862.00858588 0 -486.05248200 0 786.45887278 0 14776
0.11650000 0.11649800 15218.37980517 0 196.44723250 0 4939.20937510 0 259.66690034 0 -60.19604520 0 14553
0.11750000 0.11747300 15013.57514885 0 184.34667199 0 4631.55276459 0 348.58944014 0 72.12934483 0 14568
0.11850000 0.11849100 14931.18117899 0 250.47204804 0 4510.88437900 0 254.52430263 0 -283.52967778 0 16015
0.11950000 0.11950300 14713.67458735 0 56.71874990 0 4403.58112712 0 267.42856967 0 -46.43198079 0 15270
0.12050000 0.12050700 14783.36662188 0 54.71229374 0 4539.17709689 0 309.73837902 0 508.71813013 0 15999
0.12150000 0.12150000 14859.24101431 0 37.67405258 0 4759.67370163 0 481.63603033 0 661.67865715 0 15670
0.12250000 0.12250700 14788.98694724 0 158.09300814 0 4520.84359555 0 47.72240749 0 1543.22893886 0 16887
0.12350000 0.12352200 14587.32967313 0 237.01249286 0 4906.25178716 0 -24.42368591 0 863.27298362 0 16407
0.12450000 0.12449800 14597.33385228 0 226.41255922 0 5073.47894808 0 -265.88860052 0 1028.77245653 0 16306
0.12550000 0.12549900 14174.57297829 0 286.46236355 0 4980.31643483 0 -622.79499814 0 240.23181523 0 17523
0.12650000 0.12650100 14012.37038824 0 336.62938777 0 5098.61304312 0 -152.47493091 0 217.59314466 0 17154
0.12750000 0.12750600 13541.72434213 0 395.53489386 0 4589.82746908 0 0.95100289 0 -539.30506484 0 18007
0.12850000 0.12850300 13271.16187904 0 378.26475807 0 4235.24114177 0 516.16618531 0 -1338.79522401 0 17496
0.12950000 0.12949900 12911.57346215 0 155.14683358 0 3541.74919492 0 695.90868676 0 -1446.63802713 0 18405
0.13050000 0.13049000 12861.44015989 0 55.74013884 0 3408.09785773 0 877.73295672 0 -1394.88607116 0 18100
0.13150000 0.13148800 12748.35921354 0 -116.26991897 0 2876.44880011 0 682.51207921 0 -243.85804915 0 19059
0.13250000 0.13249300 12965.19136614 0 -89.37306508 0 2746.22586139 0 855.69453690 0 -350.47449727 0 18957
0.13350000 0.13349100 12840.30773652 0 136.30300670 0 3027.88284676 0 37.55647538 0 290.71357766 0 19468
0.13450000 0.13450700 12726.88957064 0 320.79355902 0 3272.17590909 0 -347.01799717 0 738.49276798 0 19953
0.13550000 0.13551000 12614.93268936 0 395.96653485 0 3749.42021718 0 -389.98650866 0 1315.51583635 0 19956
0.13650000 0.13649900 12169.01607486 0 377.77578977 0 3439.79649279 0 -332.75698359 0 1193.68966373 0 19723
0.13750000 0.13749600 11981.74683369 0 348.31067201 0 4146.41751970 0 -125.86606250 0 934.38471234 0 20946
0.13850000 0.13851100 11721.07614323 0 139.39980598 0 3831.96031550 0 142.59777111 0 1003.08981774 0 20955
0.13950000 0.13949800 11525.26400750 0 126.08413112 0 3493.15586181 0 503.15962835 0 583.02445179 0 20506
0.14050000 0.14048300 11499.74773034 0 120.19065794 0 3580.52943995 0 265.80092345 0 417.59804311 0 21447
0.14150000 0.14148400 11353.84408385 0 5.42924554 0 3024.98275887 0 588.83249602 0 453.16908235 0 21771
0.14250000 0.14249400 11355.08055543 0 -9.15399253 0 3120.70814049 0 289.28938721 0 738.00829594 0 22470
0.14350000 0.14350900 11374.30206818 0 -49.17773454 0 3121.51746735 0 457.09094539 0 904.86114319 0 22519
0.14450000 0.14449900 11443.31966367 0 58.44778679 0 2967.39690517 0 150.28974840 0 925.41467306 0 22218
0.14550000 0.14550500 11485.58451042 0 121.60697993 0 3216.74826034 0 -201.27284386 0 856.24982504 0 23559
0.14650000 0.14650700 11357.66590510 0 265.65254686 0 3474.21536533 0 -345.31953485 0 773.53437257 0 23044
0.14750000 0.14750500 11152.22053169 0 318.24755163 0 3866.01948721 0 -446.55395939 0 1267.31592601 0 23649
0.14850000 0.14849900 10860.40199806 0 271.22790962 0 3966.47718279 0 -323.06079827 0 444.05965900 0 23640
0.14950000 0.14949500 10762.33856109 0 231.01335756 0 4121.05861165 0 -464.54686902 0 691.96659054 0 24457
0.15050000 0.15050000 10605.22798582 0 117.55472534 0 4221.60623244 0 34.28308548 0 92.30530123 0 24591
0.15150000 0.15149900 10531.46683572 0 148.82284348 0 4282.48559679 0 26.99824455 0 155.88084808 0 25020
0.15250000 0.15250500 10420.40920650 0 161.14821701 0 3929.16946302 0 395.01782392 0 -205.13850365 0 25297
0.15350000 0.15350100 10268.32320211 0 117.74132015 0 3613.73432220 0 575.78659678 0 -27.73641809 0 25452
0.15450000 0.15450400 10147.10402463 0 56.14907372 0 2977.51349083 0 860.54262956 0 138.30047033 0 26061
0.15550000 0.15549900 10015.40856066 0 -60.20177793 0 2683.19953274 0 570.99021112 0 -132.84538253 0 26128
0.15650000 0.15649500 9985.67703948 0 55.70844021 0 2151.96637919 0 644.86264366 0 -130.19708522 0 26331
0.15750000 0.15749700 9885.34299105 0 109.26935410 0 2083.00498696 0 238.76153811 0 -225.30647919 0 27345
0.15850000 0.15849900 9679.53791682 0 227.21963794 0 1949.18504001 0 -348.56133852 0 -173.45335736 0 26980
0.15950000 0.15949700 9710.71948195 0 261.68909341 0 2163.75782181 0 -415.04529133 0 127.17784644 0 27777
0.16050000 0.16050000 9315.17222338 0 214.77174132 0 2533.59771216 0 -314.04017606 0 72.65102343 0 28224
0.16150000 0.16150500 9397.97085666 0 142.93386657 0 2662.67410451 0 6.75279845 0 280.66555997 0 28075
0.16250000 0.16249700 9285.80040302 0 102.52856067 0 2871.30058207 0 289.08031111 0 84.54250784 0 28590
0.16350000 0.16349900 9292.46610890 0 100.24592172 0 2554.75261684 0 323.48119861 0 841.93260821 0 29163
0.16450000 0.16449100 8999.65839801 0 224.29144843 0 2573.17604339 0 434.65011027 0 465.68779507 0 28996
0.16550000 0.16550500 8847.66231882 0 253.38450065 0 2075.20397535 0 411.82934116 0 762.91757796 0 30777
0.16650000 0.16650700 8528.15806244 0 177.95074172 0 1940.69834871 0 596.85719658 0 624.77110454 0 29211
0.16750000 0.16749900 8323.75806955 0 102.47820255 0 1440.32078142 0 380.23412008 0 578.21232921 0 30922
0.16850000 0.16850800 8284.33710744 0 26.46836028 0 1172.65840621 0 293.74293303 0 228.17846545 0 30867
0.16950000 0.16949900 8225.34617240 0 39.06733124 0 1255.77177771 0 -28.24101090 0 366.66103432 0 30852
0.17050000 0.17049200 8238.90239718 0 48.76497785 0 1033.98587034 0 -370.83019168 0 110.38274055 0 31257
0.17150000 0.17149500 8285.94452049 0 74.02361929 0 1502.80755883 0 -395.79230476 0 358.07654936 0 32608
0.17250000 0.17250900 8311.55072286 0 40.25692931 0 1643.76531900 0 -443.24808401 0 193.67866023 0 32361
0.17350000 0.17350400 8435.02927114 0 38.13087263 0 2111.82601543 0 -273.66825489 0 306.77084723 0 32508
0.17450000 0.17449800 8322.74641099 0 41.15325880 0 2270.64516961 0 4.88827799 0 395.06391059 0 32791
0.17550000 0.17549800 8401.29607829 0 29.62507222 0 2451.34987076 0 99.46840591 0 600.49242303 0 33633
0.17650000 0.17650100 8363.06662516 0 24.73887375 0 2534.10354145 0 332.31859821 0 665.12166847 0 33984
0.17750000 0.17750300 8325.98371840 0 95.92063173 0 2386.59248190 0 259.12510098 0 918.53314668 0 34069
0.17850000 0.17849800 8234.09139867 0 99.81664127 0 2257.01026028 0 246.05559637 0 882.59229003 0 34536
