### header ###
fiducial parameters:
Omega_m = 0.31
Omega_nu = 0
Omega_de = 0.69
Omega_k = 0
H_0 = 100
w_de = -1
zeff = 0
beta = 0
fgrowth = 0
b_1 = 2
gamma = 0.55
Lx = 3500 Ly = 3500 Lz = 3500
nx = 700 ny = 700 nz = 700
xoffset = 857.220397 yoffset = 15.9954215 zoffset = 262.898189
bins = 400 dk = 0.001
kx_ny = 0.628318531 ky_ny = 0.628318531 kz_ny = 0.628318531
############################
A(data) = 3.07072454 (not used)
A(ran) = 3.06698306 (used)
Ngal = 186808
weighted Ngal = 0
Nran = 9360983
weighted Nran = 0
SN(data) = 3452.82613
SN(ran) = 68.8729132
SN(data+ran) = 3521.69904
############################
13 columns: k_central k_mean P_0(k) sigma^{lin}_{P_0(k)} P^img_1(k) sigma^{lin}_{P_1(k)} P_2(k) sigma^{lin}_{P_2(k)} P^img_3(k) sigma^{lin}_{P_3(k)} P_4(k) sigma^{lin}_{P_4(k)} N_modes
### header ###
0.00050000 0 0 0 0 0 0 0 0 0 0 0 0
0.00150000 0.00179520 7163.35197264 0 -6640.50434454 0 7488.98238367 0 -14986.14796106 0 -23051.42726706 0 3
0.00250000 0.00253879 13288.24766815 0 -5271.07834728 0 -1910.60712670 0 8395.14744235 0 -4732.71862117 0 6
0.00350000 0.00331552 22651.82213357 0 -5944.11230980 0 5799.23156253 0 8214.73499811 0 3703.98550692 0 7
0.00450000 0.00420575 28349.82039562 0 -3834.01735458 0 3752.16293596 0 17395.91866477 0 3450.67744270 0 24
0.00550000 0.00557378 37938.65750169 0 -3932.15947611 0 8348.72355483 0 29409.70135304 0 5220.90008242 0 45
0.00650000 0.00659388 37071.44129779 0 -8705.40064317 0 3301.63765466 0 16938.53658653 0 -8717.28201099 0 40
0.00750000 0.00754703 48197.99942387 0 -12171.82623755 0 831.59120953 0 34249.92555781 0 3293.09476010 0 57
0.00850000 0.00846663 57122.17685221 0 -20206.64338006 0 -15006.94316492 0 18297.53125991 0 4563.71543743 0 75
0.00950000 0.00948925 71191.08771363 0 -21300.24628968 0 -35180.08940580 0 16821.63381893 0 13962.91152502 0 112
0.01050000 0.01054430 84549.58944885 0 -16417.42001864 0 -32670.38931709 0 -8520.66054841 0 -23144.61226162 0 105
0.01150000 0.01145670 94703.38166066 0 -9253.83199234 0 -44630.77891439 0 -24259.12278160 0 -2651.21988141 0 144
0.01250000 0.01249090 92469.41473438 0 1803.42752198 0 -34445.17566101 0 -33789.95812990 0 -23569.95848528 0 169
0.01350000 0.01339930 95108.26989999 0 5960.82715744 0 -32985.35235057 0 -42236.18308916 0 -19994.08267474 0 180
0.01450000 0.01448870 86651.25391602 0 7667.36027012 0 -28014.28697130 0 -21081.16600693 0 -18046.30271607 0 267
0.01550000 0.01550050 81272.04050870 0 2980.02015594 0 -5591.09967359 0 -22074.16509251 0 -30093.47013701 0 238
0.01650000 0.01653350 82377.44610159 0 795.97857989 0 -28490.21612325 0 -5356.12511071 0 -14405.79316382 0 315
0.01750000 0.01747870 82049.21910025 0 -796.50913860 0 -3511.18586559 0 -8244.05061522 0 -39714.56791068 0 297
0.01850000 0.01844180 84506.98738258 0 1303.07243599 0 -16887.61643872 0 -10279.00182030 0 -14322.49994191 0 388
0.01950000 0.01947590 81426.14983023 0 4418.74476496 0 -2091.21066199 0 -14360.04371535 0 -16519.82234680 0 399
0.02050000 0.02045430 82198.49494195 0 6221.82382676 0 10248.19119665 0 -8934.74364004 0 -514.69253600 0 462
0.02150000 0.02154770 78719.17632119 0 5531.33313366 0 32793.36203609 0 -1671.36111654 0 5570.27074779 0 571
0.02250000 0.02255340 79873.59115126 0 5835.15668227 0 53738.40376266 0 -2417.00968278 0 24827.00045653 0 510
0.02350000 0.02348930 73812.29505759 0 3761.24538175 0 54016.83468127 0 9747.57757570 0 8062.40169941 0 555
0.02450000 0.02439640 77357.48389164 0 1995.49652102 0 59207.76718884 0 3240.79201225 0 18038.09704104 0 592
0.02550000 0.02547300 72158.90774157 0 3576.13434551 0 63884.88955150 0 10691.66858994 0 24981.67181058 0 837
0.02650000 0.02652900 76156.30795452 0 2665.25945417 0 65290.98255144 0 11944.98990580 0 26014.46279975 0 723
0.02750000 0.02749970 69478.91179429 0 1435.77955852 0 51160.02329799 0 13988.31539567 0 18674.31787241 0 826
0.02850000 0.02848090 70554.30484972 0 3902.66400859 0 45474.95178428 0 14554.28215998 0 5131.18844894 0 831
0.02950000 0.02946900 63329.37659237 0 2887.88054190 0 35827.32607489 0 12856.71908659 0 5948.04653756 0 996
0.03050000 0.03053250 61060.11402280 0 2740.29079780 0 32492.11259650 0 3254.38195899 0 4069.09308332 0 1041
0.03150000 0.03150510 56647.59657835 0 2848.53826434 0 25325.74812946 0 3972.15371141 0 -9800.73461300 0 1036
0.03250000 0.03246190 56877.46788580 0 3231.56343800 0 30489.92788829 0 1092.40690438 0 2348.39675072 0 1059
0.03350000 0.03345080 53269.66862718 0 2650.21946350 0 23073.00931646 0 808.35341228 0 -4710.21483841 0 1302
0.03450000 0.03451200 53297.32062798 0 1459.14887139 0 28094.20799800 0 5158.90789364 0 13758.21927521 0 1339
0.03550000 0.03553350 51027.27121286 0 1383.03842529 0 25288.99120157 0 9177.60913973 0 6629.58967268 0 1365
0.03650000 0.03647120 51477.34686813 0 671.03537482 0 18685.22130362 0 8693.76656966 0 9903.37299483 0 1308
0.03750000 0.03744890 49864.42589474 0 1080.02083134 0 19570.19773567 0 9925.48335481 0 8999.69211996 0 1579
0.03850000 0.03847530 46982.21064080 0 1809.45251077 0 15190.39058485 0 5608.27538791 0 10562.41234718 0 1662
0.03950000 0.03950240 44286.36537599 0 1239.21429919 0 11648.91116554 0 2805.26175903 0 10984.46506018 0 1683
0.04050000 0.04050350 43669.81568339 0 1358.93847012 0 10657.57569627 0 2273.61270141 0 5320.69457961 0 1822
0.04150000 0.04152450 44292.43532738 0 1040.23342401 0 13533.40626059 0 2170.87315372 0 11577.75784641 0 1887
0.04250000 0.04250150 41846.13250880 0 593.99869910 0 9215.45641074 0 1214.68719929 0 5150.61229340 0 1920
0.04350000 0.04349210 43303.82009559 0 -376.96646291 0 14715.36068496 0 2167.17497963 0 10771.07254670 0 2005
0.04450000 0.04448520 42372.98180856 0 -145.11230468 0 11637.89532782 0 2005.02859284 0 9056.74966307 0 2151
0.04550000 0.04548030 44293.89661198 0 868.55946166 0 21157.15280587 0 1062.44832205 0 17262.94176663 0 2274
0.04650000 0.04648670 42946.70462187 0 978.80663996 0 17055.66416715 0 460.22708694 0 13538.91417945 0 2311
0.04750000 0.04749250 42884.43141682 0 1646.75533209 0 20612.99290398 0 1236.15684219 0 17147.94990965 0 2568
0.04850000 0.04851840 40017.16622836 0 1129.94393343 0 16355.70884613 0 630.28239559 0 11912.39201868 0 2493
0.04950000 0.04949480 40061.22957922 0 246.68170062 0 19356.62537178 0 3016.34993911 0 8974.91772575 0 2644
0.05050000 0.05050630 40142.16226449 0 -356.70743810 0 13906.48345835 0 1169.92692808 0 4268.85068746 0 2829
0.05150000 0.05149060 38019.47778045 0 524.27069448 0 13858.71069275 0 2577.81843214 0 -147.56276654 0 2784
0.05250000 0.05249300 39407.69814572 0 818.40817436 0 10786.98930814 0 27.26037653 0 -5064.50890880 0 3055
0.05350000 0.05348950 36373.17207438 0 1475.68386862 0 7829.33804715 0 231.30673855 0 -5574.86817394 0 3009
0.05450000 0.05448610 35722.45080357 0 2464.27661910 0 8305.70558448 0 -130.76811028 0 -8469.00975830 0 3336
0.05550000 0.05550870 33164.86554275 0 2017.49447450 0 7674.63297114 0 -958.98262833 0 -9489.35734710 0 3349
0.05650000 0.05647670 31091.52751541 0 1928.88442479 0 7823.47042747 0 -920.98136041 0 -8318.91334909 0 3324
0.05750000 0.05747970 30607.72990795 0 966.41719473 0 8796.47239539 0 -510.18953131 0 -7868.83769382 0 3639
0.05850000 0.05849280 29365.52559567 0 390.22143826 0 6640.59426974 0 -423.52074198 0 -6947.30666559 0 3846
0.05950000 0.05951020 29927.67053873 0 424.70887876 0 9987.59919075 0 417.90716101 0 -3951.71820838 0 3787
0.06050000 0.06049470 30468.12102587 0 -186.43293676 0 9631.84383577 0 474.28014849 0 -3093.55072833 0 3930
0.06150000 0.06148310 29821.22157630 0 231.29662196 0 12721.15683877 0 1259.96454044 0 127.98829735 0 4083
0.06250000 0.06249100 30981.25673174 0 -146.11384666 0 12381.01474765 0 2089.42339853 0 1754.08106527 0 4303
0.06350000 0.06350600 31382.99758887 0 -208.09929105 0 15254.34988751 0 189.05762871 0 5950.71057178 0 4470
0.06450000 0.06451750 32422.53296847 0 -749.31077025 0 15617.08568660 0 1965.55142747 0 9885.82633904 0 4479
0.06550000 0.06550280 31395.02508515 0 171.60314625 0 16063.67674014 0 401.69364639 0 8461.97311094 0 4636
0.06650000 0.06648880 32942.41306478 0 843.20617393 0 16913.91956143 0 1269.76638787 0 10722.52417620 0 4653
0.06750000 0.06749660 30731.37706599 0 642.44702781 0 15972.29024969 0 503.31699746 0 8533.51985284 0 5220
0.06850000 0.06852730 30867.61375285 0 1008.75960197 0 15847.96865261 0 374.62728350 0 11613.84033526 0 5029
0.06950000 0.06949320 30100.66415348 0 -283.66119339 0 13831.28350496 0 2832.35172729 0 6577.66910695 0 5040
0.07050000 0.07048030 30034.23190766 0 -158.81578198 0 13620.29649074 0 1882.24696490 0 8570.87253522 0 5475
0.07150000 0.07148790 30098.97805587 0 418.56136688 0 12398.66256930 0 1195.65677760 0 4619.86248783 0 5509
0.07250000 0.07249820 29132.39449951 0 1018.85595445 0 10256.79029446 0 404.76796437 0 3736.84192901 0 5916
0.07350000 0.07351270 28206.16487928 0 1196.56727031 0 10477.83769108 0 -38.86331343 0 2572.73765801 0 5721
0.07450000 0.07449140 27680.88927062 0 449.89917705 0 8312.12399605 0 -357.68537472 0 679.75811979 0 6028
0.07550000 0.07549160 27111.77512411 0 408.05135845 0 9259.32867054 0 590.34436355 0 757.58276512 0 6183
0.07650000 0.07648840 27258.12839662 0 404.56675672 0 8581.67480058 0 -244.40322071 0 -1337.13160771 0 6330
0.07750000 0.07749960 26230.50810680 0 278.15552266 0 8857.91379229 0 411.13354488 0 -1260.59401688 0 6583
0.07850000 0.07848650 26815.47157084 0 -158.54488230 0 7638.91018312 0 477.64784745 0 -1556.54910997 0 6549
0.07950000 0.07947320 26491.85323629 0 -11.26257000 0 8833.06071352 0 607.16037704 0 -607.08618874 0 6828
0.08050000 0.08048110 26677.21156685 0 104.08527839 0 8986.70916836 0 343.24338666 0 -1108.99360860 0 7147
0.08150000 0.08149960 26541.87413205 0 650.44812300 0 10223.58541220 0 -122.55681492 0 315.13726357 0 7386
0.08250000 0.08250610 25793.58401288 0 1029.88078469 0 11212.69523262 0 -968.28539088 0 1500.98657341 0 7227
0.08350000 0.08350160 25425.00307541 0 1010.18941274 0 11399.48112582 0 408.94499018 0 1802.69687968 0 7798
0.08450000 0.08449610 24704.47736356 0 580.68302424 0 11631.03853088 0 850.44402894 0 2935.01259042 0 7371
0.08550000 0.08548940 24570.82602637 0 436.28787308 0 11234.07495031 0 1509.07984194 0 1960.63926310 0 8256
0.08650000 0.08650700 23805.00049206 0 535.17749789 0 10642.06359826 0 2252.42407478 0 3138.01874262 0 8037
0.08750000 0.08749060 23146.07354621 0 719.30385312 0 9411.86430096 0 1671.61965151 0 2314.13524729 0 8155
0.08850000 0.08849210 22286.61339132 0 986.95835987 0 8551.26884035 0 1604.04085931 0 3652.96419326 0 8718
0.08950000 0.08949900 21332.16973775 0 803.83804288 0 7857.90054066 0 975.00392782 0 2735.40111474 0 8571
0.09050000 0.09049190 20615.12862762 0 521.85283051 0 7895.10709458 0 1014.31697969 0 3926.84264832 0 8932
0.09150000 0.09150830 20158.53339493 0 80.04501107 0 7132.36149857 0 293.98348296 0 3073.27259441 0 9285
0.09250000 0.09250820 20293.98323624 0 -21.15243173 0 7273.58903436 0 -536.28919825 0 2815.97409918 0 9204
0.09350000 0.09350330 20224.74082774 0 451.96071240 0 7670.13671085 0 -516.62030760 0 2224.09763494 0 9349
0.09450000 0.09448040 19932.48390873 0 582.88394366 0 7905.62834366 0 -1211.85455531 0 1732.63390367 0 9564
0.09550000 0.09549270 19342.68696487 0 604.31424427 0 7846.82849969 0 -338.76735954 0 2122.72944664 0 10155
0.09650000 0.09649430 19136.08380444 0 367.55466606 0 8519.59268659 0 54.67261424 0 1843.32059142 0 9913
0.09750000 0.09749140 18873.38979686 0 30.39438236 0 7940.20458531 0 1489.77964463 0 2540.30838065 0 10476
0.09850000 0.09850240 18983.21095450 0 207.86773364 0 8880.36137180 0 1468.15263263 0 2687.78571824 0 10575
0.09950000 0.09950330 18422.63970254 0 434.29378164 0 7746.17971304 0 986.52334669 0 3649.79432975 0 10882
0.10050000 0.10051200 18186.69844370 0 541.40931465 0 7871.82770691 0 1056.67624790 0 4287.13922620 0 10875
0.10150000 0.10150300 17577.67998709 0 289.50633177 0 7402.81155516 0 -46.26989060 0 3362.92168244 0 11118
0.10250000 0.10250800 17420.53568988 0 83.27962073 0 7203.30124534 0 718.04152804 0 3517.36822349 0 11575
0.10350000 0.10349800 17140.75589318 0 160.76378675 0 6617.66334225 0 -198.21089060 0 1930.71665086 0 11364
0.10450000 0.10450100 16959.55660340 0 222.13436755 0 5540.83148353 0 273.36138513 0 1422.42566545 0 12093
0.10550000 0.10551000 16694.38965265 0 476.14384838 0 4901.60939841 0 271.38865092 0 345.88493958 0 12067
0.10650000 0.10649700 15970.94137161 0 369.23289521 0 4305.03434216 0 223.51921572 0 -1133.43977581 0 12054
0.10750000 0.10749900 16298.49393391 0 117.92117056 0 4573.92194830 0 -190.93144519 0 -461.21738827 0 12807
0.10850000 0.10850100 15903.38506071 0 21.20953424 0 4198.01210655 0 -372.92095272 0 -1943.12632926 0 12736
0.10950000 0.10950300 16205.87097188 0 83.33998302 0 4728.18863893 0 -549.80720481 0 -798.80447948 0 12933
0.11050000 0.11050200 16090.54189538 0 8.80239622 0 4689.41963456 0 -10.77216289 0 -1283.73851673 0 13428
0.11150000 0.11150900 16186.19983311 0 127.78933784 0 4960.36427978 0 388.69383382 0 -317.18306200 0 13453
0.11250000 0.11250000 16058.61844731 0 281.06685120 0 4478.67991465 0 722.61422476 0 -1417.78327670 0 13668
0.11350000 0.11349100 15488.60504874 0 428.34410521 0 4623.75175299 0 379.52483502 0 -865.92240500 0 13791
0.11450000 0.11448600 15085.40290702 0 537.11763420 0 4560.41068612 0 222.73349423 0 -1061.24782055 0 14205
0.11550000 0.11549300 14580.02325015 0 578.23256238 0 4559.87113488 0 145.63724307 0 -482.76009540 0 14776
0.11650000 0.11649800 14301.81714456 0 332.99303725 0 4744.82480201 0 26.15879276 0 -3.23863381 0 14553
0.11750000 0.11747300 13946.72498797 0 179.92572406 0 4839.67341288 0 -59.24531096 0 -374.68798301 0 14568
0.11850000 0.11849100 14000.68011148 0 10.50163415 0 4494.74280455 0 206.99995541 0 232.10594881 0 16015
0.11950000 0.11950300 13957.51601267 0 117.12196029 0 4594.95320581 0 93.55582363 0 -213.73647739 0 15270
0.12050000 0.12050700 13858.93550576 0 79.99409093 0 3907.78974533 0 579.99959268 0 176.89524462 0 15999
0.12150000 0.12150000 13790.92956884 0 162.98831153 0 4144.58529363 0 44.83468432 0 -182.75949211 0 15670
0.12250000 0.12250700 13522.72764240 0 89.45871884 0 3903.01246877 0 417.71944214 0 -187.25125614 0 16887
0.12350000 0.12352200 13380.42100414 0 136.51095874 0 3855.76801374 0 -13.36479650 0 -604.14113825 0 16407
0.12450000 0.12449800 13501.93243854 0 252.50098550 0 3921.46961727 0 -378.10626490 0 -192.69285516 0 16306
0.12550000 0.12549900 13305.55827027 0 34.95561361 0 4074.74713064 0 -133.64459280 0 -242.36304261 0 17523
0.12650000 0.12650100 13305.67067678 0 34.14932173 0 4511.78363106 0 0.37840639 0 796.27870526 0 17154
0.12750000 0.12750600 13299.82553840 0 175.40585840 0 4202.71069856 0 470.01544560 0 213.98152358 0 18007
0.12850000 0.12850300 13211.92364969 0 127.46448303 0 4632.65434837 0 606.44547165 0 1287.15567456 0 17496
0.12950000 0.12949900 13006.89418035 0 238.88293714 0 4063.09057583 0 583.96417019 0 1302.56660671 0 18405
0.13050000 0.13049000 12967.21468327 0 104.64629926 0 4249.31443649 0 718.52262790 0 1656.39981042 0 18100
0.13150000 0.13148800 12751.95622177 0 -50.01932206 0 3715.04630724 0 602.24596454 0 1857.21403573 0 19059
0.13250000 0.13249300 12975.53276481 0 -16.22913912 0 3806.90490502 0 -53.65567257 0 1363.44597107 0 18957
0.13350000 0.13349100 12849.74988313 0 183.29117488 0 3687.22569668 0 -356.58266688 0 1593.29479721 0 19468
0.13450000 0.13450700 12765.10778313 0 391.00603568 0 4140.28012440 0 -507.96275840 0 1342.75193307 0 19953
0.13550000 0.13551000 12476.44787236 0 423.90854443 0 4126.52156790 0 -310.67809742 0 1512.90166319 0 19956
0.13650000 0.13649900 12087.63376357 0 346.31658057 0 4359.58522016 0 113.07869822 0 1276.30844660 0 19723
0.13750000 0.13749600 11977.13816689 0 138.08689797 0 4483.26610015 0 413.17597111 0 839.49338700 0 20946
0.13850000 0.13851100 11752.66237179 0 -1.47522300 0 3902.33802972 0 772.67783499 0 413.66943568 0 20955
0.13950000 0.13949800 11729.16941176 0 -7.76589581 0 3635.44001877 0 587.86355193 0 263.07056938 0 20506
0.14050000 0.14048300 11775.36848626 0 -89.22952197 0 3323.71429269 0 470.44933472 0 397.71782823 0 21447
0.14150000 0.14148400 11715.68063088 0 -25.98546192 0 2399.57543350 0 484.73957399 0 64.68769683 0 21771
0.14250000 0.14249400 11649.69801109 0 51.92483717 0 2319.87921981 0 267.60279976 0 -237.64758962 0 22470
0.14350000 0.14350900 11459.61860723 0 205.86802188 0 1909.76407789 0 109.07904988 0 -546.13713235 0 22519
0.14450000 0.14449900 11310.11795251 0 272.22270721 0 2124.34810035 0 -182.95058317 0 -376.58428079 0 22218
0.14550000 0.14550500 11140.56397688 0 326.93994684 0 2141.89475614 0 -213.66566129 0 -260.29862491 0 23559
0.14650000 0.14650700 10866.83165028 0 234.99704418 0 2459.29701083 0 -209.61790296 0 74.93512366 0 23044
0.14750000 0.14750500 10774.72575819 0 235.62652062 0 2594.34218871 0 -77.89703513 0 329.41513813 0 23649
0.14850000 0.14849900 10534.28823906 0 267.31054284 0 3101.03700171 0 -5.59240359 0 308.32093297 0 23640
0.14950000 0.14949500 10360.03567142 0 346.19068528 0 3066.04485599 0 38.87354242 0 573.55420355 0 24457
0.15050000 0.15050000 10256.73409121 0 218.77678518 0 3250.78495075 0 -112.34445892 0 636.51758455 0 24591
0.15150000 0.15149900 10000.08755372 0 186.59367807 0 3280.98857927 0 66.74237537 0 1206.82998443 0 25020
0.15250000 0.15250500 9849.23802091 0 120.67850218 0 3051.20719702 0 175.56547564 0 437.17588449 0 25297
0.15350000 0.15350100 9850.73302745 0 23.97372266 0 3165.59205886 0 -69.08009351 0 677.69208818 0 25452
0.15450000 0.15450400 9895.00995068 0 15.63293500 0 3055.25383129 0 -73.81184543 0 254.57938182 0 26061
0.15550000 0.15549900 10039.60968169 0 -11.63261222 0 3085.24388744 0 -198.45818492 0 -7.74113266 0 26128
0.15650000 0.15649500 9922.96544905 0 -30.22240040 0 3053.85999060 0 -149.79515977 0 -729.16302788 0 26331
0.15750000 0.15749700 10013.36276223 0 -17.93850488 0 2868.81639826 0 55.98979370 0 -807.09558346 0 27345
0.15850000 0.15849900 9986.52008828 0 101.37987857 0 2893.39970141 0 149.48042155 0 -901.23378520 0 26980
0.15950000 0.15949700 9955.42844836 0 24.22067976 0 2438.64793544 0 511.33270549 0 -947.94768151 0 27777
0.16050000 0.16050000 9772.53182032 0 101.51442916 0 2208.83283124 0 565.91056105 0 -1119.15852906 0 28224
0.16150000 0.16150500 9618.60234921 0 170.13174507 0 1638.07754973 0 598.06444247 0 -1046.86765607 0 28075
0.16250000 0.16249700 9414.32600347 0 184.77156859 0 1572.81433158 0 338.51781709 0 -1072.79309292 0 28590
0.16350000 0.16349900 9174.85518030 0 264.44642503 0 1339.17740614 0 44.76937614 0 -348.66250437 0 29163
0.16450000 0.16449100 8983.22456664 0 268.17944514 0 1390.60338323 0 -63.74269532 0 -643.77792086 0 28996
0.16550000 0.16550500 8775.13764031 0 141.12861806 0 1401.02346646 0 -100.15015138 0 -428.19123236 0 30777
0.16650000 0.16650700 8728.02807309 0 140.81387984 0 1555.36884165 0 -120.80439747 0 -613.61588275 0 29211
0.16750000 0.16749900 8721.48601437 0 20.17606881 0 1624.54380625 0 42.24719893 0 -342.42394322 0 30922
0.16850000 0.16850800 8626.91841977 0 52.39435915 0 1784.00367752 0 -22.26896557 0 -402.11629486 0 30867
0.16950000 0.16949900 8683.60502140 0 52.02263084 0 1747.73009761 0 -69.38977343 0 -309.60124308 0 30852
0.17050000 0.17049200 8688.70827684 0 14.76999025 0 1978.08475304 0 253.94990538 0 -139.62911525 0 31257
0.17150000 0.17149500 8667.89059168 0 47.14947152 0 1760.39831098 0 201.68987200 0 -159.82744055 0 32608
0.17250000 0.17250900 8700.07257472 0 35.04632566 0 1810.53161324 0 320.12361623 0 -137.28993583 0 32361
0.17350000 0.17350400 8543.53527264 0 174.49311756 0 1655.12961688 0 -85.27135163 0 -364.56690109 0 32508
0.17450000 0.17449800 8514.81541003 0 181.22289515 0 1727.10350352 0 -93.40452447 0 -38.72291770 0 32791
0.17550000 0.17549800 8302.60316488 0 167.24402190 0 1735.39910375 0 -117.01180191 0 -279.84724060 0 33633
0.17650000 0.17650100 8202.80866769 0 142.43253354 0 1857.61869915 0 -134.17852371 0 -38.85184797 0 33984
0.17750000 0.17750300 8131.83519897 0 154.14304347 0 2092.25604251 0 -97.66079687 0 -278.46576462 0 34069
