### header ###
fiducial parameters:
Omega_m = 0.31
Omega_nu = 0
Omega_de = 0.69
Omega_k = 0
H_0 = 100
w_de = -1
zeff = 0
beta = 0
fgrowth = 0
b_1 = 2
gamma = 0.55
Lx = 3500 Ly = 3500 Lz = 3500
nx = 700 ny = 700 nz = 700
xoffset = 857.220397 yoffset = 15.9954215 zoffset = 262.898189
bins = 400 dk = 0.001
kx_ny = 0.628318531 ky_ny = 0.628318531 kz_ny = 0.628318531
############################
A(data) = 3.10103847 (not used)
A(ran) = 3.10441868 (used)
Ngal = 189309
weighted Ngal = 0
Nran = 9360983
weighted Nran = 0
SN(data) = 3432.64438
SN(ran) = 69.7135767
SN(data+ran) = 3502.35796
############################
13 columns: k_central k_mean P_0(k) sigma^{lin}_{P_0(k)} P^img_1(k) sigma^{lin}_{P_1(k)} P_2(k) sigma^{lin}_{P_2(k)} P^img_3(k) sigma^{lin}_{P_3(k)} P_4(k) sigma^{lin}_{P_4(k)} N_modes
### header ###
0.00050000 0 0 0 0 0 0 0 0 0 0 0 0
0.00150000 0.00179520 7606.96425374 0 -9498.50723680 0 -249.20635077 0 22877.53440025 0 40824.91938989 0 3
0.00250000 0.00253879 15816.04520453 0 -11313.04052170 0 9526.39529126 0 -11052.59464426 0 -18858.21491837 0 6
0.00350000 0.00331552 24687.72879397 0 -11019.41224330 0 2939.64373852 0 16618.40285371 0 15162.73858405 0 7
0.00450000 0.00420575 34438.99330310 0 -9974.00924402 0 6906.62675060 0 7553.14401804 0 -454.18298905 0 24
0.00550000 0.00557378 48067.94509491 0 -12668.43818684 0 -5860.00976103 0 16541.17958319 0 23227.11863798 0 45
0.00650000 0.00659388 50362.61153513 0 -7721.00065540 0 -6693.49277208 0 12307.95051790 0 -32196.25866926 0 40
0.00750000 0.00754703 63561.83324949 0 -14396.57583022 0 -31561.49912248 0 19200.60513964 0 18468.27674451 0 57
0.00850000 0.00846663 67383.65449803 0 -12528.60449175 0 -36705.33330349 0 6327.27237127 0 -454.97657899 0 75
0.00950000 0.00948925 74274.73542866 0 -1398.39315419 0 -47888.65671575 0 -7278.18646051 0 19765.44783887 0 112
0.01050000 0.01054430 66954.37404661 0 -256.69936855 0 -39584.73839474 0 -10094.86872068 0 6893.14921037 0 105
0.01150000 0.01145670 66997.76295843 0 5014.75778866 0 -41583.77572074 0 -18570.00463363 0 18933.41487176 0 144
0.01250000 0.01249090 64907.33914199 0 1288.94293802 0 -29049.43849712 0 -22641.93036093 0 -1978.68050753 0 169
0.01350000 0.01339930 63612.07895826 0 -389.61331905 0 -17118.83662426 0 -28462.11449642 0 4434.13321581 0 180
0.01450000 0.01448870 67359.82431848 0 1681.00559487 0 -9883.90418776 0 -34341.64926777 0 -20177.41768816 0 267
0.01550000 0.01550050 76073.68917165 0 -519.14383369 0 1421.53765404 0 -43503.90367860 0 -42187.28625848 0 238
0.01650000 0.01653350 69474.86516002 0 2081.22896414 0 11345.30118930 0 -28795.51219710 0 -41544.99547571 0 315
0.01750000 0.01747870 77316.45551647 0 1879.24571116 0 21694.45591081 0 -23672.47321995 0 -72667.99681317 0 297
0.01850000 0.01844180 73174.61294162 0 -1731.93698333 0 18161.51938606 0 -9136.89550278 0 -78518.19348612 0 388
0.01950000 0.01947590 71905.31866108 0 1861.18198543 0 21582.27421652 0 -10577.44109721 0 -84870.62243372 0 399
0.02050000 0.02045430 68504.57218892 0 410.35569185 0 17238.32474153 0 -9423.49837447 0 -83124.94937520 0 462
0.02150000 0.02154770 70668.84708067 0 937.17688998 0 24232.25762635 0 -5152.09605930 0 -79689.35688578 0 571
0.02250000 0.02255340 70671.76964986 0 853.78699847 0 32224.69751561 0 -17010.70156422 0 -70602.75205437 0 510
0.02350000 0.02348930 70899.84245319 0 3189.17494410 0 24736.96284417 0 -11920.71010022 0 -67087.01372524 0 555
0.02450000 0.02439640 69271.18456878 0 3344.36336809 0 34775.42597948 0 -13533.51866710 0 -59744.05863522 0 592
0.02550000 0.02547300 66108.73989212 0 5718.43376508 0 36834.48838038 0 -5451.77180778 0 -47648.55641613 0 837
0.02650000 0.02652900 61050.55946968 0 5040.55508209 0 34345.35868251 0 5167.10232802 0 -45285.99644550 0 723
0.02750000 0.02749970 56641.41422045 0 3332.29090920 0 29588.87732570 0 7930.96477041 0 -45380.75513116 0 826
0.02850000 0.02848090 53163.89410380 0 2351.33056056 0 22470.96006331 0 9858.79257403 0 -37454.97230074 0 831
0.02950000 0.02946900 53399.94776915 0 -2357.54664041 0 20083.33344154 0 9763.34820867 0 -33438.91260757 0 996
0.03050000 0.03053250 55279.15975836 0 -1720.46027893 0 13828.58574879 0 5191.56198401 0 -24442.45779502 0 1041
0.03150000 0.03150510 57117.00615288 0 -4005.69581319 0 19139.11878014 0 1484.50777944 0 -23922.01566617 0 1036
0.03250000 0.03246190 62743.51387628 0 374.45305341 0 17156.94243023 0 -8974.59174688 0 -11223.31764756 0 1059
0.03350000 0.03345080 60473.68927417 0 3437.28982768 0 31577.57325302 0 -1144.83779565 0 -6551.10744928 0 1302
0.03450000 0.03451200 58159.23928866 0 6588.60626011 0 32042.71138027 0 -3876.21475742 0 -1201.68176640 0 1339
0.03550000 0.03553350 52401.10354520 0 3310.23675247 0 39834.61806049 0 7129.92227737 0 3564.36538419 0 1365
0.03650000 0.03647120 51385.06112562 0 2324.82510614 0 34368.73923603 0 8788.99736266 0 3035.03190062 0 1308
0.03750000 0.03744890 48421.57596691 0 301.61925700 0 29415.32167841 0 9955.21487600 0 1071.06652897 0 1579
0.03850000 0.03847530 50421.28773195 0 -87.15258694 0 25674.54552164 0 7004.30800545 0 3837.07481158 0 1662
0.03950000 0.03950240 47741.85381720 0 802.04403502 0 20847.13565871 0 2299.29758833 0 4425.39923019 0 1683
0.04050000 0.04050350 46811.46515620 0 1718.63929351 0 19904.49468841 0 2219.56765269 0 2420.77530078 0 1822
0.04150000 0.04152450 46505.26983029 0 1277.19645801 0 20002.40075628 0 4193.30227389 0 1880.87560552 0 1887
0.04250000 0.04250150 43728.82909973 0 2675.53340894 0 20912.21902644 0 2217.60053881 0 2626.52417176 0 1920
0.04350000 0.04349210 41938.86787733 0 2691.80987120 0 18814.82600655 0 1580.31184562 0 2052.44165762 0 2005
0.04450000 0.04448520 39864.06856540 0 1064.55931626 0 19811.19728734 0 1684.88361937 0 -151.55656974 0 2151
0.04550000 0.04548030 39032.59763083 0 49.15255548 0 16966.86302637 0 840.55900069 0 -2184.49682241 0 2274
0.04650000 0.04648670 40616.40531883 0 -1511.17060297 0 17446.61399957 0 -1523.99618546 0 -2889.80269318 0 2311
0.04750000 0.04749250 40334.04017246 0 -1011.50232074 0 15030.21131193 0 -694.60589534 0 -11382.95736925 0 2568
0.04850000 0.04851840 43175.00223822 0 -314.59096794 0 16930.55572451 0 -4706.16820415 0 -10449.79226751 0 2493
0.04950000 0.04949480 41683.03066669 0 1021.65262835 0 13428.53098927 0 -1885.46179101 0 -14253.81956594 0 2644
0.05050000 0.05050630 41002.52167144 0 2264.31668325 0 17224.83596065 0 -1400.06801115 0 -10092.81168160 0 2829
0.05150000 0.05149060 40507.82063277 0 275.67471105 0 15938.23107798 0 4339.57686186 0 -6195.04859672 0 2784
0.05250000 0.05249300 40009.41017935 0 111.82941230 0 18235.37046136 0 6219.87919419 0 -2888.11659557 0 3055
0.05350000 0.05348950 40882.13430211 0 -124.49919937 0 15585.16223852 0 5167.25969713 0 -841.76961877 0 3009
0.05450000 0.05448610 40113.61101163 0 -46.38769262 0 18341.81942379 0 4980.58621044 0 6987.43578870 0 3336
0.05550000 0.05550870 41139.88242337 0 652.40399623 0 17504.61575734 0 613.22920437 0 8542.01778480 0 3349
0.05650000 0.05647670 39538.42691372 0 997.19522049 0 16879.29835718 0 3335.47201336 0 11428.70681772 0 3324
0.05750000 0.05747970 39176.47796019 0 829.83204769 0 16654.37293605 0 -207.54400290 0 8612.72147789 0 3639
0.05850000 0.05849280 36945.09638358 0 1170.01685329 0 13597.02834373 0 868.21549775 0 5671.59397348 0 3846
0.05950000 0.05951020 36508.95913522 0 1154.80825285 0 12968.00152882 0 -345.57357355 0 2517.09643689 0 3787
0.06050000 0.06049470 33576.94779854 0 1816.02829145 0 8393.06792196 0 -874.48328459 0 -3323.64684879 0 3930
0.06150000 0.06148310 33586.50235166 0 1537.27139397 0 10554.34155996 0 -1687.63757880 0 -2174.47016196 0 4083
0.06250000 0.06249100 31004.18765923 0 901.56988066 0 7105.03547665 0 -514.85440137 0 -6829.67325569 0 4303
0.06350000 0.06350600 30798.82097038 0 381.99665412 0 9147.57412098 0 1608.39099115 0 -3430.50047464 0 4470
0.06450000 0.06451750 31103.55501170 0 -150.71576907 0 9376.54617637 0 341.08855391 0 -5159.35751967 0 4479
0.06550000 0.06550280 30802.19316560 0 -493.67701539 0 8510.86994162 0 2986.30367970 0 -806.70328475 0 4636
0.06650000 0.06648880 32022.47820895 0 352.14485797 0 11797.84978773 0 919.19859320 0 -66.10323197 0 4653
0.06750000 0.06749660 31025.76970864 0 202.86564407 0 11070.97310821 0 2411.68161433 0 2058.36548056 0 5220
0.06850000 0.06852730 30688.99981274 0 943.24571731 0 11625.98023805 0 1044.34188185 0 4414.49579898 0 5029
0.06950000 0.06949320 30865.25321620 0 530.45642458 0 10469.69945996 0 439.54204147 0 4110.62728777 0 5040
0.07050000 0.07048030 29611.47103366 0 295.79659992 0 9909.45418687 0 1102.39422255 0 4203.90220753 0 5475
0.07150000 0.07148790 29395.31332011 0 423.79501386 0 8853.56366046 0 113.93860800 0 2283.98782203 0 5509
0.07250000 0.07249820 29224.79264852 0 186.96012328 0 7935.80949087 0 1452.88782893 0 814.28735180 0 5916
0.07350000 0.07351270 28503.70490413 0 918.31620212 0 8464.09759393 0 513.20314977 0 298.86529757 0 5721
0.07450000 0.07449140 27913.34592773 0 1232.36874289 0 8174.89813192 0 292.50196519 0 1609.73986923 0 6028
0.07550000 0.07549160 26410.02129897 0 1455.10223713 0 8799.15891092 0 -150.56964061 0 1526.95247660 0 6183
0.07650000 0.07648840 25719.05849854 0 1744.80752842 0 9985.83440859 0 -229.84545395 0 2955.32444629 0 6330
0.07750000 0.07749960 24286.43756287 0 1249.34212550 0 10803.62547122 0 142.54044379 0 3327.09772856 0 6583
0.07850000 0.07848650 23476.43627120 0 566.44561603 0 11548.98178054 0 184.67265086 0 5260.99548358 0 6549
0.07950000 0.07947320 23615.37071423 0 36.94880580 0 11008.11538932 0 816.40621446 0 5324.13421873 0 6828
0.08050000 0.08048110 23496.66944251 0 -355.92958507 0 9860.50115294 0 1984.95279063 0 4323.13178984 0 7147
0.08150000 0.08149960 23826.13291544 0 -315.53630667 0 9218.25533277 0 1829.76436664 0 4906.06069610 0 7386
0.08250000 0.08250610 23445.52448169 0 -27.06962268 0 8107.37554298 0 2050.73307871 0 3583.91287582 0 7227
0.08350000 0.08350160 23415.96157026 0 155.69874954 0 7151.54928937 0 1148.64837625 0 4122.80091251 0 7798
0.08450000 0.08449610 23138.65471673 0 547.03188815 0 6474.74970886 0 1065.09661936 0 3741.21454215 0 7371
0.08550000 0.08548940 22405.98910208 0 537.40202267 0 5927.86956950 0 -491.54916021 0 2408.95013621 0 8256
0.08650000 0.08650700 22279.75659438 0 409.36876271 0 7224.83833214 0 -1022.56986545 0 2500.90989984 0 8037
0.08750000 0.08749060 21639.15190922 0 342.72182046 0 7187.58681562 0 -1028.84889295 0 1379.77863658 0 8155
0.08850000 0.08849210 21772.46602689 0 106.70760980 0 7601.78231375 0 -859.63101278 0 2352.52206954 0 8718
0.08950000 0.08949900 21804.83910099 0 145.66422063 0 7647.19454270 0 -37.71069710 0 724.38462725 0 8571
0.09050000 0.09049190 21682.09119501 0 299.50376653 0 7163.30701004 0 844.80684260 0 575.09192457 0 8932
0.09150000 0.09150830 21390.50871505 0 429.71096834 0 6486.90085230 0 1025.08215089 0 949.73606904 0 9285
0.09250000 0.09250820 20924.13411622 0 602.25720519 0 5513.28064858 0 1277.01660760 0 368.38984641 0 9204
0.09350000 0.09350330 20465.17834687 0 509.48024625 0 5659.16181377 0 733.63231061 0 1609.53753752 0 9349
0.09450000 0.09448040 19801.08070168 0 50.23154555 0 4810.02057625 0 1235.57232835 0 365.09745981 0 9564
0.09550000 0.09549270 19602.68321628 0 10.10646907 0 4069.20548982 0 630.84330406 0 1173.01810703 0 10155
0.09650000 0.09649430 19910.22742028 0 211.54792269 0 3656.95462427 0 182.90337243 0 371.49114194 0 9913
0.09750000 0.09749140 19235.67596992 0 417.30466213 0 4060.24669119 0 -42.91837818 0 683.24496964 0 10476
0.09850000 0.09850240 19021.99119952 0 865.42219604 0 3776.33033503 0 -773.37250720 0 173.78608063 0 10575
0.09950000 0.09950330 18205.58273693 0 679.61199133 0 3464.69453416 0 -314.21665427 0 333.38421190 0 10882
0.10050000 0.10051200 17789.34144036 0 383.98287710 0 4348.27712552 0 -209.63139174 0 -218.91954144 0 10875
0.10150000 0.10150300 17357.02601325 0 424.10525582 0 3821.98985830 0 264.62515138 0 -778.30040848 0 11118
0.10250000 0.10250800 17348.37071218 0 319.42669589 0 4164.09906330 0 -311.09062931 0 -599.18288722 0 11575
0.10350000 0.10349800 16776.10918347 0 339.60703614 0 3646.15235891 0 323.25526153 0 -974.82070521 0 11364
0.10450000 0.10450100 16670.89669263 0 192.64789255 0 4805.05220863 0 131.42344022 0 -71.80606372 0 12093
0.10550000 0.10551000 16491.04628093 0 207.91831657 0 4365.98115042 0 195.71771427 0 -435.27958671 0 12067
0.10650000 0.10649700 16442.93629580 0 109.59870516 0 5428.91956485 0 -11.92014807 0 691.56754744 0 12054
0.10750000 0.10749900 16470.25107708 0 202.79033171 0 6121.54598159 0 -343.89871659 0 1558.13404173 0 12807
0.10850000 0.10850100 16599.18134096 0 188.84630448 0 6545.01501658 0 108.61739636 0 2546.14227838 0 12736
0.10950000 0.10950300 16479.13119115 0 6.35584611 0 7140.43228580 0 109.70942557 0 2898.95258287 0 12933
0.11050000 0.11050200 16678.87755464 0 100.52379061 0 6989.69515950 0 432.98199770 0 2778.45280704 0 13428
0.11150000 0.11150900 16435.06784029 0 270.39947366 0 7704.37573297 0 86.61843122 0 2604.31264591 0 13453
0.11250000 0.11250000 16179.11822314 0 536.04190393 0 7150.42522430 0 -271.37628621 0 2293.78966947 0 13668
0.11350000 0.11349100 15766.36152830 0 354.08611835 0 7546.61319996 0 78.93758216 0 2169.69288540 0 13791
0.11450000 0.11448600 15379.68314316 0 247.34602308 0 6449.69429838 0 73.74990945 0 1672.29409055 0 14205
0.11550000 0.11549300 15444.54169787 0 -53.51257909 0 6924.43194135 0 550.07585637 0 1763.32088017 0 14776
0.11650000 0.11649800 15368.44249243 0 -84.49777005 0 6463.45285488 0 247.26284226 0 914.53709534 0 14553
0.11750000 0.11747300 15331.57315803 0 117.17029509 0 6390.27621862 0 532.62924237 0 1517.92623406 0 14568
0.11850000 0.11849100 15218.94183770 0 193.34368883 0 5807.65080993 0 406.76542800 0 1419.93024099 0 16015
0.11950000 0.11950300 15179.26234062 0 66.49238330 0 6109.48476336 0 872.34643689 0 2078.80098359 0 15270
0.12050000 0.12050700 15131.48957502 0 -11.28505130 0 5384.45155056 0 863.55399989 0 2143.24363423 0 15999
0.12150000 0.12150000 15212.98429282 0 2.53530629 0 4793.76659529 0 640.22924742 0 1577.68153335 0 15670
0.12250000 0.12250700 14883.18360037 0 231.41914505 0 4693.10656800 0 335.15573846 0 1780.21557822 0 16887
0.12350000 0.12352200 14644.76939836 0 422.46974114 0 4365.74509676 0 -358.59024710 0 1113.36060141 0 16407
0.12450000 0.12449800 14248.76127311 0 433.94532147 0 4096.35166134 0 -370.90887624 0 797.56351164 0 16306
0.12550000 0.12549900 13898.95222236 0 435.75843843 0 4532.32029994 0 -515.47376122 0 135.71174847 0 17523
0.12650000 0.12650100 13627.94013324 0 162.82757023 0 4427.70356359 0 -208.58039090 0 79.47679618 0 17154
0.12750000 0.12750600 13448.65175408 0 142.56404916 0 4319.61346616 0 233.45932316 0 -564.53358134 0 18007
0.12850000 0.12850300 13472.81915315 0 81.16986299 0 4409.04408337 0 421.87398665 0 -141.94244117 0 17496
0.12950000 0.12949900 13220.24173123 0 93.99791842 0 3662.81100330 0 632.35854378 0 -352.75072904 0 18405
0.13050000 0.13049000 13145.60381037 0 66.54858656 0 3831.18471060 0 769.79460808 0 -169.04477415 0 18100
0.13150000 0.13148800 13013.97579031 0 56.40333724 0 3134.91632302 0 456.99652392 0 195.01854579 0 19059
0.13250000 0.13249300 13172.58137213 0 -64.41601030 0 3378.82720323 0 610.60451242 0 375.07578546 0 18957
0.13350000 0.13349100 13112.33148421 0 -10.43254911 0 3163.69238889 0 270.83448684 0 715.06500373 0 19468
0.13450000 0.13450700 13404.47599671 0 -98.62310898 0 3380.15360001 0 60.92174161 0 216.95917195 0 19953
0.13550000 0.13551000 13271.38669205 0 80.59883794 0 2980.12132180 0 18.63137859 0 784.76715485 0 19956
0.13650000 0.13649900 13368.84313389 0 200.43429131 0 3150.13616411 0 -508.82604038 0 665.53195222 0 19723
0.13750000 0.13749600 13162.68959948 0 435.65839664 0 2899.79563168 0 -41.34198932 0 404.87250242 0 20946
0.13850000 0.13851100 12820.41178472 0 470.83264091 0 3493.76285695 0 105.95145122 0 842.21137634 0 20955
0.13950000 0.13949800 12195.65641710 0 460.83183395 0 2735.55848385 0 205.65220138 0 513.87084443 0 20506
0.14050000 0.14048300 12067.28818575 0 284.65599098 0 2972.89358338 0 379.55968104 0 490.55211449 0 21447
0.14150000 0.14148400 11756.25938002 0 245.55089115 0 2652.38890909 0 90.56367481 0 226.26305856 0 21771
0.14250000 0.14249400 11699.15687431 0 188.89239114 0 3158.53293020 0 -30.46789621 0 928.94873365 0 22470
0.14350000 0.14350900 11556.40061002 0 217.16487586 0 3494.34737079 0 -534.72225153 0 780.50245196 0 22519
0.14450000 0.14449900 11414.99322383 0 259.78829937 0 3651.42422411 0 -137.44505681 0 1380.44183497 0 22218
0.14550000 0.14550500 11267.96551227 0 179.04445704 0 3999.95184067 0 -88.62825957 0 1561.15777677 0 23559
0.14650000 0.14650700 11274.93471572 0 72.75297613 0 3960.45219400 0 521.95624450 0 1577.47920164 0 23044
0.14750000 0.14750500 11162.34835800 0 -55.48441404 0 3773.49769104 0 738.63327612 0 1926.93979221 0 23649
0.14850000 0.14849900 11107.65135154 0 81.02373453 0 3520.03225771 0 493.31057018 0 1182.81995447 0 23640
0.14950000 0.14949500 11130.27878146 0 81.14198618 0 2943.60044758 0 391.42418788 0 1326.74524643 0 24457
0.15050000 0.15050000 10956.64444962 0 190.23564891 0 3117.06616966 0 146.56684488 0 896.00688261 0 24591
0.15150000 0.15149900 10657.36212391 0 264.61840699 0 2519.99652478 0 -403.13132562 0 571.51065325 0 25020
0.15250000 0.15250500 10613.08520068 0 218.44181379 0 3060.70554689 0 -429.06912718 0 424.30421534 0 25297
0.15350000 0.15350100 10273.99973073 0 237.71390946 0 3090.96537866 0 -599.44929064 0 81.85070921 0 25452
0.15450000 0.15450400 10276.41647064 0 226.58341711 0 3171.97674848 0 -398.72161834 0 75.99781478 0 26061
0.15550000 0.15549900 10089.31583922 0 147.70664687 0 3499.11340670 0 -92.84721301 0 -356.43653842 0 26128
0.15650000 0.15649500 10011.85651503 0 189.18352400 0 3708.49300787 0 -227.42871404 0 -456.04781300 0 26331
0.15750000 0.15749700 9883.44332108 0 97.71261627 0 3612.55405388 0 265.50529433 0 -446.69896379 0 27345
0.15850000 0.15849900 9706.66160703 0 72.76567807 0 3619.79303295 0 230.27821901 0 -375.98065785 0 26980
0.15950000 0.15949700 9825.90242999 0 -95.21381961 0 3262.34033970 0 526.95833407 0 53.36442731 0 27777
0.16050000 0.16050000 9920.71731890 0 -118.53940635 0 3389.57326533 0 762.43198185 0 -184.33430727 0 28224
0.16150000 0.16150500 9983.18161502 0 -29.39205353 0 3002.35532895 0 399.49160291 0 302.29369604 0 28075
0.16250000 0.16249700 9911.88216743 0 100.23580514 0 2829.21558574 0 382.74190926 0 389.47393498 0 28590
0.16350000 0.16349900 9848.38373145 0 232.61964655 0 2704.12962440 0 100.59067248 0 811.03205935 0 29163
0.16450000 0.16449100 9626.34715756 0 263.88551656 0 2808.67891685 0 11.36856934 0 973.70900486 0 28996
0.16550000 0.16550500 9391.51872314 0 170.21267776 0 2686.21202714 0 -52.40515018 0 548.94055064 0 30777
0.16650000 0.16650700 9255.16962977 0 223.55518580 0 2757.11805195 0 -5.79227360 0 256.23288154 0 29211
0.16750000 0.16749900 9019.10472377 0 277.78345712 0 2518.51275888 0 35.10511427 0 243.33311076 0 30922
0.16850000 0.16850800 8717.66419312 0 284.30753081 0 2439.98557287 0 181.63205484 0 -17.11456518 0 30867
0.16950000 0.16949900 8511.73547173 0 243.91650054 0 2220.71419907 0 269.28552517 0 365.31552843 0 30852
0.17050000 0.17049200 8314.32716359 0 86.90933926 0 1901.09753618 0 461.18029413 0 -5.24483143 0 31257
0.17150000 0.17149500 8280.97615287 0 -76.44451824 0 1588.91094343 0 617.36688790 0 192.11733384 0 32608
0.17250000 0.17250900 8253.31291142 0 -29.35630826 0 1348.41722104 0 330.29415701 0 46.06632242 0 32361
0.17350000 0.17350400 8331.61528441 0 111.08157181 0 1381.98180412 0 -26.86020936 0 -144.31646661 0 32508
0.17450000 0.17449800 8114.00752691 0 190.02882093 0 1324.24982197 0 -336.97335168 0 -88.65546194 0 32791
0.17550000 0.17549800 8005.88370753 0 196.87774942 0 1507.66351994 0 -350.75776167 0 -236.57073528 0 33633
0.17650000 0.17650100 7842.42216460 0 212.76865736 0 1665.89816029 0 -264.59255349 0 -194.74539798 0 33984
0.17750000 0.17750300 7817.09697850 0 95.67558554 0 1644.42851739 0 -55.09751084 0 -234.39117311 0 34069
