### header ###
fiducial parameters:
Omega_m = 0.31
Omega_nu = 0
Omega_de = 0.69
Omega_k = 0
H_0 = 100
w_de = -1
zeff = 0
beta = 0
fgrowth = 0
b_1 = 2
gamma = 0.55
Lx = 3500 Ly = 3500 Lz = 3500
nx = 700 ny = 700 nz = 700
xoffset = 857.220397 yoffset = 15.9954215 zoffset = 262.898189
bins = 400 dk = 0.001
kx_ny = 0.628318531 ky_ny = 0.628318531 kz_ny = 0.628318531
############################
A(data) = 3.0983762 (not used)
A(ran) = 3.09634787 (used)
Ngal = 188926
weighted Ngal = 0
Nran = 9360983
weighted Nran = 0
SN(data) = 3446.04015
SN(ran) = 69.5323364
SN(data+ran) = 3515.57248
############################
13 columns: k_central k_mean P_0(k) sigma^{lin}_{P_0(k)} P^img_1(k) sigma^{lin}_{P_1(k)} P_2(k) sigma^{lin}_{P_2(k)} P^img_3(k) sigma^{lin}_{P_3(k)} P_4(k) sigma^{lin}_{P_4(k)} N_modes
### header ###
0.00050000 0 0 0 0 0 0 0 0 0 0 0 0
0.00150000 0.00179520 76902.68716306 0 -90040.19770491 0 -88941.31168945 0 161393.26319557 0 -24889.83569411 0 3
0.00250000 0.00253879 138437.60627274 0 -94149.55479914 0 -27296.12179610 0 -119606.14410311 0 60881.38767618 0 6
0.00350000 0.00331552 177921.51603042 0 -58916.07230237 0 -96239.97861559 0 -50561.57105307 0 -18747.04488264 0 7
0.00450000 0.00420575 208779.35041714 0 -15683.85515194 0 -54371.13999231 0 -116455.38970321 0 28619.48360665 0 24
0.00550000 0.00557378 192497.26783330 0 27669.42380687 0 -22977.35137874 0 -103780.88156498 0 45373.33630167 0 45
0.00650000 0.00659388 169390.98619067 0 40284.58130925 0 101986.08686276 0 -19419.46060937 0 14879.58659213 0 40
0.00750000 0.00754703 133094.92498030 0 30546.13114195 0 73766.32079610 0 -12239.38254844 0 1758.97074834 0 57
0.00850000 0.00846663 136307.50295922 0 14931.96802454 0 138815.29213730 0 48855.57749163 0 44095.27431356 0 75
0.00950000 0.00948925 127330.71928545 0 7756.53235237 0 130749.00117274 0 30347.28403052 0 38774.06266402 0 112
0.01050000 0.01054430 116300.26872313 0 8181.12545243 0 156343.96288721 0 67283.83751954 0 59885.01639538 0 105
0.01150000 0.01145670 120096.23647498 0 10943.27931590 0 133064.57522333 0 57536.39483165 0 75921.15354123 0 144
0.01250000 0.01249090 107844.71402375 0 10632.81254271 0 135944.42994061 0 54020.31928300 0 67484.03350906 0 169
0.01350000 0.01339930 111225.45213761 0 8806.31920543 0 107346.86560288 0 52412.90622847 0 42951.76291470 0 180
0.01450000 0.01448870 92858.56606269 0 5531.87268489 0 101617.73073831 0 23935.95407308 0 44486.22414599 0 267
0.01550000 0.01550050 83774.32176793 0 9007.56057547 0 66186.86241470 0 42960.53062227 0 11845.06052080 0 238
0.01650000 0.01653350 82115.20172004 0 7119.14249332 0 74978.73738394 0 7865.57790511 0 15305.49484833 0 315
0.01750000 0.01747870 67568.67560906 0 9030.00815498 0 28118.71261659 0 18155.11221515 0 -15463.76321062 0 297
0.01850000 0.01844180 67568.56320255 0 5455.70603554 0 56226.18458245 0 3607.93414643 0 -3776.67879520 0 388
0.01950000 0.01947590 59635.24913614 0 3518.40236336 0 32992.09674101 0 9000.58013137 0 -7872.28857359 0 399
0.02050000 0.02045430 61262.89536199 0 522.95553835 0 43096.54249611 0 5837.11255549 0 -3583.73302540 0 462
0.02150000 0.02154770 60793.14856794 0 1237.80921785 0 40391.36749119 0 1345.04502582 0 5980.70062793 0 571
0.02250000 0.02255340 62035.35288022 0 2789.60353256 0 45891.19308085 0 14089.14403273 0 17598.02556492 0 510
0.02350000 0.02348930 60315.42091187 0 3033.93031685 0 59395.71086906 0 21.97805753 0 30561.86805297 0 555
0.02450000 0.02439640 63094.55939860 0 4566.22210255 0 60314.74647283 0 22065.95941747 0 37781.40079796 0 592
0.02550000 0.02547300 59435.83999217 0 2458.58884983 0 61284.58981790 0 21894.65190033 0 47510.97085119 0 837
0.02650000 0.02652900 53235.15982944 0 579.49825966 0 35097.02099690 0 26739.93439793 0 35574.97346598 0 723
0.02750000 0.02749970 57496.94014759 0 -5731.04577520 0 41073.33777104 0 25621.71446321 0 41305.79442816 0 826
0.02850000 0.02848090 59469.89916389 0 -6174.72550020 0 15886.18686510 0 14228.64050830 0 22779.74073889 0 831
0.02950000 0.02946900 63921.75888590 0 -3733.54841835 0 9242.80491397 0 7072.53875538 0 23618.63050294 0 996
0.03050000 0.03053250 66173.26122732 0 -2416.29028113 0 3977.30192945 0 -4879.81377664 0 10426.60280505 0 1041
0.03150000 0.03150510 68441.84935784 0 -817.45609124 0 5762.73316961 0 2451.93438460 0 18338.22241555 0 1036
0.03250000 0.03246190 66915.48139508 0 -1514.29550388 0 -1933.09966881 0 4902.27259680 0 14164.79361215 0 1059
0.03350000 0.03345080 66325.68445123 0 2574.23266456 0 3204.42850714 0 8050.59901614 0 12081.56381218 0 1302
0.03450000 0.03451200 64711.97663229 0 4318.99523037 0 -3870.57195076 0 5458.83093644 0 9526.87863924 0 1339
0.03550000 0.03553350 58083.36489622 0 6320.97760686 0 3566.96197451 0 -711.82544819 0 11341.25455503 0 1365
0.03650000 0.03647120 54827.28559898 0 6645.33782435 0 -1175.16507132 0 -8541.33210510 0 9988.03757613 0 1308
0.03750000 0.03744890 50147.24066713 0 4314.89239285 0 6274.63240390 0 -7643.06922389 0 6721.12229158 0 1579
0.03850000 0.03847530 47405.19632781 0 2940.48678732 0 5113.06851996 0 -6487.99119542 0 -771.16147120 0 1662
0.03950000 0.03950240 44633.25185755 0 1096.14217262 0 6739.65812464 0 -3595.99657535 0 -3344.88043802 0 1683
0.04050000 0.04050350 44663.60161452 0 200.58604010 0 6907.39111484 0 87.67449035 0 -9814.83038902 0 1822
0.04150000 0.04152450 41663.24712140 0 1434.89154711 0 5294.70619512 0 3853.35127384 0 -8417.97720398 0 1887
0.04250000 0.04250150 41555.78650042 0 2054.75723167 0 7096.94220812 0 1214.68719929 0 -10733.24775699 0 1920
0.04350000 0.04349210 37660.00177007 0 3474.57506616 0 5307.76783127 0 -1119.40020305 0 -6616.76409020 0 2005
0.04450000 0.04448520 36076.19408207 0 2836.16230789 0 10643.13146008 0 526.39854967 0 -6796.61450189 0 2151
0.04550000 0.04548030 34427.07821333 0 1257.05321190 0 8614.82347958 0 -1040.77634744 0 -2837.84840550 0 2274
0.04650000 0.04648670 33627.53072683 0 -850.10231316 0 6811.59828932 0 928.81834210 0 -7209.86578537 0 2311
0.04750000 0.04749250 36182.98026402 0 -1716.25627556 0 7678.36486718 0 808.13646772 0 -5510.93135258 0 2568
0.04850000 0.04851840 35941.19386679 0 -1452.74170047 0 2197.23247969 0 298.67195838 0 -7988.15720133 0 2493
0.04950000 0.04949480 37703.95271443 0 -884.31660585 0 3414.07788392 0 1301.86968636 0 -8087.08616841 0 2644
0.05050000 0.05050630 37736.21338202 0 -206.36148644 0 2428.13792700 0 -804.36747753 0 -5924.46365232 0 2829
0.05150000 0.05149060 39071.71509537 0 474.29026507 0 4267.16458985 0 960.29553634 0 -3536.80330860 0 2784
0.05250000 0.05249300 38033.19137434 0 -6.61651680 0 8079.25143485 0 -1603.79356500 0 1597.33019083 0 3055
0.05350000 0.05348950 39808.53975079 0 17.97391293 0 9561.18510527 0 2825.56237425 0 1860.78856266 0 3009
0.05450000 0.05448610 38629.28308260 0 439.96581400 0 12619.42894965 0 1013.89770341 0 6868.92560804 0 3336
0.05550000 0.05550870 38716.39812577 0 862.58505579 0 11372.16634454 0 2639.30479164 0 6241.45000294 0 3349
0.05650000 0.05647670 37303.56073539 0 1335.68156376 0 12272.54246810 0 -233.44471032 0 6748.20101919 0 3324
0.05750000 0.05747970 36614.39643907 0 1472.21050754 0 10866.68552182 0 1355.70116271 0 4915.16562319 0 3639
0.05850000 0.05849280 34701.12527815 0 1526.28927821 0 10147.55365066 0 -551.64729934 0 2919.00590378 0 3846
0.05950000 0.05951020 34369.52608159 0 1082.14194213 0 9837.62642870 0 -150.80569427 0 4866.79710309 0 3787
0.06050000 0.06049470 33667.54744344 0 812.23705711 0 11373.29040962 0 -993.81515682 0 1310.28893376 0 3930
0.06150000 0.06148310 33241.18956121 0 481.26846105 0 14522.47111841 0 -2306.43540154 0 4766.33940751 0 4083
0.06250000 0.06249100 33900.67853960 0 -83.38269750 0 15958.80146882 0 -1995.72133403 0 4815.37112600 0 4303
0.06350000 0.06350600 35045.08919052 0 -114.98623665 0 19471.72963527 0 -2302.31008272 0 6418.95111863 0 4470
0.06450000 0.06451750 34976.85844058 0 56.01227500 0 21155.35430175 0 -951.51096779 0 8285.28132210 0 4479
0.06550000 0.06550280 35979.52448579 0 -96.78683627 0 23786.11619884 0 -444.79479756 0 7752.09229533 0 4636
0.06650000 0.06648880 35660.96444407 0 182.66619470 0 22235.58083700 0 2079.13820311 0 5746.76020492 0 4653
0.06750000 0.06749660 34796.10877683 0 973.37290940 0 21458.85187149 0 1595.12702328 0 3674.33267030 0 5220
0.06850000 0.06852730 33718.35518474 0 994.19621488 0 18065.63663533 0 2662.17951587 0 1291.08990231 0 5029
0.06950000 0.06949320 33268.50434249 0 847.73278398 0 17827.11002682 0 2699.86941778 0 512.22296503 0 5040
0.07050000 0.07048030 31754.38868902 0 318.65109099 0 13655.59213404 0 2553.78592088 0 -1800.68480320 0 5475
0.07150000 0.07148790 31651.87395435 0 624.82393560 0 12226.11858058 0 3166.22153530 0 -3600.24554133 0 5509
0.07250000 0.07249820 30191.71342440 0 642.84944311 0 10210.63618256 0 911.42118696 0 -2278.77216009 0 5916
0.07350000 0.07351270 29381.48731971 0 1147.24329491 0 8551.08898994 0 1220.50985637 0 -3046.90202779 0 5721
0.07450000 0.07449140 28262.03091341 0 798.99669461 0 9049.10602057 0 871.47528646 0 -1221.49903364 0 6028
0.07550000 0.07549160 27857.25508059 0 807.01465078 0 7904.35815013 0 1513.22764206 0 -2276.97365597 0 6183
0.07650000 0.07648840 27188.32395558 0 353.62075541 0 8093.83055885 0 1635.23366509 0 -2032.79300014 0 6330
0.07750000 0.07749960 26368.43089127 0 585.01854323 0 7736.82749163 0 1139.70081827 0 -1093.75690653 0 6583
0.07850000 0.07848650 26580.87919008 0 531.09714167 0 8006.54690592 0 73.82825678 0 -101.97664472 0 6549
0.07950000 0.07947320 25604.51626759 0 564.64036752 0 8295.21805735 0 -224.17004940 0 1518.10608447 0 6828
0.08050000 0.08048110 25977.59346535 0 389.82351922 0 9863.87334816 0 -717.86842202 0 1210.94406260 0 7147
0.08150000 0.08149960 25910.03715446 0 163.18727105 0 9258.24956807 0 309.43937771 0 3297.32124478 0 7386
0.08250000 0.08250610 25668.47557025 0 87.73665115 0 10927.07029755 0 1238.52861949 0 4107.73844053 0 7227
0.08350000 0.08350160 26179.36314597 0 -318.17111520 0 9518.27954143 0 1357.61207334 0 5527.99466039 0 7798
0.08450000 0.08449610 25928.80904118 0 433.02696031 0 10392.55487399 0 2508.39617322 0 5042.06132929 0 7371
0.08550000 0.08548940 25431.29783982 0 930.15935173 0 9132.35427989 0 529.95621562 0 4703.83014879 0 8256
0.08650000 0.08650700 24235.18019554 0 1298.04786511 0 9929.04664110 0 15.00379578 0 6536.59576918 0 8037
0.08750000 0.08749060 23618.85531596 0 1167.06056215 0 9681.83100957 0 -1015.55457533 0 4392.63273331 0 8155
0.08850000 0.08849210 22461.06829067 0 677.46727517 0 10340.61182696 0 142.87991144 0 5941.66184794 0 8718
0.08950000 0.08949900 22144.86878560 0 190.97977998 0 9672.04040278 0 304.66434928 0 3694.28482534 0 8571
0.09050000 0.09049190 21875.09316806 0 204.00207386 0 9711.67493726 0 175.62280296 0 3407.69319431 0 8932
0.09150000 0.09150830 21847.66598028 0 329.73886887 0 9352.96329113 0 678.41148983 0 3103.22892861 0 9285
0.09250000 0.09250820 21020.91611901 0 678.61269748 0 8824.70891003 0 302.61630272 0 2952.40187710 0 9204
0.09350000 0.09350330 20874.56284649 0 579.90966747 0 8481.13842044 0 -60.56260282 0 3065.07816003 0 9349
0.09450000 0.09448040 20415.49467064 0 310.02838781 0 8764.62763187 0 505.52016500 0 2073.91130052 0 9564
0.09550000 0.09549270 20167.63832202 0 235.82098388 0 7791.42333223 0 515.72555180 0 2116.22110987 0 10155
0.09650000 0.09649430 19680.13129982 0 350.40817743 0 7637.69619284 0 604.30637582 0 -110.70444798 0 9913
0.09750000 0.09749140 19221.96237602 0 457.65522606 0 7179.39238123 0 -89.92396938 0 996.17456941 0 10476
0.09850000 0.09850240 18753.90167959 0 730.96378013 0 7200.56976721 0 153.50345045 0 -701.07488983 0 10575
0.09950000 0.09950330 18381.72373388 0 543.07855129 0 7417.85154584 0 442.76810823 0 11.75940676 0 10882
0.10050000 0.10051200 17196.39711430 0 491.26252361 0 6290.93134746 0 1195.67925891 0 -1050.05775275 0 10875
0.10150000 0.10150300 17390.74796544 0 403.97999475 0 6649.18212690 0 814.34243099 0 311.64142119 0 11118
0.10250000 0.10250800 16766.77944336 0 56.36590587 0 6563.06750165 0 740.78586073 0 581.43052752 0 11575
0.10350000 0.10349800 17105.90987591 0 25.49064848 0 6324.46220859 0 608.59580814 0 886.13421908 0 11364
0.10450000 0.10450100 16746.32145903 0 11.41656691 0 5280.67786301 0 282.83612963 0 562.17978907 0 12093
0.10550000 0.10551000 17143.34124285 0 123.81689187 0 6204.29965227 0 -486.47063421 0 498.42956252 0 12067
0.10650000 0.10649700 16586.59181214 0 598.49495939 0 5875.65674685 0 -646.04740824 0 582.57145357 0 12054
0.10750000 0.10749900 16503.07377721 0 582.47028771 0 6934.63845222 0 -634.03452481 0 652.88059982 0 12807
0.10850000 0.10850100 15640.46624012 0 562.39336144 0 6479.05487809 0 -420.59817279 0 737.70142617 0 12736
0.10950000 0.10950300 15844.03442485 0 164.99476769 0 7218.75714009 0 520.33646673 0 1238.41621299 0 12933
0.11050000 0.11050200 15731.40310453 0 -125.80311485 0 7260.85337708 0 876.15926562 0 1272.13816518 0 13428
0.11150000 0.11150900 15912.93961383 0 43.20512718 0 6992.02197420 0 911.73142892 0 1994.26004944 0 13453
0.11250000 0.11250000 15709.03420957 0 232.30490833 0 6827.97591743 0 839.70021497 0 1883.56212104 0 13668
0.11350000 0.11349100 15257.94689574 0 466.00028516 0 6805.95548265 0 209.88767858 0 2396.18075698 0 13791
0.11450000 0.11448600 15000.19877448 0 406.85760134 0 6451.26798948 0 413.24229095 0 1816.68024919 0 14205
0.11550000 0.11549300 14469.64005998 0 231.68554848 0 6146.08432214 0 489.17176258 0 1448.51521580 0 14776
0.11650000 0.11649800 14387.92052916 0 105.75631352 0 5189.29137256 0 323.80380528 0 328.81039112 0 14553
0.11750000 0.11747300 14260.78876939 0 31.10996218 0 4910.35462468 0 21.41950959 0 136.61662085 0 14568
0.11850000 0.11849100 14249.54811866 0 72.10607668 0 4789.50638867 0 108.74126833 0 -336.75640712 0 16015
0.11950000 0.11950300 14374.31934178 0 -5.13342534 0 4345.93907017 0 22.50007335 0 -874.30006199 0 15270
0.12050000 0.12050700 14185.25159648 0 -6.86519371 0 4417.51953403 0 -17.47617691 0 -827.05448290 0 15999
0.12150000 0.12150000 14310.58485213 0 202.56776682 0 3890.34425539 0 -83.96237785 0 -1212.66388216 0 15670
0.12250000 0.12250700 14042.83255172 0 250.05164771 0 3967.79233893 0 86.39013360 0 -962.25140957 0 16887
0.12350000 0.12352200 13640.30484904 0 320.97003723 0 4006.56134330 0 38.87500371 0 -2027.39748779 0 16407
0.12450000 0.12449800 13466.86160826 0 278.87155212 0 3881.39669741 0 -283.76123518 0 -1282.06365977 0 16306
0.12550000 0.12549900 13203.94278767 0 165.51296169 0 3554.12515138 0 380.76130660 0 -2346.28350838 0 17523
0.12650000 0.12650100 13191.01603933 0 38.05926968 0 3912.02747065 0 150.03795783 0 -1525.97453999 0 17154
0.12750000 0.12750600 13008.80509098 0 32.91948214 0 3450.29526058 0 203.09495334 0 -1729.05937674 0 18007
0.12850000 0.12850300 13167.07345327 0 -39.55607474 0 3712.46095758 0 354.07487770 0 -1321.18112432 0 17496
0.12950000 0.12949900 13244.40913030 0 42.84036807 0 3953.60663771 0 36.97780668 0 -1373.40518761 0 18405
0.13050000 0.13049000 13248.23095155 0 94.85153344 0 3965.72405920 0 7.32417196 0 -887.66407164 0 18100
0.13150000 0.13148800 13048.14736853 0 107.82234513 0 4470.06957619 0 289.17585664 0 -384.14361841 0 19059
0.13250000 0.13249300 13265.42914716 0 -65.57953006 0 4149.00286936 0 403.78328336 0 -492.42031064 0 18957
0.13350000 0.13349100 13158.19333919 0 -28.33801771 0 4344.81500510 0 379.04261110 0 -191.92174652 0 19468
0.13450000 0.13450700 13210.68717810 0 -7.79368270 0 3510.64631435 0 601.97056860 0 -282.72934345 0 19953
0.13550000 0.13551000 13088.05167863 0 246.44227476 0 3483.21912657 0 -38.33106862 0 -383.16568179 0 19956
0.13650000 0.13649900 13019.25889616 0 271.95405566 0 3190.02923355 0 -205.15424056 0 4.04300353 0 19723
0.13750000 0.13749600 12570.98174500 0 446.79563339 0 3647.10781423 0 -156.54179834 0 -329.60060886 0 20946
0.13850000 0.13851100 12375.39442228 0 375.27586904 0 3202.07921113 0 -148.53395876 0 -45.36771598 0 20955
0.13950000 0.13949800 12015.46878588 0 357.34815519 0 3541.53562256 0 99.77684937 0 -503.47436657 0 20506
0.14050000 0.14048300 11784.13619383 0 288.13047612 0 3583.64310020 0 -334.13845956 0 -581.70592346 0 21447
0.14150000 0.14148400 11734.90214363 0 126.75969423 0 3847.70846717 0 -247.22349998 0 -377.25197544 0 21771
0.14250000 0.14249400 11504.35639714 0 141.46808571 0 4039.38404344 0 -152.61656310 0 -703.04762403 0 22470
0.14350000 0.14350900 11540.32647948 0 150.89674354 0 4007.31446690 0 -160.31978105 0 -989.70332678 0 22519
0.14450000 0.14449900 11431.29216739 0 189.72981962 0 4450.71317563 0 104.38383007 0 -877.67225721 0 22218
0.14550000 0.14550500 11196.92459965 0 289.32760543 0 4590.88409025 0 160.63114708 0 -389.13334327 0 23559
0.14650000 0.14650700 10805.24412493 0 293.24834440 0 4119.17018232 0 708.27452662 0 -529.55717252 0 23044
0.14750000 0.14750500 10604.38493701 0 201.66514257 0 4012.90107031 0 953.04981288 0 -70.50866781 0 23649
0.14850000 0.14849900 10477.33186180 0 113.53057238 0 3547.09974467 0 837.95004565 0 -252.50210957 0 23640
0.14950000 0.14949500 10323.52603785 0 27.89333757 0 3060.84043470 0 615.44361256 0 136.71441452 0 24457
0.15050000 0.15050000 10296.70584521 0 -7.22201693 0 2820.95370745 0 210.83414137 0 222.56713260 0 24591
0.15150000 0.15149900 10282.05927730 0 52.34377623 0 2673.02674383 0 -133.63560028 0 138.74897230 0 25020
0.15250000 0.15250500 10246.63998685 0 73.77047984 0 2752.22836888 0 -194.52058496 0 17.54688060 0 25297
0.15350000 0.15350100 10182.01748580 0 213.12273786 0 2907.40555222 0 -195.01742173 0 -56.34387420 0 25452
0.15450000 0.15450400 9997.94058943 0 171.48624349 0 2880.25938071 0 120.14569534 0 -7.44833619 0 26061
0.15550000 0.15549900 9874.82174197 0 150.14361994 0 3018.83412292 0 280.63183802 0 -125.67047517 0 26128
0.15650000 0.15649500 9819.74255339 0 18.01685221 0 2543.55692871 0 334.17780184 0 -298.82595529 0 26331
0.15750000 0.15749700 9732.71743543 0 43.85326310 0 2436.09630772 0 192.83111516 0 -379.51022217 0 27345
0.15850000 0.15849900 9742.90146499 0 117.67500031 0 2349.72314750 0 -6.28860453 0 -252.95173559 0 26980
0.15950000 0.15949700 9625.18937054 0 145.03362012 0 2317.24890754 0 -231.28650538 0 -475.90442252 0 27777
0.16050000 0.16050000 9452.13955253 0 247.07062713 0 2452.11423501 0 -167.55426386 0 -327.95947386 0 28224
0.16150000 0.16150500 9355.60484405 0 206.72006320 0 2409.83814761 0 -87.06816965 0 -255.59890884 0 28075
0.16250000 0.16249700 9153.43050001 0 140.10009852 0 2333.91879258 0 101.30512824 0 -671.31639109 0 28590
0.16350000 0.16349900 9210.20702685 0 20.87388841 0 2379.90429472 0 111.64214306 0 -97.69103422 0 29163
0.16450000 0.16449100 9144.12324120 0 -18.01707702 0 2346.67693116 0 112.51441756 0 -596.21198323 0 28996
0.16550000 0.16550500 9259.91318438 0 3.12818317 0 2264.85623449 0 41.58827198 0 -193.02782655 0 30777
0.16650000 0.16650700 9169.09996713 0 121.03820301 0 2468.88528590 0 -198.53911760 0 -265.60646019 0 29211
0.16750000 0.16749900 9114.21186961 0 188.87215797 0 2316.50702459 0 30.43473629 0 21.59699947 0 30922
0.16850000 0.16850800 8980.34696005 0 214.26928423 0 2562.12648372 0 200.37471587 0 35.53866616 0 30867
0.16950000 0.16949900 8758.35534876 0 206.85382695 0 2398.30523996 0 280.02147069 0 319.25471393 0 30852
0.17050000 0.17049200 8648.93885455 0 145.57317136 0 2541.18515141 0 268.30871262 0 428.45651172 0 31257
0.17150000 0.17149500 8520.71675166 0 207.01569232 0 2367.67446672 0 117.97287755 0 566.72326010 0 32608
0.17250000 0.17250900 8431.06132143 0 130.84342264 0 2565.93706432 0 74.97502797 0 883.34878583 0 32361
0.17350000 0.17350400 8253.21174556 0 94.37661594 0 2481.11511390 0 -47.43678256 0 781.03413474 0 32508
0.17450000 0.17449800 8257.41574894 0 30.29591426 0 2618.92549186 0 92.74379902 0 963.42605757 0 32791
0.17550000 0.17549800 8203.24705307 0 23.75419275 0 2506.59766911 0 264.35312763 0 663.51088322 0 33633
0.17650000 0.17650100 8197.13213907 0 41.61524954 0 2352.39842238 0 247.28644763 0 759.14296744 0 33984
0.17750000 0.17750300 8181.51887520 0 20.90165281 0 2310.14481628 0 259.95690913 0 535.55181156 0 34069
