### header ###
fiducial parameters:
Omega_m = 0.31
Omega_nu = 0
Omega_de = 0.69
Omega_k = 0
H_0 = 100
w_de = -1
zeff = 0
beta = 0
fgrowth = 0
b_1 = 2
gamma = 0.55
Lx = 3500 Ly = 3500 Lz = 3500
nx = 700 ny = 700 nz = 700
xoffset = 857.220397 yoffset = 15.9954215 zoffset = 262.898189
bins = 400 dk = 0.001
kx_ny = 0.628318531 ky_ny = 0.628318531 kz_ny = 0.628318531
############################
A(data) = 3.07343498 (not used)
A(ran) = 3.07395495 (used)
Ngal = 187890
weighted Ngal = 0
Nran = 9360983
weighted Nran = 0
SN(data) = 3444.46745
SN(ran) = 69.0294756
SN(data+ran) = 3513.49692
############################
13 columns: k_central k_mean P_0(k) sigma^{lin}_{P_0(k)} P^img_1(k) sigma^{lin}_{P_1(k)} P_2(k) sigma^{lin}_{P_2(k)} P^img_3(k) sigma^{lin}_{P_3(k)} P_4(k) sigma^{lin}_{P_4(k)} N_modes
### header ###
0.00050000 0 0 0 0 0 0 0 0 0 0 0 0
0.00150000 0.00179520 38718.53384941 0 -49422.66832101 0 -49833.51410522 0 132983.64253806 0 -25287.41751047 0 3
0.00250000 0.00253879 71900.82240078 0 -55794.88081390 0 -14788.98694724 0 -41153.59601726 0 47058.42225276 0 6
0.00350000 0.00331552 94082.33570777 0 -38211.01846890 0 -39750.98761905 0 -35923.32123213 0 -29820.88435678 0 7
0.00450000 0.00420575 110680.16817065 0 -15357.76387423 0 -42907.13753130 0 -27148.41964549 0 5111.92197358 0 24
0.00550000 0.00557378 99104.88326739 0 14522.13389889 0 -48318.16198018 0 -32026.41243671 0 9882.98245440 0 45
0.00650000 0.00659388 84148.74784378 0 19963.95773078 0 -29844.71453633 0 -19430.47644708 0 -6076.50469411 0 40
0.00750000 0.00754703 63716.27979054 0 18854.28069061 0 -14539.21968800 0 -36687.91029485 0 -5051.03136857 0 57
0.00850000 0.00846663 52332.64798225 0 12659.10844673 0 6219.68810312 0 -34402.68600124 0 -12621.67707980 0 75
0.00950000 0.00948925 45831.28041246 0 2527.78629573 0 32601.48412811 0 -22332.25043329 0 -1170.35407281 0 112
0.01050000 0.01054430 60368.13956380 0 -5956.35337845 0 53294.96009133 0 -24892.08382426 0 -7099.74113015 0 105
0.01150000 0.01145670 68966.67534047 0 -9656.23604786 0 61221.08014127 0 15302.34746613 0 15521.09052935 0 144
0.01250000 0.01249090 81332.40280313 0 -7606.25609274 0 76139.67179144 0 21432.32393577 0 211.72552497 0 169
0.01350000 0.01339930 100103.72749135 0 -9682.75274293 0 71970.40202881 0 17226.52205826 0 12510.61945058 0 180
0.01450000 0.01448870 94685.84624552 0 5297.79737407 0 61381.14700768 0 35811.36435085 0 16312.65715383 0 267
0.01550000 0.01550050 98205.63120891 0 10457.07620918 0 49081.96419735 0 46374.42865578 0 21984.23988666 0 238
0.01650000 0.01653350 79213.76495335 0 8824.21432140 0 32283.82333845 0 26814.45991227 0 22180.16442890 0 315
0.01750000 0.01747870 78533.36836461 0 7883.69783409 0 37302.54907682 0 16307.82367401 0 8585.14816165 0 297
0.01850000 0.01844180 68120.92877947 0 -1408.02639187 0 17263.27898615 0 17853.30074302 0 2764.36827167 0 388
0.01950000 0.01947590 67673.32606737 0 171.91338821 0 -341.36844611 0 5713.72393242 0 -1375.41726409 0 399
0.02050000 0.02045430 66813.30387994 0 -1706.34202162 0 -4661.12691667 0 2204.34781160 0 -3169.13286384 0 462
0.02150000 0.02154770 69734.07456588 0 -3912.63446579 0 -14527.07978521 0 -2323.76848497 0 -15519.62924476 0 571
0.02250000 0.02255340 68225.24201826 0 -1161.84490021 0 -7363.78401582 0 -8929.73030981 0 -13456.74502261 0 510
0.02350000 0.02348930 74372.97871605 0 -379.19323582 0 -8862.52245909 0 -14464.80658016 0 -22811.66418697 0 555
0.02450000 0.02439640 73861.97873382 0 944.64068207 0 -4571.93235312 0 -10697.88466979 0 -21333.40620933 0 592
0.02550000 0.02547300 72956.20709792 0 2345.21564656 0 3220.14293686 0 -11805.04380419 0 -13211.58643016 0 837
0.02650000 0.02652900 72503.77090600 0 2116.38971963 0 14090.15569130 0 -5926.99279874 0 -20230.36115310 0 723
0.02750000 0.02749970 70744.94628612 0 211.16349244 0 19736.67177300 0 2463.57969876 0 -11035.85731532 0 826
0.02850000 0.02848090 70838.58090671 0 6623.33987087 0 22639.45741777 0 -810.92414910 0 -19241.29629528 0 831
0.02950000 0.02946900 63467.29937684 0 7930.14420291 0 17025.31441017 0 141.95930215 0 -11948.69932054 0 996
0.03050000 0.03053250 53685.23548471 0 7479.84373462 0 16914.70640698 0 1345.06750712 0 -4260.95975064 0 1041
0.03150000 0.03150510 47571.33314561 0 6080.64125358 0 15296.27751473 0 7471.30084007 0 -9462.90809593 0 1036
0.03250000 0.03246190 45226.30859011 0 1997.50859750 0 4236.28652229 0 7479.19177688 0 -6371.11090912 0 1059
0.03350000 0.03345080 39659.71353511 0 151.53521250 0 3948.98673026 0 7191.44235882 0 -9134.09658075 0 1302
0.03450000 0.03451200 41276.00670372 0 1250.37626536 0 -1192.25086043 0 2111.84849674 0 -1728.01399622 0 1339
0.03550000 0.03553350 38401.21027927 0 636.09943235 0 918.10038163 0 461.07125981 0 -345.48140022 0 1365
0.03650000 0.03647120 38796.09433945 0 2170.44600900 0 -784.43892785 0 -3556.19343111 0 8004.97321482 0 1308
0.03750000 0.03744890 40089.44361256 0 362.96735649 0 6224.74639595 0 -822.71783985 0 9224.68498499 0 1579
0.03850000 0.03847530 38638.50041620 0 230.32542974 0 6235.93084343 0 1781.91291648 0 12052.45052678 0 1662
0.03950000 0.03950240 40490.84725016 0 244.12894884 0 13110.64538660 0 -317.48655957 0 15584.03817345 0 1683
0.04050000 0.04050350 38548.80002337 0 5.28195930 0 10782.76282346 0 771.55601805 0 9367.27263951 0 1822
0.04150000 0.04152450 39259.88358861 0 27.53948188 0 16415.50910802 0 -1030.93740586 0 12676.53145537 0 1887
0.04250000 0.04250150 39602.04899686 0 282.41910149 0 14611.27225919 0 -1238.52861949 0 6628.61173607 0 1920
0.04350000 0.04349210 39242.91020601 0 -547.73892508 0 15061.57272747 0 -985.43525170 0 10729.76315527 0 2005
0.04450000 0.04448520 40319.20251350 0 -314.49542241 0 17152.33376343 0 -262.83676385 0 9198.76404441 0 2151
0.04550000 0.04548030 40982.51331314 0 -589.00785017 0 15253.56304195 0 4602.67553287 0 15899.22601994 0 2274
0.04650000 0.04648670 42463.46904694 0 238.82785795 0 15637.20645140 0 6836.00174205 0 13973.47773671 0 2311
0.04750000 0.04749250 41069.17873027 0 -131.25258233 0 11327.42855463 0 5772.52377639 0 13683.80616737 0 2568
0.04850000 0.04851840 41595.80321702 0 1167.40902232 0 12371.12297501 0 5251.59829957 0 17546.43097806 0 2493
0.04950000 0.04949480 40124.40203633 0 533.97362419 0 8667.13746808 0 1718.31331464 0 12962.04398394 0 2644
0.05050000 0.05050630 40473.08702201 0 1420.16629465 0 10316.55683440 0 -1622.47552651 0 13026.22809961 0 2829
0.05150000 0.05149060 38694.14163732 0 1773.13396826 0 11897.32954670 0 -3661.52956911 0 8673.67952681 0 2784
0.05250000 0.05249300 37508.59020472 0 1451.16800937 0 11112.78832893 0 -4671.09737387 0 6329.40809491 0 3055
0.05350000 0.05348950 36301.11950320 0 2073.12445497 0 16518.24865570 0 -4122.56485884 0 1975.91530745 0 3009
0.05450000 0.05448610 36113.73785551 0 1522.73723258 0 16751.94178440 0 -3597.06443717 0 1294.16984061 0 3336
0.05550000 0.05550870 34904.69346289 0 737.29563868 0 18070.69492816 0 -302.71746858 0 -3164.41179053 0 3349
0.05650000 0.05647670 34624.01441414 0 100.50366984 0 20009.81958576 0 565.75431601 0 -1844.25356543 0 3324
0.05750000 0.05747970 35119.83951788 0 -308.57272354 0 20155.16119971 0 -135.34755139 0 -4085.70676510 0 3639
0.05850000 0.05849280 35469.53616212 0 -969.42968912 0 19570.08532916 0 2895.64783156 0 -2776.02482648 0 3846
0.05950000 0.05951020 35999.42043758 0 -52.04904636 0 17445.26512148 0 2729.33116334 0 -3127.74478785 0 3787
0.06050000 0.06049470 35341.84236982 0 48.35548094 0 15090.34879334 0 988.51743813 0 -3698.87101084 0 3930
0.06150000 0.06148310 35473.92001591 0 277.27088345 0 14142.42471720 0 3899.59531094 0 -2446.01056167 0 4083
0.06250000 0.06249100 34238.68490708 0 834.59021515 0 12034.24067260 0 2090.67111076 0 -4465.32602158 0 4303
0.06350000 0.06350600 33699.02126548 0 1343.67366643 0 10887.17722810 0 735.11832464 0 -2025.16059830 0 4470
0.06450000 0.06451750 31828.91420337 0 1888.65413582 0 11674.65225571 0 -182.30199762 0 -4318.61304824 0 4479
0.06550000 0.06550280 30203.06648164 0 2322.68938250 0 11556.51301653 0 -938.95740906 0 486.45377323 0 4636
0.06650000 0.06648880 28467.28519576 0 1439.89363669 0 13549.25557812 0 1305.12947507 0 576.48913745 0 4653
0.06750000 0.06749660 28641.17806257 0 253.38899691 0 13575.10907480 0 1468.81583102 0 1389.88398159 0 5220
0.06850000 0.06852730 28288.44644263 0 -347.60363508 0 14091.05494336 0 2876.52748466 0 1727.06978156 0 5029
0.06950000 0.06949320 28087.57601406 0 -494.77972323 0 11999.84428136 0 1575.90551053 0 321.90413531 0 5040
0.07050000 0.07048030 28725.93256908 0 -265.26811660 0 11696.68393115 0 1207.95404950 0 1560.71939140 0 5475
0.07150000 0.07148790 28760.89099285 0 687.03194487 0 10001.71744807 0 -756.48680168 0 68.30639952 0 5509
0.07250000 0.07249820 28122.87165736 0 902.47812524 0 10811.69625845 0 645.26505895 0 1705.42028826 0 5916
0.07350000 0.07351270 27212.60376116 0 757.93010123 0 10450.01708053 0 831.80590596 0 2507.13722034 0 5721
0.07450000 0.07449140 26702.50303099 0 1076.34626262 0 9949.68447584 0 1109.42749772 0 3641.90339294 0 6028
0.07550000 0.07549160 26186.89438196 0 302.73657768 0 10834.59346398 0 2107.59953076 0 4485.46926769 0 6183
0.07650000 0.07648840 26092.69772884 0 224.50052453 0 10829.10802643 0 1495.93952123 0 5548.22783171 0 6330
0.07750000 0.07749960 26048.40956495 0 178.18117506 0 11581.69207417 0 1192.89157752 0 7737.43448677 0 6583
0.07850000 0.07848650 26069.09236230 0 456.80992912 0 11292.35772435 0 -197.29927383 0 8440.13252657 0 6549
0.07950000 0.07947320 25860.46588473 0 207.54175477 0 11734.11529808 0 317.44384510 0 8495.69506313 0 6828
0.08050000 0.08048110 25691.74371726 0 288.67339955 0 12491.84756386 0 -121.60922806 0 8055.47745856 0 7147
0.08150000 0.08149960 25028.65773064 0 359.07022289 0 10298.47062737 0 1486.74466893 0 6821.41137740 0 7386
0.08250000 0.08250610 24872.63749849 0 -143.30818023 0 10736.01295707 0 788.70812700 0 5862.25789118 0 7227
0.08350000 0.08350160 24534.40631800 0 167.29235670 0 9052.17471822 0 880.43970542 0 3320.56691049 0 7798
0.08450000 0.08449610 24801.25936635 0 347.28215246 0 9464.40310248 0 -437.48275425 0 3297.81583341 0 7371
0.08550000 0.08548940 23883.57264067 0 676.84903938 0 8466.66046230 0 -768.17932657 0 1210.39327071 0 8256
0.08650000 0.08650700 23432.37292033 0 532.95072498 0 8933.91183188 0 -968.26628177 0 1812.90339054 0 8037
0.08750000 0.08749060 23263.42593984 0 503.61487470 0 9540.61471444 0 -460.36422288 0 408.45602187 0 8155
0.08850000 0.08849210 22888.10061194 0 236.42460682 0 9106.70311492 0 673.23854236 0 70.90624962 0 8718
0.08950000 0.08949900 22388.34128044 0 350.68694557 0 9036.59517631 0 912.12709983 0 -1117.97938479 0 8571
0.09050000 0.09049190 22203.09535639 0 392.50441442 0 7851.74066406 0 865.40196287 0 -549.92860384 0 8932
0.09150000 0.09150830 21983.79026063 0 263.84392615 0 8123.71944914 0 954.74939927 0 -1633.24406991 0 9285
0.09250000 0.09250820 21381.06656843 0 540.30997901 0 7038.70439668 0 70.07860051 0 -967.21415686 0 9204
0.09350000 0.09350330 21197.05711597 0 692.58033007 0 8013.62851588 0 -187.51765956 0 -369.74546888 0 9349
0.09450000 0.09448040 20635.92383148 0 779.96627292 0 8425.47471802 0 63.75371116 0 114.27020720 0 9564
0.09550000 0.09549270 19884.48633011 0 909.01343957 0 9042.68760901 0 354.29519446 0 346.49530691 0 10155
0.09650000 0.09649430 19084.48921758 0 759.67465022 0 8577.35839069 0 315.11590633 0 182.54816787 0 9913
0.09750000 0.09749140 18610.58338277 0 389.67739076 0 8720.64296556 0 1029.72903590 0 499.39850661 0 10476
0.09850000 0.09850240 18218.39707876 0 20.11480726 0 7866.62328562 0 858.73513292 0 -107.64226990 0 10575
0.09950000 0.09950330 18189.05898035 0 -31.10411704 0 7499.84085227 0 1101.65121554 0 162.16212371 0 10882
0.10050000 0.10051200 18451.52817492 0 -277.89586363 0 6718.13227849 0 692.80401902 0 -239.28198024 0 10875
0.10150000 0.10150300 18520.09614438 0 -156.36756825 0 6169.85829843 0 839.57431968 0 -489.85631821 0 11118
0.10250000 0.10250800 18434.10516629 0 236.54937805 0 5266.63829024 0 -73.68460127 0 -941.44946132 0 11575
0.10350000 0.10349800 18045.85309004 0 487.70373359 0 5771.62452433 0 646.05078044 0 -1352.03671057 0 11364
0.10450000 0.10450100 17380.06934724 0 603.28347660 0 4526.84610304 0 -174.21659755 0 -1074.21053898 0 12093
0.10550000 0.10551000 16962.81639211 0 564.33574588 0 4982.63200888 0 392.19529652 0 -863.39325858 0 12067
0.10650000 0.10649700 16546.12546951 0 75.01167249 0 4237.41058736 0 438.74058307 0 -375.62770141 0 12054
0.10750000 0.10749900 16535.10963180 0 -256.06314772 0 3582.85625465 0 1505.13437353 0 -1073.50799831 0 12807
0.10850000 0.10850100 16615.14306500 0 -268.92470028 0 3220.05301165 0 917.35063022 0 -480.77387242 0 12736
0.10950000 0.10950300 16657.52031826 0 127.84554109 0 2790.79504154 0 463.34524346 0 -1159.79910177 0 12933
0.11050000 0.11050200 16540.84236367 0 409.40698092 0 3278.89781823 0 222.11638251 0 544.29928596 0 13428
0.11150000 0.11150900 16392.35336751 0 464.20515324 0 3796.82204131 0 -171.54019861 0 1041.11019477 0 13453
0.11250000 0.11250000 16212.50295582 0 301.91488611 0 3788.34659066 0 176.10053061 0 1604.62537315 0 13668
0.11350000 0.11349100 15900.12527200 0 215.91941176 0 4397.05030904 0 60.90465582 0 2436.82695002 0 13791
0.11450000 0.11448600 15720.27486031 0 54.19915804 0 4285.50933184 0 -49.86341424 0 1910.22494457 0 14205
0.11550000 0.11549300 15765.79949577 0 227.35227762 0 4024.90608529 0 -82.14678795 0 2626.43424655 0 14776
0.11650000 0.11649800 15466.57337331 0 288.05291563 0 4423.92670494 0 -222.15797292 0 1752.99072215 0 14553
0.11750000 0.11747300 15362.82216706 0 323.10351274 0 4240.22075005 0 -455.24523054 0 1671.18126613 0 14568
0.11850000 0.11849100 14849.46164818 0 190.56612404 0 4565.90736433 0 221.30143533 0 1110.99107223 0 16015
0.11950000 0.11950300 15045.49859692 0 -36.04112325 0 4045.58888264 0 126.40898593 0 1304.64612709 0 15270
0.12050000 0.12050700 14967.82570037 0 -214.69080864 0 4019.97143962 0 886.62431145 0 1654.55634370 0 15999
0.12150000 0.12150000 15369.22933798 0 -19.21825296 0 3489.43520642 0 861.72289788 0 1524.34464563 0 15670
0.12250000 0.12250700 15335.84460531 0 46.14096034 0 3964.88101039 0 967.49742126 0 2467.94107124 0 16887
0.12350000 0.12352200 14980.64004221 0 212.38310304 0 3679.28979727 0 532.77986709 0 1998.14931459 0 16407
0.12450000 0.12449800 15007.84241698 0 198.22999971 0 2925.75029421 0 334.51726949 0 3300.52483024 0 16306
0.12550000 0.12549900 14487.17547512 0 171.98532838 0 3105.00495142 0 329.62871049 0 2186.58758345 0 17523
0.12650000 0.12650100 14457.38775068 0 299.64427467 0 3355.82883183 0 -193.45834347 0 2800.69805483 0 17154
0.12750000 0.12750600 14301.59233155 0 287.80224912 0 3112.04159878 0 13.29825185 0 2357.14197699 0 18007
0.12850000 0.12850300 13853.53999341 0 414.25619765 0 3423.92469396 0 -494.08280288 0 2546.54694180 0 17496
0.12950000 0.12949900 13707.18672089 0 504.38485928 0 3303.51484333 0 -381.72350630 0 2608.92131271 0 18405
0.13050000 0.13049000 13238.45158541 0 340.40512235 0 3967.57876657 0 -119.87254753 0 2229.63927575 0 18100
0.13150000 0.13148800 13189.77956774 0 486.95735438 0 4508.51260169 0 -532.87541262 0 3035.63889576 0 19059
0.13250000 0.13249300 12799.27936135 0 395.86199679 0 4671.38963079 0 -395.27298670 0 2152.80942800 0 18957
0.13350000 0.13349100 12575.02837927 0 260.15137239 0 4924.76513891 0 -240.77586272 0 2707.49057897 0 19468
0.13450000 0.13450700 12440.36538351 0 106.73750993 0 4740.48591083 0 185.74051268 0 1925.34361981 0 19953
0.13550000 0.13551000 12377.41773942 0 56.47954885 0 4759.80858944 0 104.52186526 0 1727.19342872 0 19956
0.13650000 0.13649900 12170.92698549 0 157.21960958 0 4496.15912654 0 459.88199897 0 1400.77617214 0 19723
0.13750000 0.13749600 12267.37176876 0 115.72137521 0 4065.22629947 0 360.42921756 0 622.86693831 0 20946
0.13850000 0.13851100 12071.33482001 0 106.77595295 0 3675.36681016 0 127.74212710 0 696.26613945 0 20955
0.13950000 0.13949800 12024.01168043 0 62.41708538 0 3538.61305337 0 575.96307500 0 706.58056056 0 20506
0.14050000 0.14048300 11929.70262080 0 7.43166631 0 3237.09383816 0 345.71070949 0 711.19259955 0 21447
0.14150000 0.14148400 11758.28269715 0 97.67496009 0 2889.07205088 0 752.50761132 0 414.51473262 0 21771
0.14250000 0.14249400 11689.93954071 0 152.55361546 0 2938.23865718 0 673.66793522 0 931.74540755 0 22470
0.14350000 0.14350900 11372.72837708 0 173.80518973 0 1876.67160214 0 390.61373697 0 382.97009447 0 22519
0.14450000 0.14449900 11327.76577416 0 148.30914574 0 2350.63364021 0 532.75738579 0 975.57607694 0 22218
0.14550000 0.14550500 11177.81549340 0 222.54914756 0 1937.38235674 0 -163.42332472 0 590.56243217 0 23559
0.14650000 0.14650700 10940.01952719 0 126.10211616 0 2288.01197499 0 55.11246091 0 918.14084797 0 23044
0.14750000 0.14750500 10910.16435885 0 157.15891007 0 2391.11122350 0 -505.29872418 0 1230.26674121 0 23649
0.14850000 0.14849900 10845.62054235 0 222.00285194 0 2823.22431890 0 -16.11459689 0 1160.84448229 0 23640
0.14950000 0.14949500 10672.82925932 0 253.97913107 0 3021.73421081 0 -318.05533650 0 1595.82394363 0 24457
0.15050000 0.15050000 10500.51008361 0 417.71606994 0 3612.02574329 0 -406.21913238 0 1623.12748425 0 24591
0.15150000 0.15149900 10181.10699309 0 336.87106176 0 3680.38014039 0 42.11118705 0 1637.39187003 0 25020
0.15250000 0.15250500 9933.68902985 0 251.54103393 0 3699.14078646 0 -104.05706435 0 1556.44794412 0 25297
0.15350000 0.15350100 9829.97154555 0 74.72087686 0 3676.04124921 0 -265.80429564 0 929.40735220 0 25452
0.15450000 0.15450400 9826.23964951 0 42.52911445 0 3781.64716282 0 -145.19323736 0 1010.44007925 0 26061
0.15550000 0.15549900 9656.80932104 0 -46.85069503 0 3495.67376758 0 39.87317349 0 92.61711688 0 26128
0.15650000 0.15649500 9904.64318836 0 -90.97384615 0 3303.35747422 0 -8.69010212 0 364.75012370 0 26331
0.15750000 0.15749700 9904.94668593 0 -112.07097389 0 2979.99767464 0 209.81911061 0 -439.49258261 0 27345
0.15850000 0.15849900 10019.12921605 0 96.87619945 0 3121.11280392 0 126.83388252 0 -115.75846936 0 26980
0.15950000 0.15949700 9876.20434201 0 154.09920494 0 2769.87619053 0 230.53338178 0 -457.57541744 0 27777
0.16050000 0.16050000 9636.21644890 0 257.02534742 0 2896.46839906 0 -124.56327108 0 -142.55955290 0 28224
0.16150000 0.16150500 9473.10336615 0 257.76498224 0 2769.71882142 0 153.57876281 0 -169.62029547 0 28075
0.16250000 0.16249700 9247.76204094 0 270.95251368 0 3131.83638472 0 -113.46987287 0 29.53402295 0 28590
0.16350000 0.16349900 9012.45025854 0 220.18523871 0 2915.45385814 0 85.02079753 0 -83.98856857 0 29163
0.16450000 0.16449100 9015.55267814 0 161.80242288 0 3253.44898498 0 190.44472501 0 188.16287291 0 28996
0.16550000 0.16550500 8715.74204184 0 132.71611505 0 2857.65443209 0 325.33815411 0 261.36311454 0 30777
0.16650000 0.16650700 8752.38656323 0 174.31101902 0 2937.35064577 0 325.31792094 0 411.31339529 0 29211
0.16750000 0.16749900 8543.36666288 0 126.55736252 0 2580.84216718 0 325.23811232 0 894.00042646 0 30922
0.16850000 0.16850800 8429.72368399 0 138.02732252 0 2543.33211570 0 375.96379687 0 599.91352951 0 30867
0.16950000 0.16949900 8258.28127904 0 75.74782271 0 2492.46817114 0 184.99975380 0 840.90746086 0 30852
0.17050000 0.17049200 8283.57274319 0 9.65505578 0 2248.70341939 0 11.55280360 0 443.13342938 0 31257
0.17150000 0.17149500 8342.33886521 0 -28.59857600 0 2390.32437795 0 -286.33646827 0 380.37912448 0 32608
0.17250000 0.17250900 8453.43021639 0 -91.24193567 0 2354.36553626 0 -164.79131191 0 367.81320102 0 32361
0.17350000 0.17350400 8482.68963024 0 -84.99213387 0 2526.44865830 0 12.30075650 0 -119.73765972 0 32508
0.17450000 0.17449800 8619.92673501 0 -36.83325191 0 2277.28839419 0 214.52781920 0 136.45475548 0 32791
0.17550000 0.17549800 8542.25383846 0 67.24224711 0 2256.08852692 0 325.64502387 0 -295.86741602 0 33633
0.17650000 0.17650100 8577.50451915 0 138.43760627 0 2081.73479343 0 202.43962340 0 169.18753041 0 33984
0.17750000 0.17750300 8325.28679805 0 119.18349564 0 1964.28123394 0 422.82494570 0 155.91007377 0 34069
