### header ###
fiducial parameters:
Omega_m = 0.31
Omega_nu = 0
Omega_de = 0.69
Omega_k = 0
H_0 = 100
w_de = -1
zeff = 0
beta = 0
fgrowth = 0
b_1 = 2
gamma = 0.55
Lx = 3500 Ly = 3500 Lz = 3500
nx = 700 ny = 700 nz = 700
xoffset = 857.220397 yoffset = 15.9954215 zoffset = 262.898189
bins = 400 dk = 0.001
kx_ny = 0.628318531 ky_ny = 0.628318531 kz_ny = 0.628318531
############################
A(data) = 3.10784747 (not used)
A(ran) = 3.10232892 (used)
Ngal = 188722
weighted Ngal = 0
Nran = 9360983
weighted Nran = 0
SN(data) = 3459.61026
SN(ran) = 69.6666484
SN(data+ran) = 3529.27691
############################
13 columns: k_central k_mean P_0(k) sigma^{lin}_{P_0(k)} P^img_1(k) sigma^{lin}_{P_1(k)} P_2(k) sigma^{lin}_{P_2(k)} P^img_3(k) sigma^{lin}_{P_3(k)} P_4(k) sigma^{lin}_{P_4(k)} N_modes
### header ###
0.00050000 0 0 0 0 0 0 0 0 0 0 0 0
0.00150000 0.00179520 2355.30975092 0 -4539.43563185 0 -2576.84049552 0 -3494.66210901 0 39006.29450812 0 3
0.00250000 0.00253879 5093.89196981 0 -7620.64412568 0 -10359.39495433 0 4558.74706981 0 -32121.28352888 0 6
0.00350000 0.00331552 12109.77784551 0 -15893.26847506 0 -24787.99539849 0 23425.29131037 0 43083.39093476 0 7
0.00450000 0.00420575 23644.25918661 0 -26400.46674585 0 -41258.69610160 0 14386.68405758 0 -10794.38565632 0 24
0.00550000 0.00557378 52991.68733460 0 -30789.04160424 0 -65180.26214174 0 2748.15925332 0 -8564.06070088 0 45
0.00650000 0.00659388 70065.44894943 0 -24913.44106065 0 -77380.75203865 0 -27560.05227526 0 -34179.67149074 0 40
0.00750000 0.00754703 77971.44823456 0 -4718.11701587 0 -71607.10419718 0 -42040.59576644 0 16919.20266727 0 57
0.00850000 0.00846663 67872.96002435 0 9110.67106463 0 -60408.15628040 0 -53001.24188773 0 -15089.78676080 0 75
0.00950000 0.00948925 61652.38390982 0 4286.95937579 0 -50939.48173065 0 -24671.99188295 0 15604.04653175 0 112
0.01050000 0.01054430 56654.90300133 0 2287.55110831 0 -32235.26372729 0 -18945.10514852 0 12747.90958751 0 105
0.01150000 0.01145670 60279.67564255 0 -9973.82939361 0 -33896.74431184 0 3659.45004873 0 -2381.33185736 0 144
0.01250000 0.01249090 65102.36443217 0 -10968.89675892 0 -27518.46186755 0 4115.10106676 0 3787.79579877 0 169
0.01350000 0.01339930 79927.09664874 0 -9882.49910642 0 -42668.04889025 0 4244.78445424 0 19014.34755702 0 180
0.01450000 0.01448870 79998.13756136 0 -5410.35000984 0 -40038.74827776 0 2238.47442722 0 24089.27654905 0 267
0.01550000 0.01550050 86997.12873901 0 -6105.89899577 0 -27993.15454792 0 -9641.54451735 0 -1114.25310908 0 238
0.01650000 0.01653350 87259.93515310 0 -4391.25013327 0 -37714.40651961 0 -1234.71803889 0 32729.85235946 0 315
0.01750000 0.01747870 91237.43941426 0 -390.66094770 0 -30423.72045549 0 -2423.07963418 0 16536.34610338 0 297
0.01850000 0.01844180 95321.39263785 0 -112.86400179 0 -37112.58207947 0 -8132.09373394 0 32651.05539783 0 388
0.01950000 0.01947590 87725.41049987 0 5111.37118170 0 -24231.80800032 0 -12119.66961815 0 300.22878850 0 399
0.02050000 0.02045430 86597.07397950 0 7251.73720934 0 -23349.30451143 0 -16185.30058105 0 7948.00559692 0 462
0.02150000 0.02154770 75508.95887893 0 11038.35273979 0 -9999.57048378 0 -21504.26410044 0 -1518.28593489 0 571
0.02250000 0.02255340 68644.96791655 0 8749.59888185 0 -2631.80727760 0 -23499.36719869 0 -2675.71325935 0 510
0.02350000 0.02348930 61917.66326707 0 6230.59153433 0 4151.98164181 0 -12761.06114886 0 -2274.64684127 0 555
0.02450000 0.02439640 58400.12643382 0 4286.58843431 0 10691.79223710 0 -5714.89296010 0 -9172.13494282 0 592
0.02550000 0.02547300 57082.16013561 0 169.27408342 0 20000.82706517 0 6922.28497706 0 4039.12550847 0 837
0.02650000 0.02652900 55405.39226607 0 -50.87181301 0 16233.07334665 0 5945.78716676 0 -5859.00934312 0 723
0.02750000 0.02749970 58317.17043143 0 182.07830867 0 26578.18143391 0 11149.89371699 0 17240.91009119 0 826
0.02850000 0.02848090 56993.69621436 0 -606.52190808 0 23993.61861133 0 9042.33914883 0 16780.04341122 0 831
0.02950000 0.02946900 61748.82869309 0 -890.66982165 0 21723.68160271 0 4900.58649919 0 35679.73633079 0 996
0.03050000 0.03053250 61669.24488591 0 -1572.34222425 0 23722.38170919 0 9187.15245220 0 35766.85137396 0 1041
0.03150000 0.03150510 61818.40832111 0 515.04099617 0 19017.71975224 0 5802.49135124 0 34900.19720260 0 1036
0.03250000 0.03246190 61297.06694021 0 374.11358576 0 22237.94137366 0 2916.30814760 0 35589.47390542 0 1059
0.03350000 0.03345080 60893.97720500 0 3487.85027467 0 20410.77359733 0 4855.77002473 0 31202.24792511 0 1302
0.03450000 0.03451200 56951.99340015 0 3020.16051970 0 23180.46993745 0 1741.81751532 0 34748.67323074 0 1339
0.03550000 0.03553350 54565.71565646 0 1840.31933768 0 16773.18661428 0 4438.02248096 0 21914.99747815 0 1365
0.03650000 0.03647120 53021.36265253 0 1628.33190554 0 18152.52686548 0 121.15960203 0 23664.71717094 0 1308
0.03750000 0.03744890 52817.79446780 0 2441.94144610 0 17851.16501938 0 -170.01484231 0 15742.86856828 0 1579
0.03850000 0.03847530 49259.00444636 0 2465.32199962 0 17706.04821844 0 -971.58901813 0 14607.78765746 0 1662
0.03950000 0.03950240 46608.23419098 0 3017.88990826 0 14922.07625190 0 -485.63095760 0 6789.80266755 0 1683
0.04050000 0.04050350 45061.97027643 0 1375.50718930 0 13147.51472100 0 -1216.49694406 0 5604.50976992 0 1822
0.04150000 0.04152450 42954.79789039 0 1023.79734451 0 12052.78774631 0 1241.31630087 0 207.90370373 0 1887
0.04250000 0.04250150 43232.89158948 0 433.67329772 0 14472.56262917 0 240.99617948 0 1898.62459302 0 1920
0.04350000 0.04349210 42108.93892289 0 285.62268694 0 12805.57412576 0 1239.03444878 0 -954.91463683 0 2005
0.04450000 0.04448520 41779.58785647 0 1312.87428343 0 13492.49029193 0 -1126.23451869 0 4336.85662438 0 2151
0.04550000 0.04548030 41808.13910933 0 659.57103514 0 15934.18444372 0 1283.06407769 0 5049.43519617 0 2274
0.04650000 0.04648670 41690.78671569 0 -233.70998967 0 14150.96761175 0 779.26485632 0 2708.26618387 0 2311
0.04750000 0.04749250 42184.36368929 0 -155.21877375 0 14423.21617246 0 3859.07276506 0 8052.89210889 0 2568
0.04850000 0.04851840 41639.64175487 0 -701.64591489 0 12029.63200580 0 1308.26561663 0 2596.61280016 0 2493
0.04950000 0.04949480 42496.96618612 0 -531.83340430 0 11058.13628507 0 2230.23503023 0 5829.77241057 0 2644
0.05050000 0.05050630 41407.18509775 0 821.58028599 0 9110.31136380 0 2921.19783067 0 1703.97024431 0 2829
0.05150000 0.05149060 41132.12637436 0 1402.45102910 0 9395.23937853 0 -1144.34320702 0 3910.29641044 0 2784
0.05250000 0.05249300 40162.39543580 0 1296.45169271 0 10102.42243797 0 -3154.30644553 0 501.81749465 0 3055
0.05350000 0.05348950 39960.06372264 0 1732.06063049 0 13001.61107451 0 -4816.16921220 0 -4467.94509321 0 3009
0.05450000 0.05448610 37693.49890925 0 1638.12251233 0 12570.86933850 0 -3185.46552935 0 -126.20103389 0 3336
0.05550000 0.05550870 38004.86493450 0 601.55016826 0 14897.23441378 0 -738.17690570 0 -894.92778014 0 3349
0.05650000 0.05647670 37610.99253288 0 304.05735414 0 15164.08746214 0 -552.78934945 0 -4122.95828162 0 3324
0.05750000 0.05747970 38100.29805920 0 -246.63561395 0 13503.39372314 0 2093.51499539 0 -6787.05994877 0 3639
0.05850000 0.05849280 37147.76531626 0 -174.48075284 0 12452.05566027 0 1262.16770798 0 -7114.73615823 0 3846
0.05950000 0.05951020 37966.19709598 0 -129.79916619 0 10005.14584654 0 825.18853488 0 -5819.49845580 0 3787
0.06050000 0.06049470 37540.73846581 0 -14.13320738 0 10364.55441302 0 1093.30615644 0 -8583.15856647 0 3930
0.06150000 0.06148310 36802.34011929 0 -39.22796014 0 10000.06507241 0 -523.60187577 0 -5904.61266313 0 4083
0.06250000 0.06249100 36779.63400482 0 259.54999757 0 9422.65532567 0 1673.29450847 0 -5333.13797997 0 4303
0.06350000 0.06350600 36463.77171928 0 597.53838001 0 10236.59084510 0 2160.03716642 0 -3186.48842857 0 4470
0.06450000 0.06451750 35451.88834047 0 1190.26126525 0 8558.35045031 0 3781.56847827 0 -1906.14458836 0 4479
0.06550000 0.06550280 33622.02280797 0 1593.98047691 0 7948.59011076 0 3944.60287647 0 566.76822270 0 4636
0.06650000 0.06648880 32093.18190205 0 1398.48307939 0 6929.91737891 0 2903.95467245 0 4239.45638580 0 4653
0.06750000 0.06749660 30867.61375285 0 1152.85237962 0 6477.13272681 0 1989.96612086 0 4914.58110935 0 5220
0.06850000 0.06852730 30640.88982761 0 572.08729863 0 5667.18763839 0 -424.55937811 0 7303.37675880 0 5029
0.06950000 0.06949320 29303.36479713 0 423.52299011 0 6281.46671954 0 -141.17020847 0 3785.72751904 0 5040
0.07050000 0.07048030 30221.83836836 0 155.05578431 0 6707.52110420 0 -1709.18590625 0 7048.58492868 0 5475
0.07150000 0.07148790 29765.58035519 0 324.65921880 0 7000.11524272 0 -1600.06166895 0 1886.27111787 0 5509
0.07250000 0.07249820 29863.82364258 0 516.50790109 0 8244.30915019 0 -1711.22046403 0 1992.83248680 0 5916
0.07350000 0.07351270 29804.24819370 0 699.04820050 0 8964.10421974 0 -1281.37798008 0 -943.74143001 0 5721
0.07450000 0.07449140 28491.34018832 0 1179.21170559 0 8158.75655747 0 -1970.12637232 0 -2502.41614703 0 6028
0.07550000 0.07549160 27484.73991536 0 1132.42811724 0 9768.09176328 0 -273.63116074 0 -1761.18515653 0 6183
0.07650000 0.07648840 26505.34201717 0 618.71689006 0 8813.55818450 0 917.74854926 0 -4141.61776183 0 6330
0.07750000 0.07749960 26316.94871092 0 54.82930892 0 7553.33510910 0 2350.99334104 0 -3439.49299522 0 6583
0.07850000 0.07848650 26065.94498010 0 -245.82965929 0 7113.79194357 0 2084.70232522 0 -5372.82871770 0 6549
0.07950000 0.07947320 25935.77824463 0 -68.15914699 0 5534.00840853 0 1965.32661446 0 -3024.69050195 0 6828
0.08050000 0.08048110 25801.90209442 0 264.13955527 0 5367.44444600 0 230.29170779 0 -4318.43319783 0 7147
0.08150000 0.08149960 25883.28440572 0 544.20261636 0 5523.59956596 0 -96.77773135 0 -1219.07105308 0 7386
0.08250000 0.08250610 25099.24901723 0 365.00865867 0 6226.47745616 0 95.05352793 0 -1865.57707987 0 7227
0.08350000 0.08350160 25345.86889427 0 275.54993982 0 4905.79092048 0 611.59931001 0 335.03546349 0 7798
0.08450000 0.08449610 24632.42479237 0 -27.71483604 0 5977.19354490 0 1621.32898014 0 627.93871992 0 7371
0.08550000 0.08548940 24853.07876622 0 370.75600339 0 4551.53057204 0 476.82390775 0 -496.98176670 0 8256
0.08650000 0.08650700 24219.21847150 0 599.12218770 0 4676.99871550 0 553.95612900 0 -201.09186938 0 8037
0.08750000 0.08749060 23868.17294917 0 831.61256677 0 4251.11294060 0 -483.94710812 0 -1021.56045502 0 8155
0.08850000 0.08849210 22535.14417898 0 1159.83282373 0 4833.81703385 0 -1891.01467247 0 -635.70038925 0 8718
0.08950000 0.08949900 22028.75286355 0 1043.00536848 0 5806.96513023 0 -1267.82175530 0 -1497.50197168 0 8571
0.09050000 0.09049190 21546.52894719 0 629.15271019 0 7374.30526491 0 -1185.29289763 0 -534.25351640 0 8932
0.09150000 0.09150830 21644.54742157 0 219.66142439 0 7168.54515328 0 380.23524415 0 -945.14089102 0 9285
0.09250000 0.09250820 21393.99331677 0 -156.41140679 0 7920.48848393 0 1535.63025896 0 809.70678663 0 9204
0.09350000 0.09350330 21439.18073271 0 50.34541334 0 6795.17569860 0 2587.48539177 0 778.15090783 0 9349
0.09450000 0.09448040 21179.97132686 0 277.50356492 0 6371.60549775 0 1184.00022280 0 641.13299574 0 9564
0.09550000 0.09549270 20849.04656934 0 749.58729026 0 5252.04792560 0 979.44960518 0 534.69190178 0 10155
0.09650000 0.09649430 19618.53253381 0 754.88613301 0 5071.73664722 0 -426.81088045 0 -48.10099261 0 9913
0.09750000 0.09749140 19092.35767310 0 794.21267366 0 5589.97560852 0 -1363.10875154 0 98.24890771 0 10476
0.09850000 0.09850240 18638.34779007 0 585.09385559 0 6282.33224965 0 -1392.06466783 0 -651.96336272 0 10575
0.09950000 0.09950330 18242.90169735 0 659.36308310 0 6800.16654752 0 -901.71713318 0 -93.85808473 0 10882
0.10050000 0.10051200 17736.28556891 0 481.75068496 0 7756.73468408 0 282.37975921 0 -851.15443807 0 10875
0.10150000 0.10150300 17353.20419200 0 427.53028210 0 7493.89454804 0 118.20893122 0 -393.46211786 0 11118
0.10250000 0.10250800 17166.72179637 0 288.90720509 0 7570.82556164 0 1103.45084372 0 -135.82865124 0 11575
0.10350000 0.10349800 16713.04913287 0 245.31596155 0 7224.95073865 0 1221.43158973 0 -598.41627484 0 11364
0.10450000 0.10450100 16688.31970126 0 84.18741568 0 6320.24696456 0 1284.62652814 0 132.62618984 0 12093
0.10550000 0.10551000 15987.35272167 0 83.67967549 0 4698.64820881 0 734.22244477 0 -737.48785381 0 12067
0.10650000 0.10649700 16111.22469273 0 123.78766618 0 4296.45772565 0 877.58682826 0 -77.53126435 0 12054
0.10750000 0.10749900 15733.76364118 0 71.53527644 0 3411.02042692 0 976.53153225 0 -818.70380347 0 12807
0.10850000 0.10850100 15602.81006017 0 124.83192263 0 3253.30285652 0 512.38595447 0 -86.68081683 0 12736
0.10950000 0.10950300 15958.46424930 0 -6.40214635 0 2922.18700793 0 606.34430580 0 341.23468237 0 12933
0.11050000 0.11050200 15592.91828752 0 24.14311927 0 3086.78385659 0 451.97869744 0 746.31626089 0 13428
0.11150000 0.11150900 15877.75637705 0 235.51748631 0 2458.35279617 0 245.02482870 0 1561.47251499 0 13453
0.11250000 0.11250000 15433.52586016 0 264.97473562 0 3111.86174837 0 -84.20067965 0 1215.64265460 0 13668
0.11350000 0.11349100 15383.84218393 0 539.17354922 0 2992.77829452 0 191.85767481 0 2214.72293223 0 13791
0.11450000 0.11448600 14808.54567952 0 389.26710701 0 2920.36602251 0 -356.76926168 0 1281.60279309 0 14205
0.11550000 0.11549300 14685.68536703 0 366.27772813 0 3068.18057963 0 -197.38807497 0 1312.62698911 0 14776
0.11650000 0.11649800 14513.36619132 0 227.86597536 0 3941.42177231 0 -885.25407612 0 708.40604224 0 14553
0.11750000 0.11747300 14176.82110843 0 344.10554457 0 4090.56272621 0 -890.71028799 0 931.80273487 0 14568
0.11850000 0.11849100 14100.38468346 0 396.70504560 0 4647.25595367 0 -263.60562436 0 922.71579282 0 16015
0.11950000 0.11950300 13701.22917601 0 243.23644117 0 4695.33221684 0 158.34030246 0 735.22960708 0 15270
0.12050000 0.12050700 13609.95509207 0 226.13491515 0 4496.39518021 0 493.44208579 0 989.66623263 0 15999
0.12150000 0.12150000 13558.13569220 0 -88.62724791 0 4489.62830847 0 552.98381271 0 599.29192153 0 15670
0.12250000 0.12250700 13628.50216578 0 -126.56860317 0 3951.20113845 0 299.46442425 0 713.76783264 0 16887
0.12350000 0.12352200 13716.40405449 0 -23.60682782 0 4052.07473811 0 -208.27914146 0 295.44364349 0 16407
0.12450000 0.12449800 13572.63613164 0 167.09789344 0 4220.87559014 0 -705.38005906 0 384.65844021 0 16306
0.12550000 0.12549900 13787.78218663 0 146.04303056 0 4537.83945945 0 -398.79693070 0 404.17108581 0 17523
0.12650000 0.12650100 13866.80396127 0 -25.28280884 0 5074.08594322 0 -17.83070704 0 481.19314869 0 17154
0.12750000 0.12750600 13783.06111333 0 56.08758736 0 5117.91324042 0 355.92958507 0 669.09861070 0 18007
0.12850000 0.12850300 13890.29692130 0 161.48206434 0 5122.94905195 0 392.58534711 0 896.58802426 0 17496
0.12950000 0.12949900 13737.42407136 0 173.54215851 0 5429.57152259 0 205.65894577 0 1464.63430895 0 18405
0.13050000 0.13049000 13573.19816418 0 311.36040492 0 5520.07000163 0 42.32498423 0 1606.92970655 0 18100
0.13150000 0.13148800 13423.80991596 0 15.28784703 0 5461.78722759 0 524.63489157 0 1857.10162922 0 19059
0.13250000 0.13249300 13373.56420720 0 62.09414148 0 5154.53528050 0 591.78878716 0 2073.73145011 0 18957
0.13350000 0.13349100 13405.93728130 0 136.80658785 0 4870.77629345 0 979.75872308 0 1927.04095807 0 19468
0.13450000 0.13450700 13039.71688049 0 123.89894862 0 4657.59735234 0 890.89913092 0 1607.28940737 0 19953
0.13550000 0.13551000 12771.73976706 0 262.41861164 0 4165.26809097 0 674.52110061 0 1831.41674230 0 19956
0.13650000 0.13649900 12444.86164380 0 376.26729444 0 3639.59905954 0 77.18617637 0 1147.55803313 0 19723
0.13750000 0.13749600 12174.18677420 0 327.91113906 0 3728.25407185 0 -299.58582328 0 1130.04509929 0 20946
0.13850000 0.13851100 11862.70834244 0 157.17801917 0 3617.60110606 0 -437.21972303 0 741.09497863 0 20955
0.13950000 0.13949800 11877.20878189 0 3.27789740 0 4176.81223927 0 -648.48213319 0 199.67667146 0 20506
0.14050000 0.14048300 12037.61286782 0 97.21263212 0 3541.47941931 0 -548.92481373 0 -695.48491422 0 21447
0.14150000 0.14148400 12051.43886822 0 54.72803065 0 4155.38755898 0 -319.28393962 0 -1106.96804334 0 21771
0.14250000 0.14249400 11889.68590420 0 264.39696617 0 3593.47866959 0 -201.66851476 0 -1151.82948040 0 22470
0.14350000 0.14350900 11705.78885824 0 154.04187762 0 3753.28700103 0 385.31377015 0 -1800.50495279 0 22519
0.14450000 0.14449900 11643.96527922 0 62.28478292 0 3409.51417972 0 612.34681329 0 -1376.48512591 0 22218
0.14550000 0.14550500 11497.38719369 0 108.69293353 0 3247.69377180 0 378.29398377 0 -1829.23605606 0 23559
0.14650000 0.14650700 11447.25389143 0 70.54812249 0 2823.53905712 0 342.23172809 0 -1377.08088040 0 23044
0.14750000 0.14750500 11363.17382396 0 95.62230486 0 3261.38488439 0 32.40792012 0 -886.92106463 0 23649
0.14850000 0.14849900 11334.84738412 0 42.09960918 0 2980.00891529 0 -78.45670713 0 -655.12310964 0 23640
0.14950000 0.14949500 11393.07395490 0 87.87210099 0 3509.66837774 0 257.79308386 0 46.25988642 0 24457
0.15050000 0.15050000 11290.67162674 0 56.41525233 0 3238.08301543 0 269.15400956 0 -59.19832504 0 24591
0.15150000 0.15149900 11239.57162852 0 19.02851078 0 3375.32012020 0 639.74702351 0 857.60095126 0 25020
0.15250000 0.15250500 11216.87675470 0 -25.95713548 0 3200.13457856 0 696.81468320 0 861.13501185 0 25297
0.15350000 0.15350100 11198.61069726 0 -31.03150244 0 2772.73131581 0 871.34152271 0 1162.08095387 0 25452
0.15450000 0.15450400 11161.67391896 0 66.69404058 0 2825.86587182 0 587.67246087 0 1120.43097072 0 26061
0.15550000 0.15549900 11069.97269029 0 218.12932370 0 2413.89602253 0 -14.58924058 0 1195.43196459 0 26128
0.15650000 0.15649500 10893.26966080 0 348.53998128 0 2744.52852313 0 -204.48991810 0 1539.40711761 0 26331
0.15750000 0.15749700 10509.16538467 0 465.87214174 0 2610.74229813 0 -397.16703634 0 1131.93352861 0 27345
0.15850000 0.15849900 10231.01548233 0 549.70603896 0 2988.38320009 0 -614.23749074 0 1107.16475473 0 26980
0.15950000 0.15949700 9639.83593844 0 416.28963137 0 3149.15822749 0 -568.26997364 0 547.72993256 0 27777
0.16050000 0.16050000 9424.26273872 0 320.74410015 0 3016.41738301 0 -205.29250056 0 503.25517388 0 28224
0.16150000 0.16150500 9295.75961956 0 40.44667149 0 2880.63032218 0 -65.86369371 0 -204.33704525 0 28075
0.16250000 0.16249700 9233.35152670 0 -111.16284171 0 2498.62804774 0 367.42652264 0 -515.64574318 0 28590
0.16350000 0.16349900 9252.76413052 0 -83.08178528 0 2423.90020168 0 421.06128760 0 -658.85050943 0 29163
0.16450000 0.16449100 9388.50622874 0 -5.86914841 0 2107.30727384 0 360.57084976 0 -700.30265713 0 28996
0.16550000 0.16550500 9324.92910821 0 123.58870666 0 2135.89224865 0 36.35428778 0 -678.91507098 0 30777
0.16650000 0.16650700 9219.42436045 0 237.50258523 0 1980.65886205 0 64.40949072 0 -718.87558433 0 29211
0.16750000 0.16749900 8990.35113920 0 194.20584674 0 2078.65485513 0 36.53818483 0 -173.53541412 0 30922
0.16850000 0.16850800 8775.05895575 0 191.71941480 0 1918.66667327 0 351.77953682 0 -37.22970966 0 30867
0.16950000 0.16949900 8744.79912398 0 109.09658530 0 1868.92679379 0 486.78762056 0 -225.35818618 0 30852
0.17050000 0.17049200 8555.83254454 0 53.01405623 0 1272.75640097 0 406.07525205 0 -287.15478764 0 31257
0.17150000 0.17149500 8519.68261179 0 60.88846929 0 1202.47985260 0 352.08415846 0 -410.96718325 0 32608
0.17250000 0.17250900 8512.61224248 0 47.38586241 0 1156.22457484 0 24.81339927 0 -331.11247639 0 32361
0.17350000 0.17350400 8412.66037618 0 82.78941595 0 1377.85648530 0 -176.79745096 0 -210.04729582 0 32508
0.17450000 0.17449800 8447.28158044 0 159.66332705 0 1443.42320102 0 -540.56963804 0 -210.29121794 0 32791
0.17550000 0.17549800 8418.46055196 0 5.18344623 0 1943.22749512 0 -360.35502926 0 153.49558199 0 33633
0.17650000 0.17650100 8491.83951993 0 110.08699903 0 2280.16600078 0 -263.67868859 0 280.09790711 0 33984
0.17750000 0.17750300 8477.12550813 0 51.44890802 0 2352.18485002 0 69.72834183 0 306.04807339 0 34069
