### header ###
fiducial parameters:
Omega_m = 0.31
Omega_nu = 0
Omega_de = 0.69
Omega_k = 0
H_0 = 100
w_de = -1
zeff = 0
beta = 0
fgrowth = 0
b_1 = 2
gamma = 0.55
Lx = 3500 Ly = 3500 Lz = 3500
nx = 700 ny = 700 nz = 700
xoffset = 857.220397 yoffset = 15.9954215 zoffset = 262.898189
bins = 400 dk = 0.001
kx_ny = 0.628318531 ky_ny = 0.628318531 kz_ny = 0.628318531
############################
A(data) = 3.06588639 (not used)
A(ran) = 3.0641907 (used)
Ngal = 187288
weighted Ngal = 0
Nran = 9360983
weighted Nran = 0
SN(data) = 3452.94811
SN(ran) = 68.8102073
SN(data+ran) = 3521.75832
############################
13 columns: k_central k_mean P_0(k) sigma^{lin}_{P_0(k)} P^img_1(k) sigma^{lin}_{P_1(k)} P_2(k) sigma^{lin}_{P_2(k)} P^img_3(k) sigma^{lin}_{P_3(k)} P_4(k) sigma^{lin}_{P_4(k)} N_modes
### header ###
0.00050000 0 0 0 0 0 0 0 0 0 0 0 0
0.00150000 0.00179520 7499.87457422 0 -15250.52806626 0 -15286.49814860 0 44789.27208969 0 -335.87176791 0 3
0.00250000 0.00253879 16464.96797123 0 -18399.93358807 0 -2247.05104373 0 -25785.49074436 0 -3927.43840281 0 6
0.00350000 0.00331552 24415.14301374 0 -16792.74534655 0 -23346.26953573 0 7192.75751495 0 9596.26717621 0 7
0.00450000 0.00420575 33777.48100758 0 -15400.47834701 0 -20036.23511498 0 -15452.52255989 0 -4171.88883425 0 24
0.00550000 0.00557378 48622.22158245 0 -14125.45133459 0 -33585.37828659 0 -21015.29579365 0 -1457.66510549 0 45
0.00650000 0.00659388 56381.86759507 0 -11667.34583274 0 -18211.65268832 0 -35839.46597768 0 -36157.91361289 0 40
0.00750000 0.00754703 70579.59631386 0 -7371.66371199 0 -30988.11352869 0 -44976.99095690 0 -25164.44479147 0 57
0.00850000 0.00846663 70165.49074093 0 -217.11766513 0 -11824.26531694 0 -46369.48276946 0 -30318.17074512 0 75
0.00950000 0.00948925 73568.37293673 0 9006.38030714 0 3188.59043026 0 -46751.55248780 0 -18157.80997132 0 112
0.01050000 0.01054430 71685.33912627 0 4499.82357868 0 16783.30319994 0 -33093.59981711 0 -31976.95357349 0 105
0.01150000 0.01145670 67126.13118978 0 2475.22501292 0 18976.80378358 0 -2300.65770706 0 -14347.34178002 0 144
0.01250000 0.01249090 72273.67478553 0 -3993.91561123 0 22230.97217020 0 7818.74935416 0 -31587.57743217 0 169
0.01350000 0.01339930 73630.98336130 0 -5744.15237395 0 11633.28666102 0 23893.23960030 0 -18601.47845567 0 180
0.01450000 0.01448870 73790.71300819 0 -1190.58724413 0 8181.15917438 0 5439.96912452 0 -33162.61741260 0 267
0.01550000 0.01550050 76318.28573156 0 75.31989113 0 1848.04166473 0 -418.95816185 0 -41320.40727411 0 238
0.01650000 0.01653350 67285.97324318 0 5303.51886529 0 -3754.90565474 0 -10657.89043449 0 -34121.44491995 0 315
0.01750000 0.01747870 64638.57518301 0 3895.97582141 0 -178.76568890 0 -13992.13721692 0 -30129.55262586 0 297
0.01850000 0.01844180 56889.15816256 0 1713.52479743 0 -2439.36733708 0 -5656.38537304 0 -24745.73055174 0 388
0.01950000 0.01947590 61279.64393158 0 2251.27752840 0 -4628.04568157 0 -10363.61019836 0 -31193.14299802 0 399
0.02050000 0.02045430 57843.82662914 0 1768.34545105 0 -4839.20130555 0 -6093.65792713 0 -20055.68144074 0 462
0.02150000 0.02154770 57564.04683245 0 1518.38710074 0 6884.15668978 0 -1313.94214525 0 -3570.27796648 0 571
0.02250000 0.02255340 55788.02401695 0 -136.11303970 0 1392.48057190 0 5354.23668139 0 -6303.55459823 0 510
0.02350000 0.02348930 57932.29055040 0 1409.95978379 0 20982.58550002 0 6911.92109709 0 25546.06488379 0 555
0.02450000 0.02439640 57454.22567481 0 681.30595739 0 10499.28485268 0 3944.82768949 0 9592.79381513 0 592
0.02550000 0.02547300 61680.93516267 0 468.44175450 0 29128.34786525 0 6004.54204813 0 37909.65662280 0 837
0.02650000 0.02652900 59977.97657693 0 150.32909068 0 26259.95861171 0 8566.05029606 0 25104.53212307 0 723
0.02750000 0.02749970 62450.13289220 0 -1878.69491927 0 26557.38623005 0 2733.64757322 0 39812.47397855 0 826
0.02850000 0.02848090 64661.28129749 0 -2396.02338787 0 26431.04131584 0 9511.04056236 0 20712.47266295 0 831
0.02950000 0.02946900 65946.42489556 0 40.43205865 0 29870.68043952 0 7628.79359746 0 19476.33830207 0 996
0.03050000 0.03053250 64225.14404913 0 1146.89483473 0 21461.77444068 0 8325.26431675 0 14571.92998163 0 1041
0.03150000 0.03150510 64801.56461861 0 675.84974553 0 18922.17422103 0 6281.74773581 0 13764.06441359 0 1036
0.03250000 0.03246190 59434.15389456 0 2670.67744783 0 14965.46516372 0 7920.26367091 0 13479.11391756 0 1059
0.03350000 0.03345080 59673.69216164 0 2170.63710006 0 15698.01837186 0 5295.41435612 0 14926.68491870 0 1302
0.03450000 0.03451200 56553.17511221 0 1881.12289983 0 11426.57109408 0 4831.36657199 0 17314.42394697 0 1339
0.03550000 0.03553350 55126.73653445 0 4099.44284029 0 13657.95267069 0 1514.09317216 0 22139.24846024 0 1365
0.03650000 0.03647120 53444.57315256 0 3360.69603360 0 15689.70029032 0 -782.39425348 0 25759.18762165 0 1308
0.03750000 0.03744890 49653.21406750 0 4010.46184910 0 23269.72070425 0 337.86361122 0 31812.05322727 0 1579
0.03850000 0.03847530 49273.72969882 0 3095.87754303 0 25669.37482231 0 662.41829197 0 32345.08488493 0 1662
0.03950000 0.03950240 44862.56113246 0 2303.41166649 0 23943.03568304 0 1893.02674896 0 26261.53230281 0 1683
0.04050000 0.04050350 45268.79824988 0 2102.22649971 0 26781.07517960 0 3050.21801976 0 25242.34250104 0 1822
0.04150000 0.04152450 43990.73626176 0 -552.93997417 0 25007.63771377 0 2474.13466980 0 25696.46479057 0 1887
0.04250000 0.04250150 44169.12538886 0 -281.30740113 0 21908.92752676 0 3876.40584849 0 15555.37451408 0 1920
0.04350000 0.04349210 42652.98641827 0 102.17785236 0 17920.07020836 0 -772.98245662 0 8330.96332667 0 2005
0.04450000 0.04448520 42954.79789039 0 988.30948609 0 17345.78536251 0 495.53509496 0 5849.78076887 0 2151
0.04550000 0.04548030 41041.97635550 0 1806.11403750 0 13190.67881980 0 -298.40218276 0 4145.77680260 0 2274
0.04650000 0.04648670 40346.62970128 0 990.58122160 0 14594.18647008 0 -126.36177519 0 2031.29799360 0 2311
0.04750000 0.04749250 38162.12163822 0 447.88260431 0 8869.81764141 0 2887.43091587 0 -3645.27558816 0 2568
0.04850000 0.04851840 38166.16827249 0 1077.80192689 0 13951.89568731 0 1871.77067842 0 -576.54871290 0 2493
0.04950000 0.04949480 36056.29813028 0 763.30650447 0 4705.62865291 0 1052.79147901 0 -8180.81071421 0 2644
0.05050000 0.05050630 36516.82759073 0 759.69600746 0 13423.92232247 0 -588.46829894 0 2981.24538687 0 2829
0.05150000 0.05149060 35556.65120529 0 -135.35766797 0 4147.48538152 0 135.27673529 0 -7841.16321172 0 2784
0.05250000 0.05249300 36157.80120638 0 -722.16684686 0 10363.99238048 0 713.54189556 0 -3385.32429935 0 3055
0.05350000 0.05348950 36462.31043468 0 -394.50300212 0 5975.59737250 0 -3801.11596989 0 -9314.04815830 0 3009
0.05450000 0.05448610 35687.94200582 0 960.15502820 0 8267.57729720 0 -3062.72886402 0 -8839.70393811 0 3336
0.05550000 0.05550870 36014.93253559 0 1713.43487223 0 10275.58466248 0 -4466.97839724 0 -8306.45870808 0 3349
0.05650000 0.05647670 34119.30919631 0 1313.36887206 0 9974.25653834 0 -2861.74602895 0 -10476.47757235 0 3324
0.05750000 0.05747970 34218.00210973 0 748.11026875 0 13312.63988023 0 438.13358793 0 -6560.59455849 0 3639
0.05850000 0.05849280 34196.30765382 0 -313.00041586 0 14330.14358440 0 2473.48271205 0 -5605.61135369 0 3846
0.05950000 0.05951020 34587.14507974 0 64.39735082 0 14698.05008283 0 3054.65807680 0 -849.21654988 0 3787
0.06050000 0.06049470 35102.97854178 0 275.88266309 0 15757.25660121 0 3307.11185156 0 272.74090121 0 3930
0.06150000 0.06148310 34184.95459658 0 1078.12340950 0 14632.29227605 0 2782.18470308 0 4281.67626994 0 4083
0.06250000 0.06249100 33603.36332776 0 1292.40505845 0 14609.69856808 0 1843.29811012 0 4364.40745932 0 4303
0.06350000 0.06350600 32233.57762968 0 1116.85869192 0 13531.15813045 0 2568.16271316 0 4144.74266274 0 4470
0.06450000 0.06451750 31032.62650558 0 1157.62965618 0 12879.87482709 0 1707.44360539 0 3717.13706828 0 4479
0.06550000 0.06550280 29502.32431507 0 988.69841261 0 12411.70172415 0 2042.01033374 0 4031.03223994 0 4636
0.06650000 0.06648880 29161.84500442 0 10.48006334 0 11022.57086616 0 2043.50534029 0 3063.67307868 0 4653
0.06750000 0.06749660 28731.89011396 0 -3.15118154 0 9658.54038125 0 2097.98877438 0 3157.29645862 0 5220
0.06850000 0.06852730 29325.73369208 0 0.69010514 0 8381.60245821 0 1927.63671256 0 2849.74101397 0 5029
0.06950000 0.06949320 28817.54387253 0 -178.40598808 0 10119.60939294 0 213.63081527 0 4454.29894322 0 5040
0.07050000 0.07048030 29428.81045929 0 727.50390783 0 8235.62012717 0 729.11019682 0 5142.50778422 0 5475
0.07150000 0.07148790 29023.58500043 0 692.23636616 0 9826.86912595 0 -923.19576860 0 4850.70049125 0 5509
0.07250000 0.07249820 27985.51090543 0 1002.74697789 0 9227.20289075 0 547.46465320 0 4781.40187949 0 5916
0.07350000 0.07351270 27175.95923978 0 626.82477143 0 9438.90930662 0 608.66325204 0 3868.88585315 0 5721
0.07450000 0.07449140 27349.73970008 0 611.48802757 0 8441.38023880 0 194.62737115 0 3497.67460341 0 6028
0.07550000 0.07549160 26278.16846590 0 426.75917346 0 9528.57597750 0 371.70134211 0 2280.68307072 0 6183
0.07650000 0.07648840 26457.34443855 0 437.91102305 0 8880.00167098 0 85.22751309 0 1362.70408812 0 6330
0.07750000 0.07749960 25300.23185230 0 447.89047277 0 8257.70800586 0 -548.67864348 0 703.81423641 0 6583
0.07850000 0.07848650 24997.74594113 0 249.62000672 0 7382.55590255 0 616.70706171 0 -636.97170684 0 6549
0.07950000 0.07947320 24494.27719489 0 -146.40497951 0 7637.93224650 0 436.28225276 0 179.02422387 0 6828
0.08050000 0.08048110 24659.06513460 0 208.44887529 0 6629.90441090 0 160.93801684 0 -1473.28961001 0 7147
0.08150000 0.08149960 24561.94591229 0 123.01880567 0 7305.87218326 0 549.72852026 0 402.29389714 0 7386
0.08250000 0.08250610 23909.98816989 0 787.28506061 0 5729.76434101 0 115.66966822 0 -1236.34793325 0 7227
0.08350000 0.08350160 23629.19671463 0 1048.70100621 0 7131.60837498 0 146.66576261 0 926.07899551 0 7798
0.08450000 0.08449610 22502.99591789 0 916.23892986 0 6140.41903417 0 547.93900866 0 292.62673641 0 7371
0.08550000 0.08548940 21793.14882423 0 731.90574666 0 6491.97038578 0 580.50204977 0 -524.73156116 0 8256
0.08650000 0.08650700 21210.99552287 0 185.20096144 0 6085.02510737 0 1113.59103475 0 895.01208502 0 8037
0.08750000 0.08749060 21344.08482753 0 18.60945932 0 5897.66594098 0 1298.47500984 0 300.99989714 0 8155
0.08850000 0.08849210 20796.66513693 0 47.38766091 0 4525.58715015 0 286.91311365 0 150.86976598 0 8718
0.08950000 0.08949900 21073.74717745 0 -44.80051274 0 3436.44677888 0 110.62036791 0 -1050.75467310 0 8571
0.09050000 0.09049190 20802.51027531 0 40.33381536 0 3488.87317389 0 -723.05485827 0 -1061.79973650 0 8932
0.09150000 0.09150830 21238.19789764 0 -91.64131600 0 3168.82936627 0 -496.77156654 0 -1416.80534009 0 9285
0.09250000 0.09250820 21122.98122765 0 31.76843950 0 3243.18627086 0 -190.69876372 0 -1486.42993071 0 9204
0.09350000 0.09350330 21102.41083681 0 278.70968674 0 3180.93554711 0 81.60352730 0 -1544.78014866 0 9349
0.09450000 0.09448040 20954.82109271 0 345.64888591 0 4539.17709689 0 66.26015146 0 -2417.27945840 0 9564
0.09550000 0.09549270 20734.61674489 0 396.07332103 0 4064.93404255 0 473.30333594 0 -382.21697087 0 10155
0.09650000 0.09649430 20382.10993797 0 520.80182967 0 5646.40367519 0 43.75479500 0 -429.78403257 0 9913
0.09750000 0.09749140 20273.86247143 0 304.12479805 0 5576.41938374 0 -232.11606540 0 745.58112234 0 10476
0.09850000 0.09850240 19805.46455547 0 420.08897131 0 6134.91111531 0 -297.03307150 0 -678.29795926 0 10575
0.09950000 0.09950330 19681.59258441 0 591.96863758 0 6788.30766100 0 -559.18415565 0 538.12929277 0 10882
0.10050000 0.10051200 18793.24395714 0 745.16072200 0 6425.67302777 0 -630.46674226 0 -198.26934198 0 10875
0.10150000 0.10150300 18443.21009338 0 803.48621051 0 6707.88080502 0 249.31763321 0 501.58818537 0 11118
0.10250000 0.10250800 17753.48376453 0 517.71739511 0 6613.68415189 0 542.81889226 0 153.34046101 0 11575
0.10350000 0.10349800 17451.67229240 0 380.56684334 0 6152.58141826 0 946.50775415 0 573.35636810 0 11364
0.10450000 0.10450100 16820.39734735 0 193.10875923 0 6043.98549155 0 1332.23068399 0 758.64500662 0 12093
0.10550000 0.10551000 16698.21147390 0 260.23118101 0 5801.40100812 0 626.62019158 0 927.72237865 0 12067
0.10650000 0.10649700 16586.36699913 0 91.44629070 0 4773.93808740 0 704.31332131 0 1788.08403373 0 12054
0.10750000 0.10749900 16391.56652196 0 -11.97961111 0 4966.97378241 0 564.74378151 0 1310.12032400 0 12807
0.10850000 0.10850100 16619.07729276 0 70.56014999 0 3913.35386744 0 336.83733980 0 1341.60538670 0 12736
0.10950000 0.10950300 16484.75151652 0 97.46554676 0 3895.52619538 0 189.04638806 0 331.85548340 0 12933
0.11050000 0.11050200 16290.40066538 0 298.09980926 0 4124.05986539 0 -258.65074552 0 1281.92877197 0 13428
0.11150000 0.11150900 16121.45368489 0 548.61119958 0 4175.67693355 0 -616.64636219 0 714.79747624 0 13453
0.11250000 0.11250000 15632.14815857 0 386.41872611 0 4616.34416416 0 6.23395249 0 1058.31513478 0 13668
0.11350000 0.11349100 15295.49066918 0 454.42016678 0 4906.39791562 0 208.91423823 0 1079.56895718 0 13791
0.11450000 0.11448600 15119.01245271 0 345.85234169 0 5152.20846580 0 548.97764479 0 943.17265308 0 14205
0.11550000 0.11549300 14613.85760885 0 283.38916964 0 5130.39036273 0 394.23547463 0 1588.11285723 0 14776
0.11650000 0.11649800 14521.45945985 0 366.62956050 0 5434.37128045 0 -60.23122844 0 1440.93901721 0 14553
0.11750000 0.11747300 14128.48631029 0 181.70511907 0 5271.04462533 0 110.52145018 0 1752.97948150 0 14568
0.11850000 0.11849100 14115.55956195 0 -16.67854034 0 5588.93022800 0 222.89985587 0 2075.26017861 0 16015
0.11950000 0.11950300 14282.93285133 0 -141.65917677 0 5293.99803412 0 414.35848757 0 2182.66459634 0 15270
0.12050000 0.12050700 14473.23706821 0 -26.95553008 0 5576.58799350 0 290.67760758 0 1642.78738238 0 15999
0.12150000 0.12150000 14561.70098946 0 41.01140179 0 5699.61691575 0 278.19711307 0 1601.39930639 0 15670
0.12250000 0.12250700 14235.38489874 0 335.12651276 0 4995.23277835 0 -195.13320043 0 1592.23817604 0 16887
0.12350000 0.12352200 14331.71727551 0 210.35978591 0 5751.63864734 0 -431.03174480 0 1609.50381557 0 16407
0.12450000 0.12449800 13915.81319846 0 110.51920205 0 5035.40686406 0 138.50055392 0 1100.39226266 0 16306
0.12550000 0.12549900 13861.63326194 0 16.57231619 0 4825.07180758 0 741.41533718 0 1123.81890285 0 17523
0.12650000 0.12650100 13656.37897959 0 25.41263836 0 4066.24919868 0 705.67568818 0 676.52868083 0 17154
0.12750000 0.12750600 13657.50304466 0 94.22059571 0 3523.04475211 0 1144.48933548 0 587.77587485 0 18007
0.12850000 0.12850300 13477.20300694 0 205.69491586 0 3156.47589112 0 938.29308660 0 984.79003835 0 17496
0.12950000 0.12949900 13391.43684186 0 145.81821754 0 2881.96795962 0 414.76090287 0 1385.47764650 0 18405
0.13050000 0.13049000 13198.99690134 0 240.40042499 0 3076.02655384 0 -120.98762008 0 1588.03417267 0 18100
0.13150000 0.13148800 12924.16299097 0 364.20607620 0 3486.67000634 0 -526.56603536 0 1603.31021701 0 19059
0.13250000 0.13249300 12780.84469415 0 351.07699615 0 3410.63824480 0 -875.91871569 0 1397.76367775 0 18957
0.13350000 0.13349100 12539.39551645 0 212.99347038 0 4065.48483443 0 -329.42975097 0 1145.05136801 0 19468
0.13450000 0.13450700 12267.25936225 0 244.16604298 0 3768.50684212 0 -309.52705479 0 661.35829860 0 19953
0.13550000 0.13551000 12303.34185110 0 162.16661997 0 4009.05676776 0 280.98479445 0 131.61677941 0 19956
0.13650000 0.13649900 11888.67424563 0 242.60022034 0 4243.61542657 0 -143.32391715 0 367.75924590 0 19723
0.13750000 0.13749600 11869.45273288 0 420.49026254 0 4125.86961016 0 -282.64728670 0 -169.23024489 0 20946
0.13850000 0.13851100 11616.53809144 0 101.81050790 0 4371.61271644 0 102.30723225 0 535.28990440 0 20955
0.13950000 0.13949800 11571.80030153 0 92.73401965 0 4465.62951915 0 414.91827198 0 1126.07714958 0 20506
0.14050000 0.14048300 11542.68701613 0 -55.29264854 0 4462.69570931 0 528.91308324 0 652.06565264 0 21447
0.14150000 0.14148400 11540.21407297 0 65.13035365 0 3836.16431887 0 847.03024331 0 1005.28848902 0 21771
0.14250000 0.14249400 11240.98795051 0 337.87372780 0 3752.84861565 0 625.30840764 0 1097.72148405 0 22470
0.14350000 0.14350900 10952.20439258 0 317.68551909 0 3188.71407742 0 616.10793502 0 1168.30827438 0 22519
0.14450000 0.14449900 10671.93000726 0 297.48044940 0 2752.40821929 0 466.28804582 0 1219.02609047 0 22218
0.14550000 0.14550500 10423.27557244 0 113.29451872 0 2867.11906000 0 252.93150242 0 1594.30645578 0 23559
0.14650000 0.14650700 10378.27924756 0 115.26163260 0 2527.47155751 0 -82.66498195 0 1268.72100736 0 23044
0.14750000 0.14750500 10383.04528347 0 2.86235302 0 2956.47099266 0 -66.36491432 0 1895.40976691 0 23649
0.14850000 0.14849900 10377.90830609 0 124.89374621 0 2934.21450422 0 -151.33512892 0 1517.55529259 0 23640
0.14950000 0.14949500 10398.55738148 0 63.18538386 0 3484.14085993 0 -290.02227764 0 1882.42681532 0 24457
0.15050000 0.15050000 10265.11961665 0 207.62268746 0 3151.21526658 0 -81.77258669 0 1412.61257736 0 24591
0.15150000 0.15149900 10109.48156663 0 194.80497343 0 3607.37211389 0 63.88916100 0 1420.33490442 0 25020
0.15250000 0.15250500 9917.43504889 0 156.01236369 0 3057.61436794 0 117.71546665 0 635.64306193 0 25297
0.15350000 0.15350100 9773.98186426 0 126.87884513 0 2971.03887601 0 12.94405894 0 634.32565766 0 25452
0.15450000 0.15450400 9663.20525131 0 41.08795062 0 2900.20029510 0 135.18118976 0 302.16667669 0 26061
0.15550000 0.15549900 9659.22606095 0 49.28294703 0 2659.74029467 0 76.53781564 0 375.69064906 0 26128
0.15650000 0.15649500 9637.03701641 0 -2.26040494 0 2564.58818623 0 265.69750946 0 742.36742029 0 26331
0.15750000 0.15749700 9661.87885452 0 -35.50224646 0 2521.30044026 0 490.53974977 0 794.26325659 0 27345
0.15850000 0.15849900 9691.48672855 0 21.46795680 0 2353.45504355 0 381.74261541 0 1241.99073992 0 26980
0.15950000 0.15949700 9620.99660781 0 133.97057167 0 2483.95899853 0 399.01050306 0 1142.81447852 0 27777
0.16050000 0.16050000 9526.20420020 0 176.13312850 0 2390.56043161 0 20.93919659 0 1472.18802624 0 28224
0.16150000 0.16150500 9371.35299573 0 285.61032223 0 2346.56452465 0 -53.02451003 0 1555.84094898 0 28075
0.16250000 0.16249700 9197.21283460 0 162.00925086 0 2616.14905113 0 51.20150130 0 1785.47620276 0 28590
0.16350000 0.16349900 9048.45406283 0 103.21828700 0 2447.06718284 0 97.95136769 0 1973.81330576 0 29163
0.16450000 0.16449100 9101.93707901 0 22.71892882 0 2570.72558153 0 328.10335419 0 1848.25523709 0 28996
0.16550000 0.16550500 9017.48607007 0 36.05573610 0 2436.16375163 0 120.10860119 0 1678.53265171 0 30777
0.16650000 0.16650700 9025.82663291 0 111.13417805 0 2409.57961265 0 -38.09186757 0 1684.53515920 0 29211
0.16750000 0.16749900 8788.70510574 0 143.07437470 0 2196.45687479 0 -86.78321916 0 1448.78499142 0 30922
0.16850000 0.16850800 8751.79080874 0 192.45455336 0 2189.49891199 0 -161.04592709 0 1388.95100757 0 30867
0.16950000 0.16949900 8588.56531947 0 59.74551992 0 1910.64084865 0 82.98848788 0 907.48808327 0 30852
0.17050000 0.17049200 8525.21301195 0 100.28605085 0 1944.49768865 0 -4.86443657 0 397.22661179 0 31257
0.17150000 0.17149500 8473.42733404 0 34.43944293 0 1542.77931283 0 15.14216819 0 -14.53000235 0 32608
0.17250000 0.17250900 8353.52331269 0 81.66209109 0 1684.29910553 0 -95.36646765 0 -164.38889662 0 32361
0.17350000 0.17350400 8346.38549947 0 166.51899993 0 1522.70351062 0 -211.26578236 0 -459.36605310 0 32508
0.17450000 0.17449800 8202.72998313 0 152.39175009 0 1784.37461899 0 -160.99422009 0 -204.55061761 0 32791
0.17550000 0.17549800 8119.25691080 0 183.54184140 0 1625.28568919 0 119.68820085 0 -376.64273217 0 33633
0.17650000 0.17650100 8025.70097477 0 68.51806097 0 1813.11696291 0 449.53835216 0 58.20004285 0 33984
0.17750000 0.17750300 7901.69411591 0 51.72655209 0 1370.66246884 0 403.25722091 0 -197.16551008 0 34069
0.17850000 0.17849800 7808.05949532 0 51.48431607 0 1299.01456108 0 450.30946080 0 -9.57505607 0 34536
