### header ###
fiducial parameters:
Omega_m = 0.31
Omega_nu = 0
Omega_de = 0.69
Omega_k = 0
H_0 = 100
w_de = -1
zeff = 0
beta = 0
fgrowth = 0
b_1 = 2
gamma = 0.55
Lx = 3500 Ly = 3500 Lz = 3500
nx = 700 ny = 700 nz = 700
xoffset = 857.220397 yoffset = 15.9954215 zoffset = 262.898189
bins = 400 dk = 0.001
kx_ny = 0.628318531 ky_ny = 0.628318531 kz_ny = 0.628318531
############################
A(data) = 3.0250915 (not used)
A(ran) = 3.02464729 (used)
Ngal = 184807
weighted Ngal = 0
Nran = 9360983
weighted Nran = 0
SN(data) = 3443.196
SN(ran) = 67.922211
SN(data+ran) = 3511.11821
############################
13 columns: k_central k_mean P_0(k) sigma^{lin}_{P_0(k)} P^img_1(k) sigma^{lin}_{P_1(k)} P_2(k) sigma^{lin}_{P_2(k)} P^img_3(k) sigma^{lin}_{P_3(k)} P_4(k) sigma^{lin}_{P_4(k)} N_modes
### header ###
0.00050000 0 0 0 0 0 0 0 0 0 0 0 0
0.00150000 0.00179520 16131.23305103 0 -36572.01918582 0 -56204.82734606 0 93313.92482380 0 88219.77431902 0 3
0.00250000 0.00253879 35685.91868869 0 -49251.36080387 0 -49120.29481634 0 -16087.05729366 0 -39953.76895823 0 6
0.00350000 0.00331552 74027.32870607 0 -71603.50718895 0 -103934.20404095 0 20692.91393068 0 15966.33270481 0 7
0.00450000 0.00420575 113044.97627143 0 -74813.83703772 0 -125032.00621096 0 -927.88761622 0 -13580.72940017 0 24
0.00550000 0.00557378 172013.43000621 0 -42059.81727919 0 -156759.86696426 0 -47967.56608388 0 24976.05148522 0 45
0.00650000 0.00659388 155330.05619127 0 -2221.87198609 0 -92444.79770928 0 -71492.56196624 0 -49534.96242181 0 40
0.00750000 0.00754703 151385.71184977 0 29661.15470990 0 -78544.04698280 0 -101861.54045266 0 52735.40049794 0 57
0.00850000 0.00846663 122614.14223872 0 32091.38339794 0 -24022.84430323 0 -51383.26262151 0 42723.80251787 0 75
0.00950000 0.00948925 105351.08806559 0 26805.69220470 0 42074.31771864 0 -62716.64872103 0 73041.07401094 0 112
0.01050000 0.01054430 85280.90618541 0 12257.14277659 0 57938.92253433 0 1149.90732913 0 22990.84015962 0 105
0.01150000 0.01145670 90064.25269747 0 10229.67784490 0 102188.08135640 0 -12584.80774540 0 52604.55932343 0 144
0.01250000 0.01249090 85119.60284742 0 7625.81482501 0 84771.36748777 0 13913.00303578 0 25695.00350597 0 169
0.01350000 0.01339930 88534.06291346 0 9601.24678448 0 101901.78198228 0 27728.77444273 0 37320.42171149 0 180
0.01450000 0.01448870 76449.35171908 0 7223.41076950 0 70963.80175585 0 13215.74547093 0 5804.69451879 0 267
0.01550000 0.01550050 76376.62470885 0 6485.93415634 0 67121.52252298 0 17842.17249879 0 -12991.94411488 0 238
0.01650000 0.01653350 66899.51967104 0 3756.28825478 0 51427.32597237 0 11196.55365817 0 -3823.93449087 0 315
0.01750000 0.01747870 69678.32093825 0 1185.75376431 0 50182.76112344 0 21061.04524212 0 4096.20553288 0 297
0.01850000 0.01844180 64557.64249775 0 -1751.70928797 0 42890.27655520 0 14447.04635201 0 8519.40159553 0 388
0.01950000 0.01947590 70939.52195027 0 -1508.61897526 0 30764.42457914 0 25173.66212507 0 -6900.30950488 0 399
0.02050000 0.02045430 68062.70220869 0 1541.23934368 0 29990.16855679 0 18496.26596483 0 12407.43027687 0 462
0.02150000 0.02154770 63173.24395372 0 5659.72384631 0 23552.64788315 0 11853.60341535 0 9568.27795589 0 571
0.02250000 0.02255340 60081.50297016 0 2072.68606959 0 21336.66599805 0 7015.82967245 0 14308.67394151 0 510
0.02350000 0.02348930 52362.43570668 0 4653.65188393 0 15588.42202723 0 -2057.06156507 0 -2423.69786997 0 555
0.02450000 0.02439640 53977.94202974 0 -1272.20560908 0 14483.69087339 0 -380.82875051 0 -5704.84381834 0 592
0.02550000 0.02547300 54510.52406138 0 -3287.95778272 0 14630.94339797 0 -5018.61333187 0 -5026.39186217 0 837
0.02650000 0.02652900 61732.52974953 0 -2947.30986232 0 16178.44378410 0 -10751.31148272 0 -13365.13371915 0 723
0.02750000 0.02749970 65909.10593514 0 -3130.03788060 0 23488.01414145 0 -7081.44135076 0 -10418.38588937 0 826
0.02850000 0.02848090 70117.60556882 0 597.16743854 0 31320.04994478 0 -4444.58702099 0 -10058.14551474 0 831
0.02950000 0.02946900 69631.55983121 0 2911.38474258 0 34106.38244797 0 -3838.35624576 0 3818.24672160 0 996
0.03050000 0.03053250 68805.14718947 0 2661.61748334 0 42686.37115094 0 7043.35802609 0 3038.44905844 0 1041
0.03150000 0.03150510 67349.59532631 0 2504.77668369 0 41746.87756284 0 8999.17505003 0 6460.04693770 0 1036
0.03250000 0.03246190 63200.78354801 0 1528.16646688 0 35225.72644777 0 15735.67455181 0 5480.24437609 0 1059
0.03350000 0.03345080 62628.63442580 0 1786.53282393 0 32091.27099143 0 9362.68645402 0 794.60272424 0 1302
0.03450000 0.03451200 56158.96549108 0 2155.13624270 0 18913.40651346 0 5632.57767479 0 -693.41101416 0 1339
0.03550000 0.03553350 54128.67915604 0 2346.90174417 0 17530.69406704 0 2217.11719083 0 -9707.11123306 0 1365
0.03650000 0.03647120 52193.60113270 0 1439.82619278 0 10527.13918519 0 1266.41667396 0 -8690.58546551 0 1308
0.03750000 0.03744890 49402.65996271 0 2151.58419707 0 9586.86999219 0 4240.98511430 0 -11942.06733660 0 1579
0.03850000 0.03847530 48533.98247422 0 487.99711457 0 10224.34977645 0 4532.47766905 0 -5297.34774804 0 1662
0.03950000 0.03950240 48163.15340660 0 911.02101979 0 8060.77180505 0 3351.79343822 0 -6085.67706511 0 1683
0.04050000 0.04050350 48154.16088601 0 1250.52239382 0 11757.94547763 0 661.87087228 0 -4951.43920310 0 1822
0.04150000 0.04152450 47421.15805185 0 1527.42458393 0 13369.74238595 0 -3904.70980703 0 110.91936922 0 1887
0.04250000 0.04250150 46026.53051565 0 888.98147591 0 19830.19398708 0 -5836.47183840 0 -3279.36992556 0 1920
0.04350000 0.04349210 46187.15941460 0 1459.03646488 0 19447.22501667 0 -6464.56567930 0 -1162.04723192 0 2005
0.04450000 0.04448520 45293.52768148 0 1091.20527882 0 22575.83533463 0 -1890.90226597 0 -2411.36687611 0 2151
0.04550000 0.04548030 45553.63633940 0 457.67545923 0 20666.04877543 0 3275.13220024 0 -2662.94388012 0 2274
0.04650000 0.04648670 44055.37000347 0 431.76913149 0 17441.66811325 0 5379.34829512 0 -5650.36038425 0 2311
0.04750000 0.04749250 44141.58579457 0 838.35920534 0 16073.34369977 0 5217.92130998 0 -3733.97556307 0 2568
0.04850000 0.04851840 42683.33617524 0 2206.50601654 0 14697.60045680 0 -15.98004630 0 -2802.72137196 0 2493
0.04950000 0.04949480 41796.44883257 0 2698.28448602 0 17114.34036396 0 895.24139430 0 137.82274268 0 2644
0.05050000 0.05050630 38965.71575898 0 1918.25076920 0 17954.69141261 0 -1542.88047869 0 1404.80032511 0 2829
0.05150000 0.05149060 39663.76016938 0 412.95003403 0 18071.03214768 0 233.31769096 0 2934.37187333 0 2784
0.05250000 0.05249300 38321.06443956 0 133.02298482 0 19979.58223529 0 1193.92571739 0 2065.15483360 0 3055
0.05350000 0.05348950 39669.38049474 0 -518.88867091 0 17314.08672745 0 1287.05450870 0 -1966.15842261 0 3009
0.05450000 0.05448610 38210.23162335 0 27.59220054 0 16830.06430698 0 2781.34165427 0 1226.08521913 0 3336
0.05550000 0.05550870 38840.04528381 0 279.43695685 0 13248.90539059 0 1622.13830699 0 -2416.52633480 0 3349
0.05650000 0.05647670 36856.96968185 0 665.14864603 0 12171.93864405 0 2319.29470598 0 -6214.11274036 0 3324
0.05750000 0.05747970 37282.54071852 0 493.96140385 0 10531.18581945 0 607.62349185 0 -3352.06321384 0 3639
0.05850000 0.05849280 35918.48775232 0 543.14824332 0 12058.63288469 0 534.47832941 0 -5877.57889813 0 3846
0.05950000 0.05951020 35860.14877502 0 497.74163469 0 8727.16254299 0 -766.62699270 0 -4865.49318761 0 3787
0.06050000 0.06049470 35913.20464647 0 852.40664656 0 14237.18340286 0 -1886.01258290 0 -4648.87460737 0 3930
0.06150000 0.06148310 35088.14088282 0 867.12852682 0 11322.48266831 0 -1364.36770443 0 -4505.09544387 0 4083
0.06250000 0.06249100 35151.31333993 0 919.97532217 0 15988.25197373 0 -762.97378121 0 -4833.71586799 0 4303
0.06350000 0.06350600 34109.08020415 0 919.76961826 0 14004.72674574 0 -200.98058694 0 -3964.48758761 0 4470
0.06450000 0.06451750 33334.37455577 0 1055.30826071 0 16485.87558159 0 1313.54872247 0 -6020.97587950 0 4479
0.06550000 0.06550280 32763.23709213 0 706.21074315 0 13358.50173522 0 -125.65473826 0 -5917.22467325 0 4636
0.06650000 0.06648880 32225.25954814 0 522.43172402 0 13808.91461001 0 2001.76880413 0 -7130.54051316 0 4653
0.06750000 0.06749660 30913.58801434 0 811.08376634 0 12851.66079376 0 -153.40790492 0 -7766.37916241 0 5220
0.06850000 0.06852730 30349.98178669 0 655.37602428 0 11344.28953073 0 773.66476412 0 -6612.95350960 0 5029
0.06950000 0.06949320 29580.33443114 0 661.81916528 0 12186.10186397 0 534.92795544 0 -10175.90257180 0 5040
0.07050000 0.07048030 29095.86238463 0 214.34459659 0 10378.69515164 0 1148.96311447 0 -6135.92277388 0 5475
0.07150000 0.07148790 28949.28429910 0 571.01943681 0 10840.70837798 0 2558.29342182 0 -6814.21736094 0 5509
0.07250000 0.07249820 28078.24627396 0 450.01495575 0 8229.67382293 0 2920.36602251 0 -3768.15838195 0 5916
0.07350000 0.07351270 27586.24299146 0 773.89070120 0 9489.41355036 0 1589.39429141 0 -3048.21718393 0 5721
0.07450000 0.07449140 27118.51951455 0 887.61461278 0 8773.06936057 0 1247.31880836 0 -1110.90002296 0 6028
0.07550000 0.07549160 26552.66515675 0 576.36661436 0 9047.67845793 0 190.64143640 0 1346.82104864 0 6183
0.07650000 0.07648840 26211.39900055 0 842.60929538 0 9948.35807905 0 -1389.60296532 0 1155.26911953 0 6330
0.07750000 0.07749960 26178.12667439 0 297.73561217 0 9817.49442324 0 -441.06964590 0 -65.40215259 0 6583
0.07850000 0.07848650 25782.90539469 0 532.60226481 0 10977.72066974 0 -620.55248832 0 -605.77665293 0 6549
0.07950000 0.07947320 25178.27079187 0 388.03400762 0 8956.17956098 0 1007.41072388 0 -986.90890101 0 6828
0.08050000 0.08048110 24720.77630712 0 376.27066663 0 8022.96949664 0 2123.77482716 0 -2114.87223178 0 7147
0.08150000 0.08149960 23697.42746457 0 452.66774933 0 7012.43499593 0 2919.28692004 0 -2445.18999416 0 7386
0.08250000 0.08250610 23432.37292033 0 700.71631307 0 4889.81795579 0 2398.67618144 0 -2838.71393560 0 7227
0.08350000 0.08350160 22315.50186370 0 540.64607447 0 4497.20450706 0 1574.91633327 0 -2277.81670478 0 7798
0.08450000 0.08449610 21878.57776979 0 467.30082845 0 3354.46871309 0 198.18728523 0 -843.58273573 0 7371
0.08550000 0.08548940 21531.35406871 0 -30.26680097 0 3482.55592817 0 241.24797005 0 -2411.88394605 0 8256
0.08650000 0.08650700 21662.86968226 0 177.21897536 0 3514.11967543 0 -560.73199326 0 -749.45577464 0 8037
0.08750000 0.08749060 21268.77246763 0 32.83034378 0 3009.68423322 0 66.03050496 0 -2433.30862634 0 8155
0.08850000 0.08849210 21283.38531358 0 363.53950562 0 3232.53013396 0 22.22366575 0 -325.34714663 0 8718
0.08950000 0.08949900 20761.93152617 0 433.38328893 0 2979.73913968 0 338.31436131 0 -1550.87258135 0 8571
0.09050000 0.09049190 20428.08419946 0 422.61362147 0 3290.10474701 0 265.56262165 0 -1598.26316484 0 8932
0.09150000 0.09150830 19957.21334034 0 822.90780684 0 3931.57496227 0 -1349.37267635 0 -1791.69228262 0 9285
0.09250000 0.09250820 19567.38757299 0 1009.50373304 0 5043.09546916 0 -1612.40390346 0 -2783.67970963 0 9204
0.09350000 0.09350330 18833.03586073 0 739.30546703 0 5965.57071205 0 -2229.42570338 0 -953.24652427 0 9349
0.09450000 0.09448040 18285.27895061 0 468.57551824 0 7328.73566685 0 -1788.72475082 0 -2566.00450822 0 9564
0.09550000 0.09549270 18466.70305341 0 74.17570530 0 7545.26432188 0 -472.65699852 0 -3334.38167024 0 10155
0.09650000 0.09649430 18094.86232723 0 68.44960541 0 8052.94831214 0 366.54075936 0 -4494.06836550 0 9913
0.09750000 0.09749140 18090.70328646 0 420.13730611 0 7232.56065919 0 470.60108350 0 -4242.10917937 0 10476
0.09850000 0.09850240 17787.20571672 0 274.23253556 0 6767.54617910 0 551.17069575 0 -4697.99625107 0 10575
0.09950000 0.09950330 17355.22750913 0 102.49112930 0 5605.74624150 0 1336.86183209 0 -3357.45872619 0 10882
0.10050000 0.10051200 17460.10278045 0 -61.29729175 0 5560.68247272 0 1817.82679557 0 -3429.44385347 0 10875
0.10150000 0.10150300 17564.19120622 0 -265.23551871 0 4297.68295658 0 1686.54723568 0 -2547.28882475 0 11118
0.10250000 0.10250800 17621.06889892 0 33.44936641 0 4350.36788656 0 1146.17543309 0 -1693.59512369 0 11575
0.10350000 0.10349800 17471.56824419 0 249.05572605 0 4297.59303138 0 -179.28388290 0 -1720.58392609 0 11364
0.10450000 0.10450100 17350.84365534 0 371.56982650 0 4836.75084369 0 -266.52706948 0 -299.24073530 0 12093
0.10550000 0.10551000 16892.89954456 0 345.62865274 0 5206.90547226 0 -1032.59540184 0 -231.22018554 0 12067
0.10650000 0.10649700 17078.37028162 0 209.66848589 0 5813.09128488 0 -486.28291534 0 1056.59419115 0 12054
0.10750000 0.10749900 16968.77393700 0 254.94245484 0 6148.50106204 0 -308.22201524 0 -18.02595714 0 12807
0.10850000 0.10850100 16864.91032424 0 143.34302625 0 5798.78193650 0 322.93265485 0 142.00201662 0 12736
0.10950000 0.10950300 16751.26734535 0 242.23152699 0 5901.42031833 0 610.06158899 0 21.73941851 0 12933
0.11050000 0.11050200 16615.03065849 0 44.20992895 0 5308.65584268 0 828.26847318 0 297.61308908 0 13428
0.11150000 0.11150900 16267.35733138 0 186.25308635 0 5279.76737030 0 862.92002719 0 593.32201192 0 13453
0.11250000 0.11250000 16383.58565994 0 412.46668605 0 5062.59799818 0 -23.33019541 0 -76.17328134 0 13668
0.11350000 0.11349100 15635.18313427 0 468.03371888 0 5081.50477271 0 11.37239116 0 701.10861178 0 13791
0.11450000 0.11448600 15396.76893227 0 543.63496350 0 5330.97977503 0 -646.97476193 0 205.50382479 0 14205
0.11550000 0.11549300 14959.17039931 0 231.48546489 0 5485.59492583 0 -157.35899365 0 423.36674507 0 14776
0.11650000 0.11649800 14915.33186146 0 217.85280369 0 5680.55277211 0 98.68279683 0 158.12673009 0 14553
0.11750000 0.11747300 14609.58616158 0 -47.82053837 0 5337.76912807 0 552.67919108 0 -42.34566703 0 14568
0.11850000 0.11849100 15004.80744128 0 -45.10569641 0 5354.46149441 0 841.24692851 0 759.42061152 0 16015
0.11950000 0.11950300 14594.07406357 0 162.59039250 0 4918.99868509 0 436.64532578 0 -787.73019038 0 15270
0.12050000 0.12050700 14613.63279584 0 465.42588791 0 5079.29036451 0 382.46988551 0 609.21629206 0 15999
0.12150000 0.12150000 14047.66603153 0 523.63559772 0 4899.95702275 0 100.98364563 0 -402.94248269 0 15670
0.12250000 0.12250700 13722.02437986 0 391.06898332 0 4828.80370362 0 -162.85117560 0 1053.78290440 0 16887
0.12350000 0.12352200 13204.16760068 0 139.21096304 0 4600.87702875 0 369.48131359 0 87.36076379 0 16407
0.12450000 0.12449800 13358.83895474 0 -91.43707337 0 4143.61859766 0 914.49662900 0 586.27187579 0 16306
0.12550000 0.12549900 13300.72479046 0 -69.75385811 0 3862.55736679 0 1209.15679913 0 154.17226917 0 17523
0.12650000 0.12650100 13184.38405539 0 -72.21612265 0 2903.87598789 0 981.61005826 0 506.48236470 0 17154
0.12750000 0.12750600 13231.59478846 0 -2.89855916 0 2484.20629285 0 1256.31132895 0 575.94396589 0 18007
0.12850000 0.12850300 13023.30553042 0 168.04435623 0 2227.95317814 0 501.07673577 0 1301.09408146 0 17496
0.12950000 0.12949900 12903.25538061 0 396.35658543 0 2012.68347599 0 95.84902878 0 1648.75616792 0 18405
0.13050000 0.13049000 12808.49669495 0 334.43633681 0 2793.63892617 0 -12.74082798 0 2675.47720569 0 18100
0.13150000 0.13148800 12426.20216359 0 469.28929956 0 2809.49948435 0 -424.74035259 0 3493.84154151 0 19059
0.13250000 0.13249300 12375.28201578 0 357.02105226 0 3370.01453306 0 -145.72154795 0 3117.52703634 0 18957
0.13350000 0.13349100 11963.53697950 0 254.15223709 0 3750.60048551 0 -317.78668495 0 3561.72383127 0 19468
0.13450000 0.13450700 11933.41203554 0 229.98258989 0 3813.89658977 0 -214.46824375 0 3172.53878101 0 19953
0.13550000 0.13551000 11762.89136395 0 144.17820660 0 4029.50351144 0 -220.66633857 0 2588.83426985 0 19956
0.13650000 0.13649900 11801.22198295 0 -45.87174676 0 3898.06658245 0 73.80734917 0 2083.08367152 0 19723
0.13750000 0.13749600 11688.47825611 0 -110.35801112 0 3717.68786017 0 -74.10758695 0 1070.43817659 0 20946
0.13850000 0.13851100 12026.37221709 0 -189.22399034 0 3654.03205508 0 -117.16804696 0 1255.99659073 0 20955
0.13950000 0.13949800 11998.04577725 0 -54.90495850 0 3329.40206196 0 -49.81935089 0 291.65554419 0 20506
0.14050000 0.14048300 12031.99254245 0 170.05868084 0 3278.63928326 0 -126.82826220 0 494.05132906 0 21447
0.14150000 0.14148400 11822.69162584 0 253.10348438 0 3131.12822372 0 268.99326825 0 -436.01247714 0 21771
0.14250000 0.14249400 11507.27896633 0 232.35661533 0 2685.34649703 0 482.18232595 0 198.93141631 0 22470
0.14350000 0.14350900 11210.30097402 0 176.91098153 0 2372.10328311 0 588.91680090 0 -375.28036530 0 22519
0.14450000 0.14449900 11057.02346065 0 225.82916945 0 2082.76893329 0 295.86179570 0 -404.21155216 0 22218
0.14550000 0.14550500 10783.67331617 0 170.14298572 0 1931.63838422 0 107.50614562 0 -378.07141888 0 23559
0.14650000 0.14650700 10722.49045424 0 158.03343269 0 1909.71911529 0 -36.46253525 0 -495.97010814 0 23044
0.14750000 0.14750500 10503.12915523 0 149.43321082 0 1865.76817093 0 -241.74593088 0 -65.00142339 0 23649
0.14850000 0.14849900 10475.98298371 0 232.47801435 0 2288.04569694 0 -100.51873232 0 -146.78828570 0 23640
0.14950000 0.14949500 10320.33369304 0 238.96724202 0 2608.05578260 0 -23.25398379 0 -49.26698531 0 24457
0.15050000 0.15050000 10146.71060185 0 231.20332456 0 2427.54217252 0 -0.07250669 0 316.37485921 0 24591
0.15150000 0.15149900 9869.19017595 0 142.07283272 0 2815.05236582 0 164.60246898 0 384.03908035 0 25020
0.15250000 0.15250500 9920.90840997 0 41.74878847 0 2536.85750087 0 147.04120034 0 568.74882536 0 25297
0.15350000 0.15350100 9851.14893153 0 25.51245534 0 2516.41075719 0 297.88286470 0 98.56139780 0 25452
0.15450000 0.15450400 9878.05904938 0 68.49007175 0 2205.01100999 0 216.31395860 0 303.32671185 0 26061
0.15550000 0.15549900 9831.21925778 0 69.77307962 0 2149.03256935 0 -129.60582699 0 -26.06527054 0 26128
0.15650000 0.15649500 9694.93760832 0 176.86152267 0 2060.44500094 0 -173.23304061 0 -164.03706425 0 26331
0.15750000 0.15749700 9686.04625359 0 134.38310355 0 2086.11864721 0 -253.55423447 0 -481.19427275 0 27345
0.15850000 0.15849900 9498.97934413 0 171.57954089 0 2071.24726630 0 -328.16517777 0 -387.39778679 0 26980
0.15950000 0.15949700 9451.82481431 0 208.95020831 0 2247.66927952 0 -252.25256712 0 -525.89159632 0 27777
0.16050000 0.16050000 9341.00323876 0 143.97025456 0 2427.95807659 0 28.64174010 0 -374.21812381 0 28224
0.16150000 0.16150500 9238.17376587 0 74.42333683 0 2325.76932080 0 131.59542217 0 -149.41410171 0 28075
0.16250000 0.16249700 9240.19708300 0 40.15306570 0 2455.05928551 0 408.35598008 0 -82.88394982 0 28590
0.16350000 0.16349900 9144.32557291 0 35.15468554 0 2512.95987742 0 451.90226101 0 437.32875734 0 29163
0.16450000 0.16449100 9219.03093767 0 52.58826038 0 2479.27164718 0 384.95406932 0 752.54245733 0 28996
0.16550000 0.16550500 9086.20016798 0 93.12643077 0 2564.53198297 0 401.51154785 0 1069.71765088 0 30777
0.16650000 0.16650700 9129.42047005 0 186.32502652 0 2514.38744006 0 169.59219384 0 1381.28488378 0 29211
0.16750000 0.16749900 8828.28343696 0 126.25274088 0 2417.25697710 0 52.14549115 0 1393.16625160 0 30922
0.16850000 0.16850800 8815.86251790 0 139.04460141 0 2506.33913414 0 -29.97184630 0 1575.52332841 0 30867
0.16950000 0.16949900 8607.52829726 0 131.96861178 0 2380.05042318 0 113.60363661 0 1546.79222514 0 30852
0.17050000 0.17049200 8572.32257917 0 174.29078584 0 2192.24163076 0 144.18944725 0 1045.12985147 0 31257
0.17150000 0.17149500 8350.70190935 0 168.84131837 0 2257.54981151 0 129.00220405 0 1179.27914949 0 32608
0.17250000 0.17250900 8320.03741416 0 197.54881627 0 2087.24271229 0 39.87879382 0 923.40934097 0 32361
0.17350000 0.17350400 8102.38469406 0 103.57562728 0 2059.77056190 0 37.70473956 0 795.70880427 0 32508
0.17450000 0.17449800 8060.27721642 0 144.71775784 0 2255.50401308 0 -189.71970304 0 748.35531494 0 32791
0.17550000 0.17549800 7926.80572964 0 106.31295055 0 2132.30648107 0 -84.43257427 0 610.25043193 0 33633
0.17650000 0.17650100 7900.08670285 0 98.78182697 0 2325.79180210 0 85.48559844 0 855.52255494 0 33984
0.17750000 0.17750300 7807.74475710 0 21.86486418 0 1941.94606094 0 146.59382244 0 566.94919718 0 34069
