### header ###
fiducial parameters:
Omega_m = 0.31
Omega_nu = 0
Omega_de = 0.69
Omega_k = 0
H_0 = 100
w_de = -1
zeff = 0
beta = 0
fgrowth = 0
b_1 = 2
gamma = 0.55
Lx = 3500 Ly = 3500 Lz = 3500
nx = 700 ny = 700 nz = 700
xoffset = 857.220397 yoffset = 15.9954215 zoffset = 262.898189
bins = 400 dk = 0.001
kx_ny = 0.628318531 ky_ny = 0.628318531 kz_ny = 0.628318531
############################
A(data) = 3.09767916 (not used)
A(ran) = 3.09564527 (used)
Ngal = 188751
weighted Ngal = 0
Nran = 9360983
weighted Nran = 0
SN(data) = 3454.71293
SN(ran) = 69.5165588
SN(data+ran) = 3524.22949
############################
13 columns: k_central k_mean P_0(k) sigma^{lin}_{P_0(k)} P^img_1(k) sigma^{lin}_{P_1(k)} P_2(k) sigma^{lin}_{P_2(k)} P^img_3(k) sigma^{lin}_{P_3(k)} P_4(k) sigma^{lin}_{P_4(k)} N_modes
### header ###
0.00050000 0 0 0 0 0 0 0 0 0 0 0 0
0.00150000 0.00179520 1687.73874466 0 -4694.11822656 0 -884.67405855 0 4340.35246676 0 -8855.47457108 0 3
0.00250000 0.00253879 7647.67789069 0 -9343.10524044 0 -8487.93901413 0 5781.69614739 0 13935.25952422 0 6
0.00350000 0.00331552 11699.94371986 0 -10561.06346910 0 -8587.11527553 0 -1483.68721194 0 -17840.59880769 0 7
0.00450000 0.00420575 19983.51646305 0 -13025.89088009 0 -20742.59760691 0 9796.37324052 0 3278.23461984 0 24
0.00550000 0.00557378 33014.01600994 0 -16246.00009499 0 -28327.00187463 0 10515.78612795 0 1438.36490819 0 45
0.00650000 0.00659388 43192.20043383 0 -12925.73668207 0 -38246.98855124 0 -1298.09282772 0 -11608.33241640 0 40
0.00750000 0.00754703 51878.63809922 0 -13936.72080882 0 -43924.64123546 0 13662.56133749 0 9409.75105863 0 57
0.00850000 0.00846663 57766.94057814 0 -11166.75469309 0 -47835.71325081 0 1630.61375764 0 15896.52826377 0 75
0.00950000 0.00948925 67496.96025740 0 -13020.38296123 0 -47714.42662942 0 -4293.36654670 0 21614.31007110 0 112
0.01050000 0.01054430 78434.33823167 0 -20618.50082284 0 -66688.42025032 0 11238.30143499 0 10769.45389300 0 105
0.01150000 0.01145670 87264.43141340 0 -13422.91066391 0 -55095.26271240 0 -10200.94674163 0 13143.91771276 0 144
0.01250000 0.01249090 101615.37020165 0 -9960.99257047 0 -57552.24414918 0 -18652.39860348 0 13298.58906682 0 169
0.01350000 0.01339930 105483.84015072 0 1623.82440460 0 -33047.28833610 0 -29276.05001585 0 25200.30246730 0 180
0.01450000 0.01448870 99140.62853672 0 11791.77983633 0 -31446.84448502 0 -37252.86540059 0 7462.22963493 0 267
0.01550000 0.01550050 94723.83964499 0 15993.08545355 0 -382.19786176 0 -42692.21628932 0 -3093.89918850 0 238
0.01650000 0.01653350 81135.80382185 0 11140.40660777 0 9885.27554715 0 -28407.93455990 0 -5225.68859963 0 315
0.01750000 0.01747870 77445.83540638 0 5660.85915203 0 35883.30451553 0 -28336.33161474 0 -21592.16598916 0 297
0.01850000 0.01844180 75464.44590203 0 719.60622663 0 38748.54638686 0 -17343.53723237 0 -31417.73119963 0 388
0.01950000 0.01947590 82327.53761234 0 -4317.96109050 0 44401.58204598 0 -4152.74600606 0 -52942.34087790 0 399
0.02050000 0.02045430 83436.76502648 0 -2915.70115246 0 48750.02778126 0 -7801.29262358 0 -41350.98184410 0 462
0.02150000 0.02154770 87343.45318804 0 266.91824413 0 48784.98620504 0 2005.75923514 0 -44414.17157480 0 571
0.02250000 0.02255340 84364.68074432 0 3894.04242948 0 56366.01827754 0 9451.57752000 0 -28606.55685831 0 510
0.02350000 0.02348930 84754.84373120 0 7042.00914800 0 50876.42168005 0 12528.37967873 0 -20554.87873971 0 555
0.02450000 0.02439640 78912.96513979 0 8607.13487448 0 54472.41825540 0 15665.75770426 0 -18353.95932658 0 592
0.02550000 0.02547300 72576.72272924 0 5011.86894143 0 47519.28893273 0 11780.08955957 0 4715.81268247 0 837
0.02650000 0.02652900 65361.34902502 0 3769.01267140 0 37126.52048638 0 15963.29772911 0 -2683.10960754 0 723
0.02750000 0.02749970 66669.31114407 0 990.86898226 0 47989.26053979 0 4962.50000342 0 16662.69101759 0 826
0.02850000 0.02848090 62166.08164822 0 222.84252855 0 29585.95475651 0 3200.58420459 0 -2233.11263682 0 831
0.02950000 0.02946900 65644.83823645 0 271.89560427 0 37551.07986449 0 -6015.36679479 0 7097.34687155 0 996
0.03050000 0.03053250 65303.01004772 0 -1616.24820601 0 38091.08072560 0 -4760.77528540 0 229.61726874 0 1041
0.03150000 0.03150510 66659.30696492 0 -459.99215734 0 39365.65811199 0 467.92580863 0 -6845.20783500 0 1036
0.03250000 0.03246190 65267.15237189 0 226.02588083 0 37144.39312104 0 5225.68859963 0 334.26660298 0 1059
0.03350000 0.03345080 67478.63799671 0 536.28582605 0 32874.63194087 0 8946.47887940 0 -8630.47046540 0 1302
0.03450000 0.03451200 64676.79339550 0 1390.00762874 0 33597.63059589 0 12340.09877899 0 -1189.03603432 0 1339
0.03550000 0.03553350 64052.93727993 0 1168.51060609 0 22984.54539521 0 15023.46692149 0 -1884.19159748 0 1365
0.03650000 0.03647120 59149.31580504 0 1861.67657407 0 16526.90395676 0 12619.54135616 0 2536.16058053 0 1308
0.03750000 0.03744890 56506.75122469 0 3655.42589577 0 11683.08274376 0 4863.76212740 0 5098.09597318 0 1579
0.03850000 0.03847530 53152.31623355 0 5342.60260788 0 8058.18645538 0 2009.69346289 0 3205.37272180 0 1662
0.03950000 0.03950240 48758.00864328 0 4707.04497490 0 7060.66862821 0 -5317.40106895 0 2659.58292556 0 1683
0.04050000 0.04050350 45113.22764376 0 3365.86673294 0 11274.37268318 0 -4529.27408359 0 2566.21808058 0 1822
0.04150000 0.04152450 42227.41538159 0 2200.94189443 0 10524.20537535 0 -1787.80301746 0 -21.45278192 0 1887
0.04250000 0.04250150 41332.54717690 0 1893.43141238 0 15588.87165326 0 248.90847353 0 -1703.93652236 0 1920
0.04350000 0.04349210 39352.16933111 0 1643.90020680 0 16230.37559048 0 -78.09992887 0 1234.34709742 0 2005
0.04450000 0.04448520 39432.65239035 0 676.44325188 0 17427.05526730 0 3651.63779647 0 4648.62731306 0 2151
0.04550000 0.04548030 38315.33170769 0 -1080.54239753 0 15054.71593052 0 5459.64026330 0 6938.70756778 0 2274
0.04650000 0.04648670 41214.18312470 0 -1966.28206977 0 14802.25091511 0 6562.47174716 0 9797.54226819 0 2311
0.04750000 0.04749250 41264.42883347 0 -1025.73073644 0 11893.05809942 0 4867.85372426 0 8543.50155069 0 2568
0.04850000 0.04851840 43004.03194060 0 -1022.42598512 0 13646.82442647 0 1041.66548292 0 9508.81491352 0 2493
0.04950000 0.04949480 42393.66460590 0 855.44387039 0 9921.16694493 0 -5130.66013835 0 2731.45564633 0 2644
0.05050000 0.05050630 42610.27194549 0 1612.49382866 0 14799.44075242 0 -5940.35793246 0 7208.47194467 0 2829
0.05150000 0.05149060 40787.48802295 0 2093.16653522 0 14583.95747791 0 -6960.88537167 0 -2011.91911174 0 2784
0.05250000 0.05249300 39638.24389222 0 1520.01699510 0 18279.09659271 0 -3770.68752836 0 288.24400669 0 3055
0.05350000 0.05348950 39868.45241919 0 795.42441581 0 19980.93111338 0 -621.21006639 0 -4898.87792028 0 3009
0.05450000 0.05448610 39559.55933710 0 590.31851005 0 20088.72895389 0 2755.49939824 0 -3307.68512475 0 3336
0.05550000 0.05550870 39163.32639883 0 966.85333198 0 20296.79339892 0 1332.60162546 0 -4851.07143272 0 3349
0.05650000 0.05647670 38244.06598205 0 1088.91555826 0 19328.07411892 0 1182.01062762 0 -4982.89054384 0 3324
0.05750000 0.05747970 36895.52511385 0 1414.96187337 0 21247.19041823 0 1561.02288896 0 -2768.69592220 0 3639
0.05850000 0.05849280 35547.77109121 0 942.05308427 0 18510.65399777 0 2062.05241400 0 -1726.08060430 0 3846
0.05950000 0.05951020 35475.94333304 0 338.22668424 0 17045.21036197 0 3621.89503464 0 -2849.50496031 0 3787
0.06050000 0.06049470 34735.97129542 0 224.83324779 0 16020.28782832 0 3616.53324424 0 -3851.26051280 0 3930
0.06150000 0.06148310 33581.78127836 0 -85.99918377 0 11423.53611838 0 2716.48309956 0 -1348.67575601 0 4083
0.06250000 0.06249100 33787.37278023 0 234.25516123 0 11701.29259795 0 2827.06862145 0 -3420.46257354 0 4303
0.06350000 0.06350600 33587.28919722 0 203.76939239 0 10162.42503157 0 1453.50606472 0 -1175.83951037 0 4470
0.06450000 0.06451750 32655.10203210 0 908.83358916 0 12512.86758072 0 -15.94846007 0 -1966.15842261 0 4479
0.06550000 0.06550280 32927.35059280 0 762.42860965 0 14621.05162532 0 -1091.52676143 0 1260.68394208 0 4636
0.06650000 0.06648880 32895.65195774 0 658.39076681 0 15422.28520943 0 17.11647609 0 4270.36817531 0 4653
0.06750000 0.06749660 32505.37656436 0 472.54908828 0 16286.12921810 0 346.13110983 0 4169.76435126 0 5220
0.06850000 0.06852730 32176.02549794 0 651.00453522 0 16164.61778370 0 798.42229736 0 6124.52475403 0 5029
0.06950000 0.06949320 31342.08162021 0 964.31968930 0 14572.82923369 0 2160.76780872 0 5390.62266781 0 5040
0.07050000 0.07048030 30226.89666119 0 1313.80725744 0 13916.71245052 0 2343.74312132 0 4629.86666699 0 5475
0.07150000 0.07148790 29272.67782063 0 1009.90165208 0 11587.53721255 0 2252.14305851 0 3113.87382485 0 5509
0.07250000 0.07249820 28126.35625909 0 554.74185049 0 11341.70418106 0 1320.14698445 0 1630.15289096 0 5916
0.07350000 0.07351270 27500.25201337 0 313.43093279 0 10683.00204823 0 -820.03020026 0 581.38331678 0 5721
0.07450000 0.07449140 27750.80611816 0 149.89295343 0 10611.47778763 0 -1026.53331890 0 -700.15990086 0 6028
0.07550000 0.07549160 27566.00982015 0 278.47026088 0 11979.61111005 0 -1890.30651148 0 929.50626992 0 6183
0.07650000 0.07648840 27811.84285163 0 87.93459901 0 13089.28815021 0 -1403.77742589 0 276.44244749 0 6330
0.07750000 0.07749960 28195.48626108 0 -273.50076920 0 14302.94120964 0 -657.40271361 0 234.26527782 0 6583
0.07850000 0.07848650 27865.34834911 0 338.42676782 0 13748.21509606 0 419.22456527 0 -1079.36662547 0 6549
0.07950000 0.07947320 27840.05688497 0 395.31682523 0 14306.31340485 0 409.48341735 0 -60.77089208 0 6828
0.08050000 0.08048110 26947.43681042 0 839.31803285 0 12807.03541035 0 618.77309331 0 -3857.91497803 0 7147
0.08150000 0.08149960 26162.72698289 0 1178.14384377 0 11894.29457100 0 1439.24167895 0 -3507.00434351 0 7386
0.08250000 0.08250610 24774.05699158 0 839.26407772 0 10935.21976933 0 583.19193749 0 -5926.39704425 0 7227
0.08350000 0.08350160 24149.63884348 0 818.40929842 0 10257.71202782 0 883.81752096 0 -4139.90918292 0 7798
0.08450000 0.08449610 23834.90062301 0 609.62432768 0 9822.13681199 0 1157.76454399 0 -3105.97164738 0 7371
0.08550000 0.08548940 22931.26471074 0 637.92378996 0 9888.78263018 0 1292.20272673 0 -3656.31390717 0 8256
0.08650000 0.08650700 23174.51239256 0 562.71821624 0 10340.28584809 0 1189.22712539 0 -411.41231301 0 8037
0.08750000 0.08749060 22293.91981430 0 567.85294550 0 10008.51804176 0 1486.35124616 0 -238.57831550 0 8155
0.08850000 0.08849210 22227.15034895 0 716.25988490 0 10932.97163918 0 287.33801025 0 2873.23397400 0 8718
0.08950000 0.08949900 21333.29380283 0 822.88644961 0 10836.71794697 0 322.93939924 0 2432.62294665 0 8571
0.09050000 0.09049190 20947.28985672 0 729.24845682 0 11391.16304428 0 770.05539117 0 4102.52277859 0 8932
0.09150000 0.09150830 20110.42340980 0 278.10493974 0 9748.03844238 0 1597.56624449 0 2679.51259930 0 9285
0.09250000 0.09250820 19316.83346819 0 193.79331486 0 8978.91939741 0 2096.30267677 0 1548.28723169 0 9204
0.09350000 0.09350330 19373.71116089 0 39.76031736 0 7143.06259807 0 1722.04521069 0 1210.89910000 0 9349
0.09450000 0.09448040 18957.46986432 0 126.71135943 0 6723.21305262 0 711.16562199 0 -1255.10857932 0 9564
0.09550000 0.09549270 18826.85350283 0 280.05069638 0 5230.63448595 0 52.81060045 0 -827.61988763 0 10155
0.09650000 0.09649430 18439.16345912 0 63.66906906 0 5784.73112309 0 -318.29363829 0 -728.90336885 0 9913
0.09750000 0.09749140 18638.57260309 0 74.12916900 0 5475.61322798 0 -440.00852847 0 -137.64514040 0 10476
0.09850000 0.09850240 18846.63704812 0 110.26673704 0 7140.19623213 0 -440.62451613 0 -712.39085292 0 10575
0.09950000 0.09950330 18774.80928995 0 298.03798568 0 7141.16292810 0 113.03598375 0 905.09832092 0 10882
0.10050000 0.10051200 18401.73209218 0 664.52478991 0 8379.27564351 0 -421.97852470 0 1007.97050828 0 10875
0.10150000 0.10150300 18010.44504024 0 745.52829128 0 8233.73169785 0 -1.78477928 0 2129.40639318 0 11118
0.10250000 0.10250800 17362.30911909 0 706.77614788 0 9207.01468204 0 959.10402736 0 2547.53611907 0 11575
0.10350000 0.10349800 16690.79264442 0 519.60694850 0 8510.63388796 0 201.38300224 0 2309.44789594 0 11364
0.10450000 0.10450100 16489.69740284 0 286.71752633 0 8830.52032646 0 95.59352879 0 1671.65337346 0 12093
0.10550000 0.10551000 16324.45983710 0 92.54079287 0 7824.85302751 0 -311.89658396 0 1497.26591802 0 12067
0.10650000 0.10649700 16243.41474533 0 94.42596240 0 8644.08289343 0 62.74081612 0 1218.18304167 0 12054
0.10750000 0.10749900 16441.81223073 0 -195.15680580 0 7793.52533392 0 54.75242287 0 484.95651855 0 12807
0.10850000 0.10850100 16403.70642475 0 -52.29645309 0 8070.98955656 0 586.04818684 0 -272.93424040 0 12736
0.10950000 0.10950300 16273.76450230 0 259.23413529 0 7109.25072067 0 104.15721855 0 -552.25092228 0 12933
0.11050000 0.11050200 16069.07225249 0 418.77718737 0 6897.31949179 0 864.37906365 0 -434.23645432 0 13428
0.11150000 0.11150900 15507.48934197 0 351.74693893 0 6278.80268532 0 621.82268185 0 -913.19945791 0 13453
0.11250000 0.11250000 15283.68798591 0 196.92720829 0 5657.13849664 0 262.41973571 0 -1407.34071217 0 13668
0.11350000 0.11349100 15002.67171764 0 146.76130814 0 5304.76657752 0 408.57517277 0 -1561.47251499 0 13791
0.11450000 0.11448600 14826.30590767 0 222.31196983 0 4672.03034788 0 24.25069229 0 -2225.34534717 0 14205
0.11550000 0.11549300 14691.53050541 0 268.00071879 0 4801.48892235 0 -0.20337822 0 -1908.48264371 0 14776
0.11650000 0.11649800 14406.91722890 0 114.41296347 0 4822.00310993 0 273.82000368 0 -1978.74795143 0 14553
0.11750000 0.11747300 14476.72166994 0 61.29886544 0 4218.82979170 0 814.47282254 0 -1324.09245286 0 14568
0.11850000 0.11849100 14505.83495533 0 -120.11534558 0 4483.25485950 0 390.81044835 0 -1188.14802292 0 16015
0.11950000 0.11950300 14582.04656729 0 -5.60439736 0 4554.12716236 0 696.07392432 0 -365.50886762 0 15270
0.12050000 0.12050700 14614.53204790 0 132.11811243 0 4538.95228387 0 455.10247428 0 385.44416170 0 15999
0.12150000 0.12150000 14475.93482439 0 226.53957857 0 4733.57291063 0 103.05597200 0 836.60004350 0 15670
0.12250000 0.12250700 14262.92449303 0 301.63724204 0 5030.33733058 0 -26.89898961 0 1783.11566611 0 16887
0.12350000 0.12352200 14218.63632915 0 355.22704440 0 5237.06413817 0 104.23758920 0 1403.35028116 0 16407
0.12450000 0.12449800 13798.34839832 0 273.27932838 0 5618.63926789 0 -228.49994806 0 1893.79111321 0 16306
0.12550000 0.12549900 13788.45662568 0 140.46429560 0 5788.01339310 0 -295.57628317 0 1695.16881479 0 17523
0.12650000 0.12650100 13757.20761665 0 109.02768011 0 6174.75922215 0 -476.36528920 0 1642.16914659 0 17154
0.12750000 0.12750600 13781.37501572 0 -31.24260186 0 5877.61262008 0 -254.87725906 0 1154.41483007 0 18007
0.12850000 0.12850300 13738.43572992 0 59.62962881 0 6058.27235863 0 174.14802958 0 728.53017924 0 17496
0.12950000 0.12949900 13753.38579540 0 78.05271814 0 5753.32474494 0 414.38434107 0 412.94104151 0 18405
0.13050000 0.13049000 13544.30969180 0 170.37679126 0 5371.31122985 0 871.29656011 0 342.05412581 0 18100
0.13150000 0.13148800 13255.64978103 0 283.71739665 0 5233.83807141 0 606.64218304 0 305.21289304 0 19059
0.13250000 0.13249300 12859.07962324 0 389.76169564 0 4363.18222839 0 571.95803115 0 294.20042752 0 18957
0.13350000 0.13349100 12632.80532402 0 457.30114556 0 4836.07640465 0 357.01992819 0 726.66985155 0 19468
0.13450000 0.13450700 12047.61704697 0 481.64165065 0 4047.99438190 0 94.07727741 0 405.50759919 0 19953
0.13550000 0.13551000 11848.43271602 0 354.51663527 0 4946.74061109 0 -41.40707269 0 1226.92826794 0 19956
0.13650000 0.13649900 11538.41556886 0 149.42309423 0 4575.18090118 0 162.85791999 0 739.13460914 0 19723
0.13750000 0.13749600 11574.72287072 0 70.26654419 0 4631.64268980 0 260.76623598 0 860.26948174 0 20946
0.13850000 0.13851100 11571.80030153 0 -43.04674641 0 4389.60899826 0 275.84669300 0 1006.41705035 0 20955
0.13950000 0.13949800 11437.13730577 0 122.10943702 0 4373.55734902 0 337.93217919 0 769.96883816 0 20506
0.14050000 0.14048300 11688.59066262 0 110.34564640 0 4300.23458430 0 137.28431551 0 1360.09625715 0 21447
0.14150000 0.14148400 11244.92217827 0 112.69651610 0 4048.80370875 0 113.62499385 0 1246.48700021 0 21771
0.14250000 0.14249400 11457.48288359 0 53.49144667 0 4088.51692778 0 233.66839927 0 1788.42125325 0 22470
0.14350000 0.14350900 11326.97892861 0 23.70889293 0 4214.95176720 0 520.86814951 0 1561.21398003 0 22519
0.14450000 0.14449900 11272.91139859 0 104.70396380 0 3772.63216094 0 254.71651776 0 1395.81904517 0 22218
0.14550000 0.14550500 11177.33214542 0 211.15225179 0 4193.51584626 0 141.72774474 0 1640.79778720 0 23559
0.14650000 0.14650700 10887.78422324 0 321.36008781 0 3648.38924841 0 -150.25153019 0 1610.96510016 0 23044
0.14750000 0.14750500 10783.07756168 0 191.19560048 0 3850.57483311 0 374.23723292 0 1833.28269032 0 23649
0.14850000 0.14849900 10579.86907777 0 273.11633894 0 3608.87836109 0 1.11739150 0 1353.40806996 0 23640
0.14950000 0.14949500 10385.10232255 0 171.14902396 0 3694.27358469 0 167.94431444 0 1674.24996378 0 24457
0.15050000 0.15050000 10195.47254472 0 181.68713403 0 3576.67389674 0 112.39740238 0 1268.13649352 0 24591
0.15150000 0.15149900 10146.06988476 0 127.64320938 0 3772.04764710 0 39.19086599 0 1915.37316261 0 25020
0.15250000 0.15250500 10022.99599991 0 59.89277244 0 3739.34859412 0 21.00270626 0 1411.97186027 0 25297
0.15350000 0.15350100 10047.41069329 0 91.63176144 0 3892.30012862 0 85.76560304 0 1451.88741102 0 25452
0.15450000 0.15450400 9962.72363069 0 86.51018375 0 3900.68565407 0 -45.16560908 0 1606.30023011 0 26061
0.15550000 0.15549900 9827.54356500 0 196.92046390 0 3957.85560368 0 2.12420197 0 1129.67415781 0 26128
0.15650000 0.15649500 9796.55309093 0 65.37629909 0 3864.04113268 0 206.17151945 0 1544.40920718 0 26331
0.15750000 0.15749700 9633.11402930 0 69.99047381 0 3742.67582674 0 132.03268349 0 629.51915541 0 27345
0.15850000 0.15849900 9748.35318060 0 -26.98846519 0 3787.77331747 0 77.55397047 0 1325.58745940 0 26980
0.15950000 0.15949700 9643.73644424 0 -6.82187224 0 3761.41399151 0 147.57288312 0 567.77875720 0 27777
0.16050000 0.16050000 9785.64965972 0 -24.85397802 0 3490.90773167 0 218.62391233 0 1199.80457772 0 28224
0.16150000 0.16150500 9736.66290384 0 -27.37772892 0 3257.87780136 0 253.02367576 0 543.99803652 0 28075
0.16250000 0.16249700 9867.16685882 0 10.17051830 0 3364.67522396 0 475.04001648 0 819.97399700 0 28590
0.16350000 0.16349900 9647.34469313 0 77.26339965 0 2940.02592064 0 465.40340661 0 663.21525410 0 29163
0.16450000 0.16449100 9745.76783093 0 212.41570093 0 2970.48808412 0 79.32695831 0 785.85862204 0 28996
0.16550000 0.16550500 9299.06437088 0 279.61793132 0 2875.42590089 0 17.74078183 0 861.35420454 0 30777
0.16650000 0.16650700 9167.77357034 0 322.65501078 0 2855.40630194 0 -173.96705510 0 760.29963040 0 29211
0.16750000 0.16749900 8925.26777147 0 231.79008653 0 3100.66606024 0 -185.21107803 0 918.46120651 0 30922
0.16850000 0.16850800 8901.34766671 0 135.81628652 0 3029.76003543 0 -17.34331242 0 925.46413192 0 30867
0.16950000 0.16949900 8703.00638457 0 -6.05071864 0 3089.18935584 0 197.67471156 0 704.38638554 0 30852
0.17050000 0.17049200 8696.62169495 0 -18.05158582 0 2470.29036725 0 159.07768914 0 311.38625842 0 31257
0.17150000 0.17149500 8874.83097164 0 -8.17567374 0 2764.36827167 0 484.27983138 0 741.12870058 0 32608
0.17250000 0.17250900 8629.88595156 0 102.37220322 0 2181.27075565 0 224.14082371 0 531.20055566 0 32361
0.17350000 0.17350400 8682.33482787 0 145.13815817 0 2009.98571981 0 383.80752295 0 742.95193413 0 32508
0.17450000 0.17449800 8446.00014625 0 88.66512890 0 1951.96148074 0 265.88410426 0 578.82157248 0 32791
0.17550000 0.17549800 8326.88297046 0 117.57945478 0 1645.87856133 0 120.18953388 0 522.53963427 0 33633
0.17650000 0.17650100 8235.81121823 0 138.30271846 0 1925.87193039 0 7.85032434 0 801.91139534 0 33984
0.17750000 0.17750300 8274.61394456 0 129.67551903 0 1798.87505843 0 -119.15314588 0 760.86615920 0 34069
