### header ###
fiducial parameters:
Omega_m = 0.31
Omega_nu = 0
Omega_de = 0.69
Omega_k = 0
H_0 = 100
w_de = -1
zeff = 0
beta = 0
fgrowth = 0
b_1 = 2
gamma = 0.55
Lx = 3500 Ly = 3500 Lz = 3500
nx = 700 ny = 700 nz = 700
xoffset = 857.220397 yoffset = 15.9954215 zoffset = 262.898189
bins = 400 dk = 0.001
kx_ny = 0.628318531 ky_ny = 0.628318531 kz_ny = 0.628318531
############################
A(data) = 3.09022658 (not used)
A(ran) = 3.08589904 (used)
Ngal = 188193
weighted Ngal = 0
Nran = 9360983
weighted Nran = 0
SN(data) = 3458.7339
SN(ran) = 69.297695
SN(data+ran) = 3528.0316
############################
13 columns: k_central k_mean P_0(k) sigma^{lin}_{P_0(k)} P^img_1(k) sigma^{lin}_{P_1(k)} P_2(k) sigma^{lin}_{P_2(k)} P^img_3(k) sigma^{lin}_{P_3(k)} P_4(k) sigma^{lin}_{P_4(k)} N_modes
### header ###
0.00050000 0 0 0 0 0 0 0 0 0 0 0 0
0.00150000 0.00179520 8677.64747652 0 -11488.95670564 0 16692.02911600 0 11567.97848028 0 -29978.92790606 0 3
0.00250000 0.00253879 22312.12966848 0 -23318.84234795 0 6171.98278142 0 27365.47661111 0 66865.46049933 0 6
0.00350000 0.00331552 33786.47352817 0 -21819.67675996 0 32655.88887765 0 -37305.80886554 0 -78211.88575370 0 7
0.00450000 0.00420575 55885.25564578 0 -22635.74800303 0 17229.89425348 0 16907.28757750 0 6550.45549153 0 24
0.00550000 0.00557378 72814.79971172 0 -13453.03560786 0 -403.02678757 0 28620.72007824 0 -1191.35160837 0 45
0.00650000 0.00659388 97700.02673903 0 -10948.22520222 0 -32896.55120980 0 8844.99828460 0 -10080.58185360 0 40
0.00750000 0.00754703 87787.00926588 0 -7705.26374438 0 -26664.62203803 0 2973.72539153 0 -27225.30569649 0 57
0.00850000 0.00846663 95620.73116681 0 -5695.61524409 0 -66206.19633396 0 615.35143923 0 -17608.25455708 0 75
0.00950000 0.00948925 83755.21266169 0 4559.89361618 0 -59054.10749335 0 -16594.79748718 0 -16260.16331492 0 112
0.01050000 0.01054430 79902.70443666 0 5913.99860649 0 -63411.77056223 0 -28741.10744756 0 5599.55264294 0 105
0.01150000 0.01145670 65950.02190380 0 8767.47151651 0 -53730.53530715 0 -24653.55721575 0 3008.05433887 0 144
0.01250000 0.01249090 62722.15663989 0 2578.67272159 0 -50146.90344760 0 -21927.69941348 0 7951.74873361 0 169
0.01350000 0.01339930 58305.92978069 0 -760.43451821 0 -35570.47720568 0 -13724.16010350 0 24141.09594892 0 180
0.01450000 0.01448870 61711.62213917 0 -2809.81422258 0 -21909.71437231 0 -15781.08678076 0 14587.10486011 0 267
0.01550000 0.01550050 67245.95652657 0 -3119.75268518 0 -20773.95902245 0 -20445.05758206 0 12804.78728021 0 238
0.01650000 0.01653350 71295.51335892 0 896.53631726 0 1328.95965462 0 -13187.19421808 0 38145.48547514 0 315
0.01750000 0.01747870 71341.60002692 0 -1289.88715268 0 -4429.85052788 0 -3206.87896900 0 25908.68827637 0 297
0.01850000 0.01844180 75799.64210683 0 -1174.36698512 0 13171.90693308 0 3034.67219980 0 39470.42097680 0 388
0.01950000 0.01947590 78725.35867909 0 0.96821682 0 12505.11153172 0 10725.04208196 0 30738.00904992 0 399
0.02050000 0.02045430 83006.69772951 0 -672.99574431 0 22159.36922505 0 12939.89990200 0 32361.49623500 0 462
0.02150000 0.02154770 81370.62101562 0 3282.75336143 0 20043.76635097 0 -387.58325753 0 27494.85650102 0 571
0.02250000 0.02255340 76756.55870356 0 4263.25284339 0 17585.54844261 0 -3009.98773079 0 33327.96738485 0 510
0.02350000 0.02348930 74730.31900279 0 5630.64428287 0 26911.24191507 0 -3467.57214075 0 20068.38337607 0 555
0.02450000 0.02439640 71135.10927299 0 6949.04896645 0 22311.90485547 0 -4596.69550668 0 11164.94494832 0 592
0.02550000 0.02547300 66831.28892111 0 4128.11774031 0 26931.47508638 0 -1678.15046958 0 9329.68390347 0 837
0.02650000 0.02652900 63621.40869837 0 2762.19882608 0 24532.27059436 0 -2076.90131361 0 3653.88592662 0 723
0.02750000 0.02749970 64363.06683360 0 1424.04431916 0 33178.57913664 0 14.52831626 0 3185.70158302 0 826
0.02850000 0.02848090 61268.17846783 0 875.08241128 0 30808.60033652 0 3769.81075760 0 3900.14610283 0 831
0.02950000 0.02946900 62678.99254108 0 129.18093040 0 28327.33909416 0 13243.50987824 0 17223.48708256 0 996
0.03050000 0.03053250 64200.86424355 0 -1170.96106795 0 27230.47639583 0 15049.99485722 0 20575.89875657 0 1041
0.03150000 0.03150510 63910.40582866 0 587.02499938 0 25162.19666132 0 13021.16980678 0 17395.91866477 0 1036
0.03250000 0.03246190 61450.16460317 0 30.77892502 0 19786.13063621 0 9739.68663888 0 14925.44844712 0 1059
0.03350000 0.03345080 60711.76625665 0 3308.44948900 0 21473.35231093 0 -3412.72900583 0 19168.11965902 0 1302
0.03450000 0.03451200 56946.82270081 0 4741.81230761 0 16517.91143618 0 -4793.82279855 0 16675.05573340 0 1339
0.03550000 0.03553350 53684.56104566 0 2304.14230879 0 25214.12846770 0 -3897.31345885 0 9953.30396537 0 1365
0.03650000 0.03647120 50632.94918521 0 1687.23291537 0 27288.70296661 0 -98.76665209 0 9096.68769512 0 1308
0.03750000 0.03744890 51454.07872111 0 1975.97151070 0 28832.71875102 0 2404.89226129 0 5604.08262519 0 1579
0.03850000 0.03847530 49491.68591650 0 1839.10534740 0 30633.24618511 0 1415.80492217 0 9667.09451646 0 1662
0.03950000 0.03950240 47013.23483682 0 2727.24040231 0 29522.10786035 0 6227.59028059 0 8639.74400225 0 1683
0.04050000 0.04050350 46439.73683652 0 2232.53936363 0 30155.06890302 0 7564.94670131 0 14131.40887948 0 1822
0.04150000 0.04152450 43855.96085950 0 385.85556951 0 24628.94019065 0 8458.81448809 0 15894.50494664 0 1887
0.04250000 0.04250150 43923.85438991 0 -372.70176003 0 24810.81391947 0 8776.19426147 0 11609.23166846 0 1920
0.04350000 0.04349210 43049.55657606 0 866.59122372 0 16878.39910512 0 3232.63129982 0 8151.32648734 0 2005
0.04450000 0.04448520 42845.20154577 0 1786.90376540 0 19171.04222821 0 -1546.32011781 0 5624.16966805 0 2151
0.04550000 0.04548030 39252.91438516 0 3870.57195076 0 15336.85626387 0 -2917.96052326 0 6367.91856431 0 2274
0.04650000 0.04648670 37571.76266183 0 1983.12056456 0 20934.36310838 0 -1600.61246084 0 6543.57621329 0 2311
0.04750000 0.04749250 37738.91113820 0 673.84216531 0 18492.66895660 0 2131.02504688 0 5933.48989486 0 2568
0.04850000 0.04851840 36978.59352276 0 -179.81556568 0 19842.55870288 0 5263.61455520 0 5487.79809338 0 2493
0.04950000 0.04949480 37816.13440872 0 -529.11316682 0 14959.73243185 0 4483.55835707 0 4189.90759737 0 2644
0.05050000 0.05050630 37852.21689757 0 475.94826106 0 18606.08712247 0 1874.50215655 0 9000.37779965 0 2829
0.05150000 0.05149060 39294.61719937 0 115.31446365 0 17683.45451047 0 692.20376827 0 10730.89846099 0 2784
0.05250000 0.05249300 37648.08668029 0 108.59682596 0 19348.08247723 0 -481.26171666 0 12970.69928500 0 3055
0.05350000 0.05348950 38805.31167305 0 11.90710891 0 19043.01121639 0 -168.37483136 0 10369.25300502 0 3009
0.05450000 0.05448610 37656.29235533 0 269.67782388 0 21199.19283961 0 355.71826084 0 11777.05458387 0 3336
0.05550000 0.05550870 38291.61393464 0 925.16625467 0 21086.22429976 0 237.26091124 0 11901.71340048 0 3349
0.05650000 0.05647670 36755.69141876 0 872.94668764 0 21618.13189235 0 3905.03578590 0 9392.95752643 0 3324
0.05750000 0.05747970 36847.41512873 0 1083.37728965 0 19382.25405545 0 3340.03571756 0 9739.37190066 0 3639
0.05850000 0.05849280 34981.91673341 0 294.93781421 0 15549.97900173 0 3600.65020475 0 8202.58385467 0 3846
0.05950000 0.05951020 35213.13691895 0 730.22302124 0 16628.29462636 0 1176.26665509 0 9740.49596573 0 3787
0.06050000 0.06049470 32803.36621524 0 916.18497474 0 14088.58200020 0 1006.25068872 0 4122.35128648 0 3930
0.06150000 0.06148310 33114.61983398 0 711.13639630 0 15473.09295073 0 910.82093621 0 9653.76310469 0 4083
0.06250000 0.06249100 32185.13042503 0 951.01413103 0 13821.16691930 0 -571.75120317 0 4884.44492474 0 4303
0.06350000 0.06350600 32704.11126928 0 143.78815602 0 15880.56653973 0 1187.08016110 0 8580.14607208 0 4470
0.06450000 0.06451750 31830.93752050 0 272.86230023 0 13640.08003603 0 -131.96861178 0 4088.46072453 0 4479
0.06550000 0.06550280 31810.92916220 0 146.22400503 0 13340.29188103 0 1353.16077565 0 2769.29167669 0 4636
0.06650000 0.06648880 31748.54355064 0 11.54111333 0 13552.29055382 0 316.86495159 0 1341.71779320 0 4653
0.06750000 0.06749660 30553.88719095 0 719.19481881 0 11866.19294417 0 96.06642297 0 -2228.62761718 0 5220
0.06850000 0.06852730 30793.20064501 0 423.94676264 0 11709.94789901 0 16.51914791 0 -2660.72947193 0 5029
0.06950000 0.06949320 29089.34280721 0 151.11818436 0 10614.51276332 0 -240.54542938 0 -7366.25695899 0 5040
0.07050000 0.07048030 29381.71213272 0 493.54212758 0 9370.15024610 0 -244.61342088 0 -4093.14807588 0 5475
0.07150000 0.07148790 29357.09510762 0 320.27199282 0 10264.73743453 0 403.52699653 0 -5849.17377373 0 5509
0.07250000 0.07249820 29487.71146912 0 456.42549887 0 9381.42461878 0 1030.49677235 0 -4378.87417681 0 5916
0.07350000 0.07351270 29051.23700123 0 744.94602557 0 10239.14247281 0 136.94035160 0 -4743.25111091 0 5721
0.07450000 0.07449140 28409.95787703 0 1120.11960469 0 11499.86013685 0 724.13508481 0 -2998.56722965 0 6028
0.07550000 0.07549160 27482.15456569 0 596.40757055 0 11789.53170619 0 268.85613231 0 -1352.81231547 0 6183
0.07650000 0.07648840 27147.74520645 0 479.75434539 0 10772.53383130 0 732.21823675 0 -2331.67066243 0 6330
0.07750000 0.07749960 27726.07668656 0 -174.73254342 0 11141.12600942 0 1624.12790217 0 -1135.91271897 0 6583
0.07850000 0.07848650 27463.04545945 0 45.14548831 0 9924.43797430 0 486.86630511 0 -2246.68010225 0 6549
0.07950000 0.07947320 26628.65195569 0 216.26225161 0 8958.84359520 0 1359.29817095 0 -940.52772796 0 6828
0.08050000 0.08048110 26664.95925755 0 366.14621252 0 8408.34396630 0 402.44564593 0 -2424.50719682 0 7147
0.08150000 0.08149960 25777.73469535 0 696.39990319 0 7823.49290877 0 1157.85446920 0 -1660.30031622 0 7386
0.08250000 0.08250610 25362.95468338 0 631.03664326 0 7686.27828530 0 -69.15001035 0 -1889.18244641 0 7227
0.08350000 0.08350160 24751.57569012 0 389.07826408 0 7892.83648313 0 18.69713639 0 -1795.76139818 0 7798
0.08450000 0.08449610 24005.87092063 0 717.44802169 0 7486.21718359 0 212.47190418 0 -154.41956348 0 7371
0.08550000 0.08548940 23769.70484877 0 455.00130842 0 7941.56470405 0 1089.43150413 0 -526.04559323 0 8256
0.08650000 0.08650700 23105.26998406 0 604.02198736 0 6859.62958989 0 1198.79291916 0 730.64566971 0 8037
0.08750000 0.08749060 22782.21368205 0 610.78548690 0 6578.16369558 0 1919.16126191 0 554.62719585 0 8155
0.08850000 0.08849210 21659.16026752 0 689.03278070 0 5777.57082857 0 2136.89266656 0 2167.39979265 0 8718
0.08950000 0.08949900 20935.82439298 0 739.92257876 0 4165.11072186 0 1186.68673832 0 1937.29243153 0 8571
0.09050000 0.09049190 20376.82683213 0 660.92665762 0 5352.55058378 0 802.11035486 0 3408.30018945 0 8932
0.09150000 0.09150830 20023.75799267 0 525.08564166 0 5013.07169106 0 45.20731189 0 4181.27477761 0 9285
0.09250000 0.09250820 19265.12647483 0 314.85961950 0 5478.78309149 0 -375.95480435 0 4366.57690491 0 9204
0.09350000 0.09350330 19532.54155572 0 340.95141797 0 5787.41763861 0 -806.63921304 0 5038.95890969 0 9349
0.09450000 0.09448040 19487.46654629 0 -9.00291819 0 6684.64637996 0 -40.35888201 0 3333.69599054 0 9564
0.09550000 0.09549270 19539.06113315 0 199.26751177 0 7716.36950730 0 -221.07549825 0 4636.52113222 0 10155
0.09650000 0.09649430 19313.91089900 0 327.24007221 0 6948.48693392 0 50.92722942 0 2169.49055368 0 9913
0.09750000 0.09749140 18809.43049420 0 636.00388681 0 6993.85420027 0 -585.93578033 0 2342.76518470 0 10476
0.09850000 0.09850240 18168.03896349 0 413.74474804 0 6561.75234552 0 -188.59226577 0 -98.34715100 0 10575
0.09950000 0.09950330 18250.09571382 0 223.05497685 0 6680.29624813 0 -253.88133741 0 659.93186003 0 10882
0.10050000 0.10051200 17996.73144635 0 -78.01888378 0 5847.16169725 0 117.43894664 0 -1128.53885209 0 10875
0.10150000 0.10150300 18082.49761142 0 -153.08754637 0 5282.71242079 0 230.74583008 0 -1447.26750357 0 11118
0.10250000 0.10250800 18091.93975804 0 12.93405476 0 5142.46282162 0 624.13375964 0 -1884.43889180 0 11575
0.10350000 0.10349800 18029.32933347 0 392.13909327 0 5486.70775026 0 196.08415948 0 -2366.32558863 0 11364
0.10450000 0.10450100 17469.20770754 0 349.05480308 0 4568.36906684 0 831.44845327 0 -2094.49293201 0 12093
0.10550000 0.10551000 17187.29218721 0 390.99367096 0 4271.62712819 0 1184.02270410 0 -1703.23960201 0 12067
0.10650000 0.10649700 16654.37293605 0 317.63493616 0 3666.12699526 0 541.84320377 0 -1379.22784469 0 12054
0.10750000 0.10749900 16684.94750604 0 86.25445895 0 3576.11186421 0 906.76193723 0 -1514.03696891 0 12807
0.10850000 0.10850100 16326.25834121 0 240.40267312 0 2939.48636941 0 19.37708336 0 -1283.42377851 0 12736
0.10950000 0.10950300 16122.12812394 0 327.46038897 0 3049.46489616 0 -445.27364928 0 -541.61951482 0 12933
0.11050000 0.11050200 15947.22359856 0 309.34608031 0 3578.60728867 0 -125.89641225 0 -488.62321882 0 13428
0.11150000 0.11150900 15766.58634132 0 377.63752976 0 4392.67769591 0 -793.11895834 0 782.85512016 0 13453
0.11250000 0.11250000 15930.58743548 0 149.95814921 0 5178.34297875 0 -597.67101969 0 642.00976650 0 13668
0.11350000 0.11349100 15753.32237345 0 259.66240408 0 6087.62169768 0 -412.01481189 0 1848.82851028 0 13791
0.11450000 0.11448600 16030.29200747 0 76.31030487 0 7127.68538787 0 275.26330323 0 2153.30401663 0 14205
0.11550000 0.11549300 15729.71700692 0 22.51569785 0 6302.18323884 0 158.90233499 0 2790.32293421 0 14776
0.11650000 0.11649800 15983.64330693 0 60.35273987 0 6800.17778817 0 637.42807726 0 2246.87119332 0 14553
0.11750000 0.11747300 15667.78102139 0 253.18441706 0 6319.97718894 0 524.17514895 0 1497.02986435 0 14568
0.11850000 0.11849100 15435.09955126 0 264.93651740 0 6169.17261874 0 288.03380653 0 1738.67013312 0 16015
0.11950000 0.11950300 15061.01069493 0 120.69985942 0 5327.27036029 0 21.03530415 0 186.80837450 0 15270
0.12050000 0.12050700 15180.49881220 0 8.17587607 0 5533.85103942 0 190.26037834 0 632.71262428 0 15999
0.12150000 0.12150000 14958.60836677 0 190.51104485 0 4999.76276059 0 -319.07935978 0 -666.64927290 0 15670
0.12250000 0.12250700 14667.47551284 0 414.27530676 0 5439.71058955 0 229.57792646 0 -260.17834995 0 16887
0.12350000 0.12352200 14403.99465971 0 435.27733858 0 5132.20010750 0 5.65022550 0 -309.59225056 0 16407
0.12450000 0.12449800 14198.85278387 0 383.92779791 0 5613.81702872 0 176.80644348 0 347.04722286 0 16306
0.12550000 0.12549900 14008.88578651 0 225.46946862 0 5417.61147021 0 385.45989861 0 256.33292333 0 17523
0.12650000 0.12650100 13867.14118079 0 -37.18272374 0 5172.19434280 0 343.04330307 0 480.98969291 0 17154
0.12750000 0.12750600 13972.35367164 0 -41.30309667 0 4913.16478736 0 155.94267166 0 71.61137564 0 18007
0.12850000 0.12850300 13882.65327880 0 -20.55971222 0 5005.21447619 0 -79.46094686 0 -347.59127036 0 17496
0.12950000 0.12949900 13917.04967004 0 -49.40502050 0 4955.74437233 0 297.96154925 0 -506.90388910 0 18405
0.13050000 0.13049000 13975.83827336 0 -39.22987105 0 4841.64052676 0 125.83346461 0 -74.36893208 0 18100
0.13150000 0.13148800 13889.84729527 0 65.84458460 0 4563.09720164 0 371.46079219 0 -348.82999007 0 19059
0.13250000 0.13249300 14048.22806407 0 216.14759697 0 4769.41934581 0 373.64147843 0 450.52415723 0 18957
0.13350000 0.13349100 13516.88250402 0 357.39648999 0 4553.43024201 0 512.04423868 0 985.14524291 0 19468
0.13450000 0.13450700 13373.45180069 0 478.99672553 0 5073.86113021 0 628.45803798 0 1815.80347843 0 19953
0.13550000 0.13551000 12774.32511673 0 419.38755471 0 4497.64289244 0 702.26864694 0 2307.31217230 0 19956
0.13650000 0.13649900 12619.99098219 0 378.00509904 0 5015.00508298 0 537.76846788 0 2594.48831717 0 19723
0.13750000 0.13749600 12144.96108230 0 141.67603775 0 4149.38505149 0 585.42995105 0 2811.66892995 0 20946
0.13850000 0.13851100 12208.24594591 0 131.56619648 0 4394.10525855 0 297.90759413 0 3203.04590710 0 20955
0.13950000 0.13949800 12071.67203953 0 147.59873662 0 3974.75030173 0 -132.75995359 0 2558.15853401 0 20506
0.14050000 0.14048300 11915.76421389 0 223.85193898 0 4316.26375224 0 -480.97283193 0 2691.71994600 0 21447
0.14150000 0.14148400 11786.04710446 0 165.17686623 0 4116.41622289 0 -600.33617798 0 1667.95519937 0 21771
0.14250000 0.14249400 11772.55832358 0 140.78353008 0 4743.46468327 0 -430.78894674 0 1911.42769420 0 22470
0.14350000 0.14350900 11717.47913500 0 119.18799190 0 4786.32528451 0 -28.74223151 0 1257.82881680 0 22519
0.14450000 0.14449900 11788.18282810 0 179.96956259 0 4730.93135771 0 -87.12010146 0 1471.54730915 0 22218
0.14550000 0.14550500 11518.40721055 0 172.08312204 0 4907.31964898 0 324.80984352 0 1319.82100558 0 23559
0.14650000 0.14650700 11483.67359980 0 273.63003668 0 5135.36997101 0 309.29324925 0 1568.29558999 0 23044
0.14750000 0.14750500 11176.36544946 0 129.36527707 0 4594.79583670 0 496.43659514 0 1461.13846657 0 23649
0.14850000 0.14849900 11097.65841304 0 -9.70413246 0 5071.87153503 0 497.96419958 0 1304.21898236 0 23640
0.14950000 0.14949500 11148.39871044 0 19.61100130 0 4000.55883581 0 259.90295401 0 1178.93068932 0 24457
0.15050000 0.15050000 11095.60137396 0 -11.03170952 0 4116.43870420 0 288.90608102 0 1040.96856257 0 24591
0.15150000 0.15149900 11029.37145985 0 53.87722580 0 3514.49061690 0 74.84935749 0 781.17014662 0 25020
0.15250000 0.15250500 10982.25065199 0 35.62701768 0 3312.27131025 0 420.54421767 0 443.41219752 0 25297
0.15350000 0.15350100 10891.62852579 0 193.34593696 0 2971.89316547 0 8.08937926 0 204.08637874 0 25452
0.15450000 0.15450400 10601.39492392 0 323.94431342 0 3037.96571046 0 192.28819173 0 255.10432021 0 26061
0.15550000 0.15549900 10238.85021589 0 450.13523072 0 2764.81789770 0 233.65715861 0 198.60431338 0 26128
0.15650000 0.15649500 9915.60282282 0 288.23613824 0 3032.25545989 0 197.38245464 0 708.64546810 0 26331
0.15750000 0.15749700 9699.61371903 0 237.73751483 0 2666.86686723 0 452.99822446 0 722.67717241 0 27345
0.15850000 0.15849900 9635.90171068 0 66.23530962 0 2849.11153753 0 461.32080226 0 1111.94652755 0 26980
0.15950000 0.15949700 9541.16550632 0 34.56297768 0 2522.46946794 0 359.73342128 0 1061.05897762 0 27777
0.16050000 0.16050000 9501.37360273 0 83.63819749 0 2341.06784644 0 247.79452504 0 1055.66121714 0 28224
0.16150000 0.16150500 9419.67655322 0 1.78463315 0 2374.49754172 0 89.40611260 0 992.10770197 0 28075
0.16250000 0.16249700 9381.72811635 0 72.66833403 0 2194.56844547 0 -115.74048432 0 629.84963054 0 28590
0.16350000 0.16349900 9392.59782561 0 32.37284929 0 2091.71649128 0 -97.21532988 0 801.83720705 0 29163
0.16450000 0.16449100 9283.81080784 0 103.56449904 0 2130.83395582 0 -154.69383536 0 427.89560325 0 28996
0.16550000 0.16550500 9201.59668839 0 111.02784150 0 2150.31400354 0 -5.66885125 0 858.55528251 0 30777
0.16650000 0.16650700 9093.79884788 0 106.30777985 0 2158.45223467 0 100.93665971 0 610.99119081 0 29211
0.16750000 0.16749900 9091.19101691 0 69.39629301 0 2265.30586052 0 231.77210149 0 1063.86914030 0 30922
0.16850000 0.16850800 9063.21303724 0 91.85432633 0 2092.45837422 0 190.14459964 0 1128.95475617 0 30867
0.16950000 0.16949900 9014.30496591 0 103.96983690 0 2060.16398467 0 348.50738339 0 1339.10996223 0 30852
0.17050000 0.17049200 9022.65676940 0 84.75102191 0 2308.44747802 0 -72.45959515 0 1283.67107283 0 31257
0.17150000 0.17149500 8901.47131387 0 100.27896924 0 2053.19478122 0 -42.06779814 0 1078.54943016 0 32608
0.17250000 0.17250900 8973.56884766 0 63.49630026 0 2493.07516628 0 -230.07701136 0 1231.04234611 0 32361
0.17350000 0.17350400 8949.25532013 0 97.53512639 0 2370.49587006 0 -388.23858747 0 642.76851042 0 32508
0.17450000 0.17449800 8839.93999177 0 59.75586132 0 2654.89557420 0 -24.28261574 0 866.87223998 0 32791
0.17550000 0.17549800 8841.99703085 0 8.48932161 0 2499.14511767 0 72.71498273 0 494.05020499 0 33633
0.17650000 0.17650100 8789.99778057 0 103.09115524 0 2179.52845479 0 376.51796095 0 448.63460385 0 33984
0.17750000 0.17750300 8711.54927912 0 155.65491100 0 2303.68144211 0 437.24445246 0 510.89881637 0 34069
0.17850000 0.17849800 8455.93688150 0 243.22407645 0 1747.67389435 0 316.19500880 0 457.06621596 0 34536
