### header ###
fiducial parameters:
Omega_m = 0.31
Omega_nu = 0
Omega_de = 0.69
Omega_k = 0
H_0 = 100
w_de = -1
zeff = 0
beta = 0
fgrowth = 0
b_1 = 2
gamma = 0.55
Lx = 3500 Ly = 3500 Lz = 3500
nx = 700 ny = 700 nz = 700
xoffset = 857.220397 yoffset = 15.9954215 zoffset = 262.898189
bins = 400 dk = 0.001
kx_ny = 0.628318531 ky_ny = 0.628318531 kz_ny = 0.628318531
############################
A(data) = 3.07421907 (not used)
A(ran) = 3.07280197 (used)
Ngal = 187117
weighted Ngal = 0
Nran = 9360983
weighted Nran = 0
SN(data) = 3449.77726
SN(ran) = 69.0035842
SN(data+ran) = 3518.78084
############################
13 columns: k_central k_mean P_0(k) sigma^{lin}_{P_0(k)} P^img_1(k) sigma^{lin}_{P_1(k)} P_2(k) sigma^{lin}_{P_2(k)} P^img_3(k) sigma^{lin}_{P_3(k)} P_4(k) sigma^{lin}_{P_4(k)} N_modes
### header ###
0.00050000 0 0 0 0 0 0 0 0 0 0 0 0
0.00150000 0.00179520 20769.01313613 0 -16654.71015557 0 -25359.58248816 0 48359.19035535 0 -29132.73171903 0 3
0.00250000 0.00253879 42723.57770486 0 -18119.14213281 0 8157.53132654 0 -19236.23800245 0 60606.89098533 0 6
0.00350000 0.00331552 45586.68385255 0 -4185.32141188 0 13517.89416258 0 -55829.61442466 0 -5329.00142050 0 7
0.00450000 0.00420575 51548.05056122 0 8381.99588099 0 35459.64438948 0 -38685.37392975 0 27208.89434642 0 24
0.00550000 0.00557378 46765.94052074 0 2399.46302699 0 65942.04104178 0 5723.62694571 0 34890.86746249 0 45
0.00650000 0.00659388 60210.88286008 0 -4981.23816819 0 74061.94991033 0 43904.52047066 0 -20036.34752148 0 40
0.00750000 0.00754703 67238.76251011 0 -10879.32001324 0 83024.00833164 0 25880.92386906 0 -8492.77249394 0 57
0.00850000 0.00846663 85181.53883294 0 -9297.80541800 0 70650.74963299 0 42192.90658385 0 -9567.89577376 0 75
0.00950000 0.00948925 87254.20242123 0 -3674.86098088 0 69185.41840370 0 25725.01604342 0 12979.35458606 0 112
0.01050000 0.01054430 105102.44487142 0 -7747.06772445 0 55829.83923767 0 -3220.17665881 0 -19377.98260817 0 105
0.01150000 0.01145670 98781.60215237 0 -32.43916913 0 48613.34146838 0 3752.65752459 0 -8953.76282107 0 144
0.01250000 0.01249090 104593.01858029 0 -211.55241895 0 36688.24751437 0 -10427.23228149 0 -31238.55522698 0 169
0.01350000 0.01339930 91080.85714958 0 4507.61334963 0 23111.56474847 0 -9853.07108281 0 -20984.94603667 0 180
0.01450000 0.01448870 94064.35066660 0 8439.09838670 0 30155.63093555 0 -30101.90062506 0 -56217.30446837 0 267
0.01550000 0.01550050 90619.65325009 0 13876.69573392 0 40245.68865772 0 -30982.60560983 0 -76997.10862920 0 238
0.01650000 0.01653350 81962.10405708 0 10137.96537558 0 45857.47112866 0 -21924.66443778 0 -60985.25128893 0 315
0.01750000 0.01747870 76061.43686235 0 7331.47838562 0 43562.46746891 0 -3379.69273333 0 -58702.49993848 0 297
0.01850000 0.01844180 75737.03168226 0 -2615.37344623 0 37850.98042599 0 19999.70300010 0 -55094.58827336 0 388
0.01950000 0.01947590 80247.34278807 0 -7220.31959054 0 38027.23382945 0 32109.36843911 0 -58117.42406794 0 399
0.02050000 0.02045430 84194.38488575 0 -7948.82616442 0 22311.79244896 0 26922.59497230 0 -53579.91058736 0 462
0.02150000 0.02154770 84680.31821685 0 236.73372472 0 3992.97139657 0 14098.69858585 0 -38250.47315297 0 571
0.02250000 0.02255340 74581.49278711 0 7415.37860268 0 3432.31021941 0 1210.66304633 0 -28486.28189549 0 510
0.02350000 0.02348930 73612.99832013 0 5121.52148931 0 -6010.45463042 0 -4167.38133331 0 -15002.10968510 0 555
0.02450000 0.02439640 67642.18946484 0 5340.15214603 0 -34.60760306 0 -6975.38581112 0 -9312.23841353 0 592
0.02550000 0.02547300 63498.54838588 0 6856.38104183 0 5677.81005333 0 -11665.99695465 0 -6226.37629031 0 837
0.02650000 0.02652900 57055.18257386 0 6117.31949692 0 20792.84331568 0 -10369.09563591 0 1893.27404327 0 723
0.02750000 0.02749970 51477.23446162 0 7312.89758997 0 19337.85348506 0 -6440.92659081 0 3991.49887132 0 826
0.02850000 0.02848090 49050.82759483 0 4631.68765240 0 28917.36085103 0 4232.80192056 0 2143.65953830 0 831
0.02950000 0.02946900 45589.83123475 0 1978.43321321 0 25426.46436001 0 9812.69466538 0 3992.74658355 0 996
0.03050000 0.03053250 44410.91178609 0 513.72808816 0 25272.24263198 0 7249.28674748 0 2218.18505265 0 1041
0.03150000 0.03150510 45291.72917737 0 -729.47664203 0 22289.87318003 0 4706.34805456 0 3974.16578789 0 1036
0.03250000 0.03246190 46745.37012990 0 -3200.53924198 0 17719.08737329 0 5062.56427622 0 3370.38547453 0 1059
0.03350000 0.03345080 49963.79324720 0 -2613.21524129 0 17123.44529106 0 -1755.67723767 0 6943.90074842 0 1302
0.03450000 0.03451200 53133.76915984 0 -176.26801631 0 23168.66725418 0 -3377.15234627 0 5124.90492518 0 1339
0.03550000 0.03553350 54480.39911742 0 105.54150469 0 22929.24139361 0 592.27213515 0 7261.84255435 0 1365
0.03650000 0.03647120 52352.43152753 0 62.64695669 0 25214.24087421 0 -355.71938490 0 10622.47114404 0 1308
0.03750000 0.03744890 54355.29067478 0 1118.92247539 0 23581.98598156 0 2272.72469000 0 4802.61298742 0 1579
0.03850000 0.03847530 52676.61189461 0 921.24663976 0 26606.39546724 0 6796.31100432 0 6207.76177270 0 1662
0.03950000 0.03950240 51224.43222668 0 2208.48437107 0 25617.55542244 0 2011.49196701 0 3229.65252738 0 1683
0.04050000 0.04050350 48329.51503742 0 3216.50096602 0 20342.43044089 0 -1733.15097361 0 1317.89885430 0 1822
0.04150000 0.04152450 45674.02370873 0 2458.77994090 0 21840.35955730 0 3741.16957954 0 3769.45105678 0 1887
0.04250000 0.04250150 42807.65777233 0 3209.66665038 0 21057.67304690 0 -3487.68166491 0 -182.90562056 0 1920
0.04350000 0.04349210 42780.56780406 0 2369.32684238 0 25022.47537274 0 2252.58144389 0 2325.85924600 0 2005
0.04450000 0.04448520 39631.49950178 0 1456.92322255 0 26503.54351305 0 908.85607046 0 3586.64435394 0 2151
0.04550000 0.04548030 41089.41190159 0 221.53861306 0 25306.18939719 0 4451.62366834 0 8192.55719422 0 2274
0.04650000 0.04648670 40386.08438535 0 899.74552305 0 25822.69729828 0 5091.31786079 0 4939.50163202 0 2311
0.04750000 0.04749250 38826.44409642 0 1757.80172066 0 24544.86012318 0 2201.51516762 0 11784.36100685 0 2568
0.04850000 0.04851840 37842.21271842 0 2032.20848631 0 26519.61764360 0 4685.14818728 0 13416.16627347 0 2493
0.04950000 0.04949480 36009.98664927 0 934.86244000 0 21777.63672622 0 3684.17948034 0 12519.83678418 0 2644
0.05050000 0.05050630 36505.36212698 0 -309.63159284 0 25317.65486093 0 4587.64678284 0 14267.87037935 0 2829
0.05150000 0.05149060 35996.16064887 0 -260.67631078 0 18376.10340852 0 1641.49470755 0 8931.20283506 0 2784
0.05250000 0.05249300 37416.41686873 0 -108.91538601 0 24390.63839515 0 1507.56235409 0 12984.97491143 0 3055
0.05350000 0.05348950 36616.64456922 0 896.79372816 0 18868.33150403 0 530.36987157 0 7602.17573653 0 3009
0.05450000 0.05448610 37082.00750948 0 321.97157921 0 21498.98099460 0 -861.33284730 0 11025.07753127 0 3336
0.05550000 0.05550870 36070.68616321 0 632.13373077 0 19507.92453062 0 3594.18683058 0 8232.36033846 0 3349
0.05650000 0.05647670 35678.72467222 0 162.75338193 0 18297.86847943 0 1759.79131584 0 6159.19092089 0 3324
0.05750000 0.05747970 35448.85336478 0 292.48510422 0 17337.01765494 0 2720.14755169 0 5362.98190766 0 3639
0.05850000 0.05849280 34874.68092544 0 407.56014201 0 16242.17827375 0 2774.37245082 0 5656.21676328 0 3846
0.05950000 0.05951020 34100.08768356 0 -267.67249179 0 13902.09960457 0 1608.07625292 0 5324.69625127 0 3787
0.06050000 0.06049470 34432.92335171 0 -638.06991842 0 11985.11902890 0 1977.98358718 0 4133.81675023 0 3930
0.06150000 0.06148310 35625.10676824 0 -805.37801203 0 13263.06861051 0 1380.55424148 0 2693.09130538 0 4083
0.06250000 0.06249100 35769.99875616 0 -239.78893359 0 10543.73038567 0 1292.02287632 0 1878.64995667 0 4303
0.06350000 0.06350600 34928.18642292 0 906.96314488 0 8569.37752868 0 700.39707859 0 806.87976297 0 4470
0.06450000 0.06451750 34279.71328225 0 1794.32259489 0 8898.44757883 0 -567.63038061 0 1268.79969191 0 4479
0.06550000 0.06550280 31721.67839539 0 2223.95150648 0 8094.90966132 0 1160.11383999 0 -38.77586117 0 4636
0.06650000 0.06648880 30731.03984647 0 2133.58791525 0 11379.69758053 0 55.46204515 0 -865.45816612 0 4653
0.06750000 0.06749660 29113.62261279 0 1020.79384264 0 10042.26247526 0 -125.35910915 0 18.19793909 0 5220
0.06850000 0.06852730 28223.36307489 0 274.93620029 0 10215.72819734 0 -211.09042821 0 -1578.06371547 0 5029
0.06950000 0.06949320 29552.90724336 0 -73.63323149 0 11884.29039185 0 -1447.43611333 0 -1036.05415007 0 5040
0.07050000 0.07048030 28302.38484953 0 403.15942725 0 10815.10217562 0 -1333.32102711 0 -1737.09644202 0 5475
0.07150000 0.07148790 28855.76208502 0 687.19381024 0 13875.45926234 0 -1311.64905250 0 -14.34981472 0 5509
0.07250000 0.07249820 28056.55181805 0 657.38248044 0 13698.19420031 0 -313.27019148 0 523.18147543 0 5916
0.07350000 0.07351270 28296.76452417 0 49.52372177 0 14497.40446728 0 2447.69665928 0 1813.11696291 0 5721
0.07450000 0.07449140 27962.57997794 0 -279.27171928 0 13451.46191676 0 3276.96442630 0 2307.63815117 0 6028
0.07550000 0.07549160 28725.14572353 0 -248.48245286 0 11047.24409451 0 3767.29285184 0 2758.84911216 0 6183
0.07650000 0.07648840 27743.05006916 0 135.04292975 0 10383.64103796 0 3697.85935228 0 2732.24249188 0 6330
0.07750000 0.07749960 27624.46120395 0 481.65963569 0 7013.82883662 0 2490.59098247 0 3088.00908752 0 6583
0.07850000 0.07848650 27140.21397046 0 445.24667171 0 7557.60655638 0 2322.95915811 0 3693.04835376 0 6549
0.07950000 0.07947320 25970.28704237 0 929.59057480 0 3665.07037409 0 756.00794995 0 2491.82745405 0 6828
0.08050000 0.08048110 25820.11194861 0 947.77120329 0 6101.34653223 0 -405.57616716 0 2698.73411205 0 7147
0.08150000 0.08149960 24641.86693899 0 948.52994722 0 5362.99314831 0 -1692.58346512 0 2146.88560506 0 7386
0.08250000 0.08250610 24112.43228956 0 643.49016020 0 7119.24365917 0 -824.57591941 0 2632.21194103 0 7227
0.08350000 0.08350160 23895.82494997 0 193.78319828 0 7826.42671861 0 -614.11496765 0 2272.54483959 0 7798
0.08450000 0.08449610 23596.82364053 0 167.45422207 0 8216.58970548 0 -319.38622955 0 2912.78982392 0 7371
0.08550000 0.08548940 23659.20925208 0 81.88712892 0 8496.31329892 0 1140.19540690 0 1265.65230971 0 8256
0.08650000 0.08650700 23120.78208207 0 378.00172685 0 7207.86494953 0 799.05964225 0 2603.64944752 0 8037
0.08750000 0.08749060 22889.44949002 0 436.76335261 0 6577.69158825 0 1204.52565103 0 1178.93068932 0 8155
0.08850000 0.08849210 22199.04872213 0 548.44596201 0 5851.70292014 0 1687.66006010 0 2063.42377339 0 8718
0.08950000 0.08949900 21360.27136458 0 455.95226747 0 4388.63106165 0 1484.00195016 0 579.38585315 0 8571
0.09050000 0.09049190 20838.92998368 0 659.82394978 0 3986.63166955 0 1144.71414849 0 1585.53874821 0 8932
0.09150000 0.09150830 20004.53647992 0 978.07037734 0 3591.37666790 0 622.07559649 0 1747.47156264 0 9285
0.09250000 0.09250820 19323.35304562 0 909.81489797 0 3048.55440345 0 78.20064510 0 2415.49219493 0 9204
0.09350000 0.09350330 18726.02486577 0 571.29708088 0 3210.41977398 0 196.38091266 0 3988.10419480 0 9349
0.09450000 0.09448040 18183.88828102 0 196.55739088 0 3932.15947611 0 -251.41176644 0 3568.43449976 0 9564
0.09550000 0.09549270 18529.31347798 0 5.76672360 0 4153.08322558 0 -112.61558341 0 2987.68627974 0 10155
0.09650000 0.09649430 18445.79544305 0 -24.37647518 0 4790.82154480 0 -801.34711468 0 2426.20453508 0 9913
0.09750000 0.09749140 18441.97362180 0 360.86872700 0 4703.45920732 0 -1224.35415892 0 1811.93669458 0 10476
0.09850000 0.09850240 18120.71582391 0 104.45970446 0 5292.10960480 0 -517.38467185 0 356.21622167 0 10575
0.09950000 0.09950330 18042.36848831 0 362.24121046 0 5547.02508208 0 -1011.80019799 0 -38.38985722 0 10882
0.10050000 0.10051200 18040.68239070 0 -22.69127682 0 5354.56266026 0 -79.11810702 0 -1031.72087921 0 10875
0.10150000 0.10150300 17946.59814409 0 120.94940187 0 5535.93055981 0 396.47461226 0 -1455.63054771 0 11118
0.10250000 0.10250800 17943.11354236 0 162.64097543 0 5182.72683254 0 231.97106101 0 -1489.65599747 0 11575
0.10350000 0.10349800 17808.00092057 0 225.00522975 0 4893.81962745 0 508.37079402 0 -1861.45176105 0 11364
0.10450000 0.10450100 17491.68900900 0 422.98343888 0 4832.50187771 0 385.39919909 0 -996.80854211 0 12093
0.10550000 0.10551000 17044.19870340 0 394.44792293 0 4857.65845405 0 669.59544746 0 -1546.99455685 0 12067
0.10650000 0.10649700 16780.49303725 0 329.29036690 0 4892.61687782 0 404.86126177 0 -209.96861126 0 12054
0.10750000 0.10749900 16473.39845928 0 343.03880681 0 4982.31727066 0 680.67198469 0 -436.71951407 0 12807
0.10850000 0.10850100 16181.14154028 0 381.59648695 0 4497.57544853 0 346.29297520 0 -206.81111247 0 12736
0.10950000 0.10950300 16073.56851278 0 298.61575512 0 4966.80517265 0 -42.69120463 0 -88.67254773 0 12933
0.11050000 0.11050200 15745.00429191 0 319.89205883 0 4520.07923130 0 -331.80714860 0 234.38218059 0 13428
0.11150000 0.11150900 15349.33338618 0 383.49166066 0 5323.52722359 0 -205.43300869 0 366.07764455 0 13453
0.11250000 0.11250000 15084.05402893 0 333.16951547 0 4141.04448865 0 113.89814166 0 -871.59331329 0 13668
0.11350000 0.11349100 14824.95702958 0 285.01456774 0 5033.84441361 0 -60.96546774 0 46.41826719 0 13791
0.11450000 0.11448600 14540.68097260 0 133.74013833 0 4480.45593747 0 -177.12005763 0 -972.38485620 0 14205
0.11550000 0.11549300 14700.97265202 0 -137.73281747 0 4702.49251136 0 641.75010747 0 -234.85878418 0 14776
0.11650000 0.11649800 14774.59891431 0 -163.05238324 0 4695.93921198 0 58.70632176 0 -439.80844489 0 14553
0.11750000 0.11747300 14989.96978231 0 4.72057872 0 4692.87051433 0 212.01440970 0 -426.03977181 0 14568
0.11850000 0.11849100 14862.61320953 0 235.08696939 0 5532.72697435 0 -679.23430546 0 299.31267547 0 16015
0.11950000 0.11950300 14948.15456159 0 393.50370827 0 5616.03143692 0 -624.89475170 0 -921.36916286 0 15270
0.12050000 0.12050700 14654.09913847 0 527.60579556 0 6788.79100898 0 -743.59040309 0 106.62768877 0 15999
0.12150000 0.12150000 14080.48873167 0 518.83583986 0 6038.48881334 0 -318.00812577 0 -1412.08426678 0 15670
0.12250000 0.12250700 13923.00721493 0 264.39584210 0 6877.71579691 0 -301.09094642 0 -389.67401857 0 16887
0.12350000 0.12352200 13663.46058955 0 132.77793863 0 6079.12376573 0 341.18747164 0 -2173.78448226 0 16407
0.12450000 0.12449800 13531.83256949 0 35.99458696 0 5965.93041287 0 424.91458267 0 -1705.39780695 0 16306
0.12550000 0.12549900 13448.98897360 0 35.08611757 0 5152.45576012 0 864.83543407 0 -2589.63235606 0 17523
0.12650000 0.12650100 13346.13701941 0 99.41995871 0 5029.02217444 0 567.97209640 0 -1917.66625536 0 17154
0.12750000 0.12750600 13348.49755607 0 15.95408040 0 4479.99507079 0 1021.78864023 0 -1199.50108015 0 18007
0.12850000 0.12850300 13222.60226788 0 34.84736614 0 4288.94897096 0 923.81625252 0 -617.45568904 0 17496
0.12950000 0.12949900 13434.03890813 0 57.63194036 0 4068.60973534 0 574.80641204 0 -357.38637341 0 18405
0.13050000 0.13049000 13140.20829802 0 149.78729132 0 3985.17038496 0 359.48837509 0 304.17538098 0 18100
0.13150000 0.13148800 13054.32972644 0 273.85372563 0 4228.10332856 0 233.93255456 0 627.28451404 0 19059
0.13250000 0.13249300 12694.62890304 0 209.04350571 0 3481.75784197 0 95.14581367 0 533.16429734 0 18957
0.13350000 0.13349100 12567.04751725 0 188.08531242 0 4032.19002697 0 47.18431754 0 952.98798930 0 19468
0.13450000 0.13450700 12403.60845562 0 19.13316124 0 3342.89084284 0 432.39860793 0 -155.50990660 0 19953
0.13550000 0.13551000 12522.98416638 0 32.11330267 0 3452.73448178 0 468.62947337 0 646.72521948 0 19956
0.13650000 0.13649900 12180.81875813 0 46.56169790 0 3021.03729046 0 660.69847241 0 539.05552239 0 19723
0.13750000 0.13749600 12230.27762135 0 135.32394602 0 2816.76094473 0 637.24035840 0 605.88456318 0 20946
0.13850000 0.13851100 11929.14058826 0 241.45254990 0 2819.97577084 0 487.57671424 0 763.70442351 0 20955
0.13950000 0.13949800 11829.66082930 0 230.05790225 0 2505.52980729 0 184.58497378 0 993.15533062 0 20506
0.14050000 0.14048300 11596.41732663 0 157.53097560 0 2993.92484090 0 -202.05069689 0 1384.60087574 0 21447
0.14150000 0.14148400 11602.37487151 0 88.05622285 0 2881.43964903 0 -610.48423746 0 812.37531711 0 21771
0.14250000 0.14249400 11521.44218625 0 134.78551885 0 3368.45208260 0 -774.08066820 0 417.84758556 0 22470
0.14350000 0.14350900 11637.55810830 0 144.71326158 0 3338.29341669 0 -778.43866849 0 120.10073274 0 22519
0.14450000 0.14449900 11478.27808744 0 224.53312242 0 3652.00873794 0 -435.12334167 0 -447.83651764 0 22218
0.14550000 0.14550500 11546.73365040 0 148.38783030 0 3469.07838795 0 -306.55727487 0 -910.50282580 0 23559
0.14650000 0.14650700 11159.87541484 0 197.17337854 0 3653.53746644 0 168.68619739 0 -1005.14798089 0 23044
0.14750000 0.14750500 11101.57015950 0 289.97843910 0 3344.81299412 0 363.03255227 0 -1158.66379605 0 23649
0.14850000 0.14849900 10813.10133979 0 223.31238775 0 3375.72478363 0 405.22208666 0 -1214.55231148 0 23640
0.14950000 0.14949500 10570.29204335 0 108.09684182 0 2835.20685258 0 354.27945754 0 -1159.61925136 0 24457
0.15050000 0.15050000 10631.02527925 0 47.09753972 0 3082.36628085 0 259.17568390 0 -770.31055394 0 24591
0.15150000 0.15149900 10506.44514719 0 93.57504514 0 2868.46793809 0 130.29600295 0 -690.14448106 0 25020
0.15250000 0.15250500 10480.71529767 0 172.46530417 0 3293.42073897 0 -261.22148234 0 -380.30043992 0 25297
0.15350000 0.15350100 10355.70802089 0 253.26310162 0 3328.55901316 0 -18.84225319 0 -49.47111553 0 25452
0.15450000 0.15450400 10123.71223046 0 215.49339110 0 3349.93873085 0 416.98767578 0 409.13270905 0 26061
0.15550000 0.15549900 10001.31278465 0 131.59092591 0 3196.59377358 0 703.49500193 0 475.28393860 0 26128
0.15650000 0.15649500 9921.30183274 0 121.43499798 0 2971.33113293 0 528.73210876 0 393.94209365 0 26331
0.15750000 0.15749700 9621.87337857 0 211.57939651 0 2682.80610997 0 569.57950945 0 367.98630705 0 27345
0.15850000 0.15849900 9388.71980111 0 201.63479281 0 2393.77525772 0 -99.75762786 0 208.83667774 0 26980
0.15950000 0.15949700 9291.24087797 0 135.45546163 0 2179.01138485 0 -110.97467322 0 -42.79810322 0 27777
0.16050000 0.16050000 9135.64779055 0 34.38672428 0 2156.01301346 0 25.77795951 0 -406.61705141 0 28224
0.16150000 0.16150500 9191.50258403 0 -28.99997963 0 2155.04631749 0 -25.95736029 0 -693.98765955 0 28075
0.16250000 0.16249700 9143.12282329 0 27.83623506 0 1859.27107481 0 123.37850649 0 -805.44770406 0 28590
0.16350000 0.16349900 9197.77486714 0 79.59920687 0 2077.58699331 0 159.18222720 0 -496.16232327 0 29163
0.16450000 0.16449100 9074.91455465 0 201.04465865 0 1720.90990496 0 -29.82088436 0 -642.26155708 0 28996
0.16550000 0.16550500 8954.83068289 0 221.27445777 0 2192.15170556 0 115.89560530 0 -14.28371970 0 30777
0.16650000 0.16650700 8836.92749737 0 148.60140266 0 2154.66413537 0 125.25457110 0 268.07715522 0 29211
0.16750000 0.16749900 8765.81914085 0 51.61133542 0 2207.00060517 0 288.22939385 0 549.49134253 0 30922
0.16850000 0.16850800 8794.42659696 0 -12.20060230 0 2364.06621784 0 93.43667273 0 660.12070296 0 30867
0.16950000 0.16949900 8783.71425681 0 1.30849043 0 2191.60091367 0 9.12217025 0 521.13230480 0 30852
0.17050000 0.17049200 8757.16383979 0 71.89857427 0 2479.46273824 0 -260.96069924 0 628.63564026 0 31257
0.17150000 0.17149500 8803.50904275 0 171.63911634 0 2508.89076186 0 -201.12446727 0 508.69564883 0 32608
0.17250000 0.17250900 8594.01703508 0 186.10133757 0 2709.67126521 0 -148.64861340 0 430.94406772 0 32361
0.17350000 0.17350400 8481.58804647 0 208.74338033 0 2325.08364110 0 84.20821089 0 142.54606411 0 32508
0.17450000 0.17449800 8307.85254877 0 201.67413509 0 2723.33989650 0 238.84022267 0 191.62049708 0 32791
0.17550000 0.17549800 8110.39927803 0 183.46765310 0 2189.60007784 0 368.21786445 0 3.20301219 0 33633
0.17650000 0.17650100 7952.44565396 0 78.57473396 0 2104.45214855 0 192.55796735 0 60.23752320 0 33984
0.17750000 0.17750300 7898.72658411 0 31.02363398 0 1734.54481430 0 222.79756594 0 -242.13935366 0 34069
