### header ###
fiducial parameters:
Omega_m = 0.31
Omega_nu = 0
Omega_de = 0.69
Omega_k = 0
H_0 = 100
w_de = -1
zeff = 0
beta = 0
fgrowth = 0
b_1 = 2
gamma = 0.55
Lx = 3500 Ly = 3500 Lz = 3500
nx = 700 ny = 700 nz = 700
xoffset = 857.220397 yoffset = 15.9954215 zoffset = 262.898189
bins = 400 dk = 0.001
kx_ny = 0.628318531 ky_ny = 0.628318531 kz_ny = 0.628318531
############################
A(data) = 3.04897071 (not used)
A(ran) = 3.04777883 (used)
Ngal = 185970
weighted Ngal = 0
Nran = 9360983
weighted Nran = 0
SN(data) = 3447.89658
SN(ran) = 68.4416585
SN(data+ran) = 3516.33824
############################
13 columns: k_central k_mean P_0(k) sigma^{lin}_{P_0(k)} P^img_1(k) sigma^{lin}_{P_1(k)} P_2(k) sigma^{lin}_{P_2(k)} P^img_3(k) sigma^{lin}_{P_3(k)} P_4(k) sigma^{lin}_{P_4(k)} N_modes
### header ###
0.00050000 0 0 0 0 0 0 0 0 0 0 0 0
0.00150000 0.00179520 16398.87294494 0 -21276.30370362 0 -24143.79370510 0 49372.31020573 0 -30950.12012922 0 3
0.00250000 0.00253879 30287.70858164 0 -21733.23615583 0 20222.71751060 0 -41243.07159708 0 14916.23111352 0 6
0.00350000 0.00331552 52954.93040671 0 -27184.50213434 0 -16581.87073884 0 41301.52298088 0 -9575.86539513 0 7
0.00450000 0.00420575 74990.09044118 0 -31257.21470719 0 6049.84187058 0 4711.46255064 0 13094.34644304 0 24
0.00550000 0.00557378 117302.93476833 0 -11559.88521175 0 15243.33404979 0 -8677.08544398 0 5296.65082770 0 45
0.00650000 0.00659388 132133.84934280 0 -7314.99959165 0 49554.74596710 0 -18096.43601833 0 -1200.28792571 0 40
0.00750000 0.00754703 130810.82475176 0 21285.52103722 0 58263.77734045 0 -9321.45574713 0 37172.38234136 0 57
0.00850000 0.00846663 132264.24089128 0 15941.37846018 0 68422.17821906 0 6183.30211671 0 34147.63563616 0 75
0.00950000 0.00948925 129728.35008637 0 5817.77863624 0 95661.75954198 0 29015.26691889 0 66117.95722572 0 112
0.01050000 0.01054430 128192.87719652 0 9076.29715469 0 103258.07889948 0 56903.99582153 0 5739.13904372 0 105
0.01150000 0.01145670 124328.34147520 0 17447.17603211 0 107110.58712451 0 44034.79961263 0 51576.15218805 0 144
0.01250000 0.01249090 109723.81360645 0 17993.02203160 0 103252.00894808 0 48173.83202479 0 33232.30944713 0 169
0.01350000 0.01339930 100068.31944155 0 13310.95378263 0 105085.24667580 0 49399.73739352 0 39328.22674506 0 180
0.01450000 0.01448870 85192.32985765 0 5331.59801082 0 82794.58665022 0 22060.90112464 0 15088.77510224 0 267
0.01550000 0.01550050 88178.29631783 0 4308.78871950 0 76779.60203756 0 14023.94825849 0 -6192.57565356 0 238
0.01650000 0.01653350 80102.56320665 0 4287.16170750 0 70348.26372182 0 -10537.59299037 0 -7628.43389663 0 315
0.01750000 0.01747870 81041.15754269 0 7461.47651133 0 72841.10283443 0 -14607.56284444 0 -30125.84321111 0 297
0.01850000 0.01844180 77037.68737834 0 4071.09391915 0 83624.25908067 0 -14583.39544537 0 -29812.11664921 0 388
0.01950000 0.01947590 76262.19488441 0 5325.86527895 0 72365.28608899 0 6170.97112285 0 -44192.39353588 0 399
0.02050000 0.02045430 75584.60845835 0 1365.61541666 0 79252.43279187 0 5515.70862914 0 -37946.18873768 0 462
0.02150000 0.02154770 75150.26971410 0 -699.13587758 0 71609.12751432 0 20458.54636294 0 -38608.37547224 0 571
0.02250000 0.02255340 76541.18783555 0 -2665.02340051 0 52784.07251560 0 18373.18083933 0 -34428.98912395 0 510
0.02350000 0.02348930 72933.95060947 0 2722.63173551 0 46225.60244010 0 20785.19967318 0 -26200.94519537 0 555
0.02450000 0.02439640 70208.76724625 0 3467.33608708 0 31415.37066297 0 18927.23251386 0 -31299.36714743 0 592
0.02550000 0.02547300 64839.78283110 0 -686.20238485 0 19181.15881387 0 15794.46315513 0 -13060.39967783 0 837
0.02650000 0.02652900 63986.05540808 0 -1565.22689234 0 5718.20895206 0 9463.27903741 0 -18366.21163587 0 723
0.02750000 0.02749970 67006.53066600 0 -220.84843711 0 15149.81183571 0 -3873.06737522 0 -3579.40537487 0 826
0.02850000 0.02848090 64168.82838897 0 3224.41438414 0 14850.69811976 0 -8042.41582241 0 -5623.27041599 0 831
0.02950000 0.02946900 65451.49904388 0 3823.60851200 0 25809.43333041 0 -10581.90363555 0 8342.31638391 0 996
0.03050000 0.03053250 64763.34640613 0 1616.16952145 0 35597.79198696 0 -2950.85066730 0 15211.18578870 0 1041
0.03150000 0.03150510 67615.43671610 0 -561.12541604 0 37228.69800152 0 5376.99899912 0 12900.89484396 0 1036
0.03250000 0.03246190 66881.42222337 0 1649.83527039 0 40878.42488737 0 8272.61310873 0 18368.79698554 0 1059
0.03350000 0.03345080 65866.84108839 0 3600.15561612 0 41680.55772353 0 3615.54406697 0 11813.58669875 0 1302
0.03450000 0.03451200 58968.00410875 0 4159.82761602 0 35616.33906067 0 7946.07220499 0 16478.56915862 0 1339
0.03550000 0.03553350 56078.70724486 0 2621.20734396 0 34399.87583856 0 9395.74520782 0 11836.96725227 0 1365
0.03650000 0.03647120 53345.43061311 0 1381.41977159 0 30272.87092268 0 7910.29321371 0 13719.21421717 0 1308
0.03750000 0.03744890 51756.33981927 0 -552.90512816 0 24959.86494817 0 7306.55786295 0 10590.24419839 0 1579
0.03850000 0.03847530 55019.50072647 0 -1505.51655566 0 26325.60401198 0 2351.40924511 0 12220.16103569 0 1662
0.03950000 0.03950240 54941.49061040 0 -1421.25663778 0 23278.82563135 0 -610.31000737 0 10134.35712670 0 1683
0.04050000 0.04050350 58497.02084312 0 532.72253977 0 26503.20629353 0 -4153.94875569 0 10835.20045912 0 1822
0.04150000 0.04152450 55559.50158759 0 2561.49700728 0 29618.32783061 0 -3165.74942797 0 8917.36559401 0 1887
0.04250000 0.04250150 54403.28825340 0 5104.98649208 0 31044.99122139 0 -5446.46622064 0 3401.48835510 0 1920
0.04350000 0.04349210 48887.50093970 0 4575.30454834 0 26550.75424612 0 511.75198176 0 -1866.01546525 0 2005
0.04450000 0.04448520 46580.13256415 0 2796.92119619 0 28973.78891770 0 3820.87703388 0 -4171.60781798 0 2151
0.04550000 0.04548030 44067.95953228 0 1863.11537736 0 24903.32447499 0 4706.92132775 0 -8949.87355592 0 2274
0.04650000 0.04648670 43063.38257646 0 491.15686150 0 24628.04093859 0 3208.90228613 0 -9138.77269145 0 2311
0.04750000 0.04749250 41831.40725634 0 543.88900220 0 18111.61089682 0 3526.54059448 0 -12246.46415840 0 2568
0.04850000 0.04851840 41364.13340545 0 752.64362319 0 19483.30750552 0 1428.91152092 0 -11568.31569980 0 2493
0.04950000 0.04949480 40722.29224871 0 326.05081136 0 16760.93430498 0 262.16007667 0 -11482.54953472 0 2644
0.05050000 0.05050630 40569.64421179 0 687.07128715 0 17991.56074701 0 2425.02426675 0 -10087.68594486 0 2829
0.05150000 0.05149060 39161.30308170 0 877.68237379 0 15422.62242895 0 598.34658280 0 -12202.06358801 0 2784
0.05250000 0.05249300 38883.77141515 0 1369.75197613 0 15147.11407953 0 782.74383772 0 -11849.78159410 0 3055
0.05350000 0.05348950 37635.72196449 0 1378.01385441 0 15718.13913667 0 -618.23466614 0 -12810.29519907 0 3009
0.05450000 0.05448610 37465.76332544 0 637.75180800 0 13464.83829113 0 440.61777174 0 -12241.74308509 0 3336
0.05550000 0.05550870 36367.32693600 0 -572.17047944 0 14975.69415588 0 -976.73836023 0 -12011.30974511 0 3349
0.05650000 0.05647670 37650.89684298 0 -196.76759105 0 13146.50306243 0 -749.10843854 0 -11048.30071568 0 3324
0.05750000 0.05747970 37168.33570710 0 134.05712468 0 14220.65964628 0 1018.73230729 0 -9183.40931551 0 3639
0.05850000 0.05849280 37184.18502463 0 1053.74018993 0 14263.03689954 0 369.49143018 0 -8125.32686220 0 3846
0.05950000 0.05951020 36548.30141277 0 1376.57505112 0 16223.51879353 0 2771.35995642 0 -3342.11523794 0 3787
0.06050000 0.06049470 34919.86834138 0 1185.91113342 0 15935.98294783 0 1926.23163121 0 -1415.61383111 0 3930
0.06150000 0.06148310 34623.22756858 0 750.33366946 0 17397.15513635 0 1967.26000638 0 1874.50215655 0 4083
0.06250000 0.06249100 33653.27181701 0 407.77483844 0 15552.56435140 0 2420.15706499 0 1710.23128677 0 4303
0.06350000 0.06350600 33686.88136269 0 760.20296081 0 17936.36915192 0 1519.26387150 0 7884.83313981 0 4470
0.06450000 0.06451750 33075.83958896 0 769.12354123 0 15663.62198062 0 1807.94626357 0 5122.49942592 0 4479
0.06550000 0.06550280 31746.52023351 0 1389.85025963 0 16502.62415118 0 1465.91574313 0 5515.05667140 0 4636
0.06650000 0.06648880 31091.07788938 0 1018.11631963 0 14914.54501591 0 251.67479767 0 3106.84841814 0 4653
0.06750000 0.06749660 30554.78644301 0 53.17254940 0 15546.71921302 0 1338.96383377 0 3949.17782132 0 5220
0.06850000 0.06852730 30036.70485082 0 -229.03949929 0 13182.58555128 0 655.72223633 0 2025.04819179 0 5029
0.06950000 0.06949320 31429.98350892 0 -295.55829813 0 15606.74428792 0 -54.82627394 0 1335.04084667 0 5040
0.07050000 0.07048030 29717.58277657 0 569.27488782 0 13187.64384411 0 -782.73821739 0 797.00035504 0 5475
0.07150000 0.07148790 30426.86783769 0 1050.85471489 0 12753.41750637 0 77.54542757 0 1178.82952346 0 5509
0.07250000 0.07249820 28439.07116242 0 841.59651275 0 12978.68014702 0 -115.51567130 0 749.48050407 0 5916
0.07350000 0.07351270 27677.29226238 0 844.75288748 0 12106.74286981 0 1754.89039212 0 -1100.15620899 0 5721
0.07450000 0.07449140 27430.22275932 0 351.78066089 0 12112.92522772 0 1151.88568366 0 -715.43032488 0 6028
0.07550000 0.07549160 26617.86093099 0 456.19506553 0 9390.82180279 0 1037.20294458 0 -1417.49101978 0 6183
0.07650000 0.07648840 26854.36422237 0 531.53889925 0 10002.88647575 0 1456.84453799 0 -925.41916932 0 6330
0.07750000 0.07749960 25723.32994581 0 544.66123491 0 8594.19688549 0 936.70703078 0 -1180.44817717 0 6583
0.07850000 0.07848650 25380.60250503 0 735.19363700 0 8372.36264331 0 1872.69241178 0 -2886.27312885 0 6549
0.07950000 0.07947320 24728.08273009 0 155.93817540 0 7619.54254191 0 1369.41475660 0 -627.98705471 0 6828
0.08050000 0.08048110 24044.53875914 0 355.54627888 0 6304.76858851 0 1496.90621720 0 -3179.20448690 0 7147
0.08150000 0.08149960 24740.44744590 0 -45.09636667 0 5912.39119344 0 1418.98602633 0 -1306.87177594 0 7386
0.08250000 0.08250610 23955.62521186 0 51.58233455 0 4839.87574459 0 1429.70960713 0 -1713.62596329 0 7227
0.08350000 0.08350160 24227.98617907 0 76.76026812 0 4647.46952603 0 313.06673570 0 -1392.97516054 0 7798
0.08450000 0.08449610 24072.75279248 0 328.25510297 0 5739.55494780 0 444.47668714 0 -876.12666773 0 7371
0.08550000 0.08548940 23843.55592407 0 398.96216826 0 5193.85507676 0 -329.62983456 0 -1616.11331820 0 8256
0.08650000 0.08650700 23182.15603506 0 713.63519296 0 6175.35497664 0 -447.19692462 0 -854.58283654 0 8037
0.08750000 0.08749060 23125.39074887 0 471.74650581 0 6755.88962429 0 -717.02537322 0 -318.29251423 0 8155
0.08850000 0.08849210 22206.80477113 0 382.53170909 0 6663.80621350 0 -761.61928280 0 244.06712526 0 8718
0.08950000 0.08949900 22650.36084898 0 166.55047375 0 6935.52646362 0 -109.89557075 0 -1141.42063783 0 8571
0.09050000 0.09049190 22353.15804365 0 336.54283476 0 6522.98334115 0 -448.89875914 0 -1471.77212216 0 8932
0.09150000 0.09150830 21695.35516287 0 334.73308999 0 5278.83439629 0 254.63783320 0 -3299.67054078 0 9285
0.09250000 0.09250820 21390.17149552 0 342.96911478 0 4957.34054473 0 59.49215565 0 -3767.64131201 0 9204
0.09350000 0.09350330 20882.54370851 0 472.44455022 0 4209.64618006 0 136.36932654 0 -4665.28595744 0 9349
0.09450000 0.09448040 20420.66536998 0 636.91775172 0 4413.33801195 0 591.13795349 0 -5192.25890436 0 9564
0.09550000 0.09549270 19649.33191682 0 588.77067244 0 3639.32928392 0 547.41744247 0 -3965.87018765 0 10155
0.09650000 0.09649430 19451.38405744 0 392.17169116 0 4017.22872084 0 565.63966137 0 -3495.39275131 0 9913
0.09750000 0.09749140 19295.36382530 0 -82.34934447 0 4306.51810806 0 632.33943468 0 -1683.55722258 0 10476
0.09850000 0.09850240 19603.80728136 0 -54.40845895 0 5477.07451258 0 -228.39316188 0 -873.57504001 0 10575
0.09950000 0.09950330 19821.20146649 0 233.43459373 0 6255.63570416 0 -685.14801181 0 -100.11114632 0 10882
0.10050000 0.10051200 19601.10952518 0 635.05180370 0 7468.09725461 0 -329.32633699 0 1017.80607767 0 10875
0.10150000 0.10150300 19277.26637762 0 783.71727807 0 8150.06753446 0 -948.50184559 0 1384.61211639 0 11118
0.10250000 0.10250800 18607.43600056 0 914.38647062 0 8625.72691079 0 -413.54466446 0 936.89362558 0 11575
0.10350000 0.10349800 18053.83395206 0 673.09241390 0 8431.38730030 0 53.35487276 0 209.14242344 0 11364
0.10450000 0.10450100 17416.93868164 0 475.05238119 0 8794.13434004 0 432.53012354 0 -9.86403072 0 12093
0.10550000 0.10551000 17146.03899902 0 206.54695718 0 8130.96966887 0 775.11930433 0 -186.54534327 0 12067
0.10650000 0.10649700 17050.49346781 0 -128.73580063 0 7544.81469585 0 1263.26929175 0 105.42842374 0 12054
0.10750000 0.10749900 16892.22510552 0 -34.78430609 0 6118.34239613 0 1351.02505201 0 -292.87178260 0 12807
0.10850000 0.10850100 16939.88546462 0 215.50575581 0 6162.86661368 0 922.98107217 0 281.10394535 0 12736
0.10950000 0.10950300 16602.21631666 0 442.29487683 0 5737.37426156 0 441.26298510 0 614.20489285 0 12933
0.11050000 0.11050200 16207.55706949 0 550.84808907 0 6158.67385095 0 -38.29048987 0 1064.78862553 0 13428
0.11150000 0.11150900 15514.57095193 0 419.27177601 0 5566.56133305 0 257.85490744 0 1582.68362292 0 13453
0.11250000 0.11250000 15672.61450121 0 12.61493269 0 5767.15074534 0 239.14484430 0 1094.26273582 0 13668
0.11350000 0.11349100 15388.56325723 0 -191.65534309 0 5508.41344682 0 658.78643772 0 926.96700692 0 13791
0.11450000 0.11448600 15786.14507359 0 -176.45348704 0 5372.09807540 0 226.13716328 0 310.92763987 0 14205
0.11550000 0.11549300 15641.14067916 0 88.36331743 0 5017.70283916 0 224.45781006 0 642.85843563 0 14776
0.11650000 0.11649800 15537.38947291 0 251.55901897 0 4859.96278745 0 -347.05733945 0 133.49734028 0 14553
0.11750000 0.11747300 15400.47834701 0 191.67445220 0 5349.36947963 0 -353.53420240 0 93.02818748 0 14568
0.11850000 0.11849100 15247.04346453 0 342.11032906 0 5618.17840121 0 -51.95484971 0 -63.86341991 0 16015
0.11950000 0.11950300 15038.19217395 0 192.88282215 0 5627.50814131 0 -166.27282968 0 -520.62647552 0 15270
0.12050000 0.12050700 14634.42799969 0 234.20345424 0 5510.09954443 0 456.42662293 0 -179.90436682 0 15999
0.12150000 0.12150000 14653.53710593 0 109.10613985 0 5121.74630232 0 741.28831782 0 -378.66042898 0 15670
0.12250000 0.12250700 14392.41678945 0 61.87820858 0 4751.05212252 0 1233.39164211 0 802.19016348 0 16887
0.12350000 0.12352200 14343.96958480 0 178.92643021 0 4688.23936623 0 1038.75190625 0 889.56936194 0 16407
0.12450000 0.12449800 14296.19681920 0 133.19159458 0 4324.60431508 0 717.05347485 0 1284.62652814 0 16306
0.12550000 0.12549900 14065.42625969 0 380.61967440 0 4280.97934960 0 5.66852528 0 1659.22121375 0 17523
0.12650000 0.12650100 13848.48170058 0 421.50416924 0 4757.52673734 0 -517.68592129 0 2123.99964018 0 17154
0.12750000 0.12750600 13430.77911942 0 449.55746127 0 4493.91099639 0 -764.98585769 0 1464.85912196 0 18007
0.12850000 0.12850300 13167.07345327 0 229.46664402 0 4632.85668008 0 -492.66086056 0 1198.62430940 0 17496
0.12950000 0.12949900 12948.10557703 0 130.13413758 0 4494.29317852 0 -127.46560709 0 111.59549436 0 18405
0.13050000 0.13049000 13054.55453945 0 1.23058148 0 4312.90279767 0 107.15835989 0 -748.62509055 0 18100
0.13150000 0.13148800 12835.69906972 0 21.34588333 0 3745.28365771 0 387.83167591 0 -794.52066749 0 19059
0.13250000 0.13249300 12792.53497091 0 37.16822330 0 3625.35715506 0 235.57481363 0 -1232.67224046 0 18957
0.13350000 0.13349100 12858.40518420 0 -110.32305270 0 3531.94734749 0 649.22176801 0 -688.34597694 0 19468
0.13450000 0.13450700 13014.76263586 0 11.98140961 0 3527.72086281 0 470.11548739 0 -394.36699025 0 19953
0.13550000 0.13551000 12979.35458606 0 33.50972871 0 3123.51830318 0 802.05077941 0 -235.51523818 0 19956
0.13650000 0.13649900 12804.45006069 0 293.86995239 0 3253.84240775 0 287.29754390 0 69.62863726 0 19723
0.13750000 0.13749600 12535.68610171 0 440.09732961 0 3180.48592108 0 190.26824679 0 95.94266340 0 20946
0.13850000 0.13851100 12078.41642997 0 440.25919499 0 2820.74013509 0 -211.23318447 0 18.38903016 0 20955
0.13950000 0.13949800 11737.26268029 0 284.06023649 0 2700.63378203 0 -283.91635616 0 -257.34008564 0 20506
0.14050000 0.14048300 11552.57878878 0 137.71258430 0 3214.35400173 0 -283.83767161 0 -533.27445572 0 21447
0.14150000 0.14148400 11383.63180829 0 107.08799342 0 2516.64681086 0 -198.88982590 0 -917.38660030 0 21771
0.14250000 0.14249400 11494.46462450 0 55.34514238 0 3227.15710292 0 -138.80967181 0 -841.47623779 0 22470
0.14350000 0.14350900 11391.61267031 0 96.13847554 0 2938.13749132 0 -187.01969873 0 -911.85957234 0 22519
0.14450000 0.14449900 11320.00972515 0 153.60798850 0 3371.58822416 0 6.54540844 0 -1030.35401608 0 22218
0.14550000 0.14550500 11351.59595371 0 32.37757037 0 3182.72281058 0 184.45570630 0 -651.91502792 0 23559
0.14650000 0.14650700 11223.00290934 0 118.06055463 0 3229.18042005 0 350.57229093 0 -1036.25086146 0 23044
0.14750000 0.14750500 11322.48266831 0 -22.47466948 0 3000.46689962 0 396.52969145 0 -163.98535725 0 23649
0.14850000 0.14849900 11082.21375894 0 152.59070961 0 3029.52398176 0 137.94863797 0 -927.36829815 0 23640
0.14950000 0.14949500 11072.34446760 0 199.20906038 0 2993.58762138 0 230.07251510 0 -121.02359016 0 24457
0.15050000 0.15050000 10825.27496453 0 271.54152377 0 2871.39050728 0 98.23710503 0 -303.28736957 0 24591
0.15150000 0.15149900 10623.94366929 0 293.07748651 0 2871.52539509 0 -15.64619897 0 30.31817075 0 25020
0.15250000 0.15250500 10314.96066199 0 338.57851660 0 2929.26861789 0 -30.09650511 0 -75.69892588 0 25297
0.15350000 0.15350100 10140.77553827 0 173.44211671 0 3030.67052814 0 170.94219599 0 -74.86509441 0 25452
0.15450000 0.15450400 9895.76307428 0 234.71827604 0 3145.92092008 0 -146.51626195 0 144.16584189 0 26061
0.15550000 0.15549900 9781.80535717 0 205.63871260 0 3128.43046755 0 73.34637008 0 115.16496300 0 26128
0.15650000 0.15649500 9489.57091947 0 220.77087662 0 3357.03158146 0 -68.49209507 0 363.68001375 0 26331
0.15750000 0.15749700 9511.05180301 0 152.78517287 0 3465.71743338 0 45.77136774 0 503.70704804 0 27345
0.15850000 0.15849900 9303.80792549 0 180.65749042 0 3258.23750219 0 137.36637226 0 578.26628434 0 26980
0.15950000 0.15949700 9321.72552275 0 104.97778605 0 3620.46747199 0 2.80683545 0 578.96545281 0 27777
0.16050000 0.16050000 9239.89358543 0 47.96037207 0 3355.24431800 0 43.24469427 0 575.57527255 0 28224
0.16150000 0.16150500 9337.03528905 0 44.31244369 0 3740.70871286 0 -26.97025533 0 64.63138117 0 28075
0.16250000 0.16249700 9292.81456907 0 37.19913509 0 3417.97838972 0 -154.17451730 0 308.31868484 0 28590
0.16350000 0.16349900 9283.67592003 0 66.47012681 0 3407.23232763 0 178.88146760 0 -27.26981867 0 29163
0.16450000 0.16449100 9215.55757660 0 95.87387062 0 3104.58904734 0 126.11672901 0 -164.58448394 0 28996
0.16550000 0.16550500 9179.03670237 0 103.79886661 0 3143.50418018 0 140.09335413 0 -327.22770749 0 30777
0.16650000 0.16650700 9071.60980334 0 81.90724968 0 3150.03499825 0 107.65677034 0 -203.84245662 0 29211
0.16750000 0.16749900 9131.03912375 0 48.19710017 0 3097.31634632 0 219.84689513 0 74.23011005 0 30922
0.16850000 0.16850800 8900.66198702 0 56.58296284 0 3208.85732353 0 19.75926548 0 37.79039332 0 30867
0.16950000 0.16949900 8976.06427212 0 103.48165544 0 3136.19775720 0 47.75972645 0 395.97103111 0 30852
0.17050000 0.17049200 8824.36044986 0 97.41170405 0 3347.03864296 0 55.44788193 0 229.84320582 0 31257
0.17150000 0.17149500 8848.75266194 0 65.33470868 0 3260.86781446 0 157.99296635 0 635.77570161 0 32608
0.17250000 0.17250900 8748.94692410 0 63.46021777 0 3132.13988229 0 322.52237110 0 748.33845396 0 32361
0.17350000 0.17350400 8689.61876954 0 58.65652568 0 2974.04012975 0 458.80177243 0 526.34684267 0 32508
0.17450000 0.17449800 8525.02192089 0 166.56621066 0 2901.87515206 0 326.89723236 0 597.72047856 0 32791
0.17550000 0.17549800 8372.75606609 0 232.68709046 0 2606.65070126 0 101.81230640 0 446.34937955 0 33633
0.17650000 0.17650100 8180.22620037 0 244.37062283 0 2622.53374075 0 13.27509611 0 663.03989995 0 33984
0.17750000 0.17750300 8062.21060834 0 157.84009350 0 2494.70506063 0 -111.69980760 0 546.52493480 0 34069
