### header ###
fiducial parameters:
Omega_m = 0.31
Omega_nu = 0
Omega_de = 0.69
Omega_k = 0
H_0 = 100
w_de = -1
zeff = 0
beta = 0
fgrowth = 0
b_1 = 2
gamma = 0.55
Lx = 3500 Ly = 3500 Lz = 3500
nx = 700 ny = 700 nz = 700
xoffset = 857.220397 yoffset = 15.9954215 zoffset = 262.898189
bins = 400 dk = 0.001
kx_ny = 0.628318531 ky_ny = 0.628318531 kz_ny = 0.628318531
############################
A(data) = 3.10131129 (not used)
A(ran) = 3.09919427 (used)
Ngal = 189234
weighted Ngal = 0
Nran = 9360983
weighted Nran = 0
SN(data) = 3452.32911
SN(ran) = 69.596256
SN(data+ran) = 3521.92536
############################
13 columns: k_central k_mean P_0(k) sigma^{lin}_{P_0(k)} P^img_1(k) sigma^{lin}_{P_1(k)} P_2(k) sigma^{lin}_{P_2(k)} P^img_3(k) sigma^{lin}_{P_3(k)} P_4(k) sigma^{lin}_{P_4(k)} N_modes
### header ###
0.00050000 0 0 0 0 0 0 0 0 0 0 0 0
0.00150000 0.00179520 402.75026756 0 -7207.38160155 0 -6920.93609898 0 4987.94883667 0 15969.25527400 0 3
0.00250000 0.00253879 2084.37634635 0 -6379.13673374 0 -5528.78150594 0 -5916.35914315 0 -16355.03440708 0 6
0.00350000 0.00331552 9417.14740681 0 -8702.93894066 0 -4066.60889951 0 -14068.57364189 0 2453.38442855 0 7
0.00450000 0.00420575 16273.87690881 0 -11008.07042672 0 -8784.77087798 0 -10559.69210971 0 -3930.03499312 0 24
0.00550000 0.00557378 32433.54880619 0 -10275.20248036 0 -890.64059595 0 -26995.09716952 0 8115.72734647 0 45
0.00650000 0.00659388 57354.18388330 0 -26732.40316194 0 30.46755899 0 -35182.67475547 0 -25602.71776347 0 40
0.00750000 0.00754703 72636.52299113 0 -22056.74208387 0 35090.38901296 0 -38067.81257859 0 8541.07357013 0 57
0.00850000 0.00846663 103729.73660415 0 -22557.62548045 0 25137.69204273 0 -21631.84548624 0 -3498.67502132 0 75
0.00950000 0.00948925 116320.50189444 0 -14413.43680632 0 61767.48817330 0 -13900.18869394 0 13423.80991596 0 112
0.01050000 0.01054430 142217.83711357 0 -4001.04218379 0 68687.34516981 0 11302.58671652 0 -1594.04792081 0 105
0.01150000 0.01145670 138153.21780925 0 395.04929775 0 61744.55724581 0 21716.48758625 0 12114.83613834 0 144
0.01250000 0.01249090 145048.23296764 0 1102.80563037 0 55061.54076021 0 30322.89181843 0 -11570.22661042 0 169
0.01350000 0.01339930 146525.25447369 0 -1083.61221925 0 46894.19634558 0 18515.93710361 0 -18158.93403639 0 180
0.01450000 0.01448870 143567.83926636 0 4588.80456986 0 46227.17613120 0 3271.56891395 0 -18425.11264570 0 267
0.01550000 0.01550050 135293.59626328 0 13784.07277189 0 -2916.39807281 0 -19400.80112915 0 -42540.69231747 0 238
0.01650000 0.01653350 120831.37503279 0 17986.39004767 0 37457.44524390 0 -13060.51208434 0 -14060.03074734 0 315
0.01750000 0.01747870 103992.99264427 0 19250.96325491 0 9876.45163633 0 -4005.79697905 0 -32100.15110551 0 297
0.01850000 0.01844180 93396.43120017 0 9901.40588095 0 23767.23190561 0 18129.70834449 0 -22245.92223568 0 388
0.01950000 0.01947590 86623.93913474 0 4597.94321891 0 14355.21023553 0 8353.20857447 0 -29617.20376554 0 399
0.02050000 0.02045430 79333.81510316 0 -213.43073169 0 9359.75264417 0 11937.12145028 0 -31665.02551571 0 462
0.02150000 0.02154770 80297.70090334 0 2644.39680642 0 2981.78493811 0 -2293.37376539 0 -24045.21319819 0 571
0.02250000 0.02255340 73325.91210046 0 1195.40948329 0 16129.54695342 0 -4693.99457941 0 -19149.46017881 0 510
0.02350000 0.02348930 76344.47644776 0 5736.55369405 0 9622.87379649 0 -13549.93001717 0 -13031.62361196 0 555
0.02450000 0.02439640 69780.94807943 0 1974.36409764 0 28131.18973890 0 -4657.30509542 0 -30309.29063104 0 592
0.02550000 0.02547300 68701.28357672 0 1425.86530458 0 19013.67311798 0 -2999.47772236 0 -18830.33810456 0 837
0.02650000 0.02652900 68038.19759009 0 -204.72597176 0 27380.08945706 0 4111.54902113 0 -29638.44859542 0 723
0.02750000 0.02749970 64246.72609853 0 2367.58454152 0 20719.77908593 0 -2148.44805552 0 -20760.24542856 0 826
0.02850000 0.02848090 67499.32079405 0 1546.57865278 0 25331.14364181 0 5533.98592723 0 -25160.73537673 0 831
0.02950000 0.02946900 64145.11061592 0 3128.79016837 0 18878.67290270 0 1670.72039945 0 -15509.84987862 0 996
0.03050000 0.03053250 63314.08930738 0 2627.17612950 0 21248.65170282 0 -1345.46092990 0 -6994.60732387 0 1041
0.03150000 0.03150510 58277.71574736 0 3045.95781313 0 22285.03970022 0 642.44477968 0 -8943.39894110 0 1036
0.03250000 0.03246190 57397.34798211 0 4298.50352409 0 19196.67091188 0 3224.40314349 0 2878.14613837 0 1059
0.03350000 0.03345080 54975.88700164 0 2797.83168890 0 21205.03797799 0 2774.34996952 0 -3620.11901182 0 1302
0.03450000 0.03451200 53020.35099397 0 2081.93712514 0 23411.35290346 0 1860.57499030 0 2757.71380644 0 1339
0.03550000 0.03553350 52138.18472460 0 215.62603078 0 18719.28047533 0 4261.90396531 0 -3124.24894547 0 1365
0.03650000 0.03647120 51786.57716973 0 85.36633513 0 22500.74778775 0 1869.81480520 0 -3321.27507149 0 1308
0.03750000 0.03744890 50836.85458947 0 -126.40786186 0 16776.78362251 0 -2340.35968545 0 -6742.74930359 0 1579
0.03850000 0.03847530 49982.45272741 0 1029.13328142 0 17051.28031336 0 -571.52526609 0 -10812.22456903 0 1662
0.03950000 0.03950240 49234.16260825 0 1787.98286787 0 14331.26764948 0 -2817.52530898 0 -14300.01864044 0 1683
0.04050000 0.04050350 48321.87139492 0 1279.80428898 0 16066.59930933 0 77.36434069 0 -16214.63867945 0 1822
0.04150000 0.04152450 46178.27930052 0 2741.10012466 0 13882.54087230 0 -617.44220026 0 -14043.73180378 0 1887
0.04250000 0.04250150 45157.17858812 0 1831.82140573 0 16609.07311361 0 2043.03323296 0 -12731.38583094 0 1920
0.04350000 0.04349210 42542.71563460 0 2024.58732511 0 15647.88506960 0 2287.87708718 0 -9042.90118137 0 2005
0.04450000 0.04448520 42495.84212105 0 2515.36537668 0 18898.90607402 0 447.21153746 0 -4598.43780754 0 2151
0.04550000 0.04548030 40794.23241339 0 792.43889897 0 18953.19841705 0 2666.22615014 0 -1972.54311223 0 2274
0.04650000 0.04648670 39620.48366406 0 906.83949772 0 23186.53988884 0 -679.90762044 0 2264.83375318 0 2311
0.04750000 0.04749250 40681.48868656 0 329.14761064 0 24428.85660763 0 637.13357221 0 5946.93371314 0 2568
0.04850000 0.04851840 38686.72280784 0 877.77005087 0 24639.28158932 0 3840.43576615 0 7075.94467256 0 2493
0.04950000 0.04949480 40185.43876980 0 1157.05638299 0 25829.66650173 0 3838.43493032 0 12430.24879785 0 2644
0.05050000 0.05050630 37688.10339690 0 816.13306665 0 24362.31195531 0 4140.51617806 0 11301.68746446 0 2829
0.05150000 0.05149060 39665.33386048 0 915.01482300 0 25075.53124419 0 4139.90918292 0 13120.42475273 0 2784
0.05250000 0.05249300 37756.44655334 0 -219.40963381 0 20241.93902335 0 2092.73939049 0 12134.95690315 0 3055
0.05350000 0.05348950 39856.31251640 0 -8.68116580 0 24683.00772066 0 2074.18107614 0 15382.38089933 0 3009
0.05450000 0.05448610 39008.99226430 0 -337.50840665 0 20742.37279390 0 -8.80287957 0 13321.18277479 0 3336
0.05550000 0.05550870 38930.86974171 0 372.91870459 0 20812.73926747 0 1528.63857421 0 9834.11934567 0 3349
0.05650000 0.05647670 38368.05035961 0 766.61237985 0 18448.15597970 0 1829.42714712 0 7328.90427661 0 3324
0.05750000 0.05747970 37054.91754122 0 1135.83403441 0 17319.70705282 0 2154.37187845 0 6799.15488896 0 3639
0.05850000 0.05849280 36426.78997837 0 914.48314022 0 14418.71991216 0 2485.20671077 0 6570.10414901 0 3846
0.05950000 0.05951020 35078.24911017 0 48.99957023 0 12117.53389452 0 4934.09487902 0 6530.51457714 0 3787
0.06050000 0.06049470 35545.74777408 0 -788.03256389 0 11048.54801000 0 1911.54010071 0 4431.10948076 0 3930
0.06150000 0.06148310 35412.32124990 0 -678.50366316 0 6762.76890254 0 3564.69136307 0 1116.74853354 0 4083
0.06250000 0.06249100 35592.28406810 0 -40.75590179 0 6777.12321352 0 -171.96172301 0 77.84386685 0 4303
0.06350000 0.06350600 35279.90638429 0 388.03850388 0 3157.84725051 0 -1529.68395473 0 -3687.97882028 0 4470
0.06450000 0.06451750 34575.90442901 0 1158.87736841 0 4934.33093268 0 -2593.27432689 0 -5083.12342641 0 4479
0.06550000 0.06550280 33416.65611912 0 1683.29868762 0 4646.50283007 0 -2725.62174860 0 -8748.30620701 0 4636
0.06650000 0.06648880 32067.89043791 0 1680.49976558 0 6295.27023864 0 -2779.61059406 0 -7703.16174269 0 4653
0.06750000 0.06749660 30456.76796864 0 1085.05439474 0 7639.82067583 0 -1971.50897236 0 -8864.89423639 0 5220
0.06850000 0.06852730 30576.70571193 0 756.68800932 0 9736.05590870 0 -1138.25077432 0 -5623.13552818 0 5029
0.06950000 0.06949320 30760.26553837 0 -123.78204585 0 11218.54037100 0 609.20505141 0 -6509.01121229 0 5040
0.07050000 0.07048030 30902.45977012 0 -27.08940623 0 13014.87504237 0 1104.02636504 0 -1221.66764340 0 5475
0.07150000 0.07148790 30851.42721580 0 548.37402185 0 12024.01168043 0 2673.06046578 0 802.18903942 0 5509
0.07250000 0.07249820 30246.34298695 0 381.46721947 0 10495.74404770 0 3483.60130869 0 1776.76469844 0 5916
0.07350000 0.07351270 29689.59355624 0 299.51837938 0 9797.22752997 0 3980.95514094 0 1657.50139419 0 5721
0.07450000 0.07449140 29255.25481200 0 705.20807711 0 7597.80312339 0 1800.32510238 0 352.69227766 0 6028
0.07550000 0.07549160 28114.44116931 0 477.22182678 0 6432.34997430 0 1977.96110588 0 2914.26234917 0 6183
0.07650000 0.07648840 27201.25070393 0 998.22711223 0 5344.29994615 0 -827.00052778 0 -419.68768008 0 6330
0.07750000 0.07749960 26729.59299925 0 918.83776831 0 6489.36255481 0 -201.58983021 0 1983.16552717 0 6583
0.07850000 0.07848650 25394.65331844 0 723.31676543 0 5745.41132683 0 -582.35226088 0 -263.62922972 0 6549
0.07950000 0.07947320 25835.62404662 0 367.15225076 0 7142.21954927 0 40.35584703 0 1388.81611977 0 6828
0.08050000 0.08048110 25250.43576956 0 18.45017930 0 7332.27647183 0 -125.52322265 0 -55.06828515 0 7147
0.08150000 0.08149960 25454.45358033 0 169.92491710 0 8324.15149233 0 8.75562387 0 1194.93737596 0 7386
0.08250000 0.08250610 25502.45115895 0 320.77220178 0 8862.19648022 0 159.91062136 0 1008.23129138 0 7227
0.08350000 0.08350160 25156.12670993 0 459.71338921 0 9247.39109947 0 73.65694926 0 1989.59517939 0 7798
0.08450000 0.08449610 24980.88496503 0 732.59142635 0 9048.27421242 0 -1074.23526841 0 1866.07166850 0 7371
0.08550000 0.08548940 24322.18283220 0 921.27811359 0 10079.39034462 0 -443.30428727 0 1368.61667040 0 8256
0.08650000 0.08650700 23487.67692193 0 891.52186297 0 11080.68503044 0 116.90951199 0 2880.70900674 0 8037
0.08750000 0.08749060 23292.20200572 0 585.37599592 0 9813.79624915 0 973.93943820 0 1244.66601479 0 8155
0.08850000 0.08849210 22068.99439317 0 255.38196428 0 9865.62688967 0 650.67518415 0 2116.37847898 0 8718
0.08950000 0.08949900 22402.27968734 0 292.39405494 0 9660.23771952 0 743.46001154 0 900.88307690 0 8571
0.09050000 0.09049190 21537.53642661 0 453.09714219 0 8454.43063430 0 576.53972038 0 528.92095169 0 8932
0.09150000 0.09150830 21541.35824786 0 413.62447308 0 8424.04715537 0 526.94259716 0 1307.55745563 0 9285
0.09250000 0.09250820 20757.88489191 0 428.34073302 0 6970.57481260 0 263.56066175 0 609.36129645 0 9204
0.09350000 0.09350330 20928.85518953 0 -18.54909702 0 7383.30902614 0 1388.68123196 0 857.86847875 0 9349
0.09450000 0.09448040 20697.41019097 0 141.78394800 0 6664.95275988 0 1421.86363292 0 -106.84823034 0 9564
0.09550000 0.09549270 20794.19219377 0 211.96270270 0 5653.48528515 0 684.26337260 0 633.39268365 0 10155
0.09650000 0.09649430 20129.64492255 0 543.72376464 0 6312.99674484 0 -78.83641631 0 -199.21355665 0 9913
0.09750000 0.09749140 19878.19156570 0 633.06895291 0 5231.79227298 0 -583.38415261 0 -149.15107048 0 10476
0.09850000 0.09850240 18972.41992980 0 810.79038536 0 6079.89937063 0 -1224.41036217 0 -1193.73462633 0 10575
0.09950000 0.09950330 18420.39157240 0 869.23165257 0 6621.31655374 0 -1145.26494038 0 -1516.24013645 0 10882
0.10050000 0.10051200 17921.53149296 0 732.67685530 0 7242.00280580 0 -1071.76569744 0 -2528.97780471 0 10875
0.10150000 0.10150300 17192.68769956 0 378.04106912 0 7393.14459553 0 241.16366517 0 -2706.92854643 0 11118
0.10250000 0.10250800 17446.27678005 0 -66.07468072 0 7877.45927293 0 477.50846338 0 -1630.20909421 0 11575
0.10350000 0.10349800 17579.36608470 0 -496.58497173 0 7629.70409017 0 1807.80013511 0 -1973.11638541 0 11364
0.10450000 0.10450100 17874.32075989 0 -334.89945162 0 7576.42340570 0 1705.08306873 0 -65.24950455 0 12093
0.10550000 0.10551000 18105.20372590 0 160.95712595 0 6642.94356575 0 1489.36374055 0 280.49807428 0 12067
0.10650000 0.10649700 17656.70176173 0 499.59859019 0 6266.94379880 0 1308.51291094 0 2434.24160035 0 12054
0.10750000 0.10749900 17290.93098695 0 636.74576976 0 5835.58382699 0 686.99485073 0 2121.16699619 0 12807
0.10850000 0.10850100 16558.93981134 0 457.50347727 0 5380.22506588 0 467.06140259 0 2552.24595173 0 12736
0.10950000 0.10950300 16163.71853164 0 341.08518172 0 4320.92862229 0 673.72526254 0 2120.78481407 0 12933
0.11050000 0.11050200 15798.73460241 0 183.67785327 0 4397.35380661 0 117.17816355 0 1706.57807528 0 13428
0.11150000 0.11150900 15746.69038952 0 137.67324202 0 3523.19088057 0 -85.63701000 0 979.13599103 0 13453
0.11250000 0.11250000 15505.35361833 0 298.85742912 0 4220.32479825 0 -376.79335689 0 299.33628084 0 13668
0.11350000 0.11349100 15226.24826068 0 263.63372598 0 4097.58813292 0 -368.00316802 0 615.04569353 0 13791
0.11450000 0.11448600 15084.39124845 0 304.12929431 0 4298.87446556 0 -713.41824840 0 -42.79102161 0 14205
0.11550000 0.11549300 14667.58791935 0 260.15249645 0 5059.16959970 0 -112.14965844 0 834.46544393 0 14776
0.11650000 0.11649800 14716.82196955 0 178.31831100 0 4882.33168240 0 -91.27711891 0 343.83801708 0 14553
0.11750000 0.11747300 14568.44537990 0 -110.79684613 0 4835.89655423 0 446.17852166 0 944.98014972 0 14568
0.11850000 0.11849100 14774.93613383 0 -166.19302106 0 4349.82833532 0 684.16782707 0 341.79109458 0 16015
0.11950000 0.11950300 14895.77312919 0 -235.26681980 0 4129.59026555 0 821.89839641 0 -16.42697457 0 15270
0.12050000 0.12050700 14939.83648005 0 80.90525808 0 3366.90087280 0 454.13240612 0 -123.15594160 0 15999
0.12150000 0.12150000 14914.43260940 0 159.84879779 0 3943.07414797 0 65.25366359 0 -1.18506808 0 15670
0.12250000 0.12250700 14461.09716542 0 586.65855417 0 3135.38843035 0 -332.78620928 0 120.52000901 0 16887
0.12350000 0.12352200 14166.25489675 0 614.43307806 0 4560.36572352 0 -384.75398574 0 165.66358641 0 16407
0.12450000 0.12449800 13685.04263895 0 499.97852419 0 3958.45135817 0 -302.78716061 0 780.02360024 0 16306
0.12550000 0.12549900 13363.78484106 0 235.75691217 0 4575.38323289 0 -78.14994977 0 576.62065307 0 17523
0.12650000 0.12650100 13360.18783283 0 32.95275446 0 4314.82494895 0 443.97198192 0 765.86487658 0 17154
0.12750000 0.12750600 13293.53077399 0 -106.82361331 0 4072.49900049 0 676.73213661 0 274.09539962 0 18007
0.12850000 0.12850300 13320.28352273 0 -38.13716739 0 3538.57933142 0 993.67802088 0 -8.73817838 0 17496
0.12950000 0.12949900 13132.56465552 0 87.31951060 0 2756.75835112 0 752.09170724 0 -213.72411267 0 18405
0.13050000 0.13049000 13026.67772564 0 134.74842470 0 2120.52627910 0 309.45511462 0 -325.85409998 0 18100
0.13150000 0.13148800 12850.19950916 0 237.32273482 0 2177.33652789 0 64.61733035 0 -387.32359850 0 19059
0.13250000 0.13249300 12646.18169839 0 241.26595509 0 2380.12910773 0 -563.78495400 0 -257.85378338 0 18957
0.13350000 0.13349100 12537.70941884 0 155.77181377 0 2543.32087504 0 -70.05578199 0 190.10750549 0 19468
0.13450000 0.13450700 12573.56709467 0 46.80775574 0 3105.07239533 0 -15.95542927 0 902.87604427 0 19953
0.13550000 0.13551000 12501.51452349 0 84.30870230 0 3014.72004475 0 559.72370689 0 706.88405813 0 19956
0.13650000 0.13649900 12492.29718989 0 185.40441722 0 3192.13123524 0 349.12112292 0 1207.32457306 0 19723
0.13750000 0.13749600 12372.80907262 0 280.23841524 0 3108.51203445 0 94.92032622 0 1070.93276522 0 20946
0.13850000 0.13851100 12196.10604313 0 255.11780899 0 3439.95386190 0 -600.13946659 0 1082.86921224 0 20955
0.13950000 0.13949800 12119.66961815 0 208.27239707 0 3486.51263723 0 -841.60213308 0 928.21696728 0 20506
0.14050000 0.14048300 11953.30798734 0 183.25295667 0 3837.44575305 0 -586.37866197 0 395.52028101 0 21447
0.14150000 0.14148400 11803.91973912 0 125.75253192 0 4163.18857059 0 -479.31820815 0 -33.29570672 0 21771
0.14250000 0.14249400 11832.69580499 0 126.02230754 0 4367.40871307 0 142.64498184 0 -205.97818025 0 22470
0.14350000 0.14350900 11844.94811429 0 16.68787008 0 4154.19605000 0 322.60330378 0 -333.55169760 0 22519
0.14450000 0.14449900 11889.01146515 0 21.87419392 0 4023.11882183 0 663.35913443 0 -9.86216477 0 22218
0.14550000 0.14550500 11641.37992955 0 51.49814207 0 3854.31796980 0 507.65588864 0 128.50761542 0 23559
0.14650000 0.14650700 11718.60320007 0 186.46441059 0 3618.19686055 0 255.83159031 0 172.50239831 0 23044
0.14750000 0.14750500 11423.98574441 0 246.26467247 0 3587.88082552 0 282.86647939 0 769.93286808 0 23649
0.14850000 0.14849900 11183.00867404 0 327.31650864 0 3298.72632612 0 105.68043913 0 155.05803244 0 23640
0.14950000 0.14949500 10787.11295530 0 270.46129724 0 2970.58924998 0 457.62487630 0 510.95164743 0 24457
0.15050000 0.15050000 10506.49010980 0 254.26689173 0 3108.88297592 0 159.60937192 0 -247.79677317 0 24591
0.15150000 0.15149900 10429.91879702 0 162.35546290 0 2652.19781803 0 215.57882004 0 269.76774909 0 25020
0.15250000 0.15250500 10236.80441746 0 80.20001965 0 2748.67632325 0 216.46570739 0 -89.77042209 0 25297
0.15350000 0.15350100 10273.35901364 0 58.66990205 0 2655.42388478 0 -169.51350928 0 541.32051351 0 25452
0.15450000 0.15450400 10262.53426698 0 -33.73577819 0 2777.60975823 0 412.81289810 0 693.41551042 0 26061
0.15550000 0.15549900 10270.07674362 0 54.08292971 0 2720.21499560 0 304.83295904 0 720.66284780 0 26128
0.15650000 0.15649500 10180.00540932 0 173.03745329 0 2470.13299814 0 357.32454983 0 458.64103113 0 26331
0.15750000 0.15749700 10120.77842061 0 306.33695811 0 2672.39726739 0 -140.82512049 0 623.37613978 0 27345
0.15850000 0.15849900 9789.77497854 0 209.24246523 0 2227.90821553 0 -151.65548747 0 734.54729958 0 26980
0.15950000 0.15949700 9701.82812722 0 157.03638697 0 2453.39566920 0 57.82370586 0 597.12472407 0 27777
0.16050000 0.16050000 9526.10303434 0 130.69279792 0 2340.41588870 0 -101.18451606 0 233.92018984 0 28224
0.16150000 0.16150500 9469.64124572 0 80.53229328 0 2211.76664108 0 -60.53551285 0 -168.47374909 0 28075
0.16250000 0.16249700 9378.74934391 0 108.04041375 0 2545.56900519 0 -101.72777671 0 -266.50009192 0 28590
0.16350000 0.16349900 9279.60680446 0 142.32125110 0 2533.87872843 0 -72.24298781 0 20.42774698 0 29163
0.16450000 0.16449100 9214.21993916 0 75.25750552 0 2694.38398022 0 50.16511330 0 127.14862074 0 28996
0.16550000 0.16550500 9048.28545307 0 49.69356800 0 2542.44410429 0 197.79948278 0 318.09018252 0 30777
0.16650000 0.16650700 9191.70491575 0 0.49025761 0 2750.31745826 0 550.79300988 0 467.09400048 0 29211
0.16750000 0.16749900 9037.05604299 0 18.03247672 0 2416.71742586 0 232.88604997 0 338.99442068 0 30922
0.16850000 0.16850800 9192.95262798 0 56.98560295 0 2365.03291380 0 191.61600082 0 519.88009631 0 30867
0.16950000 0.16949900 8954.94308940 0 98.94110699 0 2202.21208796 0 -194.15638788 0 369.87810856 0 30852
0.17050000 0.17049200 8985.73123175 0 144.87625101 0 1999.85789350 0 -89.89125908 0 72.48039035 0 31257
0.17150000 0.17149500 8885.93673456 0 90.09966075 0 2054.74599102 0 21.10162399 0 -127.93321816 0 32608
0.17250000 0.17250900 8824.57402222 0 136.32323987 0 1724.55187580 0 -28.35645238 0 51.46318365 0 32361
0.17350000 0.17350400 8813.59190646 0 40.67789168 0 1968.56392187 0 208.87377188 0 -294.69164395 0 32508
0.17450000 0.17449800 8647.46632930 0 144.28274465 0 1648.14917278 0 -31.03745999 0 -381.56501313 0 32791
0.17550000 0.17549800 8638.02418269 0 228.79670124 0 1863.03669281 0 37.82782469 0 -268.77407556 0 33633
0.17650000 0.17650100 8384.83976562 0 147.05244099 0 1870.57916945 0 -122.02513214 0 -71.48334463 0 33984
0.17750000 0.17750300 8340.38299198 0 186.85783336 0 2061.06323673 0 -144.79419426 0 244.31891583 0 34069
