### header ###
fiducial parameters:
Omega_m = 0.31
Omega_nu = 0
Omega_de = 0.69
Omega_k = 0
H_0 = 100
w_de = -1
zeff = 0
beta = 0
fgrowth = 0
b_1 = 2
gamma = 0.55
Lx = 3500 Ly = 3500 Lz = 3500
nx = 700 ny = 700 nz = 700
xoffset = 857.220397 yoffset = 15.9954215 zoffset = 262.898189
bins = 400 dk = 0.001
kx_ny = 0.628318531 ky_ny = 0.628318531 kz_ny = 0.628318531
############################
A(data) = 3.01558767 (not used)
A(ran) = 3.01109985 (used)
Ngal = 184130
weighted Ngal = 0
Nran = 9360983
weighted Nran = 0
SN(data) = 3458.9905
SN(ran) = 67.6179863
SN(data+ran) = 3526.60849
############################
13 columns: k_central k_mean P_0(k) sigma^{lin}_{P_0(k)} P^img_1(k) sigma^{lin}_{P_1(k)} P_2(k) sigma^{lin}_{P_2(k)} P^img_3(k) sigma^{lin}_{P_3(k)} P_4(k) sigma^{lin}_{P_4(k)} N_modes
### header ###
0.00050000 0 0 0 0 0 0 0 0 0 0 0 0
0.00150000 0.00179520 5710.58779087 0 -6415.21922259 0 3508.03848338 0 23552.31066363 0 -23527.46882552 0 3
0.00250000 0.00253879 12591.55213584 0 -9010.78664223 0 16561.63756752 0 -5827.89522189 0 12573.00506214 0 6
0.00350000 0.00331552 22382.94576809 0 -8984.91066425 0 27754.17831338 0 8035.85128238 0 -13043.53870173 0 7
0.00450000 0.00420575 35251.13031842 0 -8786.13099672 0 34510.03421572 0 8995.51059789 0 256.33179927 0 24
0.00550000 0.00557378 54072.47590239 0 -2289.87792301 0 54165.43608393 0 20798.68845406 0 12617.06841300 0 45
0.00650000 0.00659388 57932.51536341 0 4819.10302204 0 36806.83637959 0 27884.12023583 0 -34679.31841573 0 40
0.00750000 0.00754703 61360.46421033 0 9064.64059988 0 66481.36746385 0 32862.04241205 0 6144.07224566 0 57
0.00850000 0.00846663 56599.37418672 0 9547.13429186 0 44290.74922977 0 36101.03592019 0 -16133.93080721 0 75
0.00950000 0.00948925 54094.84479734 0 5744.83805364 0 58103.82288055 0 36062.59289469 0 22988.36721646 0 112
0.01050000 0.01054430 48047.37470407 0 -1841.25231169 0 14100.04746394 0 33587.40160372 0 -26431.26612885 0 105
0.01150000 0.01145670 55976.97935574 0 -9240.43313666 0 20704.04217491 0 24318.36101095 0 -1323.46297642 0 144
0.01250000 0.01249090 59506.20646575 0 -11764.01542903 0 -5932.80421517 0 15308.30501101 0 -20815.88664968 0 169
0.01350000 0.01339930 66952.12591647 0 -9031.78417780 0 -7696.10261404 0 5006.97925836 0 -4648.43622199 0 180
0.01450000 0.01448870 73937.29109372 0 -5311.18498909 0 -13118.40143560 0 -9308.01192886 0 -8762.72796190 0 267
0.01550000 0.01550050 81384.33460951 0 394.93127091 0 -2775.80001346 0 82.50648877 0 -23017.81772137 0 238
0.01650000 0.01653350 79143.39847978 0 2400.74446117 0 -1862.76691719 0 -810.91515658 0 11977.02576038 0 315
0.01750000 0.01747870 74153.89843330 0 4310.48605777 0 8859.79098096 0 -6538.31558874 0 12239.04532892 0 297
0.01850000 0.01844180 76330.53804085 0 1965.77624049 0 23190.58652311 0 877.01917540 0 34097.50233390 0 388
0.01950000 0.01947590 79476.34655443 0 2268.37455816 0 17344.21167141 0 5394.47821101 0 25086.20986238 0 399
0.02050000 0.02045430 78736.82414284 0 -508.04818735 0 21624.31425025 0 3438.24528299 0 40771.07667289 0 462
0.02150000 0.02154770 78514.82129090 0 -405.95497708 0 16619.75173180 0 5033.45099083 0 37807.36670115 0 571
0.02250000 0.02255340 76678.54858749 0 1571.70150716 0 18305.73693494 0 7225.55773379 0 20316.35213119 0 510
0.02350000 0.02348930 78553.60153592 0 2704.72537889 0 6206.94120519 0 2569.00576197 0 15649.57116721 0 555
0.02450000 0.02439640 70460.89504214 0 6355.18290703 0 8212.05972324 0 -3914.70274553 0 -7361.71573609 0 592
0.02550000 0.02547300 65538.83890006 0 5221.09117348 0 105.17775723 0 -5349.30203572 0 -3888.69187974 0 837
0.02650000 0.02652900 58238.93550234 0 1036.07213511 0 6857.79736382 0 -4187.94048350 0 -23045.24490916 0 723
0.02750000 0.02749970 59035.56041964 0 825.72021766 0 -4241.29985252 0 -3070.73220734 0 -18246.94833162 0 826
0.02850000 0.02848090 57291.12383270 0 -766.27965659 0 9090.22432095 0 568.80390455 0 -26850.20518160 0 831
0.02950000 0.02946900 59755.18687944 0 1549.92836669 0 9056.63725656 0 -3099.82301143 0 -23155.29087981 0 996
0.03050000 0.03053250 57843.71422264 0 681.08114438 0 10296.76204846 0 -2691.57381754 0 -20935.82439298 0 1041
0.03150000 0.03150510 59264.08284900 0 -1286.40255096 0 13736.86203882 0 -3529.96899296 0 -22279.19456184 0 1036
0.03250000 0.03246190 59236.54325471 0 -578.64059800 0 12873.35524967 0 -3030.45695577 0 -12979.01736654 0 1059
0.03350000 0.03345080 64065.86402827 0 967.36702971 0 21035.75377798 0 -4985.75690978 0 -18463.33085819 0 1302
0.03450000 0.03451200 61914.17866534 0 1759.01571094 0 19888.08333834 0 -4005.42603758 0 -11014.82605781 0 1339
0.03550000 0.03553350 59885.24120840 0 4694.47792739 0 21687.14948784 0 -4168.35926992 0 -10929.03741143 0 1365
0.03650000 0.03647120 56657.37594449 0 4375.28840923 0 19686.65087724 0 2866.08492013 0 -6221.16062837 0 1308
0.03750000 0.03744890 52604.78413644 0 3364.03450687 0 22482.87515308 0 7505.98948822 0 -1505.13437353 0 1579
0.03850000 0.03847530 49782.03192488 0 2365.92092521 0 15164.08746214 0 9506.42065491 0 -755.27056327 0 1662
0.03950000 0.03950240 47090.00848131 0 714.43889949 0 13583.53956285 0 9051.57896373 0 4617.91785526 0 1683
0.04050000 0.04050350 46123.42492495 0 602.99684001 0 5586.65961656 0 5482.34637777 0 621.05382134 0 1822
0.04150000 0.04152450 44588.28925462 0 1432.64341697 0 8667.49716891 0 4799.45436456 0 11367.55767774 0 1887
0.04250000 0.04250150 43118.46176504 0 1829.64071948 0 1702.13801824 0 226.66434980 0 4142.55073584 0 1920
0.04350000 0.04349210 40695.87671949 0 2307.66063247 0 7813.52245157 0 1368.88644602 0 11248.85640602 0 2005
0.04450000 0.04448520 40002.21616289 0 1336.26607760 0 2006.38871158 0 1029.99206713 0 6091.79197911 0 2151
0.04550000 0.04548030 37303.33592237 0 604.63123062 0 3525.86615544 0 1219.48695715 0 5990.71604773 0 2274
0.04650000 0.04648670 37615.26398016 0 -335.87401604 0 4735.83228143 0 -2087.49000660 0 4712.36180270 0 2311
0.04750000 0.04749250 38245.63967315 0 -493.71860580 0 6933.30081478 0 -3450.81233051 0 -2376.43093364 0 2568
0.04850000 0.04851840 39302.48565488 0 159.58351843 0 6990.54944895 0 -6857.10044347 0 -2953.84068039 0 2493
0.04950000 0.04949480 38319.94037449 0 893.38668693 0 11043.01760984 0 -8476.12509021 0 -10210.37764759 0 2644
0.05050000 0.05050630 39422.76061770 0 874.37649841 0 14418.94472518 0 -6978.12852989 0 -5939.04277632 0 2829
0.05150000 0.05149060 38875.79055313 0 960.04936609 0 18045.51587052 0 -2999.65757277 0 -13709.65966405 0 2784
0.05250000 0.05249300 38132.67113331 0 611.47341472 0 17117.71255918 0 277.89811176 0 -8837.28719820 0 3055
0.05350000 0.05348950 37819.61901045 0 280.66893217 0 17494.72398470 0 2686.86398488 0 -15350.68226427 0 3009
0.05450000 0.05448610 37401.69161627 0 347.58340190 0 15418.80060770 0 2418.20119176 0 -10268.50305252 0 3336
0.05550000 0.05550870 36926.54930987 0 992.43480491 0 16668.64856248 0 1635.73949437 0 -9188.32147988 0 3349
0.05650000 0.05647670 35817.43430224 0 642.89215758 0 13241.26174809 0 57.67690297 0 -10523.76698997 0 3324
0.05750000 0.05747970 36204.67471993 0 921.14097765 0 14050.47619422 0 -288.67115142 0 -8401.89183278 0 3639
0.05850000 0.05849280 35517.30892773 0 -13.53801493 0 14384.21111442 0 836.36511390 0 -10176.01497831 0 3846
0.05950000 0.05951020 35337.00889000 0 -45.73652173 0 12109.21581297 0 -35.28957334 0 -10053.13218452 0 3787
0.06050000 0.06049470 35800.57332615 0 -129.86548603 0 13220.91617027 0 -798.03561897 0 -13046.46127092 0 3930
0.06150000 0.06148310 35448.51614525 0 -305.22975401 0 11687.57900406 0 109.48438775 0 -13935.14711772 0 4083
0.06250000 0.06249100 34759.01462941 0 696.82030353 0 11706.68811030 0 -559.20663696 0 -14613.29557632 0 4303
0.06350000 0.06350600 34730.91300259 0 880.16655760 0 11354.74333591 0 14.25359475 0 -14514.37784988 0 4470
0.06450000 0.06451750 33566.38158686 0 444.73859430 0 10136.09942756 0 1658.31072104 0 -12744.87461181 0 4479
0.06550000 0.06550280 34189.22604386 0 1113.92825427 0 10419.94833982 0 3041.14681462 0 -10119.08108235 0 4636
0.06650000 0.06648880 32232.90319064 0 945.61187429 0 9225.73036551 0 2717.98934675 0 -9104.61235388 0 4653
0.06750000 0.06749660 31596.68235926 0 1277.96082226 0 7489.00486497 0 2876.53872531 0 -5266.30107072 0 5220
0.06850000 0.06852730 30271.29723157 0 728.04907939 0 7821.08740951 0 2910.87891330 0 -3112.96333214 0 5029
0.06950000 0.06949320 29605.85070830 0 1006.64411150 0 5846.50973950 0 1336.53585322 0 -613.63723999 0 5040
0.07050000 0.07048030 28504.71656269 0 849.52117152 0 8299.00615664 0 155.75382872 0 -541.94099743 0 5475
0.07150000 0.07148790 28147.71349547 0 1024.85284162 0 6985.13145530 0 -1345.96675918 0 -741.33890075 0 5509
0.07250000 0.07249820 26924.61828944 0 747.82250809 0 9421.77855491 0 -1862.28356921 0 1126.53801626 0 5916
0.07350000 0.07351270 26939.68076142 0 228.97205539 0 9758.24495324 0 -1057.40239394 0 409.26422466 0 5721
0.07450000 0.07449140 27178.54458945 0 -790.43131875 0 9711.95595353 0 8.76795486 0 -956.96942779 0 6028
0.07550000 0.07549160 27780.93106212 0 -578.75412858 0 9329.20055549 0 2084.99458214 0 -795.56604801 0 6183
0.07650000 0.07648840 28238.65035989 0 -640.24273621 0 8030.36584482 0 1179.26790884 0 -1821.16526883 0 6330
0.07750000 0.07749960 28837.43982433 0 185.19084486 0 6534.54997075 0 1375.72076166 0 -1354.61081959 0 6583
0.07850000 0.07848650 27972.02212455 0 943.98760026 0 5831.95309681 0 1366.27861505 0 -3080.25303851 0 6549
0.07950000 0.07947320 27201.81273646 0 1222.30836049 0 5106.07683520 0 33.30795903 0 -1632.52466826 0 6828
0.08050000 0.08048110 25600.80685285 0 1660.94103331 0 6062.48760265 0 44.43710250 0 -1731.92574268 0 7147
0.08150000 0.08149960 24288.57328651 0 1284.32303057 0 5854.67045194 0 -299.78815500 0 -430.31571535 0 7386
0.08250000 0.08250610 23582.66042060 0 783.19571188 0 6831.30315005 0 219.59510455 0 -231.41689692 0 7227
0.08350000 0.08350160 22688.80387448 0 415.71523411 0 6975.28464526 0 886.81427845 0 -887.53030790 0 7798
0.08450000 0.08449610 22705.77725708 0 366.36315708 0 7369.52798835 0 -96.95038774 0 -852.90235926 0 7371
0.08550000 0.08548940 22702.74228138 0 30.07076402 0 6457.48406934 0 117.18828013 0 -1573.42132672 0 8256
0.08650000 0.08650700 22483.54959213 0 317.42248786 0 7185.77707085 0 -59.63592358 0 -148.29003664 0 8037
0.08750000 0.08749060 22322.47106715 0 126.42697097 0 6191.63143890 0 659.37769595 0 -1994.90076653 0 8155
0.08850000 0.08849210 22159.81885108 0 139.86179672 0 7169.37696143 0 304.87567352 0 -337.40948893 0 8718
0.08950000 0.08949900 22122.49989065 0 624.43276095 0 6392.13092599 0 -597.34391676 0 -1674.20500118 0 8571
0.09050000 0.09049190 21615.32172967 0 581.00225872 0 7669.46227180 0 -28.85508765 0 265.03206294 0 8932
0.09150000 0.09150830 20794.97903932 0 664.49781235 0 7506.51779881 0 -268.60771393 0 -540.81356016 0 9285
0.09250000 0.09250820 20904.01335141 0 166.35376236 0 7529.71850192 0 -183.97011019 0 -983.23770448 0 9204
0.09350000 0.09350330 19964.74457633 0 582.48377649 0 7471.63805959 0 577.81890644 0 -1889.22740901 0 9349
0.09450000 0.09448040 20107.16362109 0 549.49921098 0 7664.61755134 0 -413.90436528 0 -2298.57818668 0 9564
0.09550000 0.09549270 19083.02793299 0 440.06473173 0 6557.06499416 0 432.19290402 0 -2684.59337343 0 10155
0.09650000 0.09649430 19269.51032862 0 195.75143622 0 6742.89543205 0 128.92239543 0 -2027.77966992 0 9913
0.09750000 0.09749140 18782.45293244 0 12.07807921 0 5665.01819280 0 1188.72129610 0 -2258.75256114 0 10476
0.09850000 0.09850240 18749.74263882 0 209.07610360 0 5743.87135768 0 1126.84151383 0 -2235.22587916 0 10575
0.09950000 0.09950330 18546.39926709 0 304.86443287 0 5590.99850774 0 171.36709259 0 -558.36471222 0 10882
0.10050000 0.10051200 18083.28445697 0 529.68306781 0 5647.16803944 0 475.46491307 0 -1227.70387284 0 10875
0.10150000 0.10150300 17958.96285989 0 476.97902873 0 6148.61346855 0 239.06728381 0 284.48513309 0 11118
0.10250000 0.10250800 17306.33067845 0 419.12677161 0 5467.69980987 0 120.69761129 0 168.31975218 0 11575
0.10350000 0.10349800 17047.57089862 0 330.60664710 0 5473.69107671 0 625.86032360 0 60.05980851 0 11364
0.10450000 0.10450100 16737.32893845 0 246.34897736 0 5278.08127269 0 662.60151457 0 548.95179129 0 12093
0.10550000 0.10551000 16546.35028253 0 148.95098690 0 4665.87047128 0 998.34289093 0 -251.41289051 0 12067
0.10650000 0.10649700 16396.84962780 0 57.11520765 0 4152.27389873 0 794.21829398 0 836.41906902 0 12054
0.10750000 0.10749900 16260.95016047 0 204.91818689 0 3561.35288980 0 327.95385353 0 -574.35116569 0 12807
0.10850000 0.10850100 16069.97150455 0 261.55757779 0 4085.31334232 0 27.82881623 0 469.22747598 0 12736
0.10950000 0.10950300 15721.62373839 0 94.96045534 0 3462.18786905 0 88.73661944 0 -44.29974175 0 12933
0.11050000 0.11050200 15884.61317399 0 140.28444519 0 4420.59947233 0 -529.92923806 0 206.51435929 0 13428
0.11150000 0.11150900 15675.53707040 0 166.68311343 0 3764.47144851 0 -141.98290751 0 235.24883476 0 13453
0.11250000 0.11250000 15566.39035180 0 316.30516718 0 4406.34632720 0 144.28724091 0 -478.50775723 0 13668
0.11350000 0.11349100 15417.90135564 0 293.52936067 0 4338.87994151 0 -123.27846470 0 416.93147252 0 13791
0.11450000 0.11448600 15210.96097568 0 302.49265556 0 4449.35305690 0 385.17663421 0 423.92315728 0 14205
0.11550000 0.11549300 14988.17127820 0 78.04507450 0 4145.82176521 0 370.99318112 0 877.90943494 0 14776
0.11650000 0.11649800 14898.35847886 0 58.17508861 0 3801.10472924 0 474.08456117 0 717.69981226 0 14553
0.11750000 0.11747300 15032.45944208 0 10.26042102 0 3726.15207017 0 60.67658302 0 636.13877462 0 14568
0.11850000 0.11849100 14880.82306372 0 -113.57216279 0 3677.56997771 0 340.42085926 0 675.34391624 0 16015
0.11950000 0.11950300 15064.27048365 0 58.50230395 0 3331.84128317 0 -156.33721850 0 406.29332067 0 15270
0.12050000 0.12050700 14972.09714765 0 186.38909823 0 3334.88749952 0 -11.10778624 0 418.45120850 0 15999
0.12150000 0.12150000 14726.82614870 0 334.63642039 0 3537.70256066 0 89.22131630 0 -192.18140555 0 15670
0.12250000 0.12250700 14469.07802744 0 344.80471304 0 3417.59620760 0 478.30879771 0 602.75516602 0 16887
0.12350000 0.12352200 13998.76920085 0 214.23668635 0 3345.67852422 0 234.41702660 0 -13.49799821 0 16407
0.12450000 0.12449800 14003.93990019 0 236.51115984 0 3539.81580300 0 -48.44540615 0 821.13178403 0 16306
0.12550000 0.12549900 13713.25667229 0 122.96035428 0 3494.04387322 0 132.69138562 0 268.73360922 0 17523
0.12650000 0.12650100 13658.17748371 0 308.50303151 0 3740.75367547 0 -77.81868779 0 858.10453241 0 17154
0.12750000 0.12750600 13348.04793004 0 179.17147639 0 3378.31013329 0 250.36975812 0 556.99560096 0 18007
0.12850000 0.12850300 13104.91265473 0 176.17696704 0 3298.24297814 0 548.68876007 0 541.48013075 0 17496
0.12950000 0.12949900 12928.43443825 0 187.80766835 0 2992.87946038 0 199.27650429 0 -37.65471866 0 18405
0.13050000 0.13049000 12729.36251380 0 125.37597012 0 3129.77934563 0 415.46344354 0 172.08537017 0 18100
0.13150000 0.13148800 12790.39924727 0 305.77492557 0 2789.72717972 0 -95.82812117 0 868.77640622 0 19059
0.13250000 0.13249300 12530.06577634 0 158.47294214 0 3098.41793009 0 162.26778582 0 882.24495392 0 18957
0.13350000 0.13349100 12504.88671871 0 14.10353207 0 2669.59834536 0 139.56953980 0 1382.33026429 0 19468
0.13450000 0.13450700 12491.84756386 0 171.49411194 0 3080.15187266 0 177.78550416 0 1292.85468448 0 19953
0.13550000 0.13551000 12529.84096333 0 142.64273371 0 3007.07640225 0 177.93275668 0 1282.95167118 0 19956
0.13650000 0.13649900 12076.73033236 0 241.26707916 0 3348.81466578 0 -386.01518675 0 1132.93394653 0 19723
0.13750000 0.13749600 12113.71207327 0 460.09219914 0 3530.10388077 0 -535.70018815 0 749.48387627 0 20946
0.13850000 0.13851100 11675.77632079 0 305.05889612 0 3876.99036232 0 -379.10443468 0 1190.69965063 0 20955
0.13950000 0.13949800 11402.51610152 0 249.97408722 0 3868.25637671 0 -279.12109456 0 423.77140849 0 20506
0.14050000 0.14048300 11394.98486553 0 91.34332634 0 3768.41691691 0 -76.70316561 0 271.83940102 0 21447
0.14150000 0.14148400 11385.76753193 0 -76.31682445 0 3611.84589288 0 153.55515744 0 -417.27543644 0 21771
0.14250000 0.14249400 11447.47870444 0 54.78659444 0 3637.38465134 0 140.85771838 0 -419.81020318 0 22470
0.14350000 0.14350900 11418.02819953 0 -18.90149142 0 3307.13433287 0 292.80995902 0 -690.64019376 0 22519
0.14450000 0.14449900 11501.88345398 0 50.21243644 0 3041.48403414 0 173.65231688 0 -541.11480960 0 22218
0.14550000 0.14550500 11358.34034414 0 156.66432143 0 2979.53680796 0 423.38135791 0 -596.73354942 0 23559
0.14650000 0.14650700 11142.38496230 0 196.17633282 0 2854.87799136 0 37.81815773 0 -816.86708114 0 23044
0.14750000 0.14750500 11040.31985366 0 161.34155620 0 2646.58873331 0 268.08727180 0 -616.78462220 0 23649
0.14850000 0.14849900 10874.22799846 0 141.15447155 0 2707.69291068 0 117.67949657 0 -838.13776452 0 23640
0.14950000 0.14949500 10731.31436507 0 140.91054943 0 2310.43707320 0 275.67471105 0 -837.45545702 0 24457
0.15050000 0.15050000 10539.73995466 0 189.12057635 0 2236.77708896 0 226.15290019 0 -976.05717679 0 24591
0.15150000 0.15149900 10195.56246993 0 422.17073983 0 2200.61591556 0 -147.78982768 0 -1435.68963331 0 25020
0.15250000 0.15250500 9847.23718508 0 489.89228829 0 2104.74440547 0 -170.88149648 0 -1113.72817069 0 25297
0.15350000 0.15350100 9501.31739948 0 400.80001466 0 2566.66770661 0 -264.78252049 0 -881.30635959 0 25452
0.15450000 0.15450400 9363.76555649 0 111.01929860 0 2736.19920094 0 235.40170761 0 -319.23110856 0 26061
0.15550000 0.15549900 9270.42319282 0 -26.51860599 0 2930.38144232 0 360.44720260 0 -3.22590939 0 26128
0.15650000 0.15649500 9417.72067999 0 -8.67718661 0 3047.95864896 0 381.81905184 0 108.91021531 0 26331
0.15750000 0.15749700 9410.14448140 0 15.90237340 0 3061.02028511 0 177.26056577 0 356.90077729 0 27345
0.15850000 0.15849900 9414.80935145 0 104.54052474 0 3311.54066795 0 74.93343756 0 889.94704780 0 26980
0.15950000 0.15949700 9347.37668772 0 10.37525551 0 3047.63267009 0 5.12387079 0 918.25775074 0 27777
0.16050000 0.16050000 9227.67499809 0 75.82122416 0 2869.19858039 0 178.62855296 0 1019.10662096 0 28224
0.16150000 0.16150500 9237.33071706 0 93.74376731 0 2795.77464981 0 197.92312994 0 591.88433270 0 28075
0.16250000 0.16249700 9115.09988101 0 122.64449200 0 2484.79080669 0 258.66086210 0 407.87150803 0 28590
0.16350000 0.16349900 8978.48101203 0 146.92429757 0 2426.40686679 0 179.97518292 0 557.62170520 0 29163
0.16450000 0.16449100 8894.56955432 0 78.36374695 0 2032.11856110 0 173.53091785 0 84.07950544 0 28996
0.16550000 0.16550500 8834.92666154 0 58.76971903 0 2355.11865986 0 -36.50502491 0 318.60500432 0 30777
0.16650000 0.16650700 8776.41907449 0 66.99405354 0 2265.99154021 0 -31.23833041 0 102.77371926 0 29211
0.16750000 0.16749900 8884.09326784 0 18.83438474 0 2571.41126122 0 -185.34371771 0 829.99278900 0 30922
0.16850000 0.16850800 8828.63189714 0 39.04990823 0 2524.47030377 0 96.10441637 0 904.38004334 0 30867
0.16950000 0.16949900 8909.33976938 0 60.60295676 0 2722.57553225 0 53.58530610 0 864.96919781 0 30852
0.17050000 0.17049200 8806.81379407 0 58.10809433 0 2366.19070083 0 369.50379489 0 701.62230952 0 31257
0.17150000 0.17149500 8725.93731206 0 71.98962354 0 2448.65211459 0 183.40807765 0 559.52137518 0 32608
0.17250000 0.17250900 8632.44881993 0 114.74343860 0 1890.03673586 0 218.38785866 0 327.14003042 0 32361
0.17350000 0.17350400 8511.24088309 0 145.69007412 0 2134.54337056 0 31.83520897 0 -315.53293447 0 32508
0.17450000 0.17449800 8396.42887653 0 211.05558219 0 1821.76102332 0 -361.58475645 0 -362.99320999 0 32791
0.17550000 0.17549800 8326.66939809 0 174.40768861 0 2136.43179988 0 -436.24740674 0 -202.91060667 0 33633
0.17650000 0.17650100 8136.19657146 0 146.58145773 0 2458.61133114 0 -462.91697466 0 -267.64888643 0 33984
0.17750000 0.17750300 8204.05637992 0 93.54278447 0 2737.76165139 0 -144.94594305 0 -87.03826952 0 34069
0.17850000 0.17849800 8207.06887431 0 101.06558997 0 3156.09370899 0 -172.11909212 0 69.16147582 0 34536
