### header ###
fiducial parameters:
Omega_m = 0.31
Omega_nu = 0
Omega_de = 0.69
Omega_k = 0
H_0 = 100
w_de = -1
zeff = 0
beta = 0
fgrowth = 0
b_1 = 2
gamma = 0.55
Lx = 3500 Ly = 3500 Lz = 3500
nx = 700 ny = 700 nz = 700
xoffset = 857.220397 yoffset = 15.9954215 zoffset = 262.898189
bins = 400 dk = 0.001
kx_ny = 0.628318531 ky_ny = 0.628318531 kz_ny = 0.628318531
############################
A(data) = 3.08115323 (not used)
A(ran) = 3.08386332 (used)
Ngal = 188142
weighted Ngal = 0
Nran = 9360983
weighted Nran = 0
SN(data) = 3433.31749
SN(ran) = 69.2519804
SN(data+ran) = 3502.56947
############################
13 columns: k_central k_mean P_0(k) sigma^{lin}_{P_0(k)} P^img_1(k) sigma^{lin}_{P_1(k)} P_2(k) sigma^{lin}_{P_2(k)} P^img_3(k) sigma^{lin}_{P_3(k)} P_4(k) sigma^{lin}_{P_4(k)} N_modes
### header ###
0.00050000 0 0 0 0 0 0 0 0 0 0 0 0
0.00150000 0.00179520 8392.34852031 0 -16182.15319884 0 -5304.44059865 0 30214.08231935 0 3989.45307289 0 3
0.00250000 0.00253879 17618.37114274 0 -19120.12208040 0 -7353.37517325 0 -18193.89246017 0 -3473.79946125 0 6
0.00350000 0.00331552 26541.08728649 0 -21194.24695328 0 -27124.92668546 0 14135.11829422 0 18855.29234918 0 7
0.00450000 0.00420575 34094.57976471 0 -18378.68875819 0 -25487.61349999 0 -9598.90872913 0 -15365.63232974 0 24
0.00550000 0.00557378 51314.69465205 0 -20223.39194965 0 -42869.59375785 0 -7539.46414610 0 -9263.94857799 0 45
0.00650000 0.00659388 52860.39653407 0 -14477.84573501 0 -8754.97191289 0 -50999.05717952 0 -41679.09643893 0 40
0.00750000 0.00754703 72405.64002511 0 -9502.59883366 0 -43767.94656427 0 -31102.43094662 0 -2323.65607846 0 57
0.00850000 0.00846663 75051.35198767 0 -3311.45074275 0 -10482.58124569 0 -44793.31872396 0 -20308.14645616 0 75
0.00950000 0.00948925 80545.33243895 0 7403.16001534 0 -17096.24291629 0 -38432.90891433 0 981.37962492 0 112
0.01050000 0.01054430 72458.58349006 0 9113.88589074 0 26261.08267679 0 -23258.03042749 0 -6443.98404781 0 105
0.01150000 0.01145670 70802.16119834 0 12773.53827118 0 30728.90412283 0 -17929.73716799 0 -9984.30568009 0 144
0.01250000 0.01249090 65834.01838825 0 9983.30526217 0 50327.20348533 0 -1868.24111409 0 -9765.41648841 0 169
0.01350000 0.01339930 60882.62414776 0 9689.19363580 0 62055.69845805 0 -2725.99269007 0 -12194.75716504 0 180
0.01450000 0.01448870 61782.32583227 0 2469.53724365 0 74262.59552587 0 -2157.21576309 0 516.79341362 0 267
0.01550000 0.01550050 68463.20659423 0 620.58508621 0 77914.79535488 0 2714.41481982 0 -25567.98415271 0 238
0.01650000 0.01653350 70091.41485262 0 -2194.32115115 0 83072.68034930 0 17404.68637234 0 9375.39962999 0 315
0.01750000 0.01747870 72102.92930093 0 -3749.19540416 0 74707.72529482 0 17034.64415028 0 -11668.35749131 0 297
0.01850000 0.01844180 80587.26006617 0 -4016.68916961 0 79297.84502082 0 24774.16939809 0 13753.38579540 0 388
0.01950000 0.01947590 82156.90453425 0 966.66673717 0 66916.60546016 0 27161.00917431 0 1245.64395141 0 399
0.02050000 0.02045430 82177.13770556 0 1569.91424369 0 59895.80742009 0 14572.15479464 0 10526.30737704 0 462
0.02150000 0.02154770 84007.45286409 0 1665.24620254 0 59756.19853801 0 14441.76324616 0 30885.26157450 0 571
0.02250000 0.02255340 78442.31909369 0 3258.37239000 0 61010.20553356 0 14268.76963141 0 32265.38867125 0 510
0.02350000 0.02348930 82445.33963201 0 1336.95175729 0 59174.94448871 0 20765.07890837 0 42963.45319146 0 555
0.02450000 0.02439640 77031.95464647 0 2535.38497563 0 56715.49010877 0 14285.18098148 0 25225.03189891 0 592
0.02550000 0.02547300 78636.55753832 0 5591.80783459 0 53493.24517022 0 14509.76918309 0 41921.10764917 0 837
0.02650000 0.02652900 71000.89590326 0 5533.68242966 0 46360.37784236 0 13437.29869684 0 23714.06362765 0 723
0.02750000 0.02749970 66658.18289985 0 3213.63460009 0 42009.45916392 0 7441.64800344 0 36945.43360310 0 826
0.02850000 0.02848090 65388.32658677 0 2271.07231434 0 38061.18059466 0 6136.03518038 0 14278.66140406 0 831
0.02950000 0.02946900 63501.80817459 0 321.65234473 0 29610.90900113 0 8636.72026720 0 7237.16932599 0 996
0.03050000 0.03053250 61436.78822880 0 274.47533361 0 24643.77784961 0 4071.79083949 0 -408.71792903 0 1041
0.03150000 0.03150510 62055.47364503 0 758.20324904 0 16808.70707059 0 1626.39851362 0 -10638.60147784 0 1036
0.03250000 0.03246190 60119.94599566 0 2629.75023852 0 16594.90989368 0 -3540.07433796 0 -3821.20301275 0 1059
0.03350000 0.03345080 56542.38408751 0 3824.06937868 0 18244.47538846 0 -441.11011225 0 -16478.34434560 0 1302
0.03450000 0.03451200 52000.26194013 0 3386.43712377 0 13217.43156854 0 1755.27257425 0 -8782.69135760 0 1339
0.03550000 0.03553350 50237.72790551 0 1219.29586609 0 17280.58958827 0 3616.26346862 0 -7776.60815457 0 1365
0.03650000 0.03647120 49507.76004704 0 1534.44999064 0 17268.00005946 0 2908.22611972 0 993.94105211 0 1308
0.03750000 0.03744890 51069.08643358 0 -83.83625775 0 19892.80441165 0 4560.10718855 0 3152.33933165 0 1579
0.03850000 0.03847530 49338.02622100 0 2244.35328755 0 21466.60792050 0 -420.22498319 0 13345.35017386 0 1662
0.03950000 0.03950240 46723.56326748 0 2797.35958157 0 22054.15673420 0 1579.73857243 0 15373.38837875 0 1683
0.04050000 0.04050350 46089.47815975 0 3029.25420615 0 29287.74029261 0 924.04331367 0 19065.71733086 0 1822
0.04150000 0.04152450 43675.43600876 0 1675.46395406 0 27928.07118019 0 1926.90607026 0 19063.69401373 0 1887
0.04250000 0.04250150 44539.84204997 0 -259.37239529 0 29019.31355316 0 5369.19798751 0 18479.96702127 0 1920
0.04350000 0.04349210 45071.97445558 0 -1969.22712026 0 27814.76542082 0 6281.75897646 0 20986.40732127 0 2005
0.04450000 0.04448520 46079.02435457 0 -887.63484595 0 21452.78192010 0 7521.77136185 0 18721.52860548 0 2151
0.04550000 0.04548030 46670.84461555 0 88.42536582 0 19319.41881786 0 9167.14409390 0 16495.99216725 0 2274
0.04650000 0.04648670 43604.84472217 0 2275.52361203 0 14800.34000448 0 4858.61390936 0 14261.12598892 0 2311
0.04750000 0.04749250 42225.50447097 0 2007.93992138 0 12605.04091672 0 4919.21225745 0 14415.12290393 0 2568
0.04850000 0.04851840 40611.00980648 0 1236.17932349 0 13884.67659593 0 1286.39131031 0 13143.24327372 0 2493
0.04950000 0.04949480 39584.73839474 0 -61.27953153 0 8082.78099918 0 -406.08536863 0 7555.67316445 0 2644
0.05050000 0.05050630 39788.86861201 0 391.15216414 0 13292.40670892 0 -2918.70240621 0 7900.99719556 0 2829
0.05150000 0.05149060 40483.87804671 0 380.52412887 0 9130.66818228 0 -3890.71519687 0 1287.05450870 0 2784
0.05250000 0.05249300 38435.15704448 0 1752.05774814 0 12540.96920755 0 -4044.97064685 0 1781.87919453 0 3055
0.05350000 0.05348950 38714.37480864 0 1970.82329266 0 11929.47780779 0 -2234.11305474 0 -1194.18425236 0 3009
0.05450000 0.05448610 36766.59484997 0 530.77228687 0 14543.15391576 0 -1366.07628334 0 -1023.34771848 0 3336
0.05550000 0.05550870 38250.81037249 0 154.24645746 0 14219.87280073 0 1089.12238624 0 -4462.97672558 0 3349
0.05650000 0.05647670 38610.84841540 0 -836.70907781 0 15053.47945894 0 93.83537861 0 -1923.81489131 0 3324
0.05750000 0.05747970 38931.20696124 0 -144.81217930 0 12561.20237887 0 2131.20489729 0 -1479.33708010 0 3639
0.05850000 0.05849280 37539.95162026 0 1774.85378782 0 15022.00563690 0 1607.08707566 0 -357.90231927 0 3846
0.05950000 0.05951020 36006.38964103 0 2318.81135799 0 12774.43752323 0 3674.22026379 0 -541.30702473 0 3787
0.06050000 0.06049470 34194.17193018 0 2317.41751730 0 14265.62224921 0 3725.30902136 0 -674.62001834 0 3930
0.06150000 0.06148310 31684.58424798 0 2204.99976934 0 10793.68873597 0 1733.61184029 0 -731.22119103 0 4083
0.06250000 0.06249100 29513.67737230 0 607.74376681 0 12457.11395310 0 995.34276125 0 -617.31405684 0 4303
0.06350000 0.06350600 29278.52295901 0 456.95718165 0 10440.76602497 0 -664.91821269 0 -768.25801112 0 4470
0.06450000 0.06451750 29997.25016675 0 -417.43280555 0 12395.96481312 0 -1862.10371879 0 -1876.62663954 0 4479
0.06550000 0.06550280 30294.90259811 0 -516.92043297 0 11597.31657869 0 -680.80912063 0 -3814.29001255 0 4636
0.06650000 0.06648880 31473.26001424 0 -855.23591835 0 14196.82946673 0 -1040.64033557 0 -2876.97711069 0 4653
0.06750000 0.06749660 31698.07302886 0 -317.99463698 0 13132.56465552 0 -756.35978232 0 -5895.37284823 0 5220
0.06850000 0.06852730 32441.75448122 0 67.73514965 0 15192.18908896 0 213.14746729 0 -2911.76692471 0 5029
0.06950000 0.06949320 31597.46920482 0 851.85810280 0 13711.45816817 0 1877.10998752 0 -4065.21505882 0 5040
0.07050000 0.07048030 30667.75498286 0 1040.15024320 0 14563.61190009 0 2175.84152135 0 134.81586861 0 5475
0.07150000 0.07148790 30439.79458603 0 1064.31876633 0 13648.51052408 0 3895.44751082 0 -970.11424475 0 5509
0.07250000 0.07249820 28335.43236268 0 857.84824558 0 11165.66434996 0 3133.32015061 0 318.72752741 0 5916
0.07350000 0.07351270 28169.52035789 0 814.24800952 0 11154.68223420 0 1629.93931860 0 1811.18357098 0 5721
0.07450000 0.07449140 26876.39589780 0 593.57605063 0 8186.08257940 0 48.01578848 0 723.10544120 0 6028
0.07550000 0.07549160 26955.75489196 0 541.12717432 0 9795.28289740 0 -436.95893993 0 2055.12817315 0 6183
0.07650000 0.07648840 26526.58684705 0 -118.78782473 0 8325.21935415 0 -260.63696850 0 135.12498650 0 6330
0.07750000 0.07749960 27037.24960976 0 -386.04216431 0 9686.14741945 0 177.49886756 0 1343.69614773 0 6583
0.07850000 0.07848650 27471.25113448 0 -148.89141145 0 8531.82251458 0 127.77472499 0 -575.05033416 0 6549
0.07950000 0.07947320 27184.95176037 0 189.18689619 0 9053.04024833 0 733.00171010 0 574.93118326 0 6828
0.08050000 0.08048110 26987.67834004 0 521.78763474 0 8798.77672879 0 771.83366212 0 448.27602709 0 7147
0.08150000 0.08149960 26340.32926444 0 767.69373045 0 8350.44337439 0 793.50788486 0 1235.12270232 0 7386
0.08250000 0.08250610 25846.97710386 0 720.13453721 0 7546.23101784 0 2001.11684638 0 1270.69936188 0 7227
0.08350000 0.08350160 24945.36450872 0 786.83543458 0 7528.03240431 0 1338.35683863 0 2505.18134711 0 7798
0.08450000 0.08449610 24236.52907363 0 512.47812780 0 6358.09423557 0 1103.64193479 0 2232.34827257 0 7371
0.08550000 0.08548940 23756.32847440 0 473.01220309 0 5877.53393552 0 1408.80199677 0 2872.98667968 0 8256
0.08650000 0.08650700 23205.76140159 0 509.56679926 0 5823.54509006 0 -170.23066280 0 2379.46590934 0 8037
0.08750000 0.08749060 22716.79309480 0 597.95878035 0 4810.43648033 0 -1287.45917212 0 326.51055398 0 8155
0.08850000 0.08849210 22122.72470366 0 820.15384742 0 6574.82522232 0 -1252.62439551 0 1462.84704548 0 8718
0.08950000 0.08949900 21337.22803058 0 439.31835252 0 5973.86631229 0 -1483.81085909 0 -1592.57539557 0 8571
0.09050000 0.09049190 21140.06701676 0 126.17068413 0 5652.99069652 0 -36.51963775 0 -1577.63657075 0 8932
0.09150000 0.09150830 20716.51929722 0 97.26265302 0 5888.49356998 0 400.95063938 0 -3782.58013684 0 9285
0.09250000 0.09250820 20634.23773387 0 356.65797924 0 4308.27164957 0 85.35082303 0 -4570.12260835 0 9204
0.09350000 0.09350330 19893.25403768 0 533.22724499 0 4905.35253510 0 354.21875803 0 -4531.63462025 0 9349
0.09450000 0.09448040 19776.57608309 0 610.17624363 0 4397.44373182 0 -440.83696443 0 -4831.34409069 0 9564
0.09550000 0.09549270 19203.86492835 0 510.80214678 0 5079.62758403 0 129.30682568 0 -3669.57787504 0 10155
0.09650000 0.09649430 19087.97381931 0 617.05889407 0 5554.67996523 0 -394.97286132 0 -4389.89001453 0 9913
0.09750000 0.09749140 18722.87748357 0 458.61405356 0 6467.15102897 0 -195.08374157 0 -3791.88739564 0 10476
0.09850000 0.09850240 18261.89839709 0 422.22806715 0 6530.06495111 0 -164.23714783 0 -2732.02891952 0 10575
0.09950000 0.09950330 18386.66962020 0 309.80020260 0 6906.43565953 0 263.57527460 0 -2567.93790015 0 10882
0.10050000 0.10051200 18047.65159416 0 68.16510454 0 6716.86208495 0 274.06280173 0 -2505.84454551 0 10875
0.10150000 0.10150300 18036.07372390 0 97.54591742 0 6537.41633668 0 812.97219566 0 -1805.32719195 0 11118
0.10250000 0.10250800 17659.96155045 0 274.72487606 0 6220.54239258 0 903.90906008 0 -262.14096757 0 11575
0.10350000 0.10349800 17488.99125283 0 293.69010197 0 6304.10539011 0 1140.48766382 0 -542.00282101 0 11364
0.10450000 0.10450100 17316.67207712 0 394.10171089 0 6561.43760730 0 517.71065072 0 823.08990539 0 12093
0.10550000 0.10551000 17068.14128946 0 341.90687328 0 7124.98763170 0 -83.18486204 0 1135.51929619 0 12067
0.10650000 0.10649700 16943.48247285 0 283.28575566 0 7321.58661298 0 -858.56090283 0 2278.14268365 0 12054
0.10750000 0.10749900 16718.33223871 0 519.92168672 0 8648.44426592 0 -1108.32478988 0 1253.55736952 0 12807
0.10850000 0.10850100 16398.42331891 0 530.89143776 0 8660.08958007 0 -1216.93532944 0 1433.78996334 0 12736
0.10950000 0.10950300 16066.03727679 0 352.12574886 0 9112.26723703 0 -285.69350304 0 -652.62768518 0 12933
0.11050000 0.11050200 15809.97525314 0 208.55790960 0 7764.40080788 0 326.26325966 0 -1484.15931927 0 13428
0.11150000 0.11150900 15641.70271170 0 -52.00779318 0 7664.74119850 0 1297.04744720 0 -2177.96600434 0 13453
0.11250000 0.11250000 15476.46514595 0 105.43876514 0 6533.92049431 0 1093.08246749 0 -2980.90816735 0 13668
0.11350000 0.11349100 15363.38419960 0 272.43965177 0 5744.39966826 0 1132.94518718 0 -2032.57942778 0 13791
0.11450000 0.11448600 14789.66138629 0 248.93769922 0 4985.68946587 0 1131.14668306 0 -2067.60529546 0 14205
0.11550000 0.11549300 14729.41149837 0 301.43715846 0 4748.84895497 0 1123.71548886 0 -677.42568476 0 14776
0.11650000 0.11649800 14364.53997564 0 20.10041923 0 4485.91889372 0 735.91416271 0 -644.29948705 0 14553
0.11750000 0.11747300 14481.55514975 0 4.07855771 0 4171.06826675 0 625.36011464 0 -379.37308624 0 14568
0.11850000 0.11849100 14384.88555346 0 -22.33011471 0 3709.65079489 0 46.14792954 0 -584.33735980 0 16015
0.11950000 0.11950300 14381.85057777 0 159.36882200 0 4089.91076847 0 -506.50147381 0 -922.88215445 0 15270
0.12050000 0.12050700 14237.52062238 0 223.76426191 0 3946.86224727 0 -229.83533737 0 -1212.06812767 0 15999
0.12150000 0.12150000 14154.56461999 0 397.10858496 0 4189.95255998 0 -485.28699368 0 -1889.91308870 0 15670
0.12250000 0.12250700 13804.86797574 0 322.55272086 0 4085.12225126 0 -386.89420564 0 -1400.95602256 0 16887
0.12350000 0.12352200 13683.80616737 0 234.48784270 0 4631.40663614 0 149.56247830 0 -1413.54555137 0 16407
0.12450000 0.12449800 13731.80374599 0 -7.35338641 0 4580.12678750 0 486.98433194 0 -415.16781442 0 16306
0.12550000 0.12549900 13734.27668915 0 72.07089345 0 5084.47230450 0 420.89042971 0 -940.67160829 0 17523
0.12650000 0.12650100 13678.29824851 0 170.56900639 0 5079.58262143 0 522.32268971 0 542.99986673 0 17154
0.12750000 0.12750600 13628.95179180 0 263.85516680 0 5288.81609414 0 336.26631475 0 873.61101010 0 18007
0.12850000 0.12850300 13383.45597984 0 284.85719863 0 4782.34609415 0 499.63456028 0 1235.47116249 0 17496
0.12950000 0.12949900 13155.83280254 0 154.31277730 0 4826.75790519 0 707.76532515 0 1296.01330733 0 18405
0.13050000 0.13049000 12963.95489456 0 143.85335179 0 4632.50821991 0 419.64046935 0 1316.70734533 0 18100
0.13150000 0.13148800 12971.37372404 0 -14.62285013 0 3920.17694243 0 556.19301849 0 1152.31282839 0 19059
0.13250000 0.13249300 12708.90452947 0 -26.31964647 0 3760.02015082 0 276.58857595 0 425.12478284 0 18957
0.13350000 0.13349100 12937.42695883 0 76.79151713 0 3324.52361955 0 -43.86236803 0 159.75100412 0 19468
0.13450000 0.13450700 12791.52331235 0 8.38586266 0 3757.33363529 0 -405.79985610 0 -307.62401262 0 19953
0.13550000 0.13551000 12836.93554130 0 65.80097088 0 3436.41305692 0 -362.03550655 0 -215.11907743 0 19956
0.13650000 0.13649900 12880.99889216 0 108.46778329 0 3859.88209191 0 -369.83202190 0 -280.46322826 0 19723
0.13750000 0.13749600 12849.52507012 0 201.84948924 0 3736.01012086 0 -378.31534100 0 -667.30909910 0 20946
0.13850000 0.13851100 12765.22018964 0 198.24461255 0 3862.89458631 0 452.85209600 0 -144.38615864 0 20955
0.13950000 0.13949800 12522.19732083 0 317.72036511 0 3915.56827563 0 287.25707756 0 -9.60890167 0 20506
0.14050000 0.14048300 12180.70635162 0 306.32122120 0 3317.31836243 0 697.40931363 0 -269.66321104 0 21447
0.14150000 0.14148400 11795.48925107 0 180.12693170 0 3824.09185998 0 257.07031002 0 -384.30773191 0 21771
0.14250000 0.14249400 11762.66655094 0 177.00203080 0 3361.01077182 0 111.32639318 0 6.45103194 0 22470
0.14350000 0.14350900 11574.83527722 0 71.24391877 0 3714.52923731 0 23.20576140 0 -108.11617574 0 22519
0.14450000 0.14449900 11588.09924509 0 96.27516185 0 3510.81492411 0 -297.34218940 0 54.77355529 0 22218
0.14550000 0.14550500 11607.65797736 0 101.29995754 0 4066.04686697 0 -132.83414188 0 206.13330124 0 23559
0.14650000 0.14650700 11414.43119129 0 148.33837144 0 4061.42695952 0 -164.46420898 0 -124.20581838 0 23044
0.14750000 0.14750500 11390.48860524 0 277.17983418 0 4264.01720764 0 106.45952863 0 422.40566943 0 23649
0.14850000 0.14849900 11200.24059161 0 162.73314876 0 4044.67838993 0 203.09832554 0 -341.91474174 0 23640
0.14950000 0.14949500 10942.36882319 0 208.58151496 0 4070.45320206 0 111.54558587 0 -126.70911130 0 24457
0.15050000 0.15050000 10834.09887535 0 142.13353223 0 3338.96785574 0 395.40787450 0 -813.29929860 0 24591
0.15150000 0.15149900 10668.80510635 0 173.19707053 0 3552.67510743 0 -176.22979810 0 -548.90008430 0 25020
0.15250000 0.15250500 10664.43249322 0 196.42137900 0 3430.24193967 0 -194.67120968 0 -535.78898929 0 25297
0.15350000 0.15350100 10400.06362868 0 267.64439017 0 3624.09820218 0 -55.00803526 0 -380.66126481 0 25452
0.15450000 0.15450400 10295.68294599 0 255.41456217 0 3828.13849425 0 24.20258231 0 -58.55097597 0 26061
0.15550000 0.15549900 10179.20732311 0 156.75649477 0 3912.64570644 0 202.28225429 0 -214.79984295 0 26128
0.15650000 0.15649500 10136.26803732 0 49.23629833 0 3920.94130668 0 502.14347352 0 331.92405137 0 26331
0.15750000 0.15749700 9843.46032643 0 65.31919658 0 3559.84664260 0 612.92345867 0 347.39455897 0 27345
0.15850000 0.15849900 9798.18298529 0 33.12574808 0 3476.17123856 0 918.00820829 0 565.47779600 0 26980
0.15950000 0.15949700 9688.47423415 0 78.66657008 0 2762.69341471 0 720.96409724 0 394.30629073 0 27777
0.16050000 0.16050000 9549.37118136 0 133.16012075 0 2468.90776721 0 515.71206302 0 341.51457457 0 28224
0.16150000 0.16150500 9361.89960846 0 144.63345296 0 1907.54966970 0 95.02711240 0 34.98911075 0 28075
0.16250000 0.16249700 9275.41404174 0 119.50835044 0 1927.81656297 0 -93.91350113 0 -15.17645218 0 28590
0.16350000 0.16349900 9205.65456330 0 132.28784626 0 1963.96649572 0 -317.56187193 0 105.69673808 0 29163
0.16450000 0.16449100 9207.43058612 0 88.07814212 0 1847.52459480 0 -226.71942898 0 -271.79893468 0 28996
0.16550000 0.16550500 9170.69613953 0 66.09941015 0 2088.32181476 0 -37.10032977 0 -188.93285749 0 30777
0.16650000 0.16650700 9131.53371238 0 36.47411312 0 2011.26715399 0 134.08635037 0 -457.28316052 0 29211
0.16750000 0.16749900 9086.22264929 0 124.39241318 0 1738.54648596 0 177.41231455 0 -411.85856685 0 30922
0.16850000 0.16850800 9029.06394032 0 162.50833575 0 2105.73358274 0 -54.25536129 0 -541.79149678 0 30867
0.16950000 0.16949900 8839.82758526 0 222.31983829 0 1911.40521290 0 -184.01170060 0 -324.36808595 0 30852
0.17050000 0.17049200 8691.90062164 0 154.86019699 0 2282.44785288 0 -30.91853390 0 -182.14687664 0 31257
0.17150000 0.17149500 8611.46252501 0 135.76682766 0 2201.44772371 0 -143.89494220 0 -345.38810282 0 32608
0.17250000 0.17250900 8600.49164990 0 57.74603297 0 2516.37703524 0 189.98048613 0 151.92975935 0 32361
0.17350000 0.17350400 8455.11631399 0 89.31652461 0 2430.02635633 0 75.51559086 0 -298.50110049 0 32508
0.17450000 0.17449800 8486.48897019 0 76.77960204 0 2300.64646641 0 99.03946268 0 8.46459218 0 32791
0.17550000 0.17549800 8345.08158399 0 137.58781308 0 2308.86338210 0 214.39967578 0 -458.54211340 0 33633
0.17650000 0.17650100 8217.29786648 0 181.82651809 0 2109.91510481 0 291.82302989 0 -245.70826026 0 33984
0.17750000 0.17750300 8019.55233882 0 162.59826095 0 2003.75839931 0 81.05947980 0 -376.34485493 0 34069
