### header ###
fiducial parameters:
Omega_m = 0.31
Omega_nu = 0
Omega_de = 0.69
Omega_k = 0
H_0 = 100
w_de = -1
zeff = 0
beta = 0
fgrowth = 0
b_1 = 2
gamma = 0.55
Lx = 3500 Ly = 3500 Lz = 3500
nx = 700 ny = 700 nz = 700
xoffset = 857.220397 yoffset = 15.9954215 zoffset = 262.898189
bins = 400 dk = 0.001
kx_ny = 0.628318531 ky_ny = 0.628318531 kz_ny = 0.628318531
############################
A(data) = 3.0809771 (not used)
A(ran) = 3.08420561 (used)
Ngal = 187922
weighted Ngal = 0
Nran = 9360983
weighted Nran = 0
SN(data) = 3441.41006
SN(ran) = 69.2596669
SN(data+ran) = 3510.66972
############################
13 columns: k_central k_mean P_0(k) sigma^{lin}_{P_0(k)} P^img_1(k) sigma^{lin}_{P_1(k)} P_2(k) sigma^{lin}_{P_2(k)} P^img_3(k) sigma^{lin}_{P_3(k)} P_4(k) sigma^{lin}_{P_4(k)} N_modes
### header ###
0.00050000 0 0 0 0 0 0 0 0 0 0 0 0
0.00150000 0.00179520 13344.11370228 0 -13833.41922860 0 14962.09296850 0 26550.07980708 0 28883.63889883 0 3
0.00250000 0.00253879 20500.24917715 0 -8607.43837205 0 22258.62417100 0 -3064.63977465 0 -34856.24625824 0 6
0.00350000 0.00331552 42572.39095253 0 -8603.66151341 0 28542.37274264 0 25914.87063427 0 -24659.85198016 0 7
0.00450000 0.00420575 56771.69336242 0 -5939.45868040 0 33232.19704062 0 29892.26248892 0 -25912.06047159 0 24
0.00550000 0.00557378 68513.78952252 0 13141.21995659 0 31580.94544824 0 3043.56355453 0 -27425.05205998 0 45
0.00650000 0.00659388 62081.66436123 0 9521.68545861 0 44632.68982501 0 -9735.78613308 0 -25907.90143082 0 40
0.00750000 0.00754703 51001.64252919 0 9042.20426102 0 29848.64876409 0 11140.77754925 0 -10518.68621584 0 57
0.00850000 0.00846663 47293.12704002 0 1164.66630354 0 24561.04666023 0 3727.43350435 0 -28304.63297968 0 75
0.00950000 0.00948925 48056.59203767 0 -5264.91847068 0 9999.80653745 0 14842.49244472 0 -16221.72028942 0 112
0.01050000 0.01054430 44858.06487217 0 3413.88679286 0 16618.29044720 0 10251.15872844 0 -16064.12636617 0 105
0.01150000 0.01145670 49187.51390771 0 87.36514764 0 4314.08306600 0 7257.55986642 0 -4989.64617493 0 144
0.01250000 0.01249090 45374.90999278 0 -153.02797092 0 15479.72493466 0 8813.90664468 0 6581.68201926 0 169
0.01350000 0.01339930 54416.88944079 0 -1495.64726431 0 11303.14874906 0 13918.17373511 0 12586.71865603 0 180
0.01450000 0.01448870 57296.29453204 0 -7592.64366471 0 9443.25943845 0 11113.78874684 0 11410.04733751 0 267
0.01550000 0.01550050 60887.34522107 0 -7208.49442598 0 23634.70463349 0 3027.88284676 0 -14626.89676370 0 238
0.01650000 0.01653350 75262.67622141 0 -6706.02609765 0 -2295.52072968 0 1360.28734821 0 -3708.78526479 0 315
0.01750000 0.01747870 72294.69480240 0 -147.74374101 0 16662.80342410 0 -5466.17108137 0 -24167.73629115 0 297
0.01850000 0.01844180 74592.39621832 0 5855.38985358 0 12098.19997526 0 -17392.32165654 0 -9262.62218121 0 388
0.01950000 0.01947590 74503.25785802 0 4924.67521371 0 19908.65372918 0 -6713.90579381 0 -25716.69796188 0 399
0.02050000 0.02045430 71112.51556502 0 3787.97564919 0 30810.06162111 0 -7166.54431745 0 -12643.14672270 0 462
0.02150000 0.02154770 72818.17190694 0 3392.95670120 0 51930.34509258 0 2547.17641825 0 -5857.25580160 0 571
0.02250000 0.02255340 68789.63509146 0 1965.22544860 0 52009.02964770 0 -1586.87638565 0 718.70585050 0 510
0.02350000 0.02348930 72488.37121449 0 5369.07434036 0 74248.54471246 0 15603.14727969 0 20670.88225525 0 555
0.02450000 0.02439640 67348.47126124 0 3648.17567604 0 49741.56558225 0 5364.48815486 0 6365.63671221 0 592
0.02550000 0.02547300 68311.00818334 0 1390.60338323 0 65151.37366936 0 22525.02759333 0 29994.66481708 0 837
0.02650000 0.02652900 65018.73399074 0 -1024.97536471 0 46855.64091357 0 14108.47795199 0 14767.29249133 0 723
0.02750000 0.02749970 65601.67413764 0 -237.52281840 0 41230.25725525 0 20951.67371051 0 20943.91766150 0 826
0.02850000 0.02848090 63592.18300647 0 2340.25851959 0 29960.71805188 0 11921.60935227 0 11955.33130447 0 831
0.02950000 0.02946900 59525.31557199 0 3779.16297901 0 21640.95041333 0 5811.52883443 0 9583.36290917 0 996
0.03050000 0.03053250 58328.63589517 0 3448.26070279 0 21956.81269887 0 -7.86107040 0 9067.66433493 0 1041
0.03150000 0.03150510 54585.04957572 0 1715.09848853 0 11642.72880764 0 1910.14626002 0 455.82075186 0 1036
0.03250000 0.03246190 50921.72150249 0 477.04310044 0 17288.79526331 0 2560.39542351 0 1605.74943822 0 1059
0.03350000 0.03345080 52268.80108609 0 509.13628234 0 12239.49495495 0 2987.85488950 0 -6174.02857985 0 1302
0.03450000 0.03451200 50196.13749781 0 744.87858167 0 13778.56485303 0 1092.30798665 0 -7813.05034424 0 1339
0.03550000 0.03553350 49718.97187428 0 1117.22626119 0 8477.15923008 0 1521.42207644 0 -12522.87175988 0 1365
0.03650000 0.03647120 45508.67373648 0 2281.02029024 0 9792.64134448 0 -927.40988856 0 -7340.75192248 0 1308
0.03750000 0.03744890 46122.07604687 0 1472.10934168 0 9344.48784048 0 -855.26401997 0 -12218.69975109 0 1579
0.03850000 0.03847530 44157.43511210 0 1492.10645933 0 14810.34418363 0 -3118.42628839 0 -7692.34823669 0 1662
0.03950000 0.03950240 44770.83742249 0 580.67065953 0 14729.52390488 0 -883.95016064 0 -7566.84637128 0 1683
0.04050000 0.04050350 43669.47846387 0 591.03341544 0 17462.46331710 0 -1406.94728940 0 -3893.57032215 0 1822
0.04150000 0.04152450 44936.41220776 0 5.56821371 0 17123.44529106 0 2915.56626465 0 1015.00603158 0 1887
0.04250000 0.04250150 44178.11790945 0 808.62993229 0 20173.93308643 0 1925.80448649 0 -341.58539067 0 1920
0.04350000 0.04349210 44953.72280989 0 1496.51279442 0 22381.59689000 0 270.28594309 0 2698.86899986 0 2005
0.04450000 0.04448520 43503.22923956 0 1580.32308627 0 21143.21439897 0 931.48574852 0 2575.61526459 0 2151
0.04550000 0.04548030 41896.60303058 0 1725.52981241 0 21818.44028838 0 -697.56893087 0 2901.14450976 0 2274
0.04650000 0.04648670 41368.06763321 0 1292.38257714 0 26117.98919298 0 -1245.52030425 0 6698.75339663 0 2311
0.04750000 0.04749250 41446.30256230 0 1.65189231 0 27016.79162543 0 660.04988686 0 2852.02286607 0 2568
0.04850000 0.04851840 42289.57618013 0 -304.82396652 0 30587.83395616 0 1554.57075545 0 10109.57149184 0 2493
0.04950000 0.04949480 42468.07771374 0 -132.70712253 0 25741.31498698 0 2997.20711091 0 5472.43212383 0 2644
0.05050000 0.05050630 43204.45274313 0 48.54971939 0 31856.34139115 0 5010.20532512 0 15601.79840160 0 2829
0.05150000 0.05149060 42037.67319725 0 360.82039220 0 23144.72466813 0 7749.36081720 0 7094.87392839 0 2784
0.05250000 0.05249300 42201.89910443 0 1273.94790995 0 28579.12967053 0 2946.54549807 0 14467.05471031 0 3055
0.05350000 0.05348950 39916.22518479 0 1928.22122639 0 19071.00043671 0 2602.14320032 0 1775.14604474 0 3009
0.05450000 0.05448610 38913.33432657 0 1621.68868096 0 24148.62718491 0 611.95676271 0 10730.34766911 0 3336
0.05550000 0.05550870 36138.01766109 0 1635.34607160 0 17065.33112678 0 -1639.94349775 0 -721.86672149 0 3349
0.05650000 0.05647670 35139.73546967 0 1307.36636457 0 18684.32205156 0 1187.51854648 0 297.67940892 0 3324
0.05750000 0.05747970 33942.26894730 0 1111.67787599 0 13518.79341464 0 2664.27027691 0 -4635.55443625 0 3639
0.05850000 0.05849280 33018.62467674 0 451.39643173 0 12423.27959440 0 3918.10866270 0 -4282.78909436 0 3846
0.05950000 0.05951020 32022.59061546 0 86.99746596 0 8813.73803492 0 2960.23661066 0 -1751.97906358 0 3787
0.06050000 0.06049470 31506.53234040 0 419.02223356 0 9886.51201873 0 3818.80875414 0 -3733.86315657 0 3930
0.06150000 0.06148310 31948.96435317 0 325.71021965 0 7566.79016803 0 3097.06905201 0 875.11051290 0 4083
0.06250000 0.06249100 30305.35640329 0 648.09320668 0 8932.58543510 0 103.45063125 0 882.16626937 0 4303
0.06350000 0.06350600 31060.05369337 0 382.84757138 0 9836.41243842 0 -181.71973191 0 3222.49223286 0 4470
0.06450000 0.06451750 31292.17313096 0 -74.39602205 0 11088.49728270 0 -650.79770724 0 5358.02478069 0 4479
0.06550000 0.06550280 31601.85305860 0 -7.00328511 0 11380.14720656 0 -106.51539467 0 6863.77739001 0 4636
0.06650000 0.06648880 32717.26283064 0 -216.47694804 0 12143.16257818 0 1162.10343517 0 6390.23125601 0 4653
0.06750000 0.06749660 31920.97513285 0 -248.28461741 0 12488.92499467 0 385.40706755 0 5157.53653425 0 5220
0.06850000 0.06852730 33211.96386931 0 454.33024157 0 12763.53409203 0 249.85044006 0 6965.66264823 0 5029
0.06950000 0.06949320 32086.43751161 0 252.13903655 0 12680.35327662 0 2080.94794788 0 3706.99800132 0 5040
0.07050000 0.07048030 31424.47559007 0 847.60014431 0 11861.35946436 0 928.61601038 0 4997.12120767 0 5475
0.07150000 0.07148790 30920.21999827 0 1032.72466932 0 12396.63925217 0 1206.52648686 0 4509.28820659 0 5509
0.07250000 0.07249820 28927.58984319 0 1789.56779963 0 10123.83587761 0 587.89952201 0 4553.56512982 0 5916
0.07350000 0.07351270 27612.43370767 0 1523.65896594 0 10702.25728293 0 559.65963518 0 4569.17839369 0 5721
0.07450000 0.07449140 26223.76371636 0 1347.70906004 0 9641.87049622 0 -637.56970946 0 2354.93880944 0 6028
0.07550000 0.07549160 26128.33059165 0 391.48825959 0 11308.65666791 0 6.10605636 0 2602.40173529 0 6183
0.07650000 0.07648840 25659.14583014 0 -264.39134584 0 10402.94123526 0 -590.95023462 0 645.64724108 0 6330
0.07750000 0.07749960 26478.70167494 0 -571.39599861 0 9077.23012870 0 14.33688797 0 762.51516266 0 6583
0.07850000 0.07848650 26492.52767534 0 -508.65405842 0 10274.75285433 0 897.38835859 0 -958.50827287 0 6549
0.07950000 0.07947320 27437.75399531 0 -83.34605298 0 8588.23934060 0 1315.94298108 0 2022.82254295 0 6828
0.08050000 0.08048110 27055.00983792 0 544.06997668 0 7962.64092417 0 2252.45779673 0 573.76440372 0 7147
0.08150000 0.08149960 25732.77209243 0 1188.12554162 0 8019.83335509 0 1909.34817382 0 2239.32871668 0 7386
0.08250000 0.08250610 25103.29565149 0 1096.59741897 0 7344.69739088 0 1279.65816052 0 1978.35452865 0 7227
0.08350000 0.08350160 23689.44660255 0 1164.86863525 0 7017.69562047 0 554.16970136 0 1367.33523622 0 7798
0.08450000 0.08449610 22972.51789893 0 942.70279388 0 7501.42578403 0 -504.44218659 0 2990.59760828 0 7371
0.08550000 0.08548940 22369.56939372 0 393.46436599 0 6990.62813351 0 -926.49265146 0 315.08330845 0 8256
0.08650000 0.08650700 22175.55576210 0 609.93344557 0 7020.64067096 0 -207.32481021 0 1388.96224823 0 8037
0.08750000 0.08749060 21421.64531757 0 408.05585471 0 7193.89282068 0 -400.71233758 0 -865.11982253 0 8155
0.08850000 0.08849210 21323.85165621 0 516.28083994 0 7548.01828131 0 147.69877841 0 198.50764378 0 8718
0.08950000 0.08949900 20867.59364304 0 541.18899790 0 6304.71238525 0 1307.54621498 0 -836.59779537 0 8571
0.09050000 0.09049190 20670.32022271 0 405.65934797 0 6564.93344967 0 515.48949813 0 384.86414412 0 8932
0.09150000 0.09150830 19725.09390274 0 555.74788873 0 6362.63545847 0 465.97892792 0 -425.05396674 0 9285
0.09250000 0.09250820 19870.99754923 0 175.49241141 0 6383.08220215 0 339.11132345 0 -374.72957342 0 9204
0.09350000 0.09350330 18951.51231944 0 184.76707233 0 6449.72802033 0 126.82938626 0 -673.17896691 0 9349
0.09450000 0.09448040 19247.59105969 0 -9.70839267 0 5536.22281673 0 -223.79798386 0 -2317.27138884 0 9564
0.09550000 0.09549270 18835.95842992 0 -110.63790332 0 5265.98633250 0 -332.17921414 0 -2238.28333616 0 10155
0.09650000 0.09649430 19418.33654429 0 -37.85255412 0 5243.57247494 0 -215.81599777 0 -3608.66478873 0 9913
0.09750000 0.09749140 19032.33259819 0 326.07666486 0 5273.59625305 0 -247.26733852 0 -2125.62953453 0 10476
0.09850000 0.09850240 18786.27475369 0 545.12434972 0 5011.53172191 0 -264.79938147 0 -3046.21634810 0 10575
0.09950000 0.09950330 18837.64452753 0 424.47170103 0 6120.44439782 0 569.27826001 0 -807.74079681 0 10882
0.10050000 0.10051200 17932.21011115 0 394.00616536 0 5662.70261875 0 575.97993598 0 -747.19977604 0 10875
0.10150000 0.10150300 18211.76509483 0 125.85144965 0 6130.08887615 0 720.66059967 0 104.58177793 0 11118
0.10250000 0.10250800 18046.63993559 0 -10.66355572 0 6133.57347787 0 754.91985496 0 1327.01502205 0 11575
0.10350000 0.10349800 17795.18657874 0 264.60154601 0 5745.80474961 0 681.47119496 0 277.04382231 0 11364
0.10450000 0.10450100 17680.08231525 0 127.74100304 0 5309.44268823 0 -104.96137470 0 975.45355385 0 12093
0.10550000 0.10551000 17466.50995137 0 371.04039185 0 5290.52467305 0 -338.31211318 0 -320.08427396 0 12067
0.10650000 0.10649700 17437.28425946 0 333.60340459 0 5739.18400633 0 -1105.58993956 0 -196.94182113 0 12054
0.10750000 0.10749900 17128.61599039 0 29.97870309 0 5699.50450924 0 -764.25521540 0 -1990.76420706 0 12807
0.10850000 0.10850100 17305.88105242 0 32.35284093 0 6051.44928363 0 -654.68247613 0 -2260.10143923 0 12736
0.10950000 0.10950300 17353.31659850 0 -55.77386080 0 5773.17573414 0 49.13929152 0 -3005.98605913 0 12933
0.11050000 0.11050200 17260.80604299 0 230.62892731 0 5424.55819236 0 351.13432347 0 -3239.49933742 0 13428
0.11150000 0.11150900 16974.84388839 0 379.08982184 0 5184.82883422 0 346.35255065 0 -3186.62331638 0 13453
0.11250000 0.11250000 16360.42991944 0 482.03282530 0 5184.70518707 0 712.33240154 0 -3861.25345130 0 13668
0.11350000 0.11349100 16117.85667666 0 579.30267233 0 5049.61504658 0 -68.47961794 0 -2423.86647973 0 13791
0.11450000 0.11448600 15588.30962072 0 393.62285917 0 4712.58661571 0 58.66158397 0 -3305.92034259 0 14205
0.11550000 0.11549300 15428.24275431 0 296.33390303 0 5755.93257591 0 -209.69321532 0 -882.45852629 0 14776
0.11650000 0.11649800 15068.09230489 0 229.07771751 0 5578.95977081 0 599.16152998 0 -1285.22228263 0 14553
0.11750000 0.11747300 15345.51156493 0 217.60663344 0 5950.81173764 0 729.16302788 0 -513.39424084 0 14568
0.11850000 0.11849100 14633.64115414 0 201.92367754 0 5071.42190900 0 864.22956300 0 -612.03095100 0 16015
0.11950000 0.11950300 14820.01114326 0 328.06513597 0 4911.70350276 0 1027.44268755 0 -724.71173019 0 15270
0.12050000 0.12050700 14133.20738360 0 262.32194204 0 3776.43150089 0 907.58700100 0 -621.25727712 0 15999
0.12150000 0.12150000 13853.53999341 0 291.95004924 0 3414.44882540 0 607.93823007 0 -1036.75556668 0 15670
0.12250000 0.12250700 13407.17375288 0 152.33554684 0 2504.72048043 0 337.99625090 0 -1083.23565745 0 16887
0.12350000 0.12352200 13413.58092380 0 83.41630704 0 2391.76318124 0 42.68715800 0 -1265.58486580 0 16407
0.12450000 0.12449800 13277.79386297 0 67.17974909 0 2098.75313863 0 22.73061910 0 -1495.98448384 0 16306
0.12550000 0.12549900 13406.83653336 0 167.97578826 0 2535.46366018 0 -190.88985478 0 -1393.42478657 0 17523
0.12650000 0.12650100 13039.82928699 0 191.39231187 0 2732.04016017 0 -402.77612106 0 -1378.90186582 0 17154
0.12750000 0.12750600 13025.44125406 0 352.56413424 0 2992.04765223 0 -60.25067476 0 -701.60657261 0 18007
0.12850000 0.12850300 12700.24922841 0 305.13870474 0 3452.82440699 0 -16.49464329 0 -476.10000984 0 17496
0.12950000 0.12949900 12457.00154659 0 203.86831011 0 3375.18523239 0 388.06885364 0 -382.90939496 0 18405
0.13050000 0.13049000 12338.41268138 0 209.99334070 0 3682.51586403 0 153.08080198 0 -296.97237199 0 18100
0.13150000 0.13148800 12263.10032148 0 90.55187213 0 3445.37185556 0 -137.15842022 0 -434.78274995 0 19059
0.13250000 0.13249300 12216.56402746 0 -46.27607296 0 3718.69951873 0 -84.63996428 0 -49.46605723 0 18957
0.13350000 0.13349100 12287.26772055 0 -0.71758403 0 3644.02787592 0 -356.10381516 0 -257.68854581 0 19468
0.13450000 0.13450700 12328.52090874 0 57.06361306 0 3702.53546298 0 -30.97293865 0 65.48173639 0 19953
0.13550000 0.13551000 12402.14717102 0 54.62394223 0 3759.24454592 0 52.36738159 0 17.22708409 0 19956
0.13650000 0.13649900 12356.95975509 0 153.26177646 0 3941.66906663 0 311.84150477 0 -194.06084235 0 19723
0.13750000 0.13749600 12258.04202865 0 159.32048720 0 3905.35052412 0 384.61347761 0 -255.54944998 0 20946
0.13850000 0.13851100 12197.90454724 0 97.68114245 0 4080.22132754 0 226.58454118 0 -111.92877965 0 20955
0.13950000 0.13949800 12114.04929279 0 108.33177142 0 3545.60473812 0 135.63418798 0 2.91547634 0 20506
0.14050000 0.14048300 12174.52399372 0 100.99218853 0 4105.42286648 0 346.91345912 0 474.56116476 0 21447
0.14150000 0.14148400 11831.12211389 0 212.30779068 0 3003.41195011 0 370.60537867 0 184.84463282 0 21771
0.14250000 0.14249400 11775.48089277 0 261.76777796 0 3276.72837264 0 759.03393313 0 865.33901522 0 22470
0.14350000 0.14350900 11299.77655384 0 275.41842421 0 2811.78133645 0 728.93821486 0 851.78616264 0 22519
0.14450000 0.14449900 11170.17185091 0 131.87194218 0 2339.08949191 0 875.47920625 0 1159.97895218 0 22218
0.14550000 0.14550500 10975.07911682 0 20.17056089 0 1982.69341984 0 728.46161127 0 1283.95208910 0 23559
0.14650000 0.14650700 11004.95676646 0 29.82268286 0 1940.02390966 0 51.33335413 0 1140.04927844 0 23044
0.14750000 0.14750500 10870.69843413 0 157.33763641 0 2153.94473372 0 -190.71674876 0 1142.30864924 0 23649
0.14850000 0.14849900 10731.68530654 0 276.57733530 0 2255.22299681 0 -778.96023468 0 905.04998613 0 23640
0.14950000 0.14949500 10614.45656007 0 315.58239334 0 2534.63185203 0 -731.55279022 0 854.40411019 0 24457
0.15050000 0.15050000 10469.46340629 0 248.02271025 0 2971.47726139 0 -478.00417608 0 541.19686635 0 24591
0.15150000 0.15149900 10388.18226085 0 165.08019664 0 3162.43343601 0 -296.08660871 0 415.83663314 0 25020
0.15250000 0.15250500 10266.03010936 0 106.75504534 0 3296.68052769 0 48.96888325 0 134.48651754 0 25297
0.15350000 0.15350100 10222.18033086 0 108.08357785 0 3393.69858415 0 234.97006662 0 335.79870368 0 25452
0.15450000 0.15450400 10085.64014643 0 124.44749237 0 2942.35273534 0 302.82875102 0 289.31636477 0 26061
0.15550000 0.15549900 10018.82571848 0 163.79988652 0 3304.09935717 0 212.34488483 0 565.79028609 0 26128
0.15650000 0.15649500 9840.52651659 0 250.72496268 0 2962.49598145 0 -175.56547564 0 169.42920440 0 26331
0.15750000 0.15749700 9706.99882656 0 223.38320385 0 3153.26106501 0 85.70760129 0 417.88018345 0 27345
0.15850000 0.15849900 9460.96346336 0 124.43737579 0 2897.04167225 0 -12.15608933 0 333.13466945 0 26980
0.15950000 0.15949700 9419.81144103 0 60.56383929 0 2726.72333237 0 105.06265297 0 -105.16730343 0 27777
0.16050000 0.16050000 9425.15075013 0 12.40338364 0 2998.49978575 0 155.72010677 0 -205.06206722 0 28224
0.16150000 0.16150500 9354.36837247 0 87.19339050 0 2496.18882653 0 141.57149970 0 -415.29483378 0 28075
0.16250000 0.16249700 9263.30786090 0 164.74522524 0 2656.37934010 0 221.93878023 0 -226.24170133 0 28590
0.16350000 0.16349900 9116.96582904 0 105.87321629 0 2412.27736882 0 263.83942989 0 374.18664999 0 29163
0.16450000 0.16449100 8993.67837182 0 150.72251346 0 2596.92753838 0 731.69554649 0 438.05040712 0 28996
0.16550000 0.16550500 8948.65956564 0 133.53893068 0 2351.70150203 0 533.64652126 0 1111.59019892 0 30777
0.16650000 0.16650700 8679.62583105 0 107.93396479 0 2220.42194215 0 745.48557680 0 1516.59983728 0 29211
0.16750000 0.16749900 8709.36859288 0 74.04272840 0 1918.99265214 0 516.16506124 0 1884.78735197 0 30922
0.16850000 0.16850800 8596.43377498 0 -66.49699197 0 1791.31010049 0 431.32062952 0 1663.25660736 0 30867
0.16950000 0.16949900 8711.54927912 0 69.59086868 0 1532.66272717 0 -182.62910056 0 1754.17099048 0 30852
0.17050000 0.17049200 8607.03370862 0 99.72750291 0 1580.66030579 0 -430.12350022 0 829.46335435 0 31257
0.17150000 0.17149500 8547.48074105 0 200.90190238 0 1497.58065624 0 -484.90930782 0 716.44198345 0 32608
0.17250000 0.17250900 8394.65285371 0 222.56938073 0 1569.62198677 0 -509.60614154 0 423.88269094 0 32361
0.17350000 0.17350400 8287.41704574 0 131.33463908 0 1715.21089504 0 -190.88198632 0 155.51440286 0 32508
0.17450000 0.17449800 8232.60763277 0 14.21874874 0 1695.14633349 0 -39.22065372 0 -303.81005983 0 32791
0.17550000 0.17549800 8294.86959717 0 7.36668410 0 1797.90836247 0 13.26621599 0 -594.01780820 0 33633
0.17650000 0.17650100 8312.32632776 0 73.85006364 0 1835.18236029 0 -69.15405699 0 -268.36379181 0 33984
0.17750000 0.17750300 8250.13180726 0 167.49693654 0 1994.59726896 0 4.47423986 0 -501.28918406 0 34069
0.17850000 0.17849800 8025.66725282 0 241.62677998 0 2357.49043716 0 -233.37501828 0 -179.62672275 0 34536
