### header ###
fiducial parameters:
Omega_m = 0.31
Omega_nu = 0
Omega_de = 0.69
Omega_k = 0
H_0 = 100
w_de = -1
zeff = 0
beta = 0
fgrowth = 0
b_1 = 2
gamma = 0.55
Lx = 3500 Ly = 3500 Lz = 3500
nx = 700 ny = 700 nz = 700
xoffset = 857.220397 yoffset = 15.9954215 zoffset = 262.898189
bins = 400 dk = 0.001
kx_ny = 0.628318531 ky_ny = 0.628318531 kz_ny = 0.628318531
############################
A(data) = 3.10097501 (not used)
A(ran) = 3.09440222 (used)
Ngal = 189007
weighted Ngal = 0
Nran = 9360983
weighted Nran = 0
SN(data) = 3468.15488
SN(ran) = 69.4886446
SN(data+ran) = 3537.64352
############################
13 columns: k_central k_mean P_0(k) sigma^{lin}_{P_0(k)} P^img_1(k) sigma^{lin}_{P_1(k)} P_2(k) sigma^{lin}_{P_2(k)} P^img_3(k) sigma^{lin}_{P_3(k)} P_4(k) sigma^{lin}_{P_4(k)} N_modes
### header ###
0.00050000 0 0 0 0 0 0 0 0 0 0 0 0
0.00150000 0.00179520 16063.22711411 0 -15116.20229002 0 -6035.99338888 0 34632.44490218 0 -54380.46973242 0 3
0.00250000 0.00253879 24880.05632798 0 -14497.17965427 0 748.02596387 0 -4001.80654804 0 27972.92137661 0 6
0.00350000 0.00331552 35332.62503622 0 -13193.26416947 0 -3696.70156525 0 8843.51451870 0 -6964.60602707 0 7
0.00450000 0.00420575 36672.39819684 0 -4297.91901025 0 -8012.74050448 0 12903.25538061 0 3126.87925774 0 24
0.00550000 0.00557378 45081.30419568 0 -3720.66663261 0 -16423.71478305 0 22899.67848219 0 11203.71395269 0 45
0.00650000 0.00659388 32175.35105890 0 -6431.90034827 0 -26596.16647508 0 12637.86361685 0 6311.91764237 0 40
0.00750000 0.00754703 58054.70123686 0 -8646.89305612 0 -24658.39069556 0 18468.83877705 0 23508.02249975 0 57
0.00850000 0.00846663 49778.88454267 0 -8165.01759993 0 -33760.39521847 0 -8886.39760124 0 3839.62643929 0 75
0.00950000 0.00948925 65270.74938012 0 -4527.80155835 0 -31968.97271148 0 -8084.46709679 0 6011.57869549 0 112
0.01050000 0.01054430 63528.89814285 0 1664.78533586 0 -27153.14071880 0 -38655.24898579 0 3562.40951097 0 105
0.01150000 0.01145670 59748.55489551 0 2406.64580281 0 -25595.07412097 0 -21795.39695438 0 -12910.33699057 0 144
0.01250000 0.01249090 59387.50519403 0 233.18392722 0 -14095.77601666 0 -26998.80658426 0 -5118.63264207 0 169
0.01350000 0.01339930 60456.71589156 0 -2241.04853624 0 -14324.29844602 0 -8872.78517321 0 -22170.16024975 0 180
0.01450000 0.01448870 60802.25349503 0 -3673.95048817 0 -11409.93493100 0 4158.84967940 0 -13794.97620310 0 267
0.01550000 0.01550050 59687.74297506 0 -3110.72644264 0 2180.47266945 0 5242.70694484 0 -14571.25554258 0 238
0.01650000 0.01653350 64776.61037399 0 -96.33687302 0 125.64349761 0 -3342.17144119 0 9065.62977715 0 315
0.01750000 0.01747870 69871.09809829 0 1331.74733600 0 23732.27348183 0 -4213.09705983 0 10447.82515363 0 297
0.01850000 0.01844180 69902.23470081 0 -231.54504034 0 24441.44613645 0 -8374.62201411 0 20947.85188926 0 388
0.01950000 0.01947590 73012.18553856 0 -848.21838010 0 35995.82342935 0 -11948.81172704 0 6655.89279539 0 399
0.02050000 0.02045430 79661.59247848 0 -936.12139288 0 48520.49369334 0 -6556.32311121 0 6710.69096770 0 462
0.02150000 0.02154770 75652.61439527 0 1518.31965684 0 38423.80398724 0 -10006.62961244 0 -21341.27466485 0 571
0.02250000 0.02255340 76115.27957936 0 3561.88120038 0 43661.27278884 0 221.25085240 0 -28377.47239642 0 510
0.02350000 0.02348930 73484.85490180 0 3755.51264987 0 32770.54351510 0 -3359.39211811 0 -41543.75900413 0 555
0.02450000 0.02439640 69828.15881250 0 3483.14044201 0 26457.79406458 0 4811.40317629 0 -43394.86936651 0 592
0.02550000 0.02547300 63520.24284179 0 5522.07083746 0 24896.01805201 0 6896.81366251 0 -35229.77308203 0 837
0.02650000 0.02652900 58146.98697936 0 5231.80351363 0 19608.86557418 0 13005.54530226 0 -29286.05419500 0 723
0.02750000 0.02749970 55686.63334736 0 4640.28675021 0 20906.71110759 0 13933.12380059 0 -11567.97848028 0 826
0.02850000 0.02848090 53793.14573172 0 1615.39391655 0 20768.67591661 0 7913.63168698 0 -9331.75218320 0 831
0.02950000 0.02946900 53874.19082349 0 98.97808873 0 24324.43096234 0 6378.49601665 0 8160.56630224 0 996
0.03050000 0.03053250 53579.91058736 0 -979.37654095 0 22680.03616691 0 -3041.43907154 0 8564.43164235 0 1041
0.03150000 0.03150510 55632.79063036 0 -1719.92072770 0 19603.24524882 0 4346.96196939 0 6195.01487477 0 1036
0.03250000 0.03246190 59713.93369126 0 -2306.98619343 0 21775.27618957 0 -643.79478184 0 3893.69396931 0 1059
0.03350000 0.03345080 58065.37985505 0 -288.76669695 0 19344.71028201 0 970.31432834 0 -5196.47414838 0 1302
0.03450000 0.03451200 58969.01576732 0 2147.17786198 0 15556.94820518 0 1623.94805176 0 -6078.43808604 0 1339
0.03550000 0.03553350 55012.30671001 0 3463.78404145 0 14869.35759997 0 584.21034044 0 -8009.93034179 0 1365
0.03650000 0.03647120 51823.78372365 0 4697.42297788 0 11036.18329419 0 7382.07255456 0 -6671.01147062 0 1308
0.03750000 0.03744890 48213.51152187 0 2318.90128320 0 11329.56427827 0 5698.42540677 0 -2154.61917277 0 1579
0.03850000 0.03847530 45388.96080619 0 2448.12380400 0 12078.41642997 0 5678.88915580 0 393.99829690 0 1662
0.03950000 0.03950240 44872.34049859 0 1413.51182942 0 13286.11194451 0 898.67878529 0 3340.85628506 0 1683
0.04050000 0.04050350 43296.40126611 0 1322.36139264 0 16525.77989169 0 -1520.02823575 0 5255.88098750 0 1822
0.04150000 0.04152450 43857.42214409 0 1228.65932815 0 18037.87222802 0 -4860.24380372 0 7924.35526778 0 1887
0.04250000 0.04250150 43441.85528657 0 988.19033519 0 20884.22980612 0 -1936.93273071 0 6812.35141291 0 1920
0.04350000 0.04349210 44589.30091319 0 1230.84001439 0 29610.79659462 0 -2399.47426764 0 11180.72682194 0 2005
0.04450000 0.04448520 43249.64015907 0 1062.35952091 0 24800.24770779 0 2084.84845368 0 4004.41437901 0 2151
0.04550000 0.04548030 43224.01147540 0 319.80325769 0 26203.75535806 0 5165.16893610 0 8392.13494795 0 2274
0.04650000 0.04648670 41899.75041278 0 579.99397235 0 20103.67901936 0 4724.33309573 0 1484.99112742 0 2311
0.04750000 0.04749250 40991.84305324 0 552.28352017 0 20792.84331568 0 4836.94193475 0 4672.61486171 0 2568
0.04850000 0.04851840 40079.21462039 0 1210.68552763 0 17782.48464341 0 5178.84880804 0 2721.14796961 0 2493
0.04950000 0.04949480 38569.14560119 0 1394.40272318 0 14942.19701671 0 2318.21560351 0 5068.84779998 0 2644
0.05050000 0.05050630 37046.71186619 0 623.30981994 0 11703.20350857 0 5190.23558723 0 6548.15115813 0 2829
0.05150000 0.05149060 36206.36081754 0 180.17189431 0 12112.81282121 0 1899.40019792 0 5791.81273305 0 2784
0.05250000 0.05249300 36293.92548673 0 -501.05088227 0 10782.68413891 0 2108.43133891 0 8333.27890072 0 3055
0.05350000 0.05348950 36972.18635184 0 8.90410163 0 12032.10494896 0 201.74270306 0 5887.61679923 0 3009
0.05450000 0.05448610 37021.08318252 0 831.61481490 0 13161.34072140 0 -2715.10049952 0 9701.04128167 0 3336
0.05550000 0.05550870 36384.86235115 0 1457.26044207 0 13323.54331144 0 -3409.97504640 0 8311.34839115 0 3349
0.05650000 0.05647670 37222.06601759 0 373.61899713 0 16980.23940074 0 -1135.85651572 0 8335.70688128 0 3324
0.05750000 0.05747970 36714.66304359 0 328.03366215 0 16180.01747520 0 181.92093956 0 7099.10041306 0 3639
0.05850000 0.05849280 37713.73208056 0 -1047.37460942 0 19060.32181851 0 2653.76026848 0 7864.65617175 0 3846
0.05950000 0.05951020 37645.50133063 0 -229.50373817 0 17707.73431605 0 1763.72554360 0 9064.05608604 0 3787
0.06050000 0.06049470 39526.96144998 0 556.38298549 0 20043.20431843 0 3990.14999323 0 12229.26596278 0 3930
0.06150000 0.06148310 36475.12477652 0 1495.98448384 0 17613.20044340 0 2833.35214521 0 13884.67659593 0 4083
0.06250000 0.06249100 36980.16721386 0 1939.46187713 0 18939.48482315 0 3658.93297879 0 16091.77836696 0 4303
0.06350000 0.06350600 35096.90859039 0 867.93335741 0 18860.80026804 0 3480.71246145 0 19389.33566541 0 4470
0.06450000 0.06451750 33595.71968526 0 1114.66339283 0 17332.29658164 0 3650.18775253 0 17460.66481299 0 4479
0.06550000 0.06550280 33461.84353506 0 271.26387970 0 17655.46529015 0 2113.10744962 0 20041.96784685 0 4636
0.06650000 0.06648880 32063.05695809 0 563.48145643 0 16836.24666488 0 2848.25724808 0 17928.05107038 0 4653
0.06750000 0.06749660 32488.51558826 0 454.68544613 0 15516.70667557 0 1496.33294401 0 16994.29021416 0 5220
0.06850000 0.06852730 30792.97583200 0 39.76144142 0 12377.75495894 0 977.46787846 0 13108.95928899 0 5029
0.06950000 0.06949320 32325.63855917 0 -102.51293616 0 14010.00985159 0 -379.35847339 0 11208.50246990 0 5040
0.07050000 0.07048030 31700.88319154 0 -361.09803628 0 10738.40721568 0 -656.45849895 0 8623.41133674 0 5475
0.07150000 0.07148790 31555.20435807 0 -435.37962850 0 11155.64893016 0 90.44688445 0 3228.07883628 0 5509
0.07250000 0.07249820 31696.94896379 0 319.56158370 0 10897.70971784 0 -367.79746411 0 4378.49199469 0 5916
0.07350000 0.07351270 31490.90783589 0 1302.29683109 0 9760.04345736 0 435.97201080 0 2506.67635366 0 5721
0.07450000 0.07449140 30211.49696968 0 1267.84423660 0 11607.32075784 0 -36.59854712 0 2953.78447714 0 6028
0.07550000 0.07549160 29419.81793870 0 1255.09733867 0 10580.94818024 0 430.98903033 0 3623.36755988 0 6183
0.07650000 0.07648840 28467.39760226 0 659.30350765 0 10330.33787219 0 1837.98128233 0 3303.73965635 0 6330
0.07750000 0.07749960 28200.65696042 0 276.20976602 0 8934.44014247 0 1238.10147477 0 2461.21916211 0 6583
0.07850000 0.07848650 28112.41785218 0 188.06170705 0 9063.90995759 0 1126.88647643 0 1717.09932436 0 6549
0.07950000 0.07947320 27330.29337432 0 947.71387598 0 7815.52328740 0 27.55533120 0 1501.88582547 0 6828
0.08050000 0.08048110 26272.88536005 0 942.32960428 0 7369.11208427 0 -502.90558964 0 -301.84407001 0 7147
0.08150000 0.08149960 25286.40585190 0 929.83674505 0 7487.30752671 0 -63.06701980 0 -178.58921068 0 7386
0.08250000 0.08250610 24383.55678519 0 967.13884450 0 7191.16134255 0 1131.04551720 0 -1519.71349753 0 7227
0.08350000 0.08350160 24003.06075794 0 447.15421014 0 6877.67083431 0 718.54960546 0 -1660.40148208 0 7798
0.08450000 0.08449610 22952.17232110 0 401.55426232 0 7056.99293542 0 916.66157833 0 -1112.66705326 0 7371
0.08550000 0.08548940 23379.76667491 0 97.62640048 0 6170.37536837 0 860.97089835 0 -1207.06603810 0 8256
0.08650000 0.08650700 22844.03726107 0 -222.89760774 0 6016.80559808 0 1024.39984339 0 177.72480464 0 8037
0.08750000 0.08749060 23305.35356707 0 63.83183368 0 5839.29324174 0 743.54881268 0 -96.55718978 0 8155
0.08850000 0.08849210 23413.03900107 0 63.84273711 0 6591.37146019 0 726.44503853 0 1778.47327736 0 8718
0.08950000 0.08949900 22879.67012389 0 683.16066476 0 6790.76936351 0 -100.03189973 0 2054.66730647 0 8571
0.09050000 0.09049190 22742.53418497 0 434.59952734 0 7796.75140068 0 -25.38330026 0 4081.00817309 0 8932
0.09150000 0.09150830 22297.17960301 0 599.62464479 0 8807.09481033 0 -286.88163983 0 4478.75859921 0 9285
0.09250000 0.09250820 21711.42929342 0 615.14123906 0 9714.12539912 0 466.70394990 0 5092.81286734 0 9204
0.09350000 0.09350330 21419.17237441 0 717.01975289 0 10128.24221270 0 -311.91906526 0 5172.43039647 0 9349
0.09450000 0.09448040 20517.78459229 0 958.24973791 0 9298.94072372 0 380.02279585 0 4378.93038007 0 9564
0.09550000 0.09549270 19741.84247233 0 872.70388958 0 9237.08342275 0 709.37161414 0 5258.85975994 0 10155
0.09650000 0.09649430 18804.25979486 0 711.84343323 0 8689.00053375 0 635.76108876 0 3722.22908306 0 9913
0.09750000 0.09749140 18562.58580414 0 343.02194584 0 8221.40070400 0 1226.19762564 0 4018.22913876 0 10476
0.09850000 0.09850240 18134.65423082 0 162.78485576 0 8025.03777638 0 839.64176359 0 2454.19375540 0 10575
0.09950000 0.09950330 18141.17380824 0 -26.32189460 0 7345.10205431 0 592.52842198 0 2976.05220624 0 10882
0.10050000 0.10051200 18101.15709164 0 -106.12939072 0 7252.14187276 0 135.27223903 0 2316.48454329 0 10875
0.10150000 0.10150300 18105.76575844 0 189.84897052 0 7096.78483901 0 -318.75675310 0 2825.89959377 0 11118
0.10250000 0.10250800 18019.10034130 0 472.24334258 0 6788.28517970 0 69.93842960 0 2612.13613882 0 11575
0.10350000 0.10349800 17698.96660848 0 353.21834012 0 6540.49627499 0 -62.75823913 0 2005.88288229 0 11364
0.10450000 0.10450100 16842.65383580 0 404.80505851 0 5913.71759023 0 650.25028755 0 1531.13399867 0 12093
0.10550000 0.10551000 17119.06143727 0 163.81899562 0 4940.51329059 0 1159.42816030 0 1093.87605743 0 12067
0.10650000 0.10649700 16423.26515702 0 100.08697892 0 4865.95405429 0 952.83624051 0 803.40977409 0 12054
0.10750000 0.10749900 16265.78364028 0 317.85525292 0 3928.09036055 0 327.45476864 0 -67.60880473 0 12807
0.10850000 0.10850100 15927.21524026 0 349.56063237 0 4106.98531693 0 238.26919761 0 847.18424023 0 12736
0.10950000 0.10950300 15506.47768340 0 536.39935662 0 3809.04062866 0 -347.88127915 0 847.25842852 0 12933
0.11050000 0.11050200 15509.84987862 0 254.50182133 0 4024.56886577 0 -24.61320328 0 961.61518873 0 13428
0.11150000 0.11150900 15118.45042017 0 202.61610162 0 4357.89912255 0 -113.41254555 0 921.66928823 0 13453
0.11250000 0.11250000 15120.47373730 0 261.58230723 0 4415.84467707 0 -185.90237805 0 621.77434705 0 13668
0.11350000 0.11349100 14928.14620329 0 298.75176700 0 4317.89364660 0 -329.63545488 0 435.06264215 0 13791
0.11450000 0.11448600 14612.95835680 0 407.80406413 0 4941.44626460 0 -515.29503488 0 634.00192692 0 14205
0.11550000 0.11549300 14404.44428574 0 136.54468069 0 4828.30911499 0 6.83773280 0 462.67305254 0 14776
0.11650000 0.11649800 14239.31912650 0 174.30652276 0 5402.04316895 0 -41.08008216 0 -422.19322113 0 14553
0.11750000 0.11747300 14191.88358041 0 50.36328597 0 5454.04241923 0 266.90138315 0 -291.03843247 0 14568
0.11850000 0.11849100 14219.31076820 0 -40.83402432 0 4949.40464531 0 113.48673385 0 -751.56676885 0 16015
0.11950000 0.11950300 14228.19088227 0 -79.83402406 0 4649.76261878 0 624.68230340 0 -752.85494742 0 15270
0.12050000 0.12050700 14243.25335425 0 -133.74688272 0 3994.17414620 0 654.06873660 0 -1032.59652591 0 15999
0.12150000 0.12150000 14159.28569329 0 -64.87788864 0 3157.45382773 0 1055.75451454 0 -1996.55314219 0 15670
0.12250000 0.12250700 14248.08683407 0 129.60020667 0 2886.73399553 0 526.67956594 0 -1617.16993937 0 16887
0.12350000 0.12352200 13946.16295543 0 155.74933246 0 1994.46238115 0 321.64222815 0 -2405.96012311 0 16407
0.12450000 0.12449800 13694.93441160 0 244.39198006 0 2011.48072636 0 -167.46209053 0 -1766.31089327 0 16306
0.12550000 0.12549900 13558.92253775 0 170.52291972 0 1877.79566721 0 -143.96913050 0 -2377.95966214 0 17523
0.12650000 0.12650100 13543.29803323 0 198.45256459 0 2400.57585141 0 -375.22078986 0 -1133.55218232 0 17154
0.12750000 0.12750600 13269.36337492 0 246.13203280 0 2368.79853180 0 -155.60770026 0 -1712.74919253 0 18007
0.12850000 0.12850300 13361.08708489 0 101.46429586 0 3200.42683548 0 -135.86012506 0 -1252.64687681 0 17496
0.12950000 0.12949900 13210.23755208 0 25.16489442 0 2864.55619164 0 -50.48120040 0 -955.83749426 0 18405
0.13050000 0.13049000 13496.98655222 0 -27.90322934 0 2960.41646107 0 448.43901652 0 -464.88521261 0 18100
0.13150000 0.13148800 13243.17265872 0 -6.63820001 0 2533.45158370 0 557.30921511 0 -38.47551098 0 19059
0.13250000 0.13249300 13270.37503349 0 100.78120151 0 2620.25188865 0 733.04442458 0 10.90615145 0 18957
0.13350000 0.13349100 13122.67288288 0 157.94912781 0 1733.65680289 0 536.88495273 0 -153.41914557 0 19468
0.13450000 0.13450700 12864.36272908 0 230.16244030 0 1858.50671056 0 791.74085456 0 427.59660194 0 19953
0.13550000 0.13551000 12633.14254355 0 266.53606200 0 1239.33794635 0 3.73583027 0 96.66914666 0 19956
0.13650000 0.13649900 12247.58822347 0 275.63874097 0 1628.96138198 0 147.60323288 0 702.29899670 0 19723
0.13750000 0.13749600 12129.44898429 0 414.61365034 0 1584.99919697 0 -493.17568237 0 397.32215732 0 20946
0.13850000 0.13851100 11837.41687830 0 367.16686361 0 2257.26879524 0 -555.85579897 0 700.98946089 0 20955
0.13950000 0.13949800 11741.75894058 0 343.83014862 0 2691.82111185 0 -650.23005438 0 910.78046987 0 20506
0.14050000 0.14048300 11604.06096912 0 175.92742459 0 3062.70638272 0 -446.72481729 0 508.91371746 0 21447
0.14150000 0.14148400 11476.14236381 0 112.39447981 0 3414.51626930 0 -426.89743346 0 199.12475550 0 21771
0.14250000 0.14249400 11568.09088678 0 66.53228761 0 3691.63203177 0 -305.42196914 0 352.15497456 0 22470
0.14350000 0.14350900 11514.47298280 0 16.74115076 0 3885.75806989 0 -0.74345664 0 -15.64451287 0 22519
0.14450000 0.14449900 11537.06669077 0 160.29167942 0 4118.41705872 0 -62.45676488 0 323.31708511 0 22218
0.14550000 0.14550500 11384.75587336 0 187.50641891 0 3629.77473080 0 400.85959011 0 409.15406628 0 23559
0.14650000 0.14650700 11112.58599721 0 161.22690156 0 4007.11213519 0 512.04311462 0 410.29274420 0 23044
0.14750000 0.14750500 11095.96107478 0 170.25764036 0 3688.40596501 0 636.02524405 0 991.88738522 0 23649
0.14850000 0.14849900 10906.39874085 0 165.82320365 0 3842.86374671 0 584.25305491 0 906.06276876 0 23640
0.14950000 0.14949500 10658.23889467 0 323.83640317 0 3614.68977752 0 319.22548824 0 1375.78820557 0 24457
0.15050000 0.15050000 10481.51338387 0 290.28081261 0 3578.84334234 0 113.37545140 0 1436.95982685 0 24591
0.15150000 0.15149900 10318.02935964 0 166.37624366 0 3528.78872463 0 34.87243280 0 1891.57670501 0 25020
0.15250000 0.15250500 10299.63965505 0 -5.48924814 0 3216.53468797 0 396.50945828 0 1698.60845391 0 25297
0.15350000 0.15350100 10171.30514565 0 -24.87173825 0 3373.44293153 0 197.83432880 0 1610.57167739 0 25452
0.15450000 0.15450400 10141.00035128 0 89.87451051 0 2872.03122437 0 162.14526273 0 1300.53204892 0 26061
0.15550000 0.15549900 9922.27976936 0 159.90612510 0 3069.64186422 0 34.85321128 0 918.29147269 0 26128
0.15650000 0.15649500 9920.41382133 0 207.17306143 0 2723.94689164 0 -231.03583886 0 860.82027363 0 26331
0.15750000 0.15749700 9696.35393031 0 156.25516175 0 2788.14224797 0 -251.69727897 0 580.29184960 0 27345
0.15850000 0.15849900 9641.20729783 0 99.27686522 0 2778.17179077 0 -133.43888889 0 694.11580296 0 26980
0.15950000 0.15949700 9581.62060830 0 71.46356109 0 2814.90623736 0 117.13095281 0 506.78698634 0 27777
0.16050000 0.16050000 9606.70974073 0 -17.99167315 0 2454.38484646 0 406.02129692 0 504.27694903 0 28224
0.16150000 0.16150500 9544.51522024 0 -69.26084317 0 2210.31659714 0 535.15951285 0 303.75835283 0 28075
0.16250000 0.16249700 9666.75729694 0 57.28246853 0 2079.34053482 0 394.97286132 0 315.04396617 0 28590
0.16350000 0.16349900 9491.02096341 0 99.21065779 0 1886.15871136 0 215.24497272 0 444.70712048 0 29163
0.16450000 0.16449100 9312.48570785 0 149.37026317 0 1878.60499407 0 96.56843043 0 480.27366346 0 28996
0.16550000 0.16550500 9237.62297398 0 226.47438280 0 1834.09201717 0 -76.13944698 0 374.23723292 0 30777
0.16650000 0.16650700 9038.42740238 0 95.66648062 0 1555.60489531 0 150.98666875 0 30.57367074 0 29211
0.16750000 0.16749900 8989.91275382 0 45.52632156 0 1679.17336880 0 82.45264605 0 -2.64840972 0 30922
0.16850000 0.16850800 8955.43767803 0 -20.66559915 0 1411.98310092 0 198.09623596 0 -199.48220820 0 30867
0.16950000 0.16949900 8868.78350155 0 77.99584045 0 1411.87069442 0 199.74861162 0 -148.61713957 0 30852
0.17050000 0.17049200 8859.66733380 0 35.19279134 0 1200.33288831 0 44.66910953 0 -434.43766197 0 31257
0.17150000 0.17149500 8699.81403976 0 112.73248618 0 1226.44491996 0 11.78582229 0 -516.52251393 0 32608
0.17250000 0.17250900 8885.32973942 0 34.78621700 0 1213.12474884 0 -33.61010772 0 -93.99982933 0 32361
0.17350000 0.17350400 8645.01586744 0 73.21013340 0 1437.27456507 0 -259.63317839 0 -488.56139524 0 32508
0.17450000 0.17449800 8912.34102313 0 121.35406529 0 1730.91408411 0 -358.78471036 0 -33.57402523 0 32791
0.17550000 0.17549800 8736.63841155 0 178.36889393 0 1732.89243864 0 -235.85020957 0 -313.54221523 0 33633
0.17650000 0.17650100 8620.45504560 0 308.95040941 0 2153.22533208 0 -423.14193205 0 70.97886423 0 33984
0.17750000 0.17750300 8457.55553520 0 258.09433330 0 1899.83858330 0 -225.39303220 0 -218.44518598 0 34069
