### header ###
fiducial parameters:
Omega_m = 0.31
Omega_nu = 0
Omega_de = 0.69
Omega_k = 0
H_0 = 100
w_de = -1
zeff = 0
beta = 0
fgrowth = 0
b_1 = 2
gamma = 0.55
Lx = 3500 Ly = 3500 Lz = 3500
nx = 700 ny = 700 nz = 700
xoffset = 857.220397 yoffset = 15.9954215 zoffset = 262.898189
bins = 400 dk = 0.001
kx_ny = 0.628318531 ky_ny = 0.628318531 kz_ny = 0.628318531
############################
A(data) = 3.04723728 (not used)
A(ran) = 3.04785089 (used)
Ngal = 186129
weighted Ngal = 0
Nran = 9360983
weighted Nran = 0
SN(data) = 3435.24748
SN(ran) = 68.4432767
SN(data+ran) = 3503.69076
############################
13 columns: k_central k_mean P_0(k) sigma^{lin}_{P_0(k)} P^img_1(k) sigma^{lin}_{P_1(k)} P_2(k) sigma^{lin}_{P_2(k)} P^img_3(k) sigma^{lin}_{P_3(k)} P_4(k) sigma^{lin}_{P_4(k)} N_modes
### header ###
0.00050000 0 0 0 0 0 0 0 0 0 0 0 0
0.00150000 0.00179520 11661.27588134 0 -22815.03638219 0 1023.02286368 0 40647.09229532 0 37079.64697283 0 3
0.00250000 0.00253879 24208.42744680 0 -26138.33477080 0 -768.05455534 0 -23368.30121116 0 -24586.90015691 0 6
0.00350000 0.00331552 41747.21478236 0 -26476.22873178 0 11988.82844365 0 -25870.80728341 0 28716.82764198 0 7
0.00450000 0.00420575 58069.98852185 0 -20664.58749084 0 5478.28850286 0 -16537.58257496 0 -3998.35566827 0 24
0.00550000 0.00557378 78484.02190790 0 -5935.92911607 0 31559.36339884 0 -25587.65529149 0 24580.94261202 0 45
0.00650000 0.00659388 75550.09966060 0 1903.36814763 0 -15617.53531262 0 -1869.44386372 0 -66480.01858576 0 40
0.00750000 0.00754703 83367.97224401 0 2809.60065021 0 43273.69515163 0 -16324.90946313 0 23005.67781858 0 57
0.00850000 0.00846663 70128.73381304 0 4585.43237465 0 -6626.73454739 0 9955.99048090 0 -48437.08806491 0 75
0.00950000 0.00948925 73572.08235147 0 51.65922060 0 11539.09000790 0 13663.34818304 0 -9199.59585256 0 112
0.01050000 0.01054430 72269.40333825 0 -5359.29497422 0 -11945.43953182 0 -23166.64393705 0 -27622.88751284 0 105
0.01150000 0.01145670 72009.74430637 0 -803.95606971 0 -16717.43298665 0 -15104.28720025 0 -20354.00831114 0 144
0.01250000 0.01249090 78020.00784572 0 -1190.19382135 0 -10294.33406790 0 -35219.54408986 0 -18895.19665927 0 169
0.01350000 0.01339930 73127.06498903 0 1576.38885851 0 4911.95079708 0 -42262.48621187 0 -10198.81101799 0 180
0.01450000 0.01448870 77627.48432220 0 3986.38437524 0 13497.43617825 0 -20639.74565272 0 -14098.47377284 0 267
0.01550000 0.01550050 84646.03423212 0 2162.88105105 0 20233.95816134 0 -13601.18738450 0 -40774.67368112 0 238
0.01650000 0.01653350 76841.08839706 0 3010.52728203 0 35063.41145121 0 -4711.55247585 0 -15411.38177822 0 315
0.01750000 0.01747870 79629.78143691 0 4470.12577945 0 36072.59707384 0 13352.65659684 0 -41896.49062407 0 297
0.01850000 0.01844180 71218.06527538 0 1998.47529346 0 31964.13923166 0 10587.64760808 0 -9554.31706768 0 388
0.01950000 0.01947590 72478.59184836 0 3655.57202423 0 24664.57305346 0 7314.34763391 0 -31481.35328276 0 399
0.02050000 0.02045430 65834.58042079 0 2737.91902050 0 15076.29797993 0 14244.04019980 0 -20085.80638470 0 462
0.02150000 0.02154770 64555.50677411 0 -61.26919013 0 8977.17709655 0 18393.52641715 0 -5263.55835194 0 571
0.02250000 0.02255340 57050.79872007 0 45.14694960 0 -7178.00978119 0 18761.77013510 0 -6258.25477578 0 510
0.02350000 0.02348930 66205.85911444 0 -3391.43921335 0 -4923.41626082 0 17123.89491708 0 7764.09731031 0 555
0.02450000 0.02439640 59934.13803908 0 -1920.99348797 0 -2551.78508505 0 6702.64266178 0 353.66009769 0 592
0.02550000 0.02547300 70070.84446178 0 -3008.44776164 0 -4792.13670094 0 -1751.59688146 0 21917.35801481 0 837
0.02650000 0.02652900 68496.81613992 0 -759.35316761 0 8427.61044166 0 -12510.39463756 0 9879.68894374 0 723
0.02750000 0.02749970 74293.05768935 0 623.48067784 0 13327.58994571 0 -10897.46242352 0 31141.09878514 0 826
0.02850000 0.02848090 69946.97249072 0 3092.16812829 0 17536.76401843 0 -6956.04065121 0 14664.10331762 0 831
0.02950000 0.02946900 70901.07892477 0 5461.33760156 0 22587.07598536 0 -8558.47409747 0 22331.12636822 0 996
0.03050000 0.03053250 66509.01946465 0 2546.80547677 0 16023.09799100 0 6432.94572879 0 16360.76713896 0 1041
0.03150000 0.03150510 63288.01099768 0 1796.49204048 0 13495.75008064 0 6372.83072868 0 11474.00664017 0 1036
0.03250000 0.03246190 62250.49893521 0 -1127.65084068 0 5461.79846824 0 11923.52026290 0 16229.58874493 0 1059
0.03350000 0.03345080 60524.04738944 0 404.63982095 0 2600.68191573 0 3402.11783154 0 1241.37250413 0 1302
0.03450000 0.03451200 60597.11161919 0 1257.58152248 0 1916.91313176 0 -3668.35264411 0 2753.95942909 0 1339
0.03550000 0.03553350 57292.80993031 0 2463.24247924 0 3001.33242973 0 -7618.39599553 0 -1705.74626713 0 1365
0.03650000 0.03647120 55504.08517949 0 3739.75325755 0 2589.57615280 0 -6584.22240633 0 -729.87456107 0 1308
0.03750000 0.03744890 52796.66204442 0 3245.10842213 0 3420.06915076 0 -3382.34552691 0 -8450.72121956 0 1579
0.03850000 0.03847530 51255.56882920 0 3063.67307868 0 9084.10940695 0 -915.72748026 0 -8517.83914507 0 1662
0.03950000 0.03950240 47728.81466235 0 2619.42008049 0 5814.01301824 0 736.96965981 0 -7740.66055353 0 1683
0.04050000 0.04050350 44665.73733816 0 2439.64835335 0 7099.59500169 0 461.70523252 0 -5451.37838501 0 1822
0.04150000 0.04152450 44091.78971183 0 1474.44739703 0 8914.87016954 0 365.89554601 0 -2856.29431335 0 1887
0.04250000 0.04250150 43737.25958778 0 1113.17625474 0 12345.71910435 0 -3472.52926772 0 -1261.63939740 0 1920
0.04350000 0.04349210 44251.74417174 0 803.79532841 0 17584.76159706 0 -1708.69131762 0 4869.23632430 0 2005
0.04450000 0.04448520 44672.14450908 0 -56.61162650 0 20184.61170463 0 -2105.21651280 0 3891.59196762 0 2151
0.04550000 0.04548030 44489.59634120 0 961.75120061 0 21535.51310948 0 475.08497908 0 6108.22581047 0 2274
0.04650000 0.04648670 44501.62383749 0 1155.96603987 0 23427.98906655 0 -240.27677783 0 4494.07960615 0 2311
0.04750000 0.04749250 42093.65163789 0 1778.10233588 0 22259.74823607 0 1114.11035281 0 671.46364361 0 2568
0.04850000 0.04851840 41711.35710653 0 1987.93156308 0 22415.54365521 0 464.07813388 0 1753.33918232 0 2493
0.04950000 0.04949480 40199.48958321 0 1320.84390480 0 23960.00906564 0 -2301.47827457 0 784.42206687 0 2644
0.05050000 0.05050630 39235.82859605 0 1875.99716310 0 25219.29916704 0 1148.14254696 0 -61.42093891 0 2829
0.05150000 0.05149060 37981.37197447 0 1104.56254408 0 25967.47687969 0 -814.72798531 0 -999.39276771 0 2784
0.05250000 0.05249300 36859.21781199 0 1242.26051554 0 24397.94481812 0 1053.78740066 0 486.47288234 0 3055
0.05350000 0.05348950 36761.19933762 0 697.93425202 0 26799.50984680 0 3693.76775541 0 194.52058496 0 3009
0.05450000 0.05448610 36183.99192258 0 253.20465024 0 24051.17074307 0 2227.17757324 0 877.95776973 0 3336
0.05550000 0.05550870 35452.11315349 0 397.44692855 0 19363.36976222 0 2560.50783001 0 -2639.45092010 0 3349
0.05650000 0.05647670 34346.48274759 0 917.22585900 0 20763.84243679 0 1887.87853092 0 -1928.83946218 0 3324
0.05750000 0.05747970 33365.17393877 0 869.19118623 0 18571.12869870 0 321.46799806 0 -983.24444887 0 3639
0.05850000 0.05849280 33153.62489201 0 903.94503016 0 18601.70326869 0 519.21802198 0 -1647.10379226 0 3846
0.05950000 0.05951020 31509.56731610 0 567.02675767 0 18500.31259909 0 1419.50309626 0 -1058.58828259 0 3787
0.06050000 0.06049470 32441.86688773 0 385.13841600 0 18391.16588050 0 1010.90769032 0 271.15709352 0 3930
0.06150000 0.06148310 31808.90584507 0 855.10889899 0 19754.88162718 0 1375.85564947 0 1822.00831764 0 4083
0.06250000 0.06249100 31392.55214199 0 757.29163227 0 18199.06315950 0 1378.09253897 0 700.84895275 0 4303
0.06350000 0.06350600 30730.02818791 0 254.81768362 0 18090.70328646 0 2149.72948970 0 2005.07355544 0 4470
0.06450000 0.06451750 31089.05457225 0 -157.62090081 0 15977.34854252 0 2343.30473594 0 1401.31572338 0 4479
0.06550000 0.06550280 30725.41952111 0 -395.71474427 0 13968.98147642 0 2605.49291424 0 -1947.86988387 0 4636
0.06650000 0.06648880 30574.45758179 0 -49.29598619 0 11981.52202067 0 1885.25945930 0 -1472.41283925 0 4653
0.06750000 0.06749660 30675.73584487 0 187.04330410 0 11917.67512452 0 243.06783141 0 -1995.27170800 0 5220
0.06850000 0.06852730 30000.28514245 0 859.18700708 0 11001.29231433 0 -511.39340501 0 -1034.62883556 0 5029
0.06950000 0.06949320 30591.43096439 0 577.23326853 0 12950.46611368 0 -65.62314378 0 -2542.48906689 0 5040
0.07050000 0.07048030 29357.20751413 0 524.94288540 0 13576.45795289 0 -989.08059473 0 -2287.24761074 0 5475
0.07150000 0.07148790 29933.96530314 0 525.75783258 0 14194.69374310 0 406.56534442 0 -2050.92416977 0 5509
0.07250000 0.07249820 28898.70137081 0 322.58307061 0 14790.22341882 0 -2.67897305 0 123.01318534 0 5916
0.07350000 0.07351270 28486.28189549 0 287.13230634 0 13883.21531134 0 2393.06709672 0 -1831.28185449 0 5721
0.07450000 0.07449140 28680.18312060 0 -124.66893319 0 12338.41268138 0 2441.64918918 0 -1453.66343383 0 6028
0.07550000 0.07549160 28053.62924886 0 -102.56138337 0 10960.21897655 0 2619.09410162 0 -1800.97706012 0 6183
0.07650000 0.07648840 28503.48009111 0 401.89710217 0 9267.74791794 0 1538.06948017 0 -2402.77901896 0 6330
0.07750000 0.07749960 26892.47002835 0 655.03318444 0 8629.31267837 0 -332.43774911 0 -2551.27925576 0 6583
0.07850000 0.07848650 26706.32485224 0 1410.75786999 0 8793.60602946 0 -950.70838533 0 -2666.57461031 0 6549
0.07950000 0.07947320 26072.68937053 0 1106.92420480 0 9568.58145345 0 -1215.85622697 0 -127.05532334 0 6828
0.08050000 0.08048110 24975.26463967 0 549.66220042 0 9284.59765339 0 -564.40094166 0 -2704.02845855 0 7147
0.08150000 0.08149960 25206.48482520 0 76.54804463 0 9808.70423437 0 934.72980032 0 -545.92805625 0 7386
0.08250000 0.08250610 24998.42038017 0 -278.24432380 0 9303.76296288 0 1509.63063382 0 -1344.08957051 0 7227
0.08350000 0.08350160 25106.55544021 0 437.94362093 0 7974.91571477 0 1284.93002571 0 -1298.76726676 0 7798
0.08450000 0.08449610 24562.95757085 0 1184.52853338 0 8848.22435136 0 366.62506424 0 -1457.19299816 0 7371
0.08550000 0.08548940 23213.18023108 0 1503.33586941 0 8204.49476530 0 225.06480520 0 -1735.39910375 0 8256
0.08650000 0.08650700 21835.30126447 0 1206.35787710 0 8748.67714849 0 568.89720195 0 29.39756145 0 8037
0.08750000 0.08749060 21191.32438409 0 647.76273154 0 9026.90573538 0 219.65243187 0 -68.17758166 0 8155
0.08850000 0.08849210 21217.17788078 0 -366.25974309 0 9217.77198479 0 714.05671736 0 1626.58960468 0 8718
0.08950000 0.08949900 21309.57602978 0 -406.13145530 0 9611.40833274 0 692.63653333 0 623.34803816 0 8571
0.09050000 0.09049190 22001.77530180 0 -387.90136795 0 9298.05271231 0 967.40862012 0 771.96068147 0 8932
0.09150000 0.09150830 22062.02518972 0 -141.52428896 0 8242.38699891 0 179.90436682 0 858.27314217 0 9285
0.09250000 0.09250820 22187.02122584 0 374.84310399 0 8887.83640454 0 -929.34103236 0 1236.96616904 0 9204
0.09350000 0.09350330 21727.95304999 0 687.50742440 0 8482.59970503 0 -176.90873340 0 -625.53546879 0 9349
0.09450000 0.09448040 20919.07582339 0 1172.06265172 0 9290.17301615 0 -600.46319733 0 -532.40555342 0 9564
0.09550000 0.09549270 20449.89106188 0 891.15429369 0 9334.70847435 0 -841.06820217 0 378.66155304 0 10155
0.09650000 0.09649430 19382.92849449 0 541.40706652 0 9197.61749803 0 508.41688069 0 -1533.49453532 0 9913
0.09750000 0.09749140 19459.92695200 0 -42.20268595 0 9173.49506156 0 1508.18058988 0 102.65288226 0 10476
0.09850000 0.09850240 19031.43334613 0 -192.87158150 0 7507.29340371 0 2703.27533495 0 -1736.99527616 0 10575
0.09950000 0.09950330 19260.85502755 0 22.27087648 0 6386.35323151 0 2017.73052817 0 -1010.42321827 0 10882
0.10050000 0.10051200 18710.06314173 0 359.03200467 0 4544.86486616 0 1687.83991051 0 -1166.50977026 0 10875
0.10150000 0.10150300 18441.41158926 0 242.22927886 0 3875.98994441 0 1686.62592023 0 -881.01859893 0 11118
0.10250000 0.10250800 17981.44416135 0 276.69536213 0 2809.24094939 0 919.10417174 0 813.85908301 0 11575
0.10350000 0.10349800 17792.60122907 0 160.40183780 0 2817.16560815 0 704.87422978 0 -15.87651991 0 11364
0.10450000 0.10450100 17723.47122708 0 284.30078642 0 3386.85302785 0 -6.48306779 0 1700.69921495 0 12093
0.10550000 0.10551000 17139.29460859 0 774.17958593 0 4085.60559924 0 -1266.57404307 0 1728.83456373 0 12067
0.10650000 0.10649700 17203.02909823 0 685.27278303 0 5053.71788410 0 -1306.52331576 0 3687.86641378 0 12054
0.10750000 0.10749900 16473.39845928 0 325.66300891 0 5762.77813221 0 -652.17019070 0 2803.71054923 0 12807
0.10850000 0.10850100 16766.10500432 0 197.92987433 0 5880.04060064 0 -29.50749501 0 2900.78480894 0 12736
0.10950000 0.10950300 16521.95807044 0 -126.47867796 0 5542.56254374 0 624.73625852 0 1126.51553496 0 12933
0.11050000 0.11050200 16225.54211066 0 218.22037297 0 4671.41211209 0 743.00701332 0 604.42665078 0 13428
0.11150000 0.11150900 15849.42993720 0 638.70501519 0 4586.23046085 0 240.56116629 0 179.11190094 0 13453
0.11250000 0.11250000 15248.16752960 0 693.46946555 0 3972.46844963 0 -85.57147701 0 -179.92010373 0 13668
0.11350000 0.11349100 14657.58374020 0 580.63019318 0 4284.75620824 0 316.11744831 0 395.56973987 0 13791
0.11450000 0.11448600 14320.25181176 0 148.29453290 0 4168.49415773 0 -128.65037168 0 79.45768707 0 14205
0.11550000 0.11549300 14372.07121163 0 -136.33110833 0 4341.45405053 0 -60.20661141 0 339.01240572 0 14776
0.11650000 0.11649800 14602.27973860 0 -95.96919134 0 4747.45511428 0 -538.12816871 0 86.20994597 0 14553
0.11750000 0.11747300 14770.55228004 0 184.50966142 0 5168.29383700 0 -927.75048028 0 -200.34436611 0 14568
0.11850000 0.11849100 14659.83187034 0 170.75222899 0 5165.12397349 0 -763.30650447 0 -635.95442795 0 16015
0.11950000 0.11950300 14482.67921482 0 172.88008418 0 6243.60820788 0 -539.04540580 0 -946.18065122 0 15270
0.12050000 0.12050700 14490.88488986 0 56.74786318 0 5801.74946829 0 219.25676096 0 -774.72925375 0 15999
0.12150000 0.12150000 14574.40292479 0 20.76451688 0 6421.33413659 0 611.02940902 0 -1156.22457484 0 15670
0.12250000 0.12250700 14470.31449902 0 82.52110162 0 6092.10671733 0 496.15220668 0 -489.72367853 0 16887
0.12350000 0.12352200 14529.55272837 0 135.91295612 0 6460.78882065 0 363.31918886 0 -505.30546857 0 16407
0.12450000 0.12449800 14267.98278586 0 403.44381571 0 6485.41708640 0 -114.27582753 0 592.59474182 0 16306
0.12550000 0.12549900 14111.96255372 0 333.53483662 0 6554.78314206 0 171.68070674 0 818.70155534 0 17523
0.12650000 0.12650100 13813.07365078 0 226.68458297 0 6529.76145354 0 199.46534722 0 1092.24616307 0 17154
0.12750000 0.12750600 13734.72631518 0 106.61554887 0 6173.79252619 0 851.25110766 0 945.08019151 0 18007
0.12850000 0.12850300 13563.86842407 0 83.58817659 0 5805.25655132 0 1250.62355968 0 633.76587325 0 17496
0.12950000 0.12949900 13380.08378462 0 127.08117684 0 4859.22090450 0 762.12061582 0 1265.75347556 0 18405
0.13050000 0.13049000 13395.25866311 0 152.48617156 0 4649.43663991 0 811.19617285 0 591.71235074 0 18100
0.13150000 0.13148800 13028.47622976 0 292.55142405 0 4492.53963700 0 -122.01276742 0 1134.76617260 0 19059
0.13250000 0.13249300 12919.32951116 0 241.28056794 0 4701.71690646 0 -446.72032103 0 488.60073752 0 18957
0.13350000 0.13349100 12693.84205749 0 317.88785080 0 5276.93472631 0 -745.26863225 0 664.32583040 0 19468
0.13450000 0.13450700 12579.07501353 0 257.78184321 0 5787.30523210 0 -586.60347498 0 537.35256380 0 19953
0.13550000 0.13551000 12394.39112202 0 145.68445380 0 5918.80960501 0 -284.99770676 0 581.28664719 0 19956
0.13650000 0.13649900 12346.16873038 0 88.98571226 0 5824.21952911 0 162.68706209 0 399.92661610 0 19723
0.13750000 0.13749600 12380.90234114 0 59.54037804 0 5873.52102321 0 587.66234428 0 -11.46591337 0 20946
0.13850000 0.13851100 12153.39157035 0 221.48240981 0 5482.79600380 0 833.99670879 0 684.26562073 0 20955
0.13950000 0.13949800 11964.77345108 0 222.25576658 0 4778.11960948 0 869.70151177 0 176.46023144 0 20506
0.14050000 0.14048300 11556.28820352 0 225.63695432 0 4713.83432795 0 679.74575507 0 440.79200183 0 21447
0.14150000 0.14148400 11341.70418106 0 244.95288853 0 4180.15071254 0 331.36314290 0 -260.80895046 0 21771
0.14250000 0.14249400 11258.29855264 0 203.13654375 0 3676.56955979 0 -6.02344882 0 -609.93794183 0 22470
0.14350000 0.14350900 11028.47220779 0 125.82447209 0 3755.77118484 0 -367.07131808 0 -811.67502457 0 22519
0.14450000 0.14449900 10966.24396535 0 49.05937049 0 3295.02815203 0 -506.22158161 0 -1582.99836114 0 22218
0.14550000 0.14550500 11027.35938337 0 -36.71455064 0 3665.23898385 0 -309.21793689 0 -1864.17199853 0 23559
0.14650000 0.14650700 10978.72108766 0 0.16582433 0 3196.82982724 0 -52.47236927 0 -2434.61254183 0 23044
0.14750000 0.14750500 11092.99354299 0 88.18773846 0 3511.62425096 0 18.02977896 0 -2432.55550274 0 23649
0.14850000 0.14849900 10875.39702614 0 167.20130743 0 3229.15793875 0 267.30267438 0 -2273.89371767 0 23640
0.14950000 0.14949500 10709.76603762 0 210.63068559 0 3204.63083885 0 598.92997257 0 -1741.01942912 0 24457
0.15050000 0.15050000 10566.03183672 0 276.54586148 0 3383.87425541 0 555.96033702 0 -1044.19800153 0 24591
0.15150000 0.15149900 10377.80714023 0 330.51784596 0 3211.55507970 0 713.46995539 0 -251.13412237 0 25020
0.15250000 0.15250500 10044.22958914 0 336.13255100 0 3135.66944662 0 586.65068572 0 567.42242858 0 25297
0.15350000 0.15350100 9842.54983372 0 191.30913105 0 3176.69782178 0 536.84673452 0 1062.49665685 0 25452
0.15450000 0.15450400 9737.39354613 0 125.07921694 0 3122.61905112 0 317.95979097 0 1629.80443079 0 26061
0.15550000 0.15549900 9619.65897038 0 37.88931104 0 3174.64078270 0 379.70131324 0 1515.67810392 0 26128
0.15650000 0.15649500 9675.65989232 0 93.98386761 0 3070.39498782 0 -15.35697703 0 1915.57549432 0 26331
0.15750000 0.15749700 9579.02401798 0 43.91014080 0 3071.40664639 0 70.08287196 0 1551.91796187 0 27345
0.15850000 0.15849900 9537.30996312 0 -2.51067803 0 2734.02975535 0 115.64493879 0 1606.65993093 0 26980
0.15950000 0.15949700 9545.34702839 0 -74.64871188 0 2507.58684637 0 184.09937767 0 1022.05391959 0 27777
0.16050000 0.16050000 9643.37674342 0 -116.96234305 0 2286.56193105 0 97.99453179 0 709.64813414 0 28224
0.16150000 0.16150500 9797.73335926 0 -35.98514481 0 2240.63263216 0 -27.91896625 0 197.63649335 0 28075
0.16250000 0.16249700 9736.92143880 0 19.28187504 0 2197.98560329 0 -188.77324025 0 215.17752881 0 28590
0.16350000 0.16349900 9573.74091214 0 243.61749923 0 2036.90707831 0 -310.17788847 0 57.17838011 0 29163
0.16450000 0.16449100 9547.12305121 0 240.63872678 0 2422.48387969 0 -357.44932105 0 264.52848178 0 28996
0.16550000 0.16550500 9366.21601834 0 289.52993714 0 2708.35610908 0 -165.15888119 0 95.04858204 0 30777
0.16650000 0.16650700 9065.34876088 0 225.54927724 0 2738.77330996 0 128.61664973 0 210.46207583 0 29211
0.16750000 0.16749900 8987.08010984 0 174.92026229 0 2772.97861013 0 138.29934627 0 392.51228288 0 30922
0.16850000 0.16850800 8840.00743567 0 35.23651747 0 2750.41862411 0 423.56682865 0 357.54486658 0 30867
0.16950000 0.16949900 8870.45835851 0 48.15303682 0 2626.18695223 0 438.14370452 0 577.45583342 0 30852
0.17050000 0.17049200 8731.92857890 0 119.81297208 0 2454.49725297 0 267.29143373 0 431.38132904 0 31257
0.17150000 0.17149500 8607.16859643 0 235.60628745 0 2581.80886315 0 -43.88563618 0 503.18435778 0 32608
0.17250000 0.17250900 8430.21827263 0 234.64858401 0 2579.14482892 0 -114.27133127 0 763.54817846 0 32361
0.17350000 0.17350400 8374.49836695 0 212.10770710 0 2737.91902050 0 -186.56108018 0 711.80633908 0 32508
0.17450000 0.17449800 8139.22030650 0 130.95133289 0 2748.46275089 0 115.55388951 0 745.93295470 0 32791
0.17550000 0.17549800 8228.33618550 0 66.10064662 0 2858.36259308 0 170.89273713 0 806.05807140 0 33633
0.17650000 0.17650100 8073.15900216 0 -19.53917354 0 2589.35133979 0 264.64763268 0 679.01061651 0 33984
0.17750000 0.17750300 8167.45682114 0 44.31604069 0 2572.71517671 0 210.78580657 0 749.57829774 0 34069
