### header ###
fiducial parameters:
Omega_m = 0.31
Omega_nu = 0
Omega_de = 0.69
Omega_k = 0
H_0 = 100
w_de = -1
zeff = 0
beta = 0
fgrowth = 0
b_1 = 2
gamma = 0.55
Lx = 3500 Ly = 3500 Lz = 3500
nx = 700 ny = 700 nz = 700
xoffset = 857.220397 yoffset = 15.9954215 zoffset = 262.898189
bins = 400 dk = 0.001
kx_ny = 0.628318531 ky_ny = 0.628318531 kz_ny = 0.628318531
############################
A(data) = 3.08900579 (not used)
A(ran) = 3.08901567 (used)
Ngal = 188408
weighted Ngal = 0
Nran = 9360983
weighted Nran = 0
SN(data) = 3441.55194
SN(ran) = 69.3676829
SN(data+ran) = 3510.91962
############################
13 columns: k_central k_mean P_0(k) sigma^{lin}_{P_0(k)} P^img_1(k) sigma^{lin}_{P_1(k)} P_2(k) sigma^{lin}_{P_2(k)} P^img_3(k) sigma^{lin}_{P_3(k)} P_4(k) sigma^{lin}_{P_4(k)} N_modes
### header ###
0.00050000 0 0 0 0 0 0 0 0 0 0 0 0
0.00150000 0.00179520 28725.59534956 0 -37662.02508720 0 -27612.20889465 0 62173.05085168 0 -21852.94908612 0 3
0.00250000 0.00253879 55145.73323418 0 -43853.26310332 0 -22161.72976170 0 -33023.45815655 0 16461.82058903 0 6
0.00350000 0.00331552 69704.96128049 0 -28169.18313837 0 -34530.60460656 0 -43690.72329375 0 3029.88368259 0 7
0.00450000 0.00420575 84738.20756811 0 -12001.30556596 0 -40010.19702490 0 -42621.40018971 0 9960.19448427 0 24
0.00550000 0.00557378 77901.19416750 0 -3171.63952895 0 -29798.85268135 0 -42031.15361983 0 23062.33069827 0 45
0.00650000 0.00659388 90431.48475685 0 -2826.37170110 0 -12702.38495205 0 -42613.08210817 0 -14001.69177004 0 40
0.00750000 0.00754703 86476.34939065 0 -16909.76052066 0 2318.93500515 0 -16937.74974098 0 -715.48990033 0 57
0.00850000 0.00846663 102989.65216002 0 -15116.65191605 0 26603.24808504 0 -35663.10016771 0 -13707.86115994 0 75
0.00950000 0.00948925 115193.06462612 0 -4190.40218601 0 29371.59554707 0 -32965.34399227 0 -20415.15745112 0 112
0.01050000 0.01054430 111100.23128846 0 9511.64755750 0 48648.41229866 0 -36409.47937625 0 -24643.44063009 0 105
0.01150000 0.01145670 110554.04806944 0 19496.90869290 0 52087.03976377 0 -36916.99475675 0 -18888.11504931 0 144
0.01250000 0.01249090 96754.12598002 0 16500.71324056 0 43290.33131471 0 -9759.75120044 0 -33234.78239029 0 169
0.01350000 0.01339930 87234.64368896 0 13189.44234822 0 38753.82949270 0 3079.93830029 0 -32055.97534813 0 180
0.01450000 0.01448870 77479.66976508 0 -1436.93734555 0 7904.21202167 0 24220.90456911 0 -43434.99848962 0 267
0.01550000 0.01550050 78045.97374891 0 -4962.25270910 0 6111.32823008 0 16362.90286260 0 -64694.77843667 0 238
0.01650000 0.01653350 78895.20491164 0 -6285.86181398 0 -30769.59527848 0 18248.07239669 0 -45973.02501817 0 315
0.01750000 0.01747870 82385.08974409 0 -3696.92637826 0 -24659.73957365 0 -6215.21432413 0 -42666.81241867 0 297
0.01850000 0.01844180 80960.67448346 0 4597.41490832 0 -33053.69550702 0 -12684.73713040 0 -23322.55176269 0 388
0.01950000 0.01947590 75198.82932526 0 5537.62789807 0 -12980.25383812 0 -20703.70495538 0 -33989.70449339 0 399
0.02050000 0.02045430 73757.44068202 0 7207.96611539 0 70.35714384 0 -28914.21346882 0 -24096.24575250 0 462
0.02150000 0.02154770 70288.12624041 0 4773.26364836 0 15108.55864753 0 -24439.53522583 0 -27814.31579479 0 571
0.02250000 0.02255340 66200.23878907 0 1988.72964928 0 27584.21967433 0 -8766.90948397 0 -30233.19142560 0 510
0.02350000 0.02348930 65530.52081852 0 1403.65377873 0 20275.66097555 0 -3781.17505549 0 -32501.66714962 0 555
0.02450000 0.02439640 69457.66696440 0 372.94680621 0 29416.89536951 0 5595.33739892 0 -39932.07450232 0 592
0.02550000 0.02547300 64700.73598156 0 73.56151614 0 20913.34309152 0 11094.99437882 0 -27413.58659623 0 837
0.02650000 0.02652900 65509.50080165 0 892.05691795 0 19257.25801932 0 16190.80849991 0 -13533.29385408 0 723
0.02750000 0.02749970 65289.97089287 0 165.62986446 0 9975.77402618 0 7373.84439823 0 -4555.32991199 0 826
0.02850000 0.02848090 61986.00642351 0 1785.48744341 0 19938.77867314 0 8744.30453535 0 7106.82274011 0 831
0.02950000 0.02946900 62521.96065037 0 2889.78021188 0 26262.31914837 0 -3165.72694667 0 16145.28386444 0 996
0.03050000 0.03053250 61886.63907105 0 345.86695454 0 29642.15801016 0 974.65434358 0 22875.39867661 0 1041
0.03150000 0.03150510 63377.26176449 0 -637.88894394 0 38716.39812577 0 -2590.22811055 0 23510.83266243 0 1036
0.03250000 0.03246190 70025.43223283 0 -4939.36674421 0 29232.21147800 0 3813.28959463 0 14323.17438095 0 1059
0.03350000 0.03345080 65569.41347005 0 -2684.22243196 0 34435.62110788 0 4487.41390027 0 2747.57473948 0 1302
0.03450000 0.03451200 74504.15711008 0 1351.12621787 0 24665.02267949 0 -9113.63859642 0 -2392.72987720 0 1339
0.03550000 0.03553350 65134.06306724 0 3000.26456791 0 23846.25368025 0 -3918.26603181 0 -13905.35939328 0 1365
0.03650000 0.03647120 65721.27466142 0 7036.92837387 0 20301.17725271 0 -10833.95274689 0 -14118.81935066 0 1308
0.03750000 0.03744890 58634.04437553 0 4342.54439365 0 23278.15119230 0 -905.32088581 0 -20324.33299321 0 1579
0.03850000 0.03847530 54974.53812355 0 5852.34363723 0 22734.89054247 0 -3081.43330684 0 -19472.96610685 0 1662
0.03950000 0.03950240 49848.23935768 0 3646.93920446 0 24609.71867790 0 5040.77989511 0 -25339.91134938 0 1683
0.04050000 0.04050350 46353.63345192 0 3192.27736370 0 23594.57551038 0 3396.19400861 0 -17211.45958628 0 1822
0.04150000 0.04152450 44334.92498715 0 1867.84769132 0 23524.32144331 0 3477.05924997 0 -12640.67377954 0 1887
0.04250000 0.04250150 43020.55569717 0 -295.40992154 0 22845.94817170 0 2510.37452775 0 -11499.07329130 0 1920
0.04350000 0.04349210 44888.63944215 0 -877.08999150 0 23071.88525139 0 1525.31134159 0 -9688.94634148 0 2005
0.04450000 0.04448520 45537.33739584 0 141.72999287 0 23983.50202567 0 -1260.51533232 0 -9402.06245353 0 2151
0.04550000 0.04548030 45108.61897696 0 727.53538165 0 25484.35371127 0 -3157.36390253 0 -6126.31201750 0 2274
0.04650000 0.04648670 45322.19134085 0 1492.47740081 0 27355.36002545 0 -2097.35929794 0 -3078.33088724 0 2311
0.04750000 0.04749250 45465.50963767 0 1325.36264639 0 29941.83375865 0 2044.17977934 0 341.00537310 0 2568
0.04850000 0.04851840 43359.34891020 0 1519.28635280 0 28691.87339736 0 4624.45991398 0 1666.64004323 0 2493
0.04950000 0.04949480 44253.65508236 0 87.12178756 0 28432.55158500 0 8281.00987482 0 5753.60576121 0 2644
0.05050000 0.05050630 42160.98313577 0 190.14347557 0 24428.18216859 0 7304.36593606 0 7638.75281401 0 2829
0.05150000 0.05149060 42603.52755505 0 1084.00451796 0 23713.38918861 0 6781.04620063 0 9990.66788840 0 2784
0.05250000 0.05249300 40814.80280423 0 898.44385569 0 21681.41675596 0 3879.01367946 0 12171.82623755 0 3055
0.05350000 0.05348950 39393.64733231 0 1075.95958423 0 20015.77713065 0 1933.58301679 0 10813.12382109 0 3009
0.05450000 0.05448610 38725.72786587 0 331.82288551 0 18397.23583189 0 2843.14275199 0 12838.17201288 0 3336
0.05550000 0.05550870 38562.28880425 0 48.06187514 0 20365.92340092 0 3110.40046377 0 12233.53741006 0 3349
0.05650000 0.05647670 38724.04176826 0 126.39324901 0 15559.64596136 0 3883.40877389 0 11237.35722033 0 3324
0.05750000 0.05747970 38554.53275524 0 226.62613158 0 16695.96334376 0 3324.37749109 0 13167.52307930 0 3639
0.05850000 0.05849280 37894.93137035 0 1012.90178176 0 15495.46184569 0 3211.82485532 0 13815.32178092 0 3846
0.05950000 0.05951020 36853.48508012 0 1652.52178592 0 14340.03535705 0 1545.87049178 0 14892.85056000 0 3787
0.06050000 0.06049470 34557.46976181 0 1962.61761763 0 13522.84004890 0 2039.03156130 0 12800.06620690 0 3930
0.06150000 0.06148310 33380.79844329 0 1791.28761919 0 14338.01203992 0 544.79949491 0 16743.51129635 0 4083
0.06250000 0.06249100 31894.22238411 0 826.35419036 0 10757.85354144 0 1685.51309581 0 11421.51280125 0 4303
0.06350000 0.06350600 31075.11616535 0 178.67351556 0 14348.57825160 0 264.49925609 0 13088.05167863 0 4470
0.06450000 0.06451750 31041.16940014 0 -284.43792236 0 9368.90253387 0 484.15168796 0 6384.49852414 0 4479
0.06550000 0.06550280 31633.66410017 0 -122.78387606 0 13954.59344348 0 -789.85467337 0 8781.78086489 0 4636
0.06650000 0.06648880 31233.94656018 0 15.02987409 0 9203.11417624 0 -2113.38846589 0 4091.60810673 0 4653
0.06750000 0.06749660 31402.89354066 0 -184.31857036 0 12259.84053277 0 -906.43708243 0 1870.29815318 0 5220
0.06850000 0.06852730 32143.76483034 0 528.57811184 0 10465.05707120 0 -1981.11972873 0 294.30608963 0 5029
0.06950000 0.06949320 30681.46857675 0 397.53010936 0 11545.94680484 0 -548.33917583 0 -1667.71914570 0 5040
0.07050000 0.07048030 30660.89818591 0 959.89199698 0 10084.86454153 0 -850.33724276 0 -2787.87247235 0 5475
0.07150000 0.07148790 29690.04318227 0 642.17950033 0 10647.79633014 0 343.56262114 0 -5412.17099526 0 5509
0.07250000 0.07249820 29224.00580297 0 1075.69880113 0 8580.87671437 0 -55.26645782 0 -4913.05238085 0 5916
0.07350000 0.07351270 27949.09119706 0 1097.30108371 0 9575.78671057 0 652.77606177 0 -5505.24358331 0 5721
0.07450000 0.07449140 26776.24169979 0 1082.39935303 0 9158.44383023 0 124.77009905 0 -4114.53903422 0 6028
0.07550000 0.07549160 26411.93220960 0 801.97097079 0 9947.11036682 0 1761.60106061 0 -1824.45877950 0 6183
0.07650000 0.07648840 25867.43508819 0 413.86389894 0 10369.89372211 0 2310.84173663 0 -382.19673770 0 6330
0.07750000 0.07749960 26096.85676961 0 -160.83010659 0 9545.31330644 0 3018.18216518 0 2625.25397822 0 6583
0.07850000 0.07848650 25970.51185539 0 -102.29902658 0 10267.51387526 0 2086.86053016 0 4269.98599318 0 6549
0.07950000 0.07947320 26118.55122552 0 -9.50349809 0 8774.95778989 0 2201.13298549 0 7067.18820564 0 6828
0.08050000 0.08048110 26053.58026429 0 174.95398424 0 9071.46367488 0 888.27331491 0 6970.92327278 0 7147
0.08150000 0.08149960 25993.78000240 0 208.04645999 0 7150.90857228 0 569.28050814 0 7496.89580178 0 7386
0.08250000 0.08250610 25816.73975339 0 178.09799425 0 7780.53114168 0 1006.64523556 0 5880.58015187 0 7227
0.08350000 0.08350160 25195.46898749 0 333.20211336 0 6892.45229002 0 -342.50262777 0 5074.96271398 0 7798
0.08450000 0.08449610 24646.02597976 0 414.37872074 0 7161.18252705 0 -273.64689766 0 3287.32830628 0 7371
0.08550000 0.08548940 24478.98990989 0 770.84223672 0 7692.26955214 0 -638.83765486 0 1728.42990030 0 8256
0.08650000 0.08650700 23695.06692791 0 732.31940260 0 6935.76251729 0 -880.79490998 0 2935.15871888 0 8037
0.08750000 0.08749060 23512.18154052 0 795.63911224 0 7621.91431921 0 26.33156156 0 1627.56754129 0 8155
0.08850000 0.08849210 22798.51262561 0 489.16501819 0 8366.94464966 0 206.74254450 0 2766.32414490 0 8718
0.08950000 0.08949900 22152.40002159 0 679.28938465 0 7267.04697563 0 412.01256376 0 1159.85530503 0 8571
0.09050000 0.09049190 22010.99263540 0 508.29435760 0 8360.05413076 0 273.30855407 0 2964.93520266 0 8932
0.09150000 0.09150830 21433.44800084 0 189.88943686 0 7731.12848171 0 155.09175440 0 1211.50609514 0 9285
0.09250000 0.09250820 21515.16753165 0 251.47696222 0 8182.45184921 0 -585.60755333 0 1150.82906249 0 9204
0.09350000 0.09350330 21608.46493272 0 168.18149217 0 8689.67497280 0 -846.63120021 0 -342.93764096 0 9349
0.09450000 0.09448040 20983.82197160 0 332.16572536 0 7979.17592139 0 -277.38666215 0 -776.73570990 0 9564
0.09550000 0.09549270 21076.55734013 0 542.54124818 0 8700.91562353 0 -42.49067142 0 -1036.51052049 0 10155
0.09650000 0.09649430 20051.85961949 0 420.30591587 0 7456.44069980 0 1338.95259312 0 -845.87807661 0 9913
0.09750000 0.09749140 20044.21597700 0 445.70416620 0 6939.20215641 0 1818.87217608 0 -1294.61946664 0 10476
0.09850000 0.09850240 19298.84842702 0 573.71944111 0 5856.03057067 0 1997.27254383 0 -518.15802862 0 10575
0.09950000 0.09950330 18442.76046735 0 729.92064774 0 5516.16949582 0 1899.66997354 0 721.65989352 0 10882
0.10050000 0.10051200 17887.69713426 0 755.92701727 0 5382.34954887 0 622.19811959 0 804.36747753 0 10875
0.10150000 0.10150300 17366.91778589 0 471.65096028 0 5181.01825363 0 -265.02531854 0 926.62641520 0 11118
0.10250000 0.10250800 17149.07397472 0 389.59645808 0 6857.12292478 0 -1146.41148675 0 2018.12395094 0 11575
0.10350000 0.10349800 17078.81990765 0 198.05239742 0 6913.26997518 0 -1588.54000195 0 1173.14175419 0 11364
0.10450000 0.10450100 17311.16415826 0 -50.12329808 0 7742.98736823 0 -736.45708614 0 865.56270417 0 12093
0.10550000 0.10551000 17282.83771842 0 -41.28747217 0 7726.44113036 0 -658.18955916 0 144.14898091 0 12067
0.10650000 0.10649700 17392.77128257 0 -178.20590449 0 7987.14554276 0 363.68113782 0 1.22302776 0 12054
0.10750000 0.10749900 17464.14941471 0 18.60687397 0 6670.50564134 0 891.93439485 0 -1838.09368883 0 12807
0.10850000 0.10850100 17349.60718376 0 131.81124267 0 6329.39685426 0 1235.28007143 0 -1834.39551474 0 12736
0.10950000 0.10950300 16668.76096899 0 294.58822997 0 4936.62402543 0 842.59131034 0 -2716.95520689 0 12933
0.11050000 0.11050200 16741.26316620 0 356.65797924 0 5576.46434634 0 423.62528003 0 -2310.87545858 0 13428
0.11150000 0.11150900 16101.33292009 0 256.41947635 0 4335.13680482 0 -238.85933177 0 -2231.08931969 0 13453
0.11250000 0.11250000 16188.78518277 0 266.18535370 0 4890.36874768 0 -168.14327396 0 -2205.11217585 0 13668
0.11350000 0.11349100 15773.89276429 0 69.72362076 0 4725.70445512 0 -64.85563215 0 -2355.34347287 0 13791
0.11450000 0.11448600 16031.30366603 0 -47.12800188 0 4819.46272286 0 394.48951334 0 -1669.24787420 0 14205
0.11550000 0.11549300 15867.86460440 0 78.11173156 0 4030.11050658 0 1037.48396084 0 -2101.16987854 0 14776
0.11650000 0.11649800 15864.60481569 0 101.99226922 0 3718.36229921 0 1042.67714148 0 -1397.80864035 0 14553
0.11750000 0.11747300 15425.88221766 0 232.39820573 0 3000.10719880 0 648.15053399 0 -1594.52002814 0 14568
0.11850000 0.11849100 15135.08658325 0 526.82344626 0 3074.09316191 0 440.02988571 0 -1019.52364911 0 16015
0.11950000 0.11950300 14698.49970886 0 539.23649687 0 2976.74912658 0 14.75605184 0 -922.41791557 0 15270
0.12050000 0.12050700 14253.59475293 0 479.97353808 0 2946.63542327 0 93.76838433 0 -81.71065070 0 15999
0.12150000 0.12150000 13920.19705224 0 228.48645928 0 3509.94939401 0 -244.16491892 0 -528.76470665 0 15670
0.12250000 0.12250700 13928.73994680 0 152.63679628 0 3711.01091363 0 -116.67008613 0 0.54664746 0 16887
0.12350000 0.12352200 13760.01777933 0 107.79592960 0 3673.00627351 0 -35.58497765 0 -234.01798350 0 16407
0.12450000 0.12449800 13673.68958171 0 217.56054677 0 4495.83314767 0 -510.27046400 0 -140.80938358 0 16306
0.12550000 0.12549900 13860.95882289 0 116.62961979 0 4505.17412843 0 -452.00679906 0 157.25782779 0 17523
0.12650000 0.12650100 13844.43506632 0 64.51706375 0 5230.22982253 0 -323.67453780 0 -410.43662453 0 17154
0.12750000 0.12750600 13878.15701851 0 217.90113849 0 5354.67506677 0 -624.01348468 0 37.86806622 0 18007
0.12850000 0.12850300 13645.58795489 0 255.78550364 0 6015.97378992 0 -197.81184750 0 38.29689704 0 17496
0.12950000 0.12949900 13475.62931583 0 202.85103122 0 5588.17710440 0 13.13346391 0 -111.54918288 0 18405
0.13050000 0.13049000 13491.92825939 0 24.33252423 0 5714.48829667 0 332.14661625 0 -198.26259759 0 18100
0.13150000 0.13148800 13123.90935446 0 -49.91849342 0 4759.19035365 0 753.10224174 0 -903.09748509 0 19059
0.13250000 0.13249300 13145.15418434 0 3.67193841 0 4128.38751592 0 824.68495373 0 -1825.04329333 0 18957
0.13350000 0.13349100 12871.21952603 0 93.20949918 0 3375.71354298 0 263.48422533 0 -2214.26206555 0 19468
0.13450000 0.13450700 12745.43664435 0 355.39228197 0 3502.48560192 0 -254.00948083 0 -1770.81839421 0 19953
0.13550000 0.13551000 12459.02486372 0 494.46273688 0 3549.92114801 0 -380.91080726 0 -1764.95077453 0 19956
0.13650000 0.13649900 12093.92852798 0 427.19980697 0 3998.11961460 0 -20.22788821 0 -604.36145501 0 19723
0.13750000 0.13749600 11804.25695864 0 405.13440958 0 4046.34200624 0 404.39589883 0 -373.70330201 0 20946
0.13850000 0.13851100 11585.51389542 0 295.47511731 0 4372.87166932 0 840.31395450 0 694.39232297 0 20955
0.13950000 0.13949800 11504.69361666 0 174.98545806 0 4360.42826896 0 745.63058120 0 1101.11166431 0 20506
0.14050000 0.14048300 11329.33946526 0 96.65172365 0 4187.09743469 0 717.43003665 0 1433.37405926 0 21447
0.14150000 0.14148400 11269.42679686 0 167.95443103 0 3696.88141566 0 523.85591447 0 1559.71897348 0 21771
0.14250000 0.14249400 11113.92363465 0 -50.85933589 0 3243.55721233 0 653.48871903 0 1531.59486535 0 22470
0.14350000 0.14350900 11061.26118598 0 -163.79426619 0 2427.69954163 0 584.61163167 0 859.79849848 0 22519
0.14450000 0.14449900 11262.79481293 0 -100.40610100 0 2019.68640139 0 184.96490778 0 349.12786731 0 22218
0.14550000 0.14550500 11239.44798136 0 -114.70971664 0 1968.29414625 0 171.61775910 0 -17.79878359 0 23559
0.14650000 0.14650700 11275.83396778 0 58.82603469 0 1542.63318437 0 -186.16540928 0 -390.85541096 0 23044
0.14750000 0.14750500 11239.75147893 0 167.07766027 0 1652.30821355 0 -333.52472003 0 -498.41719780 0 23649
0.14850000 0.14849900 11169.47493056 0 256.44757797 0 1900.09711827 0 -452.67674185 0 -461.56922064 0 23640
0.14950000 0.14949500 10821.29577417 0 364.61073963 0 2264.50777431 0 -465.41577132 0 -1090.04636773 0 24457
0.15050000 0.15050000 10679.11278307 0 305.35789743 0 2295.45328578 0 -450.28922763 0 -961.83775362 0 24591
0.15150000 0.15149900 10415.82302100 0 254.10053010 0 2609.21356963 0 -207.38663379 0 -1198.14096142 0 25020
0.15250000 0.15250500 10243.35771684 0 64.10453187 0 2540.12853024 0 10.83730246 0 -1140.48766382 0 25297
0.15350000 0.15350100 10233.48842549 0 82.50738802 0 2713.41440191 0 391.57706073 0 -1179.41403730 0 25452
0.15450000 0.15450400 10238.17577685 0 124.57563579 0 2697.02553314 0 155.47393652 0 -1055.92087617 0 26061
0.15550000 0.15549900 10084.39243420 0 226.99707306 0 2559.40624624 0 265.99763483 0 -870.52545147 0 26128
0.15650000 0.15649500 9762.49391922 0 375.81542028 0 2787.61393738 0 -177.77201538 0 -286.70628567 0 26331
0.15750000 0.15749700 9498.68708721 0 287.79775286 0 2590.86882764 0 210.46657209 0 -386.39961701 0 27345
0.15850000 0.15849900 9342.67809571 0 134.05487655 0 3038.24672673 0 102.60758244 0 42.36972202 0 26980
0.15950000 0.15949700 9249.15588163 0 2.04366271 0 2457.36361890 0 79.19510547 0 -464.80652805 0 27777
0.16050000 0.16050000 9181.59957074 0 -27.95909538 0 2588.31719992 0 251.77146727 0 -431.53082969 0 28224
0.16150000 0.16150500 9292.78084712 0 -111.78388767 0 1925.65835803 0 283.97817974 0 -1133.36109125 0 28075
0.16250000 0.16249700 9353.08693829 0 -60.34633270 0 2170.96307893 0 198.38849288 0 -1023.50733572 0 28590
0.16350000 0.16349900 9269.65882857 0 79.87291671 0 1528.54864900 0 30.77645208 0 -1146.75994692 0 29163
0.16450000 0.16449100 9250.94314510 0 144.89985638 0 1815.52246217 0 58.98385343 0 -1479.80918743 0 28996
0.16550000 0.16550500 9128.21772042 0 220.49210848 0 1712.25460390 0 -484.12920666 0 -1071.93543127 0 30777
0.16650000 0.16650700 8919.66992741 0 252.28516501 0 2130.77775257 0 -306.31447681 0 -1150.73913728 0 29211
0.16750000 0.16749900 8900.52709921 0 215.28543906 0 2361.42466492 0 -497.00312394 0 -958.00019546 0 30922
0.16850000 0.16850800 8724.86945024 0 158.41449075 0 2746.03477033 0 -219.00497039 0 -787.89317982 0 30867
0.16950000 0.16949900 8907.33893355 0 117.16917102 0 2823.53905712 0 45.15998875 0 -613.07633152 0 30852
0.17050000 0.17049200 8669.91390881 0 76.61054265 0 2820.43663752 0 425.10117747 0 -373.58527517 0 31257
0.17150000 0.17149500 8649.97299442 0 158.95516605 0 2643.92469909 0 641.67367104 0 -315.98705676 0 32608
0.17250000 0.17250900 8402.67867833 0 95.30891552 0 2217.57805751 0 776.35689997 0 -53.72671349 0 32361
0.17350000 0.17350400 8296.85919235 0 126.17518039 0 1970.91321787 0 713.15971343 0 -94.78869820 0 32508
0.17450000 0.17449800 8171.00886677 0 69.90594412 0 1619.09209064 0 304.70144343 0 -60.99424381 0 32791
0.17550000 0.17549800 8025.68973412 0 64.70399577 0 1584.75190266 0 49.20100269 0 -155.82464482 0 33633
0.17650000 0.17650100 8060.20977251 0 80.05242990 0 1750.24800337 0 -261.90041764 0 31.81306489 0 33984
