### header ###
fiducial parameters:
Omega_m = 0.31
Omega_nu = 0
Omega_de = 0.69
Omega_k = 0
H_0 = 100
w_de = -1
zeff = 0
beta = 0
fgrowth = 0
b_1 = 2
gamma = 0.55
Lx = 3500 Ly = 3500 Lz = 3500
nx = 700 ny = 700 nz = 700
xoffset = 857.220397 yoffset = 15.9954215 zoffset = 262.898189
bins = 400 dk = 0.001
kx_ny = 0.628318531 ky_ny = 0.628318531 kz_ny = 0.628318531
############################
A(data) = 3.09812757 (not used)
A(ran) = 3.0955552 (used)
Ngal = 188429
weighted Ngal = 0
Nran = 9360983
weighted Nran = 0
SN(data) = 3456.28511
SN(ran) = 69.514536
SN(data+ran) = 3525.79965
############################
13 columns: k_central k_mean P_0(k) sigma^{lin}_{P_0(k)} P^img_1(k) sigma^{lin}_{P_1(k)} P_2(k) sigma^{lin}_{P_2(k)} P^img_3(k) sigma^{lin}_{P_3(k)} P_4(k) sigma^{lin}_{P_4(k)} N_modes
### header ###
0.00050000 0 0 0 0 0 0 0 0 0 0 0 0
0.00150000 0.00179520 26603.36049154 0 -26400.46674585 0 8026.73511464 0 47063.14332606 0 -6390.82701050 0 3
0.00250000 0.00253879 59033.42469600 0 -41653.46775527 0 -4923.59611124 0 -10461.48254427 0 29525.81727509 0 6
0.00350000 0.00331552 77449.20760160 0 -31339.27145753 0 13547.90670003 0 -34235.87474439 0 4435.57201910 0 7
0.00450000 0.00420575 104075.16180112 0 -13253.85127691 0 9549.85452934 0 -27052.87411428 0 -650.39978821 0 24
0.00550000 0.00557378 105755.97630492 0 4495.30483708 0 34279.26365622 0 -22790.08213756 0 24735.38915307 0 45
0.00650000 0.00659388 111664.06232913 0 16051.19961783 0 18809.54290070 0 -9383.79639609 0 -58739.59408590 0 40
0.00750000 0.00754703 96981.52434431 0 82.08417752 0 41303.32148500 0 16124.60106710 0 8804.35209156 0 57
0.00850000 0.00846663 104642.02781748 0 -7424.46104847 0 14139.95177404 0 36693.41821371 0 -30683.26708086 0 75
0.00950000 0.00948925 103431.74695327 0 -9866.39125392 0 12738.80466042 0 22091.70050765 0 -8883.55371661 0 112
0.01050000 0.01054430 117986.36633278 0 -15400.36594050 0 -25648.12999242 0 22121.03860605 0 -49270.58231662 0 105
0.01150000 0.01145670 109419.97881719 0 3244.79368391 0 -32037.65308744 0 6506.86424800 0 -7806.77806113 0 144
0.01250000 0.01249090 105798.91559071 0 9108.49037838 0 -39362.28591677 0 -17886.79788220 0 -10616.34498939 0 169
0.01350000 0.01339930 91994.60964750 0 12397.76331724 0 -31591.28684691 0 -15441.73153519 0 3970.33272599 0 180
0.01450000 0.01448870 81911.63353530 0 8946.78237697 0 -35258.09952187 0 -23808.48509379 0 8479.98063341 0 267
0.01550000 0.01550050 75156.90169803 0 7476.74131502 0 -19587.28352478 0 -24527.32470804 0 -6157.01023465 0 238
0.01650000 0.01653350 72742.40992101 0 637.69785288 0 -13535.31717122 0 -17358.26248483 0 -3841.34625886 0 315
0.01750000 0.01747870 74148.61532746 0 -1616.95636700 0 -6303.72320799 0 -5731.45043862 0 -19519.72721389 0 297
0.01850000 0.01844180 75659.92081824 0 1685.51309581 0 -11398.01984123 0 -4845.13636913 0 -15387.77641168 0 388
0.01950000 0.01947590 71246.05449570 0 -36.94756933 0 -743.86579903 0 -1878.67243797 0 -25841.91881103 0 399
0.02050000 0.02045430 73686.06254988 0 3501.53014661 0 -8198.46977650 0 -4403.58112712 0 -21013.60969604 0 462
0.02150000 0.02154770 69948.09655580 0 3965.45428358 0 -6242.63027126 0 131.88205877 0 -15373.16356573 0 571
0.02250000 0.02255340 66549.03618125 0 3723.53299855 0 -11732.76641999 0 6399.83077174 0 -14962.43018802 0 510
0.02350000 0.02348930 60422.43190683 0 3221.46933365 0 -5605.39778132 0 10103.85000061 0 -1497.08606761 0 555
0.02450000 0.02439640 56109.61903437 0 1952.95065800 0 -8627.58161816 0 8744.15840689 0 844.80009821 0 592
0.02550000 0.02547300 56991.67289723 0 -307.01252122 0 -7060.08411437 0 8557.13646003 0 16411.68728677 0 837
0.02650000 0.02652900 59645.59053481 0 -1016.61906496 0 -6763.88172696 0 -2081.45377716 0 16632.56607363 0 723
0.02750000 0.02749970 58258.49423461 0 -346.80330074 0 -394.18039544 0 -2095.69568164 0 29936.43824630 0 826
0.02850000 0.02848090 61521.76754832 0 -1781.46329045 0 6530.78435275 0 -8547.30089064 0 15951.38263933 0 831
0.02950000 0.02946900 65847.84438865 0 695.46692918 0 12761.62318140 0 -6499.52410307 0 21125.45417081 0 996
0.03050000 0.03053250 63421.66233488 0 1613.20198966 0 19029.07280948 0 -8211.32908094 0 10798.38732798 0 1041
0.03150000 0.03150510 62908.97625504 0 2207.86613528 0 26670.12995689 0 -5906.97319979 0 9868.72930927 0 1036
0.03250000 0.03246190 59052.30898923 0 1330.83684330 0 18191.41951701 0 -2060.69229526 0 6032.26149283 0 1059
0.03350000 0.03345080 60575.41716328 0 2018.98948105 0 24724.26090884 0 1609.50381557 0 -3371.62194611 0 1302
0.03450000 0.03451200 57112.06026656 0 2493.99689964 0 19503.42827033 0 213.13510258 0 -5431.13397304 0 1339
0.03550000 0.03553350 54878.43055980 0 3813.22215073 0 16175.29640190 0 2818.01989761 0 -9835.55814897 0 1365
0.03650000 0.03647120 49866.44921187 0 4146.14774408 0 14468.96562093 0 -4572.35949785 0 -12109.32821948 0 1308
0.03750000 0.03744890 48338.17033848 0 3771.87903734 0 14347.45418653 0 -2494.61513543 0 -14212.67878427 0 1579
0.03850000 0.03847530 44357.18147559 0 1543.54367708 0 14126.80021268 0 -1707.94943467 0 -13211.92364969 0 1662
0.03950000 0.03950240 44754.20125941 0 218.25746711 0 14600.70604750 0 2402.71157505 0 -9215.11919122 0 1683
0.04050000 0.04050350 43329.22396624 0 -589.31921620 0 12248.71228855 0 5219.28142872 0 -11575.84693579 0 1822
0.04150000 0.04152450 44803.77252914 0 -1865.65576443 0 12480.60691313 0 7540.38587946 0 -3719.95847161 0 1887
0.04250000 0.04250150 46447.83010505 0 -1766.22096806 0 7153.23538698 0 7328.98296116 0 -8114.00752691 0 1920
0.04350000 0.04349210 48602.10081764 0 -1408.18376098 0 5140.76548336 0 1525.74972697 0 -2643.48631371 0 2005
0.04450000 0.04448520 47374.95897734 0 1242.13686838 0 5454.49204526 0 -812.36632459 0 -4899.60856258 0 2151
0.04550000 0.04548030 46367.90907835 0 2213.91360537 0 8752.16175021 0 -2064.07573113 0 1193.71214503 0 2274
0.04650000 0.04648670 43876.41884383 0 2092.40217097 0 7677.47685577 0 -2835.60027535 0 -3396.36261837 0 2311
0.04750000 0.04749250 43252.78754127 0 1319.05664133 0 8714.67418002 0 861.22943332 0 -58.58076369 0 2568
0.04850000 0.04851840 41559.83313468 0 521.57968270 0 10605.48652079 0 -635.84426957 0 -8455.88067824 0 2493
0.04950000 0.04949480 42623.87313287 0 398.81041948 0 9070.90164234 0 284.78863066 0 -3543.75003075 0 2644
0.05050000 0.05050630 40368.66137672 0 -48.51296246 0 8106.19527465 0 1112.19494593 0 -6719.73969154 0 2829
0.05150000 0.05149060 42186.72422595 0 -21.08127841 0 5919.16930583 0 3757.85070523 0 -5132.90826850 0 2784
0.05250000 0.05249300 41953.48072328 0 -443.38521995 0 6344.74034251 0 1384.98305787 0 -1863.73361315 0 3055
0.05350000 0.05348950 42224.49281240 0 620.52101450 0 636.10954893 0 4186.60284606 0 -2850.13443675 0 3009
0.05450000 0.05448610 40074.15632756 0 1663.32405127 0 2961.66417330 0 1636.64998708 0 -693.24240440 0 3336
0.05550000 0.05550870 38042.97074047 0 2585.61944375 0 2354.81516229 0 -562.18203720 0 -1513.48617702 0 3349
0.05650000 0.05647670 36090.02008247 0 2199.15463096 0 4175.49708314 0 -1792.35548101 0 564.82134200 0 3324
0.05750000 0.05747970 35295.98051483 0 1592.57539557 0 4619.25549269 0 -1898.47846456 0 2026.58816094 0 3639
0.05850000 0.05849280 34132.91038370 0 937.80861455 0 8087.45710989 0 -1395.49306630 0 1192.23961978 0 3846
0.05950000 0.05951020 33399.23311049 0 469.36348786 0 8866.90631287 0 -1474.77337591 0 997.36383025 0 3787
0.06050000 0.06049470 34339.06391810 0 120.52562933 0 9832.65806108 0 -811.44571529 0 1670.06844171 0 3930
0.06150000 0.06148310 34250.15037082 0 337.83775772 0 11847.08383793 0 -518.54245887 0 -1319.86596818 0 4083
0.06250000 0.06249100 33953.84681755 0 472.37598225 0 12548.16322402 0 -979.01346794 0 -3426.35267452 0 4303
0.06350000 0.06350600 33129.68230596 0 693.68978230 0 12530.51540237 0 -2260.78711892 0 -968.13364209 0 4470
0.06450000 0.06451750 33178.80394965 0 753.22701296 0 15462.75155206 0 -1189.74419532 0 -3245.62549207 0 4479
0.06550000 0.06550280 31971.33324813 0 1209.24672434 0 14539.55690752 0 -1003.26854408 0 -2162.02676160 0 4636
0.06650000 0.06648880 31993.14011055 0 627.04059192 0 16286.80365715 0 766.22345334 0 -302.92654468 0 4653
0.06750000 0.06749660 31123.33855698 0 334.52288982 0 15804.69214730 0 1650.54343139 0 -204.06839370 0 5220
0.06850000 0.06852730 30857.49716719 0 248.86913125 0 14666.80107380 0 2471.90902095 0 -1720.31415047 0 5029
0.06950000 0.06949320 30485.76884752 0 483.33898891 0 15457.80566574 0 2300.34296884 0 359.93687706 0 5040
0.07050000 0.07048030 29695.66350764 0 728.82580836 0 11646.32581587 0 1693.25790416 0 -98.19023152 0 5475
0.07150000 0.07148790 29318.31486260 0 992.26169889 0 12087.97098309 0 1988.20133869 0 907.63308766 0 5509
0.07250000 0.07249820 27878.38750396 0 594.62592741 0 9664.86886762 0 1366.42474351 0 97.40327356 0 5916
0.07350000 0.07351270 27385.26015639 0 154.00141127 0 9056.50236875 0 2415.62708274 0 -715.89906002 0 5721
0.07450000 0.07449140 26935.63412715 0 240.89501362 0 7930.23412811 0 365.24358827 0 -272.19348152 0 6028
0.07550000 0.07549160 26836.04196168 0 353.98720063 0 7048.36011566 0 48.76059399 0 -2057.67980086 0 6183
0.07650000 0.07648840 26223.87612287 0 740.38794170 0 7910.99013406 0 -1435.82452112 0 -1934.65087861 0 6330
0.07750000 0.07749960 26221.62799272 0 362.33450786 0 7848.18861843 0 -682.70766654 0 -1996.63182674 0 6583
0.07850000 0.07848650 25939.03803334 0 207.93180535 0 9909.62279663 0 -334.36552071 0 -1827.79725276 0 6549
0.07950000 0.07947320 25823.93376986 0 229.29803426 0 6970.27131503 0 1331.99463032 0 -1947.06055702 0 6828
0.08050000 0.08048110 25904.19201608 0 80.34153944 0 7930.00931510 0 1670.47310513 0 -1203.80624938 0 7147
0.08150000 0.08149960 25464.45775948 0 -306.07842314 0 6020.98712015 0 2967.59923689 0 41.05018203 0 7386
0.08250000 0.08250610 25767.61810969 0 -110.21963871 0 3985.40643863 0 3350.12982191 0 115.11887633 0 7227
0.08350000 0.08350160 25628.45885365 0 -171.14902396 0 3716.40642598 0 1756.11562305 0 -294.04980280 0 7798
0.08450000 0.08449610 24842.73736755 0 575.92598085 0 3224.88649147 0 -769.83507442 0 1635.33483095 0 7371
0.08550000 0.08548940 24825.42676542 0 481.01779454 0 3781.41110916 0 -653.95970229 0 -739.42911419 0 8256
0.08650000 0.08650700 24635.90939410 0 772.95210687 0 3658.08992999 0 -1931.96436309 0 1195.56685240 0 8037
0.08750000 0.08749060 23713.27678210 0 675.60694747 0 4769.92517509 0 -964.61419435 0 -868.56395792 0 8155
0.08850000 0.08849210 23153.60478220 0 1090.07109716 0 5453.27805498 0 -888.05749442 0 -170.40376882 0 8718
0.08950000 0.08949900 21761.45018917 0 1258.13231437 0 6315.48092865 0 -174.72242683 0 -1112.91996790 0 8571
0.09050000 0.09049190 21091.73221862 0 1600.27524132 0 6264.84179711 0 -194.48798708 0 -1029.94935266 0 8932
0.09150000 0.09150830 19523.77384815 0 1132.83278067 0 6524.38842249 0 -12.36426618 0 -621.19770167 0 9285
0.09250000 0.09250820 18661.27871756 0 920.97011976 0 6433.71009304 0 736.31882613 0 -352.71588303 0 9204
0.09350000 0.09350330 18002.80139774 0 271.14922506 0 6203.16434655 0 586.33257530 0 -41.60535777 0 9349
0.09450000 0.09448040 17746.17734155 0 17.68986168 0 5616.78456052 0 897.60755128 0 -733.28160231 0 9564
0.09550000 0.09549270 17956.60232324 0 -162.07444663 0 5421.42205081 0 783.08892570 0 82.81347094 0 10155
0.09650000 0.09649430 18075.86562749 0 -146.87146652 0 5251.42968981 0 129.02131316 0 1080.95268129 0 9913
0.09750000 0.09749140 18209.85418421 0 -211.82669083 0 4996.95259791 0 928.94985771 0 1825.32430960 0 10476
0.09850000 0.09850240 18491.88211105 0 -245.24289732 0 4744.74611746 0 842.22149293 0 2203.14506197 0 10575
0.09950000 0.09950330 18612.38188688 0 -56.61061484 0 5011.90266338 0 716.33744539 0 2110.10619587 0 10882
0.10050000 0.10051200 18947.12846565 0 72.91641519 0 5187.04324242 0 -9.97946096 0 2321.12693205 0 10875
0.10150000 0.10150300 18554.60494213 0 563.04531918 0 5962.04114772 0 -1181.95442436 0 2605.14445407 0 11118
0.10250000 0.10250800 18189.05898035 0 585.44231576 0 6338.34441224 0 -1065.91156654 0 2074.88923713 0 11575
0.10350000 0.10349800 17663.78337169 0 387.96993592 0 7425.54015094 0 -724.43970644 0 2758.38824548 0 11364
0.10450000 0.10450100 17492.13863503 0 329.25214869 0 6196.70097238 0 860.68088956 0 1594.80104441 0 12093
0.10550000 0.10551000 17107.48356702 0 221.74544104 0 6622.23828710 0 1028.41837603 0 770.06213556 0 12067
0.10650000 0.10649700 16736.99171892 0 244.46054803 0 4872.26005935 0 1221.90369706 0 802.76793293 0 12054
0.10750000 0.10749900 16255.77946113 0 252.82584031 0 4654.03406606 0 991.22868309 0 -543.50457195 0 12807
0.10850000 0.10850100 16256.00427414 0 236.95853773 0 3615.64523283 0 35.41097237 0 -570.29553890 0 12736
0.10950000 0.10950300 15764.67543069 0 161.87211492 0 3398.75687697 0 -104.14462902 0 -1072.18834591 0 12933
0.11050000 0.11050200 15882.14023083 0 119.81184801 0 3519.40278127 0 -586.27299985 0 -694.75089973 0 13428
0.11150000 0.11150900 15937.21941941 0 -3.62590795 0 3818.05563054 0 -50.03652026 0 236.95066928 0 13453
0.11250000 0.11250000 15898.43917439 0 44.93450130 0 4436.99958174 0 186.16091302 0 -438.74957559 0 13668
0.11350000 0.11349100 16116.73261159 0 188.59563796 0 4700.28934381 0 -291.77581915 0 477.87603266 0 13791
0.11450000 0.11448600 15888.77221476 0 349.49880879 0 5152.54568533 0 -88.26248879 0 -429.74806249 0 14205
0.11550000 0.11549300 15766.81115433 0 601.06794434 0 5528.00590104 0 -964.65803289 0 1076.57219970 0 14776
0.11650000 0.11649800 15281.77707529 0 486.64374023 0 5750.54830421 0 -465.66868596 0 53.69816223 0 14553
0.11750000 0.11747300 15077.30963849 0 317.11336997 0 6635.80575253 0 -275.45439429 0 669.62804535 0 14568
0.11850000 0.11849100 14806.63476889 0 302.65002467 0 6331.42017139 0 505.11999783 0 641.42637673 0 16015
0.11950000 0.11950300 14544.72760686 0 213.99950862 0 5798.14121941 0 756.93193144 0 195.45131085 0 15270
0.12050000 0.12050700 14278.77381056 0 204.52588818 0 5591.34696791 0 1178.85200476 0 1267.78803335 0 15999
0.12150000 0.12150000 14139.50214801 0 140.43731804 0 4376.90706293 0 1029.45926029 0 -256.54312350 0 15670
0.12250000 0.12250700 13902.99885663 0 46.44299663 0 4780.48014613 0 722.68953712 0 1123.84475634 0 16887
0.12350000 0.12352200 13806.44166685 0 96.11329648 0 4163.89673158 0 318.91974254 0 320.93181902 0 16407
0.12450000 0.12449800 13691.00018384 0 285.06402660 0 4063.94486528 0 -353.13515930 0 586.91259288 0 16306
0.12550000 0.12549900 13435.61259923 0 327.83357857 0 3756.62547430 0 -299.82862134 0 276.53237270 0 17523
0.12650000 0.12650100 12975.19554529 0 416.67406162 0 4107.58107142 0 -226.58116898 0 531.24776639 0 17154
0.12750000 0.12750600 12866.38604621 0 167.32045833 0 3710.88726647 0 58.56896101 0 289.40404185 0 18007
0.12850000 0.12850300 12822.54750836 0 130.65907597 0 4045.33034767 0 344.20783449 0 -220.57753742 0 17496
0.12950000 0.12949900 12602.00594102 0 -6.45532586 0 4017.90315989 0 412.52963370 0 -227.39386803 0 18405
0.13050000 0.13049000 12726.10272509 0 -96.46186906 0 4252.77655691 0 199.91834545 0 437.16014758 0 18100
0.13150000 0.13148800 12832.10206148 0 -1.08909316 0 3891.71561478 0 322.74156379 0 689.03502883 0 19059
0.13250000 0.13249300 12807.70984940 0 76.82130485 0 3704.39017035 0 404.18682272 0 838.21532501 0 18957
0.13350000 0.13349100 12826.48173612 0 91.26014553 0 3527.31619939 0 742.65742908 0 1464.70175285 0 19468
0.13450000 0.13450700 12729.92454634 0 101.62413791 0 3362.08987429 0 960.60690236 0 1623.52090703 0 19953
0.13550000 0.13551000 12493.30884845 0 87.54106383 0 2630.15490194 0 820.25388921 0 1570.83597705 0 19956
0.13650000 0.13649900 12540.96920755 0 256.87247457 0 2383.06291757 0 238.60978933 0 2062.28846766 0 19723
0.13750000 0.13749600 11955.89333700 0 307.62626075 0 2218.79204779 0 -248.89610881 0 1159.48436355 0 20946
0.13850000 0.13851100 11855.40191947 0 344.09542798 0 2474.65173973 0 -528.32969346 0 1537.36131918 0 20955
0.13950000 0.13949800 11541.33813805 0 340.66028512 0 2755.48815759 0 -828.16505919 0 970.53576915 0 20506
0.14050000 0.14048300 11431.85419993 0 152.34903562 0 2967.48683038 0 -668.91201590 0 914.97548072 0 21447
0.14150000 0.14148400 11362.04975889 0 64.04360754 0 2867.65861124 0 -480.53557062 0 -101.94910512 0 21771
0.14250000 0.14249400 11378.68592197 0 -17.43526094 0 3197.51550694 0 163.99210164 0 -717.76613210 0 22470
0.14350000 0.14350900 11405.88829674 0 -13.86343177 0 2841.29928527 0 -18.29505832 0 -1409.57760167 0 22519
0.14450000 0.14449900 11303.82318810 0 -10.33312555 0 2413.27778674 0 407.42525420 0 -2084.06160813 0 22218
0.14550000 0.14550500 11263.35684547 0 146.95352327 0 2138.45511702 0 19.18869005 0 -2141.99592200 0 23559
0.14650000 0.14650700 11060.80031930 0 173.51742907 0 2129.56376229 0 -93.47556538 0 -2806.65559972 0 23044
0.14750000 0.14750500 10941.41336788 0 182.87414674 0 2066.98705967 0 -374.12145421 0 -2672.99302188 0 23649
0.14850000 0.14849900 10790.91229524 0 197.43528570 0 2348.40799137 0 -225.49419805 0 -2631.40261417 0 23640
0.14950000 0.14949500 10823.26288805 0 70.29633192 0 2652.83853512 0 -63.78158797 0 -2257.16762939 0 24457
0.15050000 0.15050000 10610.55605427 0 113.62611791 0 2770.89908974 0 215.91491550 0 -2218.48855022 0 24591
0.15150000 0.15149900 10647.21181630 0 121.61484839 0 3055.27631259 0 291.03955653 0 -1405.81198367 0 25020
0.15250000 0.15250500 10424.43335946 0 195.51763068 0 2651.39973182 0 587.02612345 0 -1753.14809126 0 25297
0.15350000 0.15350100 10328.17966725 0 196.59111283 0 2874.33555777 0 398.59684712 0 -921.76483376 0 25452
0.15450000 0.15450400 10140.31467159 0 251.44211620 0 2443.35776809 0 231.22917806 0 -561.43790613 0 26061
0.15550000 0.15549900 10022.75994624 0 180.19662374 0 2578.34674272 0 186.40146294 0 -490.23512814 0 26128
0.15650000 0.15649500 9680.43716888 0 142.86754673 0 2374.20528480 0 32.14129189 0 -252.33687200 0 26331
0.15750000 0.15749700 9613.85879460 0 257.65707199 0 2467.18794764 0 -154.24083714 0 -271.66629500 0 27345
0.15850000 0.15849900 9490.76242844 0 172.10897554 0 2726.62216652 0 -80.40729725 0 47.77456411 0 26980
0.15950000 0.15949700 9300.73922784 0 245.27549521 0 2705.72579681 0 21.17378897 0 23.58951722 0 27777
0.16050000 0.16050000 9256.33865745 0 95.89331695 0 2741.29121572 0 162.90737885 0 409.63629020 0 28224
0.16150000 0.16150500 9216.76032623 0 17.87083616 0 2493.69340207 0 276.63353855 0 174.31101902 0 28075
0.16250000 0.16249700 9322.44492440 0 -34.37199902 0 2745.25916543 0 33.09494870 0 0.36273692 0 28590
0.16350000 0.16349900 9220.39105641 0 -17.75202248 0 2584.73143234 0 -127.66344255 0 259.13521756 0 29163
0.16450000 0.16449100 9462.70576422 0 -5.43645080 0 2825.58485555 0 -118.65743318 0 208.21731788 0 28996
0.16550000 0.16550500 9447.23862881 0 13.14279365 0 2824.91041651 0 -47.91923129 0 440.05798734 0 30777
0.16650000 0.16650700 9392.57534431 0 72.65495766 0 2743.78664018 0 509.48474251 0 434.47700425 0 29211
0.16750000 0.16749900 9394.18275736 0 109.97380568 0 2669.30608844 0 422.00662633 0 790.88656511 0 30922
0.16850000 0.16850800 9152.99211463 0 176.02409419 0 2403.50966125 0 480.80534624 0 701.86061132 0 30867
0.16950000 0.16949900 9111.69396384 0 274.34381800 0 2364.92050729 0 116.94997834 0 1020.11490733 0 30852
0.17050000 0.17049200 8812.44536008 0 181.76019826 0 2246.39908599 0 -44.57266475 0 683.38997404 0 31257
0.17150000 0.17149500 8670.09375923 0 163.18389886 0 2220.32077629 0 -19.80580177 0 714.51758404 0 32608
0.17250000 0.17250900 8579.59528019 0 47.84178320 0 1987.20092078 0 47.34191146 0 656.02685796 0 32361
0.17350000 0.17350400 8511.56686197 0 52.96010111 0 1816.41047357 0 68.00245232 0 -128.73467656 0 32508
0.17450000 0.17449800 8551.90955744 0 25.72164385 0 1912.91146010 0 60.64061294 0 -58.24455583 0 32791
0.17550000 0.17549800 8366.31517322 0 124.02596797 0 1545.73560397 0 118.20893122 0 -450.37240845 0 33633
0.17650000 0.17650100 8293.97034512 0 160.47715016 0 1710.29873067 0 13.04668608 0 -197.44989855 0 33984
0.17750000 0.17750300 8074.03577291 0 163.55933659 0 1407.23954631 0 71.01955538 0 -173.79170095 0 34069
