### header ###
fiducial parameters:
Omega_m = 0.31
Omega_nu = 0
Omega_de = 0.69
Omega_k = 0
H_0 = 100
w_de = -1
zeff = 0
beta = 0
fgrowth = 0
b_1 = 2
gamma = 0.55
Lx = 3500 Ly = 3500 Lz = 3500
nx = 700 ny = 700 nz = 700
xoffset = 857.220397 yoffset = 15.9954215 zoffset = 262.898189
bins = 400 dk = 0.001
kx_ny = 0.628318531 ky_ny = 0.628318531 kz_ny = 0.628318531
############################
A(data) = 3.07053004 (not used)
A(ran) = 3.07139679 (used)
Ngal = 187321
weighted Ngal = 0
Nran = 9360983
weighted Nran = 0
SN(data) = 3443.61143
SN(ran) = 68.972029
SN(data+ran) = 3512.58346
############################
13 columns: k_central k_mean P_0(k) sigma^{lin}_{P_0(k)} P^img_1(k) sigma^{lin}_{P_1(k)} P_2(k) sigma^{lin}_{P_2(k)} P^img_3(k) sigma^{lin}_{P_3(k)} P_4(k) sigma^{lin}_{P_4(k)} N_modes
### header ###
0.00050000 0 0 0 0 0 0 0 0 0 0 0 0
0.00150000 0.00179520 8817.62730007 0 -24550.48044854 0 -30199.91909943 0 56173.91555655 0 16171.02495462 0 3
0.00250000 0.00253879 18517.73560773 0 -26757.80703259 0 -2111.55623982 0 -42791.92086130 0 -10824.31950922 0 6
0.00350000 0.00331552 38914.57079815 0 -32883.62446146 0 -35852.39272602 0 11532.45802397 0 -12823.10954090 0 7
0.00450000 0.00420575 58697.10442613 0 -31989.54310231 0 -19872.23402081 0 -22634.73634446 0 9797.94693162 0 24
0.00550000 0.00557378 83350.77404839 0 -6738.20808069 0 -23148.88370890 0 -43362.60869892 0 11693.08692291 0 45
0.00650000 0.00659388 90276.25137026 0 -1013.52901007 0 25190.41069466 0 -17371.41404618 0 40693.96580887 0 40
0.00750000 0.00754703 76856.60049506 0 18388.24331131 0 2923.56960797 0 -19617.29606223 0 18221.43205446 0 57
0.00850000 0.00846663 77562.06373494 0 10197.28228949 0 21226.28280787 0 4331.35994617 0 38187.86272840 0 75
0.00950000 0.00948925 65259.84594892 0 -1118.99329149 0 17554.29943357 0 12741.61482310 0 39326.09102142 0 112
0.01050000 0.01054430 82387.00065471 0 -3355.26679930 0 22301.22623727 0 24560.48462769 0 11021.76153931 0 105
0.01150000 0.01145670 74990.65247372 0 -1869.26401331 0 7935.14629248 0 23491.04911715 0 26761.62885384 0 144
0.01250000 0.01249090 76913.92781379 0 3138.14238978 0 10364.04858373 0 10421.80304719 0 17320.26908535 0 169
0.01350000 0.01339930 63368.26924390 0 6682.02730834 0 3119.15693069 0 966.18114106 0 23721.25764412 0 180
0.01450000 0.01448870 59168.87453731 0 683.67773470 0 -17921.30667994 0 20857.02743135 0 18624.52178967 0 267
0.01550000 0.01550050 52827.23661441 0 -2799.15808568 0 -16206.77022394 0 13839.03955397 0 -8913.70114187 0 238
0.01650000 0.01653350 61145.99259439 0 -7267.06945694 0 -33681.48585034 0 257.31985247 0 13522.72764240 0 315
0.01750000 0.01747870 57119.81631556 0 -6981.25343080 0 -21871.72097284 0 -10518.04549875 0 3028.18634433 0 297
0.01850000 0.01844180 64525.38183015 0 620.92005760 0 -11644.75212477 0 -29161.84500442 0 15572.68511621 0 388
0.01950000 0.01947590 69441.81764687 0 551.96990602 0 -1758.20638409 0 -19347.40803818 0 11506.60452729 0 399
0.02050000 0.02045430 71764.81052694 0 3115.12153708 0 3293.10600075 0 -18759.63441146 0 11273.36102462 0 462
0.02150000 0.02154770 68937.78686810 0 3426.28523061 0 21407.59450416 0 -11099.89530254 0 -6742.61441578 0 571
0.02250000 0.02255340 68932.05413622 0 2824.95537911 0 9294.09600325 0 -7068.16614225 0 -13254.75052897 0 510
0.02350000 0.02348930 64053.61171897 0 4353.61643462 0 20916.37806721 0 770.75455965 0 -21067.67722605 0 555
0.02450000 0.02439640 61326.18022560 0 3477.31778493 0 3801.18341379 0 -993.91969487 0 -25043.15817008 0 592
0.02550000 0.02547300 56100.51410727 0 1684.10801447 0 7328.61201969 0 4626.95533845 0 -23462.94749032 0 837
0.02650000 0.02652900 54623.04297519 0 2828.78844101 0 4516.76323933 0 -1525.89585543 0 -26121.24898169 0 723
0.02750000 0.02749970 52561.05800510 0 2113.11869027 0 9547.66260244 0 -1515.59941936 0 -12215.32755588 0 826
0.02850000 0.02848090 51328.63305895 0 2081.65610887 0 10397.20850339 0 -2276.37790149 0 -12172.50067659 0 831
0.02950000 0.02946900 52028.92559949 0 762.72648690 0 18079.68744874 0 -1814.99415158 0 3735.05466554 0 996
0.03050000 0.03053250 52886.58725027 0 -322.96412867 0 21620.82964852 0 4666.20769080 0 7452.67508181 0 1041
0.03150000 0.03150510 52787.78193034 0 -2206.12383442 0 13489.23050322 0 7377.25031540 0 -517.65107527 0 1036
0.03250000 0.03246190 57493.56795237 0 -3764.50517046 0 17534.85310781 0 9749.21871070 0 9589.30921340 0 1059
0.03350000 0.03345080 57711.52417004 0 -2218.93817625 0 8939.27362228 0 -1529.74015798 0 -3523.82035701 0 1302
0.03450000 0.03451200 62201.71451104 0 341.54267620 0 16173.04827175 0 -913.47035759 0 3079.01656693 0 1339
0.03550000 0.03553350 59064.33648551 0 1985.41365731 0 13511.14977214 0 -7140.97183703 0 -3947.22194809 0 1365
0.03650000 0.03647120 59476.19392830 0 4153.29679794 0 22691.27681764 0 -2674.33065931 0 7804.94583506 0 1308
0.03750000 0.03744890 56848.24219390 0 1982.98567676 0 22830.43607369 0 -2074.82179323 0 -1288.85301282 0 1579
0.03850000 0.03847530 56049.59395946 0 2040.71765891 0 24672.44150897 0 4197.29270490 0 2196.51307804 0 1662
0.03950000 0.03950240 52547.34441121 0 1263.28053240 0 18452.76464650 0 5119.19467461 0 -5024.08752877 0 1683
0.04050000 0.04050350 52139.87082221 0 2137.08375763 0 18381.83614039 0 4555.75705672 0 -4543.27993440 0 1822
0.04150000 0.04152450 46977.71438051 0 1995.91242510 0 11251.21694268 0 1527.81800671 0 -9204.28320391 0 1887
0.04250000 0.04250150 45090.74634230 0 2980.86320475 0 7774.77592850 0 1632.17620809 0 -13085.80354848 0 1920
0.04350000 0.04349210 40925.52321393 0 2875.42590089 0 5388.44198157 0 52.77215743 0 -8357.71607541 0 2005
0.04450000 0.04448520 38961.44431170 0 3331.38041649 0 4943.90796711 0 -679.66032612 0 -9257.94607050 0 2151
0.04550000 0.04548030 37581.54202797 0 1377.56422838 0 7781.17185877 0 1337.78356545 0 -1644.25990763 0 2274
0.04650000 0.04648670 36765.80800442 0 -244.58531926 0 9646.69273538 0 4594.40241393 0 1623.08252165 0 2311
0.04750000 0.04749250 38921.31518859 0 -874.86771485 0 10015.04885984 0 4439.91091028 0 8920.64786402 0 2568
0.04850000 0.04851840 39404.21354400 0 -1044.42056641 0 11233.72649014 0 3215.70287982 0 12376.63089387 0 2493
0.04950000 0.04949480 40655.41037686 0 885.94425208 0 14283.27007086 0 2741.81952630 0 17155.70595865 0 2644
0.05050000 0.05050630 39352.84377016 0 2003.92700907 0 11625.98023805 0 534.00284989 0 15163.86264912 0 2829
0.05150000 0.05149060 37802.08359531 0 2120.44759454 0 13237.10270732 0 -617.12971017 0 15620.90750784 0 2784
0.05250000 0.05249300 35430.64351059 0 1686.06388770 0 12167.89200979 0 454.00651083 0 11738.83637139 0 3055
0.05350000 0.05348950 33865.94492884 0 628.25233407 0 10732.26982038 0 311.68188753 0 9160.02876199 0 3009
0.05450000 0.05448610 34659.98449647 0 -961.14757766 0 10157.70395827 0 1744.09936742 0 6510.49497818 0 3336
0.05550000 0.05550870 34850.62593287 0 -1039.58933473 0 10088.91117579 0 -249.08719987 0 5156.40122853 0 3349
0.05650000 0.05647670 36267.95958354 0 -726.72830293 0 11120.49941533 0 -1976.94944731 0 1679.89277045 0 3324
0.05750000 0.05747970 36505.69934650 0 78.59901376 0 12643.37153571 0 -3314.09229567 0 705.57227419 0 3639
0.05850000 0.05849280 37281.41665345 0 671.21072897 0 16993.50336861 0 -3554.48485220 0 -1169.70211507 0 3846
0.05950000 0.05951020 37959.22789253 0 417.72056620 0 16203.39802872 0 -3977.32441075 0 1606.65993093 0 3787
0.06050000 0.06049470 36632.60629326 0 -166.40884155 0 19453.40737458 0 -1.38002593 0 -2542.38790103 0 3930
0.06150000 0.06148310 37581.31721495 0 19.76095158 0 15402.50166414 0 1317.34806242 0 -1212.48403175 0 4083
0.06250000 0.06249100 37213.41071653 0 276.01979902 0 15566.16553878 0 2897.67114869 0 -3387.15652542 0 4303
0.06350000 0.06350600 36763.11024824 0 1209.68510972 0 15524.46272457 0 1579.72733178 0 -3102.37463915 0 4470
0.06450000 0.06451750 35222.01703302 0 1497.80546925 0 13513.73512181 0 1341.31312978 0 -2539.89247657 0 4479
0.06550000 0.06550280 34225.75815874 0 1170.80369884 0 13237.32752034 0 1428.63050466 0 -611.00917585 0 4636
0.06650000 0.06648880 32843.83255787 0 894.67711363 0 12670.34909747 0 1346.73112343 0 1823.27851117 0 4653
0.06750000 0.06749660 32538.08685799 0 620.88858378 0 13014.42541634 0 3187.12914566 0 2474.77538689 0 5220
0.06850000 0.06852730 32005.28001334 0 300.36817257 0 11521.77940577 0 2962.93436683 0 3078.15103683 0 5029
0.06950000 0.06949320 31933.11503564 0 420.63526694 0 11191.21434908 0 1982.99691741 0 4416.51911611 0 5040
0.07050000 0.07048030 31112.54753228 0 883.44320729 0 10479.13036592 0 476.04268252 0 2288.14686280 0 5475
0.07150000 0.07148790 30142.25456118 0 927.09852254 0 9820.63056480 0 -1381.73450981 0 1777.24804643 0 5509
0.07250000 0.07249820 29340.57135105 0 812.38768183 0 10973.33681596 0 -1366.76196303 0 1323.74399268 0 5916
0.07350000 0.07351270 28569.12549138 0 921.31857993 0 11835.39356117 0 -23.50139052 0 1267.36088862 0 5721
0.07450000 0.07449140 28687.93916961 0 476.73173441 0 12230.39002785 0 -187.07590199 0 469.31852526 0 6028
0.07550000 0.07549160 27593.21219492 0 460.06746970 0 11601.25080644 0 844.63823284 0 640.84073882 0 6183
0.07650000 0.07648840 27487.10045201 0 598.85241208 0 13344.67573482 0 1252.65811746 0 1530.08861815 0 6330
0.07750000 0.07749960 26573.34795409 0 737.63735446 0 12614.14584381 0 2149.10001326 0 2408.23073456 0 6583
0.07850000 0.07848650 26659.56374520 0 502.55937760 0 13152.46060732 0 1897.98387593 0 3317.22843722 0 6549
0.07950000 0.07947320 26068.19311024 0 568.60157284 0 12382.36362574 0 1266.38295200 0 5408.43909922 0 6828
0.08050000 0.08048110 25476.59766227 0 659.83294230 0 12696.76462668 0 1201.81665421 0 5217.02205792 0 7147
0.08150000 0.08149960 25133.53300196 0 796.89132073 0 12520.06159719 0 530.68460979 0 7207.13430724 0 7386
0.08250000 0.08250610 24339.26862131 0 392.38863572 0 11080.39277352 0 966.24858497 0 5527.61247827 0 7227
0.08350000 0.08350160 24209.88873139 0 168.14327396 0 10525.52053149 0 1485.87913883 0 5763.74482817 0 7798
0.08450000 0.08449610 23878.28953483 0 -30.99586958 0 9461.17703572 0 1735.64639807 0 4848.11514158 0 7371
0.08550000 0.08548940 23637.06517014 0 250.12808413 0 8161.44307300 0 1437.64550654 0 2147.25654654 0 8256
0.08650000 0.08650700 22893.60853080 0 747.71010158 0 6894.20583154 0 -122.01951182 0 1284.69397204 0 8037
0.08750000 0.08749060 22524.69037380 0 829.81968298 0 6895.76828199 0 -198.14457076 0 1463.53272518 0 8155
0.08850000 0.08849210 21359.37211252 0 617.26572205 0 6882.56051738 0 -517.98155040 0 1913.23743897 0 8718
0.08950000 0.08949900 21727.84064348 0 131.09970948 0 6870.18456093 0 290.91141311 0 1519.87086664 0 8571
0.09050000 0.09049190 21195.59583137 0 -189.13294107 0 6894.63297627 0 587.61288542 0 1523.28802446 0 8932
0.09150000 0.09150830 21618.80633139 0 345.77140901 0 7662.13336753 0 627.45312380 0 1169.15132318 0 9285
0.09250000 0.09250820 21174.68822101 0 507.30855253 0 7253.89541428 0 -855.66980747 0 1826.52705923 0 9204
0.09350000 0.09350330 20842.18977239 0 800.09378212 0 8625.95172380 0 277.54852752 0 2715.14546212 0 9349
0.09450000 0.09448040 20038.25843211 0 622.06772804 0 7891.63373350 0 354.53462032 0 2602.21064422 0 9564
0.09550000 0.09549270 19330.32224907 0 566.76485051 0 7701.97023372 0 653.03234861 0 2391.86434710 0 10155
0.09650000 0.09649430 18751.65354944 0 316.27931368 0 7221.32000846 0 1235.76341941 0 1815.99456950 0 9913
0.09750000 0.09749140 18390.15422193 0 439.42851090 0 6131.51643879 0 1040.55940288 0 763.35708740 0 10476
0.09850000 0.09850240 18133.19294622 0 134.49213787 0 4505.11792517 0 789.56466458 0 47.16037495 0 10575
0.09950000 0.09950330 17906.46902098 0 58.24669155 0 4165.43670073 0 587.30826378 0 -548.22901745 0 10882
0.10050000 0.10051200 17535.19032733 0 86.03459182 0 2814.71514629 0 576.14742167 0 -1369.13374034 0 10875
0.10150000 0.10150300 17415.25258403 0 105.21968486 0 2549.55943620 0 513.09748766 0 -1289.84219008 0 11118
0.10250000 0.10250800 17116.13886808 0 333.56293825 0 2397.25985945 0 -38.65345048 0 -721.66101758 0 11575
0.10350000 0.10349800 17198.98246397 0 259.39600066 0 2972.75869557 0 -50.12577102 0 -796.04714786 0 11364
0.10450000 0.10450100 17003.50754776 0 6.33342101 0 3172.58374362 0 -149.59620025 0 -295.56279439 0 12093
0.10550000 0.10551000 17226.07243223 0 48.27353660 0 3528.03560103 0 -289.61649015 0 1222.82543042 0 12067
0.10650000 0.10649700 17110.18132319 0 272.94323292 0 4666.93833310 0 -301.40568464 0 1554.08740746 0 12054
0.10750000 0.10749900 16916.39250459 0 456.78744782 0 4464.01086545 0 -113.96333744 0 1050.53435634 0 12807
0.10850000 0.10850100 16545.78824999 0 568.28908275 0 4861.90742002 0 -30.06919033 0 1021.38734900 0 12736
0.10950000 0.10950300 15982.74405487 0 465.44836921 0 4397.72474809 0 98.57589824 0 848.32629034 0 12933
0.11050000 0.11050200 15499.84569947 0 420.23172758 0 4344.45530427 0 867.81420651 0 193.18631972 0 13428
0.11150000 0.11150900 14898.92051139 0 174.40881268 0 3810.49067260 0 309.24716259 0 -648.83733775 0 13453
0.11250000 0.11250000 15068.09230489 0 96.78874718 0 3688.85559104 0 31.83678266 0 -921.66704010 0 13668
0.11350000 0.11349100 14788.64972772 0 57.40723975 0 3729.88396621 0 264.34188698 0 -981.91805209 0 13791
0.11450000 0.11448600 15045.04897090 0 74.85171803 0 3952.41512873 0 -415.52189492 0 -287.05586991 0 14205
0.11550000 0.11549300 14900.49420249 0 212.96199655 0 4582.99315344 0 -389.28284392 0 -107.36226529 0 14776
0.11650000 0.11649800 15097.76762282 0 305.34216052 0 5308.70080528 0 -257.96956208 0 378.20630669 0 14553
0.11750000 0.11747300 14825.74387513 0 555.92886320 0 5856.31158694 0 -370.55704387 0 1292.58490886 0 14568
0.11850000 0.11849100 14335.98872278 0 434.05772798 0 6076.52717541 0 -59.96673593 0 1120.28371819 0 16015
0.11950000 0.11950300 13829.03537482 0 458.53199681 0 6087.21703426 0 464.73121569 0 1227.25424681 0 15270
0.12050000 0.12050700 13742.48236419 0 205.62297569 0 6301.69989086 0 603.86461824 0 1187.48482452 0 15999
0.12150000 0.12150000 13448.20212805 0 -83.84131605 0 5234.02916247 0 844.37070535 0 361.71627207 0 15670
0.12250000 0.12250700 13761.81628345 0 -250.78678626 0 5207.04036007 0 511.37991623 0 386.49066628 0 16887
0.12350000 0.12352200 13832.29516353 0 -236.30770406 0 4523.36150131 0 -61.11238305 0 -520.88838268 0 16407
0.12450000 0.12449800 14193.45727152 0 -121.85989457 0 4759.71866423 0 -238.37823192 0 179.61548210 0 16306
0.12550000 0.12549900 14228.19088227 0 185.78322715 0 4648.07652117 0 -226.66097760 0 -990.10799021 0 17523
0.12650000 0.12650100 14101.05912251 0 177.71693619 0 4479.81522038 0 18.34766456 0 -327.81446946 0 17154
0.12750000 0.12750600 13639.74281651 0 363.47206171 0 4575.83285892 0 157.94350749 0 -1047.54209512 0 18007
0.12850000 0.12850300 13664.47224811 0 230.36926828 0 4480.54586267 0 356.92213453 0 -481.68998545 0 17496
0.12950000 0.12949900 13037.46875034 0 176.00948134 0 4395.13939842 0 658.20866827 0 -1146.37776480 0 18405
0.13050000 0.13049000 13301.51163601 0 172.47766888 0 4049.97273642 0 307.91964173 0 -381.93483054 0 18100
0.13150000 0.13148800 12899.65837238 0 117.09835493 0 4045.85865826 0 199.94532301 0 -784.14554686 0 19059
0.13250000 0.13249300 12814.67905285 0 301.37983114 0 4172.30473833 0 -91.40054126 0 -230.28945966 0 18957
0.13350000 0.13349100 12587.84272110 0 267.16778657 0 4363.60937312 0 330.40319133 0 101.26499912 0 19468
0.13450000 0.13450700 12489.48702720 0 143.48353439 0 3766.04513961 0 608.50588293 0 871.00430319 0 19953
0.13550000 0.13551000 12369.54928390 0 58.22151249 0 4017.31864605 0 700.52297388 0 958.37450913 0 19956
0.13650000 0.13649900 12122.70459385 0 145.46076485 0 3575.81960729 0 950.71512972 0 1282.45708255 0 19723
0.13750000 0.13749600 12045.48132333 0 127.31161018 0 3304.67263036 0 502.28622978 0 1154.07761055 0 20946
0.13850000 0.13851100 11785.14785240 0 237.31599043 0 2835.87005097 0 -189.58931149 0 1427.66380869 0 20955
0.13950000 0.13949800 11751.53830671 0 127.69941263 0 3276.85201980 0 -262.00607976 0 1693.07805375 0 20506
0.14050000 0.14048300 11740.52246900 0 86.54098313 0 3486.07425185 0 -496.50741124 0 1559.01081248 0 21447
0.14150000 0.14148400 11793.01630791 0 177.99120806 0 4094.96906130 0 -68.57606273 0 1479.96655654 0 21771
0.14250000 0.14249400 11606.08428626 0 172.33378855 0 3746.95851467 0 1.19938867 0 1476.60560198 0 22470
0.14350000 0.14350900 11443.99410271 0 149.89182937 0 4050.45608441 0 370.76724404 0 1645.08047513 0 22519
0.14450000 0.14449900 11392.96154840 0 186.77128035 0 3633.90004962 0 457.20447596 0 1464.89284391 0 22218
0.14550000 0.14550500 11270.77567495 0 139.48635899 0 3239.53305937 0 324.27591261 0 1240.87791550 0 23559
0.14650000 0.14650700 10963.00665794 0 186.96574361 0 2956.45975201 0 73.28005025 0 746.84681961 0 23044
0.14750000 0.14750500 10853.12929704 0 289.23430802 0 2795.38122704 0 -216.11949534 0 984.33928825 0 23649
0.14850000 0.14849900 10571.94441900 0 332.57938131 0 2942.57754836 0 -184.68389151 0 527.78677003 0 23640
0.14950000 0.14949500 10316.53435309 0 410.83004731 0 3111.38964104 0 -32.72378241 0 1131.31529282 0 24457
0.15050000 0.15050000 9955.45092966 0 317.88560267 0 3142.03165493 0 313.69846028 0 1161.82241890 0 24591
0.15150000 0.15149900 9720.53257004 0 287.49088310 0 3276.88574175 0 626.99000899 0 1893.65622540 0 25020
0.15250000 0.15250500 9461.52549589 0 178.81289963 0 3070.05776830 0 684.10263129 0 1830.55121219 0 25297
0.15350000 0.15350100 9273.76166608 0 32.11139176 0 2735.69337165 0 744.36488393 0 2167.91686258 0 25452
0.15450000 0.15450400 9254.72000374 0 -73.67875613 0 2393.07833737 0 586.59785466 0 2170.90687568 0 26061
0.15550000 0.15549900 9386.97750024 0 -157.76253301 0 2074.82179323 0 -28.57530785 0 1845.13033619 0 26128
0.15650000 0.15649500 9359.41542465 0 -57.57450064 0 1994.72091612 0 -287.81348977 0 1070.91253205 0 26331
0.15750000 0.15749700 9547.30290162 0 -18.26560781 0 2169.40062848 0 -617.01280740 0 504.33202822 0 27345
0.15850000 0.15849900 9428.74775836 0 85.57889584 0 2222.61386904 0 -789.16337335 0 204.76306591 0 26980
0.15950000 0.15949700 9508.09551187 0 75.40700618 0 2607.06660534 0 -459.25701879 0 -273.84922937 0 27777
0.16050000 0.16050000 9475.01427677 0 18.22446703 0 2615.24979907 0 -195.50639003 0 -462.07954618 0 28224
0.16150000 0.16150500 9487.62628689 0 39.94500125 0 2384.20946395 0 393.30924501 0 -561.69981329 0 28075
0.16250000 0.16249700 9280.07891179 0 210.27660509 0 2304.88419174 0 435.03341646 0 -671.30402637 0 28590
0.16350000 0.16349900 9128.16151716 0 338.90561954 0 2118.85142214 0 253.55648260 0 -153.61698102 0 29163
0.16450000 0.16449100 8847.99953834 0 445.76711384 0 2293.34004344 0 16.00488814 0 -244.95064040 0 28996
0.16550000 0.16550500 8429.07172625 0 284.00290917 0 2135.51006652 0 -119.71180622 0 -116.71392467 0 30777
0.16650000 0.16650700 8341.24852209 0 260.23230507 0 2397.63080092 0 -13.32972567 0 -38.86702285 0 29211
0.16750000 0.16749900 8313.70892780 0 -62.23734737 0 2381.72528014 0 -89.51874392 0 259.08013837 0 30922
0.16850000 0.16850800 8386.55958519 0 -124.00685886 0 2579.22351348 0 253.74532554 0 35.15434832 0 30867
0.16950000 0.16949900 8599.99706127 0 -88.24214321 0 2113.30978133 0 252.80560714 0 27.07468098 0 30852
0.17050000 0.17049200 8593.75850011 0 -3.55495696 0 2072.25892486 0 300.54127859 0 -72.83503288 0 31257
0.17150000 0.17149500 8451.44062121 0 156.80707770 0 1783.85754906 0 223.51584353 0 -426.40958922 0 32608
0.17250000 0.17250900 8309.22390816 0 205.52293390 0 1705.53269476 0 126.97326659 0 -230.46706194 0 32361
0.17350000 0.17350400 8090.04245955 0 184.96041152 0 1295.49623740 0 164.58673207 0 -634.39647376 0 32508
0.17450000 0.17449800 7948.66879531 0 131.43468087 0 1410.93772040 0 213.26437006 0 -91.49305181 0 32791
0.17550000 0.17549800 7896.42225071 0 60.41119126 0 1239.91121953 0 154.73317764 0 -385.76676837 0 33633
0.17650000 0.17650100 7895.61292386 0 60.11365123 0 1375.40602344 0 23.56040393 0 243.84231224 0 33984
0.17750000 0.17750300 7901.50302484 0 103.49503182 0 1777.65270985 0 -208.41290520 0 375.34556108 0 34069
