### header ###
fiducial parameters:
Omega_m = 0.31
Omega_nu = 0
Omega_de = 0.69
Omega_k = 0
H_0 = 100
w_de = -1
zeff = 0
beta = 0
fgrowth = 0
b_1 = 2
gamma = 0.55
Lx = 3500 Ly = 3500 Lz = 3500
nx = 700 ny = 700 nz = 700
xoffset = 857.220397 yoffset = 15.9954215 zoffset = 262.898189
bins = 400 dk = 0.001
kx_ny = 0.628318531 ky_ny = 0.628318531 kz_ny = 0.628318531
############################
A(data) = 3.05296611 (not used)
A(ran) = 3.04768876 (used)
Ngal = 186064
weighted Ngal = 0
Nran = 9360983
weighted Nran = 0
SN(data) = 3464.60138
SN(ran) = 68.4396357
SN(data+ran) = 3533.04102
############################
13 columns: k_central k_mean P_0(k) sigma^{lin}_{P_0(k)} P^img_1(k) sigma^{lin}_{P_1(k)} P_2(k) sigma^{lin}_{P_2(k)} P^img_3(k) sigma^{lin}_{P_3(k)} P_4(k) sigma^{lin}_{P_4(k)} N_modes
### header ###
0.00050000 0 0 0 0 0 0 0 0 0 0 0 0
0.00150000 0.00179520 3568.31085260 0 -4439.74230052 0 7929.18874759 0 -6817.49963095 0 -3.70543555 0 3
0.00250000 0.00253879 11887.99980659 0 -11225.08242973 0 1809.82345224 0 8119.97631245 0 11553.25322782 0 6
0.00350000 0.00331552 17406.37246995 0 -9890.23267412 0 15546.38199350 0 -7567.50956967 0 -4346.09643928 0 7
0.00450000 0.00420575 32964.89436624 0 -9672.17529059 0 17337.01765494 0 -9717.68868540 0 11668.80711733 0 24
0.00550000 0.00557378 52351.86949500 0 -9570.90826816 0 26840.87544149 0 3831.36456101 0 23106.28164263 0 45
0.00650000 0.00659388 65071.22782965 0 3464.35731464 0 23830.17954970 0 24128.16920058 0 2629.82892307 0 40
0.00750000 0.00754703 71667.24167859 0 -2656.55919051 0 32802.01733715 0 21308.22715170 0 3278.59432066 0 57
0.00850000 0.00846663 73478.33532437 0 3320.29713487 0 37411.69579542 0 42380.06341852 0 17974.47495790 0 75
0.00950000 0.00948925 74734.25323055 0 6883.24619707 0 39612.16558252 0 25980.51603454 0 19083.47755902 0 112
0.01050000 0.01054430 63361.18763394 0 4589.56893411 0 23999.57615622 0 25582.93421818 0 17530.46925402 0 105
0.01150000 0.01145670 61279.53152507 0 5756.78686537 0 34102.22340720 0 15626.30302019 0 35483.02494300 0 144
0.01250000 0.01249090 54217.70510983 0 3520.54932764 0 25468.39198724 0 11715.34341136 0 35313.51592997 0 169
0.01350000 0.01339930 53697.26298099 0 -211.70079554 0 28802.70621357 0 15001.21043304 0 35040.59293023 0 180
0.01450000 0.01448870 58293.22784537 0 -5868.38404583 0 19931.69706318 0 18395.10010825 0 44130.00792432 0 267
0.01550000 0.01550050 57008.64627983 0 -4243.88520218 0 27836.45987673 0 15878.43081609 0 19287.38296328 0 238
0.01650000 0.01653350 67162.55089815 0 -4978.45048680 0 13430.21708688 0 20723.82572019 0 39782.12422157 0 315
0.01750000 0.01747870 64843.82946536 0 -2990.81118065 0 7877.81897375 0 11153.22094961 0 25495.70676851 0 297
0.01850000 0.01844180 70422.11479712 0 3125.83387723 0 5748.60367164 0 2053.30718773 0 37524.88914828 0 388
0.01950000 0.01947590 63140.87087962 0 1985.14388170 0 4926.30510806 0 -3488.03012508 0 13585.11325395 0 399
0.02050000 0.02045430 63684.69356198 0 2073.75393141 0 -2613.38385105 0 -7345.18073886 0 13723.48566445 0 462
0.02150000 0.02154770 63551.71666383 0 -90.21319132 0 -31.54643665 0 -9637.99247172 0 4025.35571132 0 571
0.02250000 0.02255340 60246.74053591 0 667.75198074 0 124.89824247 0 -10494.45137287 0 -17301.60960514 0 510
0.02350000 0.02348930 61559.19891526 0 720.37059088 0 -2932.01133667 0 -4003.39147979 0 -19022.32841904 0 555
0.02450000 0.02439640 63413.34425334 0 140.69922520 0 891.11270328 0 -5585.96269621 0 -25435.79410012 0 592
0.02550000 0.02547300 62594.91247361 0 -836.96873684 0 5284.26363059 0 -6295.58497686 0 -22017.96183885 0 837
0.02650000 0.02652900 67474.59136244 0 -1789.32050531 0 15420.93633134 0 -4860.99692732 0 -21720.64662702 0 723
0.02750000 0.02749970 66833.19983173 0 697.08670695 0 24121.53721665 0 -7805.81136517 0 -6124.00768410 0 826
0.02850000 0.02848090 69739.69489124 0 3263.04850070 0 33340.78172669 0 324.04772740 0 976.13473728 0 831
0.02950000 0.02946900 69613.91200956 0 4076.21965588 0 50580.23053328 0 -1912.78781294 0 15456.11956813 0 996
0.03050000 0.03053250 66362.89100515 0 6080.13542430 0 56957.50131901 0 3695.58874083 0 21603.06942037 0 1041
0.03150000 0.03150510 63464.48921416 0 4708.68610991 0 60438.39363087 0 9993.26447872 0 24577.90763633 0 1036
0.03250000 0.03246190 59530.93589736 0 3012.19089834 0 58388.66097007 0 9142.61699400 0 27994.61583252 0 1059
0.03350000 0.03345080 58288.95639809 0 2152.06754505 0 55472.61135744 0 12060.09416928 0 16552.75745344 0 1302
0.03450000 0.03451200 54851.00337202 0 -331.15181867 0 46974.56699830 0 12736.44412376 0 13234.85457718 0 1339
0.03550000 0.03553350 53248.08657778 0 -669.99224243 0 37532.42038427 0 7213.85621637 0 3131.94879122 0 1365
0.03650000 0.03647120 53925.78541035 0 157.04875169 0 32487.95355573 0 6048.39182663 0 -3700.04003852 0 1308
0.03750000 0.03744890 52148.63852978 0 939.09454500 0 26231.96939139 0 3570.85123967 0 -4308.56390649 0 1579
0.03850000 0.03847530 53402.42071231 0 243.02624100 0 22884.16638418 0 3420.97964347 0 -1959.51519803 0 1662
0.03950000 0.03950240 52355.46650323 0 477.04085231 0 23680.11686244 0 2822.79717417 0 501.06661918 0 1683
0.04050000 0.04050350 53864.74867688 0 1060.83753680 0 24328.25278359 0 1205.41366244 0 -3185.67910172 0 1822
0.04150000 0.04152450 52376.03689407 0 2251.77211704 0 28695.02077957 0 -907.16210440 0 5149.42078442 0 1887
0.04250000 0.04250150 52263.74279327 0 1869.50006698 0 29436.11688226 0 -2621.10617810 0 6250.79098370 0 1920
0.04350000 0.04349210 49256.98112923 0 1546.63485603 0 32966.01843131 0 1205.94197302 0 6153.98649960 0 2005
0.04450000 0.04448520 47827.61998228 0 1549.89464474 0 30471.94284712 0 1689.58221138 0 -505.85176420 0 2151
0.04550000 0.04548030 48555.90174314 0 1273.98163190 0 32753.23291298 0 2808.78008271 0 -416.28401104 0 2274
0.04650000 0.04648670 45510.13502107 0 1991.85455018 0 29689.70596275 0 -709.44355430 0 -4548.54055895 0 2311
0.04750000 0.04749250 44184.86229989 0 2642.80063401 0 24497.98660963 0 1217.14890180 0 -2846.07656183 0 2568
0.04850000 0.04851840 42300.14239182 0 544.85120191 0 21122.75641463 0 4515.02093847 0 -6247.59863889 0 2493
0.04950000 0.04949480 41715.51614730 0 1284.03077365 0 21130.40005713 0 2652.79357251 0 -5320.99807718 0 2644
0.05050000 0.05050630 41713.15561065 0 681.06203527 0 19103.03629129 0 3510.72499891 0 -6303.07125025 0 2829
0.05150000 0.05149060 38973.47180799 0 1080.98752730 0 19556.37173527 0 2071.41587606 0 -4245.79611281 0 2784
0.05250000 0.05249300 38432.34688180 0 1771.67268366 0 19406.19664151 0 -248.23403448 0 -753.97339217 0 3055
0.05350000 0.05348950 36702.29832779 0 1056.82125230 0 16810.39316820 0 2400.99175549 0 -5793.09416723 0 3009
0.05450000 0.05448610 37174.06843897 0 325.76867103 0 21680.74231692 0 1951.47813276 0 4131.56862008 0 3336
0.05550000 0.05550870 36337.08958554 0 306.13350233 0 17037.79153249 0 2878.40467334 0 -229.76676940 0 3349
0.05650000 0.05647670 37145.06756008 0 288.64754606 0 21399.72604865 0 2783.48861856 0 6753.59653154 0 3324
0.05750000 0.05747970 35989.52866494 0 377.80951172 0 16742.16241826 0 4482.08583182 0 3553.94530097 0 3639
0.05850000 0.05849280 36677.56889618 0 418.85474786 0 20012.29252892 0 2510.97028224 0 6850.78319776 0 3846
0.05950000 0.05951020 35675.80210303 0 493.94117068 0 17614.32450848 0 1521.60192685 0 5951.41873278 0 3787
0.06050000 0.06049470 35575.64790502 0 853.16314235 0 20006.22257753 0 855.04482728 0 8945.46722083 0 3930
0.06150000 0.06148310 34405.49616392 0 59.83904213 0 18908.46062714 0 -249.37496053 0 6850.60334735 0 4083
0.06250000 0.06249100 35733.80386081 0 -381.04569506 0 20462.14337117 0 -646.70835851 0 6899.78119430 0 4303
0.06350000 0.06350600 35814.73654607 0 -587.79835616 0 20175.95640356 0 607.74264275 0 7321.21567151 0 4470
0.06450000 0.06451750 36786.15358224 0 -429.54348264 0 20682.12290598 0 525.93655892 0 5404.50487146 0 4479
0.06550000 0.06550280 35862.05968565 0 165.35784071 0 18526.84053482 0 -32.11723689 0 4431.54786614 0 4636
0.06650000 0.06648880 36330.57000811 0 1483.12517940 0 19545.69311708 0 1281.88380936 0 2212.18254516 0 4653
0.06750000 0.06749660 34012.29820135 0 1729.65513123 0 17380.40656677 0 157.72319073 0 921.74572466 0 5220
0.06850000 0.06852730 32219.07719024 0 1871.60206866 0 17418.62477925 0 1367.68369639 0 1174.13093145 0 5029
0.06950000 0.06949320 31286.77761861 0 1172.36614929 0 15020.09472627 0 1017.52843360 0 -1606.07541709 0 5040
0.07050000 0.07048030 29683.86082437 0 748.50706372 0 13373.45180069 0 2862.75768752 0 -1515.01490552 0 5475
0.07150000 0.07148790 28798.32235978 0 671.87055517 0 10866.83165028 0 2359.23273802 0 -4874.75548381 0 5509
0.07250000 0.07249820 27616.48034193 0 700.09920135 0 9499.96852139 0 2033.70349285 0 -3142.15530209 0 5916
0.07350000 0.07351270 27463.83230500 0 389.67851483 0 7996.21674790 0 -26.97598806 0 -5863.43815951 0 5721
0.07450000 0.07449140 27142.46210060 0 197.63649335 0 8332.66066493 0 -185.98443480 0 -3565.96155660 0 6028
0.07550000 0.07549160 27065.23883008 0 58.94462356 0 9266.75874068 0 117.10509932 0 -4132.83881361 0 6183
0.07650000 0.07648840 27500.47682638 0 -96.40948763 0 10001.60504156 0 -87.61918635 0 -2074.10239158 0 6330
0.07750000 0.07749960 27818.58724207 0 157.93451497 0 11091.97064377 0 149.01618268 0 -1332.43301570 0 6583
0.07850000 0.07848650 27590.17721922 0 365.69995869 0 11715.45581787 0 428.07095740 0 -18.54471317 0 6549
0.07950000 0.07947320 27450.34352412 0 653.21669528 0 13127.73117571 0 1088.19166036 0 1723.49525463 0 6828
0.08050000 0.08048110 26728.46893418 0 971.13039958 0 12482.06819772 0 978.25135182 0 1276.91544174 0 7147
0.08150000 0.08149960 25904.64164211 0 1164.19419621 0 12341.89728311 0 673.27338838 0 2417.29069905 0 7386
0.08250000 0.08250610 24866.45514059 0 841.38968478 0 12187.78796158 0 1145.89441682 0 1945.75664153 0 7227
0.08350000 0.08350160 23949.55526046 0 1035.27517298 0 11669.14433686 0 209.88880264 0 2744.23626621 0 7798
0.08450000 0.08449610 23114.71213067 0 765.17470063 0 10616.82833737 0 1583.25689611 0 2411.77153954 0 7371
0.08550000 0.08548940 22703.41672043 0 573.98022421 0 9942.00711139 0 625.98059856 0 1685.20959824 0 8256
0.08650000 0.08650700 21941.52541388 0 571.60395065 0 9928.70942157 0 472.02302582 0 1824.98709008 0 8037
0.08750000 0.08749060 21867.44952556 0 381.13449621 0 9649.68274848 0 502.65379906 0 2086.64695780 0 8155
0.08850000 0.08849210 21139.72979724 0 636.78398798 0 10226.37309358 0 151.75103300 0 2416.87479497 0 8718
0.08950000 0.08949900 20671.10706826 0 517.50157461 0 9534.66841020 0 847.45851211 0 1903.70536715 0 8571
0.09050000 0.09049190 20331.63941619 0 109.90175311 0 8715.05636215 0 1356.62289607 0 3480.98223707 0 8932
0.09150000 0.09150830 20128.07123145 0 70.11344653 0 7569.76894047 0 2388.76192749 0 1832.67569518 0 9285
0.09250000 0.09250820 19697.44190195 0 301.06396885 0 7902.46972081 0 1214.95697491 0 2790.66015373 0 9204
0.09350000 0.09350330 19380.00592530 0 346.27161796 0 6611.25617134 0 665.46675645 0 1776.83214235 0 9349
0.09450000 0.09448040 19110.90474680 0 240.92873557 0 7321.38428127 0 -479.33057286 0 2441.30072901 0 9564
0.09550000 0.09549270 19218.92740033 0 153.47759695 0 6688.92906789 0 -1315.96546238 0 1982.58101333 0 10155
0.09650000 0.09649430 19189.92652144 0 89.28898502 0 7905.11127373 0 -411.96198084 0 1515.30716244 0 9913
0.09750000 0.09749140 19318.96919183 0 21.29091655 0 7078.68739133 0 -723.83720756 0 1004.82874641 0 10476
0.09850000 0.09850240 19326.72524084 0 315.15637267 0 7754.98114256 0 -124.45760896 0 158.86411678 0 10575
0.09950000 0.09950330 18930.04267654 0 388.34087739 0 6395.60428706 0 831.57097636 0 -886.14096347 0 10882
0.10050000 0.10051200 18574.83811344 0 286.13076436 0 6709.94908475 0 912.33617593 0 -1040.79882874 0 10875
0.10150000 0.10150300 18258.75101489 0 451.31774717 0 5402.12185351 0 1126.26824064 0 -1952.10760920 0 11118
0.10250000 0.10250800 17668.39203849 0 499.37827344 0 5992.08740712 0 690.47383213 0 -1900.96264837 0 11575
0.10350000 0.10349800 17173.35378030 0 633.99630659 0 4831.88364192 0 42.67794066 0 -1590.82185405 0 11364
0.10450000 0.10450100 16784.20245199 0 478.81013073 0 5292.39062107 0 -45.08287789 0 -840.18131482 0 12093
0.10550000 0.10551000 16491.49590696 0 275.85006520 0 5847.45395417 0 -81.70278224 0 16.04985074 0 12067
0.10650000 0.10649700 16303.88944626 0 143.31380056 0 5571.14751855 0 735.46566074 0 1038.99245617 0 12054
0.10750000 0.10749900 16446.53330404 0 -4.64470433 0 6427.35912538 0 698.00731625 0 1380.98138621 0 12807
0.10850000 0.10850100 16111.33709924 0 165.54106332 0 5760.88970289 0 634.68648255 0 1417.94064581 0 12736
0.10950000 0.10950300 16048.38945514 0 178.89945264 0 6024.56164708 0 754.63996276 0 2080.35219339 0 12933
0.11050000 0.11050200 16052.21127639 0 153.62147728 0 5645.69551420 0 382.70144292 0 2685.98721412 0 13428
0.11150000 0.11150900 15738.25990148 0 87.02680406 0 5288.22033965 0 1079.37561799 0 3005.83993067 0 13453
0.11250000 0.11250000 15935.64572831 0 -186.72519368 0 5228.82474119 0 750.49665890 0 2171.68248058 0 13668
0.11350000 0.11349100 15956.89055819 0 -295.51221146 0 4059.13386677 0 1025.58460798 0 3050.84749620 0 13791
0.11450000 0.11448600 16058.95566683 0 -98.13009404 0 4454.49003428 0 273.71321749 0 2183.57508905 0 14205
0.11550000 0.11549300 16109.08896909 0 65.66979248 0 3422.32852156 0 -112.53015447 0 2196.89526017 0 14776
0.11650000 0.11649800 16121.22887188 0 321.49609969 0 4559.07304868 0 -1125.76241136 0 1422.56055326 0 14553
0.11750000 0.11747300 15951.15782632 0 458.43645128 0 4424.91588221 0 -1008.09865170 0 1146.42272740 0 14568
0.11850000 0.11849100 15622.93082498 0 463.26318671 0 5379.01107560 0 -1120.75020520 0 1059.68537010 0 16015
0.11950000 0.11950300 15304.14597024 0 344.67656962 0 5217.99999453 0 -697.27554988 0 285.06290254 0 15270
0.12050000 0.12050700 15060.56106890 0 273.10397423 0 5909.24381123 0 235.83672079 0 339.98809420 0 15999
0.12150000 0.12150000 15056.96406067 0 242.52490798 0 5805.38019848 0 541.03500098 0 -757.68393098 0 15670
0.12250000 0.12250700 14679.27819611 0 220.87316654 0 5234.13032833 0 495.97460440 0 -258.00328403 0 16887
0.12350000 0.12352200 14189.97266979 0 389.15919676 0 4861.04188992 0 545.28846322 0 -715.90580441 0 16407
0.12450000 0.12449800 14078.35300803 0 264.49588390 0 4947.74102901 0 459.52229814 0 -120.29969225 0 16306
0.12550000 0.12549900 13707.07431439 0 223.33149685 0 4743.71197759 0 349.29535301 0 -125.91214916 0 17523
0.12650000 0.12650100 13740.12182753 0 161.21790904 0 4787.01096420 0 72.59099836 0 167.51941784 0 17154
0.12750000 0.12750600 13602.31144957 0 106.59126906 0 4520.18039715 0 -337.89058878 0 -71.98894910 0 18007
0.12850000 0.12850300 13482.14889326 0 204.58209143 0 5007.93471367 0 -83.47565768 0 214.28726928 0 17496
0.12950000 0.12949900 13444.82993283 0 173.69165916 0 4599.25837504 0 -447.40600072 0 5.01349884 0 18405
0.13050000 0.13049000 13278.35589551 0 205.83429993 0 4862.12099239 0 136.74588834 0 -331.05852126 0 18100
0.13150000 0.13148800 13166.39901422 0 185.89001333 0 4347.87246210 0 156.59125720 0 -211.56478367 0 19059
0.13250000 0.13249300 12851.43598074 0 148.50248494 0 4264.52303693 0 368.05712315 0 -1356.60041477 0 18957
0.13350000 0.13349100 12717.55983054 0 151.83308975 0 4212.14160452 0 447.82527699 0 -1493.38789352 0 19468
0.13450000 0.13450700 12530.62780888 0 167.07990840 0 4253.00136993 0 -118.34719122 0 -1735.48902896 0 19953
0.13550000 0.13551000 12439.01650542 0 80.93999169 0 4116.75344242 0 122.00152677 0 -972.23760368 0 19956
0.13650000 0.13649900 12600.99428246 0 -37.11235727 0 4532.38774385 0 -99.62543780 0 -1343.65118513 0 19723
0.13750000 0.13749600 12607.73867289 0 -87.38920264 0 4361.01278280 0 460.98133461 0 -1123.86274139 0 20946
0.13850000 0.13851100 12720.25758671 0 19.59009369 0 4590.40074227 0 764.68798045 0 -144.07928887 0 20955
0.13950000 0.13949800 12615.83194142 0 230.34678697 0 4540.41356847 0 255.03462818 0 -248.82529271 0 20506
0.14050000 0.14048300 12461.94743291 0 257.62222597 0 3762.31324357 0 806.82243565 0 357.07163519 0 21447
0.14150000 0.14148400 12174.74880674 0 289.63447519 0 4081.57020563 0 567.49774093 0 434.02513009 0 21771
0.14250000 0.14249400 11844.83570778 0 250.12696007 0 3369.60986963 0 604.41878233 0 927.24352693 0 22470
0.14350000 0.14350900 11628.56558772 0 151.97921821 0 3222.07632878 0 571.64104479 0 612.30297475 0 22519
0.14450000 0.14449900 11501.65864096 0 179.98305137 0 2821.12231721 0 29.75625062 0 549.66332449 0 22218
0.14550000 0.14550500 11253.12785330 0 256.39025065 0 2736.24416354 0 4.26334277 0 356.97384152 0 23559
0.14650000 0.14650700 10926.08112028 0 298.06608730 0 2857.06991825 0 -291.09688385 0 520.84454414 0 23044
0.14750000 0.14750500 10824.02725230 0 315.28676422 0 2882.94589623 0 -217.47286969 0 702.04945425 0 23649
0.14850000 0.14849900 10627.29338320 0 211.52881359 0 3014.29290002 0 304.94536555 0 713.56212873 0 23640
0.14950000 0.14949500 10523.69954607 0 48.31377813 0 2969.91481094 0 274.67429313 0 1296.86759679 0 24457
0.15050000 0.15050000 10511.55964328 0 -73.30916353 0 2794.05483025 0 650.24354316 0 1210.57312112 0 24591
0.15150000 0.15149900 10481.09747980 0 -63.61050527 0 2753.88074454 0 645.75739945 0 1639.15665220 0 25020
0.15250000 0.15250500 10529.65709095 0 114.15892476 0 2268.46448337 0 585.97399854 0 1787.04989386 0 25297
0.15350000 0.15350100 10380.28008339 0 195.54011199 0 2420.60669101 0 500.05496061 0 2195.02931215 0 25452
0.15450000 0.15450400 10184.49042896 0 219.80755285 0 2070.40421749 0 252.59203477 0 2560.23805439 0 26061
0.15550000 0.15549900 10116.85543351 0 157.79288277 0 2121.23444010 0 170.97366981 0 2454.45229037 0 26128
0.15650000 0.15649500 9917.81723102 0 130.67368881 0 1910.86566167 0 -123.18067104 0 2375.45299703 0 26331
0.15750000 0.15749700 9822.60891932 0 171.02874900 0 2252.01941135 0 -516.53825085 0 2118.59288717 0 27345
0.15850000 0.15849900 9761.86444277 0 241.53348258 0 2313.83174972 0 -410.27138697 0 2192.71373809 0 26980
0.15950000 0.15949700 9571.95364867 0 243.29489255 0 2543.25343114 0 -301.36184610 0 1600.30896327 0 27777
0.16050000 0.16050000 9428.96133073 0 245.25975830 0 2527.30294775 0 -203.87730263 0 1527.24473352 0 28224
0.16150000 0.16150500 9210.57796832 0 233.78192984 0 2535.72219515 0 -31.42672372 0 1248.37542953 0 28075
0.16250000 0.16249700 9054.16431340 0 213.66228909 0 2636.61827611 0 136.13327287 0 1486.40744941 0 28590
0.16350000 0.16349900 8898.60494794 0 95.14109260 0 2462.61300280 0 290.60679148 0 1514.62148275 0 29163
0.16450000 0.16449100 8908.80021815 0 30.66584407 0 2588.95791701 0 294.95579925 0 1472.33415470 0 28996
0.16550000 0.16550500 8785.36663247 0 8.31677763 0 2339.32554558 0 274.94856501 0 1397.01055415 0 30777
0.16650000 0.16650700 8774.22714760 0 94.77779477 0 2476.55140970 0 -151.83983414 0 1278.06198811 0 29211
0.16750000 0.16749900 8794.75257583 0 135.40712684 0 2534.15974470 0 -270.18252910 0 1660.66001704 0 30922
0.16850000 0.16850800 8683.56005880 0 15.01852104 0 2662.42681019 0 -146.49378065 0 1309.56953211 0 30867
0.16950000 0.16949900 8855.81179060 0 -0.63328590 0 2653.89515629 0 -42.35971784 0 1392.81779143 0 30852
0.17050000 0.17049200 8773.64263376 0 -58.67844495 0 2727.39777142 0 27.58511893 0 1023.25329702 0 31257
0.17150000 0.17149500 8803.25050778 0 54.57785556 0 2472.77455106 0 203.29616099 0 646.98487851 0 32608
0.17250000 0.17250900 8803.43035820 0 81.18267734 0 2377.93718084 0 -101.43023668 0 436.29012121 0 32361
0.17350000 0.17350400 8586.64316820 0 173.20493898 0 2097.59535161 0 -106.60250971 0 -268.63806369 0 32508
0.17450000 0.17449800 8505.39574471 0 141.94019304 0 2191.64587627 0 -136.86503924 0 -382.57779576 0 32791
0.17550000 0.17549800 8322.08321259 0 115.75397310 0 2073.59656230 0 -172.66651181 0 -692.03965477 0 33633
0.17650000 0.17650100 8274.40037219 0 110.57765344 0 2148.14455795 0 -14.84429095 0 -511.51930029 0 33984
0.17750000 0.17750300 8297.78092571 0 41.17427881 0 2195.22040321 0 131.00528801 0 -849.61784111 0 34069
