### header ###
fiducial parameters:
Omega_m = 0.31
Omega_nu = 0
Omega_de = 0.69
Omega_k = 0
H_0 = 100
w_de = -1
zeff = 0
beta = 0
fgrowth = 0
b_1 = 2
gamma = 0.55
Lx = 3500 Ly = 3500 Lz = 3500
nx = 700 ny = 700 nz = 700
xoffset = 857.220397 yoffset = 15.9954215 zoffset = 262.898189
bins = 400 dk = 0.001
kx_ny = 0.628318531 ky_ny = 0.628318531 kz_ny = 0.628318531
############################
A(data) = 3.06353414 (not used)
A(ran) = 3.06148842 (used)
Ngal = 186532
weighted Ngal = 0
Nran = 9360983
weighted Nran = 0
SN(data) = 3451.26616
SN(ran) = 68.7495242
SN(data+ran) = 3520.01569
############################
13 columns: k_central k_mean P_0(k) sigma^{lin}_{P_0(k)} P^img_1(k) sigma^{lin}_{P_1(k)} P_2(k) sigma^{lin}_{P_2(k)} P^img_3(k) sigma^{lin}_{P_3(k)} P_4(k) sigma^{lin}_{P_4(k)} N_modes
### header ###
0.00050000 0 0 0 0 0 0 0 0 0 0 0 0
0.00150000 0.00179520 171.74477845 0 -8326.75932330 0 -9552.29375055 0 19300.98415066 0 27052.76170777 0 3
0.00250000 0.00253879 1378.30611133 0 -6551.12993058 0 -3042.88911548 0 -11693.19932942 0 -19954.85280368 0 6
0.00350000 0.00331552 15011.88905124 0 -26172.05672300 0 -37943.49098150 0 44965.41308665 0 40734.76937102 0 7
0.00450000 0.00420575 25785.04111833 0 -36549.53788435 0 -39069.01733920 0 19247.02902715 0 -2071.94418664 0 24
0.00550000 0.00557378 84594.88927129 0 -54826.38634692 0 -99109.37952769 0 29867.64546382 0 -10279.23787397 0 45
0.00650000 0.00659388 86441.27856037 0 -45303.98148666 0 -51647.97994622 0 -31016.32756202 0 -34985.85096117 0 40
0.00750000 0.00754703 130329.72490048 0 -8499.66301284 0 -106338.80404532 0 -77276.10158034 0 -44160.13286828 0 57
0.00850000 0.00846663 126054.90542748 0 1746.32501627 0 -89112.84401960 0 -48370.43100608 0 -8028.66850656 0 75
0.00950000 0.00948925 107637.66123729 0 24156.49564042 0 -74157.04581551 0 -87131.45451525 0 254.62996475 0 112
0.01050000 0.01054430 103173.77401900 0 6590.35980163 0 -34455.74187269 0 -51352.68805152 0 -28522.70160386 0 105
0.01150000 0.01145670 92154.67651391 0 7130.39438470 0 -25259.99032268 0 -52273.07253337 0 -28784.49635939 0 144
0.01250000 0.01249090 93872.69757164 0 5664.29879116 0 -1755.29505555 0 -34177.98539313 0 -33573.80041634 0 169
0.01350000 0.01339930 85954.22116419 0 8079.12778769 0 9964.60081936 0 -26438.23533231 0 -29655.64679104 0 180
0.01450000 0.01448870 86519.85070898 0 6782.86718605 0 41762.38966085 0 -20278.02151220 0 -21726.37935889 0 267
0.01550000 0.01550050 81681.08778881 0 -1547.90504956 0 28673.43873016 0 -13980.78415968 0 -68549.75960486 0 238
0.01650000 0.01653350 89136.67419915 0 488.00835523 0 66807.23392854 0 1528.86338722 0 -11268.63995131 0 315
0.01750000 0.01747870 87461.48002071 0 -499.35129588 0 42563.62324496 0 8800.45158575 0 -49739.42985861 0 297
0.01850000 0.01844180 90368.87433228 0 2896.27730800 0 66494.40661870 0 16090.65430189 0 -14897.12200728 0 388
0.01950000 0.01947590 89796.83761658 0 4601.29293283 0 45618.38248761 0 14739.30327101 0 -34476.64948305 0 399
0.02050000 0.02045430 85830.79881917 0 5782.66284335 0 44608.29761292 0 5495.22816351 0 -34550.95018438 0 462
0.02150000 0.02154770 77688.18383614 0 8289.04694010 0 32503.12843421 0 1628.53423726 0 -47850.43850326 0 571
0.02250000 0.02255340 71104.75951602 0 7077.96798969 0 30219.81505123 0 1597.27398757 0 -51343.02109189 0 510
0.02350000 0.02348930 65274.68360788 0 5281.49843051 0 24440.54688439 0 -6639.70625834 0 -46864.63343416 0 555
0.02450000 0.02439640 62407.98045196 0 1179.87490398 0 18987.03277575 0 -2468.45814118 0 -55532.74883885 0 592
0.02550000 0.02547300 60624.53880698 0 -1378.00261376 0 21198.18118104 0 447.47794088 0 -47572.00758466 0 837
0.02650000 0.02652900 62697.20239526 0 -3305.68428892 0 8818.67268059 0 7308.19899796 0 -47329.99637442 0 723
0.02750000 0.02749970 63187.74439316 0 -1096.55470450 0 13499.12227586 0 -835.25566167 0 -40490.06040461 0 826
0.02850000 0.02848090 65813.33559091 0 220.82145955 0 3820.86579322 0 3445.28193035 0 -43639.01630039 0 831
0.02950000 0.02946900 62795.78290217 0 810.99721333 0 8133.62246244 0 2552.11106392 0 -25313.04619413 0 996
0.03050000 0.03053250 62069.52445845 0 4370.12895054 0 -484.51813317 0 -605.06961600 0 -22971.50624036 0 1041
0.03150000 0.03150510 60928.37359624 0 2610.78726073 0 9248.80742146 0 -1975.74669768 0 -26574.35961266 0 1036
0.03250000 0.03246190 56706.38518167 0 2503.58517471 0 6586.33564867 0 915.14409048 0 -16971.92131920 0 1059
0.03350000 0.03345080 56355.67687887 0 1363.06378894 0 10215.57082823 0 1437.90404151 0 -18277.18568208 0 1302
0.03450000 0.03451200 54795.47455741 0 987.17867663 0 10863.14471684 0 1654.64626890 0 -9686.31602921 0 1339
0.03550000 0.03553350 55307.93582423 0 1655.16333884 0 18425.89949126 0 -281.89753529 0 -10732.08996997 0 1365
0.03650000 0.03647120 53063.40268627 0 3873.07861587 0 16025.34612114 0 -1351.30606828 0 -2371.45132537 0 1308
0.03750000 0.03744890 51987.56000480 0 2569.51159125 0 21833.61516686 0 848.53649051 0 6021.20069251 0 1579
0.03850000 0.03847530 49381.19031981 0 650.33009617 0 21321.04149353 0 1681.78119977 0 4224.96718700 0 1662
0.03950000 0.03950240 49506.18635594 0 -41.60614462 0 23092.34323572 0 6640.09968111 0 2655.03046201 0 1683
0.04050000 0.04050350 50260.65883300 0 -302.03965734 0 20961.22826363 0 167.20018336 0 -712.03002803 0 1822
0.04150000 0.04152450 48036.92089889 0 1944.28411629 0 21633.08195782 0 -395.05716620 0 -591.62017740 0 1887
0.04250000 0.04250150 46994.12573058 0 2990.62008958 0 21453.45635914 0 -5322.61673089 0 -605.51137358 0 1920
0.04350000 0.04349210 44726.54925861 0 2019.85501115 0 23911.56186099 0 501.81637058 0 1571.26312178 0 2005
0.04450000 0.04448520 42861.83770885 0 1958.43609556 0 20957.40644238 0 622.63425684 0 -5001.47133950 0 2151
0.04550000 0.04548030 42018.22687149 0 1722.37118956 0 21194.13454678 0 3519.47022517 0 -3003.85033549 0 2274
0.04650000 0.04648670 40167.67854165 0 1818.65860372 0 19462.39989516 0 495.58680195 0 -6968.22551660 0 2311
0.04750000 0.04749250 37733.96525188 0 1912.92270075 0 18404.31744185 0 2668.65413070 0 -5014.80275127 0 2568
0.04850000 0.04851840 36826.61992487 0 1521.52324230 0 16646.84170006 0 1820.40090458 0 -877.32154890 0 2493
0.04950000 0.04949480 34153.48077454 0 821.64997803 0 12275.01541126 0 5122.60059178 0 -5302.56340998 0 2644
0.05050000 0.05050630 34086.14927666 0 425.35409212 0 11116.67759408 0 4483.14245299 0 -2452.20416022 0 2829
0.05150000 0.05149060 32858.33299731 0 20.19989899 0 9754.45685394 0 3061.85209327 0 -5954.20641416 0 2784
0.05250000 0.05249300 33283.67922097 0 170.87587615 0 7211.46195777 0 1665.12255538 0 -3015.33828054 0 3055
0.05350000 0.05348950 33170.59827462 0 -125.70419712 0 7904.54924119 0 -2100.69777121 0 -5581.36527006 0 3009
0.05450000 0.05448610 33260.29866745 0 -236.38976081 0 8047.97994452 0 -1557.26851162 0 -1505.32546459 0 3336
0.05550000 0.05550870 34175.73726298 0 2.53350779 0 11196.59862078 0 -1516.65604053 0 -384.97317843 0 3349
0.05650000 0.05647670 33944.62948395 0 545.46269331 0 10443.29517139 0 -217.95846580 0 -898.63045049 0 3324
0.05750000 0.05747970 33949.23815075 0 1036.59594944 0 12235.67313370 0 879.44265970 0 1342.29106639 0 3639
0.05850000 0.05849280 33016.15173357 0 311.44695793 0 11289.65996818 0 2068.29097515 0 -135.26549464 0 3846
0.05950000 0.05951020 32987.37566770 0 727.31169270 0 14285.06857497 0 3000.68047199 0 4691.46543299 0 3787
0.06050000 0.06049470 33250.51930132 0 -474.51282996 0 12023.11242838 0 3217.36649613 0 2428.84608800 0 3930
0.06150000 0.06148310 32283.14889941 0 -321.54106229 0 12417.32204951 0 2136.81398201 0 6569.48591322 0 4083
0.06250000 0.06249100 33289.63676586 0 153.24266735 0 11176.32048686 0 1881.62872911 0 4249.20202998 0 4303
0.06350000 0.06350600 32838.09982600 0 99.63813974 0 11133.99943686 0 2263.40619054 0 8789.67180170 0 4470
0.06450000 0.06451750 32890.59366491 0 726.09095803 0 9941.89470488 0 1821.89591113 0 6110.13672110 0 4479
0.06550000 0.06550280 32261.79166302 0 942.66345160 0 9030.50274361 0 -1293.87758369 0 5301.28197580 0 4636
0.06650000 0.06648880 31079.83723865 0 532.19535325 0 9510.34364202 0 -107.65935569 0 5312.44394197 0 4653
0.06750000 0.06749660 30604.24530623 0 521.55382920 0 7836.68943273 0 -2286.57317170 0 1165.68920276 0 5220
0.06850000 0.06852730 31174.37111130 0 -77.84071947 0 9376.68106418 0 -1712.27708520 0 596.23558859 0 5029
0.06950000 0.06949320 30630.88564846 0 -197.66571904 0 8740.22417914 0 -1187.05767980 0 -3796.68715350 0 5040
0.07050000 0.07048030 31188.64673773 0 159.45537501 0 10305.92317880 0 -1593.12618745 0 -4988.80312613 0 5475
0.07150000 0.07148790 30243.98245030 0 144.31534254 0 7668.92272057 0 -130.89288150 0 -8141.72697161 0 5509
0.07250000 0.07249820 30556.69735363 0 652.71086600 0 8033.71555874 0 -149.61193716 0 -7430.16005839 0 5916
0.07350000 0.07351270 29182.52780177 0 1169.74707767 0 7261.73014784 0 625.79962408 0 -8425.04757329 0 5721
0.07450000 0.07449140 28850.25416616 0 1063.66456046 0 6890.46269484 0 247.15830421 0 -9005.97564372 0 6028
0.07550000 0.07549160 27746.98429692 0 800.77833775 0 6838.77818278 0 603.83202036 0 -6310.97342771 0 6183
0.07650000 0.07648840 27127.73684814 0 359.61651851 0 6166.94696989 0 1199.05145413 0 -5611.61386118 0 6330
0.07750000 0.07749960 27144.26060472 0 11.63384869 0 6028.00128621 0 2284.03278463 0 -4031.17836840 0 6583
0.07850000 0.07848650 27469.78984989 0 89.41892694 0 7232.15599576 0 577.09838072 0 -3961.10415174 0 6549
0.07950000 0.07947320 26727.00764958 0 943.94488579 0 6805.79811354 0 234.58114011 0 -2009.03026450 0 6828
0.08050000 0.08048110 25849.67486003 0 892.34018234 0 7754.90245801 0 -902.67596069 0 -1923.51139374 0 7147
0.08150000 0.08149960 25605.07830012 0 874.85759826 0 8980.35820070 0 -1012.02613507 0 437.47825799 0 7386
0.08250000 0.08250610 24757.19601549 0 639.90664075 0 9584.43077099 0 -137.88456626 0 -971.84530497 0 7227
0.08350000 0.08350160 24737.30006369 0 664.86762976 0 10344.91699619 0 -156.37656077 0 -843.08814710 0 7798
0.08450000 0.08449610 23804.21364651 0 695.56022658 0 9142.86428832 0 674.34349833 0 -336.72043704 0 7371
0.08550000 0.08548940 23297.14789204 0 624.62834828 0 9134.26519051 0 907.79270490 0 -749.79524229 0 8256
0.08650000 0.08650700 22361.02649916 0 496.77493873 0 8419.35980402 0 533.54535540 0 -342.95000567 0 8037
0.08750000 0.08749060 22045.95105917 0 329.29598723 0 8129.05875824 0 774.60897878 0 -2661.02172885 0 8155
0.08850000 0.08849210 21681.30434946 0 189.11270790 0 8052.06030073 0 -23.50262699 0 -1971.70006342 0 8718
0.08950000 0.08949900 21608.12771320 0 303.69877738 0 7541.40877868 0 -747.99673818 0 -2450.45061871 0 8571
0.09050000 0.09049190 21315.75838769 0 328.53836737 0 8086.40048872 0 -1163.95814254 0 -2274.32086240 0 8932
0.09150000 0.09150830 21209.53423828 0 281.64237252 0 7877.36934772 0 -7.12544850 0 -1958.51478011 0 9285
0.09250000 0.09250820 21274.05557347 0 127.16885391 0 8789.67180170 0 1296.54161792 0 -1534.25889957 0 9204
0.09350000 0.09350330 21405.79600004 0 22.59449481 0 8535.14974720 0 1651.33027694 0 -528.41737054 0 9349
0.09450000 0.09448040 21294.06393177 0 -65.87729489 0 7951.93982467 0 1860.65367485 0 -654.98035338 0 9564
0.09550000 0.09549270 21223.47264518 0 344.67881775 0 8177.64085070 0 986.07709286 0 792.60975686 0 10155
0.09650000 0.09649430 20815.54943016 0 451.47511628 0 7635.07712122 0 893.36308156 0 1168.57804999 0 9913
0.09750000 0.09749140 20315.11565961 0 406.51363743 0 7835.02581642 0 587.54881371 0 1789.07321100 0 10476
0.09850000 0.09850240 20151.00215894 0 502.84376606 0 7948.85988637 0 678.80491260 0 1376.77738283 0 10575
0.09950000 0.09950330 19523.32422212 0 653.65058440 0 7128.96682205 0 -4.63284544 0 303.30085835 0 10882
0.10050000 0.10051200 18648.35196922 0 919.69880216 0 7282.39046388 0 -64.77975776 0 669.06264061 0 10875
0.10150000 0.10150300 18172.87244330 0 695.09823584 0 6522.07284844 0 346.54139358 0 -8.77472174 0 11118
0.10250000 0.10250800 17294.75280820 0 624.24616615 0 6336.65831463 0 641.98391300 0 295.77411862 0 11575
0.10350000 0.10349800 17232.47960315 0 286.24204680 0 6254.48915779 0 438.62817656 0 -173.01722012 0 11364
0.10450000 0.10450100 16872.10434071 0 135.91295612 0 5699.44830599 0 96.80459650 0 -244.09635095 0 12093
0.10550000 0.10551000 17061.62171203 0 240.80733654 0 6349.14667759 0 -905.12080223 0 -249.11080524 0 12067
0.10650000 0.10649700 16531.96224959 0 113.36758295 0 6020.71734453 0 -414.56756367 0 159.13501646 0 12054
0.10750000 0.10749900 16767.34147590 0 188.42927633 0 6819.33185702 0 179.54579006 0 1021.55595876 0 12807
0.10850000 0.10850100 16640.43452914 0 95.51248370 0 6269.23689154 0 774.17059341 0 -160.73118887 0 12736
0.10950000 0.10950300 16360.09269991 0 103.11948168 0 5841.03554260 0 1280.34384021 0 194.73977765 0 12933
0.11050000 0.11050200 16162.36965356 0 360.33929235 0 4948.07824853 0 1297.65444234 0 -383.33204342 0 13428
0.11150000 0.11150900 15645.86175247 0 262.74908677 0 4137.39127716 0 1067.21098577 0 523.47148422 0 13453
0.11250000 0.11250000 15543.34701780 0 190.10862955 0 3716.94597722 0 664.96767155 0 -74.05441867 0 13668
0.11350000 0.11349100 15236.70206586 0 121.50693814 0 2955.57174060 0 64.98714776 0 -98.31702606 0 13791
0.11450000 0.11448600 14982.21373331 0 134.09871509 0 3284.51814360 0 -153.94520802 0 -378.15684783 0 14205
0.11550000 0.11549300 15056.51443464 0 252.74041136 0 3761.60508257 0 -914.58767827 0 -532.12566121 0 14776
0.11650000 0.11649800 14866.77225030 0 316.99534313 0 4231.88018720 0 -739.25263597 0 -466.65786323 0 14553
0.11750000 0.11747300 14668.48717141 0 297.90647006 0 4712.89011328 0 -723.50560837 0 50.47749099 0 14568
0.11850000 0.11849100 14661.29315494 0 216.46345926 0 5691.38875942 0 -145.50010713 0 962.89212666 0 16015
0.11950000 0.11950300 14563.83671310 0 149.19603309 0 5763.64366232 0 547.75915825 0 1229.76091192 0 15270
0.12050000 0.12050700 14432.43350606 0 168.67832893 0 5788.02463375 0 1065.82950979 0 1672.27160925 0 15999
0.12150000 0.12150000 14241.11763061 0 27.51778743 0 5281.08252643 0 828.94965661 0 2211.42942156 0 15670
0.12250000 0.12250700 14116.34640750 0 112.46495869 0 4981.69903487 0 658.01645314 0 1935.58385262 0 16887
0.12350000 0.12352200 14086.89590259 0 229.95561233 0 4584.00481200 0 462.85065482 0 2245.97194126 0 16407
0.12450000 0.12449800 13667.17000429 0 76.82141726 0 3853.55360555 0 276.15019057 0 1645.46265726 0 16306
0.12550000 0.12549900 13592.53208344 0 243.92212086 0 3768.97894945 0 211.45574936 0 1640.78654655 0 17523
0.12650000 0.12650100 13486.19552752 0 180.02239365 0 3172.81979728 0 50.55808645 0 1210.42699267 0 17154
0.12750000 0.12750600 13417.29033854 0 293.99247548 0 3439.97634321 0 -42.22752779 0 767.67686948 0 18007
0.12850000 0.12850300 12995.76593613 0 305.98624981 0 3375.79222753 0 171.73915813 0 1104.36133643 0 17496
0.12950000 0.12949900 12918.20544608 0 266.53943420 0 3413.50461073 0 43.52379963 0 828.13583350 0 18405
0.13050000 0.13049000 12692.71799242 0 116.54981117 0 3739.65209169 0 -10.42722104 0 1223.81460769 0 18100
0.13150000 0.13148800 12663.82952004 0 102.11254418 0 3858.85919270 0 358.97917361 0 1020.92985451 0 19059
0.13250000 0.13249300 12504.99912521 0 38.65603583 0 3788.44775652 0 16.88626756 0 966.52398091 0 18957
0.13350000 0.13349100 12608.30070543 0 137.17865339 0 3876.16979482 0 -23.86052931 0 725.22880012 0 19468
0.13450000 0.13450700 12448.00902601 0 144.12987180 0 3951.70696773 0 18.32315994 0 713.56325279 0 19953
0.13550000 0.13551000 12425.07809852 0 215.81936997 0 3874.30384680 0 -142.06384020 0 563.63770147 0 19956
0.13650000 0.13649900 12191.38496982 0 218.69023217 0 3832.29753502 0 -35.61454056 0 500.69567771 0 19723
0.13750000 0.13749600 11965.56029663 0 132.09450707 0 3752.25286116 0 447.82190480 0 -117.93016308 0 20946
0.13850000 0.13851100 11834.26949609 0 112.70550862 0 3311.25965168 0 715.34264780 0 91.50328080 0 20955
0.13950000 0.13949800 11695.22264655 0 140.03939900 0 2837.62359248 0 415.41173654 0 -355.09103253 0 20506
0.14050000 0.14048300 11482.43712821 0 233.07601697 0 2711.58217584 0 450.98502391 0 154.72306105 0 21447
0.14150000 0.14148400 11222.96918739 0 335.35919423 0 2698.57674294 0 -111.82682695 0 -233.52789113 0 21771
0.14250000 0.14249400 11171.98159568 0 257.13550580 0 2834.12775011 0 -214.06020813 0 622.38021813 0 22470
0.14350000 0.14350900 10903.79090988 0 136.28052540 0 2949.85024938 0 -394.49962992 0 94.23127433 0 22519
0.14450000 0.14449900 10959.80307248 0 77.45651402 0 3392.54079712 0 -352.72375148 0 786.77248694 0 22218
0.14550000 0.14550500 11016.29858305 0 -0.76278044 0 3852.48574373 0 -46.54989521 0 685.14239149 0 23559
0.14650000 0.14650700 10915.14396712 0 180.12243544 0 3713.88852022 0 390.17422752 0 848.07000351 0 23044
0.14750000 0.14750500 10912.76094917 0 102.84318648 0 3557.40742139 0 664.60797073 0 1529.45914171 0 23649
0.14850000 0.14849900 10590.49149271 0 65.47724013 0 3083.49034592 0 909.74183374 0 1121.36844099 0 23640
0.14950000 0.14949500 10659.74514186 0 -17.59521540 0 2816.63729757 0 836.43705406 0 1439.02810658 0 24457
0.15050000 0.15050000 10570.14591489 0 55.46564215 0 2033.66977090 0 465.21568774 0 930.18970149 0 24591
0.15150000 0.15149900 10544.04512389 0 76.46047996 0 2202.35821642 0 110.50739937 0 1430.62009983 0 25020
0.15250000 0.15250500 10400.64814251 0 176.25227940 0 1858.02336258 0 -322.26720833 0 780.75087034 0 25297
0.15350000 0.15350100 10440.12530788 0 117.98299414 0 2207.91109788 0 -312.91049066 0 960.47426269 0 25452
0.15450000 0.15450400 10277.49557311 0 63.00362253 0 2168.31028536 0 -513.34703010 0 131.82473145 0 26061
0.15550000 0.15549900 10402.19935232 0 48.97472839 0 2624.12991315 0 -522.49467167 0 185.34821397 0 26128
0.15650000 0.15649500 10218.27982506 0 81.53361045 0 2448.74203979 0 -242.57436684 0 -451.60775596 0 26331
0.15750000 0.15749700 10182.41090857 0 58.47352788 0 2679.51259930 0 -121.72500677 0 -516.72821784 0 27345
0.15850000 0.15849900 10164.40338610 0 115.49319000 0 2638.03459810 0 166.94951685 0 -708.16661638 0 26980
0.15950000 0.15949700 10152.88171910 0 -7.49341120 0 2697.67749088 0 344.86653662 0 -438.56972518 0 27777
0.16050000 0.16050000 9991.33108680 0 52.89097110 0 2366.17946018 0 201.26947166 0 -661.89222951 0 28224
0.16150000 0.16150500 10094.91368328 0 174.20872909 0 2645.81312841 0 219.74572927 0 -292.02985786 0 28075
0.16250000 0.16249700 9827.54356500 0 216.21841307 0 2449.03429671 0 -26.19757300 0 -445.07806195 0 28590
0.16350000 0.16349900 9729.99719795 0 266.99130836 0 2640.86724209 0 77.80317569 0 540.70227772 0 29163
0.16450000 0.16449100 9443.73154579 0 180.14042048 0 2716.53930281 0 9.55600317 0 506.72853495 0 28996
0.16550000 0.16550500 9434.85143171 0 38.33208028 0 2563.55404636 0 425.53843879 0 795.15014393 0 30777
0.16650000 0.16650700 9322.88330978 0 49.80473804 0 2620.34181385 0 477.49722273 0 598.63883972 0 29211
0.16750000 0.16749900 9343.72347623 0 87.95179721 0 2465.98519802 0 67.24618134 0 774.85852123 0 30922
0.16850000 0.16850800 9124.57574958 0 161.90246467 0 2532.45116579 0 228.65282091 0 986.79986670 0 30867
0.16950000 0.16949900 9042.84497812 0 178.12609587 0 2203.33615304 0 -40.38709604 0 718.35064594 0 30852
0.17050000 0.17049200 8949.45765184 0 198.83025046 0 2422.39395448 0 -32.74154264 0 512.05098307 0 31257
0.17150000 0.17149500 8718.05761589 0 198.93928477 0 2319.49703769 0 -144.73799101 0 407.28924233 0 32608
0.17250000 0.17250900 8669.67785515 0 237.81844752 0 2784.42159257 0 -409.11922027 0 570.50124281 0 32361
0.17350000 0.17350400 8478.50810817 0 165.51745795 0 2746.66424677 0 -287.08846780 0 316.63564231 0 32508
0.17450000 0.17449800 8501.43903566 0 65.35145725 0 2902.31353744 0 51.15743795 0 749.11630699 0 32791
0.17550000 0.17549800 8439.12086800 0 -9.79316966 0 3041.58520000 0 142.14814508 0 405.18162031 0 33633
0.17650000 0.17650100 8515.23131410 0 -20.60343835 0 2799.89996863 0 268.43798011 0 610.69668576 0 33984
0.17750000 0.17750300 8547.32337194 0 64.03967331 0 2894.28771282 0 487.64303408 0 780.42713960 0 34069
