### header ###
fiducial parameters:
Omega_m = 0.31
Omega_nu = 0
Omega_de = 0.69
Omega_k = 0
H_0 = 100
w_de = -1
zeff = 0
beta = 0
fgrowth = 0
b_1 = 2
gamma = 0.55
Lx = 3500 Ly = 3500 Lz = 3500
nx = 700 ny = 700 nz = 700
xoffset = 857.220397 yoffset = 15.9954215 zoffset = 262.898189
bins = 400 dk = 0.001
kx_ny = 0.628318531 ky_ny = 0.628318531 kz_ny = 0.628318531
############################
A(data) = 3.10829994 (not used)
A(ran) = 3.10841806 (used)
Ngal = 190141
weighted Ngal = 0
Nran = 9360983
weighted Nran = 0
SN(data) = 3446.65514
SN(ran) = 69.8033877
SN(data+ran) = 3516.45853
############################
13 columns: k_central k_mean P_0(k) sigma^{lin}_{P_0(k)} P^img_1(k) sigma^{lin}_{P_1(k)} P_2(k) sigma^{lin}_{P_2(k)} P^img_3(k) sigma^{lin}_{P_3(k)} P_4(k) sigma^{lin}_{P_4(k)} N_modes
### header ###
0.00050000 0 0 0 0 0 0 0 0 0 0 0 0
0.00150000 0.00179520 44772.07389407 0 -43200.74332839 0 -33068.30835297 0 72385.63166681 0 31211.12803919 0 3
0.00250000 0.00253879 77707.51775540 0 -37016.58692223 0 16915.26843952 0 -71297.87389557 0 -43942.51387013 0 6
0.00350000 0.00331552 104193.30104030 0 -17032.84564616 0 -4342.57811560 0 8341.04619038 0 51692.38051661 0 7
0.00450000 0.00420575 124969.05856687 0 -1329.20694894 0 34225.53334572 0 -44147.20611994 0 12137.87947234 0 24
0.00550000 0.00557378 124607.10961333 0 14212.00434522 0 77771.92668409 0 -22815.03638219 0 35275.07290447 0 45
0.00650000 0.00659388 121363.05781237 0 13700.77954998 0 65430.02940098 0 84823.52410716 0 -29611.47103366 0 40
0.00750000 0.00754703 103002.57890836 0 6583.64913314 0 71409.38115083 0 60879.92639158 0 7365.35770693 0 57
0.00850000 0.00846663 107192.08184231 0 281.74466244 0 59361.98891687 0 82270.88473266 0 11613.50311574 0 75
0.00950000 0.00948925 109684.92095492 0 -7176.30120228 0 48255.32674259 0 53027.88222996 0 29068.66000987 0 112
0.01050000 0.01054430 97368.53994898 0 -4292.84947677 0 -21411.19151239 0 46080.48563916 0 8589.80179105 0 105
0.01150000 0.01145670 113160.75497396 0 -3618.45539551 0 -8381.52377366 0 12298.05874526 0 27246.21330685 0 144
0.01250000 0.01249090 104702.61492492 0 -562.42820746 0 -24144.91777017 0 -15089.89916731 0 7322.69943740 0 169
0.01350000 0.01339930 107229.51320925 0 9496.10173754 0 -1821.14278753 0 -29397.67385676 0 16042.76912978 0 180
0.01450000 0.01448870 90955.41148742 0 13945.37610988 0 -403.19764546 0 -28166.03575617 0 -4846.96859520 0 267
0.01550000 0.01550050 75408.24264838 0 14000.23048545 0 4823.32950672 0 -25816.51494037 0 -16249.03507069 0 238
0.01650000 0.01653350 66961.79287609 0 8730.82699512 0 14130.17240790 0 -2370.39470420 0 -10521.93476390 0 315
0.01750000 0.01747870 59655.48230746 0 4941.01911987 0 4655.54031325 0 1242.09190577 0 -11858.54930167 0 297
0.01850000 0.01844180 58533.55295800 0 333.23808344 0 5922.80003602 0 7281.46873052 0 -18057.88058632 0 388
0.01950000 0.01947590 55209.24291081 0 171.62562756 0 8813.85044142 0 2665.70908020 0 -18309.44634968 0 399
0.02050000 0.02045430 54598.98798263 0 -1302.01581482 0 6959.51401228 0 5786.14744508 0 2219.99479742 0 462
0.02150000 0.02154770 59231.37255538 0 -2717.11257600 0 11122.47776986 0 3344.49825590 0 6690.21050207 0 571
0.02250000 0.02255340 62670.78686605 0 -2421.92184715 0 6731.12647073 0 758.46403214 0 8970.87109149 0 510
0.02350000 0.02348930 66719.55685284 0 315.33060276 0 27038.48608134 0 401.04730898 0 8287.93411567 0 555
0.02450000 0.02439640 64762.89678010 0 3775.74582119 0 24307.79479926 0 -4316.98315389 0 11695.78467909 0 592
0.02550000 0.02547300 63069.38034097 0 5917.51693017 0 33316.27710809 0 -10636.45451355 0 14244.82704536 0 837
0.02650000 0.02652900 61038.64437991 0 3929.39427603 0 45299.37281987 0 -12720.36999322 0 10879.64599211 0 723
0.02750000 0.02749970 60517.30299900 0 1187.61971233 0 44381.12406165 0 7919.52178796 0 7009.22016982 0 826
0.02850000 0.02848090 62926.17445065 0 -2472.75206976 0 46426.36046215 0 7378.90269106 0 1826.40341207 0 831
0.02950000 0.02946900 63801.37151657 0 -2046.11317126 0 33888.98826284 0 18017.30183718 0 6147.66925389 0 996
0.03050000 0.03053250 64968.48828197 0 -1294.93420486 0 32515.38074351 0 19505.67640047 0 8869.33429343 0 1041
0.03150000 0.03150510 65091.68581398 0 -1030.42370812 0 25150.28157155 0 17135.24797432 0 5854.47936087 0 1036
0.03250000 0.03246190 63954.80639905 0 1522.08527483 0 14579.23640460 0 11154.53610574 0 15979.59667267 0 1059
0.03350000 0.03345080 63096.35790272 0 1889.42974072 0 13861.97048146 0 10160.79513722 0 15622.93082498 0 1302
0.03450000 0.03451200 59583.65454929 0 2580.85340784 0 8857.49788821 0 2098.42715976 0 21834.06479289 0 1339
0.03550000 0.03553350 56907.48042325 0 3257.92276397 0 10932.35340339 0 -194.76338302 0 15108.78346054 0 1365
0.03650000 0.03647120 54754.10896272 0 2368.85473505 0 10219.79731290 0 -1127.10004880 0 16910.09774018 0 1308
0.03750000 0.03744890 53675.23130556 0 1134.47391568 0 12050.87683568 0 -386.30631961 0 13107.49800439 0 1579
0.03850000 0.03847530 55513.07770007 0 446.11332589 0 11403.97738611 0 550.01178466 0 16868.61973898 0 1662
0.03950000 0.03950240 51144.96082601 0 1899.68121419 0 13979.66009461 0 1290.22437220 0 10118.69890023 0 1683
0.04050000 0.04050350 52175.27887201 0 1774.93247238 0 10481.26608956 0 2271.20720215 0 9964.08374942 0 1822
0.04150000 0.04152450 46783.47593588 0 3239.22956180 0 9923.44879703 0 2675.91559107 0 7278.99578736 0 1887
0.04250000 0.04250150 45991.23487236 0 2847.76265944 0 8342.02412699 0 -482.87699817 0 5618.95400611 0 1920
0.04350000 0.04349210 42490.67142171 0 1449.99898169 0 7620.73405088 0 460.97234209 0 2284.89831474 0 2005
0.04450000 0.04448520 41157.41783851 0 1284.95250701 0 3664.96920824 0 -2092.25604251 0 218.88357136 0 2151
0.04550000 0.04548030 38794.85786787 0 -519.48554947 0 2828.78844101 0 124.65769254 0 -3821.38286316 0 2274
0.04650000 0.04648670 40565.14795149 0 -357.80677374 0 3340.65395335 0 -156.60024972 0 -7340.50462816 0 2311
0.04750000 0.04749250 40565.37276451 0 304.21472325 0 3052.21885559 0 -914.96986040 0 -9087.75137779 0 2568
0.04850000 0.04851840 39983.55668267 0 843.54114533 0 3505.56554022 0 -1858.14700974 0 -7371.82108110 0 2493
0.04950000 0.04949480 40251.87101562 0 1128.88731226 0 9114.41420132 0 -1125.54883900 0 -4341.57769769 0 2644
0.05050000 0.05050630 39086.21553482 0 1537.32759722 0 8041.90999312 0 -2666.37227860 0 -2912.87974913 0 2829
0.05150000 0.05149060 39431.97795130 0 856.23633626 0 11115.77834202 0 1567.90216721 0 1417.26620677 0 2784
0.05250000 0.05249300 37653.81941217 0 832.20719719 0 12337.17620980 0 2681.24365951 0 1802.11236584 0 3055
0.05350000 0.05348950 36762.09858968 0 724.41160481 0 7545.45541294 0 3879.35089898 0 -1536.64191753 0 3009
0.05450000 0.05448610 36579.88764133 0 283.66681372 0 8142.58126107 0 3680.97589488 0 3030.70425009 0 3336
0.05550000 0.05550870 35885.21542615 0 -148.53171063 0 4509.41185375 0 672.06277029 0 -1563.04620610 0 3349
0.05650000 0.05647670 35975.36544502 0 113.34285352 0 5159.76218309 0 -1457.44029248 0 244.15255420 0 3324
0.05750000 0.05747970 37331.77476872 0 77.39300435 0 6466.03820454 0 -4000.70496427 0 -2049.21559086 0 3639
0.05850000 0.05849280 36589.32978794 0 575.59213353 0 9475.81236297 0 -5786.36101744 0 -4011.99057760 0 3846
0.05950000 0.05951020 37140.12167376 0 600.50703587 0 11155.45783910 0 -3738.61795183 0 -1857.92219672 0 3787
0.06050000 0.06049470 36499.06736257 0 527.97898516 0 14019.22718518 0 -1060.18557906 0 -3188.46678310 0 3930
0.06150000 0.06148310 36372.83485486 0 1077.38489874 0 14743.79953130 0 801.38196069 0 -3243.54597168 0 4083
0.06250000 0.06249100 35656.13096426 0 1053.02078828 0 14071.27139807 0 2459.19584497 0 -4433.41381416 0 4303
0.06350000 0.06350600 33473.08418579 0 1340.84102245 0 14033.27799860 0 1752.83335304 0 -2692.06840617 0 4470
0.06450000 0.06451750 32969.27822003 0 588.93928220 0 11831.23452040 0 2692.32694113 0 -2302.37752663 0 4479
0.06550000 0.06550280 32666.90471536 0 -100.97746327 0 12852.33523280 0 1140.83612399 0 -2230.23503023 0 4636
0.06650000 0.06648880 32907.22982799 0 -164.42599076 0 13161.34072140 0 1428.90028027 0 -814.82915116 0 4653
0.06750000 0.06749660 33051.33497036 0 298.64722895 0 12229.04114977 0 1438.66840576 0 297.40401298 0 5220
0.06850000 0.06852730 32637.11699093 0 725.48508696 0 12222.18435282 0 1588.36015154 0 2112.62410164 0 5029
0.06950000 0.06949320 32280.22633022 0 1169.25248904 0 13153.02263985 0 2346.01373276 0 -387.56864468 0 5040
0.07050000 0.07048030 31190.55764835 0 845.13057334 0 10709.72107501 0 1950.12925467 0 2873.47002766 0 5475
0.07150000 0.07148790 30239.14897048 0 840.73885110 0 9845.38247771 0 1068.21589994 0 725.30523655 0 5509
0.07250000 0.07249820 29591.68748838 0 388.76802212 0 8482.52102048 0 -263.38305947 0 1087.65210912 0 5916
0.07350000 0.07351270 29233.89757561 0 671.85931452 0 8624.06329448 0 -732.55433220 0 384.11326865 0 5721
0.07450000 0.07449140 29092.26537640 0 328.26634362 0 8737.23416604 0 -1097.25724517 0 -291.19018125 0 6028
0.07550000 0.07549160 28438.95875591 0 476.28548058 0 9793.70920630 0 -1116.77101484 0 -98.80678121 0 6183
0.07650000 0.07648840 28503.59249762 0 605.32927504 0 10333.11431292 0 166.17840821 0 -470.62468887 0 6330
0.07750000 0.07749960 27835.22340515 0 982.95556415 0 10755.03213811 0 1247.58858398 0 664.48544764 0 6583
0.07850000 0.07848650 27355.47243195 0 524.93276881 0 10148.29553360 0 1358.75861971 0 660.80863078 0 6549
0.07950000 0.07947320 26314.81298728 0 605.20000755 0 10044.36447695 0 1202.69342496 0 1392.01970522 0 6828
0.08050000 0.08048110 25804.71225711 0 811.05229252 0 8758.52395853 0 1644.32735153 0 -294.07902849 0 7147
0.08150000 0.08149960 24913.32865414 0 844.27628388 0 8310.22432607 0 134.87094780 0 655.50416770 0 7386
0.08250000 0.08250610 24209.43910536 0 630.61174666 0 7374.92350070 0 1419.53681821 0 -1375.40602344 0 7227
0.08350000 0.08350160 23433.94661143 0 558.80309759 0 6514.00206121 0 376.91138373 0 -399.29264340 0 7798
0.08450000 0.08449610 23615.25830772 0 246.00164125 0 6751.51701116 0 36.86135354 0 -1328.45382534 0 7371
0.08550000 0.08548940 23183.39250664 0 135.61507887 0 7201.82872009 0 -253.44969642 0 -2553.88708673 0 8256
0.08650000 0.08650700 23318.28031541 0 249.80547746 0 7176.99812263 0 -918.06103935 0 -2044.01116957 0 8037
0.08750000 0.08749060 23058.95850305 0 285.18317750 0 7960.99978916 0 -815.03935133 0 -2385.56958269 0 8155
0.08850000 0.08849210 22364.62350739 0 638.98715552 0 7634.91975211 0 -43.42117249 0 -918.29147269 0 8718
0.08950000 0.08949900 22035.94688002 0 516.21227197 0 7794.14356971 0 1290.58407303 0 -1311.07577931 0 8571
0.09050000 0.09049190 21275.17963855 0 304.08657984 0 7449.05559227 0 1271.95831477 0 -1471.35621808 0 8932
0.09150000 0.09150830 21016.30745221 0 330.49648873 0 6303.73444864 0 2164.75823973 0 -936.86215176 0 9285
0.09250000 0.09250820 20560.49906507 0 166.87308043 0 5729.87674752 0 1757.61062960 0 -347.70030467 0 9204
0.09350000 0.09350330 20532.06021872 0 403.43145100 0 6035.35267179 0 929.79290652 0 698.64016488 0 9349
0.09450000 0.09448040 19808.72434418 0 597.67439189 0 5541.53964452 0 686.65313494 0 207.02131264 0 9564
0.09550000 0.09549270 19472.40407431 0 584.09118954 0 5433.60691620 0 609.70188817 0 2006.42243353 0 10155
0.09650000 0.09649430 18615.19204957 0 554.19443079 0 4955.28350565 0 354.17267136 0 2034.22056279 0 9913
0.09750000 0.09749140 18625.42104173 0 383.98512523 0 5337.93773783 0 -45.88827051 0 2098.37095651 0 10476
0.09850000 0.09850240 18282.91841396 0 22.56751725 0 4937.42211164 0 463.88142250 0 2046.69768510 0 10575
0.09950000 0.09950330 17839.58714913 0 219.17695234 0 4942.66025488 0 261.65537146 0 1155.30284148 0 10882
0.10050000 0.10051200 18067.21032643 0 155.12660041 0 3774.26205529 0 246.27703719 0 1027.84397878 0 10875
0.10150000 0.10150300 17411.65557580 0 376.43140794 0 4365.28423008 0 95.67322501 0 187.85712721 0 11118
0.10250000 0.10250800 17368.94110302 0 458.45556039 0 4209.93843698 0 -529.59876293 0 125.01851743 0 11575
0.10350000 0.10349800 16902.67891070 0 79.81727549 0 4457.30019696 0 -40.64158438 0 -154.02389258 0 11364
0.10450000 0.10450100 17013.51172691 0 58.51916493 0 4593.04229519 0 -757.45012544 0 -110.26752388 0 12093
0.10550000 0.10551000 16981.36346582 0 -29.19669102 0 5020.25446687 0 -136.94934412 0 416.30536828 0 12067
0.10650000 0.10649700 17278.90349066 0 139.80559347 0 5780.24610345 0 -383.60631530 0 1161.44023678 0 12054
0.10750000 0.10749900 17268.78690501 0 374.50251227 0 6062.90350673 0 284.09845471 0 1774.26927398 0 12807
0.10850000 0.10850100 16850.85951083 0 454.10767669 0 6329.57670467 0 433.52154894 0 2187.23954119 0 12736
0.10950000 0.10950300 16442.48666977 0 415.93779900 0 6290.87514420 0 861.13388779 0 2190.47684860 0 12933
0.11050000 0.11050200 16027.70665780 0 496.80866068 0 5798.69201129 0 384.24366020 0 1158.48394564 0 13428
0.11150000 0.11150900 15829.87120493 0 120.67737812 0 5635.09558056 0 -30.30805416 0 1611.65077986 0 13453
0.11250000 0.11250000 15547.61846508 0 67.99863050 0 5460.75308772 0 -116.47787100 0 -57.93015483 0 13668
0.11350000 0.11349100 15823.12681449 0 47.34314794 0 5250.30562473 0 -533.05638710 0 891.71969842 0 13791
0.11450000 0.11448600 15597.07732829 0 -77.88230987 0 5293.51468614 0 -398.27986077 0 -867.74001822 0 14205
0.11550000 0.11549300 15727.01925074 0 234.79134027 0 5296.42601468 0 -330.91913720 0 97.73082612 0 14776
0.11650000 0.11649800 15706.11164038 0 373.62124526 0 5417.16184418 0 352.53603262 0 121.29673797 0 14553
0.11750000 0.11747300 15231.98099255 0 398.91945379 0 5030.89936311 0 386.99424743 0 -128.25807297 0 14568
0.11850000 0.11849100 15078.77092309 0 308.22313930 0 5200.02619401 0 725.74474599 0 807.53734103 0 16015
0.11950000 0.11950300 14631.16821098 0 16.10774009 0 4695.41090140 0 935.59982668 0 -313.56132434 0 15270
0.12050000 0.12050700 14815.73969598 0 54.08439099 0 4578.68798421 0 791.97803229 0 1079.77466109 0 15999
0.12150000 0.12150000 14523.25796396 0 57.58023337 0 3553.12473346 0 590.90077576 0 -204.96989388 0 15670
0.12250000 0.12250700 14561.81339597 0 191.04834795 0 4333.60807632 0 247.36400812 0 1277.97206291 0 16887
0.12350000 0.12352200 14212.67878427 0 343.06241218 0 3951.74068969 0 -154.81748252 0 371.23710324 0 16407
0.12450000 0.12449800 14091.84178891 0 358.35531750 0 4402.65939376 0 -252.64486583 0 1204.30083802 0 16306
0.12550000 0.12549900 13854.32683896 0 210.49130152 0 4668.23100793 0 -97.39439345 0 1173.88363714 0 17523
0.12650000 0.12650100 13717.41571306 0 58.89775004 0 4589.80498778 0 65.71183251 0 1626.55588273 0 17154
0.12750000 0.12750600 13769.79714546 0 99.13714393 0 4599.32581895 0 352.55176953 0 1735.88245174 0 18007
0.12850000 0.12850300 13751.58729128 0 91.35141961 0 4802.05095488 0 616.43054170 0 1724.83289207 0 17496
0.12950000 0.12949900 13569.37634293 0 137.33377437 0 4211.86058825 0 513.45718848 0 1158.09052286 0 18405
0.13050000 0.13049000 13314.32597784 0 273.01292495 0 4156.14068258 0 -39.06834290 0 1072.61436657 0 18100
0.13150000 0.13148800 13018.58445711 0 271.00422067 0 4330.62930388 0 -295.71679130 0 1380.92518295 0 19059
0.13250000 0.13249300 13055.79101103 0 307.04849130 0 4554.72291685 0 -193.43698623 0 1305.84887672 0 18957
0.13350000 0.13349100 12686.64804103 0 318.30038268 0 4686.50830602 0 -32.11184138 0 1767.82838111 0 19468
0.13450000 0.13450700 12649.21667409 0 227.88620853 0 4782.17748439 0 103.15657582 0 1543.92585920 0 19953
0.13550000 0.13551000 12512.30554819 0 58.98756284 0 5146.28464287 0 -53.15422714 0 1984.95279063 0 19956
0.13650000 0.13649900 12551.64782575 0 183.01915114 0 5045.08506434 0 125.31414654 0 1802.92169270 0 19723
0.13750000 0.13749600 12385.73582096 0 53.86519830 0 4689.17234024 0 319.27494710 0 1684.62508440 0 20946
0.13850000 0.13851100 12163.62056251 0 146.06213966 0 4665.44332655 0 280.25415216 0 1771.13313243 0 20955
0.13950000 0.13949800 12223.19601139 0 201.23350158 0 4183.66903622 0 825.02104918 0 1478.42658739 0 20506
0.14050000 0.14048300 11651.83373473 0 276.02654342 0 3887.36548295 0 816.34326682 0 1061.77725520 0 21447
0.14150000 0.14148400 11524.13994243 0 292.42103251 0 3261.17131203 0 424.06591354 0 681.81740700 0 21771
0.14250000 0.14249400 11069.79283988 0 137.33377437 0 3263.55432998 0 360.20215641 0 1311.46920209 0 22470
0.14350000 0.14350900 11004.87808191 0 104.95665363 0 2789.94075208 0 89.77525557 0 1080.31196419 0 22519
0.14450000 0.14449900 11124.80458456 0 -134.00878988 0 2964.71038965 0 88.77495006 0 1164.49769378 0 22218
0.14550000 0.14550500 11143.56523063 0 -83.31570322 0 3023.78000924 0 -63.55643774 0 1071.70162573 0 23559
0.14650000 0.14650700 11301.91227748 0 124.63858344 0 3076.17268230 0 -193.69889340 0 934.16551965 0 23044
0.14750000 0.14750500 11152.26549429 0 188.05945892 0 3061.91953717 0 -316.79413549 0 1334.60246129 0 23649
0.14850000 0.14849900 10965.86178322 0 367.05670523 0 3488.50223241 0 -246.66259151 0 848.89956353 0 23640
0.14950000 0.14949500 10825.23000193 0 273.73907099 0 3379.56908618 0 126.11448088 0 1461.13846657 0 24457
0.15050000 0.15050000 10577.25000615 0 211.99192840 0 3790.08889152 0 230.28046714 0 1166.94815564 0 24591
0.15150000 0.15149900 10431.89715155 0 135.89159888 0 3428.17365994 0 169.30106098 0 1206.16678604 0 25020
0.15250000 0.15250500 10356.07896237 0 136.30637889 0 3456.66870954 0 64.78650215 0 795.10855352 0 25297
0.15350000 0.15350100 10126.76968745 0 95.30633017 0 3348.32007714 0 83.82872652 0 525.90508510 0 25452
0.15450000 0.15450400 10187.78393962 0 92.76257091 0 2945.41019234 0 -28.95254409 0 356.83895372 0 26061
0.15550000 0.15549900 10128.39958181 0 -2.22415384 0 3090.77428760 0 -72.75151485 0 319.01528807 0 26128
0.15650000 0.15649500 10061.65259777 0 79.40946468 0 2818.89666837 0 36.53537466 0 -56.57621845 0 26331
0.15750000 0.15749700 10159.08655831 0 28.99289802 0 2719.51807525 0 -23.95776094 0 -249.63237143 0 27345
0.15850000 0.15849900 9976.68451889 0 35.83755507 0 2682.39020589 0 120.16368038 0 -280.67792469 0 26980
0.15950000 0.15949700 10134.61566166 0 78.98636659 0 2585.42835268 0 235.95474762 0 -242.86999595 0 27777
0.16050000 0.16050000 9923.79725720 0 49.45740193 0 2562.51990649 0 393.19234224 0 -138.86250287 0 28224
0.16150000 0.16150500 9939.84890645 0 13.85365240 0 2203.57220670 0 388.15315852 0 -412.28795971 0 28075
0.16250000 0.16249700 9898.14609224 0 90.85312157 0 2238.56435243 0 353.50048045 0 -178.08787766 0 28590
0.16350000 0.16349900 9665.97045139 0 271.47407987 0 2092.86303765 0 102.68716625 0 -97.23151642 0 29163
0.16450000 0.16449100 9369.46456641 0 322.39535175 0 2018.30380135 0 -111.55075657 0 -253.83862294 0 28996
0.16550000 0.16550500 9154.83558135 0 301.16738284 0 2263.23758078 0 -270.58494440 0 -40.86190113 0 30777
0.16650000 0.16650700 8979.17793238 0 250.44844268 0 2387.90763804 0 -230.59183316 0 -230.72559690 0 29211
0.16750000 0.16749900 8715.80948575 0 158.08401562 0 2330.76016972 0 -90.69856262 0 -312.74412903 0 30922
0.16850000 0.16850800 8738.11093680 0 98.28768796 0 2452.59758299 0 -49.42997474 0 -378.75485045 0 30867
0.16950000 0.16949900 8552.94369731 0 94.51015487 0 2641.19322096 0 69.50510251 0 -52.49395132 0 30852
0.17050000 0.17049200 8547.64935081 0 141.00384683 0 2522.12100777 0 85.33553575 0 -359.20286256 0 31257
0.17150000 0.17149500 8456.27410102 0 97.48128368 0 2522.14348907 0 307.74653571 0 -327.17262831 0 32608
0.17250000 0.17250900 8303.92956166 0 151.32388827 0 2749.09222733 0 184.54225931 0 -21.12657824 0 32361
0.17350000 0.17350400 8304.10941207 0 39.01742275 0 2274.12977134 0 -5.58435528 0 -191.32711609 0 32508
0.17450000 0.17449800 8300.23138757 0 59.49451619 0 2755.64552670 0 -56.69132271 0 275.96247171 0 32791
0.17550000 0.17549800 8258.60725792 0 2.03658110 0 2409.57961265 0 -100.09080074 0 -140.57895024 0 33633
0.17650000 0.17650100 8358.53664291 0 0.28871949 0 2814.79383085 0 -70.81609961 0 743.74552407 0 33984
0.17750000 0.17750300 8335.60571542 0 75.11092744 0 2503.98983814 0 12.93708974 0 217.36495945 0 34069
0.17850000 0.17849800 8408.40016956 0 27.21833649 0 2922.29941444 0 364.21394466 0 801.21897126 0 34536
