### header ###
fiducial parameters:
Omega_m = 0.31
Omega_nu = 0
Omega_de = 0.69
Omega_k = 0
H_0 = 100
w_de = -1
zeff = 0
beta = 0
fgrowth = 0
b_1 = 2
gamma = 0.55
Lx = 3500 Ly = 3500 Lz = 3500
nx = 700 ny = 700 nz = 700
xoffset = 857.220397 yoffset = 15.9954215 zoffset = 262.898189
bins = 400 dk = 0.001
kx_ny = 0.628318531 ky_ny = 0.628318531 kz_ny = 0.628318531
############################
A(data) = 3.07739483 (not used)
A(ran) = 3.07622487 (used)
Ngal = 188011
weighted Ngal = 0
Nran = 9360983
weighted Nran = 0
SN(data) = 3451.90698
SN(ran) = 69.0804495
SN(data+ran) = 3520.98743
############################
13 columns: k_central k_mean P_0(k) sigma^{lin}_{P_0(k)} P^img_1(k) sigma^{lin}_{P_1(k)} P_2(k) sigma^{lin}_{P_2(k)} P^img_3(k) sigma^{lin}_{P_3(k)} P_4(k) sigma^{lin}_{P_4(k)} N_modes
### header ###
0.00050000 0 0 0 0 0 0 0 0 0 0 0 0
0.00150000 0.00179520 8143.16577491 0 -21751.89563605 0 -19912.92517646 0 21958.16157696 0 59192.03027782 0 3
0.00250000 0.00253879 16436.64153139 0 -21951.64199954 0 -12397.76331724 0 -25537.63439574 0 -33148.00456665 0 6
0.00350000 0.00331552 38829.47907212 0 -33098.99532946 0 -45578.70299053 0 31708.52683404 0 18240.42875419 0 7
0.00450000 0.00420575 55760.93404869 0 -30371.22661657 0 -36754.56735369 0 -8512.73588964 0 -7306.81639792 0 24
0.00550000 0.00557378 84735.06018591 0 -16895.82211375 0 -60536.29969874 0 -12562.32644394 0 23909.42613735 0 45
0.00650000 0.00659388 71860.01883863 0 -3089.14439324 0 1777.13563992 0 -32810.67263821 0 -38729.10006109 0 40
0.00750000 0.00754703 89890.35983066 0 -7492.99529598 0 -49496.29458330 0 -15629.11318288 0 26946.20033884 0 57
0.00850000 0.00846663 90951.70207268 0 -7779.71057417 0 -11879.11969251 0 -14976.03137541 0 -11578.65709847 0 75
0.00950000 0.00948925 106885.32448386 0 -7995.63223406 0 -14140.17658705 0 -37123.26069766 0 22207.14199065 0 112
0.01050000 0.01054430 102111.64493143 0 1576.93965040 0 17677.83418511 0 -18504.24682685 0 -26627.64029712 0 105
0.01150000 0.01145670 101256.68103683 0 12331.21866491 0 13794.97620310 0 -24316.45010032 0 1895.15123194 0 144
0.01250000 0.01249090 90022.54988326 0 12746.22348990 0 23161.92286374 0 -7696.73209048 0 -10992.10870268 0 169
0.01350000 0.01339930 78431.30325597 0 11473.78182715 0 23044.00843758 0 -5137.69678571 0 3219.15375959 0 180
0.01450000 0.01448870 68347.54029821 0 2210.02434022 0 6723.77508515 0 13160.89109537 0 -22179.04036383 0 267
0.01550000 0.01550050 68923.28642865 0 -1619.74404838 0 -3839.75008645 0 5714.99412595 0 -40242.31646250 0 238
0.01650000 0.01653350 67613.97543151 0 -2727.22916165 0 -14740.76455561 0 500.78785104 0 -30274.89423981 0 315
0.01750000 0.01747870 70092.20169817 0 -1056.64589814 0 -1898.96181254 0 -11870.01476542 0 -24005.30888809 0 297
0.01850000 0.01844180 69996.54376045 0 3138.78310687 0 -10681.73185469 0 -12585.03255842 0 -12838.73404542 0 388
0.01950000 0.01947590 69812.87152750 0 719.80518614 0 -119.45327125 0 -11316.63752993 0 -15716.34063255 0 399
0.02050000 0.02045430 71382.51599558 0 -1036.40710650 0 6933.08724242 0 2252.59268454 0 -5647.68510937 0 462
0.02150000 0.02154770 71361.72079173 0 -1624.81358186 0 11057.37192082 0 8832.33007123 0 8846.08862772 0 571
0.02250000 0.02255340 72339.20777929 0 1350.95760810 0 -2158.24990295 0 16149.44290521 0 10665.19685747 0 510
0.02350000 0.02348930 68224.56757921 0 2670.80109498 0 13587.69860362 0 7824.29099497 0 22168.36174563 0 555
0.02450000 0.02439640 64210.08157715 0 2786.84957313 0 -10075.56852337 0 10284.27368550 0 16928.19518786 0 592
0.02550000 0.02547300 62920.89134481 0 2343.20357008 0 3456.75863475 0 4251.22534711 0 30944.94942988 0 837
0.02650000 0.02652900 59112.67128366 0 641.67142291 0 -9321.28713737 0 2633.35848740 0 26024.46697890 0 723
0.02750000 0.02749970 59597.93017571 0 -1281.52410854 0 6442.23050629 0 2927.11041295 0 31970.65880908 0 826
0.02850000 0.02848090 61497.93736877 0 -1267.47329513 0 -3658.77560968 0 -4321.46817353 0 21070.03776271 0 831
0.02950000 0.02946900 64970.62400561 0 578.56191345 0 6892.39608677 0 -7462.69050161 0 18336.64872445 0 996
0.03050000 0.03053250 64478.95794263 0 1912.15833650 0 12111.80116264 0 -17369.61554206 0 12763.42168552 0 1041
0.03150000 0.03150510 63038.69336447 0 4680.33718877 0 18719.73010136 0 -9557.56561574 0 8730.11883413 0 1036
0.03250000 0.03246190 58090.67131920 0 2275.57981528 0 16769.70201255 0 -6300.49714123 0 3305.95406454 0 1059
0.03350000 0.03345080 60750.54650167 0 3159.75816113 0 21521.91192209 0 451.13677270 0 -3327.01904401 0 1302
0.03450000 0.03451200 58545.13082825 0 1801.93251543 0 24550.48044854 0 3606.46162118 0 -6692.18885660 0 1339
0.03550000 0.03553350 54418.80035141 0 1798.50411696 0 18043.94217942 0 4818.06888217 0 -12465.88166067 0 1365
0.03650000 0.03647120 53746.72184420 0 1564.87843217 0 14382.74982983 0 3638.90213919 0 -5194.55199711 0 1308
0.03750000 0.03744890 52580.50433086 0 277.87001014 0 11489.51873818 0 1853.89804376 0 -13990.56352582 0 1579
0.03850000 0.03847530 53748.74516134 0 -250.96551261 0 14238.30746793 0 -19.19712054 0 -2830.35089146 0 1662
0.03950000 0.03950240 52673.91413844 0 -99.39511687 0 12505.67356426 0 -4868.77545762 0 -6830.56126710 0 1683
0.04050000 0.04050350 54550.99040401 0 1221.34166453 0 18838.99340562 0 -2227.06516673 0 -1097.90133446 0 1822
0.04150000 0.04152450 51823.10928461 0 2217.79162988 0 20138.07541060 0 -2856.27183205 0 -3046.89078714 0 1887
0.04250000 0.04250150 49174.92437890 0 4064.30456611 0 24181.44988504 0 -1731.17261908 0 -2122.36974582 0 1920
0.04350000 0.04349210 47556.60789316 0 2855.20397023 0 24570.71361986 0 3499.63047663 0 -1509.09108259 0 2005
0.04450000 0.04448520 44795.45444759 0 2266.04774346 0 24533.05743991 0 5471.27433680 0 -2504.02356009 0 2151
0.04550000 0.04548030 43150.61002613 0 950.49144077 0 22305.49768455 0 5305.47473852 0 -2534.99155285 0 2274
0.04650000 0.04648670 42158.17297309 0 1210.26962356 0 17892.08098804 0 2901.05458456 0 -2263.57480030 0 2311
0.04750000 0.04749250 40401.70888986 0 1388.40021569 0 17684.91579507 0 3343.09317455 0 -2563.68893417 0 2568
0.04850000 0.04851840 39160.06661012 0 807.41594201 0 13880.74236818 0 1744.25673653 0 -2106.14948682 0 2493
0.04950000 0.04949480 39656.45374640 0 -76.30277363 0 13249.35501662 0 2336.95376827 0 -3306.17887755 0 2644
0.05050000 0.05050630 39029.89987465 0 -546.89250408 0 10453.73773592 0 2871.06452841 0 -694.10681044 0 2829
0.05150000 0.05149060 39398.03118609 0 -533.49589654 0 8449.50722928 0 2709.66002456 0 -4025.18710156 0 2784
0.05250000 0.05249300 40193.64444483 0 48.94853767 0 10331.76543484 0 1859.04626180 0 -86.85055065 0 3055
0.05350000 0.05348950 39357.78965648 0 1132.87774327 0 9602.71930972 0 -201.65952224 0 -879.24819644 0 3009
0.05450000 0.05448610 38148.52045084 0 1253.62481342 0 12249.49913410 0 974.34185349 0 3790.29122324 0 3336
0.05550000 0.05550870 37062.67359022 0 1203.22173555 0 11912.50442518 0 90.38461124 0 6573.84728570 0 3349
0.05650000 0.05647670 36323.71321117 0 1188.36159528 0 13965.94650072 0 2324.00453863 0 8437.20995738 0 3324
0.05750000 0.05747970 35203.13273980 0 636.20397040 0 12468.91663637 0 3502.22706695 0 9950.98839132 0 3639
0.05850000 0.05849280 35161.76714511 0 395.63156345 0 12821.98547583 0 3046.90202779 0 10745.36517848 0 3846
0.05950000 0.05951020 34159.43831942 0 886.37814120 0 11270.21364241 0 2376.01502956 0 12736.78134329 0 3787
0.06050000 0.06049470 33695.42425725 0 1391.82861416 0 12149.56974910 0 787.55820843 0 12183.62892081 0 3930
0.06150000 0.06148310 31087.36847464 0 1482.64183142 0 9221.33527107 0 1091.09174824 0 9608.82298307 0 4083
0.06250000 0.06249100 30910.89025817 0 1706.27457771 0 10901.36292933 0 -417.21361286 0 10742.85851337 0 4303
0.06350000 0.06350600 28789.55465221 0 972.88056890 0 8738.27954656 0 906.62367723 0 9014.42861307 0 4470
0.06450000 0.06451750 28080.38199760 0 569.64245709 0 8603.94252967 0 846.47832736 0 8390.58373815 0 4479
0.06550000 0.06550280 27954.37430290 0 389.65715759 0 8814.40123331 0 1392.16583368 0 5465.27182931 0 4636
0.06650000 0.06648880 27297.69548720 0 556.32790630 0 9118.37091038 0 279.58196124 0 7587.58537188 0 4653
0.06750000 0.06749660 26147.88932392 0 1558.95460923 0 8737.51518231 0 -691.22245947 0 6508.10071958 0 5220
0.06850000 0.06852730 25854.05871382 0 890.42140327 0 8477.92359433 0 546.29112927 0 8662.77609560 0 5029
0.06950000 0.06949320 24351.07130458 0 232.58255241 0 9759.31281506 0 924.84139987 0 7463.62347562 0 5040
0.07050000 0.07048030 25145.56049824 0 -241.30417331 0 8099.04622079 0 1402.47351040 0 8203.05596200 0 5475
0.07150000 0.07148790 25156.01430342 0 -1276.64566612 0 7871.37808088 0 2219.05058276 0 6022.34723889 0 5509
0.07250000 0.07249820 26196.78615460 0 -771.51105544 0 6176.40035716 0 1171.46689723 0 6721.95409974 0 5916
0.07350000 0.07351270 26351.12028914 0 -499.64692499 0 5737.30681765 0 72.09753379 0 4562.77122277 0 5721
0.07450000 0.07449140 27029.15634123 0 204.44158330 0 5376.98775847 0 -1314.58286234 0 3757.35611659 0 6028
0.07550000 0.07549160 26399.45508728 0 592.33171059 0 6989.05444241 0 -1365.25571583 0 3919.85096356 0 6183
0.07650000 0.07648840 26411.37017706 0 614.37013042 0 7424.37112326 0 -874.53499159 0 4174.03579854 0 6330
0.07750000 0.07749960 25865.41177105 0 503.27428298 0 6998.80008659 0 130.17797612 0 4227.41764886 0 6583
0.07850000 0.07848650 25956.23622896 0 274.61696581 0 8871.84095854 0 626.06827563 0 4227.26027975 0 6549
0.07950000 0.07947320 25070.92257739 0 606.02731945 0 7414.35570346 0 1324.46339433 0 3548.29125365 0 6828
0.08050000 0.08048110 25302.25516943 0 360.41685284 0 8080.65651619 0 1266.85505933 0 3528.90113114 0 7147
0.08150000 0.08149960 24591.73363673 0 430.94743992 0 8466.68294360 0 525.92307014 0 5298.21327815 0 7386
0.08250000 0.08250610 24614.10253168 0 391.95025034 0 7919.60047252 0 787.92240551 0 2882.05788482 0 7227
0.08350000 0.08350160 24127.26994852 0 458.46005665 0 7195.38782722 0 915.75783001 0 3380.05243416 0 7798
0.08450000 0.08449610 23264.10037889 0 505.44148044 0 6397.84117656 0 874.69011257 0 2608.65153709 0 7371
0.08550000 0.08548940 23245.21608566 0 743.23407446 0 6445.23176004 0 -181.10374425 0 1970.53103575 0 8256
0.08650000 0.08650700 22606.63471763 0 765.49056291 0 5821.82527050 0 -640.07862270 0 931.70494120 0 8037
0.08750000 0.08749060 21922.64112065 0 869.78132039 0 6565.82146108 0 -1278.25307918 0 -35.57452384 0 8155
0.08850000 0.08849210 21520.67545051 0 785.27860446 0 7545.73642921 0 -1433.04808039 0 -17.17133046 0 8718
0.08950000 0.08949900 20920.98673401 0 409.99599102 0 8267.44240939 0 -824.74677730 0 -252.97309283 0 8571
0.09050000 0.09049190 21086.33670627 0 93.28143934 0 7922.28698804 0 19.56637591 0 -545.70324323 0 8932
0.09150000 0.09150830 20876.24894410 0 57.00190189 0 7759.66849392 0 1377.57546904 0 -834.11023936 0 9285
0.09250000 0.09250820 20717.75576880 0 44.80017552 0 7561.54078413 0 1980.79374986 0 -428.00688569 0 9204
0.09350000 0.09350330 20466.19000544 0 421.09388549 0 7143.89440622 0 1111.09561029 0 73.15842640 0 9349
0.09450000 0.09448040 20074.67814048 0 474.54655191 0 6308.86018537 0 623.16256742 0 -568.28121429 0 9564
0.09550000 0.09549270 19548.16606024 0 385.46776706 0 6484.19185547 0 -115.52691195 0 979.11800599 0 10155
0.09650000 0.09649430 19100.11372210 0 184.54001118 0 5828.80571460 0 35.49404078 0 -810.25982664 0 9913
0.09750000 0.09749140 19065.82973737 0 -52.30780614 0 6375.41607835 0 -245.45759375 0 86.17757289 0 10476
0.09850000 0.09850240 19170.36778917 0 190.33906289 0 6428.28085874 0 -439.30486374 0 -909.31918527 0 10575
0.09950000 0.09950330 18955.22173418 0 461.20614762 0 5972.80969112 0 -347.42378466 0 -1302.79141972 0 10882
0.10050000 0.10051200 18468.95118355 0 710.97340687 0 6167.34039267 0 -333.77426248 0 -1811.77932547 0 10875
0.10150000 0.10150300 17627.47606983 0 638.76234250 0 5549.39685938 0 293.71033515 0 -2125.89931015 0 11118
0.10250000 0.10250800 17281.03921430 0 423.77028443 0 5547.45222681 0 1142.15128013 0 -1405.38483894 0 11575
0.10350000 0.10349800 16892.78713806 0 50.07811067 0 4766.66538638 0 1061.27817031 0 -2565.38627243 0 11364
0.10450000 0.10450100 16924.03614709 0 30.65449101 0 4357.52818107 0 1083.73024608 0 -1828.47169181 0 12093
0.10550000 0.10551000 16652.57443193 0 -6.94100066 0 3121.95585272 0 799.16193218 0 -1771.20057633 0 12067
0.10650000 0.10649700 16473.06123976 0 191.04272763 0 3067.06775520 0 311.85274543 0 -929.22075739 0 12054
0.10750000 0.10749900 16292.64879553 0 90.21465260 0 2636.39346310 0 418.23426394 0 -1783.23931327 0 12807
0.10850000 0.10850100 16162.03243403 0 114.52986623 0 2693.39480295 0 747.12446368 0 -854.55698304 0 12736
0.10950000 0.10950300 15948.68488316 0 126.26510560 0 1684.47895594 0 706.49288348 0 -1549.72603498 0 12933
0.11050000 0.11050200 15657.55202923 0 207.64629282 0 1791.54615416 0 633.12178397 0 -1322.67613086 0 13428
0.11150000 0.11150900 15554.25044901 0 214.34459659 0 1510.67601434 0 258.68671560 0 -801.07396686 0 13453
0.11250000 0.11250000 15403.85054223 0 445.64121856 0 1560.49457838 0 -194.71842042 0 -1016.82589293 0 13668
0.11350000 0.11349100 15242.32239122 0 152.88296653 0 1508.41664354 0 275.15202079 0 -172.96326499 0 13791
0.11450000 0.11448600 14865.98540475 0 264.86907350 0 2076.73270385 0 -281.57830081 0 -429.93128509 0 14205
0.11550000 0.11549300 15061.46032096 0 124.73974929 0 1937.53972585 0 -57.73557916 0 151.29578664 0 14776
0.11650000 0.11649800 14685.23574100 0 195.45693117 0 2612.10241687 0 -68.32134958 0 -243.09593303 0 14553
0.11750000 0.11747300 14800.11519147 0 201.00531637 0 2559.15895192 0 -299.40147661 0 401.52840883 0 14568
0.11850000 0.11849100 14517.97485812 0 238.86157990 0 2582.55074610 0 -453.78956627 0 -89.01786052 0 16015
0.11950000 0.11950300 14535.39786675 0 253.64978001 0 3152.09203733 0 -363.88009733 0 243.31849792 0 15270
0.12050000 0.12050700 14230.88863845 0 14.27247905 0 2946.68038588 0 -521.20761716 0 -208.64109041 0 15999
0.12150000 0.12150000 14552.70846888 0 161.81928386 0 3841.57107187 0 -97.50466423 0 -18.42129082 0 15670
0.12250000 0.12250700 14276.18846090 0 111.55502802 0 3630.85383327 0 -113.87566036 0 -319.62003508 0 16887
0.12350000 0.12352200 14239.65634602 0 288.39800361 0 3749.07175701 0 197.37233806 0 -476.10563017 0 16407
0.12450000 0.12449800 13974.37698877 0 345.59830298 0 3447.40641334 0 377.74094375 0 -196.42587526 0 16306
0.12550000 0.12549900 13656.37897959 0 340.86486496 0 3092.68519822 0 568.33854161 0 -624.48671608 0 17523
0.12650000 0.12650100 13156.61964809 0 338.96744312 0 2968.82446782 0 548.70674511 0 -716.09577140 0 17154
0.12750000 0.12750600 12781.85635272 0 232.45440899 0 2156.01301346 0 50.98365749 0 -1174.70420464 0 18007
0.12850000 0.12850300 12657.98438166 0 91.04241412 0 2274.42202826 0 1.08461039 0 -1397.17916391 0 17496
0.12950000 0.12949900 12726.66475763 0 -76.54849426 0 1632.19868939 0 -347.30238564 0 -1365.13206868 0 18405
0.13050000 0.13049000 12847.61415949 0 -74.48561004 0 2734.92900741 0 -481.70459830 0 -1625.97136889 0 18100
0.13150000 0.13148800 12924.61261700 0 122.02850434 0 2523.00901917 0 -685.83369151 0 -1945.32949681 0 19059
0.13250000 0.13249300 12897.74746175 0 256.79266595 0 3490.19957067 0 -805.86023595 0 -1483.51860217 0 18957
0.13350000 0.13349100 12572.33062309 0 414.25619765 0 3526.12469041 0 -145.31800859 0 -1667.67418310 0 19468
0.13450000 0.13450700 12425.86494407 0 268.38290092 0 3523.80911636 0 433.13711868 0 -1223.38746296 0 19953
0.13550000 0.13551000 12197.34251471 0 100.57639685 0 3697.31980104 0 738.13419123 0 -1062.10548220 0 19956
0.13650000 0.13649900 12074.93182825 0 95.03374439 0 3170.75151755 0 864.66907244 0 -584.30476191 0 19723
0.13750000 0.13749600 11927.00486463 0 103.62373727 0 2973.64670698 0 861.90612049 0 -687.81092197 0 20946
0.13850000 0.13851100 11788.63245413 0 120.21201518 0 2760.38908131 0 364.09366970 0 478.90455220 0 20955
0.13950000 0.13949800 11718.49079357 0 118.10776536 0 2660.21240200 0 438.85636177 0 606.93781215 0 20506
0.14050000 0.14048300 11689.82713420 0 139.60326175 0 3348.10650478 0 -35.01215408 0 1941.67628532 0 21447
0.14150000 0.14148400 11616.42568493 0 158.94167727 0 3470.37106278 0 -108.56906156 0 1573.36512347 0 21771
0.14250000 0.14249400 11622.60804283 0 310.20149383 0 4370.93827740 0 -474.38693467 0 2375.30686857 0 22470
0.14350000 0.14350900 11297.86564321 0 306.88212967 0 4327.09973955 0 -470.11548739 0 2110.62326581 0 22519
0.14450000 0.14449900 11353.28205132 0 286.84566974 0 5320.05386252 0 -517.41277347 0 2370.75440502 0 22218
0.14550000 0.14550500 11092.21793809 0 249.84594380 0 4745.40931585 0 -222.54352724 0 2159.05922981 0 23559
0.14650000 0.14650700 10870.04647639 0 154.82984723 0 5368.70339888 0 226.92738102 0 1718.62805286 0 23044
0.14750000 0.14750500 10778.82859571 0 60.33778981 0 4652.43789365 0 465.72151702 0 1544.04950636 0 23649
0.14850000 0.14849900 10728.08829831 0 102.88657539 0 4806.90691600 0 659.26304131 0 837.22052742 0 23640
0.14950000 0.14949500 10523.87939648 0 95.90849183 0 4158.64734769 0 304.38558114 0 1084.04048804 0 24457
0.15050000 0.15050000 10429.84011246 0 141.38827709 0 4005.68457254 0 114.74343860 0 731.91473918 0 24591
0.15150000 0.15149900 10381.52779562 0 63.36028838 0 3647.79349392 0 85.07879929 0 963.12593219 0 25020
0.15250000 0.15250500 10190.84139662 0 178.19691197 0 3709.07752171 0 44.13663991 0 571.38250983 0 25297
0.15350000 0.15350100 10081.23381134 0 190.96516714 0 3356.33466112 0 226.81834671 0 470.97876937 0 25452
0.15450000 0.15450400 9793.32702417 0 198.00406263 0 3066.98907065 0 559.55734526 0 307.77688547 0 26061
0.15550000 0.15549900 9572.06605518 0 288.43622182 0 2872.00874307 0 416.68417821 0 120.14119908 0 26128
0.15650000 0.15649500 9342.14978513 0 254.25340295 0 2561.82298615 0 415.87934762 0 425.54068692 0 26331
0.15750000 0.15749700 9036.68510151 0 203.03200570 0 2608.67401839 0 108.12404419 0 -198.87408899 0 27345
0.15850000 0.15849900 9057.55898992 0 146.75681188 0 2442.37983148 0 -136.68631289 0 398.61145996 0 26980
0.15950000 0.15949700 8849.67439530 0 145.70918323 0 2844.03076340 0 -150.63708451 0 138.82540872 0 27777
0.16050000 0.16050000 8790.53733181 0 64.69016977 0 2691.32652322 0 -194.54419033 0 417.03601058 0 28224
0.16150000 0.16150500 8797.54025721 0 40.14092579 0 2964.39565143 0 84.68650057 0 265.26249628 0 28075
0.16250000 0.16249700 8803.41911755 0 11.21488716 0 2796.05566608 0 208.67144017 0 22.14183381 0 28590
0.16350000 0.16349900 8785.74881460 0 12.93427958 0 2788.29961708 0 216.80629910 0 394.25570780 0 29163
0.16450000 0.16449100 8768.62930353 0 69.35267929 0 2525.72925665 0 290.80125474 0 281.91664440 0 28996
0.16550000 0.16550500 8656.81855071 0 94.08739400 0 2426.05840662 0 326.06767234 0 361.58138426 0 30777
0.16650000 0.16650700 8582.69769979 0 180.19887187 0 2268.44200207 0 109.86713190 0 300.76496754 0 29211
0.16750000 0.16749900 8514.66928157 0 67.14434104 0 2342.69774080 0 235.66361477 0 742.91596405 0 30922
0.16850000 0.16850800 8482.40861397 0 53.18266599 0 2311.13399355 0 33.09202613 0 535.35734830 0 30867
0.16950000 0.16949900 8486.62385799 0 14.70985277 0 2222.95108856 0 91.70550011 0 808.53551082 0 30852
0.17050000 0.17049200 8413.17744612 0 118.76534343 0 2258.48278552 0 -138.77482579 0 431.08907212 0 31257
0.17150000 0.17149500 8417.57254055 0 86.05032873 0 2243.07185337 0 -89.67015548 0 498.91178643 0 32608
0.17250000 0.17250900 8338.38215615 0 114.31067354 0 2578.61651834 0 -177.90915131 0 544.95124370 0 32361
0.17350000 0.17350400 8326.87172981 0 51.85705605 0 2273.33168514 0 131.84833681 0 468.18097140 0 32508
0.17450000 0.17449800 8126.81062809 0 17.72245957 0 2445.53845434 0 171.46151406 0 472.17589867 0 32791
0.17550000 0.17549800 8171.27864239 0 97.22589609 0 2193.77035926 0 144.66380271 0 293.86208393 0 33633
0.17650000 0.17650100 8116.18821315 0 87.90391203 0 2278.52486577 0 443.59317199 0 507.48840294 0 33984
0.17750000 0.17750300 7974.57849525 0 167.07316401 0 2025.52029912 0 159.82856461 0 365.36161510 0 34069
