### header ###
fiducial parameters:
Omega_m = 0.31
Omega_nu = 0
Omega_de = 0.69
Omega_k = 0
H_0 = 100
w_de = -1
zeff = 0
beta = 0
fgrowth = 0
b_1 = 2
gamma = 0.55
Lx = 3500 Ly = 3500 Lz = 3500
nx = 700 ny = 700 nz = 700
xoffset = 857.220397 yoffset = 15.9954215 zoffset = 262.898189
bins = 400 dk = 0.001
kx_ny = 0.628318531 ky_ny = 0.628318531 kz_ny = 0.628318531
############################
A(data) = 3.08675113 (not used)
A(ran) = 3.08725018 (used)
Ngal = 188704
weighted Ngal = 0
Nran = 9360983
weighted Nran = 0
SN(data) = 3440.14849
SN(ran) = 69.3280366
SN(data+ran) = 3509.47653
############################
13 columns: k_central k_mean P_0(k) sigma^{lin}_{P_0(k)} P^img_1(k) sigma^{lin}_{P_1(k)} P_2(k) sigma^{lin}_{P_2(k)} P^img_3(k) sigma^{lin}_{P_3(k)} P_4(k) sigma^{lin}_{P_4(k)} N_modes
### header ###
0.00050000 0 0 0 0 0 0 0 0 0 0 0 0
0.00150000 0.00179520 -569.54466343 0 -3876.87795582 0 -17124.56935613 0 22595.28166039 0 27921.77641578 0 3
0.00250000 0.00253879 7079.92386291 0 -12440.70260303 0 743.91188570 0 1336.26607760 0 6950.91491448 0 6
0.00350000 0.00331552 17360.39820846 0 -21458.62705848 0 -20499.91195763 0 5005.95635914 0 10656.22681819 0 7
0.00450000 0.00420575 38788.00107092 0 -31974.14341081 0 -15849.54234371 0 444.31706990 0 3372.11653474 0 24
0.00550000 0.00557378 79461.50889546 0 -42645.45518228 0 -56914.22481369 0 25373.85811459 0 40683.84922321 0 45
0.00650000 0.00659388 98773.62129035 0 -22779.40351937 0 -25902.39351196 0 16215.20071199 0 -21682.42841453 0 40
0.00750000 0.00754703 120672.88185748 0 -19070.10118465 0 -90908.65038038 0 11931.27631190 0 31995.38824069 0 57
0.00850000 0.00846663 115405.51292494 0 -91.45775617 0 -50684.65617858 0 -7882.57376901 0 16582.88239740 0 75
0.00950000 0.00948925 110825.28497158 0 19730.37700859 0 -58644.94780674 0 -29961.95452346 0 41767.11073416 0 112
0.01050000 0.01054430 75911.37417510 0 23536.57375261 0 -22571.11426132 0 -25247.40079386 0 23214.75392218 0 105
0.01150000 0.01145670 68017.28997973 0 17677.72177860 0 -5357.08056603 0 -27450.68074365 0 35437.50030754 0 144
0.01250000 0.01249090 53792.92091871 0 4634.75635005 0 10449.06162521 0 -5889.08932447 0 18002.01455219 0 169
0.01350000 0.01339930 52273.85937892 0 -6504.41378614 0 14876.43920993 0 -6284.68154565 0 7132.12544491 0 180
0.01450000 0.01448870 63169.53453898 0 -7389.07547997 0 17189.54031735 0 -9027.95111590 0 1960.04350861 0 267
0.01550000 0.01550050 77151.89238977 0 -8866.67025921 0 20654.02127915 0 -18080.47429429 0 -8935.99135227 0 238
0.01650000 0.01653350 72159.13255458 0 1439.96108059 0 20208.77910370 0 -12521.63528829 0 -6923.98231532 0 315
0.01750000 0.01747870 76490.49250076 0 7055.66653864 0 11000.82020699 0 -12610.32402256 0 -20837.35629257 0 297
0.01850000 0.01844180 64605.75248288 0 7217.37454005 0 11286.62499248 0 -1082.40272523 0 -23009.94926586 0 388
0.01950000 0.01947590 61748.49147357 0 8364.50542845 0 11114.19341027 0 -2170.33360249 0 -30567.26356532 0 399
0.02050000 0.02045430 53133.99397286 0 4085.84165291 0 4098.07148090 0 -2616.78976822 0 -26556.14975847 0 462
0.02150000 0.02154770 52766.98672649 0 -766.04023073 0 4147.53034412 0 -1357.63455464 0 -31222.59350294 0 571
0.02250000 0.02255340 53804.94841499 0 -2329.68106725 0 -858.60586544 0 -6874.62461796 0 -25944.88317172 0 510
0.02350000 0.02348930 59586.80193149 0 -2287.41622050 0 4990.57914894 0 -10314.97190264 0 -29879.67296011 0 555
0.02450000 0.02439640 59167.63806573 0 -1543.52119578 0 5520.71071872 0 -7016.06572611 0 -34722.03288851 0 592
0.02550000 0.02547300 63244.50967936 0 -370.48060744 0 10633.45325980 0 -5871.58763129 0 -20034.43661086 0 837
0.02650000 0.02652900 60754.48072943 0 2568.38752617 0 13286.56157054 0 2285.33670012 0 -23131.91032629 0 723
0.02750000 0.02749970 65039.97882062 0 3113.58156793 0 13027.80179071 0 4031.57179118 0 -12238.37088987 0 826
0.02850000 0.02848090 55171.13710484 0 4304.13509010 0 13185.28330745 0 5762.74441026 0 -15639.67939456 0 831
0.02950000 0.02946900 53872.95435191 0 4122.05902956 0 9671.34348244 0 5260.45593234 0 -4391.08152351 0 996
0.03050000 0.03053250 49716.16171159 0 2936.74365063 0 11576.85859436 0 1428.51809815 0 4390.18227145 0 1041
0.03150000 0.03150510 45243.39437922 0 2294.82380933 0 12259.05368722 0 1659.17625115 0 5447.59028571 0 1036
0.03250000 0.03246190 49380.06625474 0 269.57328583 0 15594.71679164 0 -1293.00081294 0 11950.38541815 0 1059
0.03350000 0.03345080 46328.34198778 0 -373.12103630 0 14962.31778151 0 1895.97179945 0 19140.24284521 0 1302
0.03450000 0.03451200 50056.97824176 0 -919.67294866 0 18166.12805286 0 4622.23426514 0 20034.54901737 0 1339
0.03550000 0.03553350 51296.70961088 0 -2743.19088569 0 19032.10778518 0 6737.07277497 0 21948.71943035 0 1365
0.03650000 0.03647120 53685.46029772 0 -2685.73991981 0 12564.91179361 0 8603.84136382 0 16040.29618662 0 1308
0.03750000 0.03744890 55708.21539676 0 -2897.76107389 0 9484.53510794 0 5021.90684253 0 10054.02019592 0 1579
0.03850000 0.03847530 56503.37902947 0 -739.08739841 0 4375.72679461 0 1229.64850542 0 6112.08135367 0 1662
0.03950000 0.03950240 55660.55503766 0 1364.85105241 0 2977.78326645 0 -2617.98127720 0 847.69006951 0 1683
0.04050000 0.04050350 52841.28742782 0 2596.21937738 0 3742.32736657 0 -5365.85951425 0 -2699.09381287 0 1822
0.04150000 0.04152450 50710.84689478 0 2626.74898477 0 851.40398051 0 -2538.20637896 0 -3219.33361001 0 1887
0.04250000 0.04250150 48101.32982758 0 1779.57486113 0 5467.45251555 0 1990.26961843 0 -5552.00469035 0 1920
0.04350000 0.04349210 47784.45588347 0 1062.96988825 0 1655.46683641 0 1072.58851308 0 -2614.80017304 0 2005
0.04450000 0.04448520 47065.95348875 0 666.55035518 0 1817.38841019 0 2799.81004342 0 -1766.42329977 0 2151
0.04550000 0.04548030 46191.20604886 0 1378.86814387 0 3882.22850557 0 -2264.05814828 0 1594.73360051 0 2274
0.04650000 0.04648670 45491.58794736 0 835.33884249 0 4579.63219887 0 -3834.53442451 0 -1106.47457877 0 2311
0.04750000 0.04749250 44279.95820507 0 2566.53281880 0 7942.91358214 0 -5004.71988756 0 -2418.69578039 0 2568
0.04850000 0.04851840 42547.99874044 0 2414.19952010 0 6004.90174895 0 -4354.11102325 0 -3789.25708337 0 2493
0.04950000 0.04949480 39761.89105026 0 1965.92236895 0 5593.40400699 0 -1348.41722104 0 -5503.45631985 0 2644
0.05050000 0.05050630 38543.85413705 0 1777.68643180 0 7860.01378299 0 2360.31184049 0 -7794.46954858 0 2829
0.05150000 0.05149060 36135.43231142 0 667.06292885 0 5864.12383920 0 3924.40342711 0 -12098.87441430 0 2784
0.05250000 0.05249300 36277.85135619 0 754.19033673 0 6548.03875163 0 978.69985378 0 -10093.95822797 0 3055
0.05350000 0.05348950 35230.89714710 0 1188.12554162 0 5296.35857078 0 -1068.18105392 0 -11319.67250563 0 3009
0.05450000 0.05448610 34128.18931039 0 889.33555640 0 9391.92338657 0 -2026.41955118 0 -7339.04334357 0 3336
0.05550000 0.05550870 33729.25861595 0 801.42467517 0 10581.51021278 0 -1881.80857953 0 -8113.61410414 0 3349
0.05650000 0.05647670 33670.35760612 0 477.73777265 0 11844.27367525 0 -2633.22359959 0 -7288.39297137 0 3324
0.05750000 0.05747970 33367.64688193 0 70.82936357 0 11339.56845742 0 -870.70979814 0 -8252.75087888 0 3639
0.05850000 0.05849280 33384.95748406 0 166.37961586 0 11342.94065264 0 -81.22089555 0 -9546.85327559 0 3846
0.05950000 0.05951020 33322.00983996 0 147.02995969 0 9749.73578064 0 1106.01483616 0 -9801.80247482 0 3787
0.06050000 0.06049470 32681.62996782 0 -77.00778725 0 8100.54122734 0 180.64175351 0 -11930.26465334 0 3930
0.06150000 0.06148310 32760.98896198 0 196.96542650 0 6489.58736782 0 1776.97827081 0 -10500.16162344 0 4083
0.06250000 0.06249100 32475.36402691 0 636.57153968 0 7276.77013852 0 119.01038961 0 -10023.99641782 0 4303
0.06350000 0.06350600 32231.21709303 0 524.85183613 0 6251.16192517 0 336.04712206 0 -7131.28239610 0 4470
0.06450000 0.06451750 31819.92168278 0 888.00016710 0 8764.29041235 0 -824.18699290 0 -4513.79570754 0 4479
0.06550000 0.06550280 30642.57592522 0 1498.43494569 0 9333.07857999 0 1167.26289386 0 -3560.97070767 0 4636
0.06650000 0.06648880 29792.67032345 0 706.75141845 0 11279.20616300 0 1815.19648329 0 -613.71367642 0 4653
0.06750000 0.06749660 29319.66374069 0 624.31248599 0 9887.32134558 0 2190.87027137 0 863.65291761 0 5220
0.06850000 0.06852730 28546.53178341 0 312.22705909 0 8922.24403642 0 2301.68060628 0 1065.58446361 0 5029
0.06950000 0.06949320 28945.12525833 0 42.17975502 0 7808.23934573 0 1832.77686104 0 -53.28720404 0 5040
0.07050000 0.07048030 28001.13540994 0 268.06254237 0 6820.61329120 0 1170.57888582 0 272.99381585 0 5475
0.07150000 0.07148790 27890.19018723 0 263.81357640 0 6036.89264094 0 -607.40991949 0 -779.65603096 0 5509
0.07250000 0.07249820 27802.96273756 0 173.53653818 0 6509.58448548 0 -708.80958160 0 -309.52480666 0 5916
0.07350000 0.07351270 28211.11076560 0 93.67283880 0 7941.77827641 0 -1130.20246840 0 -715.69448017 0 5721
0.07450000 0.07449140 27988.20866160 0 297.61646127 0 7590.67655083 0 -826.69253395 0 -283.33071826 0 6028
0.07550000 0.07549160 28113.20469773 0 332.21293609 0 8740.30286369 0 -249.24344492 0 843.10950434 0 6183
0.07650000 0.07648840 27753.16665482 0 665.04635611 0 9804.32038059 0 52.26632814 0 886.39837437 0 6330
0.07750000 0.07749960 27440.78897100 0 619.84095513 0 9304.81958405 0 1402.47351040 0 2342.24811477 0 6583
0.07850000 0.07848650 26304.58399511 0 702.10565750 0 9123.42920321 0 2225.98606426 0 860.42797492 0 6549
0.07950000 0.07947320 25790.21181766 0 1081.35622065 0 8286.33794327 0 1022.49118090 0 1926.25411252 0 6828
0.08050000 0.08048110 24241.92458598 0 924.45472148 0 9245.30033843 0 684.37128285 0 477.12740532 0 7147
0.08150000 0.08149960 23598.06011211 0 629.48543346 0 8487.20837183 0 -309.41464828 0 1396.98807285 0 7386
0.08250000 0.08250610 23462.94749032 0 192.85247240 0 9094.87795035 0 190.71787282 0 1207.36953567 0 7227
0.08350000 0.08350160 23242.40592298 0 -166.86521197 0 8181.29406219 0 -112.47282715 0 561.61438434 0 7798
0.08450000 0.08449610 23481.15734450 0 -171.06134689 0 8933.65329691 0 626.76182378 0 1926.64753529 0 7371
0.08550000 0.08548940 23760.26270215 0 23.20980804 0 7215.55355463 0 772.12591904 0 -1303.36469291 0 8256
0.08650000 0.08650700 23020.74029056 0 377.12720422 0 6332.63416167 0 1158.76496191 0 504.11283553 0 8037
0.08750000 0.08749060 22890.91077462 0 454.70118304 0 4253.61960572 0 1006.06746612 0 -2613.93464294 0 8155
0.08850000 0.08849210 21814.73087363 0 514.20918801 0 3439.31314481 0 904.70377408 0 -2662.31440368 0 8718
0.08950000 0.08949900 21731.66246473 0 526.76836708 0 2555.07859571 0 206.96960565 0 -3244.33281723 0 8571
0.09050000 0.09049190 21250.33780043 0 506.52058291 0 3123.33845276 0 -113.53956490 0 -2520.15389389 0 8932
0.09150000 0.09150830 20686.16954024 0 594.48429521 0 3687.07956822 0 30.82118987 0 -2228.02062204 0 9285
0.09250000 0.09250820 20621.64820505 0 593.11855615 0 4584.51064129 0 -828.11335220 0 -685.26379051 0 9204
0.09350000 0.09350330 20153.36269559 0 628.41532351 0 6136.93443244 0 -389.85836524 0 591.26272471 0 9349
0.09450000 0.09448040 20203.49599785 0 406.63391239 0 6996.28218083 0 -130.04421237 0 625.69733416 0 9564
0.09550000 0.09549270 20011.61808988 0 419.35720495 0 7911.78822026 0 -819.09048186 0 2202.69543594 0 10155
0.09650000 0.09649430 19560.98040207 0 449.84747006 0 8402.54379053 0 148.33387518 0 2080.90298527 0 9913
0.09750000 0.09749140 19440.93025226 0 681.02156893 0 8613.36219499 0 3.17522530 0 2400.73322052 0 10476
0.09850000 0.09850240 18653.07304253 0 570.08421467 0 7636.17870499 0 780.48783912 0 1358.14038392 0 10575
0.09950000 0.09950330 18380.71207532 0 398.43273362 0 7655.31029253 0 497.15262460 0 1000.40667441 0 10882
0.10050000 0.10051200 18010.55744675 0 -6.41915345 0 7512.79008191 0 434.62650490 0 -498.15529064 0 10875
0.10150000 0.10150300 18008.30931660 0 223.48886596 0 6637.89651357 0 183.12481325 0 -555.82207702 0 11118
0.10250000 0.10250800 17823.62542509 0 50.54201232 0 6604.32068984 0 -493.05315927 0 -1110.48187076 0 11575
0.10350000 0.10349800 17760.00334195 0 314.77194242 0 6379.83365409 0 -385.70157260 0 -911.62576680 0 11364
0.10450000 0.10450100 17512.25939984 0 426.24547572 0 6328.61000871 0 -28.23752629 0 -1841.89302878 0 12093
0.10550000 0.10551000 17169.19473953 0 345.46116705 0 6054.39433412 0 156.26977459 0 -1496.22053750 0 12067
0.10650000 0.10649700 16740.25150764 0 546.64071350 0 6097.20997276 0 297.88398876 0 -1708.44402330 0 12054
0.10750000 0.10749900 16243.30233882 0 391.72094106 0 5672.66183530 0 937.86369374 0 -1965.94485025 0 12807
0.10850000 0.10850100 15931.71150056 0 251.28811929 0 5766.13908678 0 815.68456468 0 -735.22960708 0 12736
0.10950000 0.10950300 15564.70425419 0 190.67515835 0 4975.42675176 0 1102.60667085 0 -294.81866331 0 12933
0.11050000 0.11050200 15407.44755046 0 108.55231299 0 5069.58968293 0 848.48253539 0 -920.27432348 0 13428
0.11150000 0.11150900 15386.20272058 0 26.66608332 0 4634.41913053 0 698.10735804 0 153.92385078 0 13453
0.11250000 0.11250000 15564.92906720 0 76.76768695 0 5318.46893077 0 -193.78881860 0 -170.12162849 0 13668
0.11350000 0.11349100 15545.14552192 0 83.53883014 0 5273.33771808 0 -760.88414424 0 -63.10535042 0 13791
0.11450000 0.11448600 15507.82656149 0 8.31491168 0 6233.39045636 0 -1201.68176640 0 177.16052398 0 14205
0.11550000 0.11549300 15644.40046787 0 204.15831890 0 6492.99328500 0 -1047.04188616 0 53.99603948 0 14776
0.11650000 0.11649800 15616.07402803 0 -59.01757538 0 6909.20085961 0 78.38679028 0 -808.87048221 0 14553
0.11750000 0.11747300 15928.00208581 0 -54.16802143 0 6732.96993745 0 -232.15428361 0 -1004.69610673 0 14568
0.11850000 0.11849100 15892.81884903 0 66.95875790 0 6652.77913514 0 218.12033117 0 -1741.53649905 0 16015
0.11950000 0.11950300 15799.18422844 0 409.10685555 0 6767.62486366 0 137.43269210 0 -1424.67379560 0 15270
0.12050000 0.12050700 15052.46780038 0 694.08545321 0 6628.33071980 0 114.68723534 0 -1302.02705547 0 15999
0.12150000 0.12150000 14827.87959877 0 541.74091385 0 6115.90317492 0 651.31140498 0 -958.64428475 0 15670
0.12250000 0.12250700 14238.86950047 0 216.02619794 0 6094.44477268 0 1484.86748026 0 255.90690267 0 16887
0.12350000 0.12352200 14031.25468147 0 109.90164070 0 5216.38134083 0 1373.80985104 0 332.02746536 0 16407
0.12450000 0.12449800 14099.93505743 0 -9.22794477 0 5345.01934779 0 1369.07753708 0 1257.19934036 0 16306
0.12550000 0.12549900 13969.54350895 0 54.76647368 0 4906.55528473 0 385.11818282 0 1366.72824108 0 17523
0.12650000 0.12650100 13809.25182953 0 85.97715209 0 4508.98470902 0 173.32746208 0 1915.36192196 0 17154
0.12750000 0.12750600 13818.13194361 0 43.74006975 0 4743.22862961 0 -161.03468644 0 1736.80418510 0 18007
0.12850000 0.12850300 13773.28174719 0 71.65723750 0 4775.16331833 0 -52.18179845 0 1794.33383554 0 17496
0.12950000 0.12949900 13714.83036339 0 122.00377490 0 4556.37529251 0 88.95176549 0 1169.21876709 0 18405
0.13050000 0.13049000 13414.14295634 0 345.84334917 0 5092.72294214 0 149.52875635 0 1364.08668816 0 18100
0.13150000 0.13148800 13171.34490055 0 296.02590920 0 4392.37419834 0 -73.20046644 0 1101.99967571 0 19059
0.13250000 0.13249300 12920.11635671 0 357.74607423 0 5101.89531313 0 353.44540126 0 1371.84273716 0 18957
0.13350000 0.13349100 12699.91200889 0 249.39631777 0 4739.73278723 0 -51.13675515 0 1271.87963021 0 19468
0.13450000 0.13450700 12620.32820171 0 51.60054440 0 4780.90729086 0 -85.04586418 0 1411.49975294 0 19953
0.13550000 0.13551000 12689.00857768 0 101.63268080 0 5108.59474097 0 -125.70981745 0 1441.41112454 0 19956
0.13650000 0.13649900 12701.93532602 0 53.95186372 0 4547.89984185 0 -218.49914110 0 1093.86818898 0 19723
0.13750000 0.13749600 12503.76265363 0 153.48658947 0 4944.23394598 0 -98.22080609 0 884.05807089 0 20946
0.13850000 0.13851100 12456.21470104 0 257.85265931 0 4885.08564183 0 201.08849719 0 798.33349622 0 20955
0.13950000 0.13949800 12165.19425362 0 160.55695878 0 4410.76390294 0 532.00538625 0 270.39272927 0 20506
0.14050000 0.14048300 12155.30248097 0 67.67388810 0 4106.78298522 0 839.96212213 0 658.54139153 0 21447
0.14150000 0.14148400 11989.84010221 0 -30.91842149 0 3580.96782532 0 606.61183328 0 120.87184138 0 21771
0.14250000 0.14249400 11925.09395400 0 64.82382111 0 3267.01645041 0 549.66220042 0 395.64730036 0 22470
0.14350000 0.14350900 11934.19888109 0 174.95061204 0 3588.26300765 0 158.73035304 0 464.95153245 0 22519
0.14450000 0.14449900 11575.84693579 0 409.85435882 0 3406.53540728 0 -622.02388950 0 565.39573925 0 22218
0.14550000 0.14550500 11380.03480006 0 452.57782412 0 3996.64708936 0 -479.23952359 0 567.56406077 0 23559
0.14650000 0.14650700 11094.19629262 0 348.57932356 0 4005.20122456 0 -745.75984868 0 113.01237838 0 23044
0.14750000 0.14750500 10908.01739456 0 162.15088305 0 4009.60755965 0 -319.34913540 0 -187.98302250 0 23649
0.14850000 0.14849900 10793.37399775 0 35.77505705 0 4145.78804325 0 -91.71145766 0 -582.22299339 0 23640
0.14950000 0.14949500 10673.72851137 0 112.56724862 0 4031.05472124 0 279.78429295 0 -1324.38470978 0 24457
0.15050000 0.15050000 10540.50431891 0 122.59615720 0 3574.24591619 0 458.13632591 0 -1725.72090348 0 24591
0.15150000 0.15149900 10264.09671743 0 258.44616567 0 3431.43344865 0 366.93980246 0 -2038.67186048 0 25020
0.15250000 0.15250500 10126.75844680 0 179.46260925 0 2851.84301566 0 425.07307585 0 -2035.71556933 0 25297
0.15350000 0.15350100 9993.43308848 0 124.64982409 0 2889.16197609 0 389.28509205 0 -1627.66870715 0 25452
0.15450000 0.15450400 9877.13731602 0 91.20652762 0 2663.44970941 0 328.24498639 0 -1211.32624472 0 26061
0.15550000 0.15549900 9843.17931016 0 70.74674479 0 2456.53181075 0 435.34927875 0 -877.80152469 0 26128
0.15650000 0.15649500 9784.68296376 0 142.29539760 0 2496.89698753 0 452.72620071 0 -292.47273950 0 26331
0.15750000 0.15749700 9547.16801381 0 207.66315380 0 2296.73471996 0 477.78048713 0 41.22677265 0 27345
0.15850000 0.15849900 9450.94804355 0 164.78344346 0 2210.55265080 0 369.75783360 0 365.91577918 0 26980
0.15950000 0.15949700 9334.61854914 0 95.02789925 0 2312.25805862 0 352.74623278 0 562.91605170 0 27777
0.16050000 0.16050000 9145.80933881 0 119.37346263 0 2100.29310778 0 40.70486924 0 303.47284031 0 28224
0.16150000 0.16150500 9194.15537761 0 103.84585253 0 2127.97883053 0 27.44416117 0 240.60275670 0 28075
0.16250000 0.16249700 8972.80448341 0 145.08869931 0 2286.97783512 0 -285.54175426 0 437.88404549 0 28590
0.16350000 0.16349900 8954.35857556 0 127.79720629 0 2166.20828367 0 -67.87464612 0 299.00468164 0 29163
0.16450000 0.16449100 8862.49997779 0 16.23734479 0 2350.52123371 0 37.65280775 0 555.11391602 0 28996
0.16550000 0.16550500 8873.97668218 0 33.90416314 0 2266.39620364 0 202.69366211 0 380.37575228 0 30777
0.16650000 0.16650700 8901.56123908 0 69.11673803 0 2043.49409964 0 421.18268663 0 163.73581481 0 29211
0.16750000 0.16749900 8796.98946533 0 108.56085588 0 2275.64725919 0 157.02627039 0 537.10976575 0 30922
0.16850000 0.16850800 8725.00433805 0 124.24740879 0 1779.01282859 0 408.29190837 0 763.90225896 0 30867
0.16950000 0.16949900 8485.18505470 0 102.64580065 0 1891.26196679 0 -28.18626893 0 744.43570003 0 30852
0.17050000 0.17049200 8678.64789443 0 -2.99946648 0 1643.82152225 0 24.78226267 0 749.83795677 0 31257
0.17150000 0.17149500 8601.73936213 0 -3.97858336 0 1977.70257091 0 11.50806581 0 752.04224838 0 32608
0.17250000 0.17250900 8717.30449230 0 52.37075379 0 1936.97769331 0 -114.03977386 0 1047.67136260 0 32361
0.17350000 0.17350400 8700.06133407 0 68.36451368 0 2063.87339942 0 -63.44290716 0 704.91469612 0 32508
0.17450000 0.17449800 8685.41476617 0 104.73599966 0 2253.40201139 0 -3.42584685 0 1061.62101016 0 32791
0.17550000 0.17549800 8493.33452648 0 177.67422171 0 2222.98481051 0 -58.98745043 0 507.06687854 0 33633
0.17650000 0.17650100 8472.26954701 0 186.52398603 0 2287.88832783 0 -73.16865540 0 914.88443145 0 33984
0.17750000 0.17750300 8226.96482611 0 220.64610539 0 2418.80818690 0 -292.00400436 0 554.65304934 0 34069
