### header ###
fiducial parameters:
Omega_m = 0.31
Omega_nu = 0
Omega_de = 0.69
Omega_k = 0
H_0 = 100
w_de = -1
zeff = 0
beta = 0
fgrowth = 0
b_1 = 2
gamma = 0.55
Lx = 3500 Ly = 3500 Lz = 3500
nx = 700 ny = 700 nz = 700
xoffset = 857.220397 yoffset = 15.9954215 zoffset = 262.898189
bins = 400 dk = 0.001
kx_ny = 0.628318531 ky_ny = 0.628318531 kz_ny = 0.628318531
############################
A(data) = 3.09777003 (not used)
A(ran) = 3.09750084 (used)
Ngal = 189214
weighted Ngal = 0
Nran = 9360983
weighted Nran = 0
SN(data) = 3448.92595
SN(ran) = 69.5582279
SN(data+ran) = 3518.48418
############################
13 columns: k_central k_mean P_0(k) sigma^{lin}_{P_0(k)} P^img_1(k) sigma^{lin}_{P_1(k)} P_2(k) sigma^{lin}_{P_2(k)} P^img_3(k) sigma^{lin}_{P_3(k)} P_4(k) sigma^{lin}_{P_4(k)} N_modes
### header ###
0.00050000 0 0 0 0 0 0 0 0 0 0 0 0
0.00150000 0.00179520 10964.86136531 0 -19914.61127407 0 -24895.23120646 0 35332.40022320 0 13396.27032167 0 3
0.00250000 0.00253879 22034.59800193 0 -22302.46270885 0 -2737.01976844 0 -46456.37299961 0 -9917.62613995 0 6
0.00350000 0.00331552 37132.36562476 0 -20114.91967009 0 -33601.67723015 0 13805.43000828 0 -6916.00145330 0 7
0.00450000 0.00420575 54340.22820280 0 -20133.91636983 0 -13937.39524786 0 -40036.94977364 0 -1985.88576464 0 24
0.00550000 0.00557378 73318.60567748 0 -7476.94364673 0 -9803.09514966 0 -59791.71899432 0 44.67630355 0 45
0.00650000 0.00659388 88768.09326168 0 -3351.27636829 0 42937.71210128 0 -60652.07840127 0 -8066.36964911 0 40
0.00750000 0.00754703 81162.33175757 0 6907.66089046 0 18800.10075409 0 -28109.94490902 0 2756.39865030 0 57
0.00850000 0.00846663 85099.14486309 0 8453.44145704 0 61493.44110848 0 -26910.67988253 0 -15234.56634222 0 75
0.00950000 0.00948925 80357.38875872 0 2327.82635988 0 51738.57959111 0 6070.46846467 0 895.05367543 0 112
0.01050000 0.01054430 80454.39557453 0 7344.47257787 0 46953.65938794 0 32034.16848572 0 -23611.66129949 0 105
0.01150000 0.01145670 80565.79042328 0 -701.01419032 0 43320.11903915 0 30770.26971752 0 -25457.93818206 0 144
0.01250000 0.01249090 75165.89421862 0 444.52614600 0 27459.56085772 0 20659.64160452 0 -20580.50742337 0 169
0.01350000 0.01339930 82052.02926293 0 -2162.38646242 0 17635.23211884 0 21023.05184265 0 -25824.83302192 0 180
0.01450000 0.01448870 72267.15520811 0 851.01055774 0 5662.78130331 0 2959.50596836 0 -14251.90865532 0 267
0.01550000 0.01550050 66875.91430451 0 -4197.79853419 0 2126.97841262 0 8751.63343963 0 -44500.83699194 0 238
0.01650000 0.01653350 71454.56856676 0 -4268.46850533 0 -16239.48051757 0 -372.61295889 0 -14354.87301601 0 315
0.01750000 0.01747870 77087.59586759 0 -153.59225159 0 -14384.54833394 0 1822.57035017 0 -38994.26701184 0 297
0.01850000 0.01844180 74779.21583347 0 339.92514656 0 -22560.88526916 0 -13133.46390758 0 -24209.88873139 0 388
0.01950000 0.01947590 73922.22862174 0 5293.66081460 0 -15071.12728059 0 -20367.83431154 0 -42336.56210019 0 399
0.02050000 0.02045430 68866.63354897 0 8379.46673458 0 -3181.26152598 0 -24528.22396010 0 -21282.93568755 0 462
0.02150000 0.02154770 62810.05852860 0 8156.14872650 0 12908.42607995 0 -24612.30402756 0 -25168.71623875 0 571
0.02250000 0.02255340 61117.44134153 0 3024.45444828 0 20368.05912456 0 -5394.99528094 0 -12660.00769879 0 510
0.02350000 0.02348930 61080.57200713 0 839.48551854 0 23660.10850414 0 2501.26960066 0 -17789.90347290 0 555
0.02450000 0.02439640 60579.12657802 0 734.06619973 0 23256.68154941 0 6685.91657349 0 -16155.17563709 0 592
0.02550000 0.02547300 61067.87007181 0 -59.51373770 0 24526.20064296 0 10167.88798783 0 -9456.48968437 0 837
0.02650000 0.02652900 59086.14334793 0 949.58656839 0 18242.67688434 0 9366.98038259 0 -11167.24928172 0 723
0.02750000 0.02749970 60702.54892305 0 4.28093439 0 18803.81016883 0 5470.28515954 0 -93.34270089 0 826
0.02850000 0.02848090 58803.32857554 0 14.10814073 0 18128.47187291 0 1609.68366598 0 -6994.01156938 0 831
0.02950000 0.02946900 58666.75466916 0 1163.28370350 0 14051.60025929 0 -768.54352365 0 -2305.92957226 0 996
0.03050000 0.03053250 59367.49683573 0 535.61925546 0 20349.28723784 0 -1915.78906669 0 129.28771658 0 1041
0.03150000 0.03150510 58146.42494682 0 1792.36672166 0 17963.00949415 0 767.23173971 0 -4341.81375135 0 1036
0.03250000 0.03246190 59083.67040477 0 -1301.22896927 0 21461.54962767 0 1984.32331419 0 -1844.66946951 0 1059
0.03350000 0.03345080 60037.21480628 0 -905.36584841 0 17384.56560754 0 1862.91304565 0 -10718.81476146 0 1302
0.03450000 0.03451200 59027.80437064 0 55.65100048 0 20021.95948855 0 -3001.62468665 0 -10709.35013354 0 1339
0.03550000 0.03553350 59925.03311199 0 534.65480763 0 15164.64949467 0 -4273.31322580 0 -17429.86542998 0 1365
0.03650000 0.03647120 61909.45759204 0 1565.62031511 0 19133.83567429 0 -7938.15878688 0 -12079.31568203 0 1308
0.03750000 0.03744890 57465.24151252 0 1589.83267679 0 15422.17280292 0 1730.82415891 0 -18311.35726031 0 1579
0.03850000 0.03847530 57136.45247864 0 1900.13084022 0 16131.68267706 0 4762.42766106 0 -16466.54166234 0 1662
0.03950000 0.03950240 53874.75285603 0 1773.66227884 0 7218.22882951 0 7579.05371797 0 -20247.78416173 0 1683
0.04050000 0.04050350 52260.03337852 0 2274.88289494 0 6793.43339773 0 7560.14694344 0 -16828.37820937 0 1822
0.04150000 0.04152450 48468.33707395 0 1907.52718840 0 2486.76916122 0 2885.53124590 0 -12070.09834843 0 1887
0.04250000 0.04250150 46761.66907346 0 2233.56226285 0 5924.44117102 0 677.73030639 0 -9941.96214879 0 1920
0.04350000 0.04349210 45515.86775294 0 1901.49095896 0 2198.99726185 0 -2202.65047334 0 -2694.06924200 0 2005
0.04450000 0.04448520 43858.65861567 0 975.08486051 0 7429.75539496 0 -563.58037416 0 -683.33826704 0 2151
0.04550000 0.04548030 43632.60912947 0 830.93363147 0 6566.75443509 0 -167.78582127 0 3747.70039762 0 2274
0.04650000 0.04648670 42917.70374298 0 333.90015777 0 9035.99942182 0 1817.09615327 0 -149.69736611 0 2311
0.04750000 0.04749250 41978.32256139 0 1052.93423527 0 10459.49294909 0 -709.09846632 0 -156.64071607 0 2568
0.04850000 0.04851840 41799.59621477 0 2238.82288739 0 9553.00191154 0 -950.43973378 0 1345.30356079 0 2493
0.04950000 0.04949480 39204.69199352 0 893.04272302 0 13605.79605130 0 -2986.93315614 0 -684.73435586 0 2644
0.05050000 0.05050630 39377.34838875 0 773.86934397 0 13924.69331254 0 348.44218762 0 2868.43421614 0 2829
0.05150000 0.05149060 39999.40600020 0 -1565.87885008 0 14928.03379679 0 1537.30511592 0 -596.95499024 0 2784
0.05250000 0.05249300 41489.24184809 0 -533.14968450 0 12732.95952204 0 754.22967901 0 -390.26752492 0 3055
0.05350000 0.05348950 41910.09181146 0 -566.74798953 0 13442.01977015 0 1305.09575312 0 -4551.85655091 0 3009
0.05450000 0.05448610 40758.37473756 0 1926.45644423 0 10181.03954918 0 533.13282352 0 -4051.82744379 0 3336
0.05550000 0.05550870 39868.22760617 0 1276.83675718 0 10453.64781071 0 380.41846675 0 -4666.45498511 0 3349
0.05650000 0.05647670 36862.25278769 0 1273.44208066 0 8253.69509355 0 1270.02492284 0 -4249.50552755 0 3324
0.05750000 0.05747970 37137.31151108 0 810.34413152 0 7914.09255366 0 2975.44521110 0 -4219.97633808 0 3639
0.05850000 0.05849280 35619.37403636 0 236.87198472 0 5525.88141805 0 2477.13592354 0 -3883.70103081 0 3846
0.05950000 0.05951020 35104.32741987 0 994.99654921 0 7876.16659810 0 104.33785581 0 -1231.68306320 0 3787
0.06050000 0.06049470 34336.92819447 0 752.39857700 0 4203.44134085 0 1234.59439174 0 -491.59299874 0 3930
0.06150000 0.06148310 34394.48032621 0 874.72271045 0 9544.21172267 0 -570.96548169 0 2516.41075719 0 4083
0.06250000 0.06249100 33695.76147677 0 462.51568343 0 6487.74390110 0 -345.41957664 0 1865.65576443 0 4303
0.06350000 0.06350600 33587.28919722 0 475.62453032 0 11093.00478364 0 -892.53239747 0 4202.95799287 0 4470
0.06450000 0.06451750 33493.31735711 0 243.94572623 0 9308.46155489 0 -1175.45732824 0 1334.25400112 0 4479
0.06550000 0.06550280 32595.18936370 0 371.17752779 0 11689.37750817 0 -1607.71655210 0 2776.13723299 0 4636
0.06650000 0.06648880 33111.69726479 0 588.16929763 0 11989.27806968 0 -1606.44635857 0 496.19604522 0 4653
0.06750000 0.06749660 33205.10707236 0 498.75554139 0 14233.13676860 0 -749.01738926 0 3255.53974601 0 5220
0.06850000 0.06852730 32825.28548416 0 490.49815936 0 14283.04525784 0 422.90925058 0 1973.86950901 0 5029
0.06950000 0.06949320 33366.07319083 0 130.24991628 0 15282.11429481 0 1651.52136800 0 5105.37991486 0 5040
0.07050000 0.07048030 32603.39503873 0 483.23782306 0 15135.98583531 0 1565.08076388 0 1745.42576421 0 5475
0.07150000 0.07148790 32422.53296847 0 631.53685221 0 13760.69221837 0 711.56916135 0 2659.17826213 0 5509
0.07250000 0.07249820 31647.71491358 0 1038.24045664 0 14488.41194670 0 1279.98413939 0 961.35328157 0 5916
0.07350000 0.07351270 30114.82737340 0 1036.84774001 0 10773.62417442 0 580.23339821 0 -61.62990261 0 5721
0.07450000 0.07449140 28937.93124186 0 978.67400028 0 10723.09744938 0 1530.60568809 0 -654.89267630 0 6028
0.07550000 0.07549160 28149.39959308 0 674.18500515 0 9593.11979400 0 1272.68895706 0 -1853.79687790 0 6183
0.07650000 0.07648840 27488.22451709 0 1033.03153909 0 7891.55504895 0 1434.30703327 0 -1020.14750522 0 6330
0.07750000 0.07749960 25836.07367265 0 756.67339648 0 7765.42370709 0 696.01659700 0 -757.47485487 0 6583
0.07850000 0.07848650 25856.41925047 0 417.85882621 0 8573.94123287 0 961.88384029 0 -252.73591510 0 6549
0.07950000 0.07947320 25476.14803624 0 100.74163442 0 7834.80100341 0 2107.32975514 0 1934.88693228 0 6828
0.08050000 0.08048110 25945.33279775 0 -414.59116904 0 7128.19121715 0 1130.76450093 0 1971.41904715 0 7147
0.08150000 0.08149960 25868.89637278 0 -163.92915400 0 6847.45596515 0 1977.56768310 0 2338.21272116 0 7386
0.08250000 0.08250610 26120.46213614 0 365.00191428 0 6104.90981851 0 810.03276550 0 1981.18717264 0 7227
0.08350000 0.08350160 25402.74658697 0 482.78370077 0 5133.18928477 0 733.49854687 0 2397.47343181 0 7798
0.08450000 0.08449610 25300.79388484 0 567.63375281 0 4971.42508010 0 -494.25815703 0 2078.11530389 0 7371
0.08550000 0.08548940 24348.14873539 0 517.10477964 0 4082.08727556 0 -25.95983324 0 935.00407219 0 8256
0.08650000 0.08650700 24309.14367735 0 568.38912454 0 5045.96183509 0 -424.11312428 0 1782.98077830 0 8037
0.08750000 0.08749060 24062.29898730 0 715.74955936 0 6090.34193516 0 -733.98751517 0 1685.54681776 0 8155
0.08850000 0.08849210 23009.49963983 0 1308.94005567 0 6506.11112440 0 -117.56371787 0 1655.30946730 0 8718
0.08950000 0.08949900 21986.82523633 0 1180.33577066 0 7079.40679298 0 -202.24403608 0 2680.04090989 0 8571
0.09050000 0.09049190 21080.04194186 0 957.93837188 0 7426.32699649 0 -145.79348811 0 2763.99733020 0 8932
0.09150000 0.09150830 20469.44979415 0 321.81083791 0 6476.10982760 0 717.70992885 0 977.29364837 0 9285
0.09250000 0.09250820 20258.68759294 0 113.82395337 0 6342.28988065 0 550.74017883 0 1175.37864369 0 9204
0.09350000 0.09350330 19868.41219956 0 -19.84919069 0 5155.19847890 0 350.19460507 0 180.53833952 0 9349
0.09450000 0.09448040 19703.39944683 0 31.97987614 0 4549.02390693 0 -181.53426118 0 -1859.99047646 0 9564
0.09550000 0.09549270 19755.44365972 0 240.47798548 0 5075.23248960 0 -336.59678988 0 -1601.39930639 0 10155
0.09650000 0.09649430 19545.24349105 0 11.35384408 0 5557.77114418 0 -733.12086100 0 -2624.98420261 0 9913
0.09750000 0.09749140 19806.92584006 0 115.23465503 0 6496.92751275 0 -647.72900959 0 -2058.83758789 0 10476
0.09850000 0.09850240 19764.99821284 0 325.39885362 0 7916.49805292 0 -628.50524871 0 -1677.47603054 0 10575
0.09950000 0.09950330 19454.75625266 0 528.66578892 0 8540.28672458 0 -586.43711335 0 -173.04644581 0 10882
0.10050000 0.10051200 19305.59281746 0 624.63734080 0 8954.29113166 0 44.63606202 0 806.22106083 0 10875
0.10150000 0.10150300 18948.36493723 0 637.30555417 0 10037.95730603 0 655.46819762 0 1123.73909423 0 11118
0.10250000 0.10250800 18333.95096828 0 607.21770436 0 9730.51426789 0 1015.12518247 0 1691.44815940 0 11575
0.10350000 0.10349800 17766.86013890 0 352.81142856 0 8890.44423550 0 1184.50605208 0 1576.92840975 0 11364
0.10450000 0.10450100 17457.18021126 0 185.93497594 0 8043.91082895 0 1000.15151164 0 1860.64243420 0 12093
0.10550000 0.10551000 17294.19077566 0 68.97252048 0 6518.20606459 0 1666.90981885 0 1150.66045273 0 12067
0.10650000 0.10649700 16798.47807842 0 51.97260994 0 6046.34602820 0 1145.72580706 0 1069.86939966 0 12054
0.10750000 0.10749900 16713.72357191 0 204.11560443 0 4829.68047438 0 617.30506432 0 687.83003108 0 12807
0.10850000 0.10850100 16543.54011984 0 285.94866582 0 4579.03644438 0 364.77148094 0 518.80998636 0 12736
0.10950000 0.10950300 16269.94268105 0 363.57659976 0 4667.27555262 0 234.08992367 0 538.91613832 0 12933
0.11050000 0.11050200 15992.07379498 0 258.99470943 0 4368.49905619 0 65.15463346 0 1061.27030186 0 13428
0.11150000 0.11150900 16055.24625209 0 166.47066513 0 5254.73444112 0 -52.49766073 0 2122.36974582 0 13453
0.11250000 0.11250000 16060.19213841 0 74.29699192 0 4698.18734213 0 134.55733364 0 1757.90288652 0 13668
0.11350000 0.11349100 15986.67828263 0 99.47189051 0 5784.73112309 0 365.36386323 0 2906.83227903 0 13791
0.11450000 0.11448600 15898.21436138 0 -40.83975705 0 4741.47508809 0 928.36871607 0 2209.19253207 0 14205
0.11550000 0.11549300 16032.20291809 0 116.44077686 0 5110.03354426 0 572.61898141 0 2916.66784842 0 14776
0.11650000 0.11649800 15731.06588501 0 120.92354837 0 4364.49738453 0 337.60395218 0 1566.78934279 0 14553
0.11750000 0.11747300 15469.15872298 0 278.54444918 0 4484.12038961 0 335.50981895 0 2365.86472195 0 14568
0.11850000 0.11849100 15325.27839362 0 228.57526042 0 4131.96204286 0 284.37385065 0 2097.69651747 0 16015
0.11950000 0.11950300 14789.88619930 0 233.24799893 0 3862.52364483 0 357.95177814 0 1961.30246150 0 15270
0.12050000 0.12050700 14841.93041219 0 115.55051732 0 4002.99805702 0 345.43868574 0 2143.42348464 0 15999
0.12150000 0.12150000 14905.44008882 0 177.68658643 0 4342.49943105 0 -143.57008740 0 1622.09334439 0 15670
0.12250000 0.12250700 14806.85958191 0 200.29603131 0 4381.75178340 0 -314.81128470 0 2041.88668659 0 16887
0.12350000 0.12352200 14783.14180886 0 229.17775930 0 5210.22146423 0 -809.56515443 0 1847.76064846 0 16407
0.12450000 0.12449800 14595.76016118 0 290.75516807 0 4989.35391801 0 -544.36560580 0 1365.34564104 0 16306
0.12550000 0.12549900 14600.14401496 0 306.68991454 0 6107.50640883 0 -801.63712347 0 1220.91451980 0 17523
0.12650000 0.12650100 14299.45660791 0 169.55172750 0 5121.03814133 0 174.24245105 0 770.27683199 0 17154
0.12750000 0.12750600 13971.22960656 0 422.90475432 0 6095.63628166 0 304.26643025 0 666.67400233 0 18007
0.12850000 0.12850300 13633.56045860 0 322.43469402 0 4888.31170859 0 505.79668501 0 -120.53799405 0 17496
0.12950000 0.12949900 13406.04968781 0 246.07020922 0 5477.45669470 0 850.38332943 0 584.08107296 0 18405
0.13050000 0.13049000 13031.62361196 0 271.23128181 0 4426.08490988 0 437.70644320 0 560.24639715 0 18100
0.13150000 0.13148800 12642.92190968 0 174.36385007 0 4093.01318807 0 779.14233322 0 506.84206553 0 19059
0.13250000 0.13249300 12652.13924328 0 172.56534596 0 4419.37424140 0 103.49312091 0 663.11858451 0 18957
0.13350000 0.13349100 12497.58029573 0 192.05551026 0 3801.11596989 0 305.22525775 0 169.82037905 0 19468
0.13450000 0.13450700 12296.70986717 0 205.48471569 0 3997.09671539 0 -117.47266859 0 522.69363119 0 19953
0.13550000 0.13551000 12166.43072520 0 35.54911997 0 3712.32606977 0 49.68142810 0 336.83958794 0 19956
0.13650000 0.13649900 12071.89685255 0 128.21873069 0 3712.91058360 0 138.97153718 0 -32.87036049 0 19723
0.13750000 0.13749600 12166.09350567 0 100.39519756 0 3554.86703433 0 103.17602215 0 -218.85996599 0 20946
0.13850000 0.13851100 11930.93909238 0 182.23005746 0 3430.28690228 0 -56.01946902 0 -387.42364029 0 20955
0.13950000 0.13949800 11890.80996927 0 117.78515868 0 3329.26717416 0 -103.59428676 0 -204.85411518 0 20506
0.14050000 0.14048300 11813.47429224 0 134.38872388 0 3438.22280169 0 -167.01583669 0 -589.66992450 0 21447
0.14150000 0.14148400 11768.28687630 0 58.85548519 0 3201.34856884 0 -52.50946342 0 -688.42241337 0 21771
0.14250000 0.14249400 11705.78885824 0 57.53785612 0 3543.51397709 0 -74.51955680 0 -415.03405068 0 22470
0.14350000 0.14350900 11629.57724628 0 109.60792250 0 3179.48550317 0 214.61549628 0 -816.34326682 0 22519
0.14450000 0.14449900 11730.40588334 0 25.64498261 0 3437.14369922 0 103.41601004 0 -214.31649497 0 22218
0.14550000 0.14550500 11477.15402237 0 176.01510167 0 3444.66369456 0 66.93133071 0 -555.88165247 0 23559
0.14650000 0.14650700 11541.45054455 0 170.58699143 0 3606.16936426 0 79.06358986 0 -111.01603881 0 23044
0.14750000 0.14750500 11221.03579547 0 254.33770783 0 3617.56738410 0 119.72529500 0 -107.36350177 0 23649
0.14850000 0.14849900 11252.34100775 0 83.22352988 0 3533.72337030 0 184.95029493 0 -78.45974210 0 23640
0.14950000 0.14949500 11083.66380288 0 11.11521631 0 3404.80434707 0 398.87786338 0 616.87117521 0 24457
0.15050000 0.15050000 11171.18350947 0 54.78423391 0 3275.06475633 0 574.81090830 0 345.39147501 0 24591
0.15150000 0.15149900 11034.26114292 0 184.74571509 0 3445.75403768 0 220.69781239 0 882.32139035 0 25020
0.15250000 0.15250500 10883.44533206 0 353.33749101 0 3305.14473769 0 61.96521122 0 785.27972852 0 25297
0.15350000 0.15350100 10525.11586806 0 341.22344172 0 3616.10609951 0 -1.78791542 0 1223.90453289 0 25452
0.15450000 0.15450400 10356.19136887 0 215.09659613 0 3325.16433664 0 87.21249961 0 1094.01544150 0 26061
0.15550000 0.15549900 10181.90507929 0 90.92573617 0 3584.35126119 0 -29.47455991 0 959.78071454 0 26128
0.15650000 0.15649500 10181.69150693 0 46.21750917 0 3555.72132378 0 -78.97804851 0 645.91139637 0 26331
0.15750000 0.15749700 10142.03449115 0 55.20676997 0 3312.94574929 0 33.75365083 0 345.11495500 0 27345
0.15850000 0.15849900 10055.54892442 0 86.45263162 0 3122.22562834 0 -24.47145867 0 347.02024530 0 26980
0.15950000 0.15949700 10033.88819046 0 72.39260087 0 3031.19883872 0 314.05591297 0 450.48031870 0 27777
0.16050000 0.16050000 9912.95002925 0 123.17617478 0 3121.69731776 0 195.18940368 0 151.92975935 0 28224
0.16150000 0.16150500 9918.55911396 0 163.01641316 0 2980.16628440 0 213.72523674 0 149.14320203 0 28075
0.16250000 0.16249700 9647.62570940 0 244.73931617 0 3017.86742696 0 6.25237592 0 248.87475157 0 28590
0.16350000 0.16349900 9421.80103621 0 249.58740883 0 2757.55643733 0 96.11801756 0 196.84964780 0 29163
0.16450000 0.16449100 9202.18120223 0 206.38846401 0 2990.36155462 0 74.68445715 0 130.48372182 0 28996
0.16550000 0.16550500 9044.62100093 0 109.64175686 0 2462.65796540 0 125.76714477 0 -86.22298512 0 30777
0.16650000 0.16650700 8893.74898682 0 12.37325870 0 2286.67433755 0 415.89620859 0 -598.45449305 0 29211
0.16750000 0.16749900 8954.38105686 0 -34.80319039 0 1897.52300925 0 189.85346678 0 -574.86486342 0 30922
0.16850000 0.16850800 9004.32326806 0 -22.63563560 0 1779.42873267 0 54.01436174 0 -820.87886939 0 30867
0.16950000 0.16949900 9054.29920121 0 -9.45645596 0 1587.10119866 0 238.03988833 0 -400.41670847 0 30852
0.17050000 0.17049200 8993.00393277 0 30.73902071 0 1570.13905671 0 86.29661139 0 -399.52982113 0 31257
0.17150000 0.17149500 9092.18019417 0 76.51398546 0 2017.91037858 0 125.24445451 0 61.18128824 0 32608
0.17250000 0.17250900 8994.82491819 0 124.03383643 0 2171.25533585 0 -77.80036553 0 493.25211879 0 32361
0.17350000 0.17350400 8950.99762099 0 202.86901626 0 2522.46946794 0 49.56744790 0 591.09523901 0 32508
0.17450000 0.17449800 8795.71927179 0 214.93697889 0 2556.19142013 0 -234.15062318 0 1085.00718400 0 32791
0.17550000 0.17549800 8667.93555428 0 268.91233557 0 2935.10251562 0 -69.39685504 0 969.97598475 0 33633
0.17650000 0.17650100 8490.78289876 0 179.46822957 0 2968.90315237 0 -38.23001517 0 1517.02698200 0 33984
0.17750000 0.17750300 8365.68569678 0 140.64864227 0 2825.68602141 0 217.58302807 0 1199.45611755 0 34069
0.17850000 0.17849800 8363.81974876 0 115.56400610 0 2801.27132802 0 120.60993421 0 1396.31363380 0 34536
