### header ###
fiducial parameters:
Omega_m = 0.31
Omega_nu = 0
Omega_de = 0.69
Omega_k = 0
H_0 = 100
w_de = -1
zeff = 0
beta = 0
fgrowth = 0
b_1 = 2
gamma = 0.55
Lx = 3500 Ly = 3500 Lz = 3500
nx = 700 ny = 700 nz = 700
xoffset = 857.220397 yoffset = 15.9954215 zoffset = 262.898189
bins = 400 dk = 0.001
kx_ny = 0.628318531 ky_ny = 0.628318531 kz_ny = 0.628318531
############################
A(data) = 3.05725962 (not used)
A(ran) = 3.05493088 (used)
Ngal = 186735
weighted Ngal = 0
Nran = 9360983
weighted Nran = 0
SN(data) = 3450.84945
SN(ran) = 68.6022665
SN(data+ran) = 3519.45172
############################
13 columns: k_central k_mean P_0(k) sigma^{lin}_{P_0(k)} P^img_1(k) sigma^{lin}_{P_1(k)} P_2(k) sigma^{lin}_{P_2(k)} P^img_3(k) sigma^{lin}_{P_3(k)} P_4(k) sigma^{lin}_{P_4(k)} N_modes
### header ###
0.00050000 0 0 0 0 0 0 0 0 0 0 0 0
0.00150000 0.00179520 25873.50503958 0 -29416.55814999 0 29268.85599938 0 13117.72699656 0 -17449.08694273 0 3
0.00250000 0.00253879 46398.59605485 0 -27406.28017326 0 8828.51949063 0 -11569.55217138 0 -11520.88015371 0 6
0.00350000 0.00331552 62805.22504879 0 -16980.46421376 0 17533.61663623 0 14347.34178002 0 66291.51287301 0 7
0.00450000 0.00420575 71946.23462974 0 -458.40385340 0 15321.45657237 0 451.79097857 0 2849.98830829 0 24
0.00550000 0.00557378 75093.84164743 0 181.18467694 0 9821.73214857 0 20336.92252203 0 27480.24365507 0 45
0.00650000 0.00659388 65886.73704018 0 52.82105426 0 -36540.09573774 0 42240.56694295 0 -27901.76805748 0 40
0.00750000 0.00754703 77732.92162605 0 -13075.23733680 0 -39010.90317492 0 23844.56758264 0 2681.22117821 0 57
0.00850000 0.00846663 78707.48604443 0 -12732.62230252 0 -55579.95957192 0 -1599.55583967 0 -21961.30895917 0 75
0.00950000 0.00948925 84825.43501779 0 -5149.72428199 0 -60669.05178387 0 -28759.76692778 0 -6250.26267311 0 112
0.01050000 0.01054430 77541.60575061 0 4046.56681925 0 -66054.67236210 0 -42954.91029690 0 -5597.57428842 0 105
0.01150000 0.01145670 79659.00712881 0 3466.88646106 0 -48195.41407420 0 -49839.24683710 0 -13312.63988023 0 144
0.01250000 0.01249090 70073.20499843 0 4677.21228786 0 -42145.02141173 0 -30733.73760265 0 -4852.72380838 0 169
0.01350000 0.01339930 71480.19725043 0 2272.21886071 0 -13987.41614362 0 -27286.79205599 0 -11118.44237624 0 180
0.01450000 0.01448870 75464.55830854 0 -8838.70352019 0 -32918.02085269 0 2047.00118267 0 -4864.71758271 0 267
0.01550000 0.01550050 70131.43156922 0 -2840.79345599 0 -1611.24611643 0 -5235.79394464 0 -32046.53320152 0 238
0.01650000 0.01653350 85802.80959885 0 -6022.94299338 0 -34112.67721238 0 -5456.72893476 0 -8242.67925583 0 315
0.01750000 0.01747870 77571.28106854 0 -560.46671390 0 10872.98028623 0 -11519.75608864 0 -34795.65915080 0 297
0.01850000 0.01844180 86937.77810315 0 7288.86507870 0 -11139.37246790 0 -30877.61793200 0 4245.68370630 0 388
0.01950000 0.01947590 74125.00996093 0 6839.07043970 0 18290.89927598 0 -9566.94031845 0 -7588.29353287 0 399
0.02050000 0.02045430 74746.50553984 0 5638.61390423 0 15179.48715364 0 -7290.70854542 0 -402.60638723 0 462
0.02150000 0.02154770 77943.57142075 0 -639.41767244 0 31841.72854520 0 13005.88252179 0 7556.58365716 0 571
0.02250000 0.02255340 75226.48132606 0 1369.52716311 0 31205.28290081 0 -982.92858659 0 -726.42368130 0 510
0.02350000 0.02348930 78284.94998345 0 2817.23305206 0 27458.54919916 0 7743.08853409 0 15650.24560625 0 555
0.02450000 0.02439640 75936.89045225 0 2021.01279818 0 30788.02994568 0 -312.77223065 0 -3760.50349880 0 592
0.02550000 0.02547300 73916.72070288 0 5889.74128222 0 28253.48801885 0 700.42180802 0 7908.44974699 0 837
0.02650000 0.02652900 68181.17866739 0 5067.34155278 0 33873.13894531 0 642.28179025 0 -7667.47267662 0 723
0.02750000 0.02749970 58587.50808151 0 2684.28987586 0 22628.21676704 0 8182.38440531 0 -10596.96610753 0 826
0.02850000 0.02848090 59883.66751730 0 1832.82182364 0 23108.41736626 0 2980.07635920 0 -20085.46916518 0 831
0.02950000 0.02946900 59300.83977689 0 742.74847835 0 16200.81267906 0 8767.41531325 0 -17458.41668284 0 996
0.03050000 0.03053250 56042.17512998 0 -1426.02267369 0 9243.10841154 0 5813.27113529 0 -17218.65360275 0 1041
0.03150000 0.03150510 56358.14982203 0 1907.75200141 0 12397.98813025 0 1863.25026517 0 -10021.05136733 0 1036
0.03250000 0.03246190 56440.31897887 0 1404.37318038 0 10647.89749599 0 262.56923636 0 -2578.34674272 0 1059
0.03350000 0.03345080 52211.47376737 0 4593.03105454 0 18188.15972829 0 4285.55429444 0 4380.22305490 0 1302
0.03450000 0.03451200 50660.48877950 0 4727.05333321 0 16589.51438133 0 2501.30332261 0 13031.51120545 0 1339
0.03550000 0.03553350 44299.62934385 0 4080.28877145 0 18788.29807082 0 9062.42619169 0 13739.67220151 0 1365
0.03650000 0.03647120 44102.80554955 0 1486.54233722 0 11880.91819663 0 8125.65284107 0 18974.33084042 0 1308
0.03750000 0.03744890 40306.27576516 0 338.08055578 0 8514.68052222 0 11596.64213964 0 11415.66766287 0 1579
0.03850000 0.03847530 40988.35845152 0 -469.37472851 0 5391.92658329 0 1273.97039125 0 12520.39881671 0 1662
0.03950000 0.03950240 39278.20584930 0 -533.95451509 0 1109.92883074 0 -3364.67522396 0 1141.34195327 0 1683
0.04050000 0.04050350 40143.73595559 0 550.69184403 0 2146.55962619 0 -5848.17335581 0 -490.25423724 0 1822
0.04150000 0.04152450 39672.19065742 0 -123.29195348 0 2521.52525328 0 -8847.25765540 0 -3551.76461472 0 1887
0.04250000 0.04250150 40301.89191137 0 -226.31926182 0 8096.26978006 0 -7179.74084141 0 -11817.85814603 0 1920
0.04350000 0.04349210 42398.72289873 0 -852.83491535 0 8585.14816165 0 -2724.14922335 0 -8929.50549679 0 2005
0.04450000 0.04448520 43858.09658314 0 73.35952165 0 13130.65374490 0 -1542.37464940 0 -12058.40807167 0 2151
0.04550000 0.04548030 42730.20968879 0 648.45965189 0 11793.80315346 0 -726.96323253 0 -11475.46792476 0 2274
0.04650000 0.04648670 44445.19577082 0 1918.54302611 0 12782.08116573 0 -643.12483905 0 -10645.77301301 0 2311
0.04750000 0.04749250 40969.02453226 0 1511.78883876 0 11466.70021719 0 1127.54967483 0 -10474.33060806 0 2568
0.04850000 0.04851840 40242.76608853 0 1252.36586054 0 14944.44514685 0 3905.00206395 0 -5872.44192074 0 2493
0.04950000 0.04949480 38831.72720227 0 1054.34606101 0 11215.20189774 0 2070.51662400 0 -6917.82243872 0 2644
0.05050000 0.05050630 38814.41660014 0 600.91507149 0 11305.17206619 0 4416.44043156 0 -4597.11141075 0 2829
0.05150000 0.05149060 36999.38872661 0 1380.28446586 0 8331.99746654 0 2106.83516651 0 -5760.59744597 0 2784
0.05250000 0.05249300 36758.61398795 0 641.44548583 0 10513.87521733 0 1690.36905693 0 3126.90173905 0 3055
0.05350000 0.05348950 35919.04978485 0 426.49614223 0 12096.73869066 0 1701.14884098 0 3001.14133867 0 3009
0.05450000 0.05448610 36276.72729111 0 436.97130465 0 9399.06119978 0 1562.15819469 0 4252.04591461 0 3336
0.05550000 0.05550870 34599.28498253 0 620.45581872 0 10182.26478011 0 1798.20061939 0 4521.16957442 0 3349
0.05650000 0.05647670 35032.83688122 0 917.17864827 0 11318.54844056 0 -39.03462095 0 7197.64719802 0 3324
0.05750000 0.05747970 34375.25881346 0 1173.83867454 0 11182.55904801 0 -692.89169610 0 6276.64448038 0 3639
0.05850000 0.05849280 33946.76520759 0 474.86466233 0 13928.73994680 0 1896.87105151 0 7862.19446924 0 3846
0.05950000 0.05951020 33566.38158686 0 576.65325096 0 13719.10181067 0 -111.48275063 0 8840.04115763 0 3787
0.06050000 0.06049470 33331.33958007 0 13.70921004 0 12977.55608194 0 2859.94752484 0 6239.37048255 0 3930
0.06150000 0.06148310 33179.92801473 0 459.87525458 0 13715.39239593 0 197.40268781 0 7750.51860422 0 4083
0.06250000 0.06249100 33210.05295868 0 466.31727151 0 12549.84932163 0 299.61617304 0 4913.24347191 0 4303
0.06350000 0.06350600 32124.88053711 0 841.49085063 0 14014.16889236 0 -318.80396384 0 6225.92666428 0 4470
0.06450000 0.06451750 32226.83323924 0 797.53990627 0 12885.71996547 0 -1319.07912263 0 3143.67278994 0 4479
0.06550000 0.06550280 31871.40386313 0 354.63466211 0 15347.08525604 0 -820.82266613 0 4764.42849689 0 4636
0.06650000 0.06648880 32055.18850258 0 223.51134727 0 15608.54279204 0 -976.31009144 0 3781.27622135 0 4653
0.06750000 0.06749660 31371.64453163 0 516.33142287 0 16139.32631956 0 29.99938589 0 1717.11056502 0 5220
0.06850000 0.06852730 31642.54421425 0 626.87198216 0 16623.57355305 0 917.44280356 0 3261.50853155 0 5029
0.06950000 0.06949320 30555.23606904 0 750.32580101 0 16875.25172292 0 2235.32704502 0 1724.40574734 0 5040
0.07050000 0.07048030 29408.12766194 0 972.84235068 0 14763.69548310 0 2596.16317413 0 2454.45229037 0 5475
0.07150000 0.07148790 28546.75659643 0 299.30255888 0 13479.33873058 0 3882.84674136 0 707.80017116 0 5509
0.07250000 0.07249820 28543.94643374 0 34.40201156 0 11355.75499448 0 2964.90148071 0 1759.43161502 0 5916
0.07350000 0.07351270 27555.44360846 0 -211.71203619 0 7941.68835121 0 2594.31970741 0 -63.52687483 0 5721
0.07450000 0.07449140 27888.84130914 0 4.08000776 0 6577.81523541 0 1452.31455575 0 -1542.23976159 0 6028
0.07550000 0.07549160 27394.70230301 0 -53.42355314 0 5658.02650805 0 -512.45115024 0 -2196.54679999 0 6183
0.07650000 0.07648840 27186.07582544 0 472.54684015 0 4008.73078889 0 -410.64345250 0 -2800.95658980 0 6330
0.07750000 0.07749960 26966.20869714 0 579.31278892 0 4234.18452060 0 305.53100345 0 -2861.47625333 0 6583
0.07850000 0.07848650 26481.51183762 0 407.22741875 0 3546.11056741 0 887.40778480 0 -4119.85586202 0 6549
0.07950000 0.07947320 25783.57983373 0 808.59621033 0 3512.30993066 0 541.74541011 0 -1583.92009450 0 6828
0.08050000 0.08048110 25273.92872959 0 753.37763768 0 3834.01735458 0 308.57497167 0 -1777.33797163 0 7147
0.08150000 0.08149960 24364.67249196 0 1256.65978912 0 4108.52528608 0 164.31920458 0 -38.69998678 0 7386
0.08250000 0.08250610 23810.95803695 0 942.40379257 0 4377.21056050 0 -1039.52863521 0 1130.86566679 0 7227
0.08350000 0.08350160 23204.63733652 0 341.36844611 0 5591.89775980 0 -27.35547243 0 1830.29267723 0 7798
0.08450000 0.08449610 23431.24885526 0 -321.17461708 0 4863.69468349 0 152.00169951 0 2606.36968499 0 7371
0.08550000 0.08548940 23613.34739710 0 -185.76411805 0 6387.23000227 0 938.62805799 0 539.17242516 0 8256
0.08650000 0.08650700 23426.64018846 0 220.35946880 0 4990.28689202 0 357.29082787 0 687.69963953 0 8037
0.08750000 0.08749060 23387.41031741 0 661.73823260 0 5948.29383187 0 902.11280409 0 328.24273826 0 8155
0.08850000 0.08849210 22525.47721936 0 999.56137747 0 4670.83883890 0 -415.16781442 0 591.96414132 0 8718
0.08950000 0.08949900 21603.63145291 0 1066.05319874 0 5515.38265027 0 290.74280335 0 596.08046761 0 8571
0.09050000 0.09049190 20584.44165113 0 864.72302756 0 5924.17139540 0 204.91706283 0 936.83067794 0 8932
0.09150000 0.09150830 20239.01645416 0 541.37334457 0 5443.24015388 0 430.99465065 0 1201.45695338 0 9285
0.09250000 0.09250820 19557.27098733 0 570.22584687 0 6061.34105628 0 523.57152601 0 1143.19666064 0 9204
0.09350000 0.09350330 19147.43686168 0 529.50996179 0 5986.77057933 0 406.98349663 0 2509.81249522 0 9349
0.09450000 0.09448040 18796.95337189 0 372.14309969 0 6480.41499683 0 95.43672171 0 1871.65827192 0 9564
0.09550000 0.09549270 18393.18919763 0 318.34309716 0 6576.10665650 0 647.49070780 0 3819.65180295 0 10155
0.09650000 0.09649430 18100.14543307 0 72.00749618 0 6516.75602064 0 654.57568995 0 3130.61115379 0 9913
0.09750000 0.09749140 18011.79391833 0 -46.05586861 0 6384.88070627 0 952.75081157 0 3466.93142366 0 10476
0.09850000 0.09850240 18199.28797252 0 -90.59065237 0 5837.38233111 0 861.88701138 0 2902.04376182 0 10575
0.09950000 0.09950330 18025.73232523 0 92.33834875 0 5294.11044063 0 465.09878497 0 2546.88416133 0 10882
0.10050000 0.10051200 18032.92634170 0 310.36897953 0 5556.86065147 0 -711.28926915 0 2269.35249478 0 10875
0.10150000 0.10150300 17672.43867276 0 303.93595512 0 4290.38777426 0 -287.34475464 0 1167.45398492 0 11118
0.10250000 0.10250800 17551.37686438 0 541.36660018 0 5128.77170903 0 -252.90677299 0 2232.66301079 0 11575
0.10350000 0.10349800 17134.46112877 0 519.88459257 0 4036.19169863 0 -696.37742189 0 -113.62049759 0 11364
0.10450000 0.10450100 16785.43892357 0 593.88516853 0 5797.99509095 0 -218.19789166 0 311.26823159 0 12093
0.10550000 0.10551000 16142.02407573 0 603.69488442 0 4396.88169928 0 -105.52655462 0 -486.20647891 0 12067
0.10650000 0.10649700 16081.43696829 0 253.76106245 0 5743.69150727 0 -476.05392317 0 52.11053272 0 12054
0.10750000 0.10749900 15603.70931223 0 67.01878298 0 4785.95434304 0 -116.03723750 0 -1386.09588229 0 12807
0.10850000 0.10850100 15833.46821317 0 -71.86901136 0 5204.93835838 0 685.96408305 0 -631.79538718 0 12736
0.10950000 0.10950300 15712.74362432 0 -105.94538127 0 4719.66822567 0 111.62797984 0 -1234.48198523 0 12933
0.11050000 0.11050200 16090.31708237 0 -139.39418565 0 4935.55616361 0 756.10349549 0 -1047.10820600 0 13428
0.11150000 0.11150900 15940.81642765 0 131.56844461 0 4594.42489523 0 548.61457177 0 -830.70432219 0 13453
0.11250000 0.11250000 15843.80961184 0 280.11251996 0 4314.25167576 0 236.51340797 0 -935.87072637 0 13668
0.11350000 0.11349100 15454.65828353 0 365.33014128 0 4765.65372782 0 36.94520879 0 150.05144661 0 13791
0.11450000 0.11448600 15380.69480172 0 330.42679669 0 4503.83649099 0 297.19943313 0 -874.19552393 0 14205
0.11550000 0.11549300 14899.81976345 0 131.78988543 0 4291.66920844 0 443.05586889 0 256.81177506 0 14776
0.11650000 0.11649800 14880.71065721 0 129.65078960 0 3677.65990291 0 524.89567466 0 -911.17501671 0 14553
0.11750000 0.11747300 14682.53798482 0 60.55293586 0 3351.02907397 0 701.87747229 0 -730.28259669 0 14568
0.11850000 0.11849100 14609.24894205 0 303.31996746 0 2744.12385970 0 138.79843116 0 -976.53490445 0 16015
0.11950000 0.11950300 14256.06769609 0 274.12687344 0 2614.77769174 0 29.90856143 0 -1384.16249036 0 15270
0.12050000 0.12050700 14173.22410020 0 369.62856612 0 3146.92133800 0 -297.51641948 0 -510.95501963 0 15999
0.12150000 0.12150000 14102.07078107 0 75.58550771 0 3032.14305338 0 568.13058957 0 -261.87119195 0 15670
0.12250000 0.12250700 13971.67923259 0 150.49095605 0 3400.85887866 0 456.04106861 0 1230.63768268 0 16887
0.12350000 0.12352200 13993.93572104 0 -28.89622843 0 3200.70785175 0 780.61261034 0 1472.83998398 0 16407
0.12450000 0.12449800 14100.60949648 0 -34.04444646 0 3657.74146982 0 407.74673681 0 2206.37112873 0 16306
0.12550000 0.12549900 14065.76347921 0 79.19409381 0 3434.68199671 0 204.01781077 0 2116.79438306 0 17523
0.12650000 0.12650100 14059.69352782 0 199.08204103 0 3907.31763800 0 -282.54724490 0 2600.85052549 0 17154
0.12750000 0.12750600 13736.63722581 0 252.32225915 0 3557.60975311 0 -48.43247940 0 2211.65423458 0 18007
0.12850000 0.12850300 13650.87106073 0 79.81918640 0 4095.07022716 0 105.16764065 0 2056.93791791 0 17496
0.12950000 0.12949900 13579.38052208 0 76.44991375 0 3527.96815713 0 298.28078373 0 1334.64742389 0 18405
0.13050000 0.13049000 13463.60181955 0 -24.24844416 0 2644.37432512 0 787.40758371 0 697.72742404 0 18100
0.13150000 0.13148800 13249.80464265 0 7.59537514 0 2069.62861259 0 328.93965860 0 793.16729314 0 19059
0.13250000 0.13249300 13295.66649763 0 94.39853521 0 1447.68340764 0 293.71370734 0 -396.74438788 0 18957
0.13350000 0.13349100 12973.84666720 0 179.75486616 0 1573.28643891 0 -266.32024151 0 -533.05751116 0 19468
0.13450000 0.13450700 12807.37262988 0 486.68308250 0 1419.42441171 0 -564.57741988 0 -1268.05780896 0 19953
0.13550000 0.13551000 12420.69424473 0 519.27310117 0 2087.91715133 0 -945.82769478 0 -1058.27804063 0 19956
0.13650000 0.13649900 12051.32646171 0 446.44380102 0 2604.59366218 0 -872.35205721 0 -1212.42782850 0 19723
0.13750000 0.13749600 11932.28797047 0 259.63205432 0 2917.97176391 0 -196.10214452 0 -1263.17936655 0 20946
0.13850000 0.13851100 11894.40697751 0 111.20825394 0 3413.72942375 0 36.46208562 0 -779.47505649 0 20955
0.13950000 0.13949800 11650.03523061 0 177.15715178 0 3544.76168932 0 199.44848625 0 -964.14321108 0 20506
0.14050000 0.14048300 11658.35331215 0 295.51670772 0 3524.65216516 0 164.24726442 0 -647.74699463 0 21447
0.14150000 0.14148400 11263.80647150 0 391.14879194 0 3650.76102571 0 -349.86188181 0 -868.45155141 0 21771
0.14250000 0.14249400 10933.71352213 0 295.40654934 0 3315.09271358 0 1.32957789 0 -728.87526722 0 22470
0.14350000 0.14350900 10872.05855287 0 152.01631236 0 3590.47741584 0 38.59050284 0 -889.72223479 0 22519
0.14450000 0.14449900 10641.96243241 0 38.61489505 0 2802.06941422 0 301.09319455 0 -1198.10723946 0 22218
0.14550000 0.14550500 10578.47523708 0 -19.24320721 0 3008.34659579 0 363.86885668 0 -985.43300357 0 23559
0.14650000 0.14650700 10542.93229947 0 44.45014166 0 2170.63710006 0 431.57017197 0 -1499.64893597 0 23044
0.14750000 0.14750500 10487.66201982 0 108.77161808 0 2395.09041386 0 437.47151360 0 -956.24890208 0 23649
0.14850000 0.14849900 10419.59987965 0 192.28594360 0 1888.19326914 0 198.91455534 0 -1407.91398536 0 23640
0.14950000 0.14949500 10135.25637876 0 174.93824733 0 1931.93064114 0 330.65947816 0 -894.93340047 0 24457
0.15050000 0.15050000 10029.27952366 0 121.68341636 0 1739.50194127 0 175.92068020 0 -889.00170908 0 24591
0.15150000 0.15149900 9947.47006764 0 241.13893574 0 2033.19766357 0 325.42695525 0 -219.18257267 0 25020
0.15250000 0.15250500 9749.00513834 0 206.60316044 0 1867.73528481 0 203.58616978 0 -46.20514446 0 25297
0.15350000 0.15350100 9680.18987456 0 151.44865949 0 2139.45553493 0 261.45866007 0 931.27892054 0 25452
0.15450000 0.15450400 9637.04825706 0 45.11862316 0 2086.35470088 0 359.38833330 0 1024.54372372 0 26061
0.15550000 0.15549900 9709.95511770 0 -58.92337873 0 2165.85982350 0 361.09354002 0 1367.35771752 0 26128
0.15650000 0.15649500 9622.45789241 0 -22.52480278 0 2373.69945551 0 1.14374745 0 1642.55132872 0 26331
0.15750000 0.15749700 9836.38995712 0 150.12226271 0 2472.12259331 0 -306.40440202 0 1267.52949838 0 27345
0.15850000 0.15849900 9632.33842440 0 182.61561178 0 2567.29718305 0 -303.32895998 0 1636.39145212 0 26980
0.15950000 0.15949700 9567.33374122 0 212.42806564 0 2863.08366639 0 -175.84874004 0 1638.51593510 0 27777
0.16050000 0.16050000 9334.02279465 0 95.60555629 0 2712.61631570 0 -12.84469159 0 1277.44375232 0 28224
0.16150000 0.16150500 9274.11012625 0 103.50379952 0 2916.26318500 0 331.44070339 0 1115.39403513 0 28075
0.16250000 0.16249700 9249.51558246 0 80.36784256 0 2471.68420794 0 69.75936603 0 547.78051549 0 28590
0.16350000 0.16349900 9100.99286435 0 48.98698070 0 2328.62444608 0 210.79929535 0 615.40089809 0 29163
0.16450000 0.16449100 9086.53738751 0 61.80784211 0 2268.12726385 0 -280.03271134 0 192.49951596 0 28996
0.16550000 0.16550500 9067.00113654 0 43.37564785 0 2063.60362380 0 -115.83040952 0 -153.91823046 0 30777
0.16650000 0.16650700 9052.53441905 0 24.40086739 0 2050.94665108 0 -108.99013633 0 -307.36435359 0 29211
0.16750000 0.16749900 9044.21633750 0 135.96129092 0 1831.69775857 0 -14.47874499 0 -664.71475691 0 30922
0.16850000 0.16850800 8865.25393722 0 164.64518345 0 2081.10531699 0 -132.86111945 0 -678.71273927 0 30867
0.16950000 0.16949900 8807.93785914 0 159.04846345 0 1994.15888358 0 -1.53469728 0 -850.62163122 0 30852
0.17050000 0.17049200 8699.78031781 0 86.51895146 0 2023.28340963 0 82.44219225 0 -702.87901427 0 31257
0.17150000 0.17149500 8700.88190158 0 -37.32356909 0 2082.89258045 0 162.62973478 0 -435.53362542 0 32608
0.17250000 0.17250900 8794.50528152 0 -69.79612296 0 1884.67494546 0 437.71655979 0 -262.87835426 0 32361
0.17350000 0.17350400 8765.94278801 0 -14.99491567 0 1949.15131806 0 404.95006291 0 -389.09062879 0 32508
0.17450000 0.17449800 8712.97684176 0 125.54795208 0 1494.00612931 0 476.46308286 0 -132.88697294 0 32791
0.17550000 0.17549800 8602.73978005 0 152.15682049 0 1508.73138176 0 486.40094217 0 74.67310409 0 33633
0.17650000 0.17650100 8407.98426548 0 176.40178005 0 1159.21458793 0 223.75077313 0 389.28284392 0 33984
0.17750000 0.17750300 8330.18772177 0 98.97550338 0 1179.61636901 0 314.87760454 0 628.05000236 0 34069
