### header ###
fiducial parameters:
Omega_m = 0.31
Omega_nu = 0
Omega_de = 0.69
Omega_k = 0
H_0 = 100
w_de = -1
zeff = 0
beta = 0
fgrowth = 0
b_1 = 2
gamma = 0.55
Lx = 3500 Ly = 3500 Lz = 3500
nx = 700 ny = 700 nz = 700
xoffset = 857.220397 yoffset = 15.9954215 zoffset = 262.898189
bins = 400 dk = 0.001
kx_ny = 0.628318531 ky_ny = 0.628318531 kz_ny = 0.628318531
############################
A(data) = 3.10236089 (not used)
A(ran) = 3.10483303 (used)
Ngal = 189676
weighted Ngal = 0
Nran = 9360983
weighted Nran = 0
SN(data) = 3437.22355
SN(ran) = 69.7228814
SN(data+ran) = 3506.94643
############################
13 columns: k_central k_mean P_0(k) sigma^{lin}_{P_0(k)} P^img_1(k) sigma^{lin}_{P_1(k)} P_2(k) sigma^{lin}_{P_2(k)} P^img_3(k) sigma^{lin}_{P_3(k)} P_4(k) sigma^{lin}_{P_4(k)} N_modes
### header ###
0.00050000 0 0 0 0 0 0 0 0 0 0 0 0
0.00150000 0.00179520 1013.95952699 0 -2932.67453506 0 4469.49630301 0 9916.24353991 0 18741.98658981 0 3
0.00250000 0.00253879 8714.03346293 0 -10586.89448448 0 -3309.13516870 0 19959.79869001 0 19300.87174416 0 6
0.00350000 0.00331552 18352.16082246 0 -22614.27836013 0 -4207.18447755 0 5262.14202995 0 -30580.63993969 0 7
0.00450000 0.00420575 38613.20895206 0 -32465.92188029 0 -18707.36538556 0 10971.30225818 0 -14029.45617735 0 24
0.00550000 0.00557378 83785.00038613 0 -50017.52355769 0 -62355.59901955 0 11233.27686411 0 -14400.28524497 0 45
0.00650000 0.00659388 115287.48609226 0 -33366.07319083 0 -34549.26408677 0 -70021.83522459 0 -79600.10611898 0 40
0.00750000 0.00754703 137600.17779328 0 -15990.38769737 0 -64659.59519988 0 -62047.60518952 0 -53219.87254444 0 57
0.00850000 0.00846663 138072.28512398 0 5687.60066012 0 -40687.10901192 0 -79656.19696612 0 -34842.08303832 0 75
0.00950000 0.00948925 123005.31688416 0 26343.25183363 0 -40205.55953461 0 -80556.57308968 0 -39485.59585529 0 112
0.01050000 0.01054430 101314.90760761 0 21884.08568864 0 9799.38573491 0 -43267.17557421 0 -43901.71030797 0 105
0.01150000 0.01145670 85299.11603959 0 19361.34644509 0 15459.94138938 0 -27676.39301032 0 -44078.63815048 0 144
0.01250000 0.01249090 79366.52539679 0 8306.14396986 0 29853.70705692 0 -6117.01599935 0 -29906.31330234 0 169
0.01350000 0.01339930 80713.26776087 0 -1438.12885452 0 46272.36354714 0 -14046.20474694 0 -22798.06299958 0 180
0.01450000 0.01448870 89190.51691615 0 -7742.34665114 0 43422.29655430 0 17782.93426944 0 3417.66365150 0 267
0.01550000 0.01550050 102466.73708802 0 -8903.43842775 0 48193.61557008 0 17682.33044540 0 -4516.36981655 0 238
0.01650000 0.01653350 102862.40799375 0 -1452.11222403 0 42946.70462187 0 16840.96773819 0 21695.46756938 0 315
0.01750000 0.01747870 115347.06154114 0 2131.56459812 0 51372.69640982 0 16120.55443284 0 13536.44123629 0 297
0.01850000 0.01844180 102994.82285936 0 5206.56825274 0 42723.57770486 0 -4671.23226168 0 12453.51694487 0 388
0.01950000 0.01947590 98474.05794837 0 8696.22827217 0 36243.11774543 0 10711.18235961 0 -4348.46821659 0 399
0.02050000 0.02045430 94460.47119836 0 7251.84961585 0 38291.83874766 0 5017.08460337 0 -4279.22580808 0 462
0.02150000 0.02154770 88243.49209207 0 4503.58919667 0 29696.22554018 0 4152.09404831 0 -4692.17359399 0 571
0.02250000 0.02255340 80588.27172474 0 2953.76199584 0 15549.30456269 0 13508.00238994 0 -10329.66343315 0 510
0.02350000 0.02348930 86329.65889861 0 -2251.77211704 0 23466.65690506 0 12476.78509188 0 12893.70082749 0 555
0.02450000 0.02439640 78066.09451372 0 -444.23726128 0 7947.89319041 0 17376.92196504 0 -12397.20128470 0 592
0.02550000 0.02547300 82158.70303837 0 2760.33287806 0 13215.52065792 0 13962.12467947 0 18865.97096737 0 837
0.02650000 0.02652900 72800.74889831 0 3921.63822703 0 7585.65197995 0 3739.86566406 0 9313.67721683 0 723
0.02750000 0.02749970 72854.47920880 0 6176.14182219 0 10878.26339207 0 6875.23161310 0 32814.83167898 0 826
0.02850000 0.02848090 67245.05727452 0 1609.53753752 0 9233.00306653 0 2782.16222178 0 15857.29839272 0 831
0.02950000 0.02946900 64818.87522074 0 850.22820845 0 6562.28065610 0 -2757.50023407 0 19070.55081068 0 996
0.03050000 0.03053250 66250.37209133 0 283.49033550 0 10324.53769642 0 -3006.27831605 0 12069.98594192 0 1041
0.03150000 0.03150510 63030.37528293 0 575.89450703 0 3665.81225704 0 -4644.33338448 0 4030.32407895 0 1036
0.03250000 0.03246190 60479.53441255 0 2262.03483115 0 4591.19882847 0 -2021.81088438 0 2293.72222556 0 1059
0.03350000 0.03345080 63862.29584353 0 757.08705242 0 2338.51621873 0 -543.60911000 0 -8227.88655947 0 1302
0.03450000 0.03451200 59329.39102975 0 564.96297420 0 5715.91585931 0 -1730.41949548 0 -3963.45344775 0 1339
0.03550000 0.03553350 61052.13316078 0 3267.49979839 0 4716.81310039 0 -2423.58546346 0 -10238.86145654 0 1365
0.03650000 0.03647120 58010.86269901 0 3133.32015061 0 11315.06383883 0 -3442.49424897 0 -830.40307275 0 1308
0.03750000 0.03744890 54115.30278167 0 3811.09766774 0 9866.36877262 0 -2585.84425676 0 -2664.92223465 0 1579
0.03850000 0.03847530 52717.19064375 0 3448.36186865 0 15774.90442286 0 4121.56444093 0 3444.70865716 0 1662
0.03950000 0.03950240 50409.48504868 0 1437.18463986 0 15972.29024969 0 -208.89063286 0 -3290.10474701 0 1683
0.04050000 0.04050350 49904.89223737 0 2120.21154088 0 16272.86525024 0 4758.66204306 0 -353.63649232 0 1822
0.04150000 0.04152450 46554.39147398 0 1986.27918742 0 17673.56273783 0 -75.12070680 0 -4596.65054407 0 1887
0.04250000 0.04250150 46432.20560053 0 2499.57226240 0 16780.38063075 0 -4600.78710354 0 -4909.24180025 0 1920
0.04350000 0.04349210 44244.21293575 0 2611.56286563 0 20795.09144583 0 -4243.52550136 0 -3194.97511987 0 2005
0.04450000 0.04448520 44494.09260150 0 1174.72668594 0 24498.43623566 0 -3983.99011663 0 -497.94846267 0 2151
0.04550000 0.04548030 43446.12673385 0 -233.86511065 0 23951.46617109 0 1391.44643204 0 -1204.49192908 0 2274
0.04650000 0.04648670 44606.38670230 0 -256.67463912 0 27805.99771325 0 3155.84641468 0 -2780.21758920 0 2311
0.04750000 0.04749250 45577.35411244 0 -337.72197902 0 25690.61965219 0 3845.02195165 0 -4161.44626972 0 2568
0.04850000 0.04851840 45047.46983698 0 180.45515871 0 25456.47689746 0 2875.89800822 0 49.35005372 0 2493
0.04950000 0.04949480 45823.63676996 0 640.09885588 0 25539.43289986 0 1962.83118999 0 144.38503457 0 2644
0.05050000 0.05050630 44479.92938158 0 46.80325948 0 19272.32049130 0 2692.95641758 0 -356.78050233 0 2829
0.05150000 0.05149060 45410.76766861 0 735.96137344 0 20550.38247941 0 438.99462178 0 -1764.70348021 0 2784
0.05250000 0.05249300 42371.18330444 0 1687.36780318 0 16125.16309964 0 883.82089316 0 -2716.94396624 0 3055
0.05350000 0.05348950 41308.26737132 0 1765.25427210 0 17070.95145214 0 1799.66190398 0 -5993.66109822 0 3009
0.05450000 0.05448610 39347.56066431 0 1118.96968612 0 14977.15544048 0 1047.19363495 0 -2855.01287916 0 3336
0.05550000 0.05550870 38099.84843317 0 1117.78042528 0 13801.94540655 0 1902.21036060 0 -6067.50093288 0 3349
0.05650000 0.05647670 37526.68765240 0 697.31264403 0 12431.71008245 0 2184.15960289 0 -5382.33830822 0 3324
0.05750000 0.05747970 35633.87447581 0 1485.23842174 0 9973.99800337 0 558.24893351 0 -7324.90260495 0 3639
0.05850000 0.05849280 34331.98230814 0 1461.40824219 0 9995.36648041 0 1256.31132895 0 -6073.16622084 0 3846
0.05950000 0.05951020 33068.19594646 0 529.57628163 0 8341.76559202 0 751.43637730 0 -5936.91829333 0 3787
0.06050000 0.06049470 33131.59321658 0 -149.28033797 0 6464.54319800 0 1736.45572492 0 -7976.84910669 0 3930
0.06150000 0.06148310 33016.37654659 0 -622.16889390 0 5571.25992505 0 74.64533968 0 -8049.27261935 0 4083
0.06250000 0.06249100 33848.85913973 0 -482.74098629 0 5547.68828047 0 420.72744028 0 -10510.90768554 0 4303
0.06350000 0.06350600 34237.11121597 0 -295.89214545 0 2831.65480695 0 1146.69250302 0 -6732.75636509 0 4470
0.06450000 0.06451750 33882.91831144 0 434.24319871 0 4015.82363950 0 -271.85288980 0 -10368.07273670 0 4479
0.06550000 0.06550280 34080.30413828 0 510.15018904 0 2852.00038477 0 533.82637167 0 -8419.28111946 0 4636
0.06650000 0.06648880 32560.23093993 0 1232.80712827 0 3047.38537577 0 629.52814793 0 -8418.83149344 0 4653
0.06750000 0.06749660 31721.79080190 0 977.60276627 0 4469.32769324 0 892.36940804 0 -5515.33768767 0 5220
0.06850000 0.06852730 31413.01012632 0 151.87805235 0 3750.55552290 0 2553.97701194 0 -4525.42978104 0 5029
0.06950000 0.06949320 30550.73980875 0 273.94365083 0 6457.36042218 0 1880.25736973 0 -727.27684669 0 5040
0.07050000 0.07048030 31958.29409328 0 236.48418227 0 4838.14468438 0 320.65754714 0 -2032.56818713 0 5475
0.07150000 0.07148790 30956.97692616 0 308.54237378 0 8061.92959208 0 -934.98046683 0 2323.19521178 0 5509
0.07250000 0.07249820 31512.93951132 0 975.15455254 0 9069.53028295 0 -1815.92712559 0 6368.87401962 0 5916
0.07350000 0.07351270 30144.83991085 0 67.24438284 0 8419.20243491 0 1387.06257825 0 4145.87796846 0 5721
0.07450000 0.07449140 30754.08318047 0 342.04962955 0 10823.02683438 0 -857.22551353 0 6975.59938348 0 6028
0.07550000 0.07549160 30849.74111819 0 632.19892654 0 8766.41489534 0 373.52007940 0 3242.80408873 0 6183
0.07650000 0.07648840 29658.68176673 0 1099.79650817 0 9076.90414983 0 873.88078571 0 2571.80468400 0 6330
0.07750000 0.07749960 27559.37783621 0 1120.33317706 0 8045.90042413 0 -13.37446346 0 2115.19821065 0 6583
0.07850000 0.07848650 27546.00146184 0 565.25972737 0 8056.42167322 0 2207.58511901 0 2596.41046845 0 6549
0.07950000 0.07947320 26182.62293468 0 46.82146934 0 7138.40896867 0 2363.72899832 0 2191.26369415 0 6828
0.08050000 0.08048110 26666.98257468 0 272.51046787 0 4609.65597697 0 1609.26776190 0 1196.62347357 0 7147
0.08150000 0.08149960 25714.44983174 0 12.83446260 0 5222.40632962 0 1967.85576087 0 3078.33088724 0 7386
0.08250000 0.08250610 25676.79365179 0 429.86271712 0 3655.84179984 0 -301.20335292 0 2134.94803399 0 7227
0.08350000 0.08350160 25521.33545218 0 337.12959672 0 4571.10054496 0 286.96706877 0 3824.91242749 0 7798
0.08450000 0.08449610 25184.11593025 0 981.19078198 0 3247.07553601 0 -1482.73175662 0 3465.15540084 0 7371
0.08550000 0.08548940 24058.81438557 0 937.03638185 0 4238.54589309 0 -808.49279635 0 1293.49540157 0 8256
0.08650000 0.08650700 23768.91800322 0 1044.61165747 0 5919.78754162 0 -1514.07069086 0 1679.88152979 0 8037
0.08750000 0.08749060 22400.36877672 0 1167.27413451 0 5686.85877717 0 -1336.01878328 0 -18.77806908 0 8155
0.08850000 0.08849210 22073.71546648 0 972.63439865 0 6746.96454761 0 -1180.53810237 0 1333.63576533 0 8718
0.08950000 0.08949900 21017.76873681 0 623.62568223 0 7146.71580956 0 -370.90662811 0 -574.60183220 0 8571
0.09050000 0.09049190 20764.85409536 0 250.80814350 0 6932.55893183 0 507.02866033 0 563.64781806 0 8932
0.09150000 0.09150830 20574.10025246 0 -17.98313026 0 6998.91249310 0 739.05142833 0 -964.33655028 0 9285
0.09250000 0.09250820 20568.03030106 0 129.27310373 0 6348.09005642 0 1069.51194697 0 -353.25318613 0 9204
0.09350000 0.09350330 20279.59520330 0 212.32352759 0 6451.74009681 0 784.75141794 0 -357.74157797 0 9349
0.09450000 0.09448040 19975.19838151 0 275.20260372 0 5334.14963854 0 952.72495807 0 248.58249466 0 9564
0.09550000 0.09549270 20000.04021962 0 -4.80152264 0 5022.43515311 0 272.36321534 0 -469.60628591 0 10155
0.09650000 0.09649430 20090.41505150 0 -68.45882274 0 5602.59885929 0 -62.90807700 0 -417.10008228 0 9913
0.09750000 0.09749140 20213.72499002 0 263.70679021 0 5291.26655600 0 -419.86078610 0 -506.98931805 0 10476
0.09850000 0.09850240 19834.91506039 0 262.89971149 0 5148.78006733 0 -738.15330033 0 -552.31724212 0 10575
0.09950000 0.09950330 19589.08202890 0 615.83815940 0 6450.31253417 0 -623.10524010 0 -835.70753583 0 10882
0.10050000 0.10051200 19262.54112516 0 570.60016054 0 5812.24823608 0 -66.57432765 0 -1442.11928553 0 10875
0.10150000 0.10150300 18656.55764426 0 395.25387759 0 6744.64897356 0 581.51820459 0 -1359.71407502 0 11118
0.10250000 0.10250800 18361.71537558 0 592.11701417 0 6393.82826425 0 45.84016053 0 -737.33947722 0 11575
0.10350000 0.10349800 17633.99564726 0 663.15343053 0 6055.22614228 0 149.19153683 0 -1429.60844127 0 11364
0.10450000 0.10450100 17198.08321191 0 382.13154193 0 5818.28446552 0 538.58229099 0 -903.34815161 0 12093
0.10550000 0.10551000 16968.21190446 0 -42.43480539 0 5339.46646633 0 1234.71803889 0 -301.83844969 0 12067
0.10650000 0.10649700 17140.19386064 0 -188.50908495 0 4988.70196027 0 1161.31658962 0 -993.31944412 0 12054
0.10750000 0.10749900 16966.41340034 0 4.14613650 0 4532.10672758 0 594.72147294 0 -1232.54859330 0 12807
0.10850000 0.10850100 17034.08211774 0 232.22509971 0 4381.36960127 0 929.56247318 0 -447.29921454 0 12736
0.10950000 0.10950300 16490.37184189 0 478.32003836 0 4294.98520041 0 -332.03533381 0 -120.92804463 0 12933
0.11050000 0.11050200 16383.36084693 0 349.53702700 0 4679.57282452 0 40.88663056 0 47.14542489 0 13428
0.11150000 0.11150900 16124.03903456 0 333.08858279 0 5121.17302914 0 -228.08067179 0 81.68423517 0 13453
0.11250000 0.11250000 16093.91409060 0 410.63670811 0 5836.02221237 0 -952.15505708 0 865.08834871 0 13668
0.11350000 0.11349100 15455.22031607 0 476.09663765 0 5817.36273216 0 -418.09712800 0 644.90535813 0 13791
0.11450000 0.11448600 15673.28894025 0 353.13740743 0 6388.68004621 0 144.04219473 0 720.86180731 0 14205
0.11550000 0.11549300 14899.48254393 0 213.79717690 0 6101.11047856 0 20.83892998 0 496.81652914 0 14776
0.11650000 0.11649800 14995.14048165 0 235.59504680 0 6265.05536947 0 427.53140616 0 82.48265859 0 14553
0.11750000 0.11747300 14916.56833304 0 367.34334182 0 6383.53182818 0 60.32677397 0 89.80110906 0 14568
0.11850000 0.11849100 14615.76851948 0 289.19721388 0 6110.65379103 0 -193.46846006 0 752.06472968 0 16015
0.11950000 0.11950300 14628.58286131 0 -52.02532859 0 6614.22370313 0 -108.58277515 0 981.50327207 0 15270
0.12050000 0.12050700 14835.74805428 0 -138.50055392 0 6316.98717585 0 330.94386663 0 1302.33055304 0 15999
0.12150000 0.12150000 15150.14905523 0 -39.42422190 0 6492.59986222 0 351.32091827 0 1329.62285302 0 15670
0.12250000 0.12250700 14925.22363410 0 137.35962787 0 6558.54876006 0 688.70904996 0 1947.36405459 0 16887
0.12350000 0.12352200 14784.60309346 0 173.58150078 0 5781.19031811 0 626.44596150 0 1650.45350618 0 16407
0.12450000 0.12449800 14593.62443754 0 96.17601931 0 5420.84877762 0 978.33565670 0 1380.95890491 0 16306
0.12550000 0.12549900 14333.40337312 0 16.66932300 0 4703.38052277 0 1130.92187005 0 848.22737262 0 17523
0.12650000 0.12650100 14209.98102809 0 87.82320416 0 4037.34948565 0 375.34668514 0 777.22243008 0 17154
0.12750000 0.12750600 13849.71817216 0 371.45966812 0 3921.40217336 0 2.40875905 0 431.12841440 0 18007
0.12850000 0.12850300 13554.87590349 0 435.75169404 0 3934.21651520 0 -164.86437614 0 499.34455149 0 17496
0.12950000 0.12949900 13019.82092869 0 463.90053160 0 3793.61845585 0 -437.20848238 0 528.31620468 0 18405
0.13050000 0.13049000 13120.98678527 0 251.11950953 0 4619.60395287 0 -115.59435586 0 910.47360010 0 18100
0.13150000 0.13148800 12760.38670982 0 47.22354741 0 4232.34105388 0 78.98187033 0 411.15377805 0 19059
0.13250000 0.13249300 12891.11547782 0 41.05658920 0 4699.81723648 0 35.89870421 0 258.09770550 0 18957
0.13350000 0.13349100 12782.75560478 0 16.22936393 0 4182.69109960 0 230.67388991 0 130.96931793 0 19468
0.13450000 0.13450700 12748.13440052 0 50.72219995 0 4370.16267250 0 305.23649840 0 424.59422413 0 19953
0.13550000 0.13551000 12673.83369919 0 188.45288170 0 4138.56030483 0 184.18480662 0 -79.70262085 0 19956
0.13650000 0.13649900 12470.71514048 0 111.18374932 0 4013.80032237 0 634.13906286 0 652.73109917 0 19723
0.13750000 0.13749600 12205.43578323 0 310.92763987 0 3990.40852820 0 87.00780736 0 406.43045661 0 20946
0.13850000 0.13851100 12189.92368522 0 202.72401187 0 3999.47973334 0 355.00110732 0 1425.08969968 0 20955
0.13950000 0.13949800 11895.08141655 0 133.11853035 0 3900.93294838 0 497.27851988 0 1033.89032480 0 20506
0.14050000 0.14048300 11965.11067060 0 144.19057132 0 3713.14663727 0 302.88045801 0 1844.65822886 0 21447
0.14150000 0.14148400 11749.17777006 0 13.54723226 0 3227.56176634 0 616.31925925 0 1143.72497123 0 21771
0.14250000 0.14249400 11623.61970140 0 1.96307848 0 2836.91543149 0 416.88538586 0 1074.98164762 0 22470
0.14350000 0.14350900 11687.24178453 0 133.59963020 0 2314.21393185 0 38.51282994 0 207.36977282 0 22519
0.14450000 0.14449900 11359.46440922 0 239.77432074 0 2132.87975425 0 -295.57853130 0 -689.39922592 0 22218
0.14550000 0.14550500 11253.35266632 0 356.13304085 0 2104.65448027 0 -595.32059962 0 -691.15164337 0 23559
0.14650000 0.14650700 10759.56212036 0 354.48291332 0 2507.03605449 0 -538.76438954 0 -1206.13306409 0 23044
0.14750000 0.14750500 10810.59467467 0 129.83738440 0 2730.89361379 0 -461.17579787 0 -595.62522126 0 23649
0.14850000 0.14849900 10809.94271693 0 135.15646032 0 3148.31517869 0 -161.49555312 0 -794.88711270 0 23640
0.14950000 0.14949500 10774.25365086 0 98.96830936 0 3218.79405877 0 24.99223802 0 -326.30934633 0 24457
0.15050000 0.15050000 10732.14617322 0 161.28760108 0 3611.21641644 0 140.11471136 0 -182.41890039 0 24591
0.15150000 0.15149900 10555.69043805 0 175.42384344 0 3401.34222664 0 519.72160313 0 149.16118707 0 25020
0.15250000 0.15250500 10346.83914747 0 176.60411176 0 3538.44444361 0 274.65630809 0 63.34219093 0 25297
0.15350000 0.15350100 10209.44467358 0 203.34786798 0 3134.75895391 0 272.68807015 0 -145.44952420 0 25452
0.15450000 0.15450400 10060.88823352 0 202.47896568 0 3123.46209992 0 175.02367627 0 -2.44966377 0 26061
0.15550000 0.15549900 9741.54134625 0 232.18238524 0 2874.00957890 0 73.89963491 0 -206.09508302 0 26128
0.15650000 0.15649500 9614.65688080 0 235.33875996 0 2803.55318012 0 158.87310930 0 -20.29836709 0 26331
0.15750000 0.15749700 9395.55411675 0 178.46893572 0 2644.34060316 0 56.50506513 0 -48.73114349 0 27345
0.15850000 0.15849900 9326.82877818 0 31.98021336 0 2650.73653343 0 390.27314525 0 106.88060341 0 26980
0.15950000 0.15949700 9300.06478879 0 -66.07985142 0 2537.20596105 0 267.08235763 0 210.10125094 0 27777
0.16050000 0.16050000 9363.52950282 0 18.19141952 0 2742.98855398 0 246.21746174 0 91.12255996 0 28224
0.16150000 0.16150500 9368.46414849 0 86.54873918 0 2537.38581146 0 -99.55608299 0 199.58224999 0 28075
0.16250000 0.16249700 9155.61118625 0 197.58366229 0 2696.50846321 0 -106.68175630 0 43.41173034 0 28590
0.16350000 0.16349900 9140.61615817 0 223.68220516 0 2721.95729646 0 -249.16138817 0 202.58237967 0 29163
0.16450000 0.16449100 8906.23734978 0 144.57724970 0 2647.96009270 0 118.82042262 0 -21.05014181 0 28996
0.16550000 0.16550500 8831.28469071 0 108.94168913 0 2665.32689808 0 109.86544581 0 -230.06239851 0 30777
0.16650000 0.16650700 8768.25836206 0 16.52364417 0 2373.94674983 0 -12.68046568 0 -731.88326536 0 29211
0.16750000 0.16749900 8811.68099583 0 26.25872214 0 2543.39955960 0 19.06290717 0 -536.49152996 0 30922
0.16850000 0.16850800 8693.66540381 0 6.64720377 0 2359.88469577 0 -87.84602268 0 -923.21375364 0 30867
0.16950000 0.16949900 8788.52525533 0 -25.38521117 0 2375.00337100 0 68.29898069 0 -425.41479163 0 30852
0.17050000 0.17049200 8875.21315376 0 -26.24197357 0 2533.66515607 0 20.53093615 0 -899.17337392 0 31257
0.17150000 0.17149500 8872.76269190 0 22.90912063 0 2406.17369548 0 157.36124178 0 -608.22374260 0 32608
0.17250000 0.17250900 8859.09406062 0 155.20865716 0 2557.50657627 0 47.97105069 0 -504.98960628 0 32361
0.17350000 0.17350400 8772.06894266 0 173.11164158 0 2446.07800557 0 42.84239138 0 -523.75812081 0 32508
0.17450000 0.17449800 8584.00161528 0 185.88776520 0 2373.78938072 0 152.99986929 0 -378.82679061 0 32791
0.17550000 0.17549800 8369.35014892 0 189.90854597 0 2039.94205401 0 56.76685988 0 -710.65754458 0 33633
0.17650000 0.17650100 8092.83014094 0 190.40987899 0 2010.54775235 0 265.68064848 0 -881.59636838 0 33984
0.17750000 0.17750300 7954.06430766 0 176.87838364 0 1657.49015354 0 153.17747158 0 -860.19416938 0 34069
0.17850000 0.17849800 7776.25969440 0 95.82205122 0 1372.79819247 0 185.75400146 0 -1087.11593008 0 34536
