### header ###
fiducial parameters:
Omega_m = 0.31
Omega_nu = 0
Omega_de = 0.69
Omega_k = 0
H_0 = 100
w_de = -1
zeff = 0
beta = 0
fgrowth = 0
b_1 = 2
gamma = 0.55
Lx = 3500 Ly = 3500 Lz = 3500
nx = 700 ny = 700 nz = 700
xoffset = 857.220397 yoffset = 15.9954215 zoffset = 262.898189
bins = 400 dk = 0.001
kx_ny = 0.628318531 ky_ny = 0.628318531 kz_ny = 0.628318531
############################
A(data) = 3.06636875 (not used)
A(ran) = 3.06622642 (used)
Ngal = 187526
weighted Ngal = 0
Nran = 9360983
weighted Nran = 0
SN(data) = 3447.66771
SN(ran) = 68.8559219
SN(data+ran) = 3516.52364
############################
13 columns: k_central k_mean P_0(k) sigma^{lin}_{P_0(k)} P^img_1(k) sigma^{lin}_{P_1(k)} P_2(k) sigma^{lin}_{P_2(k)} P^img_3(k) sigma^{lin}_{P_3(k)} P_4(k) sigma^{lin}_{P_4(k)} N_modes
### header ###
0.00050000 0 0 0 0 0 0 0 0 0 0 0 0
0.00150000 0.00179520 2202.50434488 0 -6781.34969820 0 -7347.92345764 0 -358.78920662 0 624.01348468 0 3
0.00250000 0.00253879 6612.99847220 0 -6028.75440981 0 1981.90657429 0 -3886.96081952 0 -367.00050198 0 6
0.00350000 0.00331552 16596.70839780 0 -9558.90325318 0 3305.45947591 0 -13163.92607106 0 -9760.77409965 0 7
0.00450000 0.00420575 26334.37171955 0 -10923.01242263 0 6921.08222744 0 -15741.96931622 0 -1220.80211329 0 24
0.00550000 0.00557378 46792.80567598 0 -14219.87280073 0 1949.61218474 0 -12204.31171816 0 -7845.11992078 0 45
0.00650000 0.00659388 52989.66401747 0 -13158.53055871 0 11824.04050393 0 -5817.98096795 0 10728.80769996 0 40
0.00750000 0.00754703 76213.74767976 0 -18655.43357918 0 -7631.95222031 0 -641.38029006 0 -7557.35926206 0 57
0.00850000 0.00846663 77443.13765021 0 -11348.56097801 0 1614.38225798 0 3600.69516736 0 1150.62673078 0 75
0.00950000 0.00948925 95466.17221926 0 -5488.68610478 0 -20297.35543146 0 12070.99760049 0 -4256.69954402 0 112
0.01050000 0.01054430 85541.91409538 0 4184.14114355 0 13972.91570417 0 -15190.16577183 0 24158.51895755 0 105
0.01150000 0.01145670 91962.34897991 0 6974.53152166 0 3464.88562523 0 5838.30406447 0 35336.10963794 0 144
0.01250000 0.01249090 79546.03858896 0 6149.83869948 0 28836.09094624 0 132.83414188 0 37638.19490765 0 169
0.01350000 0.01339930 81796.97889784 0 5267.87476183 0 12939.45027597 0 7354.54420092 0 49110.51545021 0 180
0.01450000 0.01448870 82373.39946733 0 -947.77457549 0 37328.51498001 0 23604.01765699 0 41078.84568990 0 267
0.01550000 0.01550050 82691.39747651 0 -826.06418157 0 34155.61649818 0 11612.60386368 0 51343.47071792 0 238
0.01650000 0.01653350 76919.99776519 0 4849.50898227 0 29987.69561363 0 19761.28879810 0 31262.83503255 0 315
0.01750000 0.01747870 68999.94766664 0 6708.42035626 0 19327.62449290 0 10055.00937319 0 30299.96089094 0 297
0.01850000 0.01844180 61737.36322934 0 8789.85165211 0 14412.87477378 0 11817.85814603 0 27433.25773501 0 388
0.01950000 0.01947590 58357.74918056 0 1704.44235164 0 2140.44471220 0 1816.69148984 0 18014.94130053 0 399
0.02050000 0.02045430 57189.05872406 0 -3090.45954938 0 -1113.82259215 0 3759.72789390 0 12588.51716014 0 462
0.02150000 0.02154770 59719.21679710 0 -5510.94259323 0 997.05246423 0 -2236.11389057 0 -9043.18219764 0 571
0.02250000 0.02255340 63793.61546756 0 -1856.61828124 0 -5211.97500574 0 -13607.70696192 0 -17688.85002282 0 510
0.02350000 0.02348930 63699.98084698 0 3047.19428471 0 7501.76300355 0 -19367.64120950 0 -30435.86035828 0 555
0.02450000 0.02439640 61182.74952228 0 6276.13865109 0 12920.11635671 0 -23403.93407398 0 -39372.51490894 0 592
0.02550000 0.02547300 57831.68672635 0 5798.07377550 0 22696.44751697 0 -14682.76279784 0 -27303.99025161 0 837
0.02650000 0.02652900 53619.02805190 0 4109.72803571 0 20165.16537886 0 -951.34573023 0 -32859.68187540 0 723
0.02750000 0.02749970 52649.40951985 0 -2669.32856974 0 12926.74834064 0 12147.65883847 0 -27726.52631258 0 826
0.02850000 0.02848090 55300.29218174 0 -2372.44050263 0 10498.46428518 0 16515.10127349 0 -27268.58220180 0 831
0.02950000 0.02946900 54546.49414371 0 -3282.51730777 0 2139.32064712 0 13166.28660772 0 -19229.26879900 0 996
0.03050000 0.03053250 56295.20217794 0 348.01841509 0 1088.43221028 0 3747.03719922 0 -16413.26097787 0 1041
0.03150000 0.03150510 54497.14768701 0 2134.65577707 0 -2197.09759188 0 -6519.56618332 0 -15560.99483945 0 1036
0.03250000 0.03246190 53470.87627527 0 4144.32675866 0 4826.63425803 0 -10320.95192883 0 -6390.98437961 0 1059
0.03350000 0.03345080 50466.69996090 0 3065.82004297 0 9378.98539758 0 -10646.95328133 0 -11552.91600830 0 1302
0.03450000 0.03451200 52012.40184292 0 1504.10023366 0 13810.93792714 0 -6259.90715144 0 -14840.80634711 0 1339
0.03550000 0.03553350 50314.38914350 0 1989.33664442 0 12339.08712042 0 -3601.25719989 0 -15429.81644542 0 1365
0.03650000 0.03647120 48179.11513064 0 2043.84255981 0 18305.28730891 0 4246.94265918 0 -14150.18076620 0 1308
0.03750000 0.03744890 45852.52524234 0 2310.88669923 0 14282.37081880 0 -3115.22270294 0 -8461.51224426 0 1579
0.03850000 0.03847530 47107.43148994 0 1169.07263863 0 18677.12803509 0 3551.37119195 0 -7739.21050959 0 1662
0.03950000 0.03950240 45731.35102746 0 63.14828971 0 14169.85190498 0 951.84931138 0 -6067.06254750 0 1683
0.04050000 0.04050350 45976.84683942 0 -615.91009957 0 17600.38610157 0 1930.89650127 0 -5150.18514867 0 1822
0.04150000 0.04152450 45155.26767749 0 -358.03720708 0 19795.79759584 0 -931.79374235 0 -5309.88107361 0 1887
0.04250000 0.04250150 46154.44912097 0 1426.44981841 0 16540.95477018 0 -524.43143579 0 -8682.26738397 0 1920
0.04350000 0.04349210 42920.17668614 0 2994.81285231 0 15107.09736293 0 -386.86610401 0 -11754.68568892 0 2005
0.04450000 0.04448520 41194.73679894 0 2870.54745847 0 15038.97901950 0 -848.94452613 0 -10486.66160191 0 2151
0.04550000 0.04548030 37592.44545918 0 2426.49679200 0 14170.75115704 0 1883.19117957 0 -11066.10590644 0 2274
0.04650000 0.04648670 36965.77918092 0 1242.85627002 0 12404.95733371 0 2698.12711691 0 -11733.10363952 0 2311
0.04750000 0.04749250 35212.91210593 0 -234.23267993 0 11523.80272290 0 1655.41063315 0 -7934.49433474 0 2568
0.04850000 0.04851840 36847.19031571 0 -324.89976873 0 14753.35408443 0 509.32400121 0 -3928.45006137 0 2493
0.04950000 0.04949480 37517.13309928 0 -1673.26078651 0 14790.22341882 0 270.48490260 0 95.17784953 0 2644
0.05050000 0.05050630 39451.98630960 0 -451.42116116 0 20297.91746399 0 189.58144303 0 1890.77861881 0 2829
0.05150000 0.05149060 42249.89668305 0 -677.13567597 0 20522.05603957 0 -784.22085922 0 6640.85280471 0 2784
0.05250000 0.05249300 40586.95481391 0 928.66771738 0 19340.55124124 0 3329.10980505 0 4844.51813334 0 3055
0.05350000 0.05348950 40790.97262468 0 1269.69894397 0 18806.28311199 0 2404.58876372 0 5178.89377064 0 3009
0.05450000 0.05448610 38597.47204103 0 2439.04135821 0 18642.05720481 0 4170.64112202 0 6553.00711925 0 3336
0.05550000 0.05550870 36526.83176988 0 2833.12733219 0 17915.68635458 0 4542.76286447 0 8395.60830903 0 3349
0.05650000 0.05647670 33636.63565393 0 1569.27352660 0 12440.36538351 0 3427.70155261 0 7500.91995474 0 3324
0.05750000 0.05747970 32750.53515680 0 787.61441168 0 13716.51646100 0 4168.74145205 0 9335.25926623 0 3639
0.05850000 0.05849280 32367.56618640 0 -554.89921960 0 9815.81956628 0 2192.20790881 0 7733.18552080 0 3846
0.05950000 0.05951020 32005.95445238 0 -183.73742872 0 11660.93866182 0 1270.48578952 0 8109.46630402 0 3787
0.06050000 0.06049470 33020.08596133 0 367.18484865 0 9755.70456617 0 -1522.53490086 0 6447.08646741 0 3930
0.06150000 0.06148310 31644.79234439 0 851.91992638 0 12857.95555817 0 -1693.84241800 0 5581.17417900 0 4083
0.06250000 0.06249100 31281.94413880 0 1107.16812692 0 11443.54447669 0 -1799.80803244 0 4809.85196649 0 4303
0.06350000 0.06350600 30677.30953598 0 951.94148472 0 12633.03013704 0 -730.98176517 0 4168.73021140 0 4470
0.06450000 0.06451750 29912.94528627 0 810.07885217 0 11988.04159809 0 212.90242111 0 2455.95853756 0 4479
0.06550000 0.06550280 29223.44377043 0 791.57786513 0 12709.12934249 0 952.59231839 0 2747.40612972 0 4636
0.06650000 0.06648880 28956.02868954 0 -136.67956850 0 11632.61222198 0 1551.97416513 0 1866.92595796 0 4653
0.06750000 0.06749660 29366.08762821 0 -528.97603088 0 10785.16832272 0 1345.46092990 0 3913.33138614 0 5220
0.06850000 0.06852730 29734.78097218 0 -251.63770352 0 10697.99707630 0 818.79035648 0 1686.58095763 0 5029
0.06950000 0.06949320 30036.92966383 0 -4.42851289 0 10258.72368639 0 870.32874008 0 3109.41128651 0 5040
0.07050000 0.07048030 29508.50667297 0 835.35570346 0 10093.12641982 0 809.66632028 0 2233.27000593 0 5475
0.07150000 0.07148790 28737.51043933 0 565.49690510 0 8881.47419622 0 222.39065439 0 1994.58602831 0 5509
0.07250000 0.07249820 28006.53092229 0 605.04263844 0 10015.71205823 0 1020.21944539 0 1862.45217897 0 5916
0.07350000 0.07351270 27936.83888776 0 338.25366180 0 9589.70263618 0 609.89859956 0 638.16433989 0 5721
0.07450000 0.07449140 27353.11189530 0 -149.53550074 0 8046.15895910 0 238.59854868 0 681.27448357 0 6028
0.07550000 0.07549160 27114.47288028 0 -98.31668884 0 9061.31336727 0 289.51420023 0 1222.74674587 0 6183
0.07650000 0.07648840 27817.35077049 0 -227.40960494 0 8234.40613689 0 790.08510671 0 -179.33558989 0 6330
0.07750000 0.07749960 27414.59825480 0 -111.83368375 0 7302.49998804 0 472.59405088 0 -335.87289197 0 6583
0.07850000 0.07848650 28093.53355895 0 224.38362176 0 7021.57364497 0 310.07784667 0 -1869.57875153 0 6549
0.07950000 0.07947320 26958.11542861 0 586.46409091 0 6331.67870636 0 530.31591645 0 -1215.26047248 0 6828
0.08050000 0.08048110 26639.55538690 0 939.73975835 0 5263.59207390 0 -148.08208460 0 -1571.79143237 0 7147
0.08150000 0.08149960 25938.58840731 0 803.17484449 0 5992.15485103 0 441.90819845 0 -762.71074998 0 7386
0.08250000 0.08250610 25581.02330756 0 428.63523806 0 4980.31643483 0 1815.47749956 0 -162.59264063 0 7227
0.08350000 0.08350160 24836.33019663 0 558.63898409 0 5737.46418676 0 294.85463339 0 -293.98460702 0 7798
0.08450000 0.08449610 24524.85176488 0 584.07882483 0 4613.05065349 0 504.53885619 0 1886.22615526 0 7371
0.08550000 0.08548940 24323.98133631 0 809.15936694 0 6240.23601266 0 -786.88826564 0 355.45747774 0 8256
0.08650000 0.08650700 23823.99719180 0 931.11930330 0 6826.57083609 0 -556.98098811 0 3435.58124877 0 8037
0.08750000 0.08749060 22789.18288550 0 535.83282783 0 7246.07192137 0 -217.75276190 0 1740.67096895 0 8155
0.08850000 0.08849210 22742.64659148 0 585.63115869 0 7370.16870544 0 -331.94316048 0 2337.24602519 0 8718
0.08950000 0.08949900 21815.51771919 0 522.04279751 0 6824.32270594 0 487.43395797 0 1282.60321101 0 8571
0.09050000 0.09049190 21719.74737496 0 256.37451374 0 6314.84021156 0 1498.27757658 0 797.05318610 0 8932
0.09150000 0.09150830 21059.80877054 0 214.05683594 0 5270.78609036 0 900.74481690 0 790.23348330 0 9285
0.09250000 0.09250820 20998.43481755 0 195.86609086 0 4383.04445823 0 1134.75493194 0 -335.30411505 0 9204
0.09350000 0.09350330 20667.28524701 0 350.51383955 0 4613.05065349 0 557.86450326 0 386.79191572 0 9349
0.09450000 0.09448040 20067.03449798 0 714.69743445 0 3977.40309530 0 -257.81893736 0 217.76063035 0 9564
0.09550000 0.09549270 19626.51339583 0 608.04501625 0 5280.95887928 0 -350.73977663 0 770.29032077 0 10155
0.09650000 0.09649430 19131.36273113 0 568.22163884 0 5123.60100969 0 -247.05489022 0 -40.61359516 0 9913
0.09750000 0.09749140 18551.45755992 0 453.19718398 0 6044.31147042 0 46.30653513 0 2074.75434932 0 10476
0.09850000 0.09850240 18274.48792591 0 466.12393232 0 6800.20026947 0 93.85235199 0 2175.52678313 0 10575
0.09950000 0.09950330 17754.60782960 0 403.50001897 0 6987.31214154 0 688.46063158 0 2837.99453396 0 10882
0.10050000 0.10051200 17883.76290650 0 249.47275419 0 6696.29169412 0 1158.76496191 0 3615.12816290 0 10875
0.10150000 0.10150300 17311.16415826 0 261.90266577 0 6736.62314894 0 1173.23167940 0 2779.10476478 0 11118
0.10250000 0.10250800 17251.58870939 0 135.39251399 0 5907.08560629 0 420.15191896 0 3972.54713419 0 11575
0.10350000 0.10349800 17146.03899902 0 99.06059510 0 5625.45110223 0 342.56782355 0 2937.08087015 0 11364
0.10450000 0.10450100 17105.79746941 0 414.94974580 0 5223.86761421 0 -215.92053583 0 1893.35272783 0 12093
0.10550000 0.10551000 16705.96752291 0 201.84836518 0 4619.52526831 0 155.09512659 0 1492.46616016 0 12067
0.10650000 0.10649700 16058.95566683 0 251.77821166 0 4279.29325199 0 339.83859355 0 1144.64670459 0 12054
0.10750000 0.10749900 16106.16639990 0 106.97536210 0 4086.07770657 0 294.36229289 0 -206.53346840 0 12807
0.10850000 0.10850100 16001.85316112 0 69.78780488 0 3979.94348237 0 594.69337131 0 -188.19209860 0 12736
0.10950000 0.10950300 15931.03706151 0 205.89612350 0 3311.11352323 0 266.89801096 0 -402.03423811 0 12933
0.11050000 0.11050200 15676.66113547 0 158.39875384 0 3418.27064664 0 192.32640994 0 -203.68845970 0 13428
0.11150000 0.11150900 15488.82986175 0 288.50816199 0 3846.70804926 0 -183.66661262 0 580.68414831 0 13453
0.11250000 0.11250000 15619.44622325 0 179.02197574 0 4131.46745422 0 -169.82037905 0 631.97973385 0 13668
0.11350000 0.11349100 15529.52101740 0 251.45897718 0 4314.84743025 0 -173.78608063 0 962.70440779 0 13791
0.11450000 0.11448600 15242.43479773 0 246.71205037 0 4831.02935247 0 -82.57382027 0 932.88183734 0 14205
0.11550000 0.11549300 15109.57030609 0 206.29404254 0 4641.79299741 0 35.50145961 0 825.63703684 0 14776
0.11650000 0.11649800 15013.35033583 0 198.07712686 0 4947.78599161 0 57.36216475 0 361.38242474 0 14553
0.11750000 0.11747300 14893.41259253 0 236.57523154 0 4810.73997790 0 -136.38731158 0 -311.32106265 0 14568
0.11850000 0.11849100 14613.07076330 0 266.58776900 0 4874.76672446 0 -14.61093504 0 -658.98202504 0 16015
0.11950000 0.11950300 14470.87653156 0 441.08425875 0 4615.66972511 0 -513.40210929 0 -1409.86985859 0 15270
0.12050000 0.12050700 13993.82331453 0 495.70258065 0 5251.38472720 0 -512.28703674 0 -971.10454608 0 15999
0.12150000 0.12150000 13709.77207056 0 535.34723171 0 5516.74276901 0 -527.86433052 0 -884.89100311 0 15670
0.12250000 0.12250700 13414.03054983 0 63.88275383 0 5534.17701829 0 336.89916338 0 -606.48706206 0 16887
0.12350000 0.12352200 13458.99315275 0 -75.30831326 0 5900.72339798 0 235.36348940 0 -531.94918300 0 16407
0.12450000 0.12449800 13670.54219951 0 -377.70272554 0 5469.75684895 0 776.86497739 0 -401.49918313 0 16306
0.12550000 0.12549900 13669.19332142 0 -84.64288685 0 5613.43484660 0 868.56957824 0 -120.71447227 0 17523
0.12650000 0.12650100 13978.64843605 0 88.37781787 0 5035.00220063 0 440.78413337 0 665.25430815 0 17154
0.12750000 0.12750600 13622.65702740 0 110.93319522 0 4699.79475518 0 777.94295579 0 686.04951200 0 18007
0.12850000 0.12850300 13574.99666830 0 149.14882235 0 4542.14462868 0 553.22998296 0 1274.17272296 0 17496
0.12950000 0.12949900 13503.05650362 0 -18.23694415 0 4234.82523770 0 941.10662148 0 1007.00044013 0 18405
0.13050000 0.13049000 13468.77251889 0 -151.03612761 0 3747.88024803 0 536.04190393 0 1309.81682643 0 18100
0.13150000 0.13148800 13470.00899047 0 -13.13919664 0 3220.70496940 0 357.67750626 0 1219.79045472 0 19059
0.13250000 0.13249300 13490.01734877 0 205.60611472 0 3365.60819797 0 -346.66054448 0 397.82349035 0 18957
0.13350000 0.13349100 13150.66210320 0 343.78855822 0 3633.32677643 0 -250.61705244 0 279.57072059 0 19468
0.13450000 0.13450700 12875.94059934 0 457.87441875 0 3268.06183093 0 -235.40058354 0 148.40469128 0 19953
0.13550000 0.13551000 12468.80422986 0 394.34226081 0 3382.53661797 0 121.06967683 0 184.17806223 0 19956
0.13650000 0.13649900 12214.20349080 0 244.71009048 0 3289.75628684 0 504.77266173 0 -158.29309172 0 19723
0.13750000 0.13749600 11912.72923820 0 119.00139709 0 2830.75555489 0 426.16791523 0 -199.10115014 0 20946
0.13850000 0.13851100 11994.56117552 0 77.76574433 0 2866.11864209 0 136.69755354 0 -45.62186709 0 20955
0.13950000 0.13949800 11892.04644085 0 120.37388055 0 2879.77603272 0 -403.24035993 0 -59.61288024 0 20506
0.14050000 0.14048300 11870.91401748 0 49.06611488 0 2901.04334391 0 -447.84551016 0 -33.96025399 0 21447
0.14150000 0.14148400 11915.31458787 0 150.81131460 0 3223.31280037 0 -819.31866707 0 -315.05857901 0 21771
0.14250000 0.14249400 11749.96461561 0 236.73147659 0 3273.13136441 0 -331.80152828 0 -680.70345851 0 22470
0.14350000 0.14350900 11687.91622358 0 178.22838580 0 3862.05153750 0 -408.00414771 0 -906.15381803 0 22519
0.14450000 0.14449900 11444.78094827 0 198.54586199 0 3229.96726560 0 -6.76860280 0 -1229.16515743 0 22218
0.14550000 0.14550500 11284.93889487 0 268.90896337 0 3679.71694200 0 219.77832716 0 -803.13887440 0 23559
0.14650000 0.14650700 10970.79642889 0 284.63688188 0 3146.95505995 0 693.33457774 0 -1499.22179125 0 23044
0.14750000 0.14750500 10732.84309357 0 235.13080793 0 3322.32045200 0 529.08169300 0 -598.02397613 0 23649
0.14850000 0.14849900 10539.45893839 0 133.36245247 0 3090.90917541 0 360.41010845 0 -618.05369166 0 23640
0.14950000 0.14949500 10564.73916189 0 32.20154178 0 3069.70930813 0 553.14230589 0 26.62775270 0 24457
0.15050000 0.15050000 10531.96142435 0 71.03529229 0 3304.57146450 0 338.28513562 0 352.94182011 0 24591
0.15150000 0.15149900 10470.25025184 0 62.56557438 0 2762.19882608 0 215.23935239 0 775.08445831 0 25020
0.15250000 0.15250500 10476.74734796 0 160.48052236 0 3328.76134487 0 171.39407015 0 806.93146996 0 25297
0.15350000 0.15350100 10260.93809458 0 228.00311130 0 2964.03595060 0 -23.46890504 0 660.04089434 0 25452
0.15450000 0.15450400 10021.32114295 0 343.93581074 0 3055.53484755 0 -42.40794023 0 501.36899268 0 26061
0.15550000 0.15549900 9707.08875176 0 300.87287779 0 2801.12519956 0 -39.54281077 0 380.28807521 0 26128
0.15650000 0.15649500 9445.40640274 0 244.11321192 0 2814.51281458 0 46.94882591 0 367.32310865 0 26331
0.15750000 0.15749700 9363.28220850 0 186.36998912 0 2811.36543238 0 175.62392702 0 124.14399480 0 27345
0.15850000 0.15849900 9064.12352995 0 49.54878842 0 2365.46005853 0 329.82542188 0 -67.30598160 0 26980
0.15950000 0.15949700 9203.01301038 0 -88.94041244 0 2077.59823396 0 443.39758467 0 -14.90218030 0 27777
0.16050000 0.16050000 9186.73654812 0 -103.69230524 0 1970.84577397 0 393.92410861 0 -21.82574671 0 28224
0.16150000 0.16150500 9321.33209998 0 -63.50349427 0 1665.72955052 0 322.82024834 0 -50.29426838 0 28075
0.16250000 0.16249700 9279.75293292 0 90.74004062 0 1606.69365288 0 94.49273187 0 414.40907050 0 28590
0.16350000 0.16349900 9173.09039814 0 252.59315884 0 1520.03947640 0 -47.98498909 0 470.57185781 0 29163
0.16450000 0.16449100 8978.11007056 0 239.93731018 0 1598.92636323 0 -150.30660938 0 294.49942883 0 28996
0.16550000 0.16550500 8869.61530970 0 187.45583598 0 1885.14705279 0 -315.55429171 0 281.19836682 0 30777
0.16650000 0.16650700 8801.71053863 0 139.79435282 0 1999.53191463 0 -292.66383056 0 -38.43504464 0 29211
0.16750000 0.16749900 8725.61133319 0 131.47402314 0 2203.17878392 0 -289.55241844 0 122.65123639 0 30922
0.16850000 0.16850800 8570.63648156 0 157.38709528 0 2456.28451643 0 121.24278285 0 -201.26609947 0 30867
0.16950000 0.16949900 8486.42152628 0 199.03820249 0 2401.11540265 0 242.96104523 0 327.91788345 0 30852
0.17050000 0.17049200 8276.91827796 0 92.26652099 0 2041.59442967 0 401.68577794 0 -71.18378129 0 31257
0.17150000 0.17149500 8182.33944271 0 137.79913731 0 2124.01088083 0 448.82457084 0 459.44473765 0 32608
0.17250000 0.17250900 8138.99549349 0 64.06946104 0 1787.85922072 0 279.09636513 0 437.11518498 0 32361
0.17350000 0.17350400 8149.66287103 0 30.02501457 0 1878.16660869 0 -33.70520362 0 537.46272218 0 32508
0.17450000 0.17449800 8060.97413676 0 78.15534528 0 1583.14448960 0 -111.23388263 0 416.26152974 0 32791
0.17550000 0.17549800 8000.12849436 0 107.45724879 0 1659.94061540 0 -55.31321893 0 186.59705026 0 33633
0.17650000 0.17650100 7927.09798656 0 106.71896285 0 1626.99426811 0 -204.34378964 0 69.14540169 0 33984
0.17750000 0.17750300 7853.65157468 0 125.25569516 0 1436.35283171 0 -68.53177456 0 -264.98822440 0 34069
0.17850000 0.17849800 7784.84755156 0 35.56946555 0 1558.02163522 0 130.28026604 0 -90.76353358 0 34536
