### header ###
fiducial parameters:
Omega_m = 0.31
Omega_nu = 0
Omega_de = 0.69
Omega_k = 0
H_0 = 100
w_de = -1
zeff = 0
beta = 0
fgrowth = 0
b_1 = 2
gamma = 0.55
Lx = 3500 Ly = 3500 Lz = 3500
nx = 700 ny = 700 nz = 700
xoffset = 857.220397 yoffset = 15.9954215 zoffset = 262.898189
bins = 400 dk = 0.001
kx_ny = 0.628318531 ky_ny = 0.628318531 kz_ny = 0.628318531
############################
A(data) = 3.08185509 (not used)
A(ran) = 3.08000806 (used)
Ngal = 188026
weighted Ngal = 0
Nran = 9360983
weighted Nran = 0
SN(data) = 3445.88037
SN(ran) = 69.1654058
SN(data+ran) = 3515.04577
############################
13 columns: k_central k_mean P_0(k) sigma^{lin}_{P_0(k)} P^img_1(k) sigma^{lin}_{P_1(k)} P_2(k) sigma^{lin}_{P_2(k)} P^img_3(k) sigma^{lin}_{P_3(k)} P_4(k) sigma^{lin}_{P_4(k)} N_modes
### header ###
0.00050000 0 0 0 0 0 0 0 0 0 0 0 0
0.00150000 0.00179520 35303.62415733 0 -47293.91388557 0 -55286.69099435 0 102707.28701366 0 -20163.70409427 0 3
0.00250000 0.00253879 64164.44453518 0 -50464.90145678 0 -13138.97182644 0 -69958.66276748 0 2842.01868692 0 6
0.00350000 0.00331552 82341.25120624 0 -32975.79779745 0 -55752.50356064 0 -2538.52111718 0 27233.06174549 0 7
0.00450000 0.00420575 97903.48251726 0 -15431.83976255 0 -37989.91486902 0 -46136.68889282 0 18895.42147229 0 24
0.00550000 0.00557378 95005.19313279 0 -6641.50476245 0 -49513.15555939 0 -18488.06028980 0 47276.37847043 0 45
0.00650000 0.00659388 94252.74397285 0 -3288.72214697 0 -34968.65276555 0 30256.57197912 0 23796.23278449 0 40
0.00750000 0.00754703 89823.47795881 0 -5452.51369073 0 -71644.98519015 0 28043.51266320 0 33839.07977359 0 57
0.00850000 0.00846663 92092.29090236 0 -4331.58475919 0 -42494.38083645 0 9079.62438731 0 32159.95136739 0 75
0.00950000 0.00948925 79068.42333940 0 7351.36309677 0 -34827.58259887 0 -19678.33279570 0 43466.58471818 0 112
0.01050000 0.01054430 80025.22752962 0 4515.34691734 0 -65489.04281732 0 -10375.94119221 0 34215.41676006 0 105
0.01150000 0.01145670 68320.45032995 0 4298.40235823 0 -20301.40206572 0 -32023.15264800 0 24732.24177086 0 144
0.01250000 0.01249090 68699.03544657 0 3775.49852687 0 -27803.97439612 0 -34016.23242911 0 11132.33582055 0 169
0.01350000 0.01339930 66599.16948351 0 -2457.17252784 0 12196.33085614 0 -27367.27511522 0 -15851.67806735 0 180
0.01450000 0.01448870 73689.32233859 0 -2946.39936961 0 -8534.56523336 0 -26795.80043206 0 -13667.61963032 0 267
0.01550000 0.01550050 78208.62596499 0 816.53773008 0 15356.63980916 0 -14152.42889635 0 -20675.60332856 0 238
0.01650000 0.01653350 76399.78044936 0 6879.34569127 0 8046.81091684 0 -9263.49895196 0 -14172.54966116 0 315
0.01750000 0.01747870 69898.63769258 0 6819.75900175 0 20735.51599695 0 239.03018966 0 -18475.92038701 0 297
0.01850000 0.01844180 69700.24020718 0 6543.87971086 0 28967.04452726 0 -2495.18840861 0 -1670.73164010 0 388
0.01950000 0.01947590 64809.09585460 0 4446.58785682 0 36787.61486684 0 10021.56843726 0 6189.94534129 0 399
0.02050000 0.02045430 65389.90027787 0 1325.94716023 0 37122.81107163 0 11414.43119129 0 11126.59184802 0 462
0.02150000 0.02154770 63529.46017539 0 214.40979237 0 36452.19384902 0 2211.48562482 0 14243.25335425 0 571
0.02250000 0.02255340 66598.04541844 0 3642.66775719 0 39440.29603284 0 6521.31972484 0 21852.38705358 0 510
0.02350000 0.02348930 60413.21457323 0 806.55490816 0 36831.11618517 0 6745.33465326 0 11829.43601628 0 555
0.02450000 0.02439640 61451.40107475 0 533.71396516 0 28699.17982034 0 12078.41642997 0 6902.01808380 0 592
0.02550000 0.02547300 59381.32283613 0 -1490.29671457 0 21338.57690867 0 10144.77720993 0 3162.75941488 0 837
0.02650000 0.02652900 59836.45678423 0 416.97868326 0 15164.08746214 0 5015.64580007 0 -7792.33382494 0 723
0.02750000 0.02749970 59579.83272804 0 368.47415129 0 19851.77603648 0 4428.33304003 0 -3810.18717503 0 826
0.02850000 0.02848090 59214.28676627 0 1174.98522091 0 13248.34335805 0 -1664.66168870 0 -9097.19352440 0 831
0.02950000 0.02946900 59027.01752509 0 823.03932246 0 14562.26302200 0 -2299.25262572 0 8956.67414961 0 996
0.03050000 0.03053250 58247.02877086 0 1814.66817271 0 18877.54883763 0 -1813.46542308 0 5411.18181799 0 1041
0.03150000 0.03150510 61624.28228299 0 1675.20541909 0 22884.05397767 0 1221.10561086 0 12175.87287181 0 1036
0.03250000 0.03246190 56071.62563490 0 1760.85917766 0 21835.30126447 0 4992.13035874 0 11078.65047266 0 1059
0.03350000 0.03345080 55814.43954617 0 3080.64646129 0 26326.61567055 0 6017.07537370 0 16831.75040459 0 1302
0.03450000 0.03451200 51003.66584632 0 2983.95438370 0 21824.73505279 0 7061.11825424 0 13604.67198623 0 1339
0.03550000 0.03553350 49192.57220054 0 2737.67172618 0 22304.48602598 0 6721.81921193 0 15034.48275921 0 1365
0.03650000 0.03647120 45049.71796713 0 3290.04854376 0 16451.70400337 0 4164.97583405 0 15706.11164038 0 1308
0.03750000 0.03744890 44279.28376603 0 1460.61015598 0 18914.08095250 0 -13.08591595 0 14175.47223035 0 1579
0.03850000 0.03847530 43173.54095362 0 -202.64757544 0 12792.98459694 0 -366.21702862 0 8962.04718066 0 1662
0.03950000 0.03950240 44195.87813760 0 -816.07011900 0 17547.89226266 0 -2614.42923157 0 7808.59904655 0 1683
0.04050000 0.04050350 46437.37629987 0 -747.09636205 0 14153.21574190 0 -5071.80409112 0 215.11570523 0 1822
0.04150000 0.04152450 46745.48253641 0 -162.94222487 0 17457.40502427 0 -4864.95363637 0 94.19755238 0 1887
0.04250000 0.04250150 48001.06322306 0 905.71992891 0 16910.77217922 0 -1587.28104907 0 -5634.72463908 0 1920
0.04350000 0.04349210 46764.81645566 0 1271.51992939 0 19819.85258841 0 1179.38031535 0 -5080.02100681 0 2005
0.04450000 0.04448520 45884.22387740 0 1556.86384819 0 16782.96598041 0 -1216.40701885 0 -9935.17279574 0 2151
0.04550000 0.04548030 45082.76548028 0 1676.05970855 0 19900.67286716 0 117.75930519 0 -10539.36901319 0 2274
0.04650000 0.04648670 43462.53808391 0 1360.68077099 0 19705.87238999 0 914.51236591 0 -9574.44907314 0 2311
0.04750000 0.04749250 42474.37247815 0 1420.54847678 0 19598.52417551 0 -1123.39850251 0 -11743.44503819 0 2568
0.04850000 0.04851840 40095.85078347 0 1044.25308071 0 22553.35403317 0 -772.66434621 0 -7723.92322459 0 2493
0.04950000 0.04949480 40819.18665801 0 1861.94634968 0 21964.11912185 0 1735.57895417 0 -7390.59296782 0 2644
0.05050000 0.05050630 38635.91506653 0 527.04601115 0 22300.32698521 0 4764.78819771 0 -4669.77097708 0 2829
0.05150000 0.05149060 39514.25951465 0 -444.15183233 0 20516.88534023 0 5990.40130951 0 1140.80240204 0 2784
0.05250000 0.05249300 38015.76836570 0 -520.15998851 0 18213.67600545 0 6337.64749189 0 -1276.22976204 0 3055
0.05350000 0.05348950 39535.50434453 0 -480.42653631 0 16724.85181613 0 3156.23983745 0 625.05774113 0 3009
0.05450000 0.05448610 38959.08377505 0 505.55838321 0 16301.52890961 0 2231.07807904 0 4516.32485395 0 3336
0.05550000 0.05550870 38912.54748102 0 810.09908534 0 15757.70622724 0 -1408.30740813 0 3310.24799312 0 3349
0.05650000 0.05647670 37719.46481244 0 691.71367590 0 16019.61338927 0 607.69093575 0 2612.06869492 0 3324
0.05750000 0.05747970 37897.51672001 0 628.71657295 0 18734.23054081 0 -298.93948587 0 5268.84145779 0 3639
0.05850000 0.05849280 37927.41685096 0 1176.05308273 0 17344.66129744 0 512.57704553 0 3652.68317699 0 3846
0.05950000 0.05951020 36605.51632499 0 1010.17255176 0 19371.12581122 0 807.21248623 0 7855.55124465 0 3787
0.06050000 0.06049470 36319.10454437 0 1164.49769378 0 18258.30138886 0 2885.43008004 0 5267.80731792 0 3930
0.06150000 0.06148310 35085.55553315 0 790.26608119 0 17381.19341232 0 4647.00865935 0 9165.15449872 0 4083
0.06250000 0.06249100 34213.39344293 0 408.17950186 0 14049.80175517 0 3931.33890861 0 8004.83832701 0 4303
0.06350000 0.06350600 33686.09451714 0 599.83484496 0 12987.33544808 0 2846.96457324 0 5076.66005224 0 4470
0.06450000 0.06451750 32994.56968417 0 564.21547092 0 11533.02005650 0 144.29286124 0 5468.39673022 0 4479
0.06550000 0.06550280 31947.61547509 0 1006.39344499 0 10940.87381665 0 -978.08274206 0 2971.20748577 0 4636
0.06650000 0.06648880 30944.49980385 0 1542.36340875 0 12320.09042069 0 -1862.81187979 0 4440.21440785 0 4653
0.06750000 0.06749660 28943.88878675 0 1711.64760876 0 12527.70523969 0 -648.41131709 0 2001.95989519 0 5220
0.06850000 0.06852730 27931.66818843 0 1245.40789774 0 14985.47352202 0 628.07697992 0 4207.93760115 0 5029
0.06950000 0.06949320 27168.87762982 0 509.03399242 0 12722.05609083 0 2711.40232543 0 894.64676387 0 5040
0.07050000 0.07048030 27331.30503288 0 -504.80301148 0 13548.13151305 0 2257.52733021 0 4317.36533601 0 5475
0.07150000 0.07148790 27748.89520754 0 -712.46728935 0 10865.66262261 0 1207.71799584 0 921.90421783 0 5509
0.07250000 0.07249820 28732.11492698 0 -500.52257168 0 10888.98697287 0 765.72998877 0 2390.98757634 0 5916
0.07350000 0.07351270 28825.63714106 0 -344.53606149 0 8839.74890071 0 -214.75263222 0 -47.05718578 0 5721
0.07450000 0.07449140 28429.29179629 0 -162.24755265 0 6631.28701094 0 1061.59852886 0 -144.68291182 0 6028
0.07550000 0.07549160 28888.24756563 0 -126.84399911 0 5727.68482063 0 1179.69505357 0 -1784.10484337 0 6183
0.07650000 0.07648840 28778.65122101 0 223.23595132 0 4551.01350211 0 1444.01895551 0 -2550.11022809 0 6330
0.07750000 0.07749960 27606.81338230 0 976.10101533 0 4893.34752012 0 791.54976350 0 -2676.32025449 0 6583
0.07850000 0.07848650 26752.18670722 0 1711.44527705 0 3925.76354585 0 228.81019002 0 -1871.26484914 0 6549
0.07950000 0.07947320 25033.26639744 0 1477.49361338 0 4928.64316341 0 -12.92494984 0 399.61525007 0 6828
0.08050000 0.08048110 24003.17316445 0 1042.51640018 0 4393.02615608 0 575.27851937 0 -782.15707575 0 7147
0.08150000 0.08149960 23510.83266243 0 325.84510746 0 5866.29328479 0 784.42768720 0 1332.57914416 0 7386
0.08250000 0.08250610 23217.33927185 0 101.00781303 0 4294.26579876 0 204.22239061 0 -1625.08335748 0 7227
0.08350000 0.08350160 23394.94155340 0 138.60734010 0 4740.08124740 0 -1250.25261821 0 -784.36249142 0 7798
0.08450000 0.08449610 23053.67539720 0 521.35599375 0 5977.83426199 0 -1605.80564148 0 -933.46747524 0 7371
0.08550000 0.08548940 22712.29683450 0 546.82843237 0 6490.13815971 0 -2029.72430250 0 -1248.76885231 0 8256
0.08650000 0.08650700 22827.85072402 0 296.54522726 0 8589.08238941 0 -699.96543760 0 8.62680601 0 8037
0.08750000 0.08749060 22506.93014565 0 369.36665896 0 8490.68173291 0 20.07636424 0 -1509.92289074 0 8155
0.08850000 0.08849210 22475.34391709 0 414.99583247 0 9639.65608803 0 496.17356392 0 -884.80782229 0 8718
0.08950000 0.08949900 21957.26232490 0 558.32649400 0 8853.57490111 0 499.53114629 0 -1323.51917967 0 8571
0.09050000 0.09049190 21685.68820324 0 718.63166221 0 10117.03528392 0 -112.48744000 0 -520.78946495 0 8932
0.09150000 0.09150830 20746.86905419 0 739.38752378 0 8593.17398627 0 521.60778433 0 -382.67896162 0 9285
0.09250000 0.09250820 20123.57497116 0 489.97771723 0 8392.46092682 0 415.05091166 0 -265.77956621 0 9204
0.09350000 0.09350330 19896.17660687 0 359.61539445 0 7551.40171718 0 942.19921273 0 343.52440292 0 9349
0.09450000 0.09448040 19341.00086727 0 477.81196095 0 7700.57639303 0 1314.43673388 0 -519.21464979 0 9564
0.09550000 0.09549270 19024.68895570 0 394.07922959 0 7053.22731743 0 887.71353050 0 834.33617644 0 10155
0.09650000 0.09649430 18639.13463562 0 204.83388201 0 7018.19020910 0 -43.30168437 0 -337.23188665 0 9913
0.09750000 0.09749140 19072.01209527 0 87.01342768 0 8065.20062144 0 -1.28732428 0 2616.94713733 0 10476
0.09850000 0.09850240 18722.09063802 0 -7.84465905 0 7070.23442198 0 426.84572647 0 1232.64975916 0 10575
0.09950000 0.09950330 19107.19533206 0 -60.46525879 0 8397.47425705 0 -70.84982156 0 2588.02494300 0 10882
0.10050000 0.10051200 19179.92234229 0 107.21973384 0 8225.36865370 0 -46.55416666 0 1498.41246439 0 10875
0.10150000 0.10150300 18960.39243351 0 271.79893468 0 8570.14189293 0 164.38215222 0 1781.83423192 0 11118
0.10250000 0.10250800 18721.30379247 0 263.20995345 0 7741.17762347 0 561.37833068 0 1942.42940892 0 11575
0.10350000 0.10349800 18321.81106549 0 202.02596746 0 8087.15361232 0 91.22496229 0 17.41761312 0 11364
0.10450000 0.10450100 18018.31349575 0 290.27744041 0 6838.48592586 0 570.43267484 0 242.57324277 0 12093
0.10550000 0.10551000 17552.83814898 0 621.83279844 0 7306.23188408 0 86.69003416 0 -826.05294092 0 12067
0.10650000 0.10649700 17130.52690102 0 768.91896138 0 6891.86777619 0 -69.94607324 0 623.58746402 0 12054
0.10750000 0.10749900 16572.87821825 0 572.56390222 0 6947.10433388 0 -63.87151318 0 -279.23912139 0 12807
0.10850000 0.10850100 16268.70620947 0 407.92771129 0 7143.89440622 0 669.42908583 0 396.54767649 0 12736
0.10950000 0.10950300 15802.10679763 0 395.18643368 0 6679.07101720 0 810.49700437 0 23.17282629 0 12933
0.11050000 0.11050200 15482.87231687 0 257.43225898 0 6609.34526071 0 388.74104456 0 544.88942012 0 13428
0.11150000 0.11150900 15418.23857516 0 366.90720458 0 6882.66168324 0 241.77515657 0 1032.32225403 0 13453
0.11250000 0.11250000 15132.61364009 0 166.09635146 0 6527.76061771 0 -15.99038770 0 666.11871419 0 13668
0.11350000 0.11349100 14840.35672108 0 -49.95288982 0 6001.16985291 0 467.42784780 0 1010.36701502 0 13791
0.11450000 0.11448600 15241.19832615 0 -158.85962052 0 6633.15295896 0 322.64152200 0 939.09117280 0 14205
0.11550000 0.11549300 15269.18754647 0 -244.70334609 0 5374.00898603 0 846.46034232 0 607.40991949 0 14776
0.11650000 0.11649800 15360.23681739 0 39.27393440 0 5438.12565780 0 684.42861016 0 352.58436741 0 14553
0.11750000 0.11747300 15104.28720025 0 244.58531926 0 4861.52523790 0 361.34645466 0 373.25030378 0 14568
0.11850000 0.11849100 14930.61914645 0 323.25750966 0 5317.20997788 0 68.76276994 0 756.97352185 0 16015
0.11950000 0.11950300 14441.76324616 0 493.45220237 0 5105.24502705 0 110.72962703 0 604.64584347 0 15270
0.12050000 0.12050700 14177.38314097 0 342.03164451 0 5192.58488323 0 85.08464442 0 1435.68963331 0 15999
0.12150000 0.12150000 13756.64558411 0 191.49909805 0 5208.52412597 0 560.07666332 0 679.83792841 0 15670
0.12250000 0.12250700 13905.24698677 0 18.77211153 0 4763.60792938 0 540.81131203 0 1074.18805768 0 16887
0.12350000 0.12352200 13724.94694905 0 85.02495657 0 4844.46193009 0 242.33943724 0 49.61094922 0 16407
0.12450000 0.12449800 13692.46146843 0 169.02454098 0 4240.86146714 0 34.70618357 0 552.94896669 0 16306
0.12550000 0.12549900 13538.46455342 0 161.43260547 0 4710.77687095 0 -230.93692114 0 -426.53998077 0 17523
0.12650000 0.12650100 13630.86270243 0 -40.86178872 0 4124.65561988 0 -621.10215614 0 -330.18062644 0 17154
0.12750000 0.12750600 13794.63898358 0 -113.54630929 0 4817.64173745 0 -23.89751105 0 -611.04627000 0 18007
0.12850000 0.12850300 13863.20695304 0 -88.70222305 0 4795.45269290 0 -102.07679891 0 -626.47855939 0 17496
0.12950000 0.12949900 13766.64976326 0 153.44275093 0 4740.03628480 0 121.95881230 0 -283.55665534 0 18405
0.13050000 0.13049000 13670.20497999 0 374.41708333 0 4635.39706714 0 403.27520595 0 -48.69551063 0 18100
0.13150000 0.13148800 13426.17045262 0 402.93349017 0 4924.33799418 0 600.58234823 0 1098.70841318 0 19059
0.13250000 0.13249300 13186.18255951 0 198.46380524 0 5181.47912031 0 632.38889354 0 1406.71123573 0 18957
0.13350000 0.13349100 12974.85832577 0 73.83061732 0 4606.19385655 0 490.21152277 0 1591.75482806 0 19468
0.13450000 0.13450700 12945.74504038 0 35.53990264 0 4665.12858833 0 458.91867520 0 1550.71521224 0 19953
0.13550000 0.13551000 12732.95952204 0 192.77491191 0 4517.41519707 0 -79.49556807 0 1278.46665154 0 19956
0.13650000 0.13649900 12770.16607596 0 274.25052060 0 4175.41839858 0 169.62029547 0 1291.59573159 0 19723
0.13750000 0.13749600 12315.81897341 0 153.15723840 0 4030.77370498 0 109.39873399 0 456.21192650 0 20946
0.13850000 0.13851100 12304.91554220 0 204.43708704 0 3374.17357383 0 229.86793525 0 513.55723027 0 20955
0.13950000 0.13949800 11961.40125586 0 77.02993133 0 3229.83237779 0 289.00949501 0 -284.24121097 0 20506
0.14050000 0.14048300 12082.68787725 0 98.82375459 0 2978.45770549 0 322.70784184 0 -515.79411977 0 21447
0.14150000 0.14148400 11692.52489038 0 157.71307415 0 2529.22509903 0 -152.70199205 0 -1213.61933747 0 21771
0.14250000 0.14249400 11660.48903579 0 149.88171278 0 2316.49578394 0 27.20990600 0 -1265.62982841 0 22470
0.14350000 0.14350900 11430.73013485 0 174.63362569 0 1914.26033819 0 -133.01961262 0 -1757.64435155 0 22519
0.14450000 0.14449900 11296.74157814 0 143.81400952 0 2237.93487599 0 8.32702910 0 -1882.21324295 0 22218
0.14550000 0.14550500 11171.18350947 0 141.07915919 0 2183.53012645 0 -27.56533538 0 -1854.46007630 0 23559
0.14650000 0.14650700 11139.01276708 0 135.80167368 0 2240.72255737 0 62.52049937 0 -2205.50559863 0 23044
0.14750000 0.14750500 11064.29616167 0 139.91125558 0 2195.96228616 0 127.76685653 0 -1501.33503358 0 23649
0.14850000 0.14849900 11013.57834557 0 105.99247960 0 2298.64563058 0 156.06631881 0 -972.99297540 0 23640
0.14950000 0.14949500 10941.57073699 0 39.58507561 0 2417.27945840 0 445.37706326 0 -735.40945749 0 24457
0.15050000 0.15050000 11021.72781735 0 144.76609263 0 2525.26838997 0 224.38474583 0 -359.35123915 0 24591
0.15150000 0.15149900 10844.15925776 0 223.44727556 0 2358.54705833 0 95.39310799 0 -55.85220813 0 25020
0.15250000 0.15250500 10617.31168535 0 338.28850781 0 2568.30884162 0 -76.43215352 0 155.36265408 0 25297
0.15350000 0.15350100 10409.86547611 0 310.35549075 0 2629.50294420 0 -64.27797511 0 539.67825444 0 25452
0.15450000 0.15450400 10240.35646309 0 242.63619042 0 2985.67420326 0 -117.79415121 0 845.79826799 0 26061
0.15550000 0.15549900 10109.07690320 0 150.06381132 0 3052.83709138 0 -75.19186012 0 768.62670446 0 26128
0.15650000 0.15649500 10033.89943111 0 90.33942383 0 3332.04361489 0 8.56507236 0 775.83420971 0 26331
0.15750000 0.15749700 10068.79041098 0 93.88157769 0 3496.14587491 0 -21.62633757 0 1267.37212927 0 27345
0.15850000 0.15849900 9996.51302678 0 24.71391951 0 3575.42618451 0 70.39592408 0 1215.71009851 0 26980
0.15950000 0.15949700 10033.48352704 0 13.67301514 0 3362.38213121 0 178.66115085 0 1426.44981841 0 27777
0.16050000 0.16050000 9962.73487134 0 -51.31907851 0 3289.38534536 0 325.22911979 0 453.08590153 0 28224
0.16150000 0.16150500 10005.87648884 0 45.73371156 0 2942.99345244 0 105.89760850 0 480.71204884 0 28075
0.16250000 0.16249700 9854.17266658 0 163.38285837 0 2970.54428738 0 -90.48487785 0 -296.74081458 0 28590
0.16350000 0.16349900 9721.13956518 0 333.78325500 0 2831.45247523 0 -416.90561903 0 -154.25657405 0 29163
0.16450000 0.16449100 9406.71608293 0 359.65923298 0 3077.01573110 0 -317.47194673 0 -515.25344447 0 28996
0.16550000 0.16550500 9195.33564593 0 362.23559013 0 3207.64333325 0 -79.43745390 0 -327.79648442 0 30777
0.16650000 0.16650700 8852.70937100 0 225.13786943 0 3020.12679775 0 153.76872980 0 -531.71537746 0 29211
0.16750000 0.16749900 8757.08515523 0 27.95358746 0 2946.56797937 0 583.57861587 0 -62.03490325 0 30922
0.16850000 0.16850800 8633.48295979 0 24.28677478 0 2496.51480540 0 712.27844642 0 -201.14470044 0 30867
0.16950000 0.16949900 8670.47594135 0 31.49709019 0 2338.84219760 0 696.76297621 0 296.52611815 0 30852
0.17050000 0.17049200 8575.00909469 0 69.72204707 0 1890.09293911 0 326.04631510 0 -11.31112961 0 31257
0.17150000 0.17149500 8422.75448054 0 123.84611756 0 2155.73199719 0 -71.73580965 0 178.11373116 0 32608
0.17250000 0.17250900 8434.50096055 0 136.63572996 0 2200.59343426 0 -387.67093461 0 201.95964762 0 32361
0.17350000 0.17350400 8338.79806023 0 130.91536280 0 2489.95026537 0 -368.74055471 0 34.65301529 0 32508
0.17450000 0.17449800 8249.15387065 0 144.18832319 0 2720.09134844 0 -448.65820921 0 -68.79109638 0 32791
0.17550000 0.17549800 8279.98697561 0 78.69051266 0 2972.09549718 0 -65.14159430 0 145.03586825 0 33633
0.17650000 0.17650100 8151.36020929 0 136.62673744 0 2867.74853644 0 74.06127547 0 -27.29555976 0 33984
0.17750000 0.17750300 8135.55585436 0 111.50646841 0 2931.50550739 0 409.48791361 0 218.16416971 0 34069
