### header ###
fiducial parameters:
Omega_m = 0.31
Omega_nu = 0
Omega_de = 0.69
Omega_k = 0
H_0 = 100
w_de = -1
zeff = 0
beta = 0
fgrowth = 0
b_1 = 2
gamma = 0.55
Lx = 3500 Ly = 3500 Lz = 3500
nx = 700 ny = 700 nz = 700
xoffset = 857.220397 yoffset = 15.9954215 zoffset = 262.898189
bins = 400 dk = 0.001
kx_ny = 0.628318531 ky_ny = 0.628318531 kz_ny = 0.628318531
############################
A(data) = 3.11366551 (not used)
A(ran) = 3.10654448 (used)
Ngal = 189677
weighted Ngal = 0
Nran = 9360983
weighted Nran = 0
SN(data) = 3471.61488
SN(ran) = 69.7613141
SN(data+ran) = 3541.37619
############################
13 columns: k_central k_mean P_0(k) sigma^{lin}_{P_0(k)} P^img_1(k) sigma^{lin}_{P_1(k)} P_2(k) sigma^{lin}_{P_2(k)} P^img_3(k) sigma^{lin}_{P_3(k)} P_4(k) sigma^{lin}_{P_4(k)} N_modes
### header ###
0.00050000 0 0 0 0 0 0 0 0 0 0 0 0
0.00150000 0.00179520 31097.59746681 0 -42430.75875332 0 -41126.61845551 0 79788.72423824 0 -53021.36265253 0 3
0.00250000 0.00253879 49213.03018487 0 -42564.29768400 0 -7861.78980581 0 -37108.53544521 0 5979.71145067 0 6
0.00350000 0.00331552 77176.05978884 0 -43312.92502268 0 -42545.18857776 0 22117.44159782 0 -27284.65633235 0 7
0.00450000 0.00420575 97315.70889054 0 -35629.71543504 0 -45339.83916250 0 -1026.57828150 0 16475.30936991 0 24
0.00550000 0.00557378 115792.19131009 0 -9473.01344094 0 -77336.46387477 0 -9396.12738994 0 13050.84512471 0 45
0.00650000 0.00659388 108037.94080982 0 -4509.72659197 0 -71640.93855588 0 17543.05878284 0 50819.54398735 0 40
0.00750000 0.00754703 102594.09366080 0 -1144.62422329 0 -103294.27379483 0 10531.29822596 0 7665.73037576 0 57
0.00850000 0.00846663 100595.50596083 0 -9641.19605718 0 -117368.13054257 0 -5182.55822278 0 39291.58222367 0 75
0.00950000 0.00948925 104160.36593366 0 -13528.23556126 0 -115565.13016532 0 -23802.30273589 0 15896.97788980 0 112
0.01050000 0.01054430 110017.53181005 0 -4390.35088121 0 -108426.75491860 0 -42907.81197034 0 2853.23685635 0 105
0.01150000 0.01145670 108051.42959070 0 4214.45717857 0 -87715.06910120 0 -58811.87147010 0 33086.85542667 0 144
0.01250000 0.01249090 102109.39680128 0 7212.97944562 0 -59439.43700041 0 -43594.84054302 0 23586.81946138 0 169
0.01350000 0.01339930 98604.11227733 0 6851.65996852 0 -38002.27958483 0 -31664.35107667 0 53425.91367234 0 180
0.01450000 0.01448870 90268.72013427 0 8101.68777371 0 -13135.59963122 0 -1338.09830367 0 37474.98065904 0 267
0.01550000 0.01550050 81419.51784630 0 11382.28293020 0 -11466.13818465 0 6186.59562737 0 26689.12665662 0 238
0.01650000 0.01653350 74212.01259758 0 6596.94682296 0 12969.80003294 0 13802.84465861 0 47900.34699251 0 315
0.01750000 0.01747870 67180.76075233 0 3861.18600740 0 7946.17337085 0 4199.65324156 0 35736.61402349 0 297
0.01850000 0.01844180 69585.02353719 0 2377.70112717 0 30286.13489054 0 9825.56521047 0 56456.05588990 0 388
0.01950000 0.01947590 66693.70335616 0 -1144.89399890 0 25808.08445233 0 -6121.33240923 0 39837.42822317 0 399
0.02050000 0.02045430 75318.31744253 0 -1332.87140108 0 28556.87318208 0 -2117.59246926 0 47597.07423579 0 462
0.02150000 0.02154770 80040.96444065 0 -2855.17024827 0 41006.68071221 0 2806.84669078 0 43029.99784379 0 571
0.02250000 0.02255340 81746.50837606 0 -3459.13041205 0 15130.70272947 0 12233.53741006 0 24597.69118161 0 510
0.02350000 0.02348930 81776.18369399 0 41.69314725 0 24373.10298001 0 8383.34475908 0 28031.37276041 0 555
0.02450000 0.02439640 86882.02447553 0 2634.16781425 0 30503.75388869 0 11768.17446980 0 11030.85522575 0 592
0.02550000 0.02547300 79136.54168283 0 7364.69450853 0 21191.88641663 0 5474.50040356 0 15587.52277517 0 837
0.02650000 0.02652900 70936.26216156 0 8074.27182658 0 20283.86665058 0 -847.02799518 0 5987.02911429 0 723
0.02750000 0.02749970 62542.08141518 0 5711.26222991 0 6704.31751874 0 900.81113674 0 14337.00038135 0 826
0.02850000 0.02848090 59486.19810745 0 2903.53876837 0 19762.07564365 0 474.29251320 0 -1062.12908757 0 831
0.02950000 0.02946900 60332.84392051 0 -587.83657437 0 14467.50433634 0 7428.84490226 0 1402.01264372 0 996
0.03050000 0.03053250 59707.18930082 0 -3427.79147781 0 12501.51452349 0 4062.89948476 0 -8763.45860420 0 1041
0.03150000 0.03150510 63698.96918841 0 -2463.28744184 0 6658.90528979 0 -5445.89294745 0 -17539.01214858 0 1036
0.03250000 0.03246190 65183.29711744 0 1574.48918854 0 13615.12579141 0 -1767.55860550 0 -11234.69318610 0 1059
0.03350000 0.03345080 60924.66418149 0 4119.92330592 0 8700.08381538 0 -10721.24274201 0 -22868.65428617 0 1302
0.03450000 0.03451200 56273.95734805 0 5301.56299207 0 13459.44277878 0 -5249.59746374 0 -12024.23649345 0 1339
0.03550000 0.03553350 55159.44682808 0 4073.79167532 0 17533.61663623 0 -5596.97853393 0 -20223.84157568 0 1365
0.03650000 0.03647120 51441.26437928 0 3556.68801975 0 12507.69688139 0 -1309.33347845 0 -16397.07444082 0 1308
0.03750000 0.03744890 49747.07350110 0 2881.01250431 0 21366.67853550 0 -1865.81313354 0 -16673.25722928 0 1579
0.03850000 0.03847530 45951.44296877 0 2608.20191106 0 17591.39358099 0 -966.64875213 0 -12314.02046929 0 1662
0.03950000 0.03950240 45853.98652693 0 2483.17215298 0 22228.04960101 0 1972.21713336 0 -13182.58555128 0 1683
0.04050000 0.04050350 42645.79240180 0 1287.88631685 0 22093.04938573 0 1369.43723791 0 -10839.56183161 0 1822
0.04150000 0.04152450 42701.43362292 0 479.06978976 0 20542.85124342 0 4476.94885444 0 -10851.84786286 0 1887
0.04250000 0.04250150 41614.91232326 0 -367.25791288 0 17965.93206334 0 3845.73011264 0 -12244.55324778 0 1920
0.04350000 0.04349210 42911.40897857 0 -918.77482067 0 18121.72748247 0 3772.73332679 0 -8555.79882259 0 2005
0.04450000 0.04448520 42517.53657696 0 -1548.77057967 0 15058.08812574 0 3024.88159301 0 -8464.49101670 0 2151
0.04550000 0.04548030 44548.72216405 0 -231.38879530 0 15553.91322949 0 2517.73715398 0 -3332.00989293 0 2274
0.04650000 0.04648670 44491.28243881 0 393.48235103 0 16210.14241916 0 421.80991494 0 -3361.04449377 0 2311
0.04750000 0.04749250 43382.95427674 0 2183.41771994 0 15983.98052645 0 642.63474668 0 2106.41926243 0 2568
0.04850000 0.04851840 41602.66001396 0 2091.39051241 0 17290.48136092 0 230.63342357 0 3920.59284651 0 2493
0.04950000 0.04949480 40014.80569170 0 2406.48843370 0 20278.69595124 0 413.52330722 0 7758.42078169 0 2644
0.05050000 0.05050630 38353.10029414 0 1155.86487402 0 19705.75998349 0 639.15126902 0 7368.76362410 0 2829
0.05150000 0.05149060 37861.99626370 0 417.19225562 0 20983.93437811 0 1972.26209596 0 3609.42915297 0 2784
0.05250000 0.05249300 37352.23275305 0 568.31268811 0 18402.18171821 0 -189.70846239 0 3197.59419149 0 3055
0.05350000 0.05348950 36283.13446203 0 303.09178225 0 17394.68219319 0 1827.37010804 0 -1581.59327980 0 3009
0.05450000 0.05448610 36223.33420014 0 569.14562033 0 16237.11998092 0 -1081.96433985 0 -2573.45705965 0 3336
0.05550000 0.05550870 35284.62745760 0 68.15094132 0 14525.95572014 0 2138.00549099 0 -3956.20322803 0 3349
0.05650000 0.05647670 35845.08630304 0 -1328.38638144 0 11557.74948811 0 4944.17774272 0 -5870.92443289 0 3324
0.05750000 0.05747970 35698.39581100 0 -1377.39561862 0 9178.03628446 0 3362.49453772 0 -4150.18313769 0 3639
0.05850000 0.05849280 37572.54950738 0 -622.37459780 0 7707.51187453 0 4400.20893190 0 -5408.91120655 0 3846
0.05950000 0.05951020 36475.23718302 0 1214.86704970 0 6297.52960943 0 2822.71848961 0 1184.46108948 0 3787
0.06050000 0.06049470 35685.01943663 0 1590.15865566 0 6823.10871566 0 873.27491464 0 3075.31839284 0 3930
0.06150000 0.06148310 33589.98695339 0 1372.10127213 0 5966.35755760 0 1890.32899278 0 5662.62393420 0 4083
0.06250000 0.06249100 33603.13851475 0 47.63765298 0 7760.55650533 0 668.14989978 0 5399.28920952 0 4303
0.06350000 0.06350600 33244.22453691 0 -157.69059284 0 5704.33798906 0 821.96696438 0 4678.52744400 0 4470
0.06450000 0.06451750 34156.96537626 0 -180.23259382 0 7764.38956723 0 -1384.07256516 0 4952.45086166 0 4479
0.06550000 0.06550280 33508.04260956 0 422.83843448 0 4731.26857723 0 -1882.59542508 0 3357.79594571 0 4636
0.06650000 0.06648880 33497.02677185 0 816.62540715 0 8432.61253123 0 -553.37948362 0 3931.01292974 0 4653
0.06750000 0.06749660 32952.08002441 0 1168.51060609 0 5008.26069254 0 -242.12361675 0 1225.12976382 0 5220
0.06850000 0.06852730 31300.49121250 0 1363.17619545 0 6761.61111551 0 1042.88621758 0 2562.93581057 0 5029
0.06950000 0.06949320 30754.30799348 0 1080.64468746 0 4580.83494850 0 617.29157554 0 473.98676750 0 5040
0.07050000 0.07048030 29059.33026976 0 619.83758293 0 4902.42996591 0 1071.50266622 0 726.70469756 0 5475
0.07150000 0.07148790 28910.39164757 0 272.04060867 0 3885.15107476 0 -223.88678500 0 -1181.53852029 0 5509
0.07250000 0.07249820 29514.23940484 0 24.16447650 0 3920.88510343 0 -825.87871083 0 -1503.93162390 0 5916
0.07350000 0.07351270 28807.76450640 0 69.21385725 0 4379.35752479 0 -1356.00466028 0 -3269.06224884 0 5721
0.07450000 0.07449140 29041.45763510 0 485.89736102 0 4900.48533333 0 -1924.63545881 0 -3672.92758895 0 6028
0.07550000 0.07549160 28484.48339138 0 763.32336545 0 5923.01360838 0 -1745.08854468 0 -3555.35038231 0 6183
0.07650000 0.07648840 27995.62749108 0 1163.84573604 0 8250.10932596 0 -1742.69428608 0 -4414.57448353 0 6330
0.07750000 0.07749960 27797.67963171 0 852.00423126 0 7806.58697007 0 -490.26772602 0 -1358.91598882 0 6583
0.07850000 0.07848650 26832.22014043 0 618.05369166 0 9491.92021547 0 1069.21182160 0 -1442.05184163 0 6549
0.07950000 0.07947320 26355.27932991 0 670.22155171 0 9226.23619479 0 1321.36097473 0 1537.04658096 0 6828
0.08050000 0.08048110 26051.89416668 0 756.98026624 0 10009.12503690 0 2027.16143413 0 8.79740537 0 7147
0.08150000 0.08149960 24888.26200301 0 903.15368835 0 9178.82313001 0 1001.81962420 0 1641.73076121 0 7386
0.08250000 0.08250610 24452.46197417 0 455.25422306 0 8720.37318994 0 1418.59260355 0 1305.90507997 0 7227
0.08350000 0.08350160 23824.44681783 0 211.58614090 0 8884.23939630 0 -4.12796037 0 2045.42749157 0 7798
0.08450000 0.08449610 23396.74005751 0 137.91828821 0 6898.39859426 0 323.55651097 0 2239.98067442 0 7371
0.08550000 0.08548940 23403.03482192 0 227.23762298 0 8757.59098452 0 578.81820029 0 1063.24416012 0 8256
0.08650000 0.08650700 22973.97918352 0 517.64770307 0 6547.12825892 0 -536.68037289 0 377.21263317 0 8037
0.08750000 0.08749060 22747.92969732 0 252.87642323 0 6842.79109509 0 944.03705912 0 1678.65629886 0 8155
0.08850000 0.08849210 22191.29267312 0 14.36116778 0 6603.48888168 0 1028.14185602 0 1151.04263485 0 8718
0.08950000 0.08949900 22484.33643768 0 -31.41919248 0 5767.84766569 0 1766.92912906 0 873.96284246 0 8571
0.09050000 0.09049190 22675.09028058 0 -86.54626624 0 5171.91332653 0 806.18621482 0 427.96641935 0 8932
0.09150000 0.09150830 22262.33358574 0 320.26412437 0 4651.30258793 0 66.02263651 0 46.14073553 0 9285
0.09250000 0.09250820 22010.09338334 0 912.24287853 0 4331.82081285 0 -911.40207785 0 -769.50347522 0 9204
0.09350000 0.09350330 21207.73573416 0 779.47056022 0 5980.58822142 0 -1540.21644446 0 -324.72778677 0 9349
0.09450000 0.09448040 20159.88227302 0 928.83407901 0 5441.81259124 0 -1496.61396028 0 -1424.56138909 0 9564
0.09550000 0.09549270 20010.71883782 0 716.42624653 0 6717.67141181 0 -880.84886510 0 -1415.71499697 0 10155
0.09650000 0.09649430 19319.64363088 0 402.06796006 0 6814.32976744 0 -365.78763576 0 -2129.69865010 0 9913
0.09750000 0.09749140 19216.79167669 0 338.81569433 0 7103.38310099 0 345.64438965 0 -1772.74054548 0 10476
0.09850000 0.09850240 18845.51298304 0 318.45213147 0 7271.28470096 0 511.41476224 0 -2436.26491748 0 10575
0.09950000 0.09950330 18579.89640627 0 481.14256576 0 7171.34407531 0 434.63212523 0 -1134.47391568 0 10882
0.10050000 0.10051200 18656.67005076 0 94.77712033 0 7609.70697252 0 1276.99412629 0 164.29335108 0 10875
0.10150000 0.10150300 18335.97428541 0 -98.80779287 0 7596.94883394 0 985.04744925 0 637.63490524 0 11118
0.10250000 0.10250800 18635.76244040 0 -157.09483836 0 6582.55879002 0 1229.52485826 0 1879.86394695 0 11575
0.10350000 0.10349800 18688.59349884 0 62.19350884 0 7455.15926562 0 959.02759094 0 2113.29854068 0 11364
0.10450000 0.10450100 18688.48109233 0 372.45671384 0 6170.73506919 0 870.53556806 0 3511.41067860 0 12093
0.10550000 0.10551000 18186.13641116 0 645.50785701 0 6276.84681209 0 1005.09290170 0 3916.75978461 0 12067
0.10650000 0.10649700 17398.27920143 0 270.68161399 0 5295.47055937 0 895.51229398 0 4141.32550491 0 12054
0.10750000 0.10749900 17489.44087886 0 350.55430589 0 5573.29448284 0 872.40039201 0 4161.73852664 0 12807
0.10850000 0.10850100 16920.55154536 0 195.08711376 0 4972.54914517 0 712.15142706 0 2980.32365351 0 12736
0.10950000 0.10950300 16691.24227045 0 464.36364641 0 4679.30304890 0 -17.62826292 0 2841.34424788 0 12933
0.11050000 0.11050200 16179.90506870 0 422.54055724 0 4564.37863583 0 -812.71253663 0 2196.22082112 0 13428
0.11150000 0.11150900 15839.65057107 0 492.46976950 0 4895.60689092 0 -805.31956065 0 1811.85801003 0 13453
0.11250000 0.11250000 15437.23527490 0 399.07457477 0 5589.02015321 0 -659.52607253 0 882.88229882 0 13668
0.11350000 0.11349100 15161.38970596 0 505.34818304 0 5357.49647010 0 -550.17027783 0 40.65316225 0 13791
0.11450000 0.11448600 14764.25751563 0 252.57292567 0 5566.29155743 0 -451.59426718 0 -976.28648607 0 14205
0.11550000 0.11549300 14595.19812864 0 227.67151210 0 5398.77213959 0 -342.13618256 0 -546.42039675 0 14776
0.11650000 0.11649800 14628.69526782 0 -106.88914631 0 5215.66193918 0 780.95432612 0 -1258.01990786 0 14553
0.11750000 0.11747300 14716.70956304 0 -181.98163907 0 4798.28533689 0 826.58799589 0 -885.66885614 0 14568
0.11850000 0.11849100 14994.80326213 0 -143.38349259 0 4947.10031192 0 1019.83389107 0 -877.99149169 0 16015
0.11950000 0.11950300 14818.10023264 0 54.81278516 0 4793.51930098 0 500.21008159 0 -836.28418121 0 15270
0.12050000 0.12050700 14833.05029811 0 399.43652373 0 4602.40575725 0 208.40840894 0 380.91305539 0 15999
0.12150000 0.12150000 14349.25269065 0 377.09685446 0 5041.57798131 0 -500.50121445 0 -186.31715806 0 15670
0.12250000 0.12250700 14059.80593432 0 407.58936770 0 5092.26207546 0 -228.37405277 0 962.62572324 0 16887
0.12350000 0.12352200 13836.79142382 0 149.99636742 0 5410.64226676 0 -27.51171748 0 270.43431968 0 16407
0.12450000 0.12449800 13813.41087030 0 74.89802951 0 5019.19784570 0 576.40708070 0 789.02848554 0 16306
0.12550000 0.12549900 13865.67989620 0 -101.58344675 0 4670.40045352 0 775.37109490 0 317.28872412 0 17523
0.12650000 0.12650100 14087.34552861 0 -76.84277449 0 4189.16571443 0 381.46384727 0 493.74558336 0 17154
0.12750000 0.12750600 14052.72432436 0 60.18120754 0 4487.99841411 0 128.36710728 0 459.03108171 0 18007
0.12850000 0.12850300 14008.77338001 0 142.51571436 0 4342.28585868 0 -699.03358766 0 389.69762393 0 17496
0.12950000 0.12949900 13880.40514866 0 39.00753098 0 4601.13556372 0 -445.46698847 0 572.34808173 0 18405
0.13050000 0.13049000 14166.03008373 0 6.45417932 0 5114.08017852 0 -471.57677199 0 486.99669666 0 18100
0.13150000 0.13148800 14036.42538080 0 -33.54850895 0 5185.25597895 0 108.41225448 0 -42.04644090 0 19059
0.13250000 0.13249300 14110.83848864 0 154.90515959 0 5161.98783194 0 257.45811247 0 -383.43658148 0 18957
0.13350000 0.13349100 13851.85389580 0 316.57943906 0 4973.85306065 0 250.52937536 0 -754.33196893 0 19468
0.13450000 0.13450700 13402.45267958 0 376.93836129 0 4849.65511073 0 311.85499356 0 -492.19774575 0 19953
0.13550000 0.13551000 13220.24173123 0 405.25580861 0 5002.08957529 0 47.81682896 0 -437.08708335 0 19956
0.13650000 0.13649900 12835.36185020 0 239.66641050 0 4734.06749926 0 397.38735310 0 -315.12265072 0 19723
0.13750000 0.13749600 12757.46414063 0 232.25432540 0 5247.58538726 0 75.41757239 0 391.00378755 0 20946
0.13850000 0.13851100 12614.59546984 0 3.32429881 0 4957.88009597 0 463.34411939 0 620.86610248 0 20955
0.13950000 0.13949800 12608.30070543 0 -51.92483717 0 4939.35550356 0 572.00861407 0 896.58465206 0 20506
0.14050000 0.14048300 12712.83875723 0 -22.80817959 0 4786.43769102 0 783.34858473 0 1407.62172844 0 21447
0.14150000 0.14148400 12749.14605909 0 82.50143048 0 4231.05961970 0 662.72853393 0 1052.65097087 0 21771
0.14250000 0.14249400 12342.34690914 0 273.12757959 0 3602.74096579 0 593.54345274 0 1362.38934990 0 22470
0.14350000 0.14350900 12155.07766796 0 344.91599549 0 3263.27331371 0 338.64596051 0 1544.20687547 0 22519
0.14450000 0.14449900 11852.92897631 0 303.07042501 0 2920.93929570 0 149.55798204 0 1440.05100580 0 22218
0.14550000 0.14550500 11631.60056342 0 241.70996080 0 2945.36522974 0 7.36326695 0 1279.05116538 0 23559
0.14650000 0.14650700 11301.68746446 0 266.31574525 0 2997.24083286 0 -196.78332796 0 888.70045964 0 23044
0.14750000 0.14750500 11237.46962683 0 273.06125975 0 3001.50103949 0 -227.57821470 0 921.41637359 0 23649
0.14850000 0.14849900 10873.25006185 0 333.02338701 0 3542.15385835 0 -483.66721591 0 703.95924081 0 23640
0.14950000 0.14949500 10748.01797205 0 274.18644889 0 3389.29224906 0 -19.28299911 0 872.28798551 0 24457
0.15050000 0.15050000 10533.62504066 0 77.51226765 0 3544.44695110 0 498.24521585 0 957.15939479 0 24591
0.15150000 0.15149900 10451.23107080 0 78.09419614 0 3087.50325823 0 915.56561489 0 1193.38616616 0 25020
0.15250000 0.15250500 10309.86864721 0 54.35113163 0 3178.82230477 0 763.09855244 0 1314.63906559 0 25297
0.15350000 0.15350100 10224.88932769 0 122.31851312 0 2533.13684548 0 687.89185465 0 1070.12119024 0 25452
0.15450000 0.15450400 10023.22081292 0 243.56354410 0 2449.95603007 0 139.79210469 0 1293.40547636 0 26061
0.15550000 0.15549900 9739.59671368 0 205.62409976 0 2357.41175260 0 -115.49768626 0 1097.83501462 0 26128
0.15650000 0.15649500 9589.48906381 0 143.06200998 0 2379.43218739 0 -387.38991834 0 1017.04283749 0 26331
0.15750000 0.15749700 9561.64597195 0 139.76063086 0 2721.75496475 0 -350.77574671 0 510.53461929 0 27345
0.15850000 0.15849900 9516.04265194 0 127.55665637 0 2634.70736549 0 -287.45940927 0 634.08623180 0 26980
0.15950000 0.15949700 9363.85548169 0 167.01920889 0 2796.42660755 0 -55.74396067 0 389.49641628 0 27777
0.16050000 0.16050000 9323.82752444 0 175.24624116 0 2877.98876926 0 90.05312445 0 945.04084923 0 28224
0.16150000 0.16150500 9235.80198856 0 85.98232279 0 2819.63855131 0 306.97205488 0 722.75136070 0 28075
0.16250000 0.16249700 9315.99279088 0 36.71927171 0 3147.35972338 0 211.77385977 0 1173.15299484 0 28590
0.16350000 0.16349900 9354.09859686 0 68.82717886 0 2758.68050240 0 100.97802531 0 977.82533115 0 29163
0.16450000 0.16449100 9343.01531524 0 14.18423994 0 3188.70283676 0 -124.28562700 0 1426.30368995 0 28996
0.16550000 0.16550500 9391.69857355 0 84.47630041 0 2891.74732575 0 -361.48471466 0 706.89979504 0 30777
0.16650000 0.16650700 9412.40385220 0 135.90621173 0 3481.30821594 0 -265.99201451 0 980.29040586 0 29211
0.16750000 0.16749900 9259.09261688 0 130.17347986 0 3253.85364840 0 -189.43194238 0 486.76738738 0 30922
0.16850000 0.16850800 9184.91556270 0 132.49804643 0 3261.13759008 0 164.53502507 0 461.87384228 0 30867
0.16950000 0.16949900 9089.33630954 0 -35.49583928 0 3222.44727026 0 402.62324821 0 331.68687364 0 30852
0.17050000 0.17049200 8996.52225645 0 22.71634347 0 2968.55469220 0 413.42101730 0 167.67004256 0 31257
0.17150000 0.17149500 9080.64728652 0 77.21551447 0 2743.78664018 0 437.33774986 0 80.84950445 0 32608
0.17250000 0.17250900 8735.01975785 0 163.29068504 0 2480.83409763 0 -25.94072413 0 127.69716450 0 32361
0.17350000 0.17350400 8703.82695207 0 196.09764826 0 2327.99496964 0 59.71887958 0 77.95177710 0 32508
0.17450000 0.17449800 8425.32858956 0 122.42192711 0 2106.21693072 0 50.25324000 0 -99.11353857 0 32791
0.17550000 0.17549800 8464.67086712 0 -45.99685520 0 1870.54544749 0 214.39855172 0 -437.00952286 0 33633
0.17650000 0.17650100 8414.73989657 0 6.71268056 0 1793.32217697 0 -22.48152627 0 -499.05679083 0 33984
0.17750000 0.17750300 8494.72836717 0 50.31944744 0 1699.40654011 0 100.94497779 0 -745.73399519 0 34069
