### header ###
fiducial parameters:
Omega_m = 0.31
Omega_nu = 0
Omega_de = 0.69
Omega_k = 0
H_0 = 100
w_de = -1
zeff = 0
beta = 0
fgrowth = 0
b_1 = 2
gamma = 0.55
Lx = 3500 Ly = 3500 Lz = 3500
nx = 700 ny = 700 nz = 700
xoffset = 857.220397 yoffset = 15.9954215 zoffset = 262.898189
bins = 400 dk = 0.001
kx_ny = 0.628318531 ky_ny = 0.628318531 kz_ny = 0.628318531
############################
A(data) = 3.0566775 (not used)
A(ran) = 3.05381393 (used)
Ngal = 186477
weighted Ngal = 0
Nran = 9360983
weighted Nran = 0
SN(data) = 3449.14513
SN(ran) = 68.5771841
SN(data+ran) = 3517.72231
############################
13 columns: k_central k_mean P_0(k) sigma^{lin}_{P_0(k)} P^img_1(k) sigma^{lin}_{P_1(k)} P_2(k) sigma^{lin}_{P_2(k)} P^img_3(k) sigma^{lin}_{P_3(k)} P_4(k) sigma^{lin}_{P_4(k)} N_modes
### header ###
0.00050000 0 0 0 0 0 0 0 0 0 0 0 0
0.00150000 0.00179520 17501.69318815 0 -22101.59228029 0 -7122.55965114 0 44083.13441077 0 13209.78792605 0 3
0.00250000 0.00253879 41764.07575846 0 -37510.05148932 0 -9307.84331910 0 -17465.16107328 0 37967.20875455 0 6
0.00350000 0.00331552 56373.21229401 0 -34711.80389634 0 -13123.01010240 0 -15997.13208781 0 -17257.09662825 0 7
0.00450000 0.00420575 83802.76061428 0 -32543.25755732 0 -14466.94230380 0 -22415.88087473 0 6401.77540431 0 24
0.00550000 0.00557378 112068.50094243 0 -26831.65810789 0 -9829.45447562 0 -11106.95443120 0 34757.55334482 0 45
0.00650000 0.00659388 123299.82193331 0 -1932.24537936 0 -708.64434403 0 -11484.12322582 0 -34632.44490218 0 40
0.00750000 0.00754703 122623.13475931 0 8159.48719977 0 -2662.33688498 0 -11975.67688229 0 25234.81126505 0 57
0.00850000 0.00846663 110739.74361952 0 22174.43169703 0 -1223.08396539 0 8603.42545974 0 4472.50879740 0 75
0.00950000 0.00948925 93592.35574241 0 26473.41856909 0 463.05523467 0 -14955.79820409 0 27534.76081111 0 112
0.01050000 0.01054430 62478.12211252 0 12808.60910146 0 -4252.28196828 0 8365.68569678 0 -8101.83390217 0 105
0.01150000 0.01145670 65213.64687441 0 4577.53019718 0 -8473.80951616 0 -9981.30442634 0 -9150.28311780 0 144
0.01250000 0.01249090 56581.50155205 0 -1743.26755927 0 -17256.98422174 0 -11797.51256820 0 -20777.55603069 0 169
0.01350000 0.01339930 57367.56025767 0 2344.86718639 0 -12216.45162095 0 -17517.54250568 0 -27636.60110674 0 180
0.01450000 0.01448870 61447.57925350 0 612.94031965 0 -19874.14493144 0 -15477.02717849 0 -16505.77153339 0 267
0.01550000 0.01550050 57091.71468873 0 -1383.08338789 0 -5714.25224300 0 -442.17460187 0 -30479.58648962 0 238
0.01650000 0.01653350 62593.11396949 0 -3484.17458188 0 -19265.35128785 0 -716.05305693 0 -25022.92499877 0 315
0.01750000 0.01747870 69371.67598631 0 -9808.56934656 0 -12462.17224593 0 6380.41816793 0 -23401.79835034 0 297
0.01850000 0.01844180 72666.76034159 0 -3289.61015838 0 -11459.50620072 0 -14503.24960566 0 -7211.11349760 0 388
0.01950000 0.01947590 79134.40595919 0 -4736.91138390 0 -3226.94353055 0 -7826.20190560 0 -10131.59192662 0 399
0.02050000 0.02045430 82344.73580796 0 606.33081702 0 2584.64150713 0 -10972.63989561 0 -559.20776102 0 462
0.02150000 0.02154770 82052.36648245 0 3113.52536468 0 10137.97661623 0 -3417.29271003 0 -5834.06633915 0 571
0.02250000 0.02255340 79050.10107871 0 5689.55653335 0 22724.43673729 0 1400.78741279 0 -174.96072863 0 510
0.02350000 0.02348930 70047.12668874 0 6650.12634156 0 19267.82423101 0 6182.49278985 0 -4370.74718633 0 555
0.02450000 0.02439640 66756.87581327 0 6290.13326125 0 17432.78799917 0 8871.87468050 0 2233.27000593 0 592
0.02550000 0.02547300 61470.51018099 0 3688.49589022 0 13741.92033165 0 11389.70175968 0 8382.22069400 0 837
0.02650000 0.02652900 56448.52465391 0 2493.05268498 0 15286.27333558 0 7783.77968974 0 12551.19819972 0 723
0.02750000 0.02749970 57533.69707548 0 850.51934130 0 18980.73801134 0 1236.61770887 0 19014.90958956 0 826
0.02850000 0.02848090 57880.47115053 0 2036.52489619 0 25271.45578643 0 -1635.57088461 0 22345.85162067 0 831
0.02950000 0.02946900 54441.84368541 0 1504.08899301 0 20427.85938644 0 1660.64877639 0 26222.30243176 0 996
0.03050000 0.03053250 56819.80334755 0 397.95725409 0 33936.19899591 0 4277.30365681 0 32745.70167699 0 1041
0.03150000 0.03150510 56711.21866149 0 -86.54266923 0 23341.66086893 0 8256.73006924 0 20159.76986651 0 1036
0.03250000 0.03246190 56540.92280291 0 17.46673476 0 28870.48733748 0 9916.29974317 0 25752.10601169 0 1059
0.03350000 0.03345080 55410.56296541 0 -6.00428351 0 15927.21524026 0 -124.34969871 0 5882.54726575 0 1302
0.03450000 0.03451200 55484.52644722 0 353.20372727 0 23614.02183614 0 -681.60495870 0 14736.83032785 0 1339
0.03550000 0.03553350 54448.81288886 0 347.31250222 0 20090.75227102 0 -4376.67100927 0 5469.88049611 0 1365
0.03650000 0.03647120 55481.71628453 0 -212.04026319 0 21745.71327815 0 -4986.63368054 0 8734.05306188 0 1308
0.03750000 0.03744890 57686.68233192 0 -851.22300604 0 24878.93226290 0 -1370.93224445 0 10449.97211792 0 1579
0.03850000 0.03847530 58115.06353128 0 738.73219385 0 25118.92015601 0 6945.37327366 0 14742.90027925 0 1662
0.03950000 0.03950240 59389.19129164 0 468.23155433 0 23403.37204145 0 8959.42810904 0 17474.60321989 0 1683
0.04050000 0.04050350 57426.34886099 0 2314.61859527 0 23157.98863599 0 7854.62951129 0 15873.03530374 0 1822
0.04150000 0.04152450 55336.71189010 0 3212.99388299 0 22091.25088162 0 5802.46886994 0 21722.44513113 0 1887
0.04250000 0.04250150 51787.92604782 0 2737.12093430 0 18844.83854400 0 4973.74065415 0 15517.38111461 0 1920
0.04350000 0.04349210 46953.99660747 0 2509.61016350 0 15511.19875671 0 872.23515445 0 17362.64633861 0 2005
0.04450000 0.04448520 46048.33737807 0 1324.48587563 0 12550.74857369 0 3984.41726136 0 9544.08807551 0 2151
0.04550000 0.04548030 43416.00178989 0 748.62284242 0 12069.87353542 0 1907.32485669 0 9886.54574068 0 2274
0.04650000 0.04648670 42740.10146143 0 999.56250154 0 5254.23985249 0 3357.45872619 0 5461.06782594 0 2311
0.04750000 0.04749250 40574.47769160 0 2004.50028225 0 8448.48433006 0 -638.14073452 0 1013.85498894 0 2568
0.04850000 0.04851840 40205.89675413 0 2612.19234207 0 6492.91460044 0 -1409.85861793 0 3356.28969851 0 2493
0.04950000 0.04949480 36777.38587467 0 2290.27134579 0 10110.87540732 0 -1433.78996334 0 202.84428683 0 2644
0.05050000 0.05050630 35106.23833049 0 2270.60020701 0 5977.23850751 0 -2065.51453442 0 3759.80657845 0 2829
0.05150000 0.05149060 33345.84001951 0 1170.45523867 0 11357.89071812 0 75.86686120 0 -910.31735506 0 2784
0.05250000 0.05249300 32727.71663582 0 1120.09487526 0 7992.10266973 0 -788.17194796 0 -712.42007861 0 3055
0.05350000 0.05348950 32195.13460418 0 936.45186801 0 11624.96857948 0 -650.37505877 0 -4022.50058604 0 3009
0.05450000 0.05448610 31734.38033072 0 875.05655778 0 11158.03194812 0 -2970.97143211 0 -2357.05205178 0 3336
0.05550000 0.05550870 31935.92519833 0 165.86929032 0 15753.99681250 0 -3796.91196652 0 -2505.23755037 0 3349
0.05650000 0.05647670 32902.39634818 0 -471.35195897 0 17195.04823621 0 -1415.14172378 0 -2277.59189176 0 3324
0.05750000 0.05747970 33623.03446654 0 -1135.77783116 0 20635.47420545 0 -1065.38100783 0 -548.97652073 0 3639
0.05850000 0.05849280 35555.07751418 0 -1285.05367287 0 18326.08251276 0 2178.98890355 0 -5397.76048102 0 3846
0.05950000 0.05951020 36798.06867202 0 -899.22957718 0 20065.57321338 0 841.78872788 0 -2048.02408189 0 3787
0.06050000 0.06049470 36925.76246432 0 762.92657048 0 17498.32099293 0 227.86035503 0 -7386.13042948 0 3930
0.06150000 0.06148310 36183.76710957 0 1239.82129433 0 18258.63860838 0 1579.54748137 0 -3630.29180073 0 4083
0.06250000 0.06249100 34027.36067333 0 2094.38052550 0 17277.77942559 0 687.45346928 0 -5531.37809626 0 4303
0.06350000 0.06350600 33161.15612800 0 2013.81878171 0 15867.19016536 0 1152.11049667 0 -3014.12429026 0 4470
0.06450000 0.06451750 31308.92170055 0 1241.00156265 0 16443.94795437 0 2138.74737393 0 -1479.19095164 0 4479
0.06550000 0.06550280 30347.05921750 0 558.29951644 0 16366.05024480 0 3481.92645173 0 2770.75296128 0 4636
0.06650000 0.06648880 30612.33857475 0 232.49150313 0 17075.56011894 0 2439.23244928 0 367.11740474 0 4653
0.06750000 0.06749660 29810.20573859 0 300.22092005 0 15829.64639192 0 19.49578463 0 2254.34622605 0 5220
0.06850000 0.06852730 29309.77196804 0 555.91649849 0 15802.10679763 0 35.95906650 0 2043.24680532 0 5029
0.06950000 0.06949320 28755.72029351 0 568.89270569 0 15361.13606945 0 -95.44009391 0 1632.63707477 0 5040
0.07050000 0.07048030 28699.62944637 0 -131.02327305 0 13468.32289286 0 622.52971878 0 470.30433032 0 5475
0.07150000 0.07148790 28881.50317519 0 -626.18180621 0 12969.46281342 0 1324.90177971 0 -1759.40913372 0 5509
0.07250000 0.07249820 29467.92792383 0 -145.15052289 0 10934.78138395 0 1836.43007252 0 -1829.80932924 0 5916
0.07350000 0.07351270 28911.29089963 0 429.54685484 0 11610.80535956 0 820.44947653 0 -3012.87657803 0 5721
0.07450000 0.07449140 28572.04806057 0 1261.65063805 0 9571.56022590 0 -574.91095009 0 -3203.65290224 0 6028
0.07550000 0.07549160 28151.64772323 0 509.07108657 0 11330.91315636 0 635.23390224 0 -1798.94250234 0 6183
0.07650000 0.07648840 27240.25576196 0 1103.93419170 0 10202.31810102 0 -369.88372889 0 -1598.89264128 0 6330
0.07750000 0.07749960 26940.46760697 0 956.71314095 0 12390.56930077 0 -3.39728435 0 28.34678542 0 6583
0.07850000 0.07848650 25529.31631420 0 761.98685208 0 9572.92034464 0 1091.71897656 0 -1267.88919920 0 6549
0.07950000 0.07947320 25256.28090794 0 664.08977673 0 11169.13771104 0 1931.41357120 0 947.49243516 0 6828
0.08050000 0.08048110 24358.93976009 0 215.45742102 0 8814.08649509 0 1937.33739414 0 -1221.07188891 0 7147
0.08150000 0.08149960 24344.32691414 0 311.92918185 0 9451.35270698 0 1525.79468957 0 -619.59141268 0 7386
0.08250000 0.08250610 23658.53481304 0 299.53411629 0 8017.85500056 0 531.59735063 0 -1029.31650402 0 7227
0.08350000 0.08350160 23450.35796150 0 624.32822290 0 9205.44099094 0 -511.38890875 0 1165.29577998 0 7798
0.08450000 0.08449610 23452.04405911 0 431.71292823 0 9690.40762608 0 259.78942343 0 2702.18499183 0 7371
0.08550000 0.08548940 22730.28187567 0 198.67625354 0 9437.30189357 0 552.78260506 0 3406.29935362 0 8256
0.08650000 0.08650700 23228.46751607 0 143.58245211 0 11226.00416309 0 1600.02794700 0 5145.57648187 0 8037
0.08750000 0.08749060 23036.25238857 0 116.03498937 0 10583.81454618 0 1566.05870049 0 5403.77422916 0 8155
0.08850000 0.08849210 22850.33202548 0 345.71183356 0 11046.06382619 0 1208.66221050 0 6235.38005154 0 8718
0.08950000 0.08949900 22450.83929850 0 589.20793376 0 10914.80674760 0 368.09983762 0 6884.86485078 0 8571
0.09050000 0.09049190 22068.54476714 0 733.60308492 0 10516.58421415 0 45.55903185 0 7056.94797282 0 8932
0.09150000 0.09150830 21401.97417879 0 540.17958746 0 11087.92400951 0 217.69093832 0 5733.20398014 0 9285
0.09250000 0.09250820 21119.94625195 0 197.13066406 0 10452.90592776 0 392.85849492 0 4880.22968072 0 9204
0.09350000 0.09350330 20861.97331768 0 358.88924841 0 9938.61243487 0 766.23806618 0 3166.60371743 0 9349
0.09450000 0.09448040 20196.07716837 0 340.87610561 0 8375.79104179 0 495.99146537 0 1642.73117913 0 9564
0.09550000 0.09549270 19839.74854020 0 468.08992213 0 8000.72424885 0 365.78988389 0 383.80752295 0 10155
0.09650000 0.09649430 19456.32994377 0 398.74971997 0 6927.27582599 0 549.11365666 0 -994.18947049 0 9913
0.09750000 0.09749140 18659.92983947 0 505.44485264 0 6036.47673686 0 -173.48595525 0 -2382.26483137 0 10476
0.09850000 0.09850240 18151.62761342 0 349.05929934 0 5427.43579895 0 5.48766321 0 -4146.67605466 0 10575
0.09950000 0.09950330 17748.76269122 0 786.37681603 0 5866.28204414 0 -325.63153509 0 -3058.73843301 0 10882
0.10050000 0.10051200 17117.15052665 0 740.29352023 0 6474.77219016 0 -395.08189563 0 -3677.73858747 0 10875
0.10150000 0.10150300 16736.54209289 0 667.77108985 0 6602.21868815 0 510.82912434 0 -1645.91228329 0 11118
0.10250000 0.10250800 15820.76627784 0 630.14863185 0 7237.98989349 0 478.51112942 0 -1195.83662802 0 11575
0.10350000 0.10349800 15740.50803162 0 348.10271997 0 6666.61637619 0 1142.91564437 0 129.05391104 0 11364
0.10450000 0.10450100 15573.58436827 0 -62.71608669 0 7305.70357350 0 1065.92280719 0 744.58407662 0 12093
0.10550000 0.10551000 15909.79223163 0 24.44830293 0 6798.39052471 0 565.08774542 0 1767.79465916 0 12067
0.10650000 0.10649700 15665.19567172 0 31.25811396 0 7102.32647982 0 159.93872299 0 2491.38906867 0 12054
0.10750000 0.10749900 15964.53420069 0 73.22103683 0 7165.56638083 0 108.13000174 0 2998.44358249 0 12807
0.10850000 0.10850100 15746.91520254 0 45.21596719 0 7153.15670243 0 -23.29815955 0 3761.29034435 0 12736
0.10950000 0.10950300 16007.69829950 0 37.97833700 0 6955.88328210 0 747.97762907 0 3665.23898385 0 12933
0.11050000 0.11050200 15867.41497837 0 -103.08969395 0 7050.02373197 0 1116.68221370 0 3363.22518001 0 13428
0.11150000 0.11150900 15986.22865660 0 52.63873090 0 6635.54721757 0 943.01415991 0 4025.22082351 0 13453
0.11250000 0.11250000 15891.91959697 0 104.51096183 0 6031.24983427 0 1165.62175885 0 2723.17128674 0 13668
0.11350000 0.11349100 15486.58173161 0 290.34713245 0 5820.30778265 0 738.98735662 0 4315.33077823 0 13791
0.11450000 0.11448600 15154.42050251 0 243.14089564 0 4623.79671559 0 850.13266292 0 2896.53584296 0 14205
0.11550000 0.11549300 15018.18381565 0 119.09694262 0 4815.84323333 0 780.03034463 0 4019.49933229 0 14776
0.11650000 0.11649800 14726.71374219 0 100.00368570 0 3590.90456057 0 301.84519408 0 2228.07682529 0 14553
0.11750000 0.11747300 14723.79117300 0 46.00674697 0 3465.31276995 0 477.37582370 0 2295.64437684 0 14568
0.11850000 0.11849100 14613.97001536 0 93.85392568 0 3312.85582409 0 -234.71715198 0 2478.67589269 0 16015
0.11950000 0.11950300 14591.37630739 0 191.93298717 0 2854.36092142 0 -411.76976571 0 982.26988445 0 15270
0.12050000 0.12050700 14490.54767034 0 42.05970487 0 3460.99636007 0 -658.90783674 0 2077.10364533 0 15999
0.12150000 0.12150000 14605.42712081 0 125.19836784 0 3686.05666901 0 -348.61754177 0 294.76470818 0 15670
0.12250000 0.12250700 14689.73200129 0 100.62282074 0 4193.22358934 0 -307.24407863 0 810.57119267 0 16887
0.12350000 0.12352200 14593.84925055 0 245.84202401 0 4789.05676264 0 -456.40863789 0 -511.26076533 0 16407
0.12450000 0.12449800 14442.88731124 0 353.28128776 0 5097.91612277 0 -568.33516941 0 -345.56682916 0 16306
0.12550000 0.12549900 14135.23070073 0 350.87241631 0 5182.04115284 0 -448.58851718 0 -507.93240865 0 17523
0.12650000 0.12650100 14095.88842317 0 90.47273795 0 5038.44183976 0 -165.17236997 0 -732.09796178 0 17154
0.12750000 0.12750600 13997.53272927 0 102.49877294 0 5484.51582336 0 467.14008714 0 -604.92236348 0 18007
0.12850000 0.12850300 13803.06947163 0 112.58523366 0 4511.27780177 0 707.13922090 0 -1274.84716200 0 17496
0.12950000 0.12949900 13686.27911053 0 147.86514004 0 4672.70478692 0 504.72769912 0 -1007.26009916 0 18405
0.13050000 0.13049000 13338.60578342 0 412.66114931 0 4034.56180427 0 -60.36600384 0 -1528.23391078 0 18100
0.13150000 0.13148800 13044.32554729 0 293.28431448 0 4378.82921421 0 83.12449975 0 -788.58672797 0 19059
0.13250000 0.13249300 12914.38362484 0 148.20910395 0 3963.10498757 0 14.86519856 0 -594.72596920 0 18957
0.13350000 0.13349100 12775.33677529 0 41.08884987 0 4034.64048883 0 266.90925161 0 -295.56504252 0 19468
0.13450000 0.13450700 12694.17927702 0 128.01415085 0 4313.06016678 0 561.43678206 0 322.49314541 0 19953
0.13550000 0.13551000 12589.52881871 0 186.51611758 0 3694.11621558 0 605.55858431 0 78.41916335 0 19956
0.13650000 0.13649900 12527.03080065 0 157.04313136 0 4198.25940087 0 701.68188497 0 1399.30364690 0 19723
0.13750000 0.13749600 12278.61241949 0 100.89259636 0 3166.09788814 0 786.31836465 0 320.40800470 0 20946
0.13850000 0.13851100 12346.61835641 0 -64.84630241 0 3386.83054655 0 674.19512174 0 1564.10282727 0 20955
0.13950000 0.13949800 12210.83129558 0 -36.33731440 0 2542.28673518 0 381.84040907 0 755.78763320 0 20506
0.14050000 0.14048300 12326.04796558 0 139.65159655 0 2732.06264147 0 -153.05719661 0 696.94844695 0 21447
0.14150000 0.14148400 12015.91841191 0 198.49865126 0 2008.88413604 0 39.03068672 0 -93.50973696 0 21771
0.14250000 0.14249400 11847.42105745 0 269.62162063 0 2559.30508038 0 -416.07268681 0 -76.40663725 0 22470
0.14350000 0.14350900 11753.67403035 0 330.68645572 0 1891.29568874 0 -445.38380765 0 -250.67887602 0 22519
0.14450000 0.14449900 11484.01081932 0 237.78584963 0 2846.31261550 0 -209.25820214 0 -533.46217459 0 22218
0.14550000 0.14550500 11446.12982635 0 302.67138191 0 2885.46380199 0 -521.93938352 0 -433.18208129 0 23559
0.14650000 0.14650700 11110.67508659 0 248.80618361 0 3372.56616077 0 -149.26909732 0 -300.95830674 0 23044
0.14750000 0.14750500 11049.55966856 0 255.09307956 0 3882.52076248 0 -16.97754164 0 741.85821881 0 23649
0.14850000 0.14849900 10787.63002523 0 224.51738551 0 3834.46698061 0 186.66786636 0 -20.88973772 0 23640
0.14950000 0.14949500 10762.19243263 0 148.26755534 0 4229.01382127 0 410.37255282 0 576.42281762 0 24457
0.15050000 0.15050000 10545.06802311 0 160.78964025 0 3600.97618363 0 141.60409758 0 -28.00889146 0 24591
0.15150000 0.15149900 10395.80342205 0 138.82203653 0 4045.39779158 0 -12.32155171 0 256.24749439 0 25020
0.15250000 0.15250500 10325.93153711 0 76.59267002 0 3110.49038898 0 62.12696418 0 3.60232506 0 25297
0.15350000 0.15350100 10240.94097693 0 -54.56245587 0 3213.78072855 0 49.21010762 0 -93.15678053 0 25452
0.15450000 0.15450400 10337.31831630 0 -102.04824766 0 2685.16664662 0 259.56573448 0 -693.09740001 0 26061
0.15550000 0.15549900 10231.92597504 0 24.82048088 0 2664.03422324 0 287.68085009 0 -1161.63132784 0 26128
0.15650000 0.15649500 10231.34146120 0 165.12515924 0 2254.22257889 0 269.85767429 0 -1047.83884830 0 26331
0.15750000 0.15749700 9978.33689455 0 240.11603652 0 2025.29548611 0 276.38736830 0 -1307.69234344 0 27345
0.15850000 0.15849900 9776.47728872 0 231.40003595 0 1942.60925933 0 112.75721561 0 -651.78126418 0 26980
0.15950000 0.15949700 9597.86334861 0 183.59130026 0 1996.78919585 0 238.96836609 0 -757.17135730 0 27777
0.16050000 0.16050000 9495.85444323 0 207.99475300 0 2034.76011402 0 80.08188041 0 -399.65571642 0 28224
0.16150000 0.16150500 9377.28805931 0 208.92323075 0 2273.73634856 0 29.04010876 0 5.19311319 0 28075
0.16250000 0.16249700 9175.49589739 0 206.04337603 0 2448.66335524 0 4.75635771 0 183.21698659 0 28590
0.16350000 0.16349900 9101.59985949 0 146.65114976 0 2663.56211591 0 -134.85408682 0 684.57136643 0 29163
0.16450000 0.16449100 9095.61983330 0 154.13067876 0 2912.57625156 0 -160.29617568 0 577.12873048 0 28996
0.16550000 0.16550500 9013.95650574 0 99.22212325 0 3130.73480094 0 -310.30265969 0 868.38635564 0 30777
0.16650000 0.16650700 9093.66396007 0 -20.62367152 0 3380.06367481 0 -270.63327919 0 660.96599989 0 29211
0.16750000 0.16749900 9279.60680446 0 -161.38876694 0 3511.77037942 0 -143.19464966 0 806.93821435 0 30922
0.16850000 0.16850800 9393.92422240 0 -108.78780462 0 3484.50056075 0 -168.24556388 0 558.02861676 0 30867
0.16950000 0.16949900 9559.85870849 0 -44.08987880 0 3786.58180850 0 9.18195927 0 476.69688840 0 30852
0.17050000 0.17049200 9394.11531346 0 198.51776036 0 3597.67143231 0 -33.51636069 0 -8.37076647 0 31257
0.17150000 0.17149500 9471.20369617 0 259.29146261 0 4022.35445758 0 74.96243844 0 767.92416379 0 32608
0.17250000 0.17250900 8987.01266593 0 227.52538364 0 3744.46309021 0 511.82954225 0 554.16970136 0 32361
0.17350000 0.17350400 9065.95575602 0 252.71905412 0 3698.74736368 0 539.49390777 0 800.95031971 0 32508
0.17450000 0.17449800 8552.43786802 0 208.70178993 0 3415.33683680 0 488.67380175 0 773.77042624 0 32791
0.17550000 0.17549800 8411.18785094 0 199.36418136 0 3026.51148737 0 452.30242818 0 519.74183630 0 33633
0.17650000 0.17650100 8209.01350689 0 243.04197791 0 2920.72572334 0 299.45767986 0 916.56266061 0 33984
0.17750000 0.17750300 7953.31118406 0 135.65554522 0 2335.75101865 0 240.57802727 0 324.18823554 0 34069
