### header ###
fiducial parameters:
Omega_m = 0.31
Omega_nu = 0
Omega_de = 0.69
Omega_k = 0
H_0 = 100
w_de = -1
zeff = 0
beta = 0
fgrowth = 0
b_1 = 2
gamma = 0.55
Lx = 3500 Ly = 3500 Lz = 3500
nx = 700 ny = 700 nz = 700
xoffset = 857.220397 yoffset = 15.9954215 zoffset = 262.898189
bins = 400 dk = 0.001
kx_ny = 0.628318531 ky_ny = 0.628318531 kz_ny = 0.628318531
############################
A(data) = 3.07292115 (not used)
A(ran) = 3.07379281 (used)
Ngal = 187433
weighted Ngal = 0
Nran = 9360983
weighted Nran = 0
SN(data) = 3444.93926
SN(ran) = 69.0258346
SN(data+ran) = 3513.96509
############################
13 columns: k_central k_mean P_0(k) sigma^{lin}_{P_0(k)} P^img_1(k) sigma^{lin}_{P_1(k)} P_2(k) sigma^{lin}_{P_2(k)} P^img_3(k) sigma^{lin}_{P_3(k)} P_4(k) sigma^{lin}_{P_4(k)} N_modes
### header ###
0.00050000 0 0 0 0 0 0 0 0 0 0 0 0
0.00150000 0.00179520 2920.66952008 0 -1887.33897969 0 2565.55488219 0 -4330.74171038 0 -11345.97562834 0 3
0.00250000 0.00253879 8637.29354039 0 -845.48802603 0 12417.32204951 0 -7473.94239299 0 14628.80767433 0 6
0.00350000 0.00331552 9715.47427721 0 702.44287703 0 12314.13287580 0 -4411.76432085 0 11161.20181162 0 7
0.00450000 0.00420575 13441.12051809 0 -276.41884213 0 22751.75151857 0 -12809.84557304 0 10134.41332995 0 24
0.00550000 0.00557378 24122.21165569 0 -12399.89904088 0 20695.72409336 0 5833.15584644 0 7816.08531994 0 45
0.00650000 0.00659388 31301.61527758 0 -9309.64182322 0 26563.90580748 0 11554.48969940 0 949.34264627 0 40
0.00750000 0.00754703 44280.07061158 0 -9810.76127345 0 5935.91787542 0 4620.61561143 0 -10719.90510458 0 57
0.00850000 0.00846663 49946.14542555 0 -2557.12439414 0 9094.70934059 0 192.03752522 0 -10436.52829965 0 75
0.00950000 0.00948925 54177.35117371 0 3813.75046131 0 2468.14340296 0 -19098.42762449 0 -16521.84566393 0 112
0.01050000 0.01054430 49281.03612180 0 2149.41475148 0 13389.97555726 0 -18771.32468822 0 -16134.15562022 0 105
0.01150000 0.01145670 53170.86330726 0 -1369.63956962 0 19253.66101109 0 -16464.96797123 0 -33703.51752577 0 144
0.01250000 0.01249090 57559.32575914 0 -6674.39490649 0 28374.88704675 0 -13759.00612076 0 -42314.64283126 0 169
0.01350000 0.01339930 65757.91918281 0 -6964.98820919 0 20076.58905110 0 1605.53586586 0 -54557.28516842 0 180
0.01450000 0.01448870 68870.00574419 0 -4124.81298899 0 25122.29235123 0 -4986.91469680 0 -53300.35560368 0 267
0.01550000 0.01550050 73256.44487894 0 -4161.16525345 0 19181.49603339 0 -3133.47751972 0 -67506.96443655 0 238
0.01650000 0.01653350 68172.18614681 0 1037.79757500 0 4994.58082060 0 3491.95311219 0 -40202.97418494 0 315
0.01750000 0.01747870 71234.58903196 0 1675.39651015 0 -710.85200784 0 -5458.11153480 0 -40111.36288148 0 297
0.01850000 0.01844180 63402.10360260 0 -440.49974491 0 33.16565239 0 959.95719275 0 -21964.56874788 0 388
0.01950000 0.01947590 67542.93451889 0 2815.32214143 0 -6634.98518503 0 -1138.72288165 0 -31949.30157270 0 399
0.02050000 0.02045430 62749.13420164 0 2853.51787262 0 12597.62208724 0 -9878.63232257 0 -15178.36308856 0 462
0.02150000 0.02154770 66619.29024832 0 3384.50373185 0 21674.22273950 0 -15249.74122071 0 -11317.98640802 0 571
0.02250000 0.02255340 63753.26153144 0 1689.73958049 0 34890.53024297 0 -8234.60846861 0 -3391.65278571 0 510
0.02350000 0.02348930 70069.72039671 0 -683.09097273 0 30796.23562071 0 -5913.90868129 0 -10997.05458900 0 555
0.02450000 0.02439640 71838.21197621 0 -4544.17918646 0 39532.24455582 0 3457.84897787 0 -18828.20238092 0 592
0.02550000 0.02547300 76811.63789214 0 -3152.35057230 0 31968.18586592 0 9687.69862925 0 -9275.14426612 0 837
0.02650000 0.02652900 80365.48202725 0 -2628.10910351 0 28076.56017635 0 14994.46604261 0 -17443.46661737 0 723
0.02750000 0.02749970 77367.71288380 0 1530.75181655 0 16700.23479103 0 8809.80380716 0 -3056.77131913 0 826
0.02850000 0.02848090 78345.42468438 0 3860.72514072 0 15793.00187054 0 6657.60137430 0 -22096.75880048 0 831
0.02950000 0.02946900 73705.05924962 0 5058.23662569 0 9117.32552986 0 7834.74480015 0 -4124.46452882 0 996
0.03050000 0.03053250 68123.51412914 0 5394.97279964 0 10251.77696423 0 2912.17158813 0 -2894.36639737 0 1041
0.03150000 0.03150510 62709.45470456 0 4129.90500377 0 9022.88158242 0 3175.69740387 0 -7419.89734427 0 1036
0.03250000 0.03246190 61442.85818019 0 2674.22949346 0 7507.14727525 0 5844.85736385 0 -2491.28790281 0 1059
0.03350000 0.03345080 58758.92800515 0 2770.52814827 0 1621.49758990 0 4919.83049324 0 -7612.79815147 0 1302
0.03450000 0.03451200 54370.69036628 0 2235.25960111 0 -441.26972949 0 1872.24278575 0 -376.59889364 0 1339
0.03550000 0.03553350 53335.87605999 0 1563.91173620 0 -350.59589630 0 3319.97115600 0 -6579.89475580 0 1365
0.03650000 0.03647120 52565.55426539 0 151.96797756 0 -2732.48978620 0 1006.68345378 0 -1735.52275091 0 1308
0.03750000 0.03744890 53643.53267049 0 703.89292097 0 437.00277847 0 -1940.92316172 0 2051.98079094 0 1579
0.03850000 0.03847530 52485.85805171 0 212.77315362 0 1065.19328896 0 -2133.32938028 0 1538.54158750 0 1662
0.03950000 0.03950240 52380.19593484 0 476.85200938 0 5854.09717875 0 -1806.15900011 0 3085.52490370 0 1683
0.04050000 0.04050350 51777.35983614 0 727.59046084 0 4955.03621133 0 -4658.03573772 0 588.43682512 0 1822
0.04150000 0.04152450 50036.74507044 0 1780.63148230 0 10643.34503245 0 -677.68871599 0 1917.74493991 0 1887
0.04250000 0.04250150 49960.64586499 0 2138.10665684 0 11421.85002077 0 -4081.22174546 0 -3196.14414755 0 1920
0.04350000 0.04349210 47683.62724642 0 2557.87751774 0 11029.07920293 0 -2673.19535359 0 -648.08646229 0 2005
0.04450000 0.04448520 45865.90161671 0 1689.54848942 0 12626.73537263 0 -2472.16755592 0 -4217.82937379 0 2151
0.04550000 0.04548030 44669.33434639 0 1333.72569053 0 13707.07431439 0 219.27699413 0 -3834.36581475 0 2274
0.04650000 0.04648670 44523.65551292 0 1423.30243621 0 15467.92225139 0 -1372.80943313 0 -8486.90487426 0 2311
0.04750000 0.04749250 42945.24333727 0 295.61674951 0 15830.32083096 0 2747.42861102 0 -8687.80902478 0 2568
0.04850000 0.04851840 43154.43184738 0 680.44379948 0 13661.88689845 0 686.79926340 0 -8232.46150432 0 2493
0.04950000 0.04949480 42818.44879703 0 813.72419520 0 12014.79434683 0 2473.86489418 0 -13225.41243056 0 2644
0.05050000 0.05050630 40595.16048895 0 1995.26046735 0 9004.18838025 0 387.11452239 0 -10320.52478410 0 2829
0.05150000 0.05149060 39248.08090534 0 2769.05562302 0 6789.83638950 0 -1681.26412983 0 -13160.77868886 0 2784
0.05250000 0.05249300 37367.07041202 0 520.95020626 0 8624.11949774 0 816.27357478 0 -11817.52092651 0 3055
0.05350000 0.05348950 36433.98399484 0 237.77685711 0 6601.76906212 0 -876.10755862 0 -15539.30038354 0 3009
0.05450000 0.05448610 37939.66916026 0 -628.87843832 0 8929.51673745 0 945.03073265 0 -13501.03318649 0 3336
0.05550000 0.05550870 36691.61970959 0 -774.52692203 0 7036.57991370 0 684.42074171 0 -12109.32821948 0 3349
0.05650000 0.05647670 38892.20190320 0 436.30248593 0 7087.17408264 0 109.42582396 0 -10156.77098426 0 3324
0.05750000 0.05747970 37940.56841231 0 671.61764053 0 9186.34312535 0 2403.67827101 0 -8140.91764476 0 3639
0.05850000 0.05849280 36591.35310507 0 984.89232827 0 7419.66129061 0 2738.20003677 0 -6139.64342927 0 3846
0.05950000 0.05951020 35470.43541418 0 1663.42521712 0 6108.10216332 0 2339.20189842 0 -2746.22586139 0 3787
0.06050000 0.06049470 35021.14660446 0 1296.02454798 0 8105.14989414 0 2494.39032241 0 -1954.85032798 0 3930
0.06150000 0.06148310 32137.13284641 0 1255.28842973 0 6263.36927186 0 1121.46398652 0 587.46900509 0 4083
0.06250000 0.06249100 31928.95599487 0 1011.32921472 0 6463.82379635 0 163.15916943 0 1929.42397602 0 4303
0.06350000 0.06350600 31583.41839140 0 711.01949353 0 6737.43247579 0 -936.96331762 0 2289.93412627 0 4470
0.06450000 0.06451750 31054.77058752 0 486.46501388 0 9064.85417225 0 -1390.03011005 0 3434.42346174 0 4479
0.06550000 0.06550280 31645.35437693 0 -286.45899136 0 9765.58509817 0 373.80896412 0 4008.37108807 0 4636
0.06650000 0.06648880 31211.69007173 0 15.25918337 0 10495.38434688 0 -252.36272550 0 4748.11831268 0 4653
0.06750000 0.06749660 31801.26220257 0 26.76410180 0 11838.54094337 0 1134.67624739 0 4217.06500954 0 5220
0.06850000 0.06852730 31122.77652445 0 -201.53025476 0 11937.34626330 0 1325.30644314 0 3387.46002299 0 5029
0.06950000 0.06949320 31762.59436405 0 425.69131164 0 10933.74724408 0 204.19653711 0 3012.57308046 0 5040
0.07050000 0.07048030 30790.84010836 0 550.08147669 0 11546.50883738 0 -87.83118502 0 1051.70450808 0 5475
0.07150000 0.07148790 30837.15158937 0 793.90580389 0 11302.24949700 0 -1190.89074169 0 1699.41778076 0 5509
0.07250000 0.07249820 29703.75677617 0 656.57202952 0 12149.34493608 0 -1106.18119779 0 -226.79249321 0 5916
0.07350000 0.07351270 30169.23212294 0 -228.51006465 0 11862.37112292 0 -1077.26125159 0 -1438.20753908 0 5721
0.07450000 0.07449140 30370.21495801 0 -477.27240971 0 10469.87931037 0 -361.02834424 0 -2043.26928663 0 6028
0.07550000 0.07549160 31189.99561582 0 -173.66580566 0 12198.91620581 0 922.29651654 0 -1906.43684528 0 6183
0.07650000 0.07648840 31071.18193759 0 158.76182686 0 12211.73054764 0 98.71528231 0 -2043.50534029 0 6330
0.07750000 0.07749960 31265.53278873 0 789.79622199 0 12696.65222018 0 1087.26093448 0 -855.00098875 0 6583
0.07850000 0.07848650 29924.74796954 0 1565.93505333 0 12592.56379441 0 90.72430371 0 -725.26926647 0 6549
0.07950000 0.07947320 28736.27396775 0 1289.94335594 0 12511.63110914 0 615.31322101 0 786.68143767 0 6828
0.08050000 0.08048110 27233.06174549 0 1001.02153800 0 12144.51145627 0 1899.47888248 0 855.41127250 0 7147
0.08150000 0.08149960 26725.43395848 0 709.98310554 0 11147.53318034 0 2362.47004543 0 1890.23906757 0 7386
0.08250000 0.08250610 26481.17461810 0 209.87756199 0 9544.02063161 0 2418.10002590 0 1569.44213636 0 7227
0.08350000 0.08350160 25323.05037328 0 589.01571863 0 8793.75215792 0 1615.88850518 0 1013.03779363 0 7798
0.08450000 0.08449610 25002.57942094 0 719.90860013 0 8590.93709678 0 127.73763084 0 962.59312535 0 7371
0.08550000 0.08548940 23926.06230044 0 729.64862399 0 6761.93709439 0 203.67272279 0 -1064.58179756 0 8256
0.08650000 0.08650700 23495.20815792 0 668.37134059 0 7456.30581199 0 -328.53611924 0 1135.73286856 0 8037
0.08750000 0.08749060 22782.10127554 0 382.43616356 0 6664.63802166 0 -610.59664397 0 -1982.53605073 0 8155
0.08850000 0.08849210 22789.18288550 0 546.42152081 0 8732.78286835 0 -325.64389981 0 -1090.77476189 0 8718
0.08950000 0.08949900 21724.91807429 0 737.22032632 0 6914.91111018 0 -735.35775050 0 -2662.56169800 0 8571
0.09050000 0.09049190 21589.46823299 0 645.10319358 0 8260.92283197 0 -394.00841349 0 -1495.54609846 0 8932
0.09150000 0.09150830 20799.36289310 0 421.68739185 0 7650.37564686 0 331.58121152 0 -2420.93266989 0 9285
0.09250000 0.09250820 20669.64578367 0 92.47053880 0 8239.94777770 0 1096.41419637 0 -2505.26003167 0 9204
0.09350000 0.09350330 20687.40601182 0 260.48297158 0 6185.71885661 0 1427.72001195 0 -2382.72569805 0 9349
0.09450000 0.09448040 19995.09433330 0 586.80355857 0 7286.87548352 0 905.11743003 0 -2212.44108013 0 9564
0.09550000 0.09549270 19402.59963327 0 510.73133068 0 5387.35163845 0 686.20013672 0 -1505.79757192 0 10155
0.09650000 0.09649430 18683.64761252 0 601.91886160 0 6201.28715788 0 -101.71518718 0 -2206.80951411 0 9913
0.09750000 0.09749140 18604.73824439 0 406.58782572 0 5620.21295899 0 -642.03899219 0 -1576.14156420 0 10476
0.09850000 0.09850240 18213.45119244 0 328.82612803 0 6092.02803277 0 -497.44712964 0 -2091.71649128 0 10575
0.09950000 0.09950330 18047.20196813 0 325.19427378 0 6891.71040708 0 -135.39138992 0 -1984.46944265 0 10882
0.10050000 0.10051200 17689.52446187 0 455.63865332 0 5781.46009372 0 245.94431393 0 -1856.38222757 0 10875
0.10150000 0.10150300 17435.48575535 0 351.03090948 0 6011.37636378 0 1314.41425258 0 -856.09020780 0 11118
0.10250000 0.10250800 17088.93649331 0 268.85276012 0 5286.09585666 0 1297.45211062 0 244.49539405 0 11575
0.10350000 0.10349800 16564.67254322 0 157.68834471 0 4427.29890016 0 1586.58412873 0 136.73801988 0 11364
0.10450000 0.10450100 16778.91934615 0 152.59857806 0 4804.91732082 0 866.88460470 0 1424.25789152 0 12093
0.10550000 0.10551000 16263.42310363 0 179.38504876 0 4431.22188727 0 6.15344695 0 978.87408387 0 12067
0.10650000 0.10649700 16559.38943737 0 112.62682406 0 5567.42686316 0 -526.55704284 0 2296.03779961 0 12054
0.10750000 0.10749900 16305.80035688 0 80.20159334 0 5335.57720118 0 -536.05764084 0 1510.15894441 0 12807
0.10850000 0.10850100 16406.51658743 0 179.47722209 0 6103.66210628 0 -578.46187166 0 1476.70676783 0 12736
0.10950000 0.10950300 16430.00954746 0 35.90690988 0 5578.03803745 0 72.36663497 0 892.34018234 0 12933
0.11050000 0.11050200 16498.91473644 0 52.74079601 0 5761.06955330 0 727.86698085 0 572.13001310 0 13428
0.11150000 0.11150900 16263.98513616 0 50.59877761 0 4930.16065126 0 646.45319573 0 287.24920911 0 13453
0.11250000 0.11250000 16087.61932619 0 265.03993139 0 4800.57842964 0 397.23335618 0 -358.32833994 0 13668
0.11350000 0.11349100 15883.15188940 0 402.00613648 0 4793.68791074 0 -142.27628850 0 16.33289033 0 13791
0.11450000 0.11448600 15618.99659722 0 428.38794375 0 4712.06954578 0 4.18247753 0 641.92883382 0 14205
0.11550000 0.11549300 15139.58284354 0 198.11646913 0 4467.97881516 0 -2.52027754 0 680.95862128 0 14776
0.11650000 0.11649800 15171.50629162 0 -82.41948614 0 4520.28156301 0 473.96203807 0 593.15677436 0 14553
0.11750000 0.11747300 15209.38728458 0 -110.72715409 0 4241.69327529 0 481.27970170 0 -523.81657219 0 14568
0.11850000 0.11849100 15155.65697409 0 67.71941274 0 4003.73993997 0 564.60889370 0 -38.20854553 0 16015
0.11950000 0.11950300 14956.58504964 0 85.58946205 0 3442.21323270 0 163.93027807 0 -881.89424562 0 15270
0.12050000 0.12050700 14893.41259253 0 119.13178864 0 3394.87885247 0 89.36980530 0 -635.94880763 0 15999
0.12150000 0.12150000 14877.67568151 0 199.67891959 0 3088.70600786 0 4.35738205 0 -1036.38462520 0 15670
0.12250000 0.12250700 14717.04678256 0 149.37925569 0 3831.30835775 0 246.00276531 0 -352.43599082 0 16887
0.12350000 0.12352200 14488.41194670 0 332.70190440 0 3174.34852578 0 64.68533629 0 -289.27702250 0 16407
0.12450000 0.12449800 14209.64380857 0 387.43488094 0 3643.55576859 0 399.38032047 0 244.15255420 0 16306
0.12550000 0.12549900 14003.04064813 0 395.70237955 0 3416.87680595 0 141.76596295 0 245.31258936 0 17523
0.12650000 0.12650100 13511.48699167 0 439.51618797 0 3596.00781600 0 87.11785333 0 346.41325016 0 17154
0.12750000 0.12750600 13185.62052697 0 399.82657431 0 3626.45873883 0 99.90825258 0 549.22156691 0 18007
0.12850000 0.12850300 12862.78903798 0 337.78155447 0 3720.35189439 0 -292.84255691 0 756.68238900 0 17496
0.12950000 0.12949900 12761.06114886 0 243.39381028 0 3566.05148180 0 4.49729443 0 556.41445931 0 18405
0.13050000 0.13049000 12642.80950317 0 184.04429848 0 3910.25144784 0 113.22257855 0 832.73101152 0 18100
0.13150000 0.13148800 12453.40453836 0 -18.71916807 0 3606.70891550 0 521.28742578 0 873.14677122 0 19059
0.13250000 0.13249300 12546.36471990 0 -109.88219438 0 3555.05812539 0 810.21823623 0 1151.04263485 0 18957
0.13350000 0.13349100 12639.66212097 0 -75.33495361 0 3117.92045911 0 844.95072293 0 1348.52962755 0 19468
0.13450000 0.13450700 12526.46876811 0 2.70391605 0 2885.62117110 0 647.71552081 0 1879.94263150 0 19953
0.13550000 0.13551000 12421.48109028 0 122.19374190 0 2933.74239688 0 501.76241546 0 2240.18300613 0 19956
0.13650000 0.13649900 12569.07083438 0 152.83238360 0 2719.83281347 0 52.68189500 0 2055.76889024 0 19723
0.13750000 0.13749600 12332.11791697 0 313.43205685 0 3161.29813028 0 -324.36921001 0 2162.38646242 0 20946
0.13850000 0.13851100 12109.44062599 0 389.33792311 0 3559.95904911 0 -535.05160260 0 2454.56469687 0 20955
0.13950000 0.13949800 11784.92303939 0 310.96923028 0 3440.04378711 0 -485.59498751 0 1835.96920584 0 20506
0.14050000 0.14048300 11813.81151176 0 289.61649015 0 3600.31298523 0 -228.94395376 0 1981.38950435 0 21447
0.14150000 0.14148400 11520.65534070 0 141.03981692 0 3187.30899607 0 163.04676292 0 1239.20305854 0 21771
0.14250000 0.14249400 11501.99586049 0 139.23119621 0 3388.01081488 0 123.34590860 0 1013.87184992 0 22470
0.14350000 0.14350900 11410.04733751 0 159.84430152 0 2763.54770417 0 146.94340668 0 558.67045792 0 22519
0.14450000 0.14449900 11140.55273623 0 215.25059304 0 3165.53585561 0 86.16385930 0 507.86946100 0 22218
0.14550000 0.14550500 11028.60709560 0 67.25517386 0 2440.78365908 0 277.88237485 0 644.52542413 0 23559
0.14650000 0.14650700 10928.57654475 0 -47.94744532 0 3045.09228303 0 127.72189393 0 359.45015688 0 23044
0.14750000 0.14750500 11049.89688809 0 -72.54940795 0 2288.45036037 0 427.79893365 0 565.43957779 0 23649
0.14850000 0.14849900 11120.52189663 0 22.32404476 0 3005.45774855 0 217.24693261 0 671.09944653 0 23640
0.14950000 0.14949500 10949.65276487 0 134.08410224 0 2332.58115514 0 43.11565160 0 625.67710099 0 24457
0.15050000 0.15050000 10932.79178877 0 285.60357784 0 2813.02904868 0 -39.78572123 0 962.09291639 0 24591
0.15150000 0.15149900 10445.91424301 0 338.58301286 0 2488.76999705 0 -279.08624854 0 408.66959424 0 25020
0.15250000 0.15250500 10352.08853136 0 294.08689694 0 3085.42373785 0 -312.87901684 0 533.46105052 0 25297
0.15350000 0.15350100 10098.48821022 0 305.37363434 0 3205.88979173 0 -524.30666457 0 274.97217038 0 25452
0.15450000 0.15450400 9880.23973562 0 255.77426299 0 3652.30099486 0 -146.76355627 0 289.52656494 0 26061
0.15550000 0.15549900 9732.72867608 0 243.78161273 0 3700.28733283 0 -306.37405226 0 499.22315246 0 26128
0.15650000 0.15649500 9667.79143681 0 215.67998590 0 3809.34412623 0 126.91369114 0 447.84101390 0 26331
0.15750000 0.15749700 9448.14912152 0 155.06252870 0 4062.57350589 0 154.52747373 0 862.88293304 0 27345
0.15850000 0.15849900 9439.23528549 0 1.02486745 0 3464.97555043 0 589.19669311 0 716.19244100 0 26980
0.15950000 0.15949700 9532.35283615 0 -73.54903902 0 3738.92144940 0 429.22986849 0 1065.55523791 0 27777
0.16050000 0.16050000 9466.28029115 0 -44.53433413 0 3004.81703146 0 475.88868561 0 637.04589514 0 28224
0.16150000 0.16150500 9463.89727320 0 -66.22789079 0 3116.12195499 0 630.30262876 0 736.39189036 0 28075
0.16250000 0.16249700 9417.88928976 0 28.12399572 0 2422.69745205 0 333.37521938 0 576.43630640 0 28590
0.16350000 0.16349900 9353.92998710 0 43.89474110 0 2343.03496032 0 326.05755575 0 464.55136528 0 29163
0.16450000 0.16449100 9333.56192797 0 141.22528765 0 2140.48967480 0 166.54485343 0 135.33293854 0 28996
0.16550000 0.16550500 9227.02304034 0 171.76950789 0 2162.24033396 0 -79.59190044 0 304.36197578 0 30777
0.16650000 0.16650700 8899.72901301 0 234.27876660 0 1942.78910974 0 -319.60205004 0 -120.70547974 0 29211
0.16750000 0.16749900 8961.44018552 0 120.56272348 0 2140.02880812 0 -23.56995849 0 581.31362475 0 30922
0.16850000 0.16850800 8760.65968216 0 86.31583290 0 2097.62907356 0 65.43362641 0 53.38297439 0 30867
0.16950000 0.16949900 8799.59729630 0 113.50584295 0 2258.37037901 0 176.40964851 0 579.92315625 0 30852
0.17050000 0.17049200 8665.27152006 0 81.92354863 0 2000.70094231 0 85.79494114 0 310.29254310 0 31257
0.17150000 0.17149500 8647.79230817 0 68.59404777 0 2262.29336612 0 205.87027001 0 439.41839431 0 32608
0.17250000 0.17250900 8677.89477083 0 64.37397026 0 2144.88476923 0 74.73908671 0 723.97434350 0 32361
0.17350000 0.17350400 8593.87090662 0 -34.02679864 0 1968.13677714 0 204.71585518 0 322.34814101 0 32508
0.17450000 0.17449800 8683.98720353 0 69.03456887 0 2118.89638474 0 -73.92458916 0 656.68780823 0 32791
0.17550000 0.17549800 8617.40882925 0 87.47170901 0 1887.17036992 0 -17.32982364 0 27.07928964 0 33633
0.17650000 0.17650100 8515.30999866 0 164.18768897 0 1878.93097294 0 -5.35164009 0 417.18775936 0 33984
0.17750000 0.17750300 8416.98802672 0 153.25503207 0 1920.71247171 0 155.18729993 0 155.50878254 0 34069
0.17850000 0.17849800 8245.70299088 0 124.15973171 0 1845.45631506 0 319.14005929 0 258.88455105 0 34536
