### header ###
fiducial parameters:
Omega_m = 0.31
Omega_nu = 0
Omega_de = 0.69
Omega_k = 0
H_0 = 100
w_de = -1
zeff = 0
beta = 0
fgrowth = 0
b_1 = 2
gamma = 0.55
Lx = 3500 Ly = 3500 Lz = 3500
nx = 700 ny = 700 nz = 700
xoffset = 857.220397 yoffset = 15.9954215 zoffset = 262.898189
bins = 400 dk = 0.001
kx_ny = 0.628318531 ky_ny = 0.628318531 kz_ny = 0.628318531
############################
A(data) = 3.06813264 (not used)
A(ran) = 3.06757756 (used)
Ngal = 187239
weighted Ngal = 0
Nran = 9360983
weighted Nran = 0
SN(data) = 3448.49957
SN(ran) = 68.8862635
SN(data+ran) = 3517.38583
############################
13 columns: k_central k_mean P_0(k) sigma^{lin}_{P_0(k)} P^img_1(k) sigma^{lin}_{P_1(k)} P_2(k) sigma^{lin}_{P_2(k)} P^img_3(k) sigma^{lin}_{P_3(k)} P_4(k) sigma^{lin}_{P_4(k)} N_modes
### header ###
0.00050000 0 0 0 0 0 0 0 0 0 0 0 0
0.00150000 0.00179520 27776.99683437 0 -30476.32670091 0 -27647.50453795 0 47992.63273501 0 13196.18673866 0 3
0.00250000 0.00253879 55237.56935066 0 -33874.93744942 0 1173.63634282 0 -64448.94540518 0 22788.39603995 0 6
0.00350000 0.00331552 85817.08522527 0 -44115.39507837 0 -56817.10559138 0 38052.63770010 0 15739.27156004 0 7
0.00450000 0.00420575 114234.23711877 0 -39157.93088648 0 -22054.71876674 0 -62341.32339312 0 -1782.02532299 0 24
0.00550000 0.00557378 163820.11968839 0 -17894.32911819 0 -6953.74755846 0 -93846.05722941 0 -32622.72895799 0 45
0.00650000 0.00659388 144133.24399813 0 4938.89463688 0 55511.16678945 0 -49121.19406840 0 -39005.62006908 0 40
0.00750000 0.00754703 138029.57065121 0 39420.73730057 0 48337.72071245 0 -101621.88977908 0 -38216.18916824 0 57
0.00850000 0.00846663 121580.00237147 0 27545.88905534 0 54783.33465462 0 15500.18291899 0 -21238.75993018 0 75
0.00950000 0.00948925 106788.54248107 0 -6864.63167946 0 54218.26714237 0 41479.68729497 0 -13330.73732791 0 112
0.01050000 0.01054430 108402.36270652 0 -18495.47911928 0 2287.51738636 0 68617.65313528 0 -62997.77739581 0 105
0.01150000 0.01145670 114880.57453580 0 -13021.50702630 0 -3522.15674070 0 42485.83794190 0 -35324.86898721 0 144
0.01250000 0.01249090 113678.94897266 0 2657.69449623 0 -36529.64193256 0 6524.17485012 0 -13808.80220350 0 169
0.01350000 0.01339930 104626.74053249 0 13152.01098129 0 -39728.50631759 0 -21371.39960880 0 19334.36888333 0 180
0.01450000 0.01448870 95919.39525674 0 5246.84350431 0 -24285.76312383 0 -26672.37808703 0 35252.59160301 0 267
0.01550000 0.01550050 101297.48459898 0 -7524.46911802 0 -19727.90406543 0 -24202.69471493 0 -3220.18789946 0 238
0.01650000 0.01653350 103466.59297054 0 2964.20456037 0 7099.12289436 0 -23466.31968554 0 19676.98391761 0 315
0.01750000 0.01747870 106431.65182036 0 9914.96210573 0 28029.79906931 0 -25311.80972255 0 11347.99894547 0 297
0.01850000 0.01844180 93478.71276352 0 10845.51937650 0 36117.67208327 0 -12162.94612347 0 27894.46163451 0 388
0.01950000 0.01947590 84737.64553558 0 11745.91798135 0 15516.81908207 0 9452.63414116 0 -7310.93047609 0 399
0.02050000 0.02045430 79578.97369560 0 4352.30127848 0 34914.81004855 0 16914.14437444 0 -188.48098333 0 462
0.02150000 0.02154770 73318.38086447 0 1904.23367773 0 13835.10532621 0 10166.01079916 0 -13123.90935446 0 571
0.02250000 0.02255340 74442.89556360 0 1389.20954254 0 19499.38163606 0 2506.82248212 0 -8339.18024236 0 510
0.02350000 0.02348930 70268.90472766 0 769.36409115 0 8665.83355260 0 -7672.59841336 0 -13798.34839832 0 555
0.02450000 0.02439640 71170.74213581 0 1514.90249902 0 13412.90648476 0 -9094.74306254 0 -12695.41574860 0 592
0.02550000 0.02547300 71898.91149016 0 -437.29840758 0 16665.16396075 0 -649.88609047 0 -8823.52864170 0 837
0.02650000 0.02652900 71303.83144046 0 1598.15075833 0 9681.43758679 0 3462.35647881 0 -28469.98295193 0 723
0.02750000 0.02749970 68505.13422146 0 5486.16819902 0 17370.06516809 0 1947.40901719 0 -17165.48532479 0 826
0.02850000 0.02848090 62833.55148863 0 7528.71808400 0 7924.81613446 0 -3127.86843501 0 -28400.96535644 0 831
0.02950000 0.02946900 56662.99626985 0 6991.19016604 0 10793.95851159 0 -6403.57390843 0 -13289.37173322 0 996
0.03050000 0.03053250 49679.06756418 0 5436.16978457 0 10823.56638562 0 -1686.86197390 0 -16413.14857136 0 1041
0.03150000 0.03150510 46765.15367519 0 291.13622613 0 7281.94083785 0 3386.72938069 0 -13674.13920774 0 1036
0.03250000 0.03246190 45529.01931430 0 -1874.47967525 0 6181.96447927 0 6631.62423046 0 -15226.58548020 0 1059
0.03350000 0.03345080 48374.70245336 0 -2066.71728405 0 2772.95612883 0 8478.32825775 0 -11166.29382641 0 1302
0.03450000 0.03451200 47247.26518504 0 -1636.11043585 0 3348.91583163 0 5177.02782262 0 -8260.19218967 0 1339
0.03550000 0.03553350 49286.54404065 0 -487.12821227 0 1211.49485448 0 3094.21392672 0 -983.63337539 0 1365
0.03650000 0.03647120 50640.03079517 0 -328.38099826 0 3670.33099864 0 1158.42774238 0 1897.06214257 0 1308
0.03750000 0.03744890 49695.92854028 0 264.82973122 0 5078.93066369 0 216.12511567 0 5220.57410355 0 1579
0.03850000 0.03847530 49545.30382048 0 412.58583695 0 8693.80029162 0 -1010.58171145 0 14270.34332252 0 1662
0.03950000 0.03950240 49888.70570031 0 1435.80203982 0 5569.13544207 0 -53.66612638 0 3907.32887865 0 1683
0.04050000 0.04050350 48547.69606811 0 1853.83059986 0 11336.30866871 0 -3137.67028245 0 10528.35317547 0 1822
0.04150000 0.04152450 46181.98871526 0 1642.19162789 0 10094.19428164 0 -3498.37152375 0 2458.86986610 0 1887
0.04250000 0.04250150 45920.08155323 0 1626.47719817 0 15649.57116721 0 -3567.90618917 0 4570.34742136 0 1920
0.04350000 0.04349210 45052.30331680 0 766.71242165 0 13006.33214782 0 -2769.95487508 0 825.64827749 0 2005
0.04450000 0.04448520 44144.62077027 0 1582.34640340 0 16065.92487028 0 1116.62601045 0 4319.41113445 0 2151
0.04550000 0.04548030 44808.83082196 0 1676.57677848 0 16383.36084693 0 1203.81749004 0 2444.31322341 0 2274
0.04650000 0.04648670 41421.57313069 0 2154.67537602 0 15343.82546732 0 2647.15076585 0 1754.20471243 0 2311
0.04750000 0.04749250 41224.29971036 0 2249.49026494 0 19614.26108654 0 3453.68993710 0 7841.38802473 0 2568
0.04850000 0.04851840 38236.30993305 0 907.33071416 0 16311.19586923 0 3003.83909484 0 7493.90578869 0 2493
0.04950000 0.04949480 38433.80816639 0 922.13015491 0 18361.49056257 0 5461.38256416 0 11851.69250473 0 2644
0.05050000 0.05050630 36939.02643218 0 42.89376116 0 17636.91821645 0 2304.20975270 0 13202.36909656 0 2829
0.05150000 0.05149060 38891.97709019 0 349.70451270 0 16379.53902568 0 4353.63891592 0 14841.25597314 0 2784
0.05250000 0.05249300 37617.28729729 0 -229.39245573 0 15967.79398940 0 3072.86793098 0 15470.39519456 0 3055
0.05350000 0.05348950 37839.51496224 0 -658.18731103 0 14919.15368271 0 2397.60831962 0 11551.34231720 0 3009
0.05450000 0.05448610 38038.69929320 0 -1040.78421590 0 9710.96677626 0 3276.32370921 0 10440.09158593 0 3336
0.05550000 0.05550870 37831.42169372 0 -215.95650591 0 7965.25999579 0 422.14938259 0 6192.29463729 0 3349
0.05650000 0.05647670 38068.26220462 0 236.26611365 0 3717.02466177 0 1076.92515613 0 358.92184630 0 3324
0.05750000 0.05747970 36733.88455634 0 1480.57355168 0 3953.03336452 0 474.00700068 0 -3560.39743449 0 3639
0.05850000 0.05849280 34431.46206711 0 1375.11376653 0 734.16624152 0 -968.63609918 0 -7803.22601550 0 3846
0.05950000 0.05951020 33609.20846614 0 1103.40925332 0 4014.95810940 0 -1556.58283193 0 -6848.92849039 0 3787
0.06050000 0.06049470 32347.10820207 0 474.64434557 0 196.25951363 0 -1689.63841463 0 -9968.73737883 0 3930
0.06150000 0.06148310 32931.39722706 0 14.14950633 0 4335.05812026 0 -1305.73647021 0 -7034.97250064 0 4083
0.06250000 0.06249100 33512.98849588 0 -399.00600680 0 4465.95549803 0 -2116.53584809 0 -5704.43915492 0 4303
0.06350000 0.06350600 33680.13697225 0 68.09204031 0 6163.39492426 0 -1655.84901853 0 -3830.53275285 0 4470
0.06450000 0.06451750 34515.54213458 0 244.29306234 0 6870.28572678 0 357.20877112 0 -3705.81773299 0 4479
0.06550000 0.06550280 33718.35518474 0 1008.99565563 0 6925.43235927 0 1445.88490353 0 -2879.01166848 0 4636
0.06650000 0.06648880 31929.06840138 0 1597.89222336 0 6634.08593297 0 -1257.75013224 0 -3262.80120638 0 4653
0.06750000 0.06749660 31339.04664451 0 1862.14868140 0 7370.16870544 0 1048.46270441 0 -2312.39294643 0 5220
0.06850000 0.06852730 29326.74535065 0 1661.62671301 0 8989.42940584 0 -1012.97934225 0 -743.26330016 0 5029
0.06950000 0.06949320 28410.40750306 0 670.16534845 0 7063.69236326 0 105.45371521 0 -1875.32272405 0 5040
0.07050000 0.07048030 28558.67168620 0 -54.43757224 0 9844.14600612 0 649.27572313 0 1674.59842395 0 5475
0.07150000 0.07148790 28691.19895832 0 -258.16514940 0 8328.76015913 0 1388.75991651 0 1023.86029216 0 5509
0.07250000 0.07249820 29032.91474054 0 -108.61492341 0 8794.65140998 0 3429.15159655 0 2623.02832938 0 5916
0.07350000 0.07351270 29129.02230429 0 122.91089542 0 8402.67867833 0 2211.57555002 0 3451.90267363 0 5721
0.07450000 0.07449140 27998.66246678 0 1114.25985347 0 8211.49769070 0 3104.58904734 0 4503.46554952 0 6028
0.07550000 0.07549160 27178.65699596 0 1283.77223869 0 7373.57462261 0 1269.55281551 0 6745.37961586 0 6183
0.07650000 0.07648840 25584.62031579 0 930.59099272 0 6486.30509781 0 1587.93300681 0 5446.30885153 0 6330
0.07750000 0.07749960 25277.07611179 0 547.60965760 0 6283.17529845 0 249.39069744 0 7149.44728769 0 6583
0.07850000 0.07848650 25079.80269147 0 256.01818511 0 7084.64493622 0 366.39800310 0 5740.09449903 0 6549
0.07950000 0.07947320 24781.70063408 0 196.04706533 0 5896.06976858 0 -1104.63785644 0 5115.68759158 0 6828
0.08050000 0.08048110 24909.95645892 0 814.92806889 0 6984.96284554 0 -1708.33161679 0 3641.79098643 0 7147
0.08150000 0.08149960 23929.77171518 0 866.09663508 0 8105.73440797 0 -1807.06949282 0 3380.19856262 0 7386
0.08250000 0.08250610 23123.47983824 0 1158.28161392 0 8327.59113145 0 -1109.08465787 0 532.20996610 0 7227
0.08350000 0.08350160 22731.85556678 0 692.39373527 0 8987.91191799 0 -385.46776706 0 1095.74425358 0 7798
0.08450000 0.08449610 21765.72163645 0 247.51013658 0 8054.45455934 0 1033.63516203 0 -563.22854179 0 7371
0.08550000 0.08548940 22296.72997698 0 -80.77149433 0 7105.67619374 0 1152.00933082 0 -944.88348012 0 8256
0.08650000 0.08650700 21651.17940550 0 -31.33477520 0 6359.18457869 0 2168.33276666 0 -2087.68109766 0 8037
0.08750000 0.08749060 21799.78080816 0 214.12652797 0 4878.63350831 0 894.60629753 0 -1767.71597461 0 8155
0.08850000 0.08849210 21253.03555661 0 433.23266421 0 3384.57117575 0 641.05655932 0 -1126.78531058 0 8718
0.08950000 0.08949900 20993.26411821 0 565.81276739 0 3844.62852887 0 220.02899367 0 -588.89544367 0 8571
0.09050000 0.09049190 20304.66185443 0 315.12827105 0 3568.02983633 0 -15.68228146 0 244.37511909 0 8932
0.09150000 0.09150830 20563.75885378 0 56.31217556 0 3908.99249496 0 144.88299540 0 -85.26842906 0 9285
0.09250000 0.09250820 20239.69089321 0 -14.44165084 0 4235.80317431 0 196.13137021 0 -342.89717461 0 9204
0.09350000 0.09350330 20046.80132666 0 430.84290187 0 4962.01665544 0 -114.26233875 0 -405.08045446 0 9349
0.09450000 0.09448040 19717.89988628 0 624.61710762 0 5395.50111023 0 -771.90335415 0 -747.15031718 0 9564
0.09550000 0.09549270 19156.09216274 0 931.44977843 0 5904.81499485 0 -849.50543460 0 -498.48126951 0 10155
0.09650000 0.09649430 18805.60867295 0 715.34264780 0 6343.91977500 0 -173.17908549 0 -650.66394350 0 9913
0.09750000 0.09749140 18214.46285101 0 490.53637758 0 6523.74770540 0 189.06212497 0 476.16295749 0 10476
0.09850000 0.09850240 17776.86431805 0 461.64678113 0 6460.87874586 0 268.54251816 0 -520.41852348 0 10575
0.09950000 0.09950330 17485.50665110 0 441.85986365 0 5843.98059309 0 598.31735711 0 -146.25098260 0 10882
0.10050000 0.10051200 17078.70750115 0 374.80600984 0 5962.77179002 0 537.74373845 0 -686.91504211 0 10875
0.10150000 0.10150300 16880.31001574 0 195.79415069 0 5733.49623706 0 -217.99555995 0 -308.33329768 0 11118
0.10250000 0.10250800 16544.88899793 0 52.26970034 0 5492.36179757 0 339.13830101 0 -728.96968869 0 11575
0.10350000 0.10349800 16159.67189738 0 184.85362534 0 5250.05833042 0 127.29474920 0 -811.66041172 0 11364
0.10450000 0.10450100 16120.21721331 0 21.53652477 0 4842.22504059 0 -43.63564411 0 -1797.25640473 0 12093
0.10550000 0.10551000 16160.23392992 0 -37.10932229 0 4952.19232670 0 487.59807147 0 -1088.77505013 0 12067
0.10650000 0.10649700 15995.78320972 0 186.90729222 0 4611.31959328 0 328.52600265 0 -1637.95390257 0 12054
0.10750000 0.10749900 15887.08611715 0 17.66625631 0 4954.85636092 0 363.13821439 0 -1394.53761099 0 12807
0.10850000 0.10850100 15960.59997293 0 199.70477308 0 4883.96157676 0 148.48000364 0 -614.34764912 0 12736
0.10950000 0.10950300 15986.34106311 0 195.80763947 0 5223.94629877 0 -14.64476940 0 -327.20859839 0 12933
0.11050000 0.11050200 15915.30015049 0 162.19359753 0 5667.80587418 0 -53.59418621 0 659.12815350 0 13428
0.11150000 0.11150900 15805.92861888 0 287.00865918 0 6399.59471807 0 160.95937408 0 1782.42998641 0 13453
0.11250000 0.11250000 15478.26365007 0 401.74872558 0 5691.80466349 0 121.72388270 0 1382.45391145 0 13668
0.11350000 0.11349100 15419.81226627 0 280.78021461 0 6524.10740622 0 881.94932481 0 2803.62062402 0 13791
0.11450000 0.11448600 15127.78016028 0 164.52153629 0 6062.02673597 0 764.36987003 0 2949.90645264 0 14205
0.11550000 0.11549300 15015.37365297 0 -128.74366908 0 5589.34613208 0 1592.54167361 0 3393.14779226 0 14776
0.11650000 0.11649800 15161.50211247 0 -221.13394964 0 4612.42117705 0 830.04224786 0 2720.58593707 0 14553
0.11750000 0.11747300 15415.20359947 0 -315.57227675 0 3992.97139657 0 755.15703269 0 2198.35654476 0 14568
0.11850000 0.11849100 15422.73483546 0 34.07164884 0 4389.99118039 0 -16.33176626 0 2366.50543905 0 16015
0.11950000 0.11950300 15539.07557052 0 328.87895909 0 4302.61760225 0 -709.89655253 0 1249.73554827 0 15270
0.12050000 0.12050700 14902.96714566 0 605.41245585 0 4283.47477406 0 -784.99871225 0 1390.41229217 0 15999
0.12150000 0.12150000 14464.01973461 0 562.07300289 0 4645.89583493 0 -236.43584748 0 599.02776624 0 15670
0.12250000 0.12250700 14049.46453565 0 472.73118682 0 4150.48663526 0 75.01616875 0 738.20613139 0 16887
0.12350000 0.12352200 13741.80792514 0 482.13623928 0 4715.77896052 0 467.72122879 0 416.75611837 0 16407
0.12450000 0.12449800 13295.89131065 0 365.81124113 0 3708.72906153 0 294.26899549 0 76.81647137 0 16306
0.12550000 0.12549900 13015.09985539 0 281.79299724 0 4069.71131911 0 448.60762628 0 459.47396335 0 17523
0.12650000 0.12650100 12741.16519707 0 50.03607063 0 3092.86504863 0 147.24465612 0 211.13876301 0 17154
0.12750000 0.12750600 12796.91882470 0 -12.83693554 0 3498.61881807 0 156.27651898 0 204.77093437 0 18007
0.12850000 0.12850300 12713.28838326 0 -33.99948386 0 3334.48283609 0 -7.74704524 0 -320.25288372 0 17496
0.12950000 0.12949900 12703.84623664 0 58.92394076 0 3096.41709426 0 -135.40038245 0 -603.93880654 0 18405
0.13050000 0.13049000 12834.91222417 0 84.83375310 0 3497.60715950 0 -337.29708242 0 -1159.75413917 0 18100
0.13150000 0.13148800 12750.04531115 0 64.34553142 0 3534.71254757 0 -152.88184246 0 -544.13966872 0 19059
0.13250000 0.13249300 12616.39397396 0 154.34762332 0 3466.22326266 0 -136.95833664 0 -1187.76584079 0 18957
0.13350000 0.13349100 12647.53057648 0 43.34709660 0 3762.60550049 0 -22.23142180 0 -872.87924373 0 19468
0.13450000 0.13450700 12754.76638446 0 -14.00888579 0 3326.09731065 0 322.26158800 0 -700.06772753 0 19953
0.13550000 0.13551000 12712.16431819 0 -68.09530010 0 3620.97330128 0 666.31992184 0 -796.39673210 0 19956
0.13650000 0.13649900 12795.79475962 0 66.04657909 0 3110.28805727 0 707.79792303 0 -240.65221556 0 19723
0.13750000 0.13749600 12583.00924129 0 106.61566127 0 2997.79162475 0 897.15567712 0 -132.89933766 0 20946
0.13850000 0.13851100 12328.85812826 0 416.98767578 0 2509.05937162 0 317.94630219 0 779.57172608 0 20955
0.13950000 0.13949800 12021.76355029 0 425.08094430 0 2562.27261218 0 498.78476708 0 749.86268620 0 20506
0.14050000 0.14048300 11714.44415930 0 424.49305827 0 2171.51387082 0 -144.59523474 0 1000.90238710 0 21447
0.14150000 0.14148400 11352.04557974 0 316.68510117 0 2570.78178478 0 -258.15053656 0 965.91923390 0 21771
0.14250000 0.14249400 11167.04695000 0 193.00759338 0 2472.03266811 0 -334.10698574 0 1130.86566679 0 22470
0.14350000 0.14350900 10997.51545568 0 34.60130830 0 2462.33198653 0 163.77403302 0 708.00250288 0 22519
0.14450000 0.14449900 10960.90465625 0 31.63254004 0 2547.52487842 0 41.04658502 0 800.04319919 0 22218
0.14550000 0.14550500 11102.98648149 0 -47.33584151 0 2405.90391986 0 311.82127160 0 675.88346748 0 23559
0.14650000 0.14650700 11056.45018746 0 62.49543271 0 2821.72931235 0 -10.28415004 0 394.24671528 0 23044
0.14750000 0.14750500 11069.59050817 0 99.67512148 0 2576.32342559 0 -5.34870628 0 1015.83896380 0 23649
0.14850000 0.14849900 10938.82801821 0 70.10872545 0 3197.98761427 0 -327.14789887 0 398.55188451 0 23640
0.14950000 0.14949500 11016.07377004 0 151.29578664 0 3175.21405589 0 -289.06457420 0 1045.95154304 0 24457
0.15050000 0.15050000 10820.77870424 0 171.66946609 0 3386.15610751 0 31.73719049 0 879.26842961 0 24591
0.15150000 0.15149900 10707.31557576 0 193.36054981 0 3089.23431845 0 -1.07208718 0 663.29731085 0 25020
0.15250000 0.15250500 10559.83823817 0 216.37353405 0 3323.65808944 0 277.96105941 0 557.70938228 0 25297
0.15350000 0.15350100 10340.15096028 0 213.88822617 0 3063.89789170 0 216.71749796 0 54.88281441 0 25452
0.15450000 0.15450400 10290.36611819 0 80.55376293 0 2897.76107389 0 71.05260290 0 314.64829526 0 26061
0.15550000 0.15549900 10147.09278398 0 189.91079410 0 2704.03969920 0 -108.36414449 0 67.74908805 0 26128
0.15650000 0.15649500 9971.37893175 0 148.59578234 0 2513.94905468 0 -49.04149785 0 32.16186228 0 26331
0.15750000 0.15749700 9865.80674008 0 220.87091841 0 2646.39764225 0 -73.30511690 0 -482.74211036 0 27345
0.15850000 0.15849900 9635.47456595 0 196.68553430 0 2382.80438261 0 280.98591852 0 -141.64343986 0 26980
0.15950000 0.15949700 9401.55662424 0 128.55932241 0 2258.52774812 0 283.54429062 0 -457.65185386 0 27777
0.16050000 0.16050000 9341.21681112 0 39.00213547 0 1887.08044472 0 561.07820530 0 -172.87446385 0 28224
0.16150000 0.16150500 9297.37827327 0 46.45277599 0 1770.76219095 0 563.10601869 0 -259.95016474 0 28075
0.16250000 0.16249700 9256.54098916 0 22.41059777 0 1058.34323641 0 501.70733627 0 -317.51803339 0 28590
0.16350000 0.16349900 9084.36794192 0 67.14467826 0 1492.30879105 0 412.71060817 0 157.17914324 0 29163
0.16450000 0.16449100 9046.02608227 0 19.71632620 0 884.05694682 0 253.53287724 0 -213.28685136 0 28996
0.16550000 0.16550500 9029.40115984 0 147.62459012 0 1157.30367731 0 7.33195049 0 133.58951361 0 30777
0.16650000 0.16650700 8829.18268902 0 195.80201915 0 1005.92021359 0 -245.20917537 0 -195.40747231 0 29211
0.16750000 0.16749900 8708.72787579 0 241.53460665 0 1330.67947419 0 -221.40147712 0 356.22296606 0 30922
0.16850000 0.16850800 8582.14690791 0 191.90488554 0 1365.04214347 0 -233.62456073 0 -33.64056988 0 30867
0.16950000 0.16949900 8489.18672636 0 120.49303145 0 1540.25016641 0 -181.82202183 0 184.66365834 0 30852
0.17050000 0.17049200 8502.02354950 0 -28.72480850 0 1726.75504334 0 -67.36364614 0 -22.40014396 0 31257
0.17150000 0.17149500 8574.73931907 0 -43.94363794 0 1607.80647731 0 111.92979131 0 140.63178130 0 32608
0.17250000 0.17250900 8705.42312447 0 10.67459404 0 1895.39852626 0 85.00719634 0 195.69523297 0 32361
0.17350000 0.17350400 8559.94662271 0 126.30669600 0 1603.04044140 0 77.71808397 0 66.02758239 0 32508
0.17450000 0.17449800 8538.36457331 0 193.04805972 0 1960.43693139 0 -35.74807949 0 331.94990487 0 32791
0.17550000 0.17549800 8294.72346871 0 245.69364742 0 1987.75171267 0 -210.70824608 0 179.69641478 0 33633
0.17650000 0.17650100 8264.23882393 0 227.34440916 0 2293.16019303 0 -268.53689783 0 410.36805656 0 33984
0.17750000 0.17750300 7973.99398141 0 170.17783174 0 2315.51784733 0 -177.69333082 0 185.88888927 0 34069
