### header ###
fiducial parameters:
Omega_m = 0.31
Omega_nu = 0
Omega_de = 0.69
Omega_k = 0
H_0 = 100
w_de = -1
zeff = 0
beta = 0
fgrowth = 0
b_1 = 2
gamma = 0.55
Lx = 3500 Ly = 3500 Lz = 3500
nx = 700 ny = 700 nz = 700
xoffset = 857.220397 yoffset = 15.9954215 zoffset = 262.898189
bins = 400 dk = 0.001
kx_ny = 0.628318531 ky_ny = 0.628318531 kz_ny = 0.628318531
############################
A(data) = 3.08605801 (not used)
A(ran) = 3.08566484 (used)
Ngal = 188480
weighted Ngal = 0
Nran = 9360983
weighted Nran = 0
SN(data) = 3450.02066
SN(ran) = 69.2924358
SN(data+ran) = 3519.3131
############################
13 columns: k_central k_mean P_0(k) sigma^{lin}_{P_0(k)} P^img_1(k) sigma^{lin}_{P_1(k)} P_2(k) sigma^{lin}_{P_2(k)} P^img_3(k) sigma^{lin}_{P_3(k)} P_4(k) sigma^{lin}_{P_4(k)} N_modes
### header ###
0.00050000 0 0 0 0 0 0 0 0 0 0 0 0
0.00150000 0.00179520 10613.11892263 0 -7115.54548508 0 10654.52947993 0 16311.53308876 0 179.75486616 0 3
0.00250000 0.00253879 25250.43576956 0 -9854.38623894 0 18109.25036016 0 -12899.54596587 0 5054.72954266 0 6
0.00350000 0.00331552 31946.94103604 0 -5584.62505877 0 25646.78111434 0 8897.00877553 0 22997.13492403 0 7
0.00450000 0.00420575 43605.96878724 0 -1242.58649441 0 40864.71129347 0 -4574.84368166 0 7177.71752427 0 24
0.00550000 0.00557378 53791.57204062 0 -8376.82518165 0 42209.87996645 0 24650.63464656 0 22009.98097683 0 45
0.00650000 0.00659388 64533.69991169 0 -3479.23993621 0 41331.98514436 0 42223.14393431 0 -29167.35292328 0 40
0.00750000 0.00754703 73139.42970483 0 -11374.41447469 0 12754.31675843 0 35324.30695468 0 -7093.65993811 0 57
0.00850000 0.00846663 78656.34108360 0 -6472.74887303 0 8103.92466321 0 24150.98772156 0 -18972.30752329 0 75
0.00950000 0.00948925 79481.74206678 0 2720.92315659 0 -8954.94308940 0 -10958.82513586 0 -3632.20271136 0 112
0.01050000 0.01054430 72791.64397122 0 6543.05914335 0 -7222.03941011 0 -11859.22374072 0 -20655.14534423 0 105
0.01150000 0.01145670 70969.08486169 0 6169.40867240 0 -9396.98167940 0 -21090.72056005 0 -2942.45390120 0 144
0.01250000 0.01249090 65017.16029963 0 1628.92766003 0 -2143.68201961 0 -12731.83545696 0 -6879.59298559 0 169
0.01350000 0.01339930 61614.50291685 0 945.57815234 0 -641.12287916 0 -12175.64805879 0 1915.51929107 0 180
0.01450000 0.01448870 66337.03750847 0 -1543.38630797 0 4272.04303227 0 2183.31655408 0 -10384.25927375 0 267
0.01550000 0.01550050 63690.53870036 0 4345.43324089 0 1089.91597618 0 -5955.90375242 0 -15149.47461619 0 238
0.01650000 0.01653350 64457.71311275 0 954.04798266 0 1117.20377989 0 2775.85621672 0 -11701.96703699 0 315
0.01750000 0.01747870 53692.76672070 0 2211.53058742 0 12891.78991687 0 -7387.89521164 0 -5619.62844515 0 297
0.01850000 0.01844180 62531.06557746 0 -1255.13106062 0 308.44570419 0 -553.38060768 0 -9715.18202029 0 388
0.01950000 0.01947590 64219.86094328 0 -1319.28145434 0 -619.79936472 0 -1391.08673121 0 -12305.58998125 0 399
0.02050000 0.02045430 62325.58648210 0 -2469.52600300 0 -3772.75580810 0 964.40849044 0 -6822.32187011 0 462
0.02150000 0.02154770 69607.50483865 0 -2777.23881676 0 1777.33797163 0 2308.50368127 0 2047.86671277 0 571
0.02250000 0.02255340 67149.73655632 0 -2048.37254206 0 -823.14835677 0 3834.95032859 0 -5780.49339776 0 510
0.02350000 0.02348930 76443.28176769 0 1903.97514277 0 14807.98364698 0 238.41195387 0 12861.32775339 0 555
0.02450000 0.02439640 66436.29245442 0 1119.60590695 0 5299.48347168 0 -1504.31380603 0 -7785.62315646 0 592
0.02550000 0.02547300 72351.57249510 0 4448.53248939 0 28673.77594969 0 -5539.24655177 0 21231.22869419 0 837
0.02650000 0.02652900 67916.57374918 0 4185.60242814 0 24966.94655813 0 -6918.40695256 0 8453.14920012 0 723
0.02750000 0.02749970 66289.03992984 0 5371.23254530 0 34767.10789794 0 -33.58121925 0 27205.07252517 0 826
0.02850000 0.02848090 63380.97117923 0 3457.28694533 0 43914.63705631 0 2643.56499826 0 17835.65292137 0 831
0.02950000 0.02946900 60769.54320141 0 961.90070126 0 34861.64177059 0 7429.22708438 0 20238.56682813 0 996
0.03050000 0.03053250 62391.23188237 0 -1528.40252054 0 35712.33421791 0 12918.43025910 0 14579.12399810 0 1041
0.03150000 0.03150510 61904.17448619 0 -2941.91434997 0 22464.77770541 0 9389.90006943 0 5355.46191232 0 1036
0.03250000 0.03246190 64103.29539520 0 -933.49332874 0 20713.48432152 0 8968.04968815 0 3164.64784420 0 1059
0.03350000 0.03345080 64762.67196708 0 717.80322625 0 16746.09664602 0 47.42048361 0 -5398.77213959 0 1302
0.03450000 0.03451200 59513.17566920 0 4010.03470438 0 13042.86426269 0 -6215.69767211 0 -5546.04714547 0 1339
0.03550000 0.03553350 58366.17966861 0 3223.86359225 0 15184.32063345 0 -4799.63421498 0 -8280.33543578 0 1365
0.03650000 0.03647120 56027.33747102 0 818.79934900 0 8814.10897639 0 5373.34578763 0 -4598.84247097 0 1308
0.03750000 0.03744890 56272.94568949 0 1082.21388230 0 13405.48765527 0 2388.90805595 0 -6393.88446750 0 1579
0.03850000 0.03847530 53788.98669095 0 880.31718232 0 10365.04900165 0 5887.58307728 0 -3005.63759896 0 1662
0.03950000 0.03950240 54145.87735166 0 2550.16643134 0 15727.01925074 0 2434.37648816 0 4388.81091206 0 1683
0.04050000 0.04050350 49898.03544042 0 1765.50156641 0 9752.90564414 0 3970.91723983 0 2244.52189731 0 1822
0.04150000 0.04152450 49642.53544931 0 698.46705886 0 14003.93990019 0 3901.58490612 0 13427.40692420 0 1887
0.04250000 0.04250150 46893.63431304 0 287.71007579 0 9609.13772129 0 -620.05789969 0 279.10985391 0 1920
0.04350000 0.04349210 49656.13663669 0 67.32306739 0 14910.94800767 0 759.92082047 0 6275.16071448 0 2005
0.04450000 0.04448520 46985.24561650 0 1377.06963975 0 8416.72949175 0 -3008.85242507 0 -4072.84746066 0 2151
0.04550000 0.04548030 44850.98326221 0 2504.07976334 0 10436.38217119 0 -4063.69757097 0 -3612.02574329 0 2274
0.04650000 0.04648670 43125.65578151 0 1933.61673875 0 10761.22573666 0 -3020.14927905 0 -6874.77074642 0 2311
0.04750000 0.04749250 41825.44971145 0 2444.78533074 0 12782.41838525 0 1937.88818602 0 -7272.37504408 0 2568
0.04850000 0.04851840 39706.02501612 0 1744.48154955 0 10375.44660358 0 4835.24459649 0 -5357.90113353 0 2493
0.04950000 0.04949480 38373.78309149 0 1204.52565103 0 11903.84912412 0 5444.26305310 0 1135.94644092 0 2644
0.05050000 0.05050630 37517.13309928 0 156.99142437 0 10878.72425875 0 7031.27432655 0 8334.69522271 0 2829
0.05150000 0.05149060 37308.16940219 0 445.89413320 0 9865.13230104 0 4811.26828848 0 9501.48600924 0 2784
0.05250000 0.05249300 37013.77675954 0 209.47627076 0 12092.69205640 0 3949.60496605 0 15497.03553679 0 3055
0.05350000 0.05348950 37169.79699169 0 905.59403362 0 10816.70958867 0 1062.48316807 0 14034.62687669 0 3009
0.05450000 0.05448610 36132.84696176 0 535.08982081 0 11555.05173194 0 -2502.97817957 0 15500.96976454 0 3336
0.05550000 0.05550870 36509.07154172 0 229.64761850 0 13114.24239483 0 -3085.49118175 0 10909.87210193 0 3349
0.05650000 0.05647670 35865.65669388 0 -408.60327440 0 11495.25147005 0 -2300.68018837 0 5653.38411930 0 3324
0.05750000 0.05747970 37761.61725268 0 487.64977847 0 14303.50324217 0 -3164.00712711 0 5030.95556637 0 3639
0.05850000 0.05849280 36546.61531516 0 913.97281468 0 14732.67128708 0 -2449.15794387 0 296.97799231 0 3846
0.05950000 0.05951020 36173.87533692 0 1322.76605607 0 16992.04208401 0 -284.50424220 0 2616.93589668 0 3787
0.06050000 0.06049470 35966.93495697 0 901.50468489 0 16495.87976074 0 697.49474257 0 26.43486314 0 3930
0.06150000 0.06148310 34927.39957736 0 550.26245117 0 16431.35842555 0 2034.26552539 0 1663.05427565 0 4083
0.06250000 0.06249100 34799.14375252 0 639.26929585 0 16738.67781653 0 2490.63594507 0 1612.17909044 0 4303
0.06350000 0.06350600 34087.83537427 0 146.92317351 0 14842.49244472 0 2426.49679200 0 2177.23536204 0 4470
0.06450000 0.06451750 32924.65283662 0 936.54628947 0 13684.70541943 0 625.89516961 0 903.73258186 0 4479
0.06550000 0.06550280 32692.42099252 0 419.62922870 0 10850.40905956 0 2840.87214054 0 -171.81559455 0 4636
0.06650000 0.06648880 30927.41401474 0 934.95686146 0 9999.66040899 0 1286.54867942 0 -393.51045266 0 4653
0.06750000 0.06749660 30189.01566822 0 1196.73588007 0 9451.31898503 0 772.50360490 0 -1302.53288476 0 5220
0.06850000 0.06852730 29081.36194519 0 1253.05154024 0 8311.25846594 0 759.27897932 0 70.69526261 0 5029
0.06950000 0.06949320 28176.60196785 0 735.99734352 0 10830.94025250 0 -66.80082676 0 -996.97940000 0 5040
0.07050000 0.07048030 28601.38615898 0 -78.05653996 0 8929.69658786 0 -138.88723230 0 -399.33535787 0 5475
0.07150000 0.07148790 28629.60019231 0 -407.56576233 0 11149.94992024 0 722.30735500 0 194.21708740 0 5509
0.07250000 0.07249820 28990.76230030 0 -215.45517289 0 10886.09812563 0 -771.40426926 0 -1013.83587984 0 5916
0.07350000 0.07351270 29755.80098905 0 74.35218351 0 12200.26508390 0 -254.83791679 0 1317.89885430 0 5721
0.07450000 0.07449140 29123.73919845 0 350.35759450 0 11200.61153309 0 1288.40338679 0 -1270.71060254 0 6028
0.07550000 0.07549160 29929.35663634 0 314.26274094 0 12461.49780688 0 2202.84156440 0 4667.56780954 0 6183
0.07650000 0.07648840 28759.31730175 0 92.09757401 0 7767.36833967 0 3272.68173838 0 1454.27042897 0 6330
0.07750000 0.07749960 29174.65934626 0 640.95876566 0 11562.92018745 0 2162.55507218 0 6916.42859803 0 6583
0.07850000 0.07848650 28138.94578790 0 849.96292909 0 7537.84549239 0 1052.92973901 0 2834.00410295 0 6549
0.07950000 0.07947320 27987.19700304 0 1276.44333441 0 12507.13484885 0 66.99146819 0 9802.29706345 0 6828
0.08050000 0.08048110 26363.48500494 0 1342.02129077 0 9077.16268480 0 -817.41337677 0 6185.68513466 0 7147
0.08150000 0.08149960 24949.41114299 0 1071.97027729 0 11091.13883562 0 -912.22826568 0 6191.66516085 0 7386
0.08250000 0.08250610 24480.00156846 0 864.50046268 0 10540.77409453 0 -903.85398089 0 3732.80653540 0 7227
0.08350000 0.08350160 23634.14260095 0 545.51215217 0 9615.07278488 0 628.73343392 0 1942.95771950 0 7798
0.08450000 0.08449610 22835.04474049 0 623.97751460 0 8314.04614732 0 222.25689064 0 1081.91263286 0 7371
0.08550000 0.08548940 22345.51440115 0 467.90220326 0 6857.57255081 0 639.56155277 0 -1279.01744343 0 8256
0.08650000 0.08650700 21605.76717655 0 580.76620506 0 6875.17540985 0 1205.70591936 0 -2106.74524130 0 8037
0.08750000 0.08749060 21086.56151928 0 367.27477385 0 6130.77455584 0 445.86940377 0 -2701.74660645 0 8155
0.08850000 0.08849210 20507.66800663 0 505.05817425 0 6899.41025283 0 -833.85170440 0 -2101.92300214 0 8718
0.08950000 0.08949900 20582.19352098 0 457.51809012 0 7216.09310587 0 -592.86901370 0 -2725.81283966 0 8571
0.09050000 0.09049190 20379.52458830 0 512.15214893 0 8637.02376477 0 -1290.22437220 0 -1611.27983838 0 8932
0.09150000 0.09150830 19946.53472214 0 149.53437667 0 8575.98703131 0 -1039.96027620 0 -1328.80228551 0 9285
0.09250000 0.09250820 20607.70979814 0 130.04646050 0 10206.25232877 0 25.02168853 0 -729.06635828 0 9204
0.09350000 0.09350330 20008.13348815 0 33.52737653 0 9297.10849765 0 1406.55386662 0 414.42255928 0 9349
0.09450000 0.09448040 20063.43748975 0 389.23563319 0 8829.62107440 0 1495.16391633 0 -1154.20125771 0 9564
0.09550000 0.09549270 19469.36909861 0 419.27514820 0 8176.76407994 0 1688.62675606 0 -68.13318109 0 10155
0.09650000 0.09649430 18813.58953497 0 570.67996916 0 6980.02819987 0 1740.89578196 0 -112.06557837 0 9913
0.09750000 0.09749140 18507.95624159 0 -57.62868057 0 6395.66049032 0 1275.79137667 0 693.56950734 0 10476
0.09850000 0.09850240 18453.32667904 0 8.71175161 0 5852.13006487 0 1023.04422091 0 1031.05318456 0 10575
0.09950000 0.09950330 18718.71844280 0 -21.58227422 0 5584.60257747 0 348.92553560 0 86.72454296 0 10882
0.10050000 0.10051200 18382.62298594 0 320.93856341 0 5399.34541278 0 -888.25195767 0 810.10582973 0 10875
0.10150000 0.10150300 18326.08251276 0 550.99084534 0 6118.66837500 0 -589.72949995 0 562.87333722 0 11118
0.10250000 0.10250800 17733.92503226 0 585.26471348 0 6193.51986822 0 -490.09799220 0 580.37390635 0 11575
0.10350000 0.10349800 17315.99763808 0 617.67263360 0 7182.84326101 0 137.99472463 0 605.11682674 0 11364
0.10450000 0.10450100 16780.04341122 0 305.59282703 0 6198.10605372 0 414.94075328 0 -161.37527815 0 12093
0.10550000 0.10551000 16497.79067137 0 178.52626304 0 6649.10344235 0 1274.15024166 0 -55.26668264 0 12067
0.10650000 0.10649700 16504.42265530 0 63.01149099 0 5626.06933802 0 1149.27785269 0 1160.19252455 0 12054
0.10750000 0.10749900 16261.39978650 0 -22.13508942 0 5545.55255683 0 1261.49326894 0 1136.29490109 0 12807
0.10850000 0.10850100 16206.65781744 0 26.44745267 0 4738.54127825 0 1194.30789952 0 1420.73956784 0 12736
0.10950000 0.10950300 16360.99195197 0 40.32336155 0 4303.93275839 0 406.86659386 0 1478.50527195 0 12933
0.11050000 0.11050200 15956.89055819 0 242.23489919 0 3767.25912989 0 38.62849624 0 825.14244821 0 13428
0.11150000 0.11150900 16026.47018622 0 186.35537627 0 3701.86102394 0 -210.11811192 0 1636.03175129 0 13453
0.11250000 0.11250000 16017.02803960 0 61.81627260 0 4298.88570621 0 -432.56496956 0 581.03598068 0 13668
0.11350000 0.11349100 16029.84238144 0 -32.83405319 0 3793.15758917 0 131.71007681 0 1307.65862149 0 13791
0.11450000 0.11448600 15913.83886589 0 38.43841683 0 3669.03832380 0 260.14912426 0 -43.09440677 0 14205
0.11550000 0.11549300 15985.32940454 0 134.67760860 0 3895.69480514 0 327.43453547 0 673.06543634 0 14776
0.11650000 0.11649800 15715.89100652 0 417.77452133 0 3489.21039341 0 84.43594647 0 -47.76737009 0 14553
0.11750000 0.11747300 15597.86417385 0 276.74482100 0 3661.27103415 0 283.63646396 0 637.89681240 0 14568
0.11850000 0.11849100 15097.43040330 0 229.86231493 0 4153.91503373 0 -172.85198255 0 415.37689053 0 16015
0.11950000 0.11950300 15198.14663385 0 167.58236549 0 3879.17104857 0 123.63704146 0 -133.22306840 0 15270
0.12050000 0.12050700 15000.64840051 0 157.71082602 0 4043.73417527 0 230.59857755 0 211.06682284 0 15999
0.12150000 0.12150000 14900.04457647 0 264.86682537 0 4093.15931653 0 -75.04348353 0 -205.24978609 0 15670
0.12250000 0.12250700 14621.72606437 0 310.81860556 0 4496.70991843 0 -318.70841831 0 71.66105932 0 16887
0.12350000 0.12352200 14601.94251908 0 437.58167198 0 4734.86558546 0 -551.93730813 0 -171.50310446 0 16407
0.12450000 0.12449800 14118.70694415 0 350.23169922 0 4590.77168374 0 -474.60163110 0 -99.98322772 0 16306
0.12550000 0.12549900 14018.10312011 0 430.84739813 0 5205.82636979 0 -220.17062587 0 -297.57599493 0 17523
0.12650000 0.12650100 13497.43617825 0 269.01574955 0 4736.14701965 0 17.31015250 0 -477.86816420 0 17154
0.12750000 0.12750600 13222.93948740 0 415.95016371 0 4933.45416193 0 70.52980023 0 -1061.52434056 0 18007
0.12850000 0.12850300 12933.49273108 0 225.11651219 0 4258.08214406 0 222.57162886 0 -1381.94808217 0 17496
0.12950000 0.12949900 12595.82358312 0 247.09310843 0 4442.59742581 0 455.72295820 0 -1267.41709187 0 18405
0.13050000 0.13049000 12492.74681592 0 86.94879394 0 4115.77550580 0 564.83820297 0 -966.51723652 0 18100
0.13150000 0.13148800 12353.81237288 0 -47.30661582 0 4054.31162761 0 836.24483894 0 -239.68889180 0 19059
0.13250000 0.13249300 12584.24571287 0 -102.35478021 0 3695.89223840 0 735.42744253 0 -181.91531924 0 18957
0.13350000 0.13349100 12618.86691712 0 -171.40531080 0 3431.38848605 0 993.95678902 0 759.35091948 0 19468
0.13450000 0.13450700 12878.30113599 0 -113.95322085 0 3770.05805192 0 497.77535665 0 1148.61465430 0 19953
0.13550000 0.13551000 12714.74966785 0 71.85192557 0 3167.42428493 0 391.27019097 0 1118.34245781 0 19956
0.13650000 0.13649900 12740.26594501 0 373.29639045 0 3285.97942819 0 -148.69132787 0 1260.89751445 0 19723
0.13750000 0.13749600 12116.07260992 0 465.85190857 0 3252.32491990 0 -416.81569382 0 547.22185515 0 20946
0.13850000 0.13851100 11910.93073408 0 387.80132615 0 3291.03772102 0 45.79463589 0 791.49805651 0 20955
0.13950000 0.13949800 11628.79040073 0 217.99555995 0 3245.68169532 0 36.53402579 0 382.19224144 0 20506
0.14050000 0.14048300 11305.62169222 0 285.49341946 0 3105.62318721 0 201.60331899 0 410.13874729 0 21447
0.14150000 0.14148400 11135.43824015 0 165.79959828 0 3344.17227702 0 57.76098303 0 106.07914501 0 21771
0.14250000 0.14249400 11111.51813539 0 233.30982251 0 3365.03492478 0 -94.78600044 0 679.19383912 0 22470
0.14350000 0.14350900 11053.08923289 0 78.14208131 0 3773.46396909 0 13.12008753 0 860.00645052 0 22519
0.14450000 0.14449900 11068.81490327 0 94.57242808 0 3810.51315390 0 -296.70484450 0 1153.18959914 0 22218
0.14550000 0.14550500 11074.90733596 0 -31.48787286 0 4062.14636117 0 -84.96054764 0 1289.39256405 0 23559
0.14650000 0.14650700 11096.88280814 0 57.30742278 0 4039.47396864 0 268.50542401 0 1094.78767421 0 23044
0.14750000 0.14750500 11103.21129450 0 12.09010671 0 4302.47147379 0 172.70360596 0 1316.93215834 0 23649
0.14850000 0.14849900 10976.70901118 0 84.11154129 0 3466.56048218 0 535.86205352 0 643.69811224 0 23640
0.14950000 0.14949500 10912.53613615 0 99.92252820 0 3533.36366948 0 409.05177636 0 1040.67742972 0 24457
0.15050000 0.15050000 10673.04283168 0 169.67200246 0 2772.03439547 0 314.91694681 0 293.49339059 0 24591
0.15150000 0.15149900 10533.90605693 0 182.26377941 0 2910.37308401 0 369.03505976 0 429.55135110 0 25020
0.15250000 0.15250500 10296.87445497 0 259.95128880 0 2375.27314662 0 -65.27097419 0 -252.46164322 0 25297
0.15350000 0.15350100 10045.71335503 0 257.47609751 0 2758.47817069 0 -130.34995807 0 398.33831215 0 25452
0.15450000 0.15450400 9898.24725809 0 203.03987415 0 2912.48632635 0 -170.43299451 0 522.06078255 0 26061
0.15550000 0.15549900 9718.57669681 0 132.43397472 0 3219.87316124 0 30.66989071 0 774.56289212 0 26128
0.15650000 0.15649500 10032.96645710 0 -45.60770387 0 3253.68503864 0 113.17649188 0 942.92648283 0 26331
0.15750000 0.15749700 10030.83073347 0 -60.99177087 0 3530.85700437 0 89.86473115 0 941.52589775 0 27345
0.15850000 0.15849900 10182.50083378 0 96.01314228 0 3458.06255023 0 -81.80248682 0 1453.67467448 0 26980
0.15950000 0.15949700 10086.15721636 0 81.37118305 0 3523.69670985 0 14.98052764 0 1272.59903186 0 27777
0.16050000 0.16050000 9999.14333905 0 115.49319000 0 3161.03959532 0 205.61735537 0 1249.69058567 0 28224
0.16150000 0.16150500 9894.74017507 0 105.72641339 0 3122.09074053 0 300.90547568 0 914.54496380 0 28075
0.16250000 0.16249700 9717.93597972 0 177.77988383 0 2749.80038832 0 347.67894743 0 631.46266392 0 28590
0.16350000 0.16349900 9419.40677760 0 235.50512160 0 2485.81370591 0 242.52265985 0 540.80344358 0 29163
0.16450000 0.16449100 9242.23164078 0 301.20110479 0 2378.20695646 0 43.02381549 0 322.53585988 0 28996
0.16550000 0.16550500 9047.22883190 0 203.09495334 0 2315.47288473 0 -72.09247550 0 523.64009398 0 30777
0.16650000 0.16650700 8771.52939142 0 136.59189142 0 2440.09797938 0 -66.33152959 0 115.28074170 0 29211
0.16750000 0.16749900 8899.78521626 0 -30.99114850 0 2297.11690208 0 2.16254383 0 322.10759109 0 30922
0.16850000 0.16850800 8873.92047893 0 -54.72668177 0 2438.14210615 0 151.88592081 0 49.80923430 0 30867
0.16950000 0.16949900 8985.74247240 0 48.12740814 0 2111.51127721 0 -74.54192570 0 43.82280094 0 30852
0.17050000 0.17049200 8882.04746941 0 58.25040097 0 2061.05199608 0 43.21884078 0 -208.19596064 0 31257
0.17150000 0.17149500 8715.43854427 0 181.55224622 0 1937.29243153 0 110.91610943 0 -387.63159233 0 32608
0.17250000 0.17250900 8618.47669107 0 211.66482546 0 1694.08971232 0 342.54421818 0 -119.71630248 0 32361
0.17350000 0.17350400 8256.12307410 0 206.45928011 0 1743.00902430 0 357.99112042 0 -440.69982849 0 32508
0.17450000 0.17449800 8278.24467474 0 264.45204536 0 1424.32533543 0 95.98166846 0 -452.52611713 0 32791
0.17550000 0.17549800 7957.24541182 0 231.47759644 0 1428.66422661 0 -133.55129540 0 -580.19068374 0 33633
0.17650000 0.17650100 7819.10905498 0 166.26046496 0 1766.53570628 0 -271.49880930 0 4.44638553 0 33984
0.17750000 0.17750300 7807.63235059 0 82.24267070 0 1869.38766047 0 -194.09119211 0 -109.66109078 0 34069
0.17850000 0.17849800 7712.42403890 0 -52.21102414 0 1778.99034729 0 144.17933067 0 -35.24629684 0 34536
