### header ###
fiducial parameters:
Omega_m = 0.31
Omega_nu = 0
Omega_de = 0.69
Omega_k = 0
H_0 = 100
w_de = -1
zeff = 0
beta = 0
fgrowth = 0
b_1 = 2
gamma = 0.55
Lx = 3500 Ly = 3500 Lz = 3500
nx = 700 ny = 700 nz = 700
xoffset = 857.220397 yoffset = 15.9954215 zoffset = 262.898189
bins = 400 dk = 0.001
kx_ny = 0.628318531 ky_ny = 0.628318531 kz_ny = 0.628318531
############################
A(data) = 3.053569 (not used)
A(ran) = 3.05757911 (used)
Ngal = 186315
weighted Ngal = 0
Nran = 9360983
weighted Nran = 0
SN(data) = 3432.75774
SN(ran) = 68.6617359
SN(data+ran) = 3501.41948
############################
13 columns: k_central k_mean P_0(k) sigma^{lin}_{P_0(k)} P^img_1(k) sigma^{lin}_{P_1(k)} P_2(k) sigma^{lin}_{P_2(k)} P^img_3(k) sigma^{lin}_{P_3(k)} P_4(k) sigma^{lin}_{P_4(k)} N_modes
### header ###
0.00050000 0 0 0 0 0 0 0 0 0 0 0 0
0.00150000 0.00179520 296.24510189 0 -2516.24214743 0 2430.20620674 0 1002.95043367 0 7451.21379721 0 3
0.00250000 0.00253879 1018.11744370 0 -2424.63084398 0 1341.94260622 0 3609.46287493 0 -13995.73422516 0 6
0.00350000 0.00331552 8592.22977161 0 -5941.13353736 0 10666.19727538 0 4199.75440741 0 3973.08668542 0 7
0.00450000 0.00420575 16149.44290521 0 -9485.14210308 0 5510.09954443 0 7122.22243162 0 -8632.62867034 0 24
0.00550000 0.00557378 36352.15205752 0 -7516.36460885 0 24905.57260514 0 -6245.32802744 0 -5945.75344481 0 45
0.00650000 0.00659388 41582.08962313 0 -8785.27670727 0 -283.33633859 0 -8616.17235767 0 -45691.67153038 0 40
0.00750000 0.00754703 59703.70469909 0 -7795.96455513 0 53112.86154948 0 -21131.63652871 0 2454.32864321 0 57
0.00850000 0.00846663 65828.17324987 0 -6314.62663920 0 30068.74070540 0 -14465.14379968 0 -31682.33611784 0 75
0.00950000 0.00948925 84450.10968988 0 -12771.62736055 0 70876.79911919 0 -5089.94650140 0 -15772.99351223 0 112
0.01050000 0.01054430 89595.29274897 0 -11302.47431001 0 38254.51978723 0 -4624.78589285 0 -44155.29938846 0 105
0.01150000 0.01145670 97384.72648603 0 -3248.80659622 0 44446.99427493 0 -1614.75319946 0 -52201.13236869 0 144
0.01250000 0.01249090 94843.10294925 0 3494.04387322 0 24866.23032758 0 -4782.50346326 0 -53163.44447777 0 169
0.01350000 0.01339930 88257.76771849 0 10779.81777297 0 4501.28486327 0 -115.64831098 0 -63340.28002358 0 180
0.01450000 0.01448870 80613.11356285 0 5694.50241967 0 -3576.43784308 0 -3074.46410339 0 -43020.55569717 0 267
0.01550000 0.01550050 74436.71320570 0 4744.97093047 0 -18585.74154465 0 -6302.91388114 0 -52855.90027377 0 238
0.01650000 0.01653350 68209.05548121 0 -1226.88330534 0 -21233.70163735 0 10277.33820400 0 -35742.23434885 0 315
0.01750000 0.01747870 74136.47542467 0 -2734.92900741 0 -25576.75186028 0 5967.89752675 0 -40973.40838604 0 297
0.01850000 0.01844180 70468.76349766 0 -1795.76139818 0 -32641.38843820 0 4731.23485528 0 -13123.01010240 0 388
0.01950000 0.01947590 75861.57809236 0 -2726.77953563 0 -21880.93830644 0 2926.18867959 0 -11489.40633167 0 399
0.02050000 0.02045430 80853.32626898 0 -1455.55186316 0 -19166.54596792 0 143.49140284 0 -923.85447073 0 462
0.02150000 0.02154770 79531.08852349 0 2801.33877192 0 -558.77499597 0 -9925.74188978 0 7683.62549172 0 571
0.02250000 0.02255340 80919.30888877 0 10582.22961442 0 809.16386320 0 -17217.75435069 0 8757.78207558 0 510
0.02350000 0.02348930 68781.31700992 0 10747.43345822 0 19541.75888932 0 -18062.60165963 0 13060.84930386 0 555
0.02450000 0.02439640 63227.08667072 0 8679.29985217 0 27488.22451709 0 -16039.05971504 0 -4782.95308929 0 592
0.02550000 0.02547300 60962.65758096 0 2697.47515917 0 40728.92423264 0 -10029.93148141 0 1853.71819335 0 837
0.02650000 0.02652900 59419.76586163 0 -798.78537038 0 42709.07726542 0 -6430.81000515 0 -18942.85701837 0 723
0.02750000 0.02749970 62523.64674798 0 -436.46097910 0 52022.96805461 0 -2894.04041850 0 -5068.47685851 0 826
0.02850000 0.02848090 61638.78272243 0 -85.80191035 0 44955.85853353 0 -58.28277404 0 -28151.19809720 0 831
0.02950000 0.02946900 62533.53852062 0 940.77052602 0 52368.16843856 0 938.45607603 0 -9559.89243044 0 996
0.03050000 0.03053250 63270.70039556 0 -1369.27986880 0 47040.99924412 0 2726.21750309 0 -20062.20101817 0 1041
0.03150000 0.03150510 64122.62931446 0 -1041.32826339 0 49685.02510907 0 3156.07122769 0 -24072.07835343 0 1036
0.03250000 0.03246190 64843.82946536 0 -677.23122150 0 40765.45634752 0 142.99681421 0 -17423.57066557 0 1059
0.03350000 0.03345080 66023.19854006 0 240.06320547 0 44328.29300321 0 -2617.76770484 0 -29638.67340843 0 1302
0.03450000 0.03451200 65348.64708969 0 1984.39075810 0 44692.82730642 0 -3587.73469706 0 -19870.21070368 0 1339
0.03550000 0.03553350 62442.48924970 0 1505.24678004 0 38351.86382256 0 3445.03463603 0 -29812.79108826 0 1365
0.03650000 0.03647120 62526.00728463 0 3116.58282167 0 36002.68022629 0 5230.19610058 0 -21672.53664189 0 1308
0.03750000 0.03744890 56970.20325433 0 3713.94472347 0 30794.09989707 0 12517.47624752 0 -26190.60379670 0 1579
0.03850000 0.03847530 52963.24848825 0 3942.73692845 0 25585.51956785 0 12913.93399881 0 -17591.95561352 0 1662
0.03950000 0.03950240 48186.75877313 0 3496.03346840 0 13145.49140386 0 12009.73605401 0 -13544.42209831 0 1683
0.04050000 0.04050350 43764.23714953 0 3402.56745757 0 12814.22942682 0 9960.02587451 0 -13211.24921064 0 1822
0.04150000 0.04152450 40800.52717780 0 1620.62081914 0 4721.08454767 0 6145.64593676 0 -3954.93303449 0 1887
0.04250000 0.04250150 38275.65221061 0 1844.65822886 0 5984.98331586 0 2693.50720946 0 -6457.31545958 0 1920
0.04350000 0.04349210 38304.99030901 0 258.02688940 0 3528.30537665 0 409.11697214 0 1635.45847811 0 2005
0.04450000 0.04448520 37569.40212518 0 -93.23231770 0 7561.50706218 0 -1575.65821622 0 -4083.60476341 0 2151
0.04550000 0.04548030 40053.58593673 0 -1069.74687657 0 9209.62251301 0 -2692.45058829 0 2127.47300125 0 2274
0.04650000 0.04648670 40980.26518299 0 -97.60268270 0 11870.91401748 0 -3667.75688962 0 -1745.42576421 0 2311
0.04750000 0.04749250 41711.13229352 0 -819.66375504 0 9775.78036838 0 -1545.43210640 0 -2703.59007317 0 2568
0.04850000 0.04851840 42801.81263395 0 -641.97379642 0 12053.34977884 0 -388.25882064 0 -1367.75114030 0 2493
0.04950000 0.04949480 42665.01391455 0 -480.19160671 0 8930.30358300 0 1651.89230947 0 -8694.66582172 0 2644
0.05050000 0.05050630 44506.68213032 0 -213.86124861 0 11868.55348082 0 -454.37070791 0 -6197.95992526 0 2829
0.05150000 0.05149060 42014.62986325 0 2190.26327624 0 7566.67776152 0 -670.43400000 0 -14283.04525784 0 2784
0.05250000 0.05249300 41204.29135206 0 2566.31924644 0 12071.44722652 0 -2420.97763249 0 -5880.29913560 0 3055
0.05350000 0.05348950 38217.65045283 0 1817.02870936 0 10867.38244217 0 -4100.20720454 0 -11021.08710026 0 3009
0.05450000 0.05448610 38467.97974461 0 755.81348670 0 14590.25224232 0 1064.24457804 0 -3956.19198738 0 3336
0.05550000 0.05550870 37237.35330258 0 439.59936879 0 13348.38514956 0 147.82130150 0 -5241.42551066 0 3349
0.05650000 0.05647670 38043.64517952 0 690.39177538 0 16710.46378320 0 1499.34543840 0 -3690.58665125 0 3324
0.05750000 0.05747970 36781.32010243 0 1420.24497921 0 16373.35666778 0 -579.37348843 0 -3809.16427581 0 3639
0.05850000 0.05849280 36054.38721965 0 1573.84847145 0 17276.99258004 0 -830.84707846 0 -3391.63030441 0 3846
0.05950000 0.05951020 34721.58326248 0 1264.96663001 0 17884.54975205 0 -349.51679383 0 -2206.59594175 0 3787
0.06050000 0.06049470 34100.42490309 0 353.40493492 0 17396.70551033 0 584.93985867 0 -4727.10953646 0 3930
0.06150000 0.06148310 34176.97373456 0 347.73627475 0 18452.09020746 0 1770.35752753 0 -50.56112143 0 4083
0.06250000 0.06249100 33232.30944713 0 586.26850359 0 14323.62400698 0 4258.76782375 0 -3509.84822815 0 4303
0.06350000 0.06350600 32175.23865239 0 1095.18784137 0 13972.80329767 0 3004.26623957 0 302.89057460 0 4470
0.06450000 0.06451750 30949.10847065 0 1242.53029115 0 11503.68195810 0 1395.90897038 0 -2057.99453908 0 4479
0.06550000 0.06550280 30407.98354446 0 1040.26714596 0 12300.64409492 0 998.51936915 0 699.98791891 0 4636
0.06650000 0.06648880 29038.53506591 0 889.33780453 0 12721.60646480 0 -1089.85640073 0 414.90253507 0 4653
0.06750000 0.06749660 28929.38834731 0 131.62015160 0 12281.42258217 0 -662.76562808 0 -690.17820301 0 5220
0.06850000 0.06852730 28971.76560056 0 -154.92988903 0 12814.67905285 0 -52.25452546 0 -751.02384542 0 5029
0.06950000 0.06949320 28859.13428024 0 -223.61925751 0 11663.74882451 0 1264.52824463 0 -3147.33724207 0 5040
0.07050000 0.07048030 29432.07024800 0 -371.70021805 0 10823.51018236 0 1850.85182741 0 -3014.50647239 0 5475
0.07150000 0.07148790 29217.59863205 0 -21.91083844 0 10268.77282814 0 2637.48380622 0 -4840.73003405 0 5509
0.07250000 0.07249820 29634.28955465 0 -350.76338200 0 8367.87762367 0 640.85759980 0 -5057.00015411 0 5916
0.07350000 0.07351270 29250.08411266 0 9.17966618 0 7794.17729166 0 1008.73936879 0 -5110.97775892 0 5721
0.07450000 0.07449140 29480.96707868 0 602.77539919 0 8464.43481345 0 -1250.92705725 0 -6134.54017384 0 6028
0.07550000 0.07549160 28510.44929456 0 1088.96951339 0 9304.75214015 0 -1132.46183920 0 -4887.78339801 0 6183
0.07650000 0.07648840 27868.49573132 0 1391.30030358 0 10091.18178724 0 -2152.10126700 0 -4143.71976352 0 6330
0.07750000 0.07749960 26914.83892330 0 1222.71302391 0 11086.22667125 0 -448.21083131 0 -4567.30120502 0 6583
0.07850000 0.07848650 26294.35500295 0 446.69896379 0 11466.92503021 0 291.65779232 0 -4749.79316963 0 6549
0.07950000 0.07947320 25992.65593733 0 -92.85406980 0 10647.03196589 0 1299.08200498 0 -3013.19131625 0 6828
0.08050000 0.08048110 26523.43946485 0 -434.90527304 0 10383.67475991 0 1872.01797274 0 -4155.76974110 0 7147
0.08150000 0.08149960 25873.16782006 0 -74.72087686 0 8427.79029207 0 1455.00107127 0 -2862.49915255 0 7386
0.08250000 0.08250610 26494.66339898 0 150.47971540 0 8611.08034289 0 678.65878414 0 -3885.22975931 0 7227
0.08350000 0.08350160 25651.72700066 0 446.80799810 0 7554.83011565 0 1776.21390656 0 -1658.36692430 0 7798
0.08450000 0.08449610 24893.99473488 0 737.36308259 0 7501.20097101 0 656.89238807 0 -545.97976324 0 7371
0.08550000 0.08548940 24773.15773952 0 649.69275128 0 7049.55162464 0 1691.17838378 0 -930.43362361 0 8256
0.08650000 0.08650700 24022.95670974 0 679.96719589 0 7504.68557274 0 1332.25316529 0 358.93533508 0 8037
0.08750000 0.08749060 23332.55594184 0 1104.88739889 0 5357.60887661 0 2257.88703103 0 1447.02020925 0 8155
0.08850000 0.08849210 21867.67433858 0 957.28753820 0 5715.21893897 0 2109.91510481 0 3011.58390320 0 8718
0.08950000 0.08949900 21624.98868930 0 828.82151319 0 3623.73850136 0 1041.65424226 0 4223.78691868 0 8571
0.09050000 0.09049190 20846.23640665 0 381.56388906 0 4490.26902556 0 2160.38562659 0 3907.28391604 0 8932
0.09150000 0.09150830 19910.67704631 0 645.57530091 0 3901.65235003 0 393.31936160 0 3825.59810718 0 9285
0.09250000 0.09250820 19842.89592240 0 531.37703388 0 4018.65628349 0 -556.65725737 0 4216.79523392 0 9204
0.09350000 0.09350330 19098.98965703 0 785.08526526 0 5390.91492473 0 -1235.93202917 0 5128.17595454 0 9349
0.09450000 0.09448040 18966.79960443 0 660.18027841 0 5607.75831798 0 -1344.53919654 0 4856.83788655 0 9564
0.09550000 0.09549270 18464.11770374 0 33.08899115 0 5911.45821943 0 25.14252552 0 4659.30593125 0 10155
0.09650000 0.09649430 18296.06997531 0 101.12606468 0 6216.85545914 0 265.15233790 0 4600.35995882 0 9913
0.09750000 0.09749140 18582.70656895 0 -15.25963299 0 5379.50566423 0 1024.66961901 0 3185.29691959 0 10476
0.09850000 0.09850240 18388.69293734 0 37.92797888 0 5696.46953355 0 424.65717177 0 2786.17513409 0 10575
0.09950000 0.09950330 18466.36583389 0 132.27885374 0 4963.09575791 0 -128.37497574 0 3134.56786284 0 10882
0.10050000 0.10051200 18274.15070639 0 -9.76666420 0 4696.33263476 0 -153.25840426 0 1751.01236762 0 10875
0.10150000 0.10150300 18499.97537957 0 74.49347849 0 4610.37537862 0 -402.97283245 0 2019.28173797 0 11118
0.10250000 0.10250800 18298.09329244 0 14.77999443 0 4473.65534378 0 -128.74591721 0 877.92629591 0 11575
0.10350000 0.10349800 18524.70481118 0 261.07085762 0 5015.49967161 0 -1191.43029293 0 -179.68742226 0 11364
0.10450000 0.10450100 18033.03874821 0 335.11639618 0 4887.76091671 0 -458.47354543 0 -661.96754187 0 12093
0.10550000 0.10551000 17928.05107038 0 382.38220844 0 5370.52438430 0 -981.55835126 0 -916.36819735 0 12067
0.10650000 0.10649700 17413.45407991 0 363.19778983 0 5762.78937286 0 -121.12025976 0 -765.69963901 0 12054
0.10750000 0.10749900 17419.52403131 0 315.99267709 0 5584.18667340 0 555.37357506 0 -1410.80283260 0 12807
0.10850000 0.10850100 16967.76227843 0 279.94166206 0 5489.05704626 0 1102.64488907 0 -1008.71576343 0 12736
0.10950000 0.10950300 16677.64108306 0 462.39878067 0 4735.05667653 0 1240.12479190 0 -1157.48352772 0 12933
0.11050000 0.11050200 16009.38439711 0 639.30526593 0 4631.97990932 0 722.88287631 0 -1723.75378960 0 13428
0.11150000 0.11150900 15673.96337929 0 544.34762075 0 4537.36735212 0 260.26153077 0 -484.70472798 0 13453
0.11250000 0.11250000 14998.40027036 0 465.11789408 0 4774.42143539 0 -149.68837359 0 -424.16820346 0 13668
0.11350000 0.11349100 15047.63432056 0 190.70438404 0 4857.86078576 0 70.06275119 0 177.73941749 0 13791
0.11450000 0.11448600 14958.38355376 0 -64.97129844 0 4991.78189857 0 -77.55531934 0 -59.35310880 0 14205
0.11550000 0.11549300 15128.79181884 0 -48.72215097 0 5023.12083281 0 -291.60608533 0 107.78300285 0 14776
0.11650000 0.11649800 15132.61364009 0 12.63685196 0 5438.42915537 0 -159.11253516 0 44.63100373 0 14553
0.11750000 0.11747300 15246.03180597 0 96.41769330 0 5205.59031612 0 -423.46791092 0 -178.21489701 0 14568
0.11850000 0.11849100 15119.79929826 0 207.56311201 0 4923.60735189 0 389.91344443 0 -442.71415311 0 16015
0.11950000 0.11950300 14964.67831817 0 112.15303064 0 4697.81640065 0 530.21924685 0 -917.04263639 0 15270
0.12050000 0.12050700 14766.61805229 0 188.29663666 0 4061.37075627 0 538.09444675 0 -910.37355831 0 15999
0.12150000 0.12150000 14442.66249822 0 248.17783123 0 4153.22935404 0 434.10269058 0 -904.42613001 0 15670
0.12250000 0.12250700 14347.11696701 0 208.28251365 0 3771.40693001 0 234.75761832 0 -534.38278388 0 16887
0.12350000 0.12352200 14235.72211826 0 193.89110852 0 4008.88815800 0 -41.24475769 0 -108.88402459 0 16407
0.12450000 0.12449800 14063.17812954 0 205.00249177 0 4472.62120391 0 -2.47847356 0 -123.79216244 0 16306
0.12550000 0.12549900 13861.40844892 0 278.11056006 0 4730.98756096 0 -410.38491754 0 246.44901915 0 17523
0.12650000 0.12650100 13869.05209142 0 162.75450600 0 5588.53680523 0 -360.57197382 0 940.17477153 0 17154
0.12750000 0.12750600 13759.11852727 0 202.11027234 0 5370.24336803 0 187.12985711 0 700.01939273 0 18007
0.12850000 0.12850300 13587.47379061 0 -36.30640261 0 5375.15553240 0 674.70994354 0 634.74718206 0 17496
0.12950000 0.12949900 13866.57914826 0 -64.60743858 0 5169.82256550 0 851.75581288 0 1021.67960592 0 18405
0.13050000 0.13049000 13693.13590748 0 42.58430604 0 4874.04732281 0 588.14906446 0 491.47497191 0 18100
0.13150000 0.13148800 13648.96015011 0 60.10904256 0 4284.54263588 0 357.37513276 0 1615.76485802 0 19059
0.13250000 0.13249300 13567.46543231 0 206.35361799 0 4087.06688384 0 349.84502083 0 197.19023951 0 18957
0.13350000 0.13349100 13413.24370428 0 336.33038646 0 3970.19783819 0 -373.24805565 0 797.74898238 0 19468
0.13450000 0.13450700 12965.64099217 0 348.20500989 0 4157.65817043 0 -76.49352748 0 221.04964476 0 19953
0.13550000 0.13551000 12727.56400969 0 386.29845115 0 4405.69436946 0 -87.59614302 0 390.17310346 0 19956
0.13650000 0.13649900 12393.94149599 0 228.07392740 0 4139.80801707 0 48.94010719 0 -105.05444729 0 19723
0.13750000 0.13749600 12228.81633675 0 238.22648314 0 4007.53927991 0 341.04696350 0 110.04945526 0 20946
0.13850000 0.13851100 12124.84031749 0 182.71003324 0 4012.21539062 0 350.00463807 0 757.78622090 0 20955
0.13950000 0.13949800 11942.96658866 0 255.11443680 0 3874.98952649 0 631.76278929 0 847.93511570 0 20506
0.14050000 0.14048300 11913.62849026 0 295.13789779 0 3976.90850667 0 226.75090281 0 1310.61491263 0 21447
0.14150000 0.14148400 11329.56427827 0 332.86939010 0 3268.47773500 0 59.12301268 0 958.66676605 0 21771
0.14250000 0.14249400 11366.54601918 0 256.66901879 0 3931.00168909 0 193.12337208 0 1576.92840975 0 22470
0.14350000 0.14350900 10901.82379601 0 158.98551581 0 3371.29596724 0 17.67648531 0 1222.72426457 0 22519
0.14450000 0.14449900 10944.02119885 0 177.11668544 0 3464.39103659 0 542.96502071 0 903.25148201 0 22218
0.14550000 0.14550500 10535.04136265 0 112.43685707 0 2860.94794275 0 130.49046621 0 437.10619246 0 23559
0.14650000 0.14650700 10562.90693582 0 158.46394962 0 2655.95219537 0 224.78940925 0 -50.78683369 0 23044
0.14750000 0.14750500 10244.58294777 0 133.27927165 0 2254.64972362 0 154.96023878 0 -70.46685259 0 23649
0.14850000 0.14849900 10370.38831075 0 78.66263585 0 2420.96639184 0 16.50408544 0 -79.27862351 0 23640
0.14950000 0.14949500 10181.07327114 0 -81.27057922 0 2111.36514875 0 172.07412952 0 -223.58665963 0 24457
0.15050000 0.15050000 10284.21748224 0 18.29404666 0 2275.86083155 0 241.79201755 0 -220.27741205 0 24591
0.15150000 0.15149900 10240.25529723 0 6.04889766 0 1910.24742588 0 460.36085069 0 -219.13648600 0 25020
0.15250000 0.15250500 10225.35019437 0 87.65909066 0 1933.50433224 0 123.10311055 0 -181.23301174 0 25297
0.15350000 0.15350100 10180.08409387 0 80.36424556 0 2017.48323385 0 -48.36020201 0 -79.47151307 0 25452
0.15450000 0.15450400 10114.49489686 0 153.19995288 0 1956.64883209 0 -297.66592014 0 -49.75336827 0 26061
0.15550000 0.15549900 10011.71038657 0 156.67443802 0 2232.38199452 0 -471.70716354 0 -291.38127231 0 26128
0.15650000 0.15649500 9969.13080160 0 214.29963399 0 2617.66653898 0 -580.88535596 0 -151.14516192 0 26331
0.15750000 0.15749700 9872.74222158 0 225.72125920 0 2746.27082399 0 -461.91206049 0 -150.20094726 0 27345
0.15850000 0.15849900 9783.35656697 0 257.71215118 0 3365.73184513 0 -167.48794402 0 209.49425580 0 26980
0.15950000 0.15949700 9610.65520914 0 121.32483960 0 3231.18125588 0 158.18967774 0 324.48948498 0 27777
0.16050000 0.16050000 9443.77650839 0 166.63590270 0 3537.27541593 0 289.14663095 0 343.34342845 0 28224
0.16150000 0.16150500 9387.68566124 0 125.30627809 0 3337.93371587 0 567.96984827 0 304.90714734 0 28075
0.16250000 0.16249700 9048.10560266 0 192.66924979 0 3217.83860346 0 261.47327291 0 483.17824761 0 28590
0.16350000 0.16349900 9065.29255763 0 182.08617713 0 2886.43049796 0 264.42506780 0 377.50826228 0 29163
0.16450000 0.16449100 8659.93221096 0 169.37412521 0 2553.51614526 0 236.66403269 0 -312.80482854 0 28996
0.16550000 0.16550500 8655.37974742 0 59.20203446 0 2258.34789771 0 152.43896082 0 -337.83550959 0 30777
0.16650000 0.16650700 8452.53096433 0 71.39364424 0 1826.48209663 0 -3.79800231 0 -911.36273558 0 29211
0.16750000 0.16749900 8598.33344496 0 -88.33521580 0 1618.81107437 0 131.38747013 0 -907.26664245 0 30922
0.16850000 0.16850800 8606.64028585 0 4.66267813 0 1707.08390456 0 -54.20601483 0 -1117.55898446 0 30867
0.16950000 0.16949900 8696.93643317 0 36.97409726 0 1587.92176616 0 -135.32956635 0 -959.15348622 0 30852
0.17050000 0.17049200 8659.58375079 0 125.49624509 0 2312.70768465 0 -340.68164235 0 -732.52735464 0 31257
0.17150000 0.17149500 8642.82394055 0 208.29150618 0 2344.41756036 0 -332.17471788 0 -347.27990433 0 32608
0.17250000 0.17250900 8570.42290919 0 177.72705277 0 2996.53267187 0 -3.89948290 0 434.49498929 0 32361
0.17350000 0.17350400 8550.89789887 0 88.25754291 0 3012.59556176 0 312.81494513 0 423.66125012 0 32508
0.17450000 0.17449800 8402.57751248 0 69.52668456 0 3102.10486353 0 488.03758092 0 1063.05868939 0 32791
0.17550000 0.17549800 8512.40991077 0 94.35379742 0 3284.05727692 0 232.43529988 0 779.10523908 0 33633
0.17650000 0.17650100 8318.01409703 0 63.38175802 0 3008.32411448 0 69.91459942 0 982.28674543 0 33984
0.17750000 0.17750300 8295.88125574 0 149.46356057 0 3261.42984699 0 -135.97477970 0 797.19594236 0 34069
