### header ###
fiducial parameters:
Omega_m = 0.31
Omega_nu = 0
Omega_de = 0.69
Omega_k = 0
H_0 = 100
w_de = -1
zeff = 0
beta = 0
fgrowth = 0
b_1 = 2
gamma = 0.55
Lx = 3500 Ly = 3500 Lz = 3500
nx = 700 ny = 700 nz = 700
xoffset = 857.220397 yoffset = 15.9954215 zoffset = 262.898189
bins = 400 dk = 0.001
kx_ny = 0.628318531 ky_ny = 0.628318531 kz_ny = 0.628318531
############################
A(data) = 3.09211001 (not used)
A(ran) = 3.08961017 (used)
Ngal = 188694
weighted Ngal = 0
Nran = 9360983
weighted Nran = 0
SN(data) = 3454.66686
SN(ran) = 69.3810332
SN(data+ran) = 3524.04789
############################
13 columns: k_central k_mean P_0(k) sigma^{lin}_{P_0(k)} P^img_1(k) sigma^{lin}_{P_1(k)} P_2(k) sigma^{lin}_{P_2(k)} P^img_3(k) sigma^{lin}_{P_3(k)} P_4(k) sigma^{lin}_{P_4(k)} N_modes
### header ###
0.00050000 0 0 0 0 0 0 0 0 0 0 0 0
0.00150000 0.00179520 7911.58588855 0 -14548.99905414 0 -3831.15098864 0 7533.61900772 0 -27787.67545256 0 3
0.00250000 0.00253879 17920.40742788 0 -20061.75139214 0 -13932.56176805 0 -3245.07470018 0 20004.98610594 0 6
0.00350000 0.00331552 26800.18428584 0 -21403.66027640 0 -24360.06382516 0 6594.27154808 0 535.38769806 0 7
0.00450000 0.00420575 38677.39306773 0 -21820.12638599 0 -40808.50803982 0 5162.39249537 0 10569.28038478 0 24
0.00550000 0.00557378 62606.04071784 0 -29854.60630898 0 -73050.51615755 0 18299.21735752 0 24649.39817498 0 45
0.00650000 0.00659388 72648.88770693 0 -20722.36443560 0 -74927.36761010 0 -11418.02819953 0 8782.73632020 0 40
0.00750000 0.00754703 93175.77722632 0 -16002.30278715 0 -88729.65023618 0 7998.58852521 0 39345.08772115 0 57
0.00850000 0.00846663 84833.19106679 0 -3022.84703523 0 -83173.73379937 0 -16479.35600417 0 36212.09354941 0 75
0.00950000 0.00948925 78050.35760270 0 12886.73162404 0 -65889.65960937 0 -21641.51244587 0 52519.80481692 0 112
0.01050000 0.01054430 68214.56340006 0 4361.06898605 0 -45474.61456476 0 -16464.06871918 0 34360.75837402 0 105
0.01150000 0.01145670 59381.32283613 0 3947.27815135 0 -38281.27253597 0 -13384.91726444 0 30546.13114195 0 144
0.01250000 0.01249090 62284.44570042 0 -3111.50204754 0 -19375.17244549 0 -28922.08192433 0 6218.01324616 0 169
0.01350000 0.01339930 59359.74078673 0 -1590.15865566 0 -15067.64267886 0 -24230.68393525 0 -9122.97957718 0 180
0.01450000 0.01448870 63192.12824695 0 2050.85672587 0 2365.39261462 0 -32953.87852852 0 -12550.52376067 0 267
0.01550000 0.01550050 65830.53378653 0 8537.36415539 0 5652.58603309 0 -36115.64876614 0 -39184.23400919 0 238
0.01650000 0.01653350 59130.76873134 0 3479.49847118 0 19502.07939224 0 -15072.36375217 0 -29373.28164467 0 315
0.01750000 0.01747870 60326.99878213 0 1804.88880657 0 19558.73227192 0 -9611.14979777 0 -47132.04851505 0 297
0.01850000 0.01844180 63971.10534261 0 -37.02344372 0 27214.62707830 0 -13993.48609501 0 -33670.13279310 0 388
0.01950000 0.01947590 69550.28992643 0 -2414.78403394 0 39847.31999581 0 -14238.98190698 0 -47354.83821253 0 399
0.02050000 0.02045430 72429.02057863 0 -2205.91026205 0 35557.88767687 0 -5699.75180356 0 -24413.68172915 0 462
0.02150000 0.02154770 75395.99033908 0 -1011.17746594 0 39527.97310854 0 1329.88138798 0 -31762.14473803 0 571
0.02250000 0.02255340 74979.97385553 0 1597.06041521 0 28005.63167024 0 9317.11685595 0 -24244.17271612 0 510
0.02350000 0.02348930 68895.52202135 0 7160.95771403 0 32583.72389995 0 13954.70584999 0 -32786.73005215 0 555
0.02450000 0.02439640 62439.56668051 0 8320.04865481 0 13942.79076021 0 13797.44914626 0 -29762.99500552 0 592
0.02550000 0.02547300 51687.65944330 0 3991.91477540 0 9103.65689857 0 11785.82229144 0 -15840.54982313 0 837
0.02650000 0.02652900 51326.60974182 0 435.88658185 0 1282.19854758 0 5054.52721095 0 -10581.11679000 0 723
0.02750000 0.02749970 49561.37795103 0 -1446.58182387 0 3595.26593305 0 2811.79257710 0 -7475.25754912 0 826
0.02850000 0.02848090 51998.46343601 0 -1251.48908979 0 3822.42824368 0 -4567.11011395 0 -9610.29550832 0 831
0.02950000 0.02946900 53319.35230341 0 -1209.69635037 0 4720.10661105 0 -6178.98570683 0 -2622.50001879 0 996
0.03050000 0.03053250 54644.17539857 0 -917.97898260 0 8912.83561176 0 -10580.65592332 0 -12563.56291552 0 1041
0.03150000 0.03150510 56485.39398830 0 -499.57161263 0 13272.39835062 0 -7150.49266820 0 -18964.43906778 0 1036
0.03250000 0.03246190 54849.54208742 0 135.94330588 0 13680.54637866 0 -3142.16654274 0 -19165.98393538 0 1059
0.03350000 0.03345080 57418.81762501 0 1468.90575622 0 14195.81780817 0 -7809.85799943 0 -33106.52656545 0 1302
0.03450000 0.03451200 52965.15939888 0 1869.92721170 0 10893.64060227 0 -2629.25564988 0 -26695.64623405 0 1339
0.03550000 0.03553350 52259.80856551 0 2266.84582967 0 10485.29024252 0 527.90816906 0 -31892.98591253 0 1365
0.03650000 0.03647120 50964.66078828 0 1375.29361694 0 6355.59881111 0 3818.53897852 0 -27348.27841549 0 1308
0.03750000 0.03744890 51186.88845324 0 -322.86296282 0 7589.53000445 0 4702.41382680 0 -20377.05164514 0 1579
0.03850000 0.03847530 50425.78399224 0 -1852.34683396 0 2464.19793455 0 7248.18516371 0 -15028.30040131 0 1662
0.03950000 0.03950240 52410.88291133 0 -1408.26244553 0 1554.35718308 0 5767.67905593 0 -8871.09907560 0 1683
0.04050000 0.04050350 52477.09034414 0 286.12851623 0 -304.21697138 0 2554.22430625 0 -10916.23431024 0 1822
0.04150000 0.04152450 51954.51249166 0 1831.84388703 0 2074.19231679 0 -71.64588444 0 -4971.87470613 0 1887
0.04250000 0.04250150 48893.57089110 0 3593.96201757 0 117.32091981 0 -4459.75065882 0 -12043.90763223 0 1920
0.04350000 0.04349210 45364.56859410 0 2311.86463584 0 4102.33168753 0 -5843.42980120 0 -6163.32748036 0 2005
0.04450000 0.04448520 44747.79408850 0 1203.60391767 0 3467.97680418 0 -4621.33501308 0 -10788.57423989 0 2151
0.04550000 0.04548030 44560.18762780 0 215.86433257 0 6084.05841140 0 -2475.21377227 0 -11422.74927283 0 2274
0.04650000 0.04648670 44389.77936271 0 557.56775008 0 6822.46799857 0 -2262.90036126 0 -10952.99123813 0 2311
0.04750000 0.04749250 43324.27807992 0 1804.25933013 0 4759.85355204 0 483.25131184 0 -13427.51933071 0 2568
0.04850000 0.04851840 42135.91648464 0 2323.83592887 0 7176.77330961 0 -1344.67408435 0 -8119.02085714 0 2493
0.04950000 0.04949480 37780.38913940 0 3481.69039807 0 7322.20484877 0 -913.01398717 0 -12491.39793783 0 2644
0.05050000 0.05050630 38200.22744420 0 1468.82707167 0 9463.98719840 0 -491.66269078 0 -8596.91712297 0 2829
0.05150000 0.05149060 34676.05862702 0 1142.34237119 0 9034.83039414 0 -446.59554980 0 -13021.73183932 0 2784
0.05250000 0.05249300 36713.98860455 0 344.98905971 0 10068.94778009 0 -1560.59574424 0 -9212.19662203 0 3055
0.05350000 0.05348950 35219.54408986 0 -780.19221000 0 11758.17029065 0 -843.28823068 0 -12266.47251670 0 3009
0.05450000 0.05448610 37356.16698081 0 -653.24030065 0 9962.55502093 0 1519.06153979 0 -9268.89446432 0 3336
0.05550000 0.05550870 36913.84737455 0 -1029.99656339 0 8886.44256384 0 2754.49898033 0 -10661.08277930 0 3349
0.05650000 0.05647670 38829.92869815 0 -60.71907268 0 9416.96755640 0 1120.13646567 0 -8018.46199570 0 3324
0.05750000 0.05747970 38455.39021579 0 1304.54496124 0 7781.22806202 0 2015.56108257 0 -5102.97441560 0 3639
0.05850000 0.05849280 35657.14262282 0 2525.97655097 0 10677.23559440 0 423.52523824 0 -3965.18450796 0 3846
0.05950000 0.05951020 33651.13609337 0 2000.98195858 0 7923.39981247 0 1197.21922806 0 622.40944382 0 3787
0.06050000 0.06049470 32424.66869211 0 1287.09947130 0 12173.51233516 0 2114.25399599 0 -491.02084962 0 3930
0.06150000 0.06148310 31338.93423800 0 627.49471421 0 7589.27146949 0 532.11666869 0 -288.54300800 0 4083
0.06250000 0.06249100 31176.61924145 0 -107.85719115 0 10292.04097515 0 250.55860105 0 -637.87095890 0 4303
0.06350000 0.06350600 31814.63857694 0 233.49192105 0 11951.28467020 0 -3340.53030619 0 250.27308853 0 4470
0.06450000 0.06451750 32365.09324324 0 498.29017845 0 12344.48263277 0 -3858.87043335 0 -1259.73972742 0 4479
0.06550000 0.06550280 32531.56728056 0 720.85618699 0 16348.85204918 0 -2546.82795807 0 11.79459000 0 4636
0.06650000 0.06648880 32329.91000645 0 232.65674070 0 17912.87619189 0 -1419.98644424 0 -1595.82394363 0 4653
0.06750000 0.06749660 32815.28130501 0 132.44184317 0 18416.45734464 0 -1269.47413096 0 -4735.16908303 0 5220
0.06850000 0.06852730 33330.88995404 0 -468.18996392 0 18783.91421704 0 770.36338500 0 -4055.60430244 0 5029
0.06950000 0.06949320 32848.21641165 0 -138.72087067 0 17529.12037594 0 1301.54370749 0 -6655.01602463 0 5040
0.07050000 0.07048030 33517.59716268 0 -583.32345310 0 17237.76270899 0 2091.51415956 0 -3608.59734482 0 5475
0.07150000 0.07148790 33348.65018220 0 -155.25249570 0 13130.09171236 0 3155.57663906 0 -8105.63324212 0 5509
0.07250000 0.07249820 33324.93240915 0 194.45876139 0 13191.35325885 0 2871.75020810 0 -4339.65554641 0 5916
0.07350000 0.07351270 33143.05868033 0 474.70729322 0 11117.71173395 0 2822.60608311 0 -5135.69594988 0 5721
0.07450000 0.07449140 32140.05541560 0 1010.93579195 0 12039.52377844 0 -133.63672435 0 -2482.56515784 0 6028
0.07550000 0.07549160 31184.15047744 0 1653.01637455 0 10743.01588248 0 -156.34733508 0 -1697.74292381 0 6183
0.07650000 0.07648840 29807.84520193 0 1361.89476127 0 13387.83983363 0 93.40857110 0 -425.52045375 0 6330
0.07750000 0.07749960 28439.74560147 0 1451.14552807 0 11961.28884935 0 335.22767862 0 182.15924136 0 6583
0.07850000 0.07848650 27280.60969809 0 1068.21589994 0 12528.15486572 0 2823.30300345 0 1136.01388483 0 6549
0.07950000 0.07947320 25598.55872270 0 1006.24956466 0 10146.28345712 0 2277.31087550 0 1638.98804244 0 6828
0.08050000 0.08048110 25674.32070863 0 685.90450761 0 10538.49224243 0 2586.91211858 0 1196.15136624 0 7147
0.08150000 0.08149960 24325.66743392 0 386.63679474 0 8591.27431630 0 1924.05094497 0 1381.19495857 0 7386
0.08250000 0.08250610 24514.95999223 0 293.94301662 0 8513.20799697 0 862.72781206 0 3549.68509434 0 7227
0.08350000 0.08350160 23557.14414345 0 317.75970738 0 7486.71177222 0 -151.78587902 0 3219.41229456 0 7798
0.08450000 0.08449610 23647.18175580 0 170.03507548 0 9497.94520426 0 52.09996651 0 4984.09329347 0 7371
0.08550000 0.08548940 23774.76314160 0 577.52664952 0 9461.53673654 0 -1032.01650833 0 3184.65620250 0 8256
0.08650000 0.08650700 23451.14480705 0 595.28462954 0 11139.09145164 0 115.94394009 0 5311.44352406 0 8037
0.08750000 0.08749060 22996.01085895 0 444.73297398 0 12106.51805680 0 -1247.16143925 0 4055.67174634 0 8155
0.08850000 0.08849210 22689.47831352 0 234.50357962 0 10862.22298348 0 707.60008758 0 4604.83373781 0 8718
0.08950000 0.08949900 22649.12437740 0 89.53627933 0 11352.94483179 0 1419.40193041 0 3607.09109762 0 8571
0.09050000 0.09049190 22296.05553794 0 350.98707095 0 9533.37573537 0 1341.88640296 0 2640.49630061 0 8932
0.09150000 0.09150830 21899.37297364 0 438.32917525 0 8686.77488491 0 1236.28048935 0 2196.28826503 0 9285
0.09250000 0.09250820 20885.01665167 0 784.88405762 0 7577.30017646 0 1484.51902009 0 626.36840101 0 9204
0.09350000 0.09350330 19922.47972958 0 862.96723792 0 5870.37364101 0 688.57528622 0 406.22250457 0 9349
0.09450000 0.09448040 19315.25977709 0 658.04905103 0 5372.77251445 0 954.06147144 0 -314.44933574 0 9564
0.09550000 0.09549270 18388.24331131 0 569.85378133 0 5032.40561031 0 -42.16109554 0 -427.96079902 0 10155
0.09650000 0.09649430 17863.08010915 0 653.99342424 0 4712.40676530 0 -15.89652826 0 -1156.11216833 0 9913
0.09750000 0.09749140 17440.65645468 0 358.80831572 0 5050.17707912 0 157.90079301 0 -177.79000042 0 10476
0.09850000 0.09850240 17234.39051377 0 462.65619157 0 4616.32168285 0 -303.68753673 0 -949.96762645 0 10575
0.09950000 0.09950330 16883.34499144 0 266.80920982 0 5320.81822677 0 692.17004632 0 -219.31633641 0 10882
0.10050000 0.10051200 16823.54472955 0 -27.39571396 0 5105.18882380 0 422.62711025 0 144.61434385 0 10875
0.10150000 0.10150300 17006.65492996 0 -105.92694660 0 4388.74346815 0 568.76343821 0 -1.57470276 0 11118
0.10250000 0.10250800 16813.09092437 0 56.71234273 0 4953.45127958 0 227.05440038 0 953.46234476 0 11575
0.10350000 0.10349800 17082.64172890 0 174.20535690 0 4652.53905951 0 132.29234252 0 800.61085205 0 11364
0.10450000 0.10450100 16387.63229420 0 317.88785080 0 4676.41420166 0 77.08051426 0 782.90345496 0 12093
0.10550000 0.10551000 16485.08873604 0 357.26047812 0 5166.75386785 0 -146.60843529 0 1369.98802979 0 12067
0.10650000 0.10649700 16246.00009499 0 138.24201895 0 5109.69632474 0 83.26332179 0 1642.56256937 0 12054
0.10750000 0.10749900 16221.04585037 0 166.81462904 0 5422.26509962 0 15.08742622 0 569.51318961 0 12807
0.10850000 0.10850100 16084.24713098 0 132.93755587 0 4922.21351120 0 -414.42143522 0 745.75535242 0 12736
0.10950000 0.10950300 15939.13033004 0 384.40440150 0 5682.20514777 0 -335.64695489 0 122.88166973 0 12933
0.11050000 0.11050200 15546.26958699 0 405.01188649 0 5062.12589085 0 -99.81517999 0 -495.71494537 0 13428
0.11150000 0.11150900 15068.99155695 0 347.10679831 0 5127.05188947 0 409.19790482 0 -312.49458658 0 13453
0.11250000 0.11250000 15044.26212534 0 205.26102674 0 4390.77802594 0 948.39281128 0 -1280.07406459 0 13668
0.11350000 0.11349100 14620.15237326 0 51.81175623 0 3941.72526988 0 1370.40393387 0 -506.43178177 0 13791
0.11450000 0.11448600 14659.26983781 0 118.72262896 0 2961.77657981 0 1003.24381465 0 -769.32137668 0 14205
0.11550000 0.11549300 14402.42096860 0 268.71787231 0 3118.80847052 0 732.10920243 0 -370.57053265 0 14776
0.11650000 0.11649800 14061.71684495 0 363.15170317 0 2230.38115869 0 -326.47233577 0 -755.77526848 0 14553
0.11750000 0.11747300 13779.68891811 0 170.85676705 0 3240.55595859 0 -390.71265469 0 -254.63333694 0 14568
0.11850000 0.11849100 13725.39657508 0 160.21524300 0 3255.44982081 0 -854.75032224 0 -97.52321130 0 16015
0.11950000 0.11950300 13806.10444733 0 94.17338498 0 3590.67974756 0 -779.14907761 0 -796.81713243 0 15270
0.12050000 0.12050700 13900.18869394 0 55.37234475 0 4022.07344131 0 -689.39023340 0 -467.57285220 0 15999
0.12150000 0.12150000 13709.32244453 0 161.15945766 0 4477.92679105 0 -850.89477903 0 -1189.33953189 0 15670
0.12250000 0.12250700 13918.62336114 0 77.95200191 0 4432.46959950 0 -89.11644103 0 -1239.67516587 0 16887
0.12350000 0.12352200 13743.71883577 0 164.80255256 0 4492.32606464 0 437.27367815 0 -1691.51560330 0 16407
0.12450000 0.12449800 13475.96653536 0 43.73973253 0 3887.21935449 0 888.95000208 0 -1586.47172222 0 16306
0.12550000 0.12549900 13486.75756006 0 -24.82565158 0 3527.28247743 0 1099.11757287 0 -1655.75909333 0 17523
0.12650000 0.12650100 13558.92253775 0 -33.08854152 0 2796.71886447 0 1256.72723303 0 -971.78010919 0 17154
0.12750000 0.12750600 13378.17287400 0 -11.07105179 0 2894.27647217 0 908.74591209 0 -936.12026881 0 18007
0.12850000 0.12850300 13667.73203683 0 10.44930892 0 1950.73624981 0 560.44535667 0 -303.49644567 0 17496
0.12950000 0.12949900 13326.80310016 0 93.52895847 0 3036.72923888 0 397.03214853 0 484.59456960 0 18405
0.13050000 0.13049000 13426.73248515 0 233.21315291 0 1911.58506331 0 -183.10458008 0 -117.87395983 0 18100
0.13150000 0.13148800 13091.76109337 0 270.68723432 0 3040.65222599 0 -315.14625609 0 908.87293144 0 19059
0.13250000 0.13249300 13098.16826429 0 371.84522244 0 2720.91191594 0 -662.95222288 0 -228.49545180 0 18957
0.13350000 0.13349100 12723.40496892 0 216.37016186 0 2934.88894326 0 -373.68082071 0 -113.99368719 0 19468
0.13450000 0.13450700 12632.35569800 0 136.86616330 0 2757.51147472 0 -380.98836775 0 -678.18442868 0 19953
0.13550000 0.13551000 12575.02837927 0 12.93371754 0 3087.33464847 0 -484.46867431 0 -775.14853002 0 19956
0.13650000 0.13649900 12709.80378153 0 -11.53616744 0 3132.58950832 0 -281.86268927 0 -1485.12601523 0 19723
0.13750000 0.13749600 12709.69137502 0 22.94149370 0 3051.75798891 0 -50.07867270 0 -1733.82541265 0 20946
0.13850000 0.13851100 12692.49317941 0 126.63604707 0 3427.04959486 0 -358.20356871 0 -1442.82744653 0 20955
0.13950000 0.13949800 12550.74857369 0 205.89275131 0 3606.64147159 0 -23.32378823 0 -1387.61337014 0 20506
0.14050000 0.14048300 12371.34778802 0 373.32786427 0 3874.70851023 0 -171.21646787 0 -1120.41186161 0 21447
0.14150000 0.14148400 12252.42170329 0 305.73558330 0 4224.34895121 0 134.11670013 0 -536.10822377 0 21771
0.14250000 0.14249400 11915.53940088 0 114.35001582 0 4183.82640533 0 333.05373677 0 -369.67128059 0 22470
0.14350000 0.14350900 12055.59790899 0 69.39528135 0 4695.96169328 0 390.83742592 0 -148.65760592 0 22519
0.14450000 0.14449900 11922.95823036 0 84.49529711 0 4562.62509431 0 393.87802194 0 -39.28405099 0 22218
0.14550000 0.14550500 11752.99959131 0 253.32042894 0 4864.15555017 0 45.82476084 0 309.48434032 0 23559
0.14650000 0.14650700 11579.33153752 0 258.06510761 0 4614.86039826 0 117.94027966 0 489.99457821 0 23044
0.14750000 0.14750500 11391.38785729 0 352.17633179 0 4535.53512605 0 189.61291686 0 878.05781153 0 23649
0.14850000 0.14849900 11020.69367749 0 264.30479283 0 3962.79024935 0 409.36314239 0 130.73214020 0 23640
0.14950000 0.14949500 10734.12452775 0 295.15026250 0 3811.78334743 0 470.33468008 0 590.60065038 0 24457
0.15050000 0.15050000 10449.65737970 0 226.56093581 0 3326.45701147 0 307.43741782 0 49.13659376 0 24591
0.15150000 0.15149900 10282.69999439 0 145.63949120 0 3102.90294973 0 360.56298130 0 50.83247074 0 25020
0.15250000 0.15250500 10115.37166761 0 107.79615441 0 2899.26732109 0 162.77024291 0 36.23963314 0 25297
0.15350000 0.15350100 10020.10715267 0 79.30391497 0 2702.79198697 0 297.33544501 0 -343.34005625 0 25452
0.15450000 0.15450400 10060.43860749 0 125.10282231 0 2852.76474902 0 39.16748544 0 114.73894234 0 26061
0.15550000 0.15549900 9885.93874554 0 176.87838364 0 2918.88225662 0 -92.47750800 0 -284.91227782 0 26128
0.15650000 0.15649500 9764.21373878 0 178.00694498 0 3049.59978397 0 -40.79209669 0 562.91043137 0 26331
0.15750000 0.15749700 9673.82766625 0 156.59125720 0 2958.29197808 0 127.93996256 0 153.91261013 0 27345
0.15850000 0.15849900 9651.16651438 0 96.99096649 0 3153.73317234 0 353.82533525 0 944.82165654 0 26980
0.15950000 0.15949700 9643.20813366 0 -39.28663634 0 2998.92693047 0 322.15480182 0 866.68676925 0 27777
0.16050000 0.16050000 9683.02251855 0 -71.87508131 0 2695.40687944 0 651.13605083 0 1108.89019461 0 28224
0.16150000 0.16150500 9828.92616504 0 24.05308165 0 2898.79521376 0 311.40873972 0 1173.50145501 0 28075
0.16250000 0.16249700 9676.34557201 0 207.28546793 0 2676.69119597 0 4.97629228 0 1126.26824064 0 28590
0.16350000 0.16349900 9548.15719108 0 324.04885147 0 3198.10002078 0 -220.08744505 0 1483.46239892 0 29163
0.16450000 0.16449100 9206.37396495 0 385.27892413 0 2943.43183781 0 -488.58162841 0 1279.66940117 0 28996
0.16550000 0.16550500 8992.09344007 0 253.59919708 0 3531.91362553 0 -269.94872357 0 1257.99742656 0 30777
0.16650000 0.16650700 8780.60059656 0 218.92853396 0 3515.98562345 0 -50.50660427 0 849.37953932 0 29211
0.16750000 0.16749900 8781.79210554 0 30.07953173 0 3437.98674803 0 150.54153898 0 677.67747534 0 30922
0.16850000 0.16850800 8612.37301772 0 -32.98602679 0 3163.59122303 0 198.93816070 0 372.22628050 0 30867
0.16950000 0.16949900 8783.42199990 0 -100.36428578 0 2710.28950100 0 260.01423645 0 285.75982288 0 30852
0.17050000 0.17049200 8757.54602191 0 -130.89063337 0 2832.27304274 0 410.40739884 0 -172.21576172 0 31257
0.17150000 0.17149500 8852.31594823 0 76.69777010 0 2338.48249677 0 272.83869487 0 60.37252342 0 32608
0.17250000 0.17250900 8711.75161083 0 91.92255708 0 2650.68033018 0 117.39623217 0 14.39961081 0 32361
0.17350000 0.17350400 8554.06776238 0 217.32561717 0 2270.63392896 0 163.70658912 0 128.43230306 0 32508
0.17450000 0.17449800 8389.07749095 0 176.43437794 0 2374.69987343 0 351.09947745 0 374.93190513 0 32791
0.17550000 0.17549800 8211.22791508 0 94.07424244 0 2012.30129386 0 296.55871604 0 312.51819195 0 33633
0.17650000 0.17650100 8171.08755132 0 112.46383463 0 1987.58310290 0 418.93455648 0 713.64081328 0 33984
0.17750000 0.17750300 8073.73227534 0 60.91466000 0 1765.64769487 0 167.21816840 0 548.43921762 0 34069
