### header ###
fiducial parameters:
Omega_m = 0.31
Omega_nu = 0
Omega_de = 0.69
Omega_k = 0
H_0 = 100
w_de = -1
zeff = 0
beta = 0
fgrowth = 0
b_1 = 2
gamma = 0.55
Lx = 3500 Ly = 3500 Lz = 3500
nx = 700 ny = 700 nz = 700
xoffset = 857.220397 yoffset = 15.9954215 zoffset = 262.898189
bins = 400 dk = 0.001
kx_ny = 0.628318531 ky_ny = 0.628318531 kz_ny = 0.628318531
############################
A(data) = 3.07517582 (not used)
A(ran) = 3.07420716 (used)
Ngal = 187606
weighted Ngal = 0
Nran = 9360983
weighted Nran = 0
SN(data) = 3442.3656
SN(ran) = 69.0351394
SN(data+ran) = 3511.40074
############################
13 columns: k_central k_mean P_0(k) sigma^{lin}_{P_0(k)} P^img_1(k) sigma^{lin}_{P_1(k)} P_2(k) sigma^{lin}_{P_2(k)} P^img_3(k) sigma^{lin}_{P_3(k)} P_4(k) sigma^{lin}_{P_4(k)} N_modes
### header ###
0.00050000 0 0 0 0 0 0 0 0 0 0 0 0
0.00150000 0.00179520 -532.89339766 0 -4236.73614832 0 -7811.89255722 0 12868.97139588 0 16818.37403022 0 3
0.00250000 0.00253879 3232.84487219 0 -6158.21298427 0 -1990.06728672 0 -5391.29710685 0 -8254.85288057 0 6
0.00350000 0.00331552 12069.64872240 0 -14423.21617246 0 -16472.72402024 0 15405.31182682 0 9019.62179371 0 7
0.00450000 0.00420575 22473.54541298 0 -17129.85246197 0 -10457.18861569 0 2313.53949280 0 3187.69117820 0 24
0.00550000 0.00557378 55041.53240191 0 -23267.92220014 0 -21456.71614785 0 4544.51640598 0 8077.47541204 0 45
0.00650000 0.00659388 56502.36737091 0 -8501.69757062 0 13453.14801437 0 -8717.59674921 0 -10613.31001369 0 40
0.00750000 0.00754703 82148.47404620 0 -132.51153521 0 -1559.74145478 0 -21186.94053031 0 -7013.24432278 0 57
0.00850000 0.00846663 72772.08523894 0 5890.58433102 0 22875.17386360 0 -8226.22294316 0 15012.78830330 0 75
0.00950000 0.00948925 74762.69207690 0 3551.50607976 0 23764.64655594 0 -3252.23499470 0 21941.18819436 0 112
0.01050000 0.01054430 75894.06357297 0 -9194.54880038 0 30221.72596185 0 20528.01358446 0 -16518.47346871 0 105
0.01150000 0.01145670 82100.25165456 0 -11833.59505705 0 24944.12803714 0 17767.64698445 0 -11378.34870245 0 144
0.01250000 0.01249090 85884.41672315 0 -2953.30112916 0 11767.83725027 0 7285.78514040 0 -20268.57936559 0 169
0.01350000 0.01339930 84641.42556532 0 4934.72435546 0 12718.34667609 0 -8282.57232527 0 -5681.78924369 0 180
0.01450000 0.01448870 75082.71340321 0 12051.55127472 0 -1378.44099914 0 -8368.14739929 0 -3872.11191991 0 267
0.01550000 0.01550050 67392.08498608 0 2121.39180921 0 -4950.38258193 0 2233.12387747 0 -26283.90119777 0 238
0.01650000 0.01653350 63007.10713592 0 415.08350954 0 -4213.29939155 0 -6898.52224142 0 -14470.08968600 0 315
0.01750000 0.01747870 65661.02477350 0 -1839.24023521 0 1824.17776323 0 -10250.37188289 0 -27789.36155017 0 297
0.01850000 0.01844180 63080.50858519 0 1771.79633082 0 7466.13014073 0 -5544.41725111 0 -10146.50827014 0 388
0.01950000 0.01947590 64719.17064875 0 3180.24986741 0 7080.69946782 0 -7233.16765433 0 -7589.06913778 0 399
0.02050000 0.02045430 61408.12456943 0 2782.99402993 0 8053.62275119 0 2780.99319410 0 -1323.35056991 0 462
0.02150000 0.02154770 62314.00861184 0 808.48605196 0 17863.75454820 0 11388.91491413 0 13653.11919088 0 571
0.02250000 0.02255340 61068.43210434 0 -397.95950222 0 10369.94992537 0 10007.00055392 0 1913.21495767 0 510
0.02350000 0.02348930 62552.98484639 0 1524.22099847 0 19370.90099821 0 4223.10123898 0 23551.74863109 0 555
0.02450000 0.02439640 60396.80322317 0 2933.28153020 0 13931.21288996 0 2124.31437840 0 11237.52583009 0 592
0.02550000 0.02547300 57626.20763099 0 2926.31232675 0 25344.40760967 0 1997.00276822 0 31303.41378169 0 837
0.02650000 0.02652900 58660.90953078 0 -190.39976241 0 21864.86417589 0 5559.24366942 0 25376.44346426 0 723
0.02750000 0.02749970 56936.03167611 0 -648.86319125 0 19675.85985254 0 2292.66560439 0 18151.06558088 0 826
0.02850000 0.02848090 60362.18201892 0 320.77107772 0 24877.58338481 0 5754.83099214 0 22258.17454497 0 831
0.02950000 0.02946900 58163.51073593 0 1558.40381734 0 17313.07506889 0 3922.39135063 0 20038.93287115 0 996
0.03050000 0.03053250 56035.31833303 0 2038.61565722 0 23065.59048698 0 4315.15092782 0 23505.99918262 0 1041
0.03150000 0.03150510 52421.44912302 0 2467.15422569 0 15221.18996785 0 509.76800691 0 11123.14096825 0 1036
0.03250000 0.03246190 54007.95456719 0 977.01937650 0 22157.23350141 0 5865.97854657 0 24521.02994363 0 1059
0.03350000 0.03345080 50116.66609714 0 -594.47530269 0 16689.89339236 0 2186.89108102 0 14700.97265202 0 1302
0.03450000 0.03451200 52011.50259086 0 445.85141872 0 12364.49099108 0 3328.52529121 0 20371.43131978 0 1339
0.03550000 0.03553350 51292.10094408 0 1110.38632522 0 18448.49319922 0 2022.01321609 0 13884.11456340 0 1365
0.03650000 0.03647120 49695.02928822 0 3082.35504020 0 14050.58860072 0 1181.23502272 0 14591.93833993 0 1308
0.03750000 0.03744890 49036.77678141 0 2674.88145120 0 18837.30730801 0 709.47727625 0 15617.19809310 0 1579
0.03850000 0.03847530 45986.51379905 0 2052.25056656 0 17492.36344805 0 762.77032543 0 18996.25010935 0 1662
0.03950000 0.03950240 45637.82881338 0 1358.90474817 0 20136.27690648 0 2430.18372544 0 13833.64404162 0 1683
0.04050000 0.04050350 47291.21612940 0 569.83916848 0 24291.60826221 0 -626.06602750 0 19196.10887934 0 1822
0.04150000 0.04152450 46092.73794846 0 2006.18637986 0 24591.95844974 0 -951.71554764 0 16141.34963669 0 1887
0.04250000 0.04250150 46865.98231224 0 1813.49914503 0 25944.65835871 0 -3980.68536532 0 13397.16957373 0 1920
0.04350000 0.04349210 43989.05016415 0 1677.84697201 0 27204.06086661 0 -2149.18993846 0 11201.37589734 0 2005
0.04450000 0.04448520 45195.73402013 0 1109.42749772 0 31255.75342259 0 -1806.32760987 0 5688.58983738 0 2151
0.04550000 0.04548030 42981.88785866 0 -317.33368672 0 25975.12052219 0 847.24718787 0 2102.29394361 0 2274
0.04650000 0.04648670 43219.85243463 0 -1091.15132369 0 24721.45074616 0 2899.06498938 0 -4250.39353896 0 2311
0.04750000 0.04749250 44570.19180695 0 149.38150382 0 23175.41164462 0 2931.67411715 0 -5260.59082015 0 2568
0.04850000 0.04851840 42517.08695093 0 1702.22794345 0 22223.21612120 0 4798.81364747 0 -4723.25399326 0 2493
0.04950000 0.04949480 40173.74849304 0 2564.25096671 0 21771.56677483 0 5826.25408689 0 -2143.79442611 0 2644
0.05050000 0.05050630 38361.98040822 0 2074.64194282 0 19599.53583408 0 4771.67871661 0 2031.32047490 0 2829
0.05150000 0.05149060 36933.96813935 0 1710.90572581 0 18830.67532408 0 5147.68972421 0 2550.67226062 0 2784
0.05250000 0.05249300 36181.85619894 0 334.32055811 0 18886.31654520 0 3201.76447291 0 4758.12249183 0 3055
0.05350000 0.05348950 35577.33400263 0 -477.06220954 0 18307.76025207 0 263.22007004 0 3721.56588467 0 3009
0.05450000 0.05448610 36720.05855594 0 -381.84265720 0 17417.38830767 0 -2434.57881987 0 4476.11704629 0 3336
0.05550000 0.05550870 37810.85130288 0 27.59692161 0 20200.46102216 0 -2065.49205312 0 1874.28858419 0 3349
0.05650000 0.05647670 36478.04734571 0 455.07437265 0 16164.50537719 0 -1411.78076921 0 -2664.02298259 0 3324
0.05750000 0.05747970 36701.28666922 0 1025.67790538 0 17877.46814209 0 537.02433680 0 -3431.24235759 0 3639
0.05850000 0.05849280 35151.87537246 0 449.71707851 0 15371.47746812 0 3216.65833513 0 -5623.86617048 0 3846
0.05950000 0.05951020 35101.18003767 0 135.42286375 0 13858.71069275 0 3440.30232208 0 -4750.31023957 0 3787
0.06050000 0.06049470 33813.56349643 0 1.14310674 0 10355.86539000 0 3185.44304805 0 -7384.02842779 0 3930
0.06150000 0.06148310 34478.44798717 0 444.46319836 0 9761.23496633 0 823.39565109 0 -4804.69250780 0 4083
0.06250000 0.06249100 32297.19971282 0 1583.87513190 0 7909.94475354 0 276.22662700 0 -6750.23557697 0 4303
0.06350000 0.06350600 32043.27341281 0 1447.15509706 0 10330.92238603 0 -1275.67897016 0 -4115.58441474 0 4470
0.06450000 0.06451750 29890.57639132 0 1089.54166251 0 11070.73705454 0 -2588.77806660 0 -6795.35554901 0 4479
0.06550000 0.06550280 30531.18107647 0 1034.83678760 0 12759.37505126 0 -1538.29429319 0 -6396.78455539 0 4636
0.06650000 0.06648880 29410.71301161 0 641.51180567 0 13312.86469325 0 -2392.70739590 0 -6534.60617400 0 4653
0.06750000 0.06749660 29549.75986115 0 399.45113657 0 15382.49330584 0 -864.99505131 0 -5668.07564980 0 5220
0.06850000 0.06852730 29467.36589129 0 451.16599839 0 16220.59622434 0 -895.97091253 0 -6190.39496732 0 5029
0.06950000 0.06949320 29527.16615318 0 287.10308065 0 16050.97480481 0 478.27057950 0 -7299.75726926 0 5040
0.07050000 0.07048030 28987.61491809 0 238.47152932 0 15162.28895802 0 332.86826603 0 -6955.33249021 0 5475
0.07150000 0.07148790 29263.68530005 0 -163.86733042 0 14599.01994989 0 1686.54723568 0 -7553.97582619 0 5509
0.07250000 0.07249820 28888.24756563 0 35.35859094 0 12554.00836240 0 2657.71697753 0 -7637.87604325 0 5916
0.07350000 0.07351270 28944.78803881 0 -2.82845122 0 11352.72001878 0 2445.45976978 0 -8501.39407305 0 5721
0.07450000 0.07449140 28596.21545964 0 336.39670630 0 10181.41049066 0 1303.94920675 0 -7461.29666092 0 6028
0.07550000 0.07549160 28049.69502110 0 643.73970265 0 8794.05565549 0 1912.77657229 0 -4319.47857835 0 6183
0.07650000 0.07648840 27307.13763381 0 724.89720093 0 9284.58641274 0 -253.48454244 0 -4544.98851332 0 6330
0.07750000 0.07749960 26928.66492370 0 951.86954455 0 10904.10564811 0 933.34382808 0 -1044.17439616 0 6583
0.07850000 0.07848650 25999.62514078 0 1016.16494267 0 10905.49948880 0 -322.83935745 0 -1887.65371791 0 6549
0.07950000 0.07947320 25485.02815032 0 837.04404920 0 11982.30886622 0 -234.34396237 0 448.50308823 0 6828
0.08050000 0.08048110 25222.22173623 0 317.24263745 0 11989.61528920 0 447.57011422 0 -1067.63813049 0 7147
0.08150000 0.08149960 24403.22792397 0 56.72526947 0 11789.64411269 0 711.93111031 0 -316.75142101 0 7386
0.08250000 0.08250610 24532.38300087 0 -40.02447265 0 10704.05578705 0 2618.81308535 0 -604.49409469 0 7227
0.08350000 0.08350160 24549.13157046 0 -142.15264134 0 9038.78710320 0 2274.38830631 0 -671.95261192 0 7798
0.08450000 0.08449610 24201.45824335 0 177.56855960 0 8068.52785405 0 2380.36516140 0 -921.98964678 0 7371
0.08550000 0.08548940 23921.67844665 0 625.20162146 0 6249.98165684 0 1280.46748737 0 -2408.06212480 0 8256
0.08650000 0.08650700 23089.30826002 0 905.81210225 0 7516.99408529 0 -1036.18116942 0 -588.82912383 0 8037
0.08750000 0.08749060 22648.89956438 0 1006.10456026 0 7015.26763991 0 -1062.92492564 0 -2514.80334414 0 8155
0.08850000 0.08849210 22114.74384164 0 378.69077874 0 8136.00548039 0 -1307.68110279 0 -576.83872169 0 8718
0.08950000 0.08949900 21919.83095797 0 -135.81179026 0 6654.06056932 0 -112.92132911 0 -3240.90441876 0 8571
0.09050000 0.09049190 22466.23899000 0 -253.35752309 0 7535.47371509 0 1141.79157930 0 -1919.52096273 0 8932
0.09150000 0.09150830 22250.98052850 0 -192.09597660 0 5876.36490785 0 832.61073656 0 -3904.87841679 0 9285
0.09250000 0.09250820 22129.35668759 0 423.59830247 0 5269.71822855 0 1194.94861661 0 -3051.78047021 0 9204
0.09350000 0.09350330 21836.98736208 0 724.71285425 0 5987.70355334 0 270.63665139 0 -2073.85509726 0 9349
0.09450000 0.09448040 20988.31823189 0 1129.77532367 0 5045.41104321 0 -542.18829175 0 -2425.39520823 0 9564
0.09550000 0.09549270 20139.98632122 0 1213.15847079 0 7020.66315226 0 -304.96447466 0 -275.37458567 0 10155
0.09650000 0.09649430 19321.21732198 0 817.15708993 0 7447.34701336 0 -756.26760899 0 -625.82884977 0 9913
0.09750000 0.09749140 18665.32535183 0 592.54528296 0 8361.99876334 0 154.28692380 0 493.45107831 0 10476
0.09850000 0.09850240 18479.29258223 0 251.54215799 0 7958.88654682 0 -450.98952017 0 112.97528424 0 10575
0.09950000 0.09950330 18285.72857664 0 311.48854834 0 8961.39522292 0 112.63356845 0 -65.74386837 0 10882
0.10050000 0.10051200 18042.70570784 0 360.37413837 0 8906.20362783 0 -659.38781253 0 -236.63930325 0 10875
0.10150000 0.10150300 17579.59089772 0 357.67975439 0 8923.26693564 0 59.45618557 0 -371.92727919 0 11118
0.10250000 0.10250800 17264.96508376 0 251.26451392 0 8669.70033645 0 770.51963005 0 457.44727402 0 11575
0.10350000 0.10349800 17173.57859332 0 175.79028865 0 8198.26744479 0 810.03164143 0 -231.44949481 0 11364
0.10450000 0.10450100 17098.82826595 0 -154.47014641 0 7441.64800344 0 1629.08502914 0 75.16949123 0 12093
0.10550000 0.10551000 16730.13492198 0 -94.91178333 0 7173.25498593 0 1220.45365312 0 -118.82267075 0 12067
0.10650000 0.10649700 17148.62434869 0 -38.02610976 0 6013.74814108 0 1023.72428028 0 -316.33326881 0 12054
0.10750000 0.10749900 16675.28054641 0 285.57322808 0 5196.51911099 0 359.69070681 0 -296.68573539 0 12807
0.10850000 0.10850100 16439.33928757 0 325.16167589 0 4904.53196760 0 62.96933855 0 -236.35154260 0 12736
0.10950000 0.10950300 16321.76208092 0 174.12554828 0 4644.28842187 0 551.63943088 0 -301.22021390 0 12933
0.11050000 0.11050200 16089.86745634 0 377.04402340 0 4214.10871840 0 562.39448550 0 -778.45215727 0 13428
0.11150000 0.11150900 15775.57886190 0 243.88727485 0 4298.23374847 0 661.44822381 0 -256.33067520 0 13453
0.11250000 0.11250000 15392.83470451 0 418.44334005 0 3868.72848404 0 670.79370083 0 -647.84703643 0 13668
0.11350000 0.11349100 15028.75002734 0 451.26828831 0 3970.82731463 0 641.88836747 0 -83.80096211 0 13791
0.11450000 0.11448600 14662.52962652 0 267.17228283 0 3518.89695199 0 419.38193438 0 63.82441485 0 14205
0.11550000 0.11549300 14425.12708308 0 225.62458960 0 3973.24405453 0 289.65358430 0 356.10493922 0 14776
0.11650000 0.11649800 14321.26347033 0 126.14820283 0 3425.27357205 0 -452.83298689 0 152.49404001 0 14553
0.11750000 0.11747300 14060.25556035 0 162.43864371 0 3458.32108520 0 -24.73842413 0 -199.93183423 0 14568
0.11850000 0.11849100 14276.75049343 0 52.81194933 0 3633.70895855 0 -247.87208553 0 -111.61640197 0 16015
0.11950000 0.11950300 14008.09894096 0 46.68467062 0 3396.90216960 0 243.55455158 0 -845.76454604 0 15270
0.12050000 0.12050700 14133.99422915 0 237.00125221 0 3464.96430978 0 77.74101489 0 -597.97564133 0 15999
0.12150000 0.12150000 13813.07365078 0 229.51385476 0 3232.40648681 0 -136.39068377 0 -1064.55257187 0 15670
0.12250000 0.12250700 13813.63568332 0 286.04308728 0 3709.41474123 0 -127.55665637 0 -889.11074339 0 16887
0.12350000 0.12352200 13413.91814332 0 231.26627220 0 3188.01715707 0 -248.18794781 0 -1135.86775637 0 16407
0.12450000 0.12449800 13344.45092180 0 43.47366633 0 3835.88330260 0 482.29136026 0 -358.29574205 0 16306
0.12550000 0.12549900 13157.29408713 0 -52.87354810 0 3416.11244170 0 280.70040599 0 -342.14067882 0 17523
0.12650000 0.12650100 13461.35368941 0 -28.25393764 0 3887.11818863 0 1017.78247231 0 636.66371301 0 17154
0.12750000 0.12750600 13399.30529737 0 15.69577024 0 3615.47662307 0 535.67995498 0 1011.77884075 0 18007
0.12850000 0.12850300 13366.48259724 0 175.41822311 0 3532.04851334 0 465.44274888 0 1898.05131983 0 17496
0.12950000 0.12949900 13238.90121144 0 289.44563226 0 3777.44315945 0 324.74914401 0 2619.01541707 0 18405
0.13050000 0.13049000 13072.65198713 0 243.65908964 0 3802.09390650 0 -89.75086336 0 2863.80306804 0 18100
0.13150000 0.13148800 12884.14627437 0 381.40989215 0 4249.33691779 0 -380.36113944 0 3433.69281945 0 19059
0.13250000 0.13249300 12689.68301672 0 465.04258172 0 4455.18695463 0 -398.90371688 0 3071.72138461 0 18957
0.13350000 0.13349100 12311.32271312 0 313.19487912 0 4581.80164446 0 -66.84567695 0 2714.45978242 0 19468
0.13450000 0.13450700 12039.18655892 0 259.40724131 0 4371.10688716 0 -212.20887296 0 2238.57559308 0 19953
0.13550000 0.13551000 12046.49298190 0 28.56631533 0 4151.39712797 0 236.16382373 0 1231.26715912 0 19956
0.13650000 0.13649900 11836.18040672 0 -62.98012957 0 3820.62973956 0 402.09044136 0 1045.64579734 0 19723
0.13750000 0.13749600 11848.20790300 0 -49.64984187 0 3252.57221422 0 243.91537647 0 -333.87205614 0 20946
0.13850000 0.13851100 11883.95317233 0 -35.68131002 0 2929.38102440 0 455.22949363 0 1.83413698 0 20955
0.13950000 0.13949800 11639.01939290 0 38.80250151 0 2753.54352502 0 312.54966577 0 -56.16548507 0 20506
0.14050000 0.14048300 11733.21604602 0 87.80791688 0 2500.15677624 0 278.22071844 0 -74.27698356 0 21447
0.14150000 0.14148400 11598.77786328 0 158.36278376 0 2759.34370079 0 -87.56826620 0 150.24590987 0 21771
0.14250000 0.14249400 11591.47144031 0 226.49011971 0 2918.19657692 0 -402.22757730 0 376.71017608 0 22470
0.14350000 0.14350900 11360.02644175 0 305.19490800 0 3535.26333945 0 -411.63825009 0 646.23063085 0 22519
0.14450000 0.14449900 11275.60915476 0 251.79956889 0 3600.49283564 0 -164.65080378 0 967.60982777 0 22218
0.14550000 0.14550500 11025.86437682 0 127.95907166 0 3556.15970916 0 138.68377652 0 519.15732247 0 23559
0.14650000 0.14650700 11072.78285297 0 137.82836300 0 3507.55513540 0 120.05914233 0 542.17143077 0 23044
0.14750000 0.14750500 10829.97355653 0 70.97560444 0 3232.65378112 0 179.52555689 0 -289.78397584 0 23649
0.14850000 0.14849900 10756.56086661 0 68.33337708 0 2713.06594173 0 404.34194370 0 -262.26461473 0 23640
0.14950000 0.14949500 10585.83786331 0 147.47958572 0 2532.72094141 0 -215.49901142 0 -1093.07122684 0 24457
0.15050000 0.15050000 10515.62875884 0 45.89153030 0 2465.69294110 0 131.81236673 0 -1309.36720040 0 24591
0.15150000 0.15149900 10341.28626600 0 151.69707788 0 2543.87166693 0 -319.93364924 0 -1227.29920941 0 25020
0.15250000 0.15250500 10380.30256469 0 196.03582468 0 2516.26462874 0 -146.37125756 0 -1066.77822071 0 25297
0.15350000 0.15350100 10334.86785444 0 193.88324007 0 2928.99884228 0 -8.47079702 0 -868.89330899 0 25452
0.15450000 0.15450400 10136.09942756 0 207.86211332 0 3052.60103771 0 199.00110835 0 -444.76781999 0 26061
0.15550000 0.15549900 10024.44604385 0 203.23883367 0 3300.07520421 0 453.33094772 0 -165.53656706 0 26128
0.15650000 0.15649500 9789.13426145 0 204.46743680 0 3274.31163273 0 332.22305268 0 335.95944498 0 26331
0.15750000 0.15749700 9665.48710341 0 218.38336240 0 3274.90738722 0 478.67861512 0 398.53052728 0 27345
0.15850000 0.15849900 9553.12555870 0 201.67413509 0 3481.85900783 0 288.20466442 0 1085.26122271 0 26980
0.15950000 0.15949700 9357.98786201 0 78.17659011 0 3124.41755523 0 303.51892697 0 881.43787520 0 27777
0.16050000 0.16050000 9444.67576045 0 75.45758911 0 3363.09029221 0 255.76751860 0 1477.05522800 0 28224
0.16150000 0.16150500 9374.30928687 0 -22.61068135 0 2963.32778961 0 228.70902416 0 1215.60893265 0 28075
0.16250000 0.16249700 9372.31969169 0 47.26378894 0 2916.06085328 0 276.04228033 0 1366.43598416 0 28590
0.16350000 0.16349900 9318.45449339 0 57.17601957 0 2743.78664018 0 216.41400039 0 1479.43824596 0 29163
0.16450000 0.16449100 9241.74829280 0 -40.26783274 0 2539.21803753 0 216.33081958 0 1227.55774438 0 28996
0.16550000 0.16550500 9257.60885098 0 65.67080414 0 2273.43285099 0 162.51395607 0 997.60887644 0 30777
0.16650000 0.16650700 9129.79141152 0 62.12168108 0 2086.26477567 0 12.09201762 0 488.62546695 0 29211
0.16750000 0.16749900 9056.65973786 0 230.87846975 0 2312.82009116 0 -203.19949139 0 620.08150505 0 30922
0.16850000 0.16850800 8858.19480856 0 242.40575708 0 2275.70346244 0 -198.25248101 0 452.13269435 0 30867
0.16950000 0.16949900 8712.97684176 0 246.28490565 0 2366.43799514 0 -251.60960190 0 441.23600753 0 30852
0.17050000 0.17049200 8605.03287279 0 201.39424289 0 2492.82787196 0 -169.66750620 0 56.27193403 0 31257
0.17150000 0.17149500 8387.85226002 0 185.25941283 0 2649.74735617 0 -55.33255285 0 199.79357422 0 32608
0.17250000 0.17250900 8289.88998890 0 228.72251294 0 2600.00747668 0 -102.45459719 0 68.59371055 0 32361
0.17350000 0.17350400 8094.50499789 0 222.43561699 0 2675.11750487 0 -126.45282446 0 -340.29496397 0 32508
0.17450000 0.17449800 7938.86694787 0 174.61114439 0 2496.37991759 0 -158.36503189 0 -516.85860939 0 32791
0.17550000 0.17549800 7845.70443461 0 54.42206014 0 2457.15004654 0 37.57389839 0 -619.67571756 0 33633
0.17650000 0.17650100 7787.65771424 0 -5.90186994 0 2307.72807637 0 93.16464898 0 -749.79973856 0 33984
0.17750000 0.17750300 7850.97629981 0 -52.16718560 0 1912.92270075 0 376.95297413 0 -1033.13158088 0 34069
