### header ###
fiducial parameters:
Omega_m = 0.31
Omega_nu = 0
Omega_de = 0.69
Omega_k = 0
H_0 = 100
w_de = -1
zeff = 0
beta = 0
fgrowth = 0
b_1 = 2
gamma = 0.55
Lx = 3500 Ly = 3500 Lz = 3500
nx = 700 ny = 700 nz = 700
xoffset = 857.220397 yoffset = 15.9954215 zoffset = 262.898189
bins = 400 dk = 0.001
kx_ny = 0.628318531 ky_ny = 0.628318531 kz_ny = 0.628318531
############################
A(data) = 3.04532713 (not used)
A(ran) = 3.04003229 (used)
Ngal = 185980
weighted Ngal = 0
Nran = 9360983
weighted Nran = 0
SN(data) = 3456.28428
SN(ran) = 68.2677002
SN(data+ran) = 3524.55198
############################
13 columns: k_central k_mean P_0(k) sigma^{lin}_{P_0(k)} P^img_1(k) sigma^{lin}_{P_1(k)} P_2(k) sigma^{lin}_{P_2(k)} P^img_3(k) sigma^{lin}_{P_3(k)} P_4(k) sigma^{lin}_{P_4(k)} N_modes
### header ###
0.00050000 0 0 0 0 0 0 0 0 0 0 0 0
0.00150000 0.00179520 7180.75249997 0 -6168.59934555 0 5097.68006911 0 -16899.75634151 0 -38789.46235552 0 3
0.00250000 0.00253879 12102.24660952 0 -7061.28686400 0 -11677.79963792 0 14673.99509027 0 13670.42979300 0 6
0.00350000 0.00331552 21369.15147866 0 -8507.32913664 0 5188.67313677 0 -4831.10803702 0 -6514.41796529 0 7
0.00450000 0.00420575 29465.56738718 0 -9765.31532255 0 -6306.64577718 0 19692.15879610 0 131.23572135 0 24
0.00550000 0.00557378 50454.33524510 0 -10629.06940602 0 19354.37724164 0 32052.94037244 0 7998.90326343 0 45
0.00650000 0.00659388 59987.86834957 0 -15101.58944407 0 -10204.95965394 0 16942.58322079 0 -26387.09037148 0 40
0.00750000 0.00754703 79967.90021090 0 -9660.36136667 0 53992.89209521 0 28651.96908727 0 19153.50681307 0 57
0.00850000 0.00846663 88698.51363366 0 -8564.81382448 0 26027.61436110 0 19154.63087815 0 3707.70616232 0 75
0.00950000 0.00948925 96541.45286819 0 -3952.13411246 0 61045.50117685 0 23498.58035314 0 53221.55864205 0 112
0.01050000 0.01054430 106853.40103579 0 -122.51634858 0 41773.85512460 0 23828.38104558 0 17755.28226864 0 105
0.01150000 0.01145670 102404.80110249 0 2643.30646330 0 42168.96399779 0 22711.95961498 0 27073.21969210 0 144
0.01250000 0.01249090 98935.93628691 0 8305.98660075 0 34190.12529592 0 20156.73489081 0 28799.33401835 0 169
0.01350000 0.01339930 87670.10649828 0 11532.23321095 0 36978.81833577 0 1704.83577442 0 38942.44761197 0 180
0.01450000 0.01448870 79244.45192985 0 6600.64499705 0 18851.80774745 0 16555.79242914 0 10110.90912927 0 267
0.01550000 0.01550050 75779.40893551 0 4887.71595410 0 -2174.63877172 0 6104.19041686 0 -2537.67806838 0 238
0.01650000 0.01653350 69478.12494873 0 3147.65198030 0 6356.35193471 0 -9290.64512348 0 -1730.86912151 0 315
0.01750000 0.01747870 73455.40439688 0 1654.76991606 0 10768.07129296 0 -13643.78945077 0 -3541.32205020 0 297
0.01850000 0.01844180 66402.12087620 0 2222.90612596 0 18034.16281328 0 -12736.55653027 0 -5137.16847513 0 388
0.01950000 0.01947590 69959.33720653 0 3250.75122880 0 13362.09874345 0 -10542.74120841 0 -19326.72524084 0 399
0.02050000 0.02045430 66805.66023744 0 2994.98146207 0 26272.43573402 0 -1836.46379448 0 -13838.70233445 0 462
0.02150000 0.02154770 65904.49726834 0 2235.52937673 0 29993.20353249 0 2643.95842104 0 -10453.71525462 0 571
0.02250000 0.02255340 62852.99781440 0 2536.65516916 0 30573.22111021 0 12908.98811248 0 -11543.81108121 0 510
0.02350000 0.02348930 62832.42742356 0 113.76100572 0 26945.18868027 0 9672.60243532 0 -5246.22526852 0 555
0.02450000 0.02439640 61528.51193876 0 1789.62400288 0 23915.83330827 0 9831.65764316 0 -5402.11061285 0 592
0.02550000 0.02547300 64379.02855763 0 161.06840839 0 29922.16261987 0 7903.75115499 0 12563.33810251 0 837
0.02650000 0.02652900 63893.43244606 0 -21.82361099 0 16122.35293695 0 9203.49635836 0 10592.14386837 0 723
0.02750000 0.02749970 64946.56901304 0 -1096.33101555 0 28635.55773720 0 9270.22086110 0 28713.45544677 0 826
0.02850000 0.02848090 64145.33542894 0 394.87281953 0 17486.63071617 0 15826.83622924 0 20682.46012550 0 831
0.02950000 0.02946900 63333.98525917 0 788.09438747 0 21872.62022490 0 11376.10057230 0 31707.06554944 0 996
0.03050000 0.03053250 59345.12794077 0 2462.68044670 0 18050.46175684 0 5388.89160760 0 28537.08963680 0 1041
0.03150000 0.03150510 58368.20298574 0 4245.88603801 0 19440.03100021 0 5699.60567510 0 28955.46665700 0 1036
0.03250000 0.03246190 53671.97151684 0 4097.08230364 0 20459.89524103 0 -712.49089471 0 33201.73487714 0 1059
0.03350000 0.03345080 49249.56229975 0 4769.73408403 0 18849.22239778 0 -1883.53963974 0 30953.82954396 0 1302
0.03450000 0.03451200 48505.43122136 0 1462.46486336 0 25384.08710675 0 336.73504988 0 29926.09684763 0 1339
0.03550000 0.03553350 45228.55672026 0 2224.51353901 0 21144.78809007 0 4105.88373316 0 20946.84023069 0 1365
0.03650000 0.03647120 47101.69875807 0 1492.60104797 0 28848.23084903 0 4803.91690290 0 21790.22625504 0 1308
0.03750000 0.03744890 43729.39113227 0 2330.24309979 0 22204.89386051 0 -1034.34894335 0 18218.39707876 0 1579
0.03850000 0.03847530 43703.76244860 0 2309.71767155 0 23359.75831661 0 2303.38918519 0 19370.33896567 0 1662
0.03950000 0.03950240 40824.02013783 0 827.63450048 0 19834.35302785 0 1359.96136934 0 15402.38925763 0 1683
0.04050000 0.04050350 41597.71412764 0 -79.57054321 0 22788.50844646 0 4310.59846427 0 17665.58187581 0 1822
0.04150000 0.04152450 42796.86674762 0 -2200.57095296 0 16720.35555584 0 10388.83421860 0 15893.94291410 0 1887
0.04250000 0.04250150 42183.68925025 0 -1.84932310 0 17246.41801005 0 2993.73374984 0 15192.97593451 0 1920
0.04350000 0.04349210 42436.26667217 0 1311.69401510 0 10484.63828478 0 8236.51937923 0 14573.27885972 0 2005
0.04450000 0.04448520 40431.83383382 0 918.01607674 0 12607.51385988 0 3893.14317743 0 15975.88725793 0 2151
0.04550000 0.04548030 39459.51754559 0 869.75996316 0 7286.52702335 0 3584.58731486 0 16244.98843643 0 2274
0.04650000 0.04648670 38949.07959590 0 -165.82320365 0 5555.25323841 0 2138.41015441 0 13888.38601068 0 2311
0.04750000 0.04749250 39218.85521344 0 94.85827783 0 6993.15727992 0 62.00770088 0 10069.64470044 0 2568
0.04850000 0.04851840 38822.95949470 0 709.90442098 0 2839.47829985 0 -3295.88244148 0 6266.10074999 0 2493
0.04950000 0.04949480 38255.53144580 0 1359.24196769 0 8815.26676342 0 -4849.93612700 0 5024.64956131 0 2644
0.05050000 0.05050630 37887.06291483 0 1156.98893909 0 8068.78638902 0 -4896.16892345 0 4705.86470658 0 2829
0.05150000 0.05149060 36538.29723362 0 17.05633861 0 12438.56687939 0 -1300.30723591 0 630.53868243 0 2784
0.05250000 0.05249300 38387.83390490 0 -535.88790701 0 10336.86869027 0 -791.42049602 0 124.63296311 0 3055
0.05350000 0.05348950 38264.07434035 0 -893.90600499 0 11563.25740697 0 3010.01021209 0 -4683.76558724 0 3009
0.05450000 0.05448610 38581.73513001 0 836.17739503 0 11161.85376937 0 1907.62835426 0 -3458.39976975 0 3336
0.05550000 0.05550870 37796.01364391 0 986.44803433 0 10907.44412137 0 -417.21361286 0 -5647.68510937 0 3349
0.05650000 0.05647670 37751.16344750 0 632.77219973 0 9475.39645889 0 1635.57088461 0 -3053.15182960 0 3324
0.05750000 0.05747970 35830.24864408 0 49.84374310 0 7518.53405444 0 902.50397874 0 -4270.32321270 0 3639
0.05850000 0.05849280 36242.10608686 0 84.73562222 0 8843.39087154 0 1154.01016665 0 -2281.37999106 0 3846
0.05950000 0.05951020 35024.74361270 0 1163.47479456 0 9107.60236698 0 -1220.07147099 0 -2066.81844991 0 3787
0.06050000 0.06049470 35487.97082932 0 2172.73910175 0 11060.10339895 0 -655.13210216 0 609.21629206 0 3930
0.06150000 0.06148310 32992.88358656 0 1175.50229084 0 12745.77386387 0 121.98016954 0 5708.96913716 0 4083
0.06250000 0.06249100 32900.82265707 0 396.92536235 0 11895.86826210 0 1528.94207178 0 6763.78056111 0 4303
0.06350000 0.06350600 33554.01687105 0 -100.71173429 0 14075.20562583 0 1730.47569873 0 6641.84198198 0 4470
0.06450000 0.06451750 32630.82222652 0 209.34363108 0 11590.12256222 0 521.28180545 0 6163.79958769 0 4479
0.06550000 0.06550280 32525.94695520 0 960.69120724 0 13951.67087429 0 -691.41355053 0 6262.13280028 0 4636
0.06650000 0.06648880 31599.82974147 0 1641.35981974 0 11600.01433486 0 -1393.45850852 0 2189.25161767 0 4653
0.06750000 0.06749660 30280.28975216 0 1607.57042364 0 12353.13793384 0 -1334.64742389 0 1040.16935230 0 5220
0.06850000 0.06852730 28659.50032326 0 851.44332279 0 10909.48991981 0 248.99053028 0 -1497.82795056 0 5029
0.06950000 0.06949320 29032.24030150 0 -275.44090551 0 12175.08602626 0 477.82882192 0 -2016.19055901 0 5040
0.07050000 0.07048030 29080.12547361 0 -94.65234911 0 11150.09604870 0 2231.98857175 0 -2022.57524863 0 5475
0.07150000 0.07148790 28912.30255820 0 -91.59399286 0 11874.28621270 0 1949.82575710 0 -429.09048442 0 5509
0.07250000 0.07249820 29364.40153060 0 598.92435225 0 11549.76862609 0 1882.15703970 0 2396.85519602 0 5916
0.07350000 0.07351270 28404.44995817 0 523.60187577 0 11980.84758163 0 1884.45013245 0 3603.48284874 0 5721
0.07450000 0.07449140 28074.98648525 0 1000.36845619 0 11789.30689317 0 1918.00347488 0 6917.10303708 0 6028
0.07550000 0.07549160 26681.14579460 0 1059.72471238 0 10705.83180986 0 929.56134911 0 6509.43835702 0 6183
0.07650000 0.07648840 26387.87721703 0 881.87288838 0 11845.95977286 0 1476.96530280 0 7654.34359657 0 6330
0.07750000 0.07749960 25343.28354460 0 499.39288629 0 9281.70880615 0 737.92961138 0 5759.81060042 0 6583
0.07850000 0.07848650 24720.21427458 0 234.37206400 0 7653.55675102 0 1187.40613997 0 4335.36161783 0 6549
0.07950000 0.07947320 24514.51036620 0 -97.51163343 0 7786.72474023 0 1212.14681223 0 236.80791301 0 6828
0.08050000 0.08048110 24608.59461282 0 163.58069383 0 6166.29501215 0 1024.41558030 0 -250.99586237 0 7147
0.08150000 0.08149960 24176.61640523 0 29.57111710 0 4354.56064928 0 509.84669147 0 -1098.19471544 0 7386
0.08250000 0.08250610 23686.97365939 0 692.62754081 0 4449.69027642 0 -235.83447266 0 -2067.58281416 0 7227
0.08350000 0.08350160 23460.13732764 0 706.87956187 0 5639.90657907 0 -607.59763835 0 -2354.48918341 0 7798
0.08450000 0.08449610 22895.51944142 0 683.39671843 0 6450.86332606 0 -2098.92174840 0 -852.55277502 0 7371
0.08550000 0.08548940 22526.26406491 0 770.57583330 0 7728.70050116 0 -1475.21176128 0 -633.23419047 0 8256
0.08650000 0.08650700 22456.00999784 0 444.34741966 0 9189.04088152 0 -1513.80091524 0 536.76692590 0 8037
0.08750000 0.08749060 21933.43214535 0 462.87201206 0 10031.48269121 0 -615.32670980 0 -697.67122079 0 8155
0.08850000 0.08849210 22262.33358574 0 345.85683795 0 11212.62778872 0 72.45150188 0 1368.86396472 0 8718
0.08950000 0.08949900 21696.70404096 0 236.35491479 0 10127.44412650 0 1305.55661980 0 526.23556023 0 8571
0.09050000 0.09049190 21690.97130909 0 -24.03925565 0 8825.46203363 0 2493.38990450 0 1410.91523910 0 8932
0.09150000 0.09150830 21242.69415793 0 -24.75888211 0 7358.78192625 0 2520.98570204 0 -154.85008041 0 9285
0.09250000 0.09250820 21010.79953335 0 123.66514308 0 5976.01327658 0 2096.49376784 0 156.26752646 0 9204
0.09350000 0.09350330 20945.15413309 0 159.32161127 0 4799.79158409 0 1007.10835037 0 -334.43408868 0 9349
0.09450000 0.09448040 20242.16383637 0 487.00906138 0 4249.94391293 0 -428.38906781 0 -325.86309250 0 9564
0.09550000 0.09549270 20020.72301697 0 226.27879548 0 4448.10534466 0 -239.63493667 0 -14.25820342 0 10155
0.09650000 0.09649430 19608.64076117 0 99.92803612 0 4969.68277923 0 -149.78279506 0 -774.47071878 0 9913
0.09750000 0.09749140 19960.36072254 0 209.62464735 0 5243.46006844 0 94.22655326 0 194.54868659 0 10476
0.09850000 0.09850240 19349.20654230 0 756.36540265 0 5868.56389624 0 -178.81514776 0 -520.35782396 0 10575
0.09950000 0.09950330 18833.26067375 0 925.32699598 0 5763.48629321 0 57.83730705 0 151.77463837 0 10882
0.10050000 0.10051200 18142.07306030 0 820.14935116 0 6184.90952976 0 605.66424643 0 1720.62888869 0 10875
0.10150000 0.10150300 17548.11707567 0 399.89851447 0 5356.30496113 0 1222.27463854 0 2364.71817558 0 11118
0.10250000 0.10250800 17485.61905761 0 81.54024244 0 5004.58499975 0 1781.72182542 0 3307.14557352 0 11575
0.10350000 0.10349800 17326.67625627 0 -85.02787914 0 4652.24680259 0 1161.69877175 0 2798.71970030 0 11364
0.10450000 0.10450100 17386.47651816 0 172.18878416 0 4326.04311838 0 380.48029033 0 3469.46057007 0 12093
0.10550000 0.10551000 17343.76204538 0 405.74590098 0 4581.46442494 0 -1000.55954726 0 3162.65824902 0 12067
0.10650000 0.10649700 16957.87050579 0 525.22727386 0 5912.42491539 0 -1431.53059254 0 3344.37460874 0 12054
0.10750000 0.10749900 16561.74997403 0 392.06378091 0 5513.38181444 0 -1129.43810415 0 2578.93125656 0 12807
0.10850000 0.10850100 16523.75657456 0 225.69090944 0 6489.44123937 0 -443.71681915 0 2023.78923891 0 12736
0.10950000 0.10950300 16047.26539007 0 256.59483050 0 5964.16563071 0 335.62110140 0 873.71554815 0 12933
0.11050000 0.11050200 15751.74868235 0 199.16971811 0 5415.05984250 0 930.32908556 0 19.05492631 0 13428
0.11150000 0.11150900 15353.71723997 0 354.74819268 0 5390.03815397 0 382.51709625 0 -267.79726302 0 13453
0.11250000 0.11250000 15158.01751074 0 265.80654377 0 4373.89456854 0 204.44832769 0 -1542.65566567 0 13668
0.11350000 0.11349100 14908.02543848 0 119.54881678 0 4608.29585823 0 -491.86277436 0 -1154.87569675 0 13791
0.11450000 0.11448600 14794.15764658 0 46.06587279 0 4418.68856170 0 -681.92981351 0 -2418.52717063 0 14205
0.11550000 0.11549300 15029.98649892 0 -37.67135483 0 5192.12401655 0 -641.90860064 0 -1936.93273071 0 14776
0.11650000 0.11649800 14718.73288017 0 178.20590449 0 4799.18458895 0 -158.49767157 0 -3418.92260439 0 14553
0.11750000 0.11747300 14939.72407355 0 198.34690247 0 4763.65289199 0 -40.48994800 0 -3101.92501312 0 14568
0.11850000 0.11849100 14453.22870991 0 162.46000095 0 4777.95099972 0 293.84634702 0 -2672.21741698 0 16015
0.11950000 0.11950300 14621.72606437 0 107.16825166 0 4502.58877876 0 950.45996695 0 -2071.14610044 0 15270
0.12050000 0.12050700 14482.45440181 0 64.98995792 0 4778.34442249 0 1031.18245204 0 -790.22786297 0 15999
0.12150000 0.12150000 14383.42426887 0 136.01299791 0 4392.63273331 0 991.41415382 0 -357.52800561 0 15670
0.12250000 0.12250700 14165.24323818 0 372.15546440 0 5255.56624927 0 260.15811678 0 912.51827447 0 16887
0.12350000 0.12352200 14060.36796686 0 334.60045031 0 5506.79479311 0 -191.18773202 0 968.55516650 0 16407
0.12450000 0.12449800 13865.90470921 0 425.78123684 0 6333.65706088 0 -721.92404881 0 2297.17310534 0 16306
0.12550000 0.12549900 13674.02680124 0 164.38889662 0 6517.68899465 0 -407.30722737 0 2269.11644111 0 17523
0.12650000 0.12650100 13500.58356046 0 58.14968474 0 6847.88310987 0 216.53315129 0 2517.07395559 0 17154
0.12750000 0.12750600 13771.14602355 0 -115.64381472 0 6232.86214578 0 838.58851461 0 2121.68406613 0 18007
0.12850000 0.12850300 13585.67528649 0 -72.04481514 0 5673.65101256 0 1001.16879053 0 1403.14794945 0 17496
0.12950000 0.12949900 13654.13084944 0 -31.65502134 0 5156.91829846 0 786.24417636 0 753.96777185 0 18405
0.13050000 0.13049000 13381.65747572 0 152.08263220 0 4654.20267582 0 151.73079983 0 775.14290969 0 18100
0.13150000 0.13148800 13241.48656111 0 434.38707904 0 4743.88058735 0 -491.51768638 0 607.80671446 0 19059
0.13250000 0.13249300 12969.80003294 0 478.94726667 0 4836.16632985 0 -443.58530354 0 903.08287225 0 18957
0.13350000 0.13349100 12701.14848047 0 241.40758729 0 4929.68854393 0 -196.49219510 0 580.69089270 0 19468
0.13450000 0.13450700 12593.46304647 0 123.93829089 0 4935.18522214 0 272.25755323 0 456.39739724 0 19953
0.13550000 0.13551000 12506.57281632 0 38.04038539 0 4759.97719920 0 650.05132803 0 984.50789801 0 19956
0.13650000 0.13649900 12429.12473278 0 121.42600546 0 4528.97058602 0 808.24100577 0 419.21894495 0 19723
0.13750000 0.13749600 12426.65178962 0 132.80154400 0 3886.15149267 0 515.58167147 0 440.89766395 0 20946
0.13850000 0.13851100 12005.68941974 0 312.95320513 0 3775.38612037 0 304.71043595 0 846.35018394 0 20955
0.13950000 0.13949800 12082.01343821 0 140.11358730 0 3657.87635763 0 102.77000984 0 1015.53096997 0 20506
0.14050000 0.14048300 11762.21692491 0 80.76711048 0 3606.90000656 0 259.35890651 0 1495.57982041 0 21447
0.14150000 0.14148400 11943.30380819 0 90.43103513 0 3623.07530296 0 68.82740368 0 1260.05446564 0 21771
0.14250000 0.14249400 11674.76466222 0 91.03915434 0 3547.23463248 0 197.71855010 0 1066.49608038 0 22470
0.14350000 0.14350900 11795.48925107 0 92.93207992 0 3590.39873129 0 132.16869536 0 875.09477599 0 22519
0.14450000 0.14449900 11488.05745358 0 127.45773864 0 3375.69106167 0 132.95891311 0 825.47854367 0 22218
0.14550000 0.14550500 11608.10760339 0 117.78515868 0 3424.20571023 0 81.61386870 0 675.72609837 0 23559
0.14650000 0.14650700 11268.19032528 0 124.90611092 0 3483.71371520 0 155.47168839 0 166.08398675 0 23044
0.14750000 0.14750500 11243.79811320 0 178.31493881 0 2972.18542238 0 130.13863384 0 389.77968068 0 23649
0.14850000 0.14849900 10908.90540597 0 198.76393062 0 3110.50162963 0 10.88101735 0 -7.73420842 0 23640
0.14950000 0.14949500 10850.57766932 0 363.53613342 0 2836.67937782 0 -167.53965102 0 -432.39973199 0 24457
0.15050000 0.15050000 10486.54919540 0 285.73172126 0 3208.99221133 0 -60.55821897 0 -235.85807803 0 24591
0.15150000 0.15149900 10156.71478100 0 284.61664870 0 2688.75241420 0 -24.85768743 0 -600.17431261 0 25020
0.15250000 0.15250500 10086.78669280 0 184.23763768 0 3170.24568826 0 -30.87593183 0 -209.21099141 0 25297
0.15350000 0.15350100 9797.48606494 0 101.19204730 0 2982.65046821 0 162.31387249 0 -570.50798720 0 25452
0.15450000 0.15450400 9877.12607537 0 110.17400167 0 3319.86999014 0 211.20508284 0 197.51959058 0 26061
0.15550000 0.15549900 9860.61355945 0 13.72404770 0 2909.70988562 0 292.57615349 0 207.50016436 0 26128
0.15650000 0.15649500 9775.33074235 0 -20.04376635 0 3127.41880898 0 397.89543051 0 872.74323186 0 26331
0.15750000 0.15749700 9891.63775546 0 -102.02700283 0 2796.35916365 0 514.96905600 0 626.71686118 0 27345
0.15850000 0.15849900 9942.02959269 0 -4.76689020 0 2633.12243373 0 554.60808674 0 1208.33623163 0 26980
0.15950000 0.15949700 9950.29147098 0 142.07283272 0 2293.78966947 0 307.24632676 0 977.27004301 0 27777
0.16050000 0.16050000 9746.94809925 0 236.70112683 0 2339.37050818 0 102.36602086 0 1076.47103384 0 28224
0.16150000 0.16150500 9528.12635147 0 278.55231763 0 2445.76326735 0 -144.13324400 0 1394.17791016 0 28075
0.16250000 0.16249700 9322.35499919 0 289.01961160 0 2284.33628220 0 10.94996750 0 987.35515484 0 28590
0.16350000 0.16349900 9084.15436955 0 200.82321783 0 2579.98787773 0 -161.13810042 0 1370.49385907 0 29163
0.16450000 0.16449100 9030.23296800 0 202.87913285 0 2619.35263659 0 -125.35011663 0 1175.78330711 0 28996
0.16550000 0.16550500 8977.52555672 0 115.31109146 0 2905.58456680 0 -256.72634611 0 1116.63500297 0 30777
0.16650000 0.16650700 8942.73574271 0 110.11341456 0 2924.15412181 0 -208.80857611 0 856.47014180 0 29211
0.16750000 0.16749900 8771.57435402 0 81.24067909 0 2930.43764557 0 -92.64971477 0 1093.88167776 0 30922
0.16850000 0.16850800 8882.15987592 0 67.90061203 0 3181.64370811 0 71.41826126 0 779.68076039 0 30867
0.16950000 0.16949900 8677.71492042 0 109.18212665 0 3023.69008403 0 246.74352420 0 974.14514210 0 30852
0.17050000 0.17049200 8578.03282974 0 139.28065508 0 2720.88943464 0 382.15065103 0 476.19330724 0 31257
0.17150000 0.17149500 8496.67299975 0 162.24418046 0 2768.90949457 0 165.26791550 0 569.85040913 0 32608
0.17250000 0.17250900 8318.35131655 0 175.67338588 0 2772.11308002 0 108.44429033 0 965.65732674 0 32361
0.17350000 0.17350400 8219.46731207 0 56.77158096 0 2878.78685546 0 44.21880907 0 523.10616307 0 32508
0.17450000 0.17449800 8200.03222696 0 38.81419179 0 2773.76545568 0 -9.80629874 0 844.58427771 0 32791
0.17550000 0.17549800 8233.10222141 0 -0.90108878 0 2800.15850360 0 166.59206416 0 410.55352730 0 33633
0.17650000 0.17650100 8255.68468873 0 -5.96246829 0 2718.94480207 0 96.11745552 0 700.51285730 0 33984
0.17750000 0.17750300 8142.17659764 0 86.65788590 0 2631.16656051 0 156.61711070 0 494.86627624 0 34069
