### header ###
fiducial parameters:
Omega_m = 0.31
Omega_nu = 0
Omega_de = 0.69
Omega_k = 0
H_0 = 100
w_de = -1
zeff = 0
beta = 0
fgrowth = 0
b_1 = 2
gamma = 0.55
Lx = 3500 Ly = 3500 Lz = 3500
nx = 700 ny = 700 nz = 700
xoffset = 857.220397 yoffset = 15.9954215 zoffset = 262.898189
bins = 400 dk = 0.001
kx_ny = 0.628318531 ky_ny = 0.628318531 kz_ny = 0.628318531
############################
A(data) = 3.11350133 (not used)
A(ran) = 3.11030966 (used)
Ngal = 190097
weighted Ngal = 0
Nran = 9360983
weighted Nran = 0
SN(data) = 3460.44858
SN(ran) = 69.8458659
SN(data+ran) = 3530.29445
############################
13 columns: k_central k_mean P_0(k) sigma^{lin}_{P_0(k)} P^img_1(k) sigma^{lin}_{P_1(k)} P_2(k) sigma^{lin}_{P_2(k)} P^img_3(k) sigma^{lin}_{P_3(k)} P_4(k) sigma^{lin}_{P_4(k)} N_modes
### header ###
0.00050000 0 0 0 0 0 0 0 0 0 0 0 0
0.00150000 0.00179520 8773.17052643 0 -9171.42678183 0 -434.69956913 0 15596.85251528 0 -26962.38687589 0 3
0.00250000 0.00253879 18697.92323895 0 -10396.88252452 0 27.62670933 0 -7117.38895180 0 26387.20277799 0 6
0.00350000 0.00331552 22689.59072003 0 -7783.16145395 0 -3407.92924797 0 -15022.34285642 0 -3482.70205663 0 7
0.00450000 0.00420575 25431.07302681 0 -1439.19671634 0 -2398.37268387 0 -19864.59037831 0 -425.63173619 0 24
0.00550000 0.00557378 28028.89981725 0 2598.29889777 0 6048.76276811 0 -29433.64393910 0 -18619.80071636 0 45
0.00650000 0.00659388 23747.44836032 0 2396.68658626 0 17019.80649132 0 -31766.07896578 0 -30476.88873344 0 40
0.00750000 0.00754703 31473.70964027 0 -8157.62125175 0 11819.99386967 0 -19626.40098933 0 -22863.48358684 0 57
0.00850000 0.00846663 40116.30876781 0 -14103.64447217 0 12853.90892390 0 -10745.87100777 0 -36400.14963614 0 75
0.00950000 0.00948925 68937.22483556 0 -33499.05008898 0 -18284.26729204 0 26760.16756924 0 -24802.15861841 0 112
0.01050000 0.01054430 83689.11763539 0 -22282.90397658 0 -5266.07625771 0 6264.67318735 0 -37983.73251112 0 105
0.01150000 0.01145670 101728.00152198 0 -11272.57417907 0 -32300.00987550 0 15444.20447835 0 -10610.70218272 0 144
0.01250000 0.01249090 95849.25359618 0 4419.37424140 0 -21904.99329900 0 7076.75399941 0 3634.06865938 0 169
0.01350000 0.01339930 100504.23187689 0 10979.67654297 0 -9410.97628956 0 -21369.71351119 0 17855.09924714 0 180
0.01450000 0.01448870 83877.73575466 0 15100.46537900 0 3085.52490370 0 -22605.28583955 0 44719.69246167 0 267
0.01550000 0.01550050 69706.98459762 0 10314.74708963 0 43967.46811475 0 -3524.86573753 0 16821.63381893 0 238
0.01650000 0.01653350 72524.56610985 0 8431.91561089 0 49606.00333443 0 -24706.27586767 0 59814.98714133 0 315
0.01750000 0.01747870 72423.28784676 0 3074.91372941 0 65323.80525157 0 26960.81318479 0 27158.87345067 0 297
0.01850000 0.01844180 78659.03883978 0 -2178.55051817 0 79121.81643037 0 -2506.91240733 0 43667.79236626 0 388
0.01950000 0.01947590 71562.02918775 0 -2331.00746404 0 50562.35789862 0 26124.73358342 0 9029.65969481 0 399
0.02050000 0.02045430 82513.00834941 0 -1536.81052729 0 65548.73067270 0 7582.78561402 0 9815.78584433 0 462
0.02150000 0.02154770 75885.52067841 0 2844.64899919 0 43213.22045070 0 6223.10526094 0 122.87942160 0 571
0.02250000 0.02255340 77745.96078090 0 5674.28048900 0 46246.39764395 0 -1065.41585385 0 -15748.71370666 0 510
0.02350000 0.02348930 74816.98441993 0 2805.99240133 0 37558.27388095 0 -1046.30337541 0 -13370.75404451 0 555
0.02450000 0.02439640 68810.76751484 0 -1015.70295192 0 39706.24982914 0 -2933.76487819 0 -27183.94010180 0 592
0.02550000 0.02547300 74601.83836493 0 1684.50143724 0 45680.99291218 0 -2507.11473904 0 -24785.85967485 0 837
0.02650000 0.02652900 73831.17935082 0 -1206.22298929 0 46306.87234488 0 3461.95181538 0 -36331.91888620 0 723
0.02750000 0.02749970 74476.16788976 0 2660.81939714 0 46387.80503015 0 6114.31824317 0 -22323.81994524 0 826
0.02850000 0.02848090 71543.81933357 0 2832.08195167 0 49521.47364093 0 7413.78243028 0 -31193.25540453 0 831
0.02950000 0.02946900 67759.42945197 0 2819.87460498 0 46148.49157608 0 12477.68434394 0 -12077.06755188 0 996
0.03050000 0.03053250 64943.30922433 0 1358.91598882 0 34834.77661534 0 11429.04403724 0 -12555.35724049 0 1041
0.03150000 0.03150510 62572.31876564 0 1315.69568676 0 23284.67076973 0 10507.28819600 0 -9996.38937963 0 1036
0.03250000 0.03246190 62383.58823987 0 107.99961019 0 24425.59681892 0 12511.74351565 0 -5332.56470678 0 1059
0.03350000 0.03345080 57743.78483764 0 4195.95506747 0 15880.79135274 0 3674.54624266 0 2933.12416109 0 1302
0.03450000 0.03451200 54978.80957083 0 4450.85930409 0 17261.93010806 0 2503.52897146 0 4052.83910236 0 1339
0.03550000 0.03553350 49816.54072262 0 3280.11180851 0 20036.45992799 0 -363.62381050 0 9104.35381892 0 1365
0.03650000 0.03647120 50766.82533542 0 1951.11843193 0 23325.81155140 0 -562.28882339 0 15714.76694145 0 1308
0.03750000 0.03744890 48542.97499480 0 -610.06608525 0 21822.93654867 0 2904.91012776 0 14435.69329477 0 1579
0.03850000 0.03847530 50118.46460126 0 665.30264295 0 28705.02495872 0 2294.35170200 0 16867.49567391 0 1662
0.03950000 0.03950240 49629.83351398 0 651.45978157 0 26491.40361026 0 2749.23835579 0 18521.44502247 0 1683
0.04050000 0.04050350 48801.06033558 0 1118.93821230 0 23320.30363254 0 4551.13714927 0 11844.83570778 0 1822
0.04150000 0.04152450 49897.92303391 0 1183.42694961 0 22605.62305907 0 1315.45963310 0 14267.53315983 0 1887
0.04250000 0.04250150 46606.66049988 0 462.80456816 0 14606.77599889 0 1894.00468557 0 3798.53062022 0 1920
0.04350000 0.04349210 47950.14307525 0 -200.60514921 0 19557.27098733 0 2135.77984214 0 14091.27975637 0 2005
0.04450000 0.04448520 47389.79663631 0 -592.49020377 0 9594.13145257 0 3980.07837018 0 1537.37255983 0 2151
0.04550000 0.04548030 48415.50601551 0 -1.52259110 0 17458.19186982 0 949.01329520 0 7401.21538276 0 2274
0.04650000 0.04648670 46541.57713215 0 1757.17224422 0 14933.20449612 0 -102.67884817 0 -923.50263837 0 2311
0.04750000 0.04749250 44490.72040628 0 3805.40989847 0 16680.22643273 0 -7432.52059504 0 -965.55054056 0 2568
0.04850000 0.04851840 43237.38784977 0 1858.82144878 0 22854.49106625 0 -3669.83641000 0 5190.76389781 0 2493
0.04950000 0.04949480 41551.40264663 0 142.32237517 0 23880.53766498 0 -3117.07741031 0 -4604.54148089 0 2644
0.05050000 0.05050630 42890.50136821 0 271.11100685 0 30417.76291060 0 -2222.73751620 0 636.96271432 0 2829
0.05150000 0.05149060 42911.52138508 0 425.51595749 0 26656.07914347 0 -190.12998679 0 -8271.29795259 0 2784
0.05250000 0.05249300 42152.32783471 0 2059.25349197 0 31325.44545713 0 210.74196803 0 -3507.61133865 0 3055
0.05350000 0.05348950 40997.12615909 0 1196.51106706 0 30658.87486878 0 2375.04833360 0 -3287.05853066 0 3009
0.05450000 0.05448610 39275.50809313 0 241.41882794 0 26049.53363003 0 3644.64611172 0 -4050.92819174 0 3336
0.05550000 0.05550870 40062.24123779 0 -226.31588962 0 25887.10622697 0 5083.22459227 0 -5189.08904085 0 3349
0.05650000 0.05647670 40519.06128350 0 -449.99247445 0 19904.49468841 0 3185.56669521 0 -5282.02674110 0 3324
0.05750000 0.05747970 40025.59671641 0 269.20459249 0 19941.81364884 0 1308.49042964 0 -8729.80409591 0 3639
0.05850000 0.05849280 40143.62354908 0 59.50766775 0 17243.15822134 0 839.49900732 0 -8271.78130057 0 3846
0.05950000 0.05951020 39284.27580070 0 -322.78427826 0 14123.65283048 0 2273.85999572 0 -8863.57908026 0 3787
0.06050000 0.06049470 39465.47509048 0 373.43689858 0 12927.19796667 0 3065.24676979 0 -11175.00533072 0 3930
0.06150000 0.06148310 37540.06402677 0 1660.90731136 0 9749.16250745 0 2295.37460122 0 -12647.98020251 0 4083
0.06250000 0.06249100 36054.38721965 0 2467.09802244 0 8229.98856115 0 1723.20299771 0 -11850.23122013 0 4303
0.06350000 0.06350600 33292.33452203 0 2119.18864166 0 8506.29499677 0 794.09352276 0 -7914.54217969 0 4470
0.06450000 0.06451750 32070.81300710 0 1628.93890068 0 8017.52902169 0 1700.15966371 0 -7200.68217372 0 4479
0.06550000 0.06550280 30663.25872256 0 522.34517101 0 7997.65555120 0 1751.93410098 0 -3768.48436082 0 4636
0.06650000 0.06648880 31433.80533017 0 -664.06729543 0 8793.90952703 0 2970.82530365 0 1462.62223247 0 4653
0.06750000 0.06749660 31708.86405356 0 -999.55575715 0 7353.24028544 0 3847.70846717 0 3087.00866960 0 5220
0.06850000 0.06852730 33559.97441594 0 -637.55284849 0 9806.80456440 0 2389.02046246 0 7147.81739333 0 5029
0.06950000 0.06949320 32903.74522626 0 33.05392032 0 7127.77531308 0 1586.86514500 0 5775.41262363 0 5040
0.07050000 0.07048030 32973.43726080 0 751.80169845 0 9640.40921163 0 -446.46965451 0 9291.94903897 0 5475
0.07150000 0.07148790 32189.06465279 0 1495.11895373 0 8039.38084671 0 -1891.80151803 0 5571.77699499 0 5509
0.07250000 0.07249820 30405.39819479 0 1380.81277645 0 10022.41148607 0 -1017.16648465 0 6540.48503433 0 5916
0.07350000 0.07351270 29445.78384189 0 771.69652618 0 7826.91006659 0 -412.05303011 0 4124.01490279 0 5721
0.07450000 0.07449140 28114.32876280 0 701.82014498 0 8057.81551391 0 2254.43615126 0 1903.41311023 0 6028
0.07550000 0.07549160 27526.89235560 0 588.35027211 0 4713.26105476 0 2305.95205356 0 2058.48912772 0 6183
0.07650000 0.07648840 26192.28989431 0 786.11715700 0 5172.77885664 0 1034.37254872 0 -722.80868802 0 6330
0.07750000 0.07749960 26014.46279975 0 1289.15651039 0 3777.78037897 0 274.04481669 0 781.39833183 0 6583
0.07850000 0.07848650 24462.46615332 0 911.28629915 0 4968.15405073 0 -1096.35124872 0 538.82958531 0 6549
0.07950000 0.07947320 24085.79194732 0 917.97111414 0 4306.60803326 0 -432.06251247 0 3585.55401082 0 6828
0.08050000 0.08048110 23700.46244027 0 289.47373388 0 5378.69633738 0 -440.19849547 0 824.19148916 0 7147
0.08150000 0.08149960 23398.42615512 0 167.50480500 0 6584.00883396 0 151.65773560 0 1916.54219028 0 7386
0.08250000 0.08250610 23474.07573454 0 271.31109043 0 6477.00907966 0 -117.12758062 0 514.17883826 0 7227
0.08350000 0.08350160 23378.86742285 0 308.51652029 0 7404.44144952 0 -417.03713464 0 870.82332872 0 7798
0.08450000 0.08449610 23012.53461553 0 753.92730550 0 7737.18719246 0 -1457.74379005 0 1931.93064114 0 7371
0.08550000 0.08548940 22753.99964872 0 520.06669111 0 8231.26999534 0 -1494.82669681 0 493.15207700 0 8256
0.08650000 0.08650700 22303.81158694 0 255.84283096 0 8727.81450073 0 -1097.71698779 0 530.61941402 0 8037
0.08750000 0.08749060 22847.07223677 0 129.67889122 0 9636.49746517 0 -372.04867822 0 -1086.45722795 0 8155
0.08850000 0.08849210 22455.78518482 0 120.91230772 0 9411.52708144 0 59.61332987 0 -1802.47206667 0 8718
0.08950000 0.08949900 22723.87470476 0 143.35539097 0 9176.85601613 0 639.91226107 0 -3199.94348750 0 8571
0.09050000 0.09049190 22047.97437630 0 142.68207599 0 7560.18066540 0 1633.17662601 0 -3622.42334522 0 8932
0.09150000 0.09150830 22016.05092823 0 129.72160570 0 6428.82040997 0 1454.32663223 0 -3235.93605114 0 9285
0.09250000 0.09250820 21637.35340510 0 21.35678676 0 5009.58708933 0 2303.90625513 0 -3767.59634941 0 9204
0.09350000 0.09350330 21246.85319870 0 107.86910624 0 4569.86407338 0 1821.09782493 0 -2037.12065068 0 9349
0.09450000 0.09448040 21424.34307375 0 228.91360401 0 3001.64716795 0 1047.93664196 0 -2301.03988919 0 9564
0.09550000 0.09549270 21068.35166510 0 623.46381686 0 3938.78021939 0 359.36135574 0 -80.68718945 0 10155
0.09650000 0.09649430 20188.20871286 0 880.82975600 0 3676.61452239 0 -471.26090970 0 -331.67900518 0 9913
0.09750000 0.09749140 19626.51339583 0 950.27674434 0 5809.57296120 0 -818.59139696 0 2118.32311156 0 10476
0.09850000 0.09850240 18695.00066976 0 715.04926682 0 4125.27385567 0 -293.97449044 0 818.37782460 0 10575
0.09950000 0.09950330 18424.88783269 0 464.24449552 0 6219.90167549 0 197.31276261 0 1462.92573004 0 10882
0.10050000 0.10051200 17834.52885630 0 113.99031500 0 5138.50611256 0 65.68238201 0 235.79175819 0 10875
0.10150000 0.10150300 17870.72375165 0 -131.20986785 0 5726.14485148 0 521.88542840 0 -415.97938941 0 11118
0.10250000 0.10250800 17998.52995046 0 -29.12801065 0 5250.00212716 0 -46.90790994 0 -163.88981172 0 11575
0.10350000 0.10349800 17871.51059720 0 227.83337747 0 5151.10688203 0 -102.98032242 0 -1009.91289273 0 11364
0.10450000 0.10450100 17913.32581792 0 182.53018283 0 5506.81727441 0 241.34801185 0 333.84507858 0 12093
0.10550000 0.10551000 17536.31439240 0 332.88063075 0 5389.58852794 0 694.53732737 0 361.80394914 0 12067
0.10650000 0.10649700 17686.03986014 0 364.86140614 0 5070.02806831 0 290.35500090 0 1568.56536561 0 12054
0.10750000 0.10749900 17132.77503116 0 280.68017282 0 5027.84190612 0 478.18515055 0 1005.28848902 0 12807
0.10850000 0.10850100 17050.15624829 0 208.88164034 0 5137.61810115 0 434.76139271 0 1982.03022144 0 12736
0.10950000 0.10950300 16574.11468983 0 274.62708240 0 5082.42650607 0 155.22664220 0 1621.52007120 0 12933
0.11050000 0.11050200 16686.74601016 0 505.48307085 0 5562.05383211 0 -335.66718806 0 2092.45837422 0 13428
0.11150000 0.11150900 16167.42794638 0 504.08923016 0 5664.39995701 0 -537.62121536 0 1620.41848743 0 13453
0.11250000 0.11250000 15846.39496151 0 492.73617292 0 6249.01496088 0 -681.56786455 0 1609.97592290 0 13668
0.11350000 0.11349100 15581.90244981 0 368.96536772 0 6373.46020512 0 -443.97872631 0 1611.98799938 0 13791
0.11450000 0.11448600 15482.53509735 0 142.99231795 0 7256.93038998 0 -238.91890722 0 1542.29596485 0 14205
0.11550000 0.11549300 15253.33822894 0 199.26189144 0 7013.91876182 0 150.94170615 0 1532.38171090 0 14776
0.11650000 0.11649800 15200.39476400 0 -75.87270634 0 6116.16170989 0 1024.58643819 0 275.77025658 0 14553
0.11750000 0.11747300 15115.86507050 0 24.48090082 0 6242.82136233 0 706.96161862 0 705.53405598 0 14568
0.11850000 0.11849100 15089.89916731 0 -29.53548423 0 5075.70459693 0 1161.48519938 0 -139.92474436 0 16015
0.11950000 0.11950300 14728.51224631 0 200.52534059 0 4500.98136570 0 894.59955314 0 -243.52195370 0 15270
0.12050000 0.12050700 14552.03402983 0 347.96333590 0 3284.33829318 0 152.91331628 0 -506.34410470 0 15999
0.12150000 0.12150000 14497.85409331 0 166.82024937 0 3332.84170109 0 644.59061991 0 -484.59794179 0 15670
0.12250000 0.12250700 14029.56858386 0 34.73316113 0 3096.56322272 0 -81.33847275 0 -95.17526418 0 16887
0.12350000 0.12352200 14543.82835480 0 -37.14810254 0 3462.36771946 0 161.49555312 0 -186.10695789 0 16407
0.12450000 0.12449800 14243.14094775 0 118.03357707 0 3442.83146849 0 258.21798046 0 134.20999753 0 16306
0.12550000 0.12549900 14208.40733699 0 267.09809454 0 3433.16450886 0 212.06162043 0 575.16498880 0 17523
0.12650000 0.12650100 14098.02414681 0 127.77360092 0 3198.38103704 0 189.26333262 0 656.86878270 0 17154
0.12750000 0.12750600 13922.10796287 0 303.04681964 0 3939.01627306 0 -1.49958149 0 1070.89454701 0 18007
0.12850000 0.12850300 13663.68540256 0 166.39535277 0 3498.82114978 0 41.39144819 0 341.19196790 0 17496
0.12950000 0.12949900 13576.79517241 0 235.13080793 0 3931.29394601 0 -340.98963618 0 496.68726166 0 18405
0.13050000 0.13049000 13369.85479246 0 172.86659540 0 3477.99222398 0 111.90787204 0 -303.54478047 0 18100
0.13150000 0.13148800 13202.48150307 0 133.19047051 0 3781.06264899 0 -275.95909951 0 350.12041677 0 19059
0.13250000 0.13249300 13084.90429642 0 290.38085440 0 3392.63072233 0 213.15533575 0 -290.03689049 0 18957
0.13350000 0.13349100 12954.96237397 0 243.99181290 0 3441.43762780 0 288.41036833 0 -49.46819296 0 19468
0.13450000 0.13450700 12670.34909747 0 281.67047415 0 3058.76091431 0 210.07876964 0 -74.67456538 0 19953
0.13550000 0.13551000 12483.52948232 0 174.18624779 0 3025.66843856 0 142.17175045 0 -103.25009804 0 19956
0.13650000 0.13649900 12425.30291153 0 171.87067374 0 3502.29451086 0 -268.18281734 0 -44.98620829 0 19723
0.13750000 0.13749600 12233.87462958 0 204.27971793 0 3668.54373517 0 -513.15481498 0 -97.89156743 0 20946
0.13850000 0.13851100 12278.27519997 0 161.59334678 0 3888.51202932 0 -488.82555053 0 64.59788403 0 20955
0.13950000 0.13949800 12177.89618894 0 89.93003933 0 4114.69640333 0 -300.59073746 0 -5.21710074 0 20506
0.14050000 0.14048300 12181.15597765 0 65.79074188 0 4256.36232450 0 70.95020057 0 51.59840868 0 21447
0.14150000 0.14148400 12009.17402147 0 129.23038926 0 4183.16320694 0 386.86610401 0 -463.16426898 0 21771
0.14250000 0.14249400 11996.47208614 0 179.92235186 0 4246.26822014 0 438.74395527 0 -6.16376587 0 22470
0.14350000 0.14350900 11712.64565519 0 186.48014750 0 3575.40370321 0 656.95308758 0 -280.75098892 0 22519
0.14450000 0.14449900 11629.68965279 0 56.06285793 0 3707.20033303 0 764.82062013 0 429.38161727 0 22218
0.14550000 0.14550500 11461.30470484 0 1.49074634 0 2914.95926951 0 371.42144991 0 244.79889162 0 23559
0.14650000 0.14650700 11549.20659356 0 91.23665257 0 2972.66877037 0 605.56982496 0 188.52144967 0 23044
0.14750000 0.14750500 11350.47188863 0 182.48746836 0 2886.20568494 0 8.76259307 0 588.46717487 0 23649
0.14850000 0.14849900 11222.56452396 0 281.40069853 0 2578.70644355 0 -126.90919488 0 293.32028456 0 23640
0.14950000 0.14949500 11034.44099333 0 280.57338664 0 3019.48608066 0 -69.85715969 0 54.58235182 0 24457
0.15050000 0.15050000 10617.46905446 0 318.13739325 0 2839.26472749 0 -343.22202942 0 -338.85728474 0 24591
0.15150000 0.15149900 10476.37640649 0 251.19594595 0 3003.26582166 0 -16.02444687 0 186.08222846 0 25020
0.15250000 0.15250500 10319.14218406 0 147.39303271 0 2974.70332815 0 -81.04441733 0 139.55155476 0 25297
0.15350000 0.15350100 10247.17953808 0 76.97316604 0 3141.73939801 0 151.02151477 0 331.20577379 0 25452
0.15450000 0.15450400 10212.55833383 0 6.39521086 0 3125.94628373 0 523.57040194 0 640.54510971 0 26061
0.15550000 0.15549900 10287.49975226 0 -51.29120169 0 3334.28050438 0 355.71826084 0 1116.18425287 0 26128
0.15650000 0.15649500 10363.37414469 0 -5.77420987 0 3153.63200648 0 452.25746558 0 1093.72206052 0 26331
0.15750000 0.15749700 10402.59277509 0 15.49467500 0 3027.14096381 0 466.50723851 0 1691.70669436 0 27345
0.15850000 0.15849900 10240.99718018 0 144.94706711 0 3189.54588557 0 183.72731213 0 1846.34432647 0 26980
0.15950000 0.15949700 10112.93244640 0 215.13593841 0 2860.07117199 0 250.20789275 0 1701.76707677 0 27777
0.16050000 0.16050000 9890.91835382 0 291.42735898 0 2816.56985366 0 147.91122671 0 1357.39850097 0 28224
0.16150000 0.16150500 9619.14190044 0 308.82339005 0 2545.18682307 0 -75.41453741 0 1338.12078497 0 28075
0.16250000 0.16249700 9330.98781895 0 239.99238937 0 2462.17461742 0 -252.97084470 0 578.20108856 0 28590
0.16350000 0.16349900 9117.22436400 0 160.77277928 0 2456.83530832 0 -140.44069023 0 694.39794330 0 29163
0.16450000 0.16449100 9099.19436023 0 97.85784548 0 2400.45220425 0 -49.37714369 0 348.75580177 0 28996
0.16550000 0.16550500 9168.87515411 0 67.35184346 0 2427.13750909 0 -233.30195405 0 448.91899231 0 30777
0.16650000 0.16650700 9099.62150496 0 20.49642736 0 2716.53930281 0 -42.44053812 0 251.74448971 0 29211
0.16750000 0.16749900 9110.45749226 0 29.51008036 0 2649.78107812 0 50.83370721 0 607.08843687 0 30922
0.16850000 0.16850800 9052.18595887 0 124.89487027 0 2811.17434131 0 154.78488463 0 515.39058041 0 30867
0.16950000 0.16949900 8993.25122709 0 264.18676600 0 2931.84272691 0 52.05905054 0 1081.13927609 0 30852
0.17050000 0.17049200 8583.40586079 0 368.22685697 0 3042.10226993 0 174.45377528 0 767.93877664 0 31257
0.17150000 0.17149500 8433.35441418 0 325.84398339 0 3037.17886491 0 148.74528299 0 1086.24702778 0 32608
0.17250000 0.17250900 8206.58552633 0 179.82343413 0 3090.58319653 0 97.36055909 0 1215.87870827 0 32361
0.17350000 0.17350400 8030.95035866 0 76.89436908 0 2799.66391497 0 233.17493470 0 805.85349156 0 32508
0.17450000 0.17449800 8112.15281954 0 -12.30424110 0 2904.84268385 0 254.29948962 0 909.17867714 0 32791
0.17550000 0.17549800 7977.15260426 0 6.58844889 0 2337.62820732 0 -42.50157485 0 251.96255833 0 33633
0.17650000 0.17650100 8121.32519054 0 -12.64157303 0 2516.21966613 0 101.09661417 0 522.68351460 0 33984
0.17750000 0.17750300 8007.56980514 0 29.13419300 0 2248.55729093 0 -86.22826823 0 -108.67742143 0 34069
