### header ###
fiducial parameters:
Omega_m = 0.31
Omega_nu = 0
Omega_de = 0.69
Omega_k = 0
H_0 = 100
w_de = -1
zeff = 0
beta = 0
fgrowth = 0
b_1 = 2
gamma = 0.55
Lx = 3500 Ly = 3500 Lz = 3500
nx = 700 ny = 700 nz = 700
xoffset = 857.220397 yoffset = 15.9954215 zoffset = 262.898189
bins = 400 dk = 0.001
kx_ny = 0.628318531 ky_ny = 0.628318531 kz_ny = 0.628318531
############################
A(data) = 3.05456494 (not used)
A(ran) = 3.05112966 (used)
Ngal = 187080
weighted Ngal = 0
Nran = 9360983
weighted Nran = 0
SN(data) = 3456.12557
SN(ran) = 68.5169056
SN(data+ran) = 3524.64247
############################
13 columns: k_central k_mean P_0(k) sigma^{lin}_{P_0(k)} P^img_1(k) sigma^{lin}_{P_1(k)} P_2(k) sigma^{lin}_{P_2(k)} P^img_3(k) sigma^{lin}_{P_3(k)} P_4(k) sigma^{lin}_{P_4(k)} N_modes
### header ###
0.00050000 0 0 0 0 0 0 0 0 0 0 0 0
0.00150000 0.00179520 36939.13883869 0 -42127.82321612 0 28693.44708846 0 30040.30185905 0 -22680.03616691 0 3
0.00250000 0.00253879 71807.41259321 0 -52830.38399661 0 -15110.80677767 0 -20850.05822790 0 -180.07747284 0 6
0.00350000 0.00331552 88294.41223988 0 -35063.63626422 0 4210.18573129 0 -34780.48427231 0 50288.64805332 0 7
0.00450000 0.00420575 109902.53995308 0 -17758.99168339 0 -14806.40995588 0 -31684.35943497 0 5319.98641861 0 24
0.00550000 0.00557378 107995.90077609 0 -6833.14661677 0 -11056.94477609 0 -25913.18453666 0 33169.24939653 0 45
0.00650000 0.00659388 117362.51021721 0 4429.56951161 0 -44577.04860389 0 -11546.17161786 0 -43640.14036546 0 40
0.00750000 0.00754703 98009.70666667 0 820.20218221 0 -30266.68856477 0 -8078.28473889 0 18888.33986233 0 57
0.00850000 0.00846663 103479.07009285 0 2037.66020191 0 -57935.99996514 0 -6180.80669224 0 -3236.08217960 0 75
0.00950000 0.00948925 92335.65099068 0 2509.63264480 0 -71675.22254061 0 -15936.32016736 0 20923.79689670 0 112
0.01050000 0.01054430 94529.82601337 0 2700.90355764 0 -32165.34687975 0 -16665.61358678 0 -657.71520370 0 105
0.01150000 0.01145670 99022.93892356 0 -3514.05223152 0 -30317.83352560 0 -40489.04874604 0 9624.20019327 0 144
0.01250000 0.01249090 107022.79764230 0 -3624.73891927 0 17453.13357700 0 -34596.02519382 0 7794.22225427 0 169
0.01350000 0.01339930 110532.01639401 0 -3624.76140057 0 29775.24731482 0 -40617.19216438 0 32180.74657125 0 180
0.01450000 0.01448870 123925.92617903 0 -4534.19748861 0 67229.09555048 0 3085.73847607 0 21995.93016342 0 267
0.01550000 0.01550050 119555.56117482 0 -508.82604038 0 59796.66488064 0 9856.18474306 0 -15066.06898776 0 238
0.01650000 0.01653350 127608.36335850 0 1985.54854512 0 47907.09138295 0 35898.02976799 0 17334.31989877 0 315
0.01750000 0.01747870 114173.53760482 0 3594.15310863 0 38974.70827957 0 13211.36161715 0 -9763.65170624 0 297
0.01850000 0.01844180 108824.44914147 0 12079.76530806 0 8899.60536585 0 16623.68595956 0 5293.89686827 0 388
0.01950000 0.01947590 92947.59201648 0 14364.65238215 0 -1975.22962775 0 3024.99399952 0 -17033.63249171 0 399
0.02050000 0.02045430 79175.54674087 0 11074.25537822 0 -7685.22166413 0 -11652.95779980 0 -15223.77531752 0 462
0.02150000 0.02154770 72725.88616444 0 5431.14521369 0 -10476.52253495 0 -17547.10541711 0 -23017.81772137 0 571
0.02250000 0.02255340 72914.61669021 0 -834.93642719 0 -4531.79198936 0 -23907.51522673 0 -31484.61307148 0 510
0.02350000 0.02348930 76320.42145520 0 -3469.14583185 0 -3083.64771503 0 -24204.15599952 0 -37770.60977326 0 555
0.02450000 0.02439640 88583.18455716 0 -5007.99091692 0 15067.53027236 0 -23874.46771358 0 -57515.15000177 0 592
0.02550000 0.02547300 89419.93859757 0 99.70423476 0 16853.44486050 0 -22824.47852880 0 -53111.28785838 0 837
0.02650000 0.02652900 90760.94822978 0 3898.93211255 0 26889.88467868 0 -13393.57256550 0 -67028.44993493 0 723
0.02750000 0.02749970 81789.44766185 0 9401.50042099 0 29954.76050699 0 -9038.10142351 0 -51527.36776388 0 826
0.02850000 0.02848090 78860.69611389 0 10576.63177036 0 32585.52240407 0 1378.35107394 0 -64562.13875804 0 831
0.02950000 0.02946900 68087.76885982 0 5770.88264139 0 31269.69182950 0 7029.20604682 0 -45975.94758736 0 996
0.03050000 0.03053250 65624.71747164 0 1930.24454353 0 27711.35143410 0 14559.90248535 0 -34538.36065557 0 1041
0.03150000 0.03150510 65288.50960828 0 -2109.22942512 0 23190.81133612 0 14175.13501082 0 -32215.59258851 0 1036
0.03250000 0.03246190 66703.14550277 0 -6310.20906346 0 20368.39634408 0 10536.23287163 0 -24582.17908360 0 1059
0.03350000 0.03345080 71085.87522279 0 -413.36481405 0 19248.60271826 0 2388.76192749 0 -26996.44604761 0 1302
0.03450000 0.03451200 71142.64050898 0 2592.25142768 0 14731.65962852 0 -446.70121192 0 -16506.78319195 0 1339
0.03550000 0.03553350 65275.47045343 0 7524.17686110 0 22241.98800792 0 -6580.53547289 0 -22511.42640594 0 1365
0.03650000 0.03647120 60454.69257443 0 8748.21628181 0 18005.38674741 0 -5460.46083080 0 -11326.30448956 0 1308
0.03750000 0.03744890 52975.50079755 0 7663.50472692 0 24145.81702223 0 2928.48177234 0 -13835.55495224 0 1579
0.03850000 0.03847530 47727.46578427 0 3571.60436327 0 22444.31972108 0 7819.61488427 0 -6778.79807048 0 1662
0.03950000 0.03950240 46044.29074381 0 1467.74796920 0 21070.26257572 0 9566.02982574 0 -8474.68628692 0 1683
0.04050000 0.04050350 43884.17489283 0 592.26201856 0 18902.05345622 0 5664.45616027 0 -7367.67328098 0 1822
0.04150000 0.04152450 42306.77437575 0 1102.49763654 0 13195.17508010 0 850.36646845 0 239.33818349 0 1887
0.04250000 0.04250150 41943.70135714 0 1414.81574491 0 14013.38204680 0 2147.97594819 0 -7395.65126065 0 1920
0.04350000 0.04349210 40870.78124487 0 290.95525165 0 9254.74248505 0 973.51116940 0 -756.64529485 0 2005
0.04450000 0.04448520 40964.64067847 0 268.75271833 0 11204.87173971 0 -235.21174061 0 -5570.38315430 0 2151
0.04550000 0.04548030 39886.54986686 0 183.67110888 0 10813.64089102 0 558.57603645 0 -2457.49850671 0 2274
0.04650000 0.04648670 39008.20541874 0 1540.49746073 0 9586.84751089 0 846.09277304 0 -1520.05071705 0 2311
0.04750000 0.04749250 38847.91373932 0 606.22065864 0 11347.54931944 0 1366.68327848 0 1386.30945465 0 2568
0.04850000 0.04851840 38116.82181578 0 -95.67288779 0 10796.08299458 0 4188.37886887 0 3023.79124989 0 2493
0.04950000 0.04949480 39389.93791757 0 -673.58925066 0 13886.02547402 0 1821.05286232 0 3599.52613968 0 2644
0.05050000 0.05050630 39374.87544559 0 198.38961695 0 10422.34259843 0 -362.17489062 0 2773.13597924 0 2829
0.05150000 0.05149060 40147.22055732 0 370.30974955 0 14213.69044283 0 -2040.02073856 0 3686.25900072 0 2784
0.05250000 0.05249300 38723.25492271 0 1069.58725933 0 11568.20329329 0 -2711.19999371 0 2709.82863432 0 3055
0.05350000 0.05348950 38716.51053227 0 666.50651664 0 13026.22809961 0 857.51777045 0 87.14044704 0 3009
0.05450000 0.05448610 37534.33129490 0 804.16739395 0 11291.00884627 0 390.58788347 0 -3326.15351390 0 3336
0.05550000 0.05550870 36354.28778116 0 1289.29139819 0 10245.96554781 0 2335.68357474 0 -7033.03910872 0 3349
0.05650000 0.05647670 34288.70580283 0 1985.63847033 0 9642.41004746 0 1261.76304455 0 -5877.03934689 0 3324
0.05750000 0.05747970 32845.06902945 0 1823.13238271 0 9909.79140639 0 889.88634829 0 -5041.09463333 0 3639
0.05850000 0.05849280 31437.17752539 0 736.71899330 0 8839.47912509 0 1557.57200919 0 -3596.28883227 0 3846
0.05950000 0.05951020 30607.28028192 0 936.12701320 0 8140.50174069 0 1080.69751851 0 -4088.01109850 0 3787
0.06050000 0.06049470 30814.78269442 0 -134.45841591 0 7673.56510932 0 1488.26215678 0 -741.17478725 0 3930
0.06150000 0.06148310 29964.31506011 0 -105.81184234 0 5702.12358086 0 818.88702608 0 -2485.20671077 0 4083
0.06250000 0.06249100 31374.79191384 0 -168.10393168 0 5779.30188878 0 531.96829210 0 -1587.91052551 0 4303
0.06350000 0.06350600 30635.49431526 0 -189.19476465 0 5253.00338091 0 -730.08813343 0 -2605.85261506 0 4470
0.06450000 0.06451750 32104.08533326 0 -154.56119568 0 6950.35288194 0 -619.50710780 0 -1341.63910865 0 4479
0.06550000 0.06550280 31953.68542648 0 -274.37529182 0 5789.95802568 0 -69.17316609 0 612.40414061 0 4636
0.06650000 0.06648880 31954.47227203 0 110.02326454 0 7599.70279337 0 204.12459695 0 1490.64517474 0 4653
0.06750000 0.06749660 32137.91969196 0 499.05679083 0 8577.24598419 0 598.53317760 0 3309.92201425 0 5220
0.06850000 0.06852730 31712.01143576 0 410.67380226 0 10474.33060806 0 682.51207921 0 4065.01272710 0 5029
0.06950000 0.06949320 31710.66255768 0 738.73556604 0 9887.50119599 0 310.83434247 0 3074.03695866 0 5040
0.07050000 0.07048030 30643.92480331 0 761.68897483 0 10667.84965104 0 -209.50324832 0 3339.28259396 0 5475
0.07150000 0.07148790 29964.31506011 0 803.34345425 0 9821.57477946 0 -697.45877249 0 -441.13708981 0 5509
0.07250000 0.07249820 28724.02165845 0 912.55087236 0 10014.49806795 0 221.29693907 0 -1830.13530812 0 5916
0.07350000 0.07351270 28576.99394689 0 643.64977744 0 8695.56507378 0 -1066.87151811 0 -5050.06467261 0 5721
0.07450000 0.07449140 27090.75510724 0 474.41503630 0 8074.53036155 0 -193.48082477 0 -4690.03787035 0 6028
0.07550000 0.07549160 27329.95615480 0 267.56795374 0 8022.86833079 0 864.99280318 0 -5358.15966850 0 6183
0.07650000 0.07648840 27058.38203313 0 277.18095825 0 7374.23782100 0 686.51824713 0 -5178.26429420 0 6330
0.07750000 0.07749960 27013.53183672 0 551.24825624 0 7630.51341702 0 1330.84808395 0 -3445.21448645 0 6583
0.07850000 0.07848650 26588.29801956 0 821.47012762 0 7104.86686689 0 1343.61746318 0 -543.78671228 0 6549
0.07950000 0.07947320 25931.50679735 0 742.55851135 0 8421.72034067 0 2011.23343204 0 3199.51634277 0 6828
0.08050000 0.08048110 25992.76834384 0 409.38562369 0 7449.20172073 0 2210.06930282 0 4889.91912165 0 7147
0.08150000 0.08149960 25379.70325297 0 530.86333614 0 8855.38464587 0 2795.39246769 0 7323.52000491 0 7386
0.08250000 0.08250610 24853.52839225 0 580.69314083 0 7241.08107244 0 1533.12359385 0 8406.97260691 0 7227
0.08350000 0.08350160 24429.41864017 0 561.76388500 0 8001.96072043 0 789.69393206 0 9224.87607605 0 7798
0.08450000 0.08449610 23889.08055953 0 720.25481217 0 7678.85945581 0 -722.11738800 0 8549.40289233 0 7371
0.08550000 0.08548940 23482.05659656 0 461.88171073 0 8362.30226091 0 -819.66150691 0 7297.76767408 0 8256
0.08650000 0.08650700 23276.35268819 0 231.73725547 0 8510.38659364 0 -942.33859680 0 7537.10360945 0 8037
0.08750000 0.08749060 23094.81617888 0 123.23912242 0 8781.31999821 0 -671.89640866 0 4866.44864292 0 8155
0.08850000 0.08849210 22616.07686425 0 -20.36907078 0 6577.36560938 0 822.83474261 0 3014.60763824 0 8718
0.08950000 0.08949900 22546.27242321 0 298.58765350 0 7176.08762992 0 763.46274952 0 943.90666757 0 8571
0.09050000 0.09049190 22056.62967737 0 358.08779001 0 4787.97766017 0 1112.40627016 0 311.35141240 0 8932
0.09150000 0.09150830 21424.45548025 0 723.04249356 0 4719.49961591 0 283.93883746 0 -1371.84273716 0 9285
0.09250000 0.09250820 20962.01510918 0 499.27036319 0 4482.51297655 0 -73.37447171 0 -989.73255247 0 9204
0.09350000 0.09350330 20019.14932587 0 661.32794885 0 3678.24441675 0 85.11488177 0 -813.60054804 0 9349
0.09450000 0.09448040 20095.36093782 0 418.80753713 0 5062.30574126 0 -313.42081620 0 -1143.41023301 0 9564
0.09550000 0.09549270 19703.84907286 0 485.72313093 0 4571.94359377 0 111.82547807 0 147.17608815 0 10155
0.09650000 0.09649430 19712.72918694 0 311.57622542 0 6140.36283091 0 -466.16327460 0 136.20521304 0 9913
0.09750000 0.09749140 19313.12405345 0 311.53575907 0 6066.15205479 0 -186.62290376 0 1474.64972875 0 10476
0.09850000 0.09850240 18931.05433511 0 434.12517188 0 6740.01782546 0 -237.01586505 0 373.80559193 0 10575
0.09950000 0.09950330 18827.52794187 0 477.75800582 0 6424.94238547 0 683.36974087 0 954.20310364 0 10882
0.10050000 0.10051200 17853.07593000 0 681.94779855 0 6198.90413992 0 291.11711702 0 189.65563133 0 10875
0.10150000 0.10150300 17702.67602322 0 513.63703889 0 5947.15852615 0 218.18215475 0 774.24365763 0 11118
0.10250000 0.10250800 16816.68793261 0 232.78376005 0 5195.36132396 0 1014.55415742 0 -15.94587472 0 11575
0.10350000 0.10349800 16680.00161972 0 120.65826901 0 4372.92787258 0 1161.67629045 0 -593.15002997 0 11364
0.10450000 0.10450100 16412.69894533 0 64.96893791 0 3923.69526611 0 1039.61069196 0 -824.53994933 0 12093
0.10550000 0.10551000 16400.10941652 0 52.63266095 0 3952.57249784 0 325.08299134 0 -1292.61863081 0 12067
0.10650000 0.10649700 16080.20049671 0 264.12719055 0 3912.12863651 0 -257.17259994 0 -1128.79738706 0 12054
0.10750000 0.10749900 16183.27726392 0 277.04719450 0 4007.73037098 0 -994.85379295 0 -1408.98184718 0 12807
0.10850000 0.10850100 15947.11119206 0 175.47779856 0 4622.86374158 0 -847.75526529 0 -1034.54565474 0 12736
0.10950000 0.10950300 16107.29046497 0 111.96385048 0 5332.37361572 0 -747.01318124 0 -214.46374749 0 12933
0.11050000 0.11050200 16289.83863285 0 161.46183117 0 5899.11598493 0 -358.67342791 0 -191.15625820 0 13428
0.11150000 0.11150900 16198.56454891 0 203.43779319 0 6594.35023264 0 376.73040925 0 918.15995707 0 13453
0.11250000 0.11250000 15989.93807134 0 419.12227535 0 6494.30844113 0 213.45096486 0 819.72557862 0 13668
0.11350000 0.11349100 15839.76297758 0 435.29757175 0 7103.05712212 0 627.45199974 0 2323.59987521 0 13791
0.11450000 0.11448600 15291.10681540 0 410.63108779 0 6536.94422935 0 1038.58104835 0 2629.51418485 0 14205
0.11550000 0.11549300 15046.84747501 0 296.31816611 0 6208.33504588 0 1181.98814632 0 2719.16961508 0 14776
0.11650000 0.11649800 14874.52829931 0 91.20214377 0 5877.03934689 0 930.23241596 0 3403.53415354 0 14553
0.11750000 0.11747300 14715.02346543 0 163.86283416 0 5372.24420386 0 1175.35616238 0 2988.97895458 0 14568
0.11850000 0.11849100 14597.44625879 0 35.65208433 0 4921.35922174 0 15.97161581 0 3189.44471971 0 16015
0.11950000 0.11950300 14513.59100433 0 -41.33513253 0 4872.73216668 0 74.33880714 0 2470.16672009 0 15270
0.12050000 0.12050700 14689.28237526 0 30.40056471 0 5448.64690688 0 -142.44714639 0 3197.29069392 0 15999
0.12150000 0.12150000 14772.68800368 0 -16.68337381 0 5132.61601158 0 -101.61503298 0 2334.58199097 0 15670
0.12250000 0.12250700 14649.71528469 0 115.27512138 0 4912.15312879 0 43.48086034 0 1985.22256625 0 16887
0.12350000 0.12352200 14553.60772094 0 276.76955043 0 4772.28571175 0 170.17670768 0 1083.87637454 0 16407
0.12450000 0.12449800 14327.55823474 0 365.65724421 0 4619.54774961 0 70.45808488 0 1110.36047173 0 16306
0.12550000 0.12549900 14040.47201507 0 231.55740506 0 4144.79886599 0 257.63346662 0 415.49379329 0 17523
0.12650000 0.12650100 13665.59631319 0 216.37465812 0 4042.80120126 0 326.05980388 0 587.26779744 0 17154
0.12750000 0.12750600 13640.75447507 0 89.62676657 0 3685.73069014 0 696.96868012 0 562.71484405 0 18007
0.12850000 0.12850300 13406.38690733 0 129.23488552 0 3940.23026334 0 558.47374653 0 476.89584791 0 17496
0.12950000 0.12949900 13354.79232048 0 329.44548788 0 3794.93361199 0 446.35499988 0 1127.10004880 0 18405
0.13050000 0.13049000 13035.55783972 0 453.33207179 0 3765.65171683 0 249.98982413 0 1282.19854758 0 18100
0.13150000 0.13148800 12666.86449574 0 424.55825404 0 3764.23539484 0 53.52325771 0 1814.97167028 0 19059
0.13250000 0.13249300 12445.31126983 0 274.94406875 0 4263.79239463 0 -64.63610224 0 1884.04546902 0 18957
0.13350000 0.13349100 12075.71867380 0 112.87636651 0 3699.39932143 0 -192.48377905 0 1713.87325760 0 19468
0.13450000 0.13450700 12215.77718190 0 57.12442498 0 4337.46361952 0 -83.27883388 0 1650.35234032 0 19953
0.13550000 0.13551000 12089.76948721 0 170.14635792 0 4189.60409980 0 -164.04156051 0 1133.52970101 0 19956
0.13650000 0.13649900 12155.41488748 0 147.88087695 0 4467.36057937 0 -62.41202709 0 1630.91725521 0 19723
0.13750000 0.13749600 11807.74156037 0 228.62359522 0 4595.91990178 0 -26.34696125 0 1237.80921785 0 20946
0.13850000 0.13851100 11811.11375559 0 182.20757615 0 5045.09630499 0 129.94979091 0 2039.43622473 0 20955
0.13950000 0.13949800 11712.64565519 0 216.56012885 0 4883.63559789 0 528.16445590 0 2585.22602097 0 20506
0.14050000 0.14048300 11572.47474057 0 114.21063175 0 5016.78110580 0 592.32609027 0 3252.89819309 0 21447
0.14150000 0.14148400 11410.15974401 0 133.16798921 0 4461.57164424 0 712.10871259 0 2777.56479563 0 21771
0.14250000 0.14249400 11313.60255424 0 -7.36471699 0 4127.11732239 0 546.60811562 0 2567.11733264 0 22470
0.14350000 0.14350900 11147.55566164 0 60.32486306 0 3774.40818375 0 206.41094531 0 2103.72150626 0 22519
0.14450000 0.14449900 11194.77763536 0 119.87816785 0 3678.12076959 0 -20.28206815 0 1811.58823441 0 22218
0.14550000 0.14550500 10921.77595105 0 246.91887835 0 3626.94208681 0 -651.19899847 0 1061.59403260 0 23559
0.14650000 0.14650700 10918.14522087 0 215.35850329 0 3717.87895123 0 -547.28929905 0 610.35047372 0 23044
0.14750000 0.14750500 10582.90405347 0 232.21835532 0 4093.40661085 0 -412.30819288 0 648.28766993 0 23649
0.14850000 0.14849900 10657.20475480 0 107.88900219 0 3831.28587645 0 150.77309638 0 245.79256514 0 23640
0.14950000 0.14949500 10521.19288095 0 12.78421689 0 3677.55873706 0 672.04590932 0 411.86081498 0 24457
0.15050000 0.15050000 10482.60372699 0 156.61823477 0 3419.19238000 0 441.62268592 0 236.21777885 0 24591
0.15150000 0.15149900 10426.36675139 0 172.16180660 0 3365.88921424 0 633.28926966 0 969.04975513 0 25020
0.15250000 0.15250500 10145.44040832 0 194.89152644 0 3260.51935428 0 107.13644062 0 780.82843083 0 25297
0.15350000 0.15350100 10185.97419485 0 150.76522793 0 3170.07707850 0 253.79253627 0 1331.73609535 0 25452
0.15450000 0.15450400 9951.17948239 0 120.32891795 0 3232.32780225 0 156.01236369 0 1307.81599060 0 26061
0.15550000 0.15549900 9926.39384752 0 122.12629800 0 3156.99296105 0 448.46262189 0 1344.24693962 0 26128
0.15650000 0.15649500 9655.98875354 0 109.65412157 0 2802.83377847 0 396.48585291 0 1131.56258714 0 26331
0.15750000 0.15749700 9615.53365156 0 139.43577606 0 2303.49035105 0 539.26572256 0 1284.03077365 0 27345
0.15850000 0.15849900 9373.08405594 0 124.76785092 0 2383.73735662 0 438.66414665 0 1121.06494342 0 26980
0.15950000 0.15949700 9294.50066668 0 144.95043931 0 1671.63089216 0 101.67393399 0 680.70570664 0 27777
0.16050000 0.16050000 9054.00694429 0 168.26130079 0 2032.69183429 0 -290.85858205 0 372.57249254 0 28224
0.16150000 0.16150500 9076.18474818 0 102.10714867 0 1685.17587629 0 -624.47772356 0 -123.21776518 0 28075
0.16250000 0.16249700 9074.04902454 0 9.39309241 0 2192.52264703 0 -404.98041267 0 9.57831586 0 28590
0.16350000 0.16349900 9019.65551566 0 43.26178006 0 2120.79605472 0 -283.50382428 0 -65.02188137 0 29163
0.16450000 0.16449100 9037.61807553 0 57.61328088 0 2220.93901208 0 54.78254781 0 -355.19557058 0 28996
0.16550000 0.16550500 8968.84777435 0 169.20776358 0 2336.70647396 0 354.48291332 0 -404.47345932 0 30777
0.16650000 0.16650700 8813.82796012 0 134.42469396 0 1909.97765026 0 596.76165105 0 -170.07216962 0 29211
0.16750000 0.16749900 8743.48396785 0 69.98283017 0 1887.37270164 0 515.55581797 0 7.32254207 0 30922
0.16850000 0.16850800 8594.01703508 0 47.88483489 0 1537.65357610 0 450.77369968 0 -91.08007030 0 30867
0.16950000 0.16949900 8625.70442949 0 27.55634286 0 1605.99673254 0 138.53989619 0 363.89246205 0 30852
0.17050000 0.17049200 8546.68265485 0 20.11424523 0 1519.91582924 0 131.39533859 0 198.65264817 0 31257
0.17150000 0.17149500 8526.85414696 0 101.65010381 0 1708.88240868 0 -253.27659040 0 490.04178894 0 32608
0.17250000 0.17250900 8558.55278202 0 64.24515241 0 1805.90046514 0 -64.70309652 0 631.87069954 0 32361
0.17350000 0.17350400 8512.25254166 0 78.72861847 0 2043.62898745 0 -103.66364158 0 584.85218160 0 32508
0.17450000 0.17449800 8566.88210421 0 120.03216477 0 1921.34194815 0 -160.09384397 0 674.91339932 0 32791
0.17550000 0.17549800 8523.27962003 0 80.17450337 0 2034.51281971 0 -70.23922941 0 835.20620281 0 33633
0.17650000 0.17650100 8431.69079787 0 63.08781501 0 1880.87560552 0 65.46037916 0 503.49235161 0 33984
0.17750000 0.17750300 8456.26286037 0 44.18104048 0 2133.36310223 0 12.89662340 0 770.00368418 0 34069
