### header ###
fiducial parameters:
Omega_m = 0.31
Omega_nu = 0
Omega_de = 0.69
Omega_k = 0
H_0 = 100
w_de = -1
zeff = 0
beta = 0
fgrowth = 0
b_1 = 2
gamma = 0.55
Lx = 3500 Ly = 3500 Lz = 3500
nx = 700 ny = 700 nz = 700
xoffset = 857.220397 yoffset = 15.9954215 zoffset = 262.898189
bins = 400 dk = 0.001
kx_ny = 0.628318531 ky_ny = 0.628318531 kz_ny = 0.628318531
############################
A(data) = 3.10400328 (not used)
A(ran) = 3.09766298 (used)
Ngal = 188748
weighted Ngal = 0
Nran = 9360983
weighted Nran = 0
SN(data) = 3465.79424
SN(ran) = 69.5618689
SN(data+ran) = 3535.35611
############################
13 columns: k_central k_mean P_0(k) sigma^{lin}_{P_0(k)} P^img_1(k) sigma^{lin}_{P_1(k)} P_2(k) sigma^{lin}_{P_2(k)} P^img_3(k) sigma^{lin}_{P_3(k)} P_4(k) sigma^{lin}_{P_4(k)} N_modes
### header ###
0.00050000 0 0 0 0 0 0 0 0 0 0 0 0
0.00150000 0.00179520 42878.02424590 0 -58920.11893664 0 -61481.18879919 0 116383.44953854 0 73415.61249329 0 3
0.00250000 0.00253879 73441.46598997 0 -65125.52017268 0 -26189.47973163 0 -59821.05709273 0 -37784.32336715 0 6
0.00350000 0.00331552 116365.46449737 0 -60609.70114801 0 -79973.97016229 0 12519.38715815 0 -3224.23453373 0 7
0.00450000 0.00420575 152581.71708755 0 -44532.53562700 0 -72550.41960653 0 -33905.73683243 0 1814.55576620 0 24
0.00550000 0.00557378 166204.26170843 0 7850.83017135 0 -84326.79975136 0 -55399.32231468 0 47095.17918065 0 45
0.00650000 0.00659388 150599.99036367 0 22993.31310278 0 -33114.84464699 0 -26827.61147363 0 15348.54654063 0 40
0.00750000 0.00754703 117119.71216142 0 29633.61511560 0 -38602.75514688 0 -11186.76305139 0 62825.00859408 0 57
0.00850000 0.00846663 92851.25963971 0 23467.21893760 0 2418.90935275 0 6915.20336710 0 49020.25302484 0 75
0.00950000 0.00948925 77480.23179762 0 11217.27017747 0 27741.81359758 0 14682.42557831 0 59761.14442433 0 112
0.01050000 0.01054430 69694.95710134 0 5946.50656841 0 17870.61134514 0 24860.38518920 0 41422.24756973 0 105
0.01150000 0.01145670 65830.53378653 0 -1186.41696270 0 44976.76614389 0 10442.38467868 0 46772.12287864 0 144
0.01250000 0.01249090 70077.70125873 0 -1862.48590092 0 30011.30098017 0 6118.60093110 0 33009.18253012 0 169
0.01350000 0.01339930 75003.24200254 0 -6614.23494378 0 42983.12433024 0 4204.70029374 0 16658.86919634 0 180
0.01450000 0.01448870 75564.82491306 0 -1616.18076210 0 12454.19138391 0 3553.13597411 0 5809.89894007 0 267
0.01550000 0.01550050 81821.82073596 0 -6217.61982339 0 11050.93102795 0 658.73023446 0 -25155.67708390 0 238
0.01650000 0.01653350 81041.83198173 0 -5168.91207279 0 -14799.32834592 0 9889.05240580 0 -18743.33546790 0 315
0.01750000 0.01747870 86149.35886088 0 -1876.71656474 0 -12253.65817487 0 -3970.00674712 0 -32392.29561800 0 297
0.01850000 0.01844180 85225.48977730 0 6295.92219638 0 -12740.82797755 0 -16859.96443792 0 -29016.27857746 0 388
0.01950000 0.01947590 78827.42378773 0 10806.84029733 0 4177.10449619 0 -22164.76473740 0 -19357.63703035 0 399
0.02050000 0.02045430 73077.71853232 0 10977.39469087 0 19860.99337008 0 -21559.45569553 0 -3333.92080356 0 462
0.02150000 0.02154770 66207.54521205 0 3814.12140279 0 40349.43986397 0 -7895.20826043 0 8659.69615730 0 571
0.02250000 0.02255340 66407.29157553 0 -9.61473557 0 53390.61802905 0 -2029.82546835 0 18522.56908754 0 510
0.02350000 0.02348930 70688.18099993 0 -4011.08008489 0 55172.26116991 0 16553.54429899 0 16641.67100073 0 555
0.02450000 0.02439640 69005.79280502 0 -3074.67767575 0 47343.37274879 0 16099.98404200 0 17273.50797831 0 592
0.02550000 0.02547300 68625.63399730 0 888.43518028 0 35300.92640116 0 20055.79384725 0 20656.15700279 0 837
0.02650000 0.02652900 66579.83556426 0 3953.10080842 0 33323.69593757 0 15189.26651977 0 19277.04156461 0 723
0.02750000 0.02749970 58840.75994248 0 6763.89296761 0 18462.76882565 0 8823.55112300 0 20771.26126628 0 826
0.02850000 0.02848090 51074.03231990 0 7807.18272456 0 21521.46229606 0 3167.08706541 0 12011.87177764 0 831
0.02950000 0.02946900 46761.78147997 0 3810.49067260 0 17136.25963289 0 -413.35582153 0 15012.67589679 0 996
0.03050000 0.03053250 43739.05809190 0 -1163.69960758 0 14606.43877937 0 3417.94466777 0 16291.29991744 0 1041
0.03150000 0.03150510 47488.15233020 0 -3207.42976088 0 8685.99928001 0 6371.72914491 0 12537.70941884 0 1036
0.03250000 0.03246190 52336.02017747 0 -7961.73043146 0 1638.33608469 0 10606.11599723 0 9745.04842928 0 1059
0.03350000 0.03345080 57500.31234280 0 -4275.53887464 0 -4002.41354318 0 8834.78053308 0 6100.76201839 0 1302
0.03450000 0.03451200 61114.18155282 0 -1399.06759323 0 -9440.70781074 0 1301.89216766 0 3440.71822615 0 1339
0.03550000 0.03553350 57215.69906630 0 3773.85739187 0 -5072.02890414 0 -7407.37525936 0 1615.92222714 0 1365
0.03650000 0.03647120 56996.61878355 0 7260.66228602 0 -3474.82236047 0 -12463.74593703 0 8764.69507578 0 1308
0.03750000 0.03744890 50445.67994403 0 5726.57199620 0 6051.46052428 0 -8815.92996181 0 8615.14945845 0 1579
0.03850000 0.03847530 48540.72686465 0 3155.94758053 0 12436.09393623 0 -6718.98656794 0 12745.66145736 0 1662
0.03950000 0.03950240 46958.71768077 0 872.93319886 0 15114.17897289 0 3126.00248699 0 11488.73189262 0 1683
0.04050000 0.04050350 47016.49462553 0 -546.88013936 0 16633.57773220 0 2093.36886693 0 8191.54553565 0 1822
0.04150000 0.04152450 46459.52038181 0 500.03247931 0 13288.13526164 0 5188.12234489 0 8033.27717336 0 1887
0.04250000 0.04250150 45271.04638002 0 823.70139679 0 11563.59462649 0 917.83397820 0 459.07604431 0 1920
0.04350000 0.04349210 42882.97013222 0 2087.05162122 0 10823.04931568 0 -861.79258992 0 -337.61294471 0 2005
0.04450000 0.04448520 41808.92595488 0 2091.61532542 0 13760.69221837 0 -5336.47645324 0 -2933.21408630 0 2151
0.04550000 0.04548030 40018.51510645 0 2591.53202603 0 15124.29555855 0 -3847.44993220 0 -2062.33343027 0 2274
0.04650000 0.04648670 39504.14292900 0 1831.91133093 0 18030.90302457 0 -4644.58067879 0 -4465.71944436 0 2311
0.04750000 0.04749250 39495.93725396 0 1084.02699926 0 22529.97347965 0 150.36393670 0 1986.86370126 0 2568
0.04850000 0.04851840 39520.32946605 0 115.75284903 0 24914.78993873 0 805.03629625 0 842.49014448 0 2493
0.04950000 0.04949480 40452.85385069 0 -256.36552122 0 27368.96121283 0 1693.07805375 0 6779.79848840 0 2644
0.05050000 0.05050630 41431.46490333 0 4.16956202 0 28523.48844941 0 2034.98492704 0 4189.54789655 0 2829
0.05150000 0.05149060 41953.70553629 0 389.77518442 0 30031.19693196 0 353.08570044 0 7352.50964314 0 2784
0.05250000 0.05249300 40719.25727302 0 801.58991273 0 27156.40050751 0 2266.13766867 0 3250.94231986 0 3055
0.05350000 0.05348950 39617.44868836 0 1056.23111813 0 27287.91612106 0 2109.44299748 0 3028.69217361 0 3009
0.05450000 0.05448610 38260.81455164 0 1063.86239591 0 21778.76079130 0 2679.05173262 0 497.47747940 0 3336
0.05550000 0.05550870 37015.12563763 0 977.12503861 0 18981.74966990 0 4282.60924395 0 -2076.28307782 0 3349
0.05650000 0.05647670 35662.20091565 0 660.37361760 0 14743.57471829 0 3583.35084328 0 -5663.52318625 0 3324
0.05750000 0.05747970 35381.52186690 0 -391.23646902 0 14355.77226807 0 1816.93878416 0 -2917.19615901 0 3639
0.05850000 0.05849280 35289.91056344 0 -822.99098766 0 8959.43934969 0 800.92109401 0 -7968.98065118 0 3846
0.05950000 0.05951020 36104.29570890 0 -311.92131339 0 13414.92980189 0 -751.26776754 0 -665.66684003 0 3787
0.06050000 0.06049470 36455.45363774 0 144.87737508 0 10002.84151315 0 -2724.57636808 0 -8316.49660918 0 3930
0.06150000 0.06148310 37111.68282741 0 706.93464106 0 16486.43761413 0 -1095.46885764 0 1855.98880480 0 4083
0.06250000 0.06249100 35666.58476943 0 1339.12120288 0 15019.64510024 0 -622.07334836 0 -4500.22824210 0 4303
0.06350000 0.06350600 35925.23214275 0 1263.22432915 0 17430.31505601 0 152.09499691 0 -75.71567445 0 4470
0.06450000 0.06451750 34043.43480388 0 1182.97732358 0 16918.86544775 0 2045.27012246 0 -1382.73492772 0 4479
0.06550000 0.06550280 33692.95131409 0 1204.78418600 0 17731.33968259 0 1598.36433069 0 1076.62503075 0 4636
0.06650000 0.06648880 32231.44190604 0 531.04206248 0 15255.58635909 0 2456.62173596 0 512.97159237 0 4653
0.06750000 0.06749660 32232.79078413 0 620.31755872 0 15529.52101740 0 3783.49062954 0 2526.60602741 0 5220
0.06850000 0.06852730 31658.16871876 0 300.47158656 0 11780.20196608 0 3019.23878634 0 1609.29024320 0 5029
0.06950000 0.06949320 31798.22722687 0 178.37788645 0 13015.32466840 0 2103.91259732 0 4448.89219022 0 5040
0.07050000 0.07048030 31234.17137319 0 230.66602146 0 12051.77608774 0 -38.81070719 0 3827.29544544 0 5475
0.07150000 0.07148790 31370.18324704 0 437.12192937 0 12817.26440252 0 -590.12067460 0 3229.96726560 0 5509
0.07250000 0.07249820 30869.41225697 0 481.79901976 0 13782.72389380 0 -1645.26032554 0 3257.12467776 0 5916
0.07350000 0.07351270 30353.80360794 0 817.78431824 0 15468.82150345 0 -2262.29336612 0 1861.69905537 0 5721
0.07450000 0.07449140 30155.40612254 0 879.67084491 0 15241.64795218 0 -865.24684189 0 269.49797347 0 6028
0.07550000 0.07549160 28972.44003961 0 268.75833865 0 15712.96843733 0 102.97256637 0 -966.30591228 0 6183
0.07650000 0.07648840 28846.65715793 0 487.01468170 0 13628.72697879 0 1201.02980865 0 -3264.59971050 0 6330
0.07750000 0.07749960 28190.54037476 0 339.48788525 0 12112.92522772 0 1563.30474106 0 -5549.02591791 0 6583
0.07850000 0.07848650 27312.98277219 0 801.13803857 0 10520.41727605 0 1918.62171067 0 -7019.49412458 0 6549
0.07950000 0.07947320 26464.98808105 0 996.32294600 0 9516.02017064 0 1120.38038779 0 -5501.05082059 0 6828
0.08050000 0.08048110 25322.60074725 0 823.75535191 0 9828.35289185 0 924.98303207 0 -5705.29344437 0 7147
0.08150000 0.08149960 24847.12122133 0 583.51342010 0 8913.59997601 0 1539.65441193 0 -2203.63965060 0 7386
0.08250000 0.08250610 24810.13948043 0 294.18019435 0 10439.46210949 0 2236.48483204 0 -869.84314397 0 7227
0.08350000 0.08350160 24557.22483898 0 300.99202869 0 10058.55017817 0 2018.11271029 0 1700.81162146 0 7798
0.08450000 0.08449610 24727.85791708 0 541.47338636 0 11316.18790390 0 942.60387615 0 5667.12019449 0 7371
0.08550000 0.08548940 23756.89050694 0 651.40582645 0 11394.87245902 0 1233.15558844 0 5785.03462066 0 8256
0.08650000 0.08650700 23302.99303042 0 805.49266667 0 11052.60588491 0 1378.36231459 0 8160.27404532 0 8037
0.08750000 0.08749060 22859.32454607 0 623.56498272 0 10748.47883873 0 847.72941179 0 8077.73394700 0 8155
0.08850000 0.08849210 21875.09316806 0 569.58175758 0 10238.15329555 0 529.44926228 0 5931.55650294 0 8718
0.08950000 0.08949900 21850.70095597 0 434.46913579 0 9076.61189291 0 -352.57537489 0 4238.88311261 0 8571
0.09050000 0.09049190 20632.55163626 0 594.92605278 0 8768.71922874 0 -1244.00281640 0 1564.01290206 0 8932
0.09150000 0.09150830 20580.84464289 0 488.81993021 0 7725.69924741 0 -998.75542282 0 -515.24445195 0 9285
0.09250000 0.09250820 19795.68518933 0 440.01752099 0 8087.01872451 0 -791.71724920 0 -2501.47193237 0 9204
0.09350000 0.09350330 19351.45467245 0 325.34040224 0 6437.16097282 0 314.05703703 0 -3814.85204508 0 9349
0.09450000 0.09448040 19258.04486487 0 149.89070530 0 7461.83621215 0 616.64861032 0 -6289.04291813 0 9564
0.09550000 0.09549270 19294.68938625 0 100.37833659 0 5656.14931938 0 707.93730710 0 -5909.05272017 0 10155
0.09650000 0.09649430 18755.81259021 0 305.80077907 0 5641.94113685 0 1173.08555094 0 -6297.59705334 0 9913
0.09750000 0.09749140 18414.54643402 0 434.54107596 0 4675.06532357 0 347.76887264 0 -5122.64555438 0 10476
0.09850000 0.09850240 18280.78269032 0 359.25232143 0 5234.09660638 0 286.05882419 0 -5151.72511782 0 10575
0.09950000 0.09950330 18053.72154555 0 391.52535374 0 5406.08980321 0 419.46623926 0 -3584.93577503 0 10882
0.10050000 0.10051200 17688.85002282 0 639.66946302 0 5183.63732525 0 -57.73670323 0 -2708.76077250 0 10875
0.10150000 0.10150300 17294.07836915 0 479.63182230 0 6068.34398168 0 150.11889051 0 -981.01542783 0 11118
0.10250000 0.10250800 17090.84740394 0 407.12625289 0 6390.75956660 0 24.63950640 0 674.43005134 0 11575
0.10350000 0.10349800 16947.75392013 0 43.95420415 0 7203.31248599 0 822.85722392 0 41.18057358 0 11364
0.10450000 0.10450100 17349.38237075 0 -187.75034103 0 7468.80541560 0 1047.34201153 0 2017.37082734 0 12093
0.10550000 0.10551000 17228.54537539 0 -63.56284491 0 7424.23623546 0 901.54290310 0 1238.84335771 0 12067
0.10650000 0.10649700 17287.33397871 0 -1.44682912 0 7361.42347917 0 -27.75305425 0 2369.06830741 0 12054
0.10750000 0.10749900 17319.70705282 0 283.42064347 0 7673.43022151 0 107.99826131 0 1643.40561817 0 12807
0.10850000 0.10850100 17081.85488335 0 448.06919911 0 7224.45615001 0 -200.45564855 0 2288.04569694 0 12736
0.10950000 0.10950300 16745.42220697 0 306.44711649 0 7407.63379433 0 -321.13190260 0 1872.72613374 0 12933
0.11050000 0.11050200 16514.65164746 0 493.06552399 0 7206.54979340 0 243.24430962 0 1752.52985547 0 13428
0.11150000 0.11150900 16064.23877267 0 252.76176860 0 7005.16229490 0 325.48428257 0 1820.70440215 0 13453
0.11250000 0.11250000 15722.97261648 0 338.63247173 0 6108.52930804 0 347.12927961 0 1070.30216472 0 13668
0.11350000 0.11349100 15700.04168899 0 92.68332432 0 6119.69127422 0 614.65114669 0 1127.10004880 0 13791
0.11450000 0.11448600 15249.40400118 0 136.41091695 0 5808.33648962 0 315.50258472 0 276.33790944 0 14205
0.11550000 0.11549300 15353.82964648 0 145.08982338 0 4841.67424871 0 568.56223056 0 477.27803004 0 14776
0.11650000 0.11649800 14877.33846199 0 89.13285238 0 5017.17452857 0 599.62127259 0 -6.33638854 0 14553
0.11750000 0.11747300 14848.22517660 0 58.84874080 0 4215.95218512 0 899.50946938 0 133.14213571 0 14568
0.11850000 0.11849100 14624.76104006 0 141.29610375 0 3559.55438568 0 742.71138420 0 -49.09286763 0 16015
0.11950000 0.11950300 14494.03227206 0 217.83706678 0 3421.60911991 0 598.76923127 0 -734.84742495 0 15270
0.12050000 0.12050700 14192.78283247 0 302.93328907 0 2601.27767021 0 -227.49953014 0 -161.31008238 0 15999
0.12150000 0.12150000 13885.35103498 0 232.96248640 0 2591.18356586 0 -59.66290114 0 -986.35473693 0 15670
0.12250000 0.12250700 14027.32045371 0 90.67057340 0 2750.04768264 0 -332.61759952 0 -391.46353016 0 16887
0.12350000 0.12352200 13879.50589660 0 -50.04585000 0 2725.66671120 0 0.06699563 0 -1662.52596507 0 16407
0.12450000 0.12449800 13961.67505344 0 134.18976436 0 2649.50006185 0 -401.95330542 0 -1771.14437308 0 16306
0.12550000 0.12549900 13838.02789540 0 157.63776179 0 3142.63865007 0 -356.79174298 0 -2159.05922981 0 17523
0.12650000 0.12650100 13778.00282050 0 264.75441886 0 3437.13245857 0 -425.59126985 0 -1246.84670103 0 17154
0.12750000 0.12750600 13600.62535196 0 269.23494224 0 4054.31162761 0 -248.62183693 0 -1496.51279442 0 18007
0.12850000 0.12850300 13624.23071850 0 269.53057136 0 4442.96836728 0 -115.32458024 0 -669.38524729 0 17496
0.12950000 0.12949900 13370.19201198 0 185.36057868 0 4662.10485328 0 244.99785114 0 -689.51500462 0 18405
0.13050000 0.13049000 13465.73754319 0 86.15677769 0 4891.40288754 0 523.47036015 0 169.28082781 0 18100
0.13150000 0.13148800 13255.64978103 0 200.32300887 0 4504.90435281 0 392.71011833 0 85.23009844 0 19059
0.13250000 0.13249300 13173.81784371 0 245.51042481 0 4765.03549203 0 610.82370511 0 377.26096796 0 18957
0.13350000 0.13349100 12784.55410889 0 319.21199946 0 4166.79681947 0 517.15648664 0 411.51685107 0 19468
0.13450000 0.13450700 12540.06995549 0 199.32483909 0 3815.61640933 0 752.33562936 0 558.75139060 0 19953
0.13550000 0.13551000 12194.41994552 0 213.19355396 0 3683.56124455 0 447.87473586 0 895.05367543 0 19956
0.13650000 0.13649900 12236.57238576 0 127.98155296 0 3247.36779293 0 269.15288549 0 964.88396997 0 19723
0.13750000 0.13749600 11963.31216649 0 153.78446672 0 3334.98866538 0 81.60959725 0 254.00386050 0 20946
0.13850000 0.13851100 12081.45140567 0 209.90229143 0 3579.97864806 0 -223.68220516 0 1179.07681778 0 20955
0.13950000 0.13949800 11756.93381907 0 136.32548800 0 3334.55028000 0 -169.03353350 0 927.26825636 0 20506
0.14050000 0.14048300 11921.49694577 0 80.69292218 0 4066.97984098 0 48.07244136 0 1553.16567410 0 21447
0.14150000 0.14148400 11686.11771946 0 67.02429089 0 3708.94263390 0 512.99632180 0 966.42169099 0 21771
0.14250000 0.14249400 11768.17446980 0 80.35806320 0 3437.22238378 0 447.07664965 0 1347.19199011 0 22470
0.14350000 0.14350900 11595.40566806 0 82.73388714 0 3361.28054744 0 471.53405751 0 1591.90095652 0 22519
0.14450000 0.14449900 11574.38565119 0 123.49990552 0 2780.43116156 0 389.55486767 0 1257.63772574 0 22218
0.14550000 0.14550500 11340.13048996 0 148.87342641 0 2636.65199806 0 236.66290862 0 1013.43458860 0 23559
0.14650000 0.14650700 11258.18614613 0 133.24779783 0 2294.44162721 0 -10.29427786 0 571.33642316 0 23044
0.14750000 0.14750500 11021.84022386 0 213.68139820 0 2137.13996088 0 163.80325871 0 669.14132517 0 23649
0.14850000 0.14849900 10784.50512433 0 241.11757851 0 2062.76057499 0 -148.35972867 0 -54.56110699 0 23640
0.14950000 0.14949500 10661.64481184 0 11.66498530 0 1946.95939116 0 288.49130101 0 -259.80403628 0 24457
0.15050000 0.15050000 10606.02607202 0 115.55950984 0 1822.73895993 0 10.91634672 0 -780.78009603 0 24591
0.15150000 0.15149900 10484.95302300 0 59.81779730 0 1929.62630774 0 -103.19355756 0 -1189.81163922 0 25020
0.15250000 0.15250500 10340.89284323 0 267.48477292 0 2122.90929705 0 -410.45798177 0 -1009.25643873 0 25297
0.15350000 0.15350100 10356.34873798 0 152.94029385 0 2311.10027159 0 -224.52525396 0 -942.96807324 0 25452
0.15450000 0.15450400 10068.26210040 0 226.13828734 0 2489.55684260 0 -248.62745726 0 -699.47984149 0 26061
0.15550000 0.15549900 10088.97861970 0 131.14692021 0 2534.22718860 0 94.32063750 0 -498.67011244 0 26128
0.15650000 0.15649500 9977.38143924 0 111.16969851 0 2852.30388234 0 21.32475091 0 -331.94203641 0 26331
0.15750000 0.15749700 10115.46159282 0 57.56134908 0 2713.38067995 0 210.34180087 0 21.37971769 0 27345
0.15850000 0.15849900 9872.82090614 0 -5.73057367 0 2791.58188709 0 28.30665630 0 115.27174918 0 26980
0.15950000 0.15949700 10043.48770619 0 66.62558501 0 2756.25252184 0 -105.05635820 0 76.68911480 0 27777
0.16050000 0.16050000 9979.74197589 0 2.32023892 0 2968.68958001 0 221.37225143 0 179.59412486 0 28224
0.16150000 0.16150500 9923.21274337 0 118.12799853 0 2864.00539975 0 -16.53544685 0 -155.73921588 0 28075
0.16250000 0.16249700 9909.15068930 0 155.02768269 0 3088.61608266 0 -9.67831269 0 231.77996994 0 28590
0.16350000 0.16349900 9715.17077964 0 292.81782748 0 3230.65294529 0 -94.15124090 0 98.35659315 0 29163
0.16450000 0.16449100 9545.53811946 0 360.66639529 0 3171.01005251 0 -171.46713438 0 179.32434924 0 28996
0.16550000 0.16550500 9240.78159684 0 292.95833561 0 3652.81806480 0 -208.50620260 0 422.99580359 0 30777
0.16650000 0.16650700 9054.15307275 0 287.77864375 0 3552.38285052 0 -127.78596564 0 242.11125203 0 29211
0.16750000 0.16749900 8983.70791462 0 137.57544836 0 3766.43856239 0 46.79100717 0 545.99887235 0 30922
0.16850000 0.16850800 8852.63068645 0 127.59262645 0 3784.07514338 0 22.24828277 0 517.86914389 0 30867
0.16950000 0.16949900 8749.38530948 0 85.85912526 0 3599.88584050 0 315.24292569 0 572.96856565 0 30852
0.17050000 0.17049200 8686.39270279 0 -10.32556060 0 3628.17855839 0 450.07340714 0 459.24128187 0 31257
0.17150000 0.17149500 8637.29354039 0 21.36982592 0 3299.58061558 0 465.14487164 0 507.31979318 0 32608
0.17250000 0.17250900 8618.91507645 0 11.18236796 0 3061.23385748 0 537.25027388 0 855.41014843 0 32361
0.17350000 0.17350400 8475.77663004 0 96.17287193 0 2907.75401239 0 340.79404886 0 512.36459723 0 32508
0.17450000 0.17449800 8479.19378786 0 126.53263308 0 2633.68446627 0 330.20647994 0 904.39128399 0 32791
0.17550000 0.17549800 8286.67516279 0 76.86694189 0 2669.75571447 0 140.05850811 0 686.29680632 0 33633
0.17650000 0.17650100 8331.87381938 0 24.61556382 0 2619.83598457 0 88.77528728 0 1169.69087442 0 33984
0.17750000 0.17750300 8304.88501698 0 -36.97420967 0 2818.79550251 0 165.00600834 0 877.66101656 0 34069
