### header ###
fiducial parameters:
Omega_m = 0.31
Omega_nu = 0
Omega_de = 0.69
Omega_k = 0
H_0 = 100
w_de = -1
zeff = 0
beta = 0
fgrowth = 0
b_1 = 2
gamma = 0.55
Lx = 3500 Ly = 3500 Lz = 3500
nx = 700 ny = 700 nz = 700
xoffset = 857.220397 yoffset = 15.9954215 zoffset = 262.898189
bins = 400 dk = 0.001
kx_ny = 0.628318531 ky_ny = 0.628318531 kz_ny = 0.628318531
############################
A(data) = 3.06917129 (not used)
A(ran) = 3.06928901 (used)
Ngal = 187363
weighted Ngal = 0
Nran = 9360983
weighted Nran = 0
SN(data) = 3442.82268
SN(ran) = 68.9246961
SN(data+ran) = 3511.74737
############################
13 columns: k_central k_mean P_0(k) sigma^{lin}_{P_0(k)} P^img_1(k) sigma^{lin}_{P_1(k)} P_2(k) sigma^{lin}_{P_2(k)} P^img_3(k) sigma^{lin}_{P_3(k)} P_4(k) sigma^{lin}_{P_4(k)} N_modes
### header ###
0.00050000 0 0 0 0 0 0 0 0 0 0 0 0
0.00150000 0.00179520 2411.91766800 0 -4869.33749016 0 -2443.70622827 0 4796.71164579 0 -8094.16777837 0 3
0.00250000 0.00253879 13002.17310704 0 -12405.51936624 0 -8910.25026209 0 1080.78631965 0 20621.53579854 0 6
0.00350000 0.00331552 20582.41833400 0 -16694.95168519 0 -15174.87848684 0 2004.59020746 0 103.50514840 0 7
0.00450000 0.00420575 35417.82916876 0 -16878.39910512 0 -17635.34452534 0 -10913.53655407 0 8083.91630491 0 24
0.00550000 0.00557378 57041.58138647 0 -24287.89884747 0 -28935.79551822 0 619.81622570 0 26414.40515276 0 45
0.00650000 0.00659388 84158.97683595 0 -22887.31376639 0 -25381.27694407 0 -6174.29835547 0 7298.40839117 0 40
0.00750000 0.00754703 103903.17984493 0 -23554.33398076 0 -45821.16382680 0 7594.76814770 0 31114.00881688 0 57
0.00850000 0.00846663 118915.96814823 0 -12961.81917092 0 -8597.43419290 0 -11925.65598654 0 19115.17619408 0 75
0.00950000 0.00948925 129115.73462153 0 -3949.68365060 0 -1972.83536915 0 -10422.15150736 0 44895.83345862 0 112
0.01050000 0.01054430 130090.29903991 0 7973.26333911 0 -16619.41451228 0 887.12789260 0 25776.38581727 0 105
0.01150000 0.01145670 126007.69469441 0 9674.78312156 0 50940.15616969 0 -17293.40393011 0 34977.98250565 0 144
0.01250000 0.01249090 116706.05621452 0 16096.94906630 0 18759.52200495 0 5885.50355689 0 20469.33738764 0 169
0.01350000 0.01339930 106449.63686153 0 14832.71307859 0 60675.34654828 0 -758.25270790 0 16.69573853 0 180
0.01450000 0.01448870 93923.16809342 0 15347.19766254 0 52813.41061401 0 -2180.76492637 0 14808.54567952 0 267
0.01550000 0.01550050 70927.60686050 0 9012.68631220 0 56772.25539496 0 17034.75655679 0 -30561.64323996 0 238
0.01650000 0.01653350 72275.69810266 0 6457.83252951 0 52850.61716793 0 8337.12320327 0 2757.41030887 0 315
0.01750000 0.01747870 65986.32920566 0 -667.91721831 0 57010.89440998 0 19924.39064020 0 -21377.35715369 0 297
0.01850000 0.01844180 69826.24790187 0 -1558.24644823 0 46839.22956350 0 23478.00996230 0 7386.06298557 0 388
0.01950000 0.01947590 67672.87644134 0 -1915.08090569 0 41906.94442925 0 19438.12008958 0 -2659.41431579 0 399
0.02050000 0.02045430 72375.40267465 0 -228.87650986 0 34013.30985992 0 17149.41119424 0 4302.24666078 0 462
0.02150000 0.02154770 72059.42798260 0 2083.35344713 0 35525.06497673 0 11183.62690983 0 9766.83281040 0 571
0.02250000 0.02255340 70959.08068254 0 2929.27985854 0 30809.72440159 0 1059.69099043 0 12176.65971736 0 510
0.02350000 0.02348930 65596.72825132 0 989.55045393 0 30094.03216955 0 10339.53272449 0 13282.51493628 0 555
0.02450000 0.02439640 70501.36138478 0 -1521.20850408 0 27297.92030021 0 5826.72619422 0 -538.15964253 0 592
0.02550000 0.02547300 69261.74242216 0 -3464.98679108 0 18762.78179366 0 10527.04925998 0 2661.79733375 0 837
0.02650000 0.02652900 72886.96468941 0 -2114.46756836 0 10408.37046957 0 10961.25311642 0 -4590.58059268 0 723
0.02750000 0.02749970 70242.37679193 0 -1310.40134027 0 6502.36798771 0 5981.38630763 0 2349.22855887 0 826
0.02850000 0.02848090 72268.16686667 0 1433.17172755 0 2334.79556333 0 -309.02010144 0 -11980.39795560 0 831
0.02950000 0.02946900 70018.57543588 0 2350.24021744 0 -222.66380220 0 -7959.20128505 0 -6141.13843581 0 996
0.03050000 0.03053250 69592.77958619 0 2363.72899832 0 9507.36486957 0 -7823.67275918 0 -5646.62848821 0 1041
0.03150000 0.03150510 68846.28797115 0 2089.31099202 0 12290.75232228 0 -9933.76771440 0 -12813.10536175 0 1036
0.03250000 0.03246190 69356.50110782 0 3720.79027977 0 16518.58587522 0 -6188.49529734 0 -8386.86308276 0 1059
0.03350000 0.03345080 62456.42765661 0 4594.70591150 0 21426.36639088 0 -2132.86851360 0 -13122.67288288 0 1302
0.03450000 0.03451200 59583.54214278 0 7248.97200926 0 22615.29001870 0 -689.19352201 0 -6178.24382388 0 1339
0.03550000 0.03553350 54697.56848954 0 6314.93013677 0 27544.31536424 0 -70.20044916 0 -8964.34027341 0 1365
0.03650000 0.03647120 51694.74105326 0 4588.22005603 0 28210.09910703 0 2547.51363777 0 -2110.60078450 0 1308
0.03750000 0.03744890 48665.16086825 0 1736.03982085 0 30873.90851726 0 1325.10411142 0 546.44849838 0 1579
0.03850000 0.03847530 48605.47301286 0 -374.05063811 0 29564.03548758 0 3071.14811142 0 2219.57889334 0 1662
0.03950000 0.03950240 49085.78601860 0 -1143.82613708 0 27232.83693248 0 5855.24372512 0 3999.45725204 0 1683
0.04050000 0.04050350 50419.26441482 0 -1571.40925024 0 27929.75727780 0 3682.96549006 0 3542.47983722 0 1822
0.04150000 0.04152450 52965.60902491 0 -415.22176955 0 24838.01629424 0 3772.38486662 0 5618.21212316 0 1887
0.04250000 0.04250150 50955.89308071 0 842.87232661 0 21611.83712794 0 4664.76888750 0 -2835.34174039 0 1920
0.04350000 0.04349210 50621.03409544 0 1538.02451757 0 21253.48518264 0 166.06150544 0 6821.33269285 0 2005
0.04450000 0.04448520 47169.81710150 0 1954.68171821 0 17973.35089283 0 -347.66545865 0 -3106.26390430 0 2151
0.04550000 0.04548030 46794.94139962 0 2170.28863989 0 18615.07964306 0 2217.62302011 0 2495.90781026 0 2274
0.04650000 0.04648670 44386.63198051 0 1988.51607692 0 19062.23272914 0 872.72524682 0 -240.09917555 0 2311
0.04750000 0.04749250 43260.76840329 0 1533.38212882 0 15785.69544756 0 1147.33322011 0 -1594.28397448 0 2568
0.04850000 0.04851840 41531.84391436 0 1872.31022966 0 15727.91850280 0 1709.92778920 0 -276.50651920 0 2493
0.04950000 0.04949480 39608.34376127 0 1233.26799495 0 13679.98434612 0 3034.29001767 0 -1568.62156886 0 2644
0.05050000 0.05050630 39127.58112951 0 988.21506462 0 13476.07894186 0 936.14499824 0 -2138.42139506 0 2829
0.05150000 0.05149060 38169.42806120 0 775.32838043 0 11987.02993953 0 55.82343207 0 -2756.05019013 0 2784
0.05250000 0.05249300 36898.22287003 0 1099.65712410 0 13962.91152502 0 -1724.19217498 0 -2858.48624024 0 3055
0.05350000 0.05348950 36567.52292552 0 1298.32888138 0 12132.03433396 0 -1791.04032487 0 -3805.07267895 0 3009
0.05450000 0.05448610 35198.29925998 0 1314.56038104 0 14824.73221657 0 -2837.17396645 0 -4277.89941130 0 3336
0.05550000 0.05550870 34688.98537536 0 1373.98970145 0 14209.41899555 0 -515.43554301 0 -6464.68932646 0 3349
0.05650000 0.05647670 33439.13742058 0 879.82034556 0 15115.97747701 0 1155.57261710 0 -7802.83259273 0 3324
0.05750000 0.05747970 32245.82993898 0 261.52160771 0 13483.94739738 0 2511.18385460 0 -7373.37229090 0 3639
0.05850000 0.05849280 33076.17680848 0 -497.95633112 0 11950.38541815 0 4597.62848069 0 -4449.29685364 0 3846
0.05950000 0.05951020 33380.46122377 0 -1047.76915626 0 10952.10322673 0 5258.45509651 0 -1262.95455353 0 3787
0.06050000 0.06049470 34901.54608068 0 -1106.56900024 0 11621.70879077 0 4473.66658443 0 3628.96540395 0 3930
0.06150000 0.06148310 35286.53836822 0 -800.36355774 0 9464.00967970 0 3457.34314858 0 5134.08853683 0 4083
0.06250000 0.06249100 36557.85596590 0 -291.84101493 0 11867.99144829 0 234.18771733 0 8504.84495283 0 4303
0.06350000 0.06350600 36842.46924240 0 957.01439039 0 11413.75675225 0 -254.39503515 0 9183.83646023 0 4470
0.06450000 0.06451750 36149.37071833 0 900.63353445 0 15455.44512908 0 -2225.26666261 0 9067.86666664 0 4479
0.06550000 0.06550280 34315.00892554 0 1696.80994980 0 13244.85875633 0 -1561.57368085 0 7520.98451630 0 4636
0.06650000 0.06648880 33889.77510839 0 1359.34313355 0 14928.03379679 0 906.88783252 0 5500.85972953 0 4653
0.06750000 0.06749660 31805.53364985 0 1016.08288592 0 12500.61527143 0 1586.12326205 0 3775.63341468 0 5220
0.06850000 0.06852730 31104.22945074 0 709.85383805 0 10636.84793633 0 2378.78022964 0 2736.46897656 0 5029
0.06950000 0.06949320 30118.42438163 0 180.38546667 0 10809.90899498 0 1821.09782493 0 1955.97439305 0 5040
0.07050000 0.07048030 29950.82627923 0 325.33253378 0 8597.00704817 0 1246.29590915 0 3080.23055721 0 5475
0.07150000 0.07148790 29811.77942969 0 222.98640888 0 8627.13199213 0 936.45186801 0 1209.40409345 0 5509
0.07250000 0.07249820 29482.76558279 0 825.98324888 0 9182.24028783 0 -538.53620433 0 4248.98845762 0 5916
0.07350000 0.07351270 28480.21194410 0 193.89335665 0 7729.16136784 0 2009.46864988 0 3543.52521774 0 5721
0.07450000 0.07449140 28844.52143429 0 131.20087533 0 9652.49291116 0 1307.13031090 0 5094.22918933 0 6028
0.07550000 0.07549160 28651.40705473 0 -16.41595873 0 7438.11843911 0 2579.49328910 0 3753.26451973 0 6183
0.07650000 0.07648840 28888.58478515 0 357.15706413 0 6568.93512133 0 1234.54942913 0 3652.15486640 0 6330
0.07750000 0.07749960 28024.51596346 0 1171.93900456 0 7526.38002865 0 -1974.94861148 0 5242.66198224 0 6583
0.07850000 0.07848650 27117.95748201 0 1224.63517519 0 8065.99870764 0 -2093.58243930 0 3124.12529832 0 6549
0.07950000 0.07947320 26263.10599392 0 1145.35486558 0 9858.21930084 0 -1984.07601988 0 4652.02198958 0 6828
0.08050000 0.08048110 25832.02703838 0 840.10712653 0 10087.43865055 0 -1341.52670214 0 1278.21935722 0 7147
0.08150000 0.08149960 25388.47096054 0 531.87274657 0 12530.51540237 0 -234.51032401 0 2660.68450933 0 7386
0.08250000 0.08250610 25131.73449784 0 322.76067289 0 12024.23649345 0 1010.83687422 0 1403.81114784 0 7227
0.08350000 0.08350160 24461.56690126 0 311.12210313 0 10597.40449291 0 1848.41260620 0 241.45929429 0 7798
0.08450000 0.08449610 24215.95868279 0 457.26854767 0 12048.29148601 0 1066.63658851 0 1946.76830010 0 7371
0.08550000 0.08548940 23886.38280336 0 432.14232109 0 9196.50467361 0 1581.78437087 0 -621.12800964 0 8256
0.08650000 0.08650700 23268.82145220 0 437.09944807 0 9319.67972432 0 718.33715716 0 1884.03422837 0 8037
0.08750000 0.08749060 22659.91540210 0 651.52385328 0 7688.91983822 0 46.19547750 0 -1314.65030624 0 8155
0.08850000 0.08849210 22739.27439626 0 287.54371415 0 9259.95814698 0 -212.03689100 0 995.91378631 0 8718
0.08950000 0.08949900 21646.23351918 0 849.50206241 0 7289.23602018 0 8.32864775 0 -1321.77687881 0 8571
0.09050000 0.09049190 21501.00431173 0 479.70713466 0 7611.19073841 0 316.51536735 0 -237.20358392 0 8932
0.09150000 0.09150830 20545.43659309 0 300.53565827 0 6718.59314517 0 758.51798726 0 -620.00057237 0 9285
0.09250000 0.09250820 21008.66380972 0 117.93578340 0 7361.73821739 0 1672.76619788 0 1099.34688214 0 9204
0.09350000 0.09350330 20418.41723983 0 -46.39859605 0 6942.43946382 0 1576.02915769 0 1149.43522180 0 9349
0.09450000 0.09448040 20718.31780133 0 314.00982630 0 6882.43687022 0 1295.31638699 0 1604.52420729 0 9564
0.09550000 0.09549270 20279.59520330 0 823.04494278 0 7339.86391107 0 -93.73477479 0 2812.26468443 0 10155
0.09650000 0.09649430 19631.23446914 0 862.36361498 0 8024.93661052 0 -903.17279745 0 3359.85298479 0 9913
0.09750000 0.09749140 19089.32269740 0 1001.27332858 0 9017.48607007 0 -321.05771431 0 5058.36027285 0 10476
0.09850000 0.09850240 18571.35351171 0 482.42287588 0 10027.28992849 0 -211.31074496 0 4346.44489945 0 10575
0.09950000 0.09950330 18316.64036615 0 46.13387873 0 9268.69213260 0 879.66747271 0 5274.88892788 0 10882
0.10050000 0.10051200 18470.41246815 0 -183.77677100 0 9511.99601767 0 1073.91041360 0 3764.12298833 0 10875
0.10150000 0.10150300 18230.42457504 0 24.22191623 0 8290.27217102 0 1141.08341831 0 3149.93383239 0 11118
0.10250000 0.10250800 17901.86035418 0 308.35577898 0 8330.39005348 0 621.75298982 0 2768.16761162 0 11575
0.10350000 0.10349800 17374.44902188 0 692.55560064 0 6973.47490049 0 160.31416073 0 1725.09142703 0 11364
0.10450000 0.10450100 17075.56011894 0 466.86581527 0 7107.65454827 0 376.00426321 0 2120.79605472 0 12093
0.10550000 0.10551000 16684.94750604 0 225.14911008 0 6120.24206611 0 242.94081205 0 1304.73605230 0 12067
0.10650000 0.10649700 16486.21280112 0 -36.12306760 0 6572.49840762 0 551.28647445 0 1714.14303322 0 12054
0.10750000 0.10749900 16538.93145304 0 112.89772375 0 6667.81912582 0 44.53321007 0 1054.65068264 0 12807
0.10850000 0.10850100 16576.02560046 0 173.84565608 0 6727.79923812 0 -271.35155678 0 753.25174239 0 12736
0.10950000 0.10950300 16593.44860909 0 311.31769045 0 7103.20325058 0 45.07411018 0 1681.90484693 0 12933
0.11050000 0.11050200 16481.04210178 0 224.31168160 0 7440.53517902 0 -577.94929798 0 1308.41174509 0 13428
0.11150000 0.11150900 16210.47963868 0 120.70772787 0 7461.29666092 0 -9.31211477 0 1860.67615615 0 13453
0.11250000 0.11250000 16095.93740774 0 83.67911346 0 6921.10470874 0 86.46555837 0 -65.87493436 0 13668
0.11350000 0.11349100 16071.43278914 0 209.95399842 0 6527.72689575 0 455.60830356 0 700.38808607 0 13791
0.11450000 0.11448600 15509.73747211 0 408.64486480 0 5875.75791271 0 699.41239759 0 -1069.29949867 0 14205
0.11550000 0.11549300 15184.20822694 0 252.24919492 0 5114.38367609 0 642.74153286 0 -580.22103350 0 14776
0.11650000 0.11649800 14991.76828643 0 -120.76168300 0 4577.65384434 0 1222.08354747 0 -1476.93158085 0 14553
0.11750000 0.11747300 14841.59319266 0 46.86126124 0 4188.27770302 0 410.49507591 0 -1729.25046780 0 14568
0.11850000 0.11849100 15181.73528378 0 93.66530757 0 4039.69878166 0 238.84022267 0 -1107.18948416 0 16015
0.11950000 0.11950300 14683.43723688 0 345.30941826 0 5246.31519372 0 -820.81816987 0 -1294.27100647 0 15270
0.12050000 0.12050700 14876.55161644 0 443.11432027 0 5243.51627169 0 -553.41432963 0 -287.27056634 0 15999
0.12150000 0.12150000 14442.66249822 0 281.87505399 0 6262.52622306 0 -417.97910117 0 -702.24166938 0 15670
0.12250000 0.12250700 14517.75004510 0 288.27098426 0 6774.35801344 0 191.88577643 0 670.05519007 0 16887
0.12350000 0.12352200 14187.05010060 0 179.25240908 0 6560.09996986 0 314.51115932 0 -6.85781985 0 16407
0.12450000 0.12449800 14253.48234642 0 216.69951292 0 6683.49983358 0 202.58237967 0 379.30676640 0 16306
0.12550000 0.12549900 13907.71992993 0 242.78569107 0 6013.15238659 0 448.88527036 0 -186.48801595 0 17523
0.12650000 0.12650100 13598.71444134 0 287.02889235 0 5645.74047680 0 691.76425883 0 494.05470125 0 17154
0.12750000 0.12750600 13480.80001517 0 104.62179465 0 5171.09275903 0 768.65930235 0 85.08745459 0 18007
0.12850000 0.12850300 13040.39131953 0 49.84565401 0 4215.76109406 0 1197.44404107 0 56.72223450 0 17496
0.12950000 0.12949900 13137.28572883 0 34.54207007 0 3781.54599697 0 944.02132221 0 -443.15366255 0 18405
0.13050000 0.13049000 12829.17949229 0 113.61712539 0 3119.89881364 0 692.73432699 0 -192.96825110 0 18100
0.13150000 0.13148800 12607.17664036 0 329.70514692 0 2930.60625533 0 361.84216736 0 431.37121245 0 19059
0.13250000 0.13249300 12330.65663238 0 329.21955080 0 2713.00973848 0 28.46155246 0 448.76162320 0 18957
0.13350000 0.13349100 12042.33394113 0 288.63293321 0 2821.75179365 0 -123.94503529 0 209.07947579 0 19468
0.13450000 0.13450700 11973.76597167 0 143.46442528 0 2970.69041584 0 9.00774043 0 803.70315507 0 19953
0.13550000 0.13551000 11928.01652319 0 107.35282315 0 3101.90253182 0 -204.06277337 0 389.00407578 0 19956
0.13650000 0.13649900 11784.58581986 0 203.64911742 0 3593.10772811 0 -507.79302458 0 268.96067037 0 19723
0.13750000 0.13749600 11745.80557484 0 215.74293354 0 3306.70718814 0 -339.03039076 0 221.07437419 0 20946
0.13850000 0.13851100 11455.57197297 0 173.08353996 0 3473.96807102 0 86.19701922 0 285.79916516 0 20955
0.13950000 0.13949800 11376.77501134 0 121.28662139 0 3536.49981103 0 295.69543406 0 -114.03415354 0 20506
0.14050000 0.14048300 11327.76577416 0 77.25912820 0 3232.04678598 0 417.43954994 0 104.89258192 0 21447
0.14150000 0.14148400 11313.82736725 0 39.90588379 0 3133.85970185 0 561.05797213 0 -73.06456697 0 21771
0.14250000 0.14249400 11193.27138816 0 -3.63837383 0 3147.93299656 0 377.99385839 0 458.39823307 0 22470
0.14350000 0.14350900 11410.94658957 0 -150.57076467 0 2422.47263904 0 423.80063419 0 297.75359721 0 22519
0.14450000 0.14449900 11445.34298080 0 -80.16820861 0 2692.74284521 0 188.25729438 0 234.85541198 0 22218
0.14550000 0.14550500 11558.08670763 0 125.21635288 0 2443.95352258 0 -117.46030388 0 -36.78244417 0 23559
0.14650000 0.14650700 11195.89045978 0 270.80301302 0 2832.14939558 0 -552.90288003 0 -401.59585273 0 23044
0.14750000 0.14750500 11034.47471528 0 416.02772420 0 2757.51147472 0 -680.93051966 0 36.69600356 0 23649
0.14850000 0.14849900 10783.85316659 0 300.53903046 0 3268.25292199 0 -420.04738091 0 -480.99194104 0 23640
0.14950000 0.14949500 10573.24833449 0 239.94630270 0 3575.06648369 0 -489.01776566 0 -385.22834120 0 24457
0.15050000 0.15050000 10421.94917565 0 99.83406428 0 3743.09173082 0 -76.56445598 0 -601.34221622 0 24591
0.15150000 0.15149900 10496.41848674 0 151.86905983 0 3961.28400216 0 -176.68504445 0 -463.26543484 0 25020
0.15250000 0.15250500 10456.87387747 0 168.98519870 0 4038.82201090 0 -38.10411988 0 -488.90873135 0 25297
0.15350000 0.15350100 10252.19286831 0 99.31294771 0 3985.19286626 0 552.49821660 0 -165.46912315 0 25452
0.15450000 0.15450400 10183.80474926 0 137.73281747 0 3485.43353476 0 396.87815162 0 -89.01887218 0 26061
0.15550000 0.15549900 10080.93031377 0 204.85411518 0 3339.15894680 0 609.36354458 0 -286.02285411 0 26128
0.15650000 0.15649500 9857.82587806 0 242.03031934 0 3244.45646439 0 514.40365127 0 130.59837645 0 26331
0.15750000 0.15749700 9499.53013601 0 267.90854546 0 2893.65823638 0 324.66933539 0 74.00428537 0 27345
0.15850000 0.15849900 9352.36753664 0 215.16628816 0 3003.47939402 0 256.24299813 0 591.52463187 0 26980
0.15950000 0.15949700 9145.60700710 0 135.18793415 0 3196.20035080 0 -18.29415906 0 653.93160067 0 27777
0.16050000 0.16050000 9128.02662936 0 62.25454557 0 2973.08467444 0 97.72610505 0 985.50381967 0 28224
0.16150000 0.16150500 9159.96131808 0 -117.54236063 0 2973.71415088 0 148.38445810 0 771.60772504 0 28075
0.16250000 0.16249700 9264.39820402 0 -204.16281516 0 2523.14390698 0 269.79472665 0 665.81072036 0 28590
0.16350000 0.16349900 9605.97909844 0 -236.06153381 0 2443.98724454 0 384.56626687 0 587.28016216 0 29163
0.16450000 0.16449100 9573.68470889 0 -86.53120377 0 2176.22370347 0 177.00427893 0 74.33026424 0 28996
0.16550000 0.16550500 9592.44535496 0 122.96147835 0 1879.17826725 0 45.15403121 0 23.86738610 0 30777
0.16650000 0.16650700 9380.32303501 0 230.29507998 0 1927.25453043 0 3.18312747 0 -423.39259856 0 29211
0.16750000 0.16749900 9189.45678560 0 285.35740759 0 1966.54060474 0 -63.45291134 0 -115.17283145 0 30922
0.16850000 0.16850800 9039.55146745 0 187.57611094 0 2125.65201583 0 10.71471192 0 -49.86622440 0 30867
0.16950000 0.16949900 8897.67197392 0 174.60440000 0 2061.22060584 0 0.58444415 0 187.30745939 0 30852
0.17050000 0.17049200 8811.13020395 0 113.91387857 0 2211.06972074 0 174.01651397 0 279.43021246 0 31257
0.17150000 0.17149500 8685.96555806 0 198.04677710 0 2360.37928440 0 39.68140799 0 226.76663972 0 32608
0.17250000 0.17250900 8656.95343852 0 243.00825596 0 2181.59673452 0 -170.79606753 0 637.99460606 0 32361
0.17350000 0.17350400 8341.96792374 0 231.65407465 0 2416.82983237 0 72.99161515 0 283.73200949 0 32508
0.17450000 0.17449800 8225.31245045 0 174.00190112 0 2225.60388213 0 -25.12645139 0 623.16256742 0 32791
0.17550000 0.17549800 8194.83904632 0 46.75166489 0 2168.40021056 0 354.26372063 0 138.73435945 0 33633
0.17650000 0.17650100 8128.15950618 0 -20.06950744 0 2053.32966903 0 425.23269309 0 696.79332597 0 33984
0.17750000 0.17750300 8105.70068602 0 -20.03769640 0 1699.56390922 0 384.91697518 0 266.95309015 0 34069
