### header ###
fiducial parameters:
Omega_m = 0.31
Omega_nu = 0
Omega_de = 0.69
Omega_k = 0
H_0 = 100
w_de = -1
zeff = 0
beta = 0
fgrowth = 0
b_1 = 2
gamma = 0.55
Lx = 3500 Ly = 3500 Lz = 3500
nx = 700 ny = 700 nz = 700
xoffset = 857.220397 yoffset = 15.9954215 zoffset = 262.898189
bins = 400 dk = 0.001
kx_ny = 0.628318531 ky_ny = 0.628318531 kz_ny = 0.628318531
############################
A(data) = 3.07402981 (not used)
A(ran) = 3.06829817 (used)
Ngal = 187324
weighted Ngal = 0
Nran = 9360983
weighted Nran = 0
SN(data) = 3461.66741
SN(ran) = 68.9024456
SN(data+ran) = 3530.56985
############################
13 columns: k_central k_mean P_0(k) sigma^{lin}_{P_0(k)} P^img_1(k) sigma^{lin}_{P_1(k)} P_2(k) sigma^{lin}_{P_2(k)} P^img_3(k) sigma^{lin}_{P_3(k)} P_4(k) sigma^{lin}_{P_4(k)} N_modes
### header ###
0.00050000 0 0 0 0 0 0 0 0 0 0 0 0
0.00150000 0.00179520 9324.96283016 0 -11434.88917562 0 -3355.98620094 0 3405.09660399 0 25660.15748871 0 3
0.00250000 0.00253879 15659.12572033 0 -10742.02670522 0 -2670.83481694 0 -9752.90564414 0 -23577.48972127 0 6
0.00350000 0.00331552 26062.68519138 0 -13749.90119367 0 -1232.79588762 0 364.46685930 0 25687.02264395 0 7
0.00450000 0.00420575 33882.91831144 0 -9711.30399579 0 2401.90224820 0 -18071.25696069 0 -6763.76932045 0 24
0.00550000 0.00557378 48574.78603637 0 -2165.47764137 0 21902.40794934 0 -33014.57804247 0 -1329.96007254 0 45
0.00650000 0.00659388 45365.46784616 0 3834.93908794 0 17971.77720172 0 -14662.97925255 0 -24338.93140179 0 40
0.00750000 0.00754703 52759.34308399 0 5606.42068054 0 43735.12386414 0 -21792.69919820 0 11758.05788414 0 57
0.00850000 0.00846663 58247.70320991 0 -6507.05533906 0 34154.49243310 0 12314.58250183 0 -16636.72511440 0 75
0.00950000 0.00948925 68314.60519157 0 -17985.26598260 0 38463.25867131 0 22055.16839277 0 -2034.96244574 0 112
0.01050000 0.01054430 87008.25698324 0 -21580.58811891 0 21853.06149263 0 31087.03125512 0 -38376.48084766 0 105
0.01150000 0.01145670 103107.45417968 0 -16878.06188560 0 9125.14902277 0 20489.45815245 0 -20055.68144074 0 144
0.01250000 0.01249090 108842.32177613 0 -833.32114568 0 6535.22440979 0 -609.91770866 0 -14137.81605040 0 169
0.01350000 0.01339930 101093.01716218 0 15894.39254013 0 -660.76254412 0 -10923.11358849 0 -3197.27945327 0 180
0.01450000 0.01448870 85980.86150642 0 17719.53699932 0 12657.42234913 0 -7999.28544555 0 27814.09098178 0 267
0.01550000 0.01550050 76466.66232121 0 13527.78593523 0 4596.48193431 0 8616.23980157 0 7939.01307633 0 238
0.01650000 0.01653350 65556.26190869 0 3533.88073941 0 25043.15817008 0 9117.82011849 0 23241.95629695 0 315
0.01750000 0.01747870 65203.97991478 0 -3647.57992156 0 19563.34093872 0 8331.59280311 0 -6730.40706909 0 297
0.01850000 0.01844180 72830.08699672 0 -6583.06461930 0 24737.41247020 0 6554.14242497 0 39372.85212846 0 388
0.01950000 0.01947590 77966.95197427 0 -9023.88200033 0 11398.35706075 0 3650.52497205 0 24150.53809553 0 399
0.02050000 0.02045430 88863.63879289 0 -10055.58264637 0 11508.96506394 0 17796.19823731 0 37541.18809184 0 462
0.02150000 0.02154770 93177.68813694 0 -2159.14915501 0 11040.89312685 0 5972.22517728 0 25854.62074635 0 571
0.02250000 0.02255340 93082.03019922 0 5241.36930740 0 -2935.42849449 0 -3958.48508012 0 7316.14613803 0 510
0.02350000 0.02348930 87317.37487834 0 11156.53694157 0 10719.19694358 0 -13123.57213494 0 17445.82715402 0 555
0.02450000 0.02439640 76916.62556997 0 12015.35637937 0 -3276.16634010 0 -8423.13666267 0 -10816.17003744 0 592
0.02550000 0.02547300 68219.84650591 0 6150.91780195 0 11099.01853178 0 -7857.90054066 0 6235.44749545 0 837
0.02650000 0.02652900 62762.62298252 0 2775.56395980 0 3482.39855906 0 -2579.47080780 0 -19809.62359624 0 723
0.02750000 0.02749970 60859.80562678 0 3185.58917651 0 10365.45366508 0 -2363.15572513 0 -9828.06063493 0 826
0.02850000 0.02848090 56953.56709125 0 3215.35441965 0 11979.49870354 0 -6802.04373619 0 -29925.98444112 0 831
0.02950000 0.02946900 55537.80713168 0 1747.14558377 0 13209.00108049 0 -7733.50025902 0 -23384.60015472 0 996
0.03050000 0.03053250 53882.84612456 0 1273.54324652 0 16979.78977471 0 -6652.97022620 0 -23203.17605193 0 1041
0.03150000 0.03150510 54611.01547891 0 707.08751391 0 20597.81802550 0 -6785.69983003 0 -28466.16113068 0 1036
0.03250000 0.03246190 53633.30367833 0 638.46783746 0 22673.06696345 0 -7068.55956503 0 -33381.47288233 0 1059
0.03350000 0.03345080 54916.98599181 0 506.31375494 0 22122.94951668 0 -2237.00190197 0 -31745.28376193 0 1302
0.03450000 0.03451200 53892.73789720 0 -704.62131514 0 19017.49493923 0 2087.01789927 0 -30743.29215577 0 1339
0.03550000 0.03553350 55224.08056978 0 -1807.44043429 0 17004.40679981 0 1247.31880836 0 -35169.97282014 0 1365
0.03650000 0.03647120 59631.76453442 0 -2380.43260530 0 15935.42091530 0 7805.91253103 0 -34218.67654878 0 1308
0.03750000 0.03744890 59668.52146231 0 -848.56908840 0 16490.14702887 0 1309.35595975 0 -34864.22712026 0 1579
0.03850000 0.03847530 58670.68889692 0 570.18200833 0 10076.53521934 0 -2306.75013976 0 -30739.02070849 0 1662
0.03950000 0.03950240 57762.66913087 0 2650.34311065 0 15251.53972482 0 -839.53722554 0 -26162.95179590 0 1683
0.04050000 0.04050350 54063.37097530 0 2974.51223709 0 12533.43797156 0 -1044.80387260 0 -27997.42599520 0 1822
0.04150000 0.04152450 51193.52043717 0 2380.35392075 0 14831.25179399 0 3952.63994174 0 -16637.62436646 0 1887
0.04250000 0.04250150 48729.56979693 0 1435.53226420 0 8037.09899461 0 3159.24109120 0 -22705.32763105 0 1920
0.04350000 0.04349210 46661.51487545 0 1256.16520049 0 9287.52022258 0 5462.27057557 0 -16620.31376434 0 2005
0.04450000 0.04448520 46228.41260278 0 1753.90121486 0 7153.61756911 0 1216.44074081 0 -13995.39700564 0 2151
0.04550000 0.04548030 43049.10695003 0 2665.68659890 0 10518.16914591 0 -426.50963101 0 -7364.86311829 0 2274
0.04650000 0.04648670 42672.20793102 0 3317.05982746 0 12884.03386786 0 -4357.17972090 0 -4045.15049726 0 2311
0.04750000 0.04749250 39249.54218994 0 2537.77923423 0 14955.57339108 0 -2128.25984680 0 -1142.88192242 0 2568
0.04850000 0.04851840 39477.39018026 0 1452.10098338 0 20622.77227012 0 -2338.84219760 0 2816.12022764 0 2493
0.04950000 0.04949480 38343.43333451 0 1953.18671167 0 23278.82563135 0 672.06726656 0 2985.96646018 0 2644
0.05050000 0.05050630 37632.12495626 0 1120.23201120 0 25559.66607117 0 2521.25547766 0 8727.83698203 0 2829
0.05150000 0.05149060 35665.23589135 0 477.49722273 0 19679.90648680 0 3628.80803484 0 1999.40826747 0 2784
0.05250000 0.05249300 36536.49872951 0 1095.72177228 0 21961.64617869 0 3298.51275376 0 6178.05273282 0 3055
0.05350000 0.05348950 34430.33800204 0 604.47610964 0 18500.42500560 0 3446.21490436 0 880.05190297 0 3009
0.05450000 0.05448610 34191.02454798 0 463.57567680 0 16632.90329315 0 2233.94444498 0 3893.16565873 0 3336
0.05550000 0.05550870 33205.10707236 0 210.73971990 0 14573.84089225 0 2307.34589425 0 -917.49788275 0 3349
0.05650000 0.05647670 32890.14403888 0 241.53910291 0 12315.59416040 0 1862.92428630 0 -1173.51269566 0 3324
0.05750000 0.05747970 31734.60514373 0 154.78938089 0 7584.74148724 0 2171.33402040 0 -3718.53090897 0 3639
0.05850000 0.05849280 31653.11042593 0 58.04559631 0 6566.15868060 0 3028.92822727 0 -5802.27777888 0 3846
0.05950000 0.05951020 31361.19072645 0 -182.09854184 0 4673.17689425 0 1754.18223113 0 -4451.79227810 0 3787
0.06050000 0.06049470 30624.02885151 0 197.21159675 0 3444.40515959 0 801.92376006 0 -5999.58492116 0 3930
0.06150000 0.06148310 31934.57632024 0 286.76586112 0 5672.50446619 0 -1775.57318947 0 -5771.66948694 0 4083
0.06250000 0.06249100 30774.31635179 0 426.80526013 0 5481.87427044 0 -2969.36401905 0 -4822.54266116 0 4303
0.06350000 0.06350600 32006.96611095 0 315.88476684 0 8436.32194597 0 -3007.41362178 0 -2835.21809323 0 4470
0.06450000 0.06451750 31521.70721889 0 -16.88660478 0 9370.58863148 0 -1501.13270187 0 -4286.06012373 0 4479
0.06550000 0.06550280 32121.95796792 0 511.03145605 0 12208.80797845 0 -579.80400536 0 -2720.09134844 0 4636
0.06650000 0.06648880 31492.59393350 0 392.96415703 0 11670.83043447 0 724.81064792 0 -4799.07218244 0 4653
0.06750000 0.06749660 31722.01561492 0 281.13991543 0 11086.24915255 0 811.93131141 0 -4780.12044531 0 5220
0.06850000 0.06852730 30930.44899044 0 484.14494357 0 10927.12650080 0 -403.87096044 0 -4376.44619625 0 5029
0.06950000 0.06949320 30944.16258433 0 404.36330094 0 10480.22070904 0 805.64891171 0 -5213.49249359 0 5040
0.07050000 0.07048030 30401.01434101 0 724.55773327 0 12069.64872240 0 -588.88757521 0 -2129.44011513 0 5475
0.07150000 0.07148790 29866.97102478 0 560.24190089 0 10115.43911152 0 88.01384560 0 -4380.68392158 0 5509
0.07250000 0.07249820 29665.98818971 0 925.10667923 0 13402.11546005 0 -568.10923233 0 -623.18729685 0 5916
0.07350000 0.07351270 28720.42465022 0 803.75823426 0 12158.56226968 0 564.01538734 0 -1921.15085708 0 5721
0.07450000 0.07449140 28557.09799510 0 616.68233227 0 13225.41243056 0 1173.19795744 0 577.51653293 0 6028
0.07550000 0.07549160 27317.25421947 0 103.40510661 0 11235.06412758 0 2042.76345734 0 -1579.04165209 0 6183
0.07650000 0.07648840 27134.14401906 0 -450.67590602 0 9096.62025121 0 3863.73763511 0 -1178.23376897 0 6330
0.07750000 0.07749960 27364.01532651 0 -394.83460132 0 5887.00980409 0 4416.65400392 0 -2311.22391875 0 6583
0.07850000 0.07848650 26817.15766845 0 161.14709294 0 5184.48037405 0 2576.43583210 0 -1656.10755350 0 6549
0.07950000 0.07947320 25895.87393454 0 940.37485511 0 3471.10170508 0 1172.33242734 0 -1164.50893443 0 6828
0.08050000 0.08048110 25651.50218764 0 1140.95977115 0 2907.61912459 0 5.73880182 0 -45.81846607 0 7147
0.08150000 0.08149960 23990.69604214 0 1340.14410210 0 5544.45097306 0 -1974.45402285 0 1632.41226176 0 7386
0.08250000 0.08250610 23758.57660454 0 1490.12810480 0 5875.82535661 0 -2822.50491725 0 1577.31059187 0 7227
0.08350000 0.08350160 22734.66572946 0 341.93834711 0 9609.44121886 0 -1689.21126990 0 1279.80428898 0 7798
0.08450000 0.08449610 22855.83994434 0 371.32815251 0 9290.17301615 0 -1874.81689477 0 141.97841125 0 7371
0.08550000 0.08548940 22817.84654487 0 -7.77863147 0 9523.38279687 0 -744.46604978 0 -1150.30075191 0 8256
0.08650000 0.08650700 22598.20422958 0 275.63649283 0 8981.62839423 0 605.79238985 0 -1385.79238472 0 8037
0.08750000 0.08749060 22485.34809625 0 174.92251042 0 7948.30909449 0 1498.05276357 0 -2993.67754658 0 8155
0.08850000 0.08849210 22047.29993726 0 106.20459068 0 6849.98511156 0 3172.87600054 0 -1765.49032576 0 8718
0.08950000 0.08949900 22073.94027949 0 182.17497827 0 5266.37975528 0 2868.63654785 0 -1399.10131519 0 8571
0.09050000 0.09049190 21258.31866245 0 169.11783838 0 3925.46004828 0 2142.94013666 0 -1672.84488244 0 8932
0.09150000 0.09150830 21233.58923084 0 269.48673282 0 4210.74776383 0 1340.67241269 0 702.80595004 0 9285
0.09250000 0.09250820 20448.31737078 0 257.14562238 0 2832.99244438 0 802.32392723 0 -65.24084925 0 9204
0.09350000 0.09350330 20646.04041713 0 254.56476897 0 2824.28094007 0 463.27105516 0 885.60253630 0 9349
0.09450000 0.09448040 19799.16979106 0 459.26376318 0 1900.65915080 0 140.25072324 0 -331.87346844 0 9564
0.09550000 0.09549270 19317.05828121 0 616.67671195 0 1843.52292314 0 92.49032234 0 418.60857761 0 10155
0.09650000 0.09649430 18859.78860947 0 568.37675982 0 1239.82129433 0 -5.39028545 0 -1073.03701504 0 9913
0.09750000 0.09749140 17913.43822443 0 594.85636075 0 1365.34564104 0 -128.14341833 0 -579.92090812 0 10476
0.09850000 0.09850240 17931.87289163 0 459.65156563 0 1301.24020992 0 -160.88743391 0 -713.09901392 0 10575
0.09950000 0.09950330 17404.79877885 0 416.65495252 0 2280.53694226 0 -609.13873157 0 228.95519441 0 10882
0.10050000 0.10051200 17444.47827593 0 401.26425353 0 2539.58897900 0 -215.26408182 0 976.40451290 0 10875
0.10150000 0.10150300 17224.49874113 0 136.20296491 0 4088.24715216 0 -804.01564516 0 1732.85871669 0 11118
0.10250000 0.10250800 17228.43296888 0 338.14687562 0 3879.94665347 0 -410.30848111 0 2257.42616435 0 11575
0.10350000 0.10349800 17240.68527818 0 185.73152016 0 5211.08699433 0 -28.22572361 0 1631.49052840 0 11364
0.10450000 0.10450100 16829.61468095 0 283.99616478 0 4295.95189637 0 -129.06852389 0 2099.85472241 0 12093
0.10550000 0.10551000 16776.33399648 0 149.17242772 0 4755.31232914 0 866.28997428 0 1694.71918876 0 12067
0.10650000 0.10649700 16554.10633153 0 67.86542879 0 3514.68170796 0 934.12280518 0 2039.55987188 0 12054
0.10750000 0.10749900 16504.42265530 0 114.75580331 0 3024.83663041 0 1410.66794479 0 1294.95668616 0 12807
0.10850000 0.10850100 16193.16903656 0 172.47429669 0 2592.08281792 0 509.39369324 0 1122.34412947 0 12736
0.10950000 0.10950300 16054.12218702 0 298.89002700 0 2199.86279196 0 78.29405491 0 1201.23214037 0 12933
0.11050000 0.11050200 15728.81775486 0 300.13211891 0 2898.54791945 0 -588.23224527 0 1292.60739016 0 13428
0.11150000 0.11150900 15724.43390108 0 309.82605610 0 3200.86522086 0 -1182.56141950 0 1284.10945821 0 13453
0.11250000 0.11250000 15414.52916042 0 347.13489994 0 4116.68599851 0 -1212.92241713 0 1078.30663210 0 13668
0.11350000 0.11349100 15180.38640570 0 352.55514172 0 4285.45312859 0 -883.84112633 0 788.34505398 0 13791
0.11450000 0.11448600 15036.39366983 0 330.71343329 0 4646.10940729 0 -404.02832955 0 70.60129077 0 14205
0.11550000 0.11549300 14721.88026238 0 211.91774010 0 4915.26678904 0 -49.48213136 0 740.85330464 0 14776
0.11650000 0.11649800 14632.85430859 0 64.07969003 0 4273.07717213 0 954.33237113 0 -45.64828262 0 14553
0.11750000 0.11747300 14674.78193582 0 -155.20078871 0 4748.00590617 0 623.55374207 0 52.94200366 0 14568
0.11850000 0.11849100 14915.89389400 0 -45.27239526 0 3687.59663816 0 207.12135443 0 190.88648258 0 16015
0.11950000 0.11950300 14899.93216996 0 27.96763827 0 4549.82199313 0 -4.49176403 0 -100.90529829 0 15270
0.12050000 0.12050700 14719.40731922 0 223.40231295 0 4219.58291530 0 -336.50012028 0 222.97854042 0 15999
0.12150000 0.12150000 14781.90533728 0 217.67407734 0 4073.72423142 0 -369.35429424 0 -470.89558855 0 15670
0.12250000 0.12250700 14523.81999650 0 121.93295880 0 4387.86669740 0 306.38192071 0 15.88955906 0 16887
0.12350000 0.12352200 14360.49334138 0 255.98783536 0 3763.95437857 0 131.65274949 0 -1131.16916436 0 16407
0.12450000 0.12449800 14119.49378971 0 145.69344632 0 3957.37225570 0 172.55522937 0 -932.86722449 0 16306
0.12550000 0.12549900 13864.89305065 0 176.50631810 0 3396.85720700 0 79.24804894 0 -1366.31233700 0 17523
0.12650000 0.12650100 13733.93946963 0 199.29898559 0 3496.11215296 0 298.90239172 0 -780.64183603 0 17154
0.12750000 0.12750600 13590.95839233 0 134.27631737 0 3472.51802707 0 139.32224549 0 -887.98443019 0 18007
0.12850000 0.12850300 13495.63767414 0 139.83481916 0 3542.32246811 0 141.46471351 0 -741.22649424 0 17496
0.12950000 0.12949900 13692.46146843 0 90.84334220 0 3938.53292508 0 467.55374309 0 -573.28217980 0 18405
0.13050000 0.13049000 13513.51030880 0 191.85542668 0 3402.10659089 0 -142.21896118 0 -297.61084095 0 18100
0.13150000 0.13148800 13417.29033854 0 167.57674516 0 3784.71586047 0 294.67253485 0 298.51796146 0 19059
0.13250000 0.13249300 13075.91177584 0 263.70341802 0 3780.39945059 0 83.79837676 0 -209.51111678 0 18957
0.13350000 0.13349100 12949.11723559 0 360.94179123 0 3612.98119861 0 362.79987080 0 723.23133649 0 19468
0.13450000 0.13450700 12497.80510875 0 397.93702092 0 3568.97405099 0 202.63408666 0 -135.19805073 0 19953
0.13550000 0.13551000 12211.95536066 0 430.50680641 0 3654.95378844 0 -41.80364285 0 227.78167048 0 19956
0.13650000 0.13649900 11968.14564630 0 428.40143253 0 3865.99700591 0 -296.26758319 0 69.12381964 0 19723
0.13750000 0.13749600 11659.14015771 0 242.56874651 0 4074.88201844 0 -200.70294287 0 -54.35023238 0 20946
0.13850000 0.13851100 11472.99498160 0 133.57827296 0 4270.58174767 0 -210.57560640 0 237.00687253 0 20955
0.13950000 0.13949800 11559.54799223 0 6.45720305 0 3859.36502198 0 -57.82089570 0 62.29444988 0 20506
0.14050000 0.14048300 11540.77610551 0 -28.54360921 0 4111.83003740 0 404.80505851 0 5.86670919 0 21447
0.14150000 0.14148400 11632.72462849 0 58.27198302 0 3727.18621003 0 367.43551516 0 -324.08257342 0 21771
0.14250000 0.14249400 11247.39512143 0 74.29305769 0 3625.42459897 0 507.34452261 0 -17.61432451 0 22470
0.14350000 0.14350900 11316.07549740 0 29.49524271 0 3498.78742783 0 467.66502553 0 67.68512875 0 22519
0.14450000 0.14449900 11200.87006805 0 25.22098526 0 2916.51047931 0 223.27641766 0 158.75845466 0 22218
0.14550000 0.14550500 11263.46925198 0 -21.12309363 0 3213.09504885 0 263.83268550 0 483.13778126 0 23559
0.14650000 0.14650700 11300.67580589 0 -31.42987110 0 2984.05554956 0 2.28820307 0 14.98468668 0 23044
0.14750000 0.14750500 11333.83572555 0 39.45974236 0 2805.61021920 0 82.82988229 0 190.45596566 0 23649
0.14850000 0.14849900 11390.37619873 0 136.17261515 0 2681.85065465 0 33.72498717 0 125.73229875 0 23640
0.14950000 0.14949500 11117.12722011 0 154.99620886 0 2542.21929127 0 187.32656850 0 -119.84781809 0 24457
0.15050000 0.15050000 11044.33276597 0 175.40023807 0 2360.17695268 0 419.02560575 0 -58.74735013 0 24591
0.15150000 0.15149900 10776.45681840 0 230.52551332 0 1764.24261353 0 220.35609660 0 -396.39255551 0 25020
0.15250000 0.15250500 10520.92310534 0 216.69052040 0 2006.62476524 0 232.90965534 0 -840.61745207 0 25297
0.15350000 0.15350100 10323.11013377 0 286.53430372 0 1758.10521823 0 65.55783560 0 -555.02061862 0 25452
0.15450000 0.15450400 10015.16126635 0 298.52020959 0 1918.53178546 0 -190.50879672 0 -767.55434638 0 26061
0.15550000 0.15549900 9935.25148030 0 155.86398710 0 2217.24083799 0 -342.39134533 0 -289.24330054 0 26128
0.15650000 0.15649500 9903.63152979 0 92.43108412 0 2468.10968100 0 -271.75059988 0 -207.29221233 0 26331
0.15750000 0.15749700 9956.94593621 0 65.21207318 0 2614.42923157 0 -161.15496140 0 -130.26115693 0 27345
0.15850000 0.15849900 9876.59776479 0 75.65216477 0 2832.93624113 0 12.82187307 0 20.61153162 0 26980
0.15950000 0.15949700 9905.68856888 0 97.32189125 0 2713.43688321 0 190.51778924 0 7.30134220 0 27777
0.16050000 0.16050000 9661.86761387 0 147.81792931 0 2843.36756501 0 192.11058945 0 96.95151181 0 28224
0.16150000 0.16150500 9594.17641517 0 130.45786832 0 2413.31150869 0 258.19100290 0 -340.63443162 0 28075
0.16250000 0.16249700 9362.30427189 0 154.50049617 0 2304.09734619 0 333.36060653 0 -135.28010748 0 28590
0.16350000 0.16349900 9295.02897727 0 155.63580189 0 2147.90850428 0 132.35753829 0 66.88850383 0 29163
0.16450000 0.16449100 9111.98622076 0 71.51459364 0 1834.12573913 0 216.62982089 0 -171.76838382 0 28996
0.16550000 0.16550500 9007.78538849 0 155.92468661 0 2100.40551429 0 134.28081363 0 -71.67185035 0 30777
0.16650000 0.16650700 8956.70787156 0 206.99433508 0 1971.95859839 0 -197.48924082 0 -54.40205178 0 29211
0.16750000 0.16749900 8737.53766361 0 192.19601839 0 2321.03700684 0 39.81416008 0 199.32708722 0 30922
0.16850000 0.16850800 8753.54435025 0 94.49464278 0 2510.17219604 0 -183.60254091 0 456.41763041 0 30867
0.16950000 0.16949900 8662.64120779 0 83.07571532 0 2628.61493279 0 15.03437035 0 359.25906582 0 30852
0.17050000 0.17049200 8699.02719421 0 57.54201516 0 2856.69897677 0 32.46817001 0 546.15174520 0 31257
0.17150000 0.17149500 8581.13524934 0 112.15662764 0 2704.33195612 0 8.73889778 0 444.53626259 0 32608
0.17250000 0.17250900 8566.42123753 0 42.35578361 0 2427.54217252 0 390.77897453 0 735.89730173 0 32361
0.17350000 0.17350400 8519.46903943 0 2.05308237 0 2467.79494278 0 424.29297469 0 841.51445600 0 32508
0.17450000 0.17449800 8487.60179461 0 -50.38385637 0 2042.07777765 0 365.76515446 0 526.94934155 0 32791
0.17550000 0.17549800 8666.12580952 0 -38.45887482 0 2141.36644556 0 458.55110592 0 874.82949664 0 33633
0.17650000 0.17650100 8493.57058015 0 -9.15512784 0 1703.00354835 0 -20.44292186 0 675.06402404 0 33984
0.17750000 0.17750300 8724.93689414 0 -0.54832794 0 1732.65638498 0 177.25382138 0 1062.95639947 0 34069
