### header ###
fiducial parameters:
Omega_m = 0.31
Omega_nu = 0
Omega_de = 0.69
Omega_k = 0
H_0 = 100
w_de = -1
zeff = 0
beta = 0
fgrowth = 0
b_1 = 2
gamma = 0.55
Lx = 3500 Ly = 3500 Lz = 3500
nx = 700 ny = 700 nz = 700
xoffset = 857.220397 yoffset = 15.9954215 zoffset = 262.898189
bins = 400 dk = 0.001
kx_ny = 0.628318531 ky_ny = 0.628318531 kz_ny = 0.628318531
############################
A(data) = 3.07541827 (not used)
A(ran) = 3.07820654 (used)
Ngal = 187966
weighted Ngal = 0
Nran = 9360983
weighted Nran = 0
SN(data) = 3431.83054
SN(ran) = 69.1249504
SN(data+ran) = 3500.95549
############################
13 columns: k_central k_mean P_0(k) sigma^{lin}_{P_0(k)} P^img_1(k) sigma^{lin}_{P_1(k)} P_2(k) sigma^{lin}_{P_2(k)} P^img_3(k) sigma^{lin}_{P_3(k)} P_4(k) sigma^{lin}_{P_4(k)} N_modes
### header ###
0.00050000 0 0 0 0 0 0 0 0 0 0 0 0
0.00150000 0.00179520 8865.62487869 0 -13782.94870682 0 -1465.33122929 0 29551.10873924 0 25875.19113719 0 3
0.00250000 0.00253879 18271.67776323 0 -17230.11906649 0 -8915.28607362 0 3650.52497205 0 -2288.43911972 0 6
0.00350000 0.00331552 31102.09372710 0 -21814.73087363 0 -8709.66084980 0 4253.39479270 0 -3086.71641268 0 7
0.00450000 0.00420575 43926.77695910 0 -23365.04142245 0 -20712.02303692 0 11204.09613481 0 -10341.00524974 0 24
0.00550000 0.00557378 69999.12911012 0 -26121.58620121 0 -38069.49867620 0 19575.14362199 0 13787.44496711 0 45
0.00650000 0.00659388 73178.88438890 0 -18248.52202272 0 -34583.32325849 0 -24456.73342145 0 -45517.77866357 0 40
0.00750000 0.00754703 94585.35482798 0 -10961.70274245 0 -43556.95955005 0 -15962.28607054 0 13116.82774450 0 57
0.00850000 0.00846663 93976.89840391 0 -1015.85020445 0 -37914.26528960 0 -32903.52041325 0 -11765.58912013 0 75
0.00950000 0.00948925 91358.16400312 0 17353.87863104 0 -33585.94031913 0 -41992.37337481 0 12818.05124807 0 112
0.01050000 0.01054430 70806.09542609 0 18055.18283015 0 -16562.08719355 0 -35755.94794275 0 -7827.64070889 0 105
0.01150000 0.01145670 59484.84922936 0 17461.90128457 0 -8593.84842532 0 -23752.61905966 0 2131.51963551 0 144
0.01250000 0.01249090 47193.64728105 0 6808.77688598 0 -9144.35929487 0 -1796.08737705 0 -8667.47468760 0 169
0.01350000 0.01339930 49593.86343164 0 -1375.65331776 0 -13999.66845291 0 468.95208004 0 1516.39750556 0 180
0.01450000 0.01448870 47863.02803208 0 -5355.66424403 0 -8037.81839626 0 1324.08121221 0 -9131.28641807 0 267
0.01550000 0.01550050 61689.70287025 0 -8558.50781942 0 -10809.26827789 0 -4441.84430221 0 -4898.81047637 0 238
0.01650000 0.01653350 60482.34457523 0 -4611.78045996 0 -1455.54062251 0 -5296.40353338 0 7743.71801053 0 315
0.01750000 0.01747870 68823.80666968 0 -4295.82824921 0 8836.03948597 0 -3021.77917341 0 11133.94323360 0 297
0.01850000 0.01844180 72129.90686268 0 -1748.25840819 0 14886.66820210 0 1169.62343051 0 19355.95093274 0 388
0.01950000 0.01947590 74573.39951859 0 1003.87441516 0 20569.82880518 0 10311.52102287 0 18475.02113495 0 399
0.02050000 0.02045430 74630.72683731 0 4877.04857656 0 29772.21233912 0 6489.75597759 0 31729.99647693 0 462
0.02150000 0.02154770 72789.62065408 0 3269.59055942 0 26427.33190110 0 6298.91220947 0 38877.36424424 0 571
0.02250000 0.02255340 65620.67083738 0 3514.86155838 0 28655.67850201 0 14348.80306462 0 32178.49844110 0 510
0.02350000 0.02348930 73658.18573607 0 -2969.08300278 0 42467.06605518 0 10633.53194436 0 53750.76847847 0 555
0.02450000 0.02439640 70317.68915183 0 -2501.50565433 0 24362.19954880 0 13666.15834572 0 36899.57174812 0 592
0.02550000 0.02547300 79727.23787874 0 784.43218346 0 45363.33212252 0 4417.96916006 0 53827.20490344 0 837
0.02650000 0.02652900 73867.37424617 0 2989.00143588 0 33546.26082205 0 -3917.54663016 0 36405.88236801 0 723
0.02750000 0.02749970 74028.78999067 0 7644.50802718 0 55335.70023154 0 1713.98566411 0 56080.28093596 0 826
0.02850000 0.02848090 67434.91186536 0 5347.77330722 0 52367.94362554 0 -4837.66133640 0 34052.87695049 0 831
0.02950000 0.02946900 68160.94549608 0 2993.18295795 0 60661.85776740 0 6420.54729103 0 39906.67063167 0 996
0.03050000 0.03053250 64613.39612538 0 1995.60892753 0 60602.39472504 0 4124.55445402 0 25429.49933571 0 1041
0.03150000 0.03150510 63145.92917245 0 1112.77046724 0 54024.36591726 0 8699.89272431 0 20586.80218778 0 1036
0.03250000 0.03246190 59309.71989097 0 1574.41050399 0 42476.05857576 0 14165.01842517 0 21872.17059887 0 1059
0.03350000 0.03345080 58953.72848232 0 3570.10935672 0 34741.70402729 0 15940.81642765 0 14615.99333249 0 1302
0.03450000 0.03451200 51665.40295485 0 2156.26030777 0 21462.67369274 0 15941.94049272 0 13168.08511183 0 1339
0.03550000 0.03553350 50988.37856133 0 1606.69365288 0 17475.39006544 0 11453.77346885 0 12131.69711444 0 1365
0.03650000 0.03647120 48541.62611671 0 1415.55762786 0 7575.11949022 0 1690.73999840 0 11711.40918361 0 1308
0.03750000 0.03744890 47000.19568197 0 411.48200505 0 11531.55877191 0 -3439.92013995 0 9663.57619278 0 1579
0.03850000 0.03847530 45808.34948496 0 1256.65978912 0 10405.68395404 0 -6430.73132060 0 3651.86260948 0 1662
0.03950000 0.03950240 45662.33343197 0 814.97527962 0 14755.48980806 0 -5353.12385697 0 1567.57618834 0 1683
0.04050000 0.04050350 45706.95881537 0 -352.05156057 0 13034.65858766 0 -1614.43846124 0 -2194.66961132 0 1822
0.04150000 0.04152450 46350.37366321 0 -1003.81371564 0 17361.07264751 0 966.44642042 0 -4767.32858477 0 1887
0.04250000 0.04250150 48611.99259029 0 -2239.36243863 0 12702.72217157 0 1155.28036018 0 -6496.56781193 0 1920
0.04350000 0.04349210 50006.73253299 0 -1474.41367508 0 15616.97328009 0 2033.90582457 0 -5732.85551996 0 2005
0.04450000 0.04448520 51682.82596349 0 111.08303309 0 13632.66120655 0 -506.31712714 0 -8917.75901678 0 2151
0.04550000 0.04548030 50672.40386928 0 1770.21139907 0 17946.14851806 0 -1776.38251632 0 -4280.29366990 0 2274
0.04650000 0.04648670 50321.02112743 0 3330.93079046 0 24035.99586459 0 -4285.45312859 0 243.06670734 0 2311
0.04750000 0.04749250 46459.85760133 0 4177.02581164 0 24196.17513750 0 -2383.82728182 0 -748.14623883 0 2568
0.04850000 0.04851840 44593.23514094 0 3758.44645972 0 29575.27613831 0 -2019.27049732 0 1450.65093944 0 2493
0.04950000 0.04949480 41216.09403533 0 2663.09000858 0 26838.96453087 0 3186.44346597 0 2542.61271405 0 2644
0.05050000 0.05050630 40202.29974590 0 1463.86994470 0 28241.46052257 0 5443.07154412 0 4691.11697282 0 2829
0.05150000 0.05149060 38956.04879935 0 742.64843656 0 23922.12807268 0 6696.90992991 0 2654.88433355 0 2784
0.05250000 0.05249300 37174.96769103 0 941.86873760 0 22147.00450924 0 5470.45376930 0 683.75417112 0 3055
0.05350000 0.05348950 34518.46470377 0 1498.49114895 0 16954.49831057 0 3219.60338562 0 -3298.78252937 0 3009
0.05450000 0.05448610 33775.23287744 0 1498.40122374 0 17879.37905271 0 1124.93060321 0 1124.90812190 0 3336
0.05550000 0.05550870 32544.94365493 0 1066.11727045 0 14379.71485413 0 -943.77740009 0 -3927.55080931 0 3349
0.05650000 0.05647670 32279.43948467 0 526.18385324 0 16310.18421067 0 454.79110825 0 -2075.06908754 0 3324
0.05750000 0.05747970 32368.24062544 0 -248.63757384 0 14765.71880023 0 -1483.17014200 0 -4316.72461892 0 3639
0.05850000 0.05849280 33695.98628978 0 -881.67168074 0 16523.41935504 0 56.85307567 0 -5145.68888838 0 3846
0.05950000 0.05951020 34459.22647442 0 -365.67635332 0 16012.41937280 0 1025.60259302 0 -2454.86819444 0 3787
0.06050000 0.06049470 34669.53904960 0 -373.04235174 0 15348.77135365 0 398.13485637 0 -5752.35804898 0 3930
0.06150000 0.06148310 35121.75042850 0 -110.40252410 0 16954.61071708 0 1020.36444978 0 -1862.35101311 0 4083
0.06250000 0.06249100 35046.55047511 0 624.79808210 0 15741.40728368 0 1650.49846878 0 -3773.01434306 0 4303
0.06350000 0.06350600 33791.53182100 0 927.12662416 0 15762.76452007 0 533.82187541 0 -1497.90663511 0 4470
0.06450000 0.06451750 32754.58179106 0 603.89384394 0 15921.59491490 0 1941.42899100 0 -1391.08673121 0 4479
0.06550000 0.06550280 31536.43247135 0 509.29252738 0 12549.62450862 0 1274.19520426 0 -2978.78368436 0 4636
0.06650000 0.06648880 32296.97489981 0 205.99166904 0 13994.04812755 0 1911.57382266 0 -110.65004323 0 4653
0.06750000 0.06749660 31344.77937638 0 212.32015540 0 11022.13248078 0 523.60299983 0 -3957.61955002 0 5220
0.06850000 0.06852730 31441.67378568 0 796.97450154 0 12325.37352653 0 837.81740597 0 452.60592575 0 5029
0.06950000 0.06949320 29702.96993061 0 802.29582560 0 8893.81643072 0 286.45337103 0 -4426.92795869 0 5040
0.07050000 0.07048030 29975.66811735 0 985.56339512 0 11447.14148492 0 -93.27514458 0 1027.35501047 0 5475
0.07150000 0.07148790 28846.09512539 0 655.77394332 0 9992.74740879 0 -261.38334771 0 -4575.22586378 0 5509
0.07250000 0.07249820 28492.46425339 0 540.74836439 0 10809.65046001 0 -638.06654622 0 -2679.62500581 0 5916
0.07350000 0.07351270 28309.91608552 0 475.43456332 0 11069.95020899 0 -777.18646000 0 -5206.80430640 0 5721
0.07450000 0.07449140 27430.67238534 0 552.84667677 0 11495.13906354 0 -1411.66836270 0 -4071.66719233 0 6028
0.07550000 0.07549160 27714.27400329 0 735.80850059 0 11601.92524549 0 -541.27555091 0 -5851.03972175 0 6183
0.07650000 0.07648840 26574.24720615 0 383.31743058 0 11549.20659356 0 1718.43696180 0 -5908.72674130 0 6330
0.07750000 0.07749960 26434.86313709 0 417.44067400 0 10605.90242486 0 1295.91214147 0 -4716.16114265 0 6583
0.07850000 0.07848650 26321.10775169 0 -82.25301210 0 9868.36960845 0 1804.45042120 0 -5584.10798884 0 6549
0.07950000 0.07947320 26424.63414492 0 -23.02860875 0 10858.41240288 0 1252.23097273 0 -4278.82114466 0 6828
0.08050000 0.08048110 26370.45420840 0 -147.72125971 0 9552.41739770 0 204.94853665 0 -5746.82764882 0 7147
0.08150000 0.08149960 26292.21927931 0 622.28804479 0 10677.06698464 0 -819.97624513 0 -3119.75268518 0 7386
0.08250000 0.08250610 25777.95950837 0 755.34137937 0 11295.95473259 0 -159.53293550 0 -2741.32493767 0 7227
0.08350000 0.08350160 24854.54005082 0 1307.18651416 0 10631.84584675 0 158.06715464 0 -3541.23212499 0 7798
0.08450000 0.08449610 24208.09022728 0 1388.86108237 0 11731.97957444 0 861.17210600 0 -863.24150980 0 7371
0.08550000 0.08548940 22749.05376239 0 1192.08225067 0 9777.39902208 0 1327.95923671 0 -3225.72954027 0 8256
0.08650000 0.08650700 21652.64069009 0 722.47034443 0 10649.15644888 0 1408.83571872 0 -1688.48062760 0 8037
0.08750000 0.08749060 21298.33537905 0 410.93570942 0 9455.53422905 0 1031.65905563 0 -2448.28117311 0 8155
0.08850000 0.08849210 20949.87520639 0 190.16146061 0 9882.65647553 0 689.31604510 0 -1454.29291027 0 8718
0.08950000 0.08949900 21010.12509431 0 -94.74013859 0 9504.40857843 0 379.45739112 0 -1010.55360982 0 8571
0.09050000 0.09049190 21029.45901357 0 -145.95647755 0 9188.33272053 0 459.88199897 0 -1573.67986169 0 8932
0.09150000 0.09150830 21280.57515090 0 -186.40933140 0 8186.71205584 0 697.74653315 0 -1044.86457211 0 9285
0.09250000 0.09250820 21295.75002938 0 1.94641984 0 8369.27146436 0 518.19737089 0 -1157.32615861 0 9204
0.09350000 0.09350330 21449.07250536 0 80.94909661 0 7559.11280358 0 748.86676454 0 -1169.53350531 0 9349
0.09450000 0.09448040 20977.75202020 0 289.98293536 0 7549.79430412 0 -39.54112467 0 -2643.53127631 0 9564
0.09550000 0.09549270 20602.87631833 0 397.86395669 0 6664.84035337 0 -273.94027864 0 -2712.45894659 0 10155
0.09650000 0.09649430 19940.68958376 0 672.07850721 0 7125.97680896 0 -402.34223194 0 -3167.96383617 0 9913
0.09750000 0.09749140 19468.58225306 0 730.09487782 0 6560.93177801 0 -506.49697755 0 -2561.93539266 0 10476
0.09850000 0.09850240 18792.45711159 0 740.61837504 0 7093.27775598 0 270.22187138 0 -3612.82382950 0 10575
0.09950000 0.09950330 18384.98352259 0 591.58870358 0 7522.40083829 0 200.71755571 0 -2311.67354478 0 10882
0.10050000 0.10051200 18122.85154755 0 384.94170461 0 7696.22626119 0 331.22038663 0 -2581.43792167 0 10875
0.10150000 0.10150300 17722.45956851 0 393.91736422 0 7473.97611494 0 338.54029839 0 -1799.69562594 0 11118
0.10250000 0.10250800 17612.86322388 0 398.15846174 0 8161.75781122 0 787.80437868 0 -286.28251314 0 11575
0.10350000 0.10349800 17194.93582970 0 115.70114204 0 7227.00777773 0 876.50772579 0 -897.86158998 0 11364
0.10450000 0.10450100 17279.57792971 0 12.01468194 0 7209.06769916 0 1604.79398291 0 1269.35048380 0 12093
0.10550000 0.10551000 17280.13996225 0 51.01322040 0 6806.66364364 0 1456.82205669 0 208.42976618 0 12067
0.10650000 0.10649700 17047.57089862 0 201.63029655 0 6004.60949204 0 1033.18553600 0 480.50072460 0 12054
0.10750000 0.10749900 16786.33817563 0 301.46638415 0 5943.66268377 0 344.51470425 0 559.77091762 0 12807
0.10850000 0.10850100 16353.23590297 0 210.16532265 0 5198.14900534 0 -144.05006318 0 621.38991680 0 12736
0.10950000 0.10950300 16271.62877866 0 191.38781561 0 5075.67087498 0 -181.66240459 0 823.10339417 0 12933
0.11050000 0.11050200 16301.97853563 0 -45.13975558 0 5222.69858654 0 -380.38699293 0 342.72182046 0 13428
0.11150000 0.11150900 16239.25570456 0 140.42944958 0 5689.48908944 0 348.22749119 0 436.34857260 0 13453
0.11250000 0.11250000 16195.97919924 0 185.52469218 0 5523.34103099 0 -201.29644923 0 -704.69325530 0 13668
0.11350000 0.11349100 15764.22580466 0 370.53905883 0 5617.94234754 0 11.19892544 0 323.90721927 0 13791
0.11450000 0.11448600 15509.73747211 0 529.73702293 0 5257.43219730 0 -116.09456481 0 -492.36747958 0 14205
0.11550000 0.11549300 15001.54765257 0 532.38194805 0 5882.42361859 0 189.22286628 0 595.82418078 0 14776
0.11650000 0.11649800 14753.69130395 0 534.75260129 0 5860.69544073 0 302.04527766 0 326.70276911 0 14553
0.11750000 0.11747300 14084.19814641 0 413.20744494 0 5757.67487678 0 319.60654630 0 520.74225422 0 14568
0.11850000 0.11849100 14059.58112131 0 451.96296053 0 5949.05819612 0 99.46593297 0 1186.30455620 0 16015
0.11950000 0.11950300 13437.86072938 0 343.99201400 0 5847.75745174 0 162.24755265 0 634.16604042 0 15270
0.12050000 0.12050700 13418.63921663 0 330.18737083 0 6410.21713301 0 189.95126044 0 2031.46660336 0 15999
0.12150000 0.12150000 13184.27164889 0 85.57653530 0 6018.77271196 0 757.06232299 0 1514.43039168 0 15670
0.12250000 0.12250700 13158.30574570 0 -60.81180805 0 6173.60143513 0 1236.66267147 0 2331.52453397 0 16887
0.12350000 0.12352200 13284.65065991 0 -293.68672978 0 5156.78341065 0 1146.54637456 0 2162.49886893 0 16407
0.12450000 0.12449800 13380.75822366 0 -194.13053438 0 4264.64668408 0 1009.64086898 0 1874.25486223 0 16306
0.12550000 0.12549900 13625.69200309 0 -190.43573249 0 4016.73413221 0 597.86997921 0 1737.59103065 0 17523
0.12650000 0.12650100 13624.11831199 0 9.56918845 0 3623.80594526 0 -290.26844789 0 1712.02979089 0 17154
0.12750000 0.12750600 13632.54880004 0 206.31539978 0 3387.24645063 0 -387.69566404 0 1078.55167829 0 18007
0.12850000 0.12850300 13337.81893787 0 388.76914618 0 3882.86922266 0 -924.27037481 0 824.19261322 0 17496
0.12950000 0.12949900 12997.56444025 0 453.26350382 0 4422.12820083 0 -496.07239806 0 575.79896150 0 18405
0.13050000 0.13049000 12840.19533001 0 399.18922941 0 4530.80281209 0 -59.48035297 0 380.76580286 0 18100
0.13150000 0.13148800 12499.04158033 0 239.35954073 0 4672.90711863 0 269.29564176 0 651.23047230 0 19059
0.13250000 0.13249300 12115.17335786 0 237.40928783 0 4709.95630344 0 240.67919313 0 -213.77244747 0 18957
0.13350000 0.13349100 12096.73869066 0 104.39372184 0 4744.43137924 0 222.75372741 0 337.23301071 0 19468
0.13450000 0.13450700 11914.97736834 0 187.91670266 0 4399.02866357 0 -79.69981069 0 -207.62493559 0 19953
0.13550000 0.13551000 11951.05985719 0 113.85093093 0 4395.15063907 0 -20.79913808 0 624.46648290 0 19956
0.13650000 0.13649900 11777.39180340 0 -143.14856299 0 4311.77873260 0 225.22442244 0 316.37036295 0 19723
0.13750000 0.13749600 12001.30556596 0 -132.40587309 0 4013.55302806 0 584.28677687 0 228.13575098 0 20946
0.13850000 0.13851100 12074.03257619 0 -70.54283939 0 3688.65325933 0 796.51813112 0 667.84527814 0 20955
0.13950000 0.13949800 12079.09086902 0 118.54839887 0 3370.18314282 0 551.13135347 0 534.70426649 0 20506
0.14050000 0.14048300 11933.63684856 0 212.47640044 0 3535.97150045 0 198.16030767 0 1181.45983573 0 21447
0.14150000 0.14148400 11742.43337962 0 286.94571154 0 3354.36754724 0 20.38323400 0 956.33320696 0 21771
0.14250000 0.14249400 11619.91028665 0 221.91405080 0 3397.68901516 0 218.67561932 0 1402.67584212 0 22470
0.14350000 0.14350900 11332.14962794 0 69.89897491 0 3149.02333968 0 402.04547876 0 1312.27852894 0 22519
0.14450000 0.14449900 11463.44042848 0 70.31723953 0 3208.07047797 0 276.19402911 0 1618.94596218 0 22218
0.14550000 0.14550500 11100.60346353 0 152.03766959 0 2972.75869557 0 306.88212967 0 1467.73672855 0 23559
0.14650000 0.14650700 11146.40911526 0 229.47001622 0 3030.87285985 0 -79.33752452 0 748.80831316 0 23044
0.14750000 0.14750500 10855.24253938 0 176.72663486 0 2914.71197520 0 -104.35134459 0 1478.10060852 0 23649
0.14850000 0.14849900 10738.24984657 0 146.96363985 0 2856.14818489 0 -116.77912044 0 834.79479499 0 23640
0.14950000 0.14949500 10723.19861524 0 41.77497919 0 3126.72188863 0 -106.47380426 0 891.72419468 0 24457
0.15050000 0.15050000 10678.13484646 0 94.05445889 0 3052.45490925 0 50.01617468 0 411.58541904 0 24591
0.15150000 0.15149900 10597.30332705 0 225.24015935 0 3090.45954938 0 -246.13428093 0 488.92896452 0 25020
0.15250000 0.15250500 10395.02781715 0 407.15210639 0 3421.13701258 0 -350.83194996 0 511.31359639 0 25297
0.15350000 0.15350100 10069.15011181 0 380.70735148 0 3422.15991180 0 -170.71176265 0 758.61915312 0 25452
0.15450000 0.15450400 9786.56015243 0 291.27448613 0 3695.70114734 0 -185.23693153 0 637.09198181 0 26061
0.15550000 0.15549900 9768.40650150 0 62.34503281 0 3793.06766397 0 -67.62532849 0 861.58576194 0 26128
0.15650000 0.15649500 9678.75107127 0 29.79368198 0 4037.29328240 0 335.05682073 0 823.40801580 0 26331
0.15750000 0.15749700 9641.30846368 0 33.42632308 0 3646.01747110 0 300.00397549 0 880.83762445 0 27345
0.15850000 0.15849900 9743.90188291 0 -20.58983716 0 3925.62865804 0 512.99294961 0 1308.63655810 0 26980
0.15950000 0.15949700 9649.42421351 0 250.18428738 0 3454.90392738 0 454.15488742 0 998.95438233 0 27777
0.16050000 0.16050000 9302.02066202 0 330.21772059 0 3382.33428626 0 241.55259169 0 945.94796975 0 28224
0.16150000 0.16150500 8953.50428611 0 386.69187393 0 3125.32804794 0 132.40362496 0 964.59508524 0 28075
0.16250000 0.16249700 8771.20341255 0 263.42352582 0 2939.78986698 0 189.10259131 0 968.97781496 0 28590
0.16350000 0.16349900 8507.93613178 0 89.50851493 0 2719.47311265 0 195.61879654 0 1023.95583769 0 29163
0.16450000 0.16449100 8526.62933395 0 -108.06109655 0 2778.02566231 0 426.21175377 0 833.27393495 0 28996
0.16550000 0.16550500 8664.48467451 0 -134.30666713 0 2360.36804375 0 475.43681145 0 1247.45369617 0 30777
0.16650000 0.16650700 8683.82983442 0 -53.70917807 0 2287.40497985 0 438.18192273 0 1027.20326169 0 29211
0.16750000 0.16749900 8774.22714760 0 48.27792045 0 2278.40121862 0 335.62110140 0 1685.90651859 0 30922
0.16850000 0.16850800 8664.66452492 0 142.92262591 0 2396.77651146 0 291.54538581 0 1757.62187025 0 30867
0.16950000 0.16949900 8614.54246331 0 171.15127210 0 2314.77596438 0 93.08911181 0 2411.27695091 0 30852
0.17050000 0.17049200 8530.92326252 0 113.72278751 0 2476.82118532 0 18.31383020 0 2518.59144344 0 31257
0.17150000 0.17149500 8382.28813791 0 61.72308760 0 2534.69929593 0 -74.61690084 0 2348.68900764 0 32608
0.17250000 0.17250900 8473.15755842 0 41.02005709 0 2603.82929793 0 150.84391248 0 2554.39291601 0 32361
0.17350000 0.17350400 8319.01451494 0 53.69153025 0 2494.41280371 0 -139.58527671 0 2243.16177858 0 32508
0.17450000 0.17449800 8374.37471979 0 49.52900488 0 2512.09434731 0 55.02309773 0 2374.78979864 0 32791
0.17550000 0.17549800 8224.39071709 0 61.96768416 0 2536.63268786 0 70.76888887 0 2137.07251698 0 33633
0.17650000 0.17650100 8224.03101627 0 149.77380253 0 2187.61048266 0 186.36436879 0 2330.51287541 0 33984
0.17750000 0.17750300 8224.36823579 0 72.98801814 0 2218.99437950 0 142.47075176 0 1831.25937319 0 34069
