### header ###
fiducial parameters:
Omega_m = 0.31
Omega_nu = 0
Omega_de = 0.69
Omega_k = 0
H_0 = 100
w_de = -1
zeff = 0
beta = 0
fgrowth = 0
b_1 = 2
gamma = 0.55
Lx = 3500 Ly = 3500 Lz = 3500
nx = 700 ny = 700 nz = 700
xoffset = 857.220397 yoffset = 15.9954215 zoffset = 262.898189
bins = 400 dk = 0.001
kx_ny = 0.628318531 ky_ny = 0.628318531 kz_ny = 0.628318531
############################
A(data) = 3.04837137 (not used)
A(ran) = 3.04871562 (used)
Ngal = 186256
weighted Ngal = 0
Nran = 9360983
weighted Nran = 0
SN(data) = 3442.81383
SN(ran) = 68.4626953
SN(data+ran) = 3511.27653
############################
13 columns: k_central k_mean P_0(k) sigma^{lin}_{P_0(k)} P^img_1(k) sigma^{lin}_{P_1(k)} P_2(k) sigma^{lin}_{P_2(k)} P^img_3(k) sigma^{lin}_{P_3(k)} P_4(k) sigma^{lin}_{P_4(k)} N_modes
### header ###
0.00050000 0 0 0 0 0 0 0 0 0 0 0 0
0.00150000 0.00179520 41935.83290163 0 -52266.10332992 0 -41971.12854493 0 89116.10380831 0 -24031.94923032 0 3
0.00250000 0.00253879 67262.14306363 0 -41561.85645181 0 -161.99126581 0 -78257.29798265 0 -1141.88150451 0 6
0.00350000 0.00331552 80909.30470962 0 -10603.54188821 0 -27634.80260262 0 -22323.93235175 0 31782.60272236 0 7
0.00450000 0.00420575 78107.68492142 0 16069.29706550 0 -5634.92697080 0 -44588.51406764 0 26470.38359340 0 24
0.00550000 0.00557378 47427.90244229 0 27097.94912371 0 12389.22042268 0 -16874.68969038 0 35133.21589225 0 45
0.00650000 0.00659388 27779.80699705 0 8520.69427036 0 25092.16740727 0 28587.67256509 0 823.21355254 0 40
0.00750000 0.00754703 30791.28973439 0 -10636.62312331 0 35238.65319611 0 12931.46941395 0 -524.09871253 0 57
0.00850000 0.00846663 46705.46581980 0 -19232.52858771 0 31501.58645408 0 13354.56750746 0 -2074.72062737 0 75
0.00950000 0.00948925 61171.39646504 0 -12626.06093359 0 43925.99011355 0 -519.80815614 0 16939.88546462 0 112
0.01050000 0.01054430 88897.24833858 0 -12989.80839124 0 61685.88104900 0 -29535.14701520 0 8386.76191690 0 105
0.01150000 0.01145670 93523.11333390 0 -784.40408183 0 69141.35505283 0 -9772.50933902 0 13091.08665433 0 144
0.01250000 0.01249090 104954.29309479 0 1891.19452289 0 91117.16445144 0 -15642.71437026 0 5127.27670248 0 169
0.01350000 0.01339930 97254.22253104 0 6613.11087871 0 91286.44865145 0 1402.01264372 0 4208.16241416 0 180
0.01450000 0.01448870 105701.79636840 0 9327.27840421 0 121805.93945117 0 13867.25358730 0 15641.36549217 0 267
0.01550000 0.01550050 97387.31183570 0 14778.08351603 0 75705.33304720 0 27865.12353610 0 -40090.90489715 0 238
0.01650000 0.01653350 93769.84561745 0 8514.17469294 0 114298.30882794 0 29774.46046926 0 16464.29353219 0 315
0.01750000 0.01747870 82562.46721262 0 5446.16272307 0 55565.68394549 0 42718.85663155 0 -14327.78304775 0 297
0.01850000 0.01844180 86249.85027842 0 -2152.41600522 0 77414.24917783 0 42777.08320234 0 15297.06436028 0 388
0.01950000 0.01947590 86980.60498244 0 -5172.68893144 0 35261.47171709 0 33324.93240915 0 -25018.31633197 0 399
0.02050000 0.02045430 88687.49779594 0 -1385.18538958 0 22366.08479199 0 19941.13920979 0 -16289.61381983 0 462
0.02150000 0.02154770 81408.05238255 0 6300.93552661 0 12489.82424673 0 -5004.78733147 0 -27432.47088946 0 571
0.02250000 0.02255340 73900.19694631 0 8846.36964399 0 9739.96765515 0 -9347.05070885 0 -24182.12432409 0 510
0.02350000 0.02348930 67786.63182673 0 5486.34804943 0 12483.97910835 0 -3614.74598077 0 -24789.34427658 0 555
0.02450000 0.02439640 64658.47113481 0 2725.28452908 0 16462.04540204 0 -5654.44074046 0 -32823.93660607 0 592
0.02550000 0.02547300 64840.45727014 0 -1379.93600569 0 17662.65930662 0 -1254.09692076 0 -25807.63482630 0 837
0.02650000 0.02652900 64708.60443707 0 1191.78999375 0 25862.48920186 0 -3318.92577548 0 -23127.30165949 0 723
0.02750000 0.02749970 67573.73390189 0 2883.35055966 0 26453.07299127 0 -4828.88238818 0 -4305.42776494 0 826
0.02850000 0.02848090 66004.20184032 0 2572.15314417 0 37960.57677062 0 -2537.85791879 0 -8411.62623632 0 831
0.02950000 0.02946900 64434.10774622 0 1607.32312933 0 28904.32169618 0 5647.92116304 0 -4881.43243034 0 996
0.03050000 0.03053250 67417.60126324 0 1989.84247370 0 45762.82484950 0 2083.98292357 0 2938.10376937 0 1041
0.03150000 0.03150510 62529.49188636 0 2138.82605849 0 30460.81460290 0 4439.97835419 0 -12492.40959639 0 1036
0.03250000 0.03246190 66515.76385509 0 3519.71751949 0 48612.66702933 0 -615.25027337 0 5598.74331609 0 1059
0.03350000 0.03345080 58258.38182810 0 4285.84655136 0 31648.38935263 0 -91.46382612 0 -10767.62166693 0 1302
0.03450000 0.03451200 56965.14496150 0 3630.23559748 0 46482.90093533 0 8214.58886965 0 6723.20181197 0 1339
0.03550000 0.03553350 52027.57672141 0 3331.79632057 0 35371.29287473 0 5411.83377574 0 -203.34561985 0 1365
0.03650000 0.03647120 50172.53213127 0 2655.89599212 0 37759.03190301 0 11708.14939489 0 558.16462863 0 1308
0.03750000 0.03744890 47029.53378038 0 2423.51801955 0 28330.26166335 0 7719.78666513 0 852.22117582 0 1579
0.03850000 0.03847530 43981.85614769 0 1959.36906957 0 30217.11729505 0 6242.13568263 0 -45.15515527 0 1662
0.03950000 0.03950240 42201.56188491 0 991.05332893 0 26632.47377694 0 447.26549259 0 -409.61380890 0 1683
0.04050000 0.04050350 41418.20093547 0 769.52146026 0 26290.19596218 0 -1051.29759653 0 -4643.90623975 0 1822
0.04150000 0.04152450 41253.52540226 0 -124.79820068 0 27096.93746514 0 -4002.98681637 0 -1744.42534629 0 1887
0.04250000 0.04250150 42233.59773949 0 -1435.47606095 0 27916.15609042 0 566.26239342 0 -2466.52474925 0 1920
0.04350000 0.04349210 43331.24728338 0 -1502.27924824 0 28829.68377532 0 2815.16477232 0 -938.53251246 0 2005
0.04450000 0.04448520 46710.63651914 0 -2111.91594064 0 26279.74215700 0 4561.81576746 0 -3076.61106768 0 2151
0.04550000 0.04548030 45967.96672534 0 -305.51414248 0 26397.09455063 0 7928.97517523 0 3086.31174926 0 2274
0.04650000 0.04648670 46181.98871526 0 437.22871555 0 19661.92144564 0 6209.42538901 0 1136.21621654 0 2311
0.04750000 0.04749250 44666.18696419 0 1471.89576932 0 18985.00945861 0 6144.38698388 0 2905.23610663 0 2568
0.04850000 0.04851840 42778.09486090 0 1701.91320523 0 11866.75497671 0 5376.74046415 0 -1450.41488577 0 2493
0.04950000 0.04949480 41337.94268925 0 1232.49239005 0 12408.10471591 0 3216.42228147 0 -71.12454306 0 2644
0.05050000 0.05050630 40616.29291232 0 2114.53501226 0 7536.12567283 0 677.54258753 0 -925.70355778 0 2829
0.05150000 0.05149060 38042.18389492 0 1118.35257440 0 7875.26734604 0 -484.33266244 0 -1329.52168716 0 2784
0.05250000 0.05249300 37050.87090696 0 1295.61988456 0 8668.62123398 0 663.47041688 0 2137.48842105 0 3055
0.05350000 0.05348950 36703.53479937 0 853.70606578 0 6391.83866907 0 784.51986053 0 1797.02035106 0 3009
0.05450000 0.05448610 36790.08781000 0 295.66283618 0 8972.30989478 0 3010.21254381 0 2843.31136175 0 3336
0.05550000 0.05550870 35879.25788127 0 536.23749125 0 8137.79274386 0 591.83487383 0 2580.22393139 0 3349
0.05650000 0.05647670 35577.10918962 0 967.16020174 0 7309.36802564 0 -43.35575190 0 -834.19004798 0 3324
0.05750000 0.05747970 34508.46052462 0 888.26095019 0 8590.17273253 0 -778.73542167 0 3484.92770548 0 3639
0.05850000 0.05849280 33322.23465298 0 497.58763778 0 6747.24556388 0 -819.67836789 0 -2588.60945684 0 3846
0.05950000 0.05951020 34418.76013179 0 -286.67256372 0 7124.21202679 0 85.81629838 0 515.12417698 0 3787
0.06050000 0.06049470 33713.85892445 0 -357.16380852 0 6688.80542073 0 -2576.91918008 0 -7024.46249221 0 3930
0.06150000 0.06148310 35529.89845655 0 -27.45540182 0 8436.34442727 0 -2610.51748511 0 -4191.25647546 0 4083
0.06250000 0.06249100 35421.42617699 0 -682.30862344 0 10717.07246059 0 -3404.42216494 0 -5900.61099147 0 4303
0.06350000 0.06350600 36016.39382018 0 539.47704679 0 15436.78564887 0 -3262.49770881 0 -3186.83688874 0 4470
0.06450000 0.06451750 36440.50357226 0 224.39598648 0 16773.18661428 0 -1090.73766775 0 -3068.40539264 0 4479
0.06550000 0.06550280 35391.52604605 0 1222.85915237 0 17827.55965284 0 237.67906345 0 -2760.63637563 0 4636
0.06650000 0.06648880 35410.18552626 0 1786.79135890 0 18811.56621784 0 375.20280481 0 -700.74891096 0 4653
0.06750000 0.06749660 33544.57472444 0 1087.71280864 0 18580.57084531 0 3295.28668700 0 -55.86401082 0 5220
0.06850000 0.06852730 32842.82089930 0 834.75994898 0 17209.21145613 0 3366.92335410 0 3201.28112493 0 5029
0.06950000 0.06949320 31843.18982980 0 434.17350668 0 13958.52767124 0 2715.30283123 0 886.09150460 0 5040
0.07050000 0.07048030 31536.20765833 0 763.41104253 0 14925.11122760 0 664.23815332 0 2779.37454040 0 5475
0.07150000 0.07148790 30395.39401564 0 1034.90872776 0 12467.79257129 0 -683.03252134 0 -567.30552581 0 5509
0.07250000 0.07249820 29658.45695372 0 1017.58351279 0 15027.73836877 0 -1534.48371259 0 936.52830443 0 5916
0.07350000 0.07351270 29095.86238463 0 692.79277837 0 13142.23161515 0 255.27068184 0 -1368.26821023 0 5721
0.07450000 0.07449140 28728.18069922 0 351.29169258 0 14976.14378191 0 1366.93057279 0 -860.32118874 0 6028
0.07550000 0.07549160 28265.62792164 0 -8.52866389 0 13708.08597295 0 1983.91865077 0 -1901.89562238 0 6183
0.07650000 0.07648840 28341.50231408 0 -159.70604152 0 11691.85045133 0 2708.06385216 0 -2771.19134666 0 6330
0.07750000 0.07749960 28397.36834821 0 441.91606690 0 11689.37750817 0 1967.26000638 0 -1396.26867120 0 6583
0.07850000 0.07848650 27564.88575507 0 221.58469973 0 10489.12330442 0 1357.01631885 0 -2175.47057987 0 6549
0.07950000 0.07947320 27943.58327820 0 441.59008803 0 10531.65792678 0 -28.61352606 0 198.20751840 0 6828
0.08050000 0.08048110 27240.48057498 0 538.76214141 0 9938.83724788 0 -951.81446536 0 -2077.46334615 0 7147
0.08150000 0.08149960 26465.10048755 0 680.19088484 0 10141.14647974 0 125.23096573 0 -1530.70685394 0 7386
0.08250000 0.08250610 25700.96105086 0 1212.84373257 0 9866.57110433 0 50.85731257 0 -3260.53059494 0 7227
0.08350000 0.08350160 24405.13883459 0 1251.68018085 0 9593.11979400 0 -43.50581459 0 -3939.43217714 0 7798
0.08450000 0.08449610 23213.85467012 0 1098.78484961 0 8545.32253611 0 1124.98680646 0 -2896.55832427 0 7371
0.08550000 0.08548940 22401.71765481 0 927.25926384 0 8039.72930688 0 664.52703804 0 -5001.71863382 0 8256
0.08650000 0.08650700 21686.25023578 0 313.58268157 0 8218.80411368 0 1562.77643048 0 -2094.87511413 0 8037
0.08750000 0.08749060 21455.03005024 0 -186.38572603 0 6415.61264536 0 1313.16654035 0 -2945.38771104 0 8155
0.08850000 0.08849210 21480.99595343 0 22.50872865 0 8194.76036176 0 1403.56385353 0 865.03439359 0 8718
0.08950000 0.08949900 21670.73813777 0 -196.19881412 0 7234.35916331 0 1042.52651676 0 70.17504529 0 8571
0.09050000 0.09049190 22254.91475626 0 -20.35007408 0 7294.50788537 0 1042.73222067 0 2667.32773391 0 8932
0.09150000 0.09150830 21602.17016831 0 477.90525835 0 7385.82693191 0 890.48097871 0 1901.23242399 0 9285
0.09250000 0.09250820 21536.86198756 0 751.94670284 0 7310.05370533 0 -55.24386412 0 2715.62881010 0 9204
0.09350000 0.09350330 20895.35805035 0 884.04458211 0 7131.23743350 0 -509.57579178 0 1304.34262952 0 9349
0.09450000 0.09448040 19978.79538974 0 1022.22814967 0 6866.81236571 0 138.35779765 0 717.11979469 0 9564
0.09550000 0.09549270 19052.45336300 0 624.81269495 0 6604.70287196 0 -213.73310519 0 18.32765620 0 10155
0.09650000 0.09649430 18382.96020546 0 223.37196320 0 6280.80352115 0 660.32977906 0 -562.56084713 0 9913
0.09750000 0.09749140 18692.41532009 0 25.86743509 0 6635.00766633 0 538.30577099 0 -360.07738519 0 10476
0.09850000 0.09850240 18385.65796164 0 -198.99998428 0 5532.51340199 0 606.14197408 0 -1484.17055992 0 10575
0.09950000 0.09950330 18775.59613550 0 -80.79521210 0 6033.98131240 0 393.43176811 0 -1033.59019943 0 10882
0.10050000 0.10051200 18563.26024319 0 173.56014355 0 5914.58312033 0 -61.68857881 0 -870.21071325 0 10875
0.10150000 0.10150300 18352.94766801 0 344.63160702 0 5218.39341731 0 167.26537914 0 -1846.89511836 0 11118
0.10250000 0.10250800 18080.69910731 0 277.50806118 0 5131.76172212 0 531.17357810 0 -935.69537221 0 11575
0.10350000 0.10349800 17394.90700621 0 431.79386092 0 4526.30655180 0 484.84411204 0 -2063.42377339 0 11364
0.10450000 0.10450100 17504.61575734 0 163.48852049 0 4103.52319651 0 856.09807626 0 -1281.54658984 0 12093
0.10550000 0.10551000 16949.55242425 0 129.81040684 0 3827.02566983 0 67.89544133 0 -1994.77711937 0 12067
0.10650000 0.10649700 17120.63512837 0 381.66730305 0 3925.57245478 0 328.46193095 0 -919.13339743 0 12054
0.10750000 0.10749900 16699.11072596 0 319.95163428 0 4712.63157832 0 -380.46567749 0 -569.88413109 0 12807
0.10850000 0.10850100 16540.39273764 0 431.21047115 0 4188.60368189 0 -244.92703504 0 113.25405238 0 12736
0.10950000 0.10950300 16351.88702488 0 325.16954435 0 5533.64870771 0 47.20893457 0 695.72321602 0 12933
0.11050000 0.11050200 16225.99173669 0 224.32741851 0 5516.68656576 0 108.11336558 0 762.43760217 0 13428
0.11150000 0.11150900 16076.60348848 0 207.10561752 0 5932.96158428 0 500.76199755 0 1013.30307299 0 13453
0.11250000 0.11250000 15898.88880042 0 279.89220320 0 5562.98680612 0 -240.44538759 0 329.17234007 0 13668
0.11350000 0.11349100 15489.95392683 0 210.46095177 0 6444.93950312 0 -164.16183547 0 954.21322023 0 13791
0.11450000 0.11448600 15576.39453095 0 259.26111285 0 6247.53119498 0 -273.54123554 0 686.46991234 0 14205
0.11550000 0.11549300 15285.71130305 0 361.14412295 0 6725.79840229 0 -305.02967043 0 530.74643337 0 14776
0.11650000 0.11649800 15074.27466280 0 428.05072423 0 6515.20481084 0 -42.68131286 0 -109.87769811 0 14553
0.11750000 0.11747300 14606.55118588 0 306.53142137 0 7018.87588879 0 194.93199278 0 429.24110914 0 14568
0.11850000 0.11849100 14515.38950845 0 263.59663184 0 6411.27375418 0 368.38310202 0 726.39557967 0 16015
0.11950000 0.11950300 14121.06748081 0 254.60635938 0 6056.41765126 0 1031.45110360 0 252.79886274 0 15270
0.12050000 0.12050700 14061.37962543 0 184.19042694 0 6063.51050187 0 536.33640898 0 852.89449080 0 15999
0.12150000 0.12150000 13823.86467548 0 210.50254217 0 5141.40620045 0 445.78622295 0 74.69862037 0 15670
0.12250000 0.12250700 13840.72565158 0 38.48090649 0 5617.52644346 0 -7.77851907 0 889.13884502 0 16887
0.12350000 0.12352200 13875.68407535 0 -114.06675142 0 5388.94781085 0 -158.40774636 0 790.88768917 0 16407
0.12450000 0.12449800 13850.50501771 0 -29.58438107 0 5941.20098126 0 53.16119635 0 1167.08304345 0 16306
0.12550000 0.12549900 14146.58375797 0 127.15648920 0 6582.19908920 0 -259.04641642 0 1030.75193512 0 17523
0.12650000 0.12650100 14157.03756315 0 286.19933233 0 6204.67059375 0 211.78172823 0 838.49746534 0 17154
0.12750000 0.12750600 13819.81804122 0 379.25955566 0 6774.21188498 0 -116.51608922 0 865.46940677 0 18007
0.12850000 0.12850300 13555.32552952 0 187.26586898 0 6194.37415768 0 82.83179320 0 460.50585508 0 17496
0.12950000 0.12949900 13410.43354159 0 18.91183282 0 5925.07064746 0 540.49544975 0 116.35534791 0 18405
0.13050000 0.13049000 13460.45443735 0 -131.18513842 0 5280.00342396 0 284.21872967 0 -334.30706933 0 18100
0.13150000 0.13148800 13334.44674265 0 -59.66099023 0 4642.36627060 0 735.27794188 0 -556.60442631 0 19059
0.13250000 0.13249300 13436.62425780 0 104.90640792 0 4664.74640620 0 635.03269459 0 -604.68181355 0 18957
0.13350000 0.13349100 13221.02857678 0 125.09382979 0 3712.91058360 0 720.74040829 0 -668.75689491 0 19468
0.13450000 0.13450700 12886.39440452 0 222.22654089 0 3746.07050326 0 480.37033305 0 -510.37162985 0 19953
0.13550000 0.13551000 12842.89308619 0 186.52286197 0 3548.57226992 0 180.08646536 0 -167.66779443 0 19956
0.13650000 0.13649900 12663.71711353 0 193.09639452 0 3562.29710446 0 79.44993103 0 -230.84474780 0 19723
0.13750000 0.13749600 12416.64761047 0 305.37138621 0 3622.23225416 0 -198.85722802 0 71.55944384 0 20946
0.13850000 0.13851100 12289.29103769 0 184.93905428 0 3412.38054566 0 53.30586352 0 67.53517847 0 20955
0.13950000 0.13949800 11948.13728800 0 304.51147643 0 3666.14947656 0 273.62778855 0 55.00455066 0 20506
0.14050000 0.14048300 11894.63179052 0 192.13756701 0 3318.82460963 0 292.65596211 0 85.40208040 0 21447
0.14150000 0.14148400 11600.01433486 0 128.19512533 0 2940.70035969 0 902.27466946 0 -108.36583059 0 21771
0.14250000 0.14249400 11492.44130737 0 257.08042661 0 2705.02887646 0 499.26923913 0 236.96415806 0 22470
0.14350000 0.14350900 11287.18702502 0 258.41918811 0 2733.07430003 0 419.59887894 0 608.22936292 0 22519
0.14450000 0.14449900 10998.92053702 0 265.95379630 0 2877.75271559 0 -20.68616954 0 657.96924241 0 22218
0.14550000 0.14550500 10833.61552737 0 152.54799514 0 2790.39037811 0 150.07392791 0 1073.54509245 0 23559
0.14650000 0.14650700 10785.80903981 0 106.71592788 0 2702.03886337 0 132.68014497 0 1215.08062207 0 23044
0.14750000 0.14750500 10779.23325913 0 59.20439499 0 3102.41960175 0 24.93097648 0 1421.77370771 0 23649
0.14850000 0.14849900 10736.77732132 0 78.05811365 0 3373.28556242 0 -3.30243574 0 1772.27967880 0 23640
0.14950000 0.14949500 10799.89357518 0 147.96068557 0 3456.84855995 0 -20.84320143 0 2013.11062071 0 24457
0.15050000 0.15050000 10694.63612173 0 170.62520964 0 3724.58961971 0 17.61342526 0 2354.36553626 0 24591
0.15150000 0.15149900 10673.55990161 0 131.80899454 0 3966.73571776 0 -94.04985023 0 2541.19639206 0 25020
0.15250000 0.15250500 10524.35150381 0 137.16853681 0 3804.09474233 0 101.35267619 0 2243.06061272 0 25297
0.15350000 0.15350100 10409.10111186 0 193.03119874 0 4092.38371163 0 30.53736343 0 2591.71187644 0 25452
0.15450000 0.15450400 10118.09190509 0 271.63144898 0 3880.78970227 0 -107.44286076 0 2077.67691851 0 26061
0.15550000 0.15549900 10011.55301746 0 263.89226095 0 4021.12922665 0 46.58069460 0 2227.23377649 0 26128
0.15650000 0.15649500 9776.69086109 0 182.54591974 0 3849.97907862 0 -202.35307039 0 1611.99924003 0 26331
0.15750000 0.15749700 9716.30608536 0 120.25360559 0 3889.66981635 0 78.85406413 0 1384.52219119 0 27345
0.15850000 0.15849900 9571.53774460 0 70.42110314 0 3601.84171373 0 131.56732055 0 1313.91966395 0 26980
0.15950000 0.15949700 9572.50444056 0 -35.25821193 0 3550.79791876 0 528.70175900 0 1412.57885541 0 27777
0.16050000 0.16050000 9512.58053151 0 -15.30605688 0 3341.44079890 0 211.54230237 0 1228.36707123 0 28224
0.16150000 0.16150500 9552.76585788 0 1.98494155 0 3075.95910993 0 389.62006344 0 827.64911332 0 28075
0.16250000 0.16249700 9481.61253875 0 116.36096824 0 3062.98739899 0 33.60021595 0 858.91273520 0 28590
0.16350000 0.16349900 9418.47380359 0 207.54625103 0 2953.73951453 0 -19.48533082 0 1177.03101934 0 29163
0.16450000 0.16449100 9090.41541201 0 254.06006376 0 2819.45870090 0 -128.46265281 0 758.04138367 0 28996
0.16550000 0.16550500 8993.15006123 0 206.13330124 0 2917.18491836 0 165.47249535 0 939.12152256 0 30777
0.16650000 0.16650700 8765.38075547 0 168.32200031 0 2837.72475834 0 209.37735304 0 646.63192208 0 29211
0.16750000 0.16749900 8672.09459506 0 169.84286035 0 2785.83791457 0 231.65857091 0 937.07684819 0 30922
0.16850000 0.16850800 8530.43991454 0 74.55204228 0 2596.59031886 0 111.61988657 0 587.27116964 0 30867
0.16950000 0.16949900 8509.52106353 0 95.97616054 0 2607.44878747 0 48.02781597 0 885.42156182 0 30852
0.17050000 0.17049200 8478.10344474 0 11.89249607 0 2517.19760275 0 43.30224640 0 458.72083975 0 31257
0.17150000 0.17149500 8439.51429078 0 0.71829781 0 2315.54032863 0 118.72824928 0 411.23358667 0 32608
0.17250000 0.17250900 8559.65436579 0 -8.83686005 0 2074.81055258 0 175.25860587 0 281.19049836 0 32361
0.17350000 0.17350400 8490.14218167 0 27.18630064 0 1973.61097405 0 213.47681836 0 77.48405362 0 32508
0.17450000 0.17449800 8426.11543511 0 135.94218181 0 1853.85308116 0 177.45502903 0 123.94728342 0 32791
0.17550000 0.17549800 8318.84590518 0 149.91431067 0 1848.98587939 0 328.28882492 0 370.44126517 0 33633
0.17650000 0.17650100 8157.75613956 0 215.53385744 0 1866.19531566 0 98.06096403 0 757.74013423 0 33984
0.17750000 0.17750300 8042.24721265 0 207.52489380 0 1949.92692296 0 114.14880817 0 1075.87527935 0 34069
