### header ###
fiducial parameters:
Omega_m = 0.31
Omega_nu = 0
Omega_de = 0.69
Omega_k = 0
H_0 = 100
w_de = -1
zeff = 0
beta = 0
fgrowth = 0
b_1 = 2
gamma = 0.55
Lx = 3500 Ly = 3500 Lz = 3500
nx = 700 ny = 700 nz = 700
xoffset = 857.220397 yoffset = 15.9954215 zoffset = 262.898189
bins = 400 dk = 0.001
kx_ny = 0.628318531 ky_ny = 0.628318531 kz_ny = 0.628318531
############################
A(data) = 3.06725946 (not used)
A(ran) = 3.06536169 (used)
Ngal = 187189
weighted Ngal = 0
Nran = 9360983
weighted Nran = 0
SN(data) = 3448.74172
SN(ran) = 68.8365033
SN(data+ran) = 3517.57823
############################
13 columns: k_central k_mean P_0(k) sigma^{lin}_{P_0(k)} P^img_1(k) sigma^{lin}_{P_1(k)} P_2(k) sigma^{lin}_{P_2(k)} P^img_3(k) sigma^{lin}_{P_3(k)} P_4(k) sigma^{lin}_{P_4(k)} N_modes
### header ###
0.00050000 0 0 0 0 0 0 0 0 0 0 0 0
0.00150000 0.00179520 17074.09883435 0 -29971.84629610 0 -28837.77704385 0 51024.12383065 0 13424.14713549 0 3
0.00250000 0.00253879 28053.06721632 0 -26422.49842128 0 -8907.92344739 0 -40948.45414142 0 -22550.65627699 0 6
0.00350000 0.00331552 42931.19252386 0 -23423.49280625 0 -36748.49740229 0 10478.86059030 0 20365.92340092 0 7
0.00450000 0.00420575 52082.20628396 0 -19981.83036544 0 -36399.36279059 0 -20406.38974355 0 -834.14845758 0 24
0.00550000 0.00557378 66417.52056770 0 -20043.31672494 0 -63445.82973395 0 -7786.26387355 0 17993.69647065 0 45
0.00650000 0.00659388 66222.60768402 0 -17487.19274871 0 -45588.93198270 0 -29169.15142740 0 -43210.52269452 0 40
0.00750000 0.00754703 88300.48219127 0 -27112.22475014 0 -99092.96817762 0 11112.97941999 0 28733.57621157 0 57
0.00850000 0.00846663 85715.24492965 0 -16682.81178240 0 -78215.81998146 0 -22524.80278031 0 -23227.23104449 0 75
0.00950000 0.00948925 111401.14350853 0 -13065.45797066 0 -116126.03863680 0 -16093.01483855 0 19225.22216474 0 112
0.01050000 0.01054430 94650.43819572 0 3652.01997859 0 -81244.61332092 0 -49971.99892223 0 836.00878527 0 105
0.01150000 0.01145670 100297.51630995 0 8265.26172315 0 -77576.56417438 0 -43363.28313796 0 27489.91061470 0 144
0.01250000 0.01249090 89194.00151788 0 12333.12957554 0 -47777.82389954 0 -40338.64883926 0 27253.29491681 0 169
0.01350000 0.01339930 84837.23770105 0 7534.48453783 0 -40120.69262159 0 -17618.93317528 0 55256.79086341 0 180
0.01450000 0.01448870 81467.51542492 0 -380.16330398 0 -16856.36742969 0 -3937.56622911 0 47406.43279939 0 267
0.01550000 0.01550050 91619.62153912 0 -1718.63929351 0 -17951.43162390 0 19997.67968297 0 31862.86096857 0 238
0.01650000 0.01653350 87560.51015365 0 -1115.31984683 0 -11331.58759540 0 -3570.63766730 0 25113.86186318 0 315
0.01750000 0.01747870 96102.84267667 0 1342.96550543 0 -10583.52228926 0 -19566.71313394 0 22610.34413237 0 297
0.01850000 0.01844180 84028.58528747 0 8797.18055639 0 -505.94843379 0 -15069.77840250 0 8022.69972102 0 388
0.01950000 0.01947590 82962.74678515 0 6371.06594652 0 8052.38627961 0 -21577.10351718 0 -2637.28147451 0 399
0.02050000 0.02045430 73734.06012850 0 5057.57342730 0 10254.95806839 0 -10421.01620164 0 -13953.35697190 0 462
0.02150000 0.02154770 69626.16431886 0 3847.77591107 0 17762.70109813 0 2714.04387835 0 -21367.69019406 0 571
0.02250000 0.02255340 65069.42932553 0 1090.04861586 0 9443.49549212 0 7043.66152366 0 -16916.72972411 0 510
0.02350000 0.02348930 63383.55652890 0 1284.51412163 0 10140.58444720 0 9100.94790174 0 -18639.47185514 0 555
0.02450000 0.02439640 63000.13793246 0 2508.21632281 0 7960.78621680 0 2223.80537802 0 -15516.25704954 0 592
0.02550000 0.02547300 58646.18427832 0 2485.63385549 0 8225.72835453 0 -857.49191695 0 -8899.22318373 0 837
0.02650000 0.02652900 57996.02504004 0 4176.60990756 0 5369.81622330 0 -2001.86996998 0 -6373.52764903 0 723
0.02750000 0.02749970 54016.38505524 0 1518.22973163 0 6650.84574321 0 -3939.55582429 0 -1960.11095252 0 826
0.02850000 0.02848090 52071.41525926 0 2890.09495010 0 6236.08821254 0 -648.32476408 0 -6060.05962209 0 831
0.02950000 0.02946900 48482.05066784 0 1871.99549144 0 9253.55097607 0 -492.46639731 0 -12603.80444514 0 996
0.03050000 0.03053250 48009.15649159 0 1248.65644580 0 10359.14766002 0 2645.19489262 0 -736.19967524 0 1041
0.03150000 0.03150510 48006.57114192 0 -809.44712759 0 2778.95863632 0 8102.77811683 0 4318.88282386 0 1036
0.03250000 0.03246190 49287.21847970 0 -2365.15656096 0 8458.90441329 0 9210.52176507 0 15369.67896401 0 1059
0.03350000 0.03345080 51142.26306983 0 -2021.55234941 0 -2624.80435219 0 10348.31167271 0 9463.40268456 0 1302
0.03450000 0.03451200 55174.62170656 0 436.73525098 0 10765.13748312 0 5563.80737362 0 26385.40427387 0 1339
0.03550000 0.03553350 51317.05518870 0 2602.70523286 0 6918.66548753 0 -3739.55092584 0 19947.09675468 0 1365
0.03650000 0.03647120 50368.34426701 0 3040.70842924 0 11648.57394602 0 -1675.18293779 0 24260.69647270 0 1308
0.03750000 0.03744890 48858.61246733 0 3011.13427717 0 17164.02404019 0 -9436.58249192 0 18830.78773059 0 1579
0.03850000 0.03847530 46643.52983428 0 2178.53927752 0 16150.56697029 0 -3030.79417530 0 13560.49622885 0 1662
0.03950000 0.03950240 45679.30681457 0 1826.92048201 0 24060.50048318 0 -5539.97719407 0 7404.73370644 0 1683
0.04050000 0.04050350 43740.29456348 0 1775.22472929 0 18680.27541730 0 -2678.46721878 0 -3485.27616565 0 1822
0.04150000 0.04152450 41610.19124995 0 2009.44616858 0 22043.36570950 0 -2363.09952187 0 -2240.35161589 0 1887
0.04250000 0.04250150 41101.43939787 0 2225.31162521 0 19500.28088812 0 2206.83199541 0 -12567.83436280 0 1920
0.04350000 0.04349210 39342.83959101 0 692.88270358 0 19738.35787061 0 1459.80082913 0 -6419.89533329 0 2005
0.04450000 0.04448520 38945.59499417 0 -233.76956512 0 17235.85179837 0 4648.97577323 0 -12576.82688338 0 2151
0.04550000 0.04548030 40802.43808842 0 -1961.25749889 0 15357.98868725 0 3979.90976042 0 -9146.95588519 0 2274
0.04650000 0.04648670 40043.35694456 0 -1382.34150495 0 9965.57875597 0 3629.10029175 0 -12628.98350278 0 2311
0.04750000 0.04749250 42560.02623672 0 -843.08814710 0 9530.90279220 0 2680.50177657 0 -8898.18904386 0 2568
0.04850000 0.04851840 42689.06890711 0 -385.61389552 0 8379.69154759 0 329.15772723 0 -7301.69066119 0 2493
0.04950000 0.04949480 43014.82296530 0 844.00538420 0 7816.06283864 0 415.06440044 0 -11120.24088036 0 2644
0.05050000 0.05050630 41181.81005060 0 1618.54129876 0 8397.40681314 0 -699.15948295 0 -7489.31960319 0 2829
0.05150000 0.05149060 39859.45989860 0 2081.79099668 0 9552.72089527 0 1364.88477436 0 -7402.09215352 0 2784
0.05250000 0.05249300 37244.88453857 0 1606.21030490 0 8865.75976650 0 397.80100904 0 -2942.92600853 0 3055
0.05350000 0.05348950 37929.32776158 0 838.00287671 0 10524.43018836 0 1563.51831343 0 -2550.14395004 0 3009
0.05450000 0.05448610 36120.36983944 0 184.30170939 0 11154.76091876 0 -304.97121905 0 -2958.01096181 0 3336
0.05550000 0.05550870 36115.53635963 0 439.92984392 0 10341.67968878 0 -1224.32043697 0 -5517.52961456 0 3349
0.05650000 0.05647670 35773.93298392 0 586.94519076 0 12495.44457209 0 -4171.34928302 0 -5747.10866509 0 3324
0.05750000 0.05747970 34911.66266634 0 746.66696920 0 11261.78315437 0 -3046.94699040 0 -9403.23148120 0 3639
0.05850000 0.05849280 34965.73019636 0 153.10665548 0 12604.25407117 0 -612.63120175 0 -10792.19372943 0 3846
0.05950000 0.05951020 34957.74933434 0 235.23309785 0 12320.98967275 0 -194.52732936 0 -12238.82051590 0 3787
0.06050000 0.06049470 34767.66993048 0 614.03515903 0 11284.48926884 0 1441.33243998 0 -12693.50483797 0 3930
0.06150000 0.06148310 33501.74784515 0 1039.41847683 0 11996.35967964 0 1143.39899236 0 -9464.99885697 0 4083
0.06250000 0.06249100 33394.17481766 0 934.09133135 0 10877.19553026 0 929.30618634 0 -6886.11256301 0 4303
0.06350000 0.06350600 33038.97025456 0 497.44488151 0 12255.00705296 0 1618.74363047 0 -1474.45863769 0 4470
0.06450000 0.06451750 32521.22588189 0 442.51631765 0 11594.84363552 0 845.71059092 0 -1967.10263727 0 4479
0.06550000 0.06550280 33732.40599815 0 -90.14417372 0 13238.90121144 0 2288.57400753 0 250.14606917 0 4636
0.06650000 0.06648880 32329.12316090 0 556.80900615 0 11900.25211589 0 1200.74879239 0 -353.17112938 0 4653
0.06750000 0.06749660 32582.15020885 0 765.04880534 0 11704.21516714 0 1077.26012752 0 1112.99865245 0 5220
0.06850000 0.06852730 31929.63043392 0 -33.06954482 0 11317.64918850 0 1587.77563770 0 1718.68425612 0 5029
0.06950000 0.06949320 30439.68217952 0 700.04187403 0 9535.14051753 0 2145.33439526 0 -736.67178257 0 5040
0.07050000 0.07048030 31562.51078104 0 539.46805427 0 11724.22352544 0 1499.90747094 0 3529.81162385 0 5475
0.07150000 0.07148790 29821.78360884 0 993.69825405 0 9733.48179968 0 1313.67236963 0 2620.93756834 0 5509
0.07250000 0.07249820 29785.47630698 0 1106.92532886 0 11478.50290046 0 828.89232929 0 7667.77617419 0 5916
0.07350000 0.07351270 28812.03595368 0 872.08565379 0 12169.57810740 0 555.87828027 0 5314.07383633 0 5721
0.07450000 0.07449140 28192.00165936 0 441.72497584 0 12172.05105056 0 -403.93053589 0 7605.81770736 0 6028
0.07550000 0.07549160 28273.83359668 0 706.88967845 0 12827.60580119 0 -275.38582632 0 5598.73207544 0 6183
0.07650000 0.07648840 27414.48584829 0 320.16745477 0 12409.11637448 0 -1031.47358490 0 4931.59945456 0 6330
0.07750000 0.07749960 27100.42206687 0 398.01345734 0 12672.26000809 0 -713.79705833 0 1842.85972474 0 6583
0.07850000 0.07848650 27314.21924377 0 347.48336011 0 12331.89310396 0 -654.94101110 0 1400.41647132 0 6549
0.07950000 0.07947320 26743.19418664 0 89.34305255 0 12352.91312082 0 558.55692734 0 -24.74022263 0 6828
0.08050000 0.08048110 26746.56638186 0 346.31096024 0 11979.83592306 0 888.28567963 0 391.05774267 0 7147
0.08150000 0.08149960 26398.44342872 0 652.61082420 0 13094.00922352 0 659.90151027 0 1504.38124993 0 7386
0.08250000 0.08250610 26092.69772884 0 835.78397226 0 12635.84029972 0 1267.00118779 0 837.95903817 0 7227
0.08350000 0.08350160 24759.55655214 0 979.81605040 0 12866.04882669 0 2089.60324894 0 3859.40998458 0 7798
0.08450000 0.08449610 23897.39864107 0 1183.40446831 0 13026.90253865 0 1397.40397692 0 4547.49517843 0 7371
0.08550000 0.08548940 23216.21520677 0 920.17203355 0 12013.44546875 0 1608.30106594 0 4876.13808385 0 8256
0.08650000 0.08650700 22219.39429995 0 499.06128709 0 11634.29831959 0 2302.44497053 0 5455.91960790 0 8037
0.08750000 0.08749060 21939.27728373 0 -38.82284709 0 9073.16101314 0 1867.28565878 0 5600.28328524 0 8155
0.08850000 0.08849210 22222.99130818 0 -224.00368777 0 8293.76801340 0 1928.05261663 0 5000.95426957 0 8718
0.08950000 0.08949900 21962.99505678 0 -225.52904407 0 6950.26295673 0 1054.49556166 0 3341.91290623 0 8571
0.09050000 0.09049190 22267.95391111 0 105.62648401 0 5610.36614895 0 481.71808708 0 3012.65176502 0 8932
0.09150000 0.09150830 21809.78498731 0 334.92193292 0 5653.05814042 0 -786.26328546 0 2190.56677380 0 9285
0.09250000 0.09250820 21672.19942237 0 350.94660460 0 4861.24422163 0 -546.06406812 0 1461.76794301 0 9204
0.09350000 0.09350330 21163.78478980 0 208.31960780 0 5431.08901044 0 90.98452477 0 1000.09530838 0 9349
0.09450000 0.09448040 21017.31911078 0 268.88310988 0 4475.63369831 0 529.89664017 0 230.99762065 0 9564
0.09550000 0.09549270 20458.43395643 0 346.34243406 0 4902.44120656 0 1553.27808061 0 461.76480796 0 10155
0.09650000 0.09649430 19839.07410116 0 814.30870904 0 4724.13076402 0 641.79169788 0 -30.48183462 0 9913
0.09750000 0.09749140 19251.63769395 0 941.15046001 0 4744.98217112 0 421.74696730 0 982.49919373 0 10476
0.09850000 0.09850240 18315.06667505 0 989.21548254 0 5471.38674331 0 172.71035035 0 660.32078654 0 10575
0.09950000 0.09950330 17944.79963997 0 556.41221118 0 5984.84842805 0 -830.64249861 0 2847.72893749 0 10882
0.10050000 0.10051200 17420.98531590 0 227.24324331 0 6695.01025993 0 234.68680222 0 3184.26277973 0 10875
0.10150000 0.10150300 17773.37971632 0 30.61930778 0 6680.88076196 0 51.86065306 0 2683.24449534 0 11118
0.10250000 0.10250800 17503.94131830 0 98.20641805 0 6025.19112352 0 424.65492364 0 3106.65732708 0 11575
0.10350000 0.10349800 17343.53723237 0 417.56319709 0 6491.22850283 0 129.91494489 0 1531.57238405 0 11364
0.10450000 0.10450100 16962.59157909 0 479.21367009 0 6191.54151369 0 -520.71415259 0 1160.64215058 0 12093
0.10550000 0.10551000 16422.47831147 0 542.09274622 0 6190.77714944 0 -305.25785564 0 -6.94752024 0 12067
0.10650000 0.10649700 16231.05002952 0 361.11489725 0 5768.46590148 0 -1233.71762098 0 121.85315018 0 12054
0.10750000 0.10749900 15789.40486230 0 74.61802490 0 5720.63693262 0 -542.08262963 0 -1534.61860040 0 12807
0.10850000 0.10850100 16216.99921611 0 -192.95363825 0 5638.16427821 0 -131.72019340 0 -1785.54364667 0 12736
0.10950000 0.10950300 16215.42552501 0 -104.68631598 0 5838.88857831 0 -560.03619698 0 -1931.72830942 0 12933
0.11050000 0.11050200 16602.77834920 0 87.76284187 0 5397.02983872 0 262.57598075 0 -2612.06869492 0 13428
0.11150000 0.11150900 16365.82543179 0 122.25893768 0 6355.45268265 0 85.74368378 0 -1636.86355945 0 13453
0.11250000 0.11250000 16342.66969128 0 257.75374159 0 5841.92355401 0 357.40997877 0 -1595.12702328 0 13668
0.11350000 0.11349100 16184.51373550 0 394.92789872 0 6984.29964715 0 814.48631132 0 -543.07742722 0 13791
0.11450000 0.11448600 15702.85185167 0 241.83698015 0 6024.33683407 0 411.25944016 0 -287.19412992 0 14205
0.11550000 0.11549300 15560.43280691 0 242.66766424 0 6222.48702515 0 760.59076326 0 510.19065538 0 14776
0.11650000 0.11649800 15419.58745325 0 158.25487351 0 6151.58100034 0 511.55639444 0 286.85016600 0 14553
0.11750000 0.11747300 14895.66072268 0 246.83120127 0 5360.89114662 0 828.26397692 0 485.66243142 0 14568
0.11850000 0.11849100 14910.27356863 0 534.96842178 0 5132.44740182 0 157.47252422 0 788.99588765 0 16015
0.11950000 0.11950300 14291.58815240 0 480.43103257 0 4554.27329082 0 -37.77341994 0 78.37903423 0 15270
0.12050000 0.12050700 14075.88006487 0 291.39476109 0 5134.57188481 0 188.50683682 0 1322.63116826 0 15999
0.12150000 0.12150000 13801.60818703 0 134.24709168 0 5022.80609459 0 233.15132933 0 351.09273306 0 15670
0.12250000 0.12250700 14026.75842117 0 -19.77758774 0 5203.76933071 0 -48.43821213 0 1939.23706411 0 16887
0.12350000 0.12352200 14010.79669714 0 94.92459767 0 5622.49481109 0 574.17131527 0 1635.51468136 0 16407
0.12450000 0.12449800 13955.38028903 0 -26.02210644 0 5385.44072782 0 398.91608160 0 2211.06972074 0 16306
0.12550000 0.12549900 13875.34685583 0 271.94618720 0 5602.07054871 0 527.44505425 0 2290.66476856 0 17523
0.12650000 0.12650100 13540.93749658 0 388.26219283 0 5677.43911186 0 362.29628965 0 2505.06894061 0 17154
0.12750000 0.12750600 13217.20675553 0 357.13683096 0 4982.39595521 0 493.93555036 0 2168.08547234 0 18007
0.12850000 0.12850300 12824.90804502 0 308.30182386 0 5073.98477737 0 233.73134691 0 2004.78129852 0 17496
0.12950000 0.12949900 12719.35833465 0 90.45239237 0 4387.60816243 0 340.02294022 0 1654.94976647 0 18405
0.13050000 0.13049000 12494.20810051 0 -78.72187408 0 4434.07701255 0 209.27281498 0 847.51021910 0 18100
0.13150000 0.13148800 12608.41311194 0 -24.57633395 0 3830.28545854 0 -408.25481422 0 810.82635544 0 19059
0.13250000 0.13249300 12594.81192455 0 108.23937327 0 4116.47242615 0 -278.32413242 0 -5.25240763 0 18957
0.13350000 0.13349100 12588.51716014 0 209.30428881 0 4287.52140832 0 -518.82235107 0 241.06362338 0 19468
0.13450000 0.13450700 12392.48021140 0 254.30623401 0 4242.23282653 0 -50.45804466 0 -481.87658025 0 19953
0.13550000 0.13551000 12043.23319318 0 184.60970322 0 4546.25870685 0 -49.78135749 0 -287.10195658 0 19956
0.13650000 0.13649900 12052.33812028 0 86.49916791 0 4208.27482067 0 387.04932662 0 -387.96206746 0 19723
0.13750000 0.13749600 11860.90983833 0 -13.33354749 0 4306.56307066 0 688.04023124 0 -896.64197938 0 20946
0.13850000 0.13851100 11847.42105745 0 86.40047500 0 3565.38828341 0 118.44498488 0 -353.09581702 0 20955
0.13950000 0.13949800 11851.35528521 0 54.31403749 0 3373.69022584 0 594.57309635 0 -282.90244947 0 20506
0.14050000 0.14048300 11752.10033925 0 249.91338770 0 3389.80931899 0 111.17059776 0 -125.66485485 0 21447
0.14150000 0.14148400 11672.40412557 0 122.10044450 0 3147.26979817 0 286.94571154 0 132.64080269 0 21771
0.14250000 0.14249400 11582.36651321 0 97.21105843 0 3136.62490193 0 31.61601628 0 203.20173952 0 22470
0.14350000 0.14350900 11544.71033326 0 46.55753886 0 3492.95353010 0 -71.53190424 0 129.35516048 0 22519
0.14450000 0.14449900 11540.77610551 0 205.12951112 0 3684.58414376 0 -274.74173704 0 151.48238145 0 22218
0.14550000 0.14550500 11348.33616499 0 212.64388614 0 3747.34069679 0 -550.05674726 0 -175.87908979 0 23559
0.14650000 0.14650700 11277.29525237 0 195.77391752 0 4134.01908194 0 -195.70647362 0 -63.31611262 0 23044
0.14750000 0.14750500 11079.40359626 0 124.57113953 0 4093.19303848 0 -24.55576355 0 -380.91530352 0 23649
0.14850000 0.14849900 11011.95969187 0 106.46301324 0 3668.72358558 0 489.94174715 0 -810.98372455 0 23640
0.14950000 0.14949500 10838.39280393 0 271.18631921 0 3717.63165691 0 509.75114593 0 -872.05755217 0 24457
0.15050000 0.15050000 10492.88892241 0 307.78250580 0 2860.62196388 0 785.12685567 0 -1016.19416836 0 24591
0.15150000 0.15149900 10111.75217808 0 214.32885968 0 2803.36208906 0 552.32735871 0 -346.93706449 0 25020
0.15250000 0.15250500 10061.92237339 0 19.50927341 0 2271.06107369 0 642.20647789 0 -563.27013220 0 25297
0.15350000 0.15350100 10034.67503602 0 -73.97348599 0 2250.69301456 0 566.58162790 0 133.69067947 0 25452
0.15450000 0.15450400 10148.61027182 0 -98.90952076 0 2204.13423924 0 274.17520824 0 -78.55877224 0 26061
0.15550000 0.15549900 10197.56330576 0 60.77269058 0 2258.23549121 0 -229.01701799 0 411.54720082 0 26128
0.15650000 0.15649500 10152.76931260 0 172.08874237 0 2519.18719793 0 -202.12825738 0 619.23283592 0 26331
0.15750000 0.15749700 10044.47688345 0 151.14741005 0 2722.57553225 0 -101.53387548 0 938.74496076 0 27345
0.15850000 0.15849900 10035.52932547 0 126.02567974 0 2988.63049440 0 140.89818472 0 1133.21496279 0 26980
0.15950000 0.15949700 9841.14475238 0 182.28738477 0 2811.29798847 0 63.70290342 0 792.13427734 0 27777
0.16050000 0.16050000 9643.42170602 0 154.08346803 0 2881.16987342 0 217.82470206 0 1064.46152260 0 28224
0.16150000 0.16150500 9638.88048313 0 193.78095015 0 2500.59516162 0 230.42547153 0 728.09516606 0 28075
0.16250000 0.16249700 9444.13620921 0 146.25997512 0 2604.76227194 0 171.05909876 0 557.39689219 0 28590
0.16350000 0.16349900 9290.91489910 0 146.35889284 0 2371.94591400 0 -0.21059584 0 651.32714189 0 29163
0.16450000 0.16449100 9097.17104310 0 185.64609121 0 2501.70798604 0 -132.47106886 0 -26.32279385 0 28996
0.16550000 0.16550500 9069.84502117 0 208.78721887 0 2642.53085840 0 -363.38888090 0 727.86922898 0 30777
0.16650000 0.16650700 8775.08143705 0 233.99662627 0 2620.28561060 0 -297.97391397 0 -136.43227418 0 29211
0.16750000 0.16749900 8789.05356591 0 189.27794546 0 3263.29579502 0 -419.72140203 0 551.26848941 0 30922
0.16850000 0.16850800 8674.98344229 0 139.87753363 0 3338.97909639 0 -177.45053276 0 364.77148094 0 30867
0.16950000 0.16949900 8660.65161261 0 62.71204005 0 3748.83570334 0 148.21360021 0 852.55502315 0 30852
0.17050000 0.17049200 8737.16672214 0 -7.51835420 0 3416.87680595 0 429.25684605 0 586.70014458 0 31257
0.17150000 0.17149500 8723.41940629 0 -58.16519683 0 3529.89030840 0 547.24883271 0 984.11222711 0 32608
0.17250000 0.17250900 8719.04679316 0 -10.27221247 0 3001.00645086 0 531.31296217 0 1029.98307461 0 32361
0.17350000 0.17350400 8797.28172225 0 -36.24941251 0 2693.58589402 0 475.59867682 0 1013.04341396 0 32508
0.17450000 0.17449800 8705.00722040 0 79.34494335 0 2283.11105127 0 201.15594109 0 947.30022003 0 32791
0.17550000 0.17549800 8582.22559246 0 147.91010264 0 2208.99020035 0 141.64343986 0 627.33959323 0 33633
0.17650000 0.17650100 8402.98217590 0 193.81017584 0 1908.12294289 0 112.88311090 0 667.70139781 0 33984
0.17750000 0.17750300 8288.09148478 0 229.45203118 0 2006.37747093 0 93.43554866 0 526.48060642 0 34069
