### header ###
fiducial parameters:
Omega_m = 0.31
Omega_nu = 0
Omega_de = 0.69
Omega_k = 0
H_0 = 100
w_de = -1
zeff = 0
beta = 0
fgrowth = 0
b_1 = 2
gamma = 0.55
Lx = 3500 Ly = 3500 Lz = 3500
nx = 700 ny = 700 nz = 700
xoffset = 857.220397 yoffset = 15.9954215 zoffset = 262.898189
bins = 400 dk = 0.001
kx_ny = 0.628318531 ky_ny = 0.628318531 kz_ny = 0.628318531
############################
A(data) = 3.05965818 (not used)
A(ran) = 3.06260536 (used)
Ngal = 187179
weighted Ngal = 0
Nran = 9360983
weighted Nran = 0
SN(data) = 3430.25641
SN(ran) = 68.7746065
SN(data+ran) = 3499.03101
############################
13 columns: k_central k_mean P_0(k) sigma^{lin}_{P_0(k)} P^img_1(k) sigma^{lin}_{P_1(k)} P_2(k) sigma^{lin}_{P_2(k)} P^img_3(k) sigma^{lin}_{P_3(k)} P_4(k) sigma^{lin}_{P_4(k)} N_modes
### header ###
0.00050000 0 0 0 0 0 0 0 0 0 0 0 0
0.00150000 0.00179520 759.01819622 0 -5733.09157363 0 -968.04708908 0 -2423.09087483 0 17582.96309294 0 3
0.00250000 0.00253879 13080.18322312 0 -21750.54675796 0 -22167.12527405 0 31710.10052514 0 46570.91523055 0 6
0.00350000 0.00331552 25889.12954410 0 -33598.75466096 0 -28804.95434372 0 -4491.56170039 0 -37925.61834684 0 7
0.00450000 0.00420575 52958.52741495 0 -41190.91497769 0 -49422.44350799 0 10299.78578351 0 13969.88072848 0 24
0.00550000 0.00557378 84311.62487287 0 -31674.46766232 0 -63964.13613915 0 -1371.13457617 0 37442.83239795 0 45
0.00650000 0.00659388 101000.16938715 0 -9509.75912818 0 -65611.45350378 0 7507.32712566 0 32979.16999267 0 40
0.00750000 0.00754703 95497.42122830 0 -7128.66332448 0 -72645.40310521 0 3319.99363730 0 59640.75705500 0 57
0.00850000 0.00846663 96736.59056488 0 -2877.94380666 0 -62811.63221971 0 8521.78461348 0 54951.49478955 0 75
0.00950000 0.00948925 103560.33999764 0 -8879.67569210 0 -62992.60669647 0 -10216.89722502 0 48412.24622680 0 112
0.01050000 0.01054430 94325.69579610 0 -9360.96663445 0 -69056.48813981 0 -4405.51451905 0 24362.87398784 0 105
0.01150000 0.01145670 105248.12370489 0 -1638.29112209 0 -53832.03838325 0 -38178.30817527 0 26374.05121663 0 144
0.01250000 0.01249090 98258.23745433 0 2638.92260951 0 -63359.16431681 0 -24322.07042569 0 18373.63046536 0 169
0.01350000 0.01339930 87094.92240037 0 9481.30904118 0 -50125.32139820 0 -19224.43531918 0 11805.60583673 0 180
0.01450000 0.01448870 83490.94496300 0 7322.32849593 0 -46809.89146510 0 -23585.92020932 0 8830.82382403 0 267
0.01550000 0.01550050 81301.04138759 0 7626.34313560 0 -21363.75596631 0 -17955.70307118 0 -1110.21097107 0 238
0.01650000 0.01653350 78638.24363593 0 2274.98406079 0 -19624.71489172 0 -6822.56916443 0 26421.14954319 0 315
0.01750000 0.01747870 83670.68296819 0 -615.74823420 0 -44.16822614 0 -9452.36436555 0 39863.05690684 0 297
0.01850000 0.01844180 87166.52534553 0 -359.31976533 0 13349.62162114 0 -5098.77041223 0 49377.36849856 0 388
0.01950000 0.01947590 92255.05552494 0 2550.08774678 0 32224.92232862 0 7553.20022129 0 40232.53709636 0 399
0.02050000 0.02045430 90601.21858289 0 4168.30306667 0 39725.13412237 0 6491.28470608 0 53229.87672359 0 462
0.02150000 0.02154770 85756.38571133 0 6678.68883507 0 36117.78448978 0 2967.80156860 0 35818.22114780 0 571
0.02250000 0.02255340 85113.87011554 0 4841.07849422 0 36647.55635873 0 15715.77860001 0 41889.40901411 0 510
0.02350000 0.02348930 72016.15147728 0 5005.15827294 0 26979.58507151 0 4844.67550245 0 19774.66517247 0 555
0.02450000 0.02439640 71554.27313875 0 2399.11456682 0 21191.21197759 0 9829.49943822 0 9961.93678514 0 592
0.02550000 0.02547300 67066.10611488 0 -585.61317365 0 13212.37327571 0 -151.29353851 0 4711.24897828 0 837
0.02650000 0.02652900 69262.97889374 0 1793.64815584 0 17526.08540024 0 -8695.17165101 0 -1032.12666671 0 723
0.02750000 0.02749970 67088.36260333 0 933.96318794 0 16016.69082008 0 -8247.46777304 0 12321.32689227 0 826
0.02850000 0.02848090 70673.45574747 0 1982.60349463 0 34082.32745541 0 -7419.36903369 0 3087.60442409 0 831
0.02950000 0.02946900 69610.76462736 0 1933.88651436 0 35431.65516916 0 -6068.27653778 0 5987.28764926 0 996
0.03050000 0.03053250 67917.81022077 0 2311.25764070 0 40946.20601127 0 4267.96267605 0 13389.75074425 0 1041
0.03150000 0.03150510 67492.91362313 0 2978.01932011 0 46385.78171302 0 7878.27984043 0 13038.36800240 0 1036
0.03250000 0.03246190 66466.75461790 0 1247.76843439 0 34364.91741479 0 14545.85167193 0 15429.81644542 0 1059
0.03350000 0.03345080 63630.96325149 0 1339.10996223 0 37843.11197048 0 15957.11537121 0 7794.27845752 0 1302
0.03450000 0.03451200 61449.15294460 0 885.87568411 0 20915.25400214 0 10515.77488730 0 12011.75937114 0 1339
0.03550000 0.03553350 59205.06943267 0 1236.58398692 0 22250.64330898 0 6122.99602553 0 6966.15723687 0 1365
0.03650000 0.03647120 58242.30769756 0 3636.97998792 0 15747.81445460 0 -1718.52688701 0 5095.02727553 0 1308
0.03750000 0.03744890 55105.49170457 0 2714.67335479 0 12814.00461381 0 -2136.17326492 0 3016.34993911 0 1579
0.03850000 0.03847530 52821.61628904 0 1744.38038369 0 14275.51402185 0 -3015.33828054 0 -1791.42250700 0 1662
0.03950000 0.03950240 51361.00613306 0 67.20088152 0 13405.15043575 0 849.14348565 0 -827.32763071 0 1683
0.04050000 0.04050350 50777.05432758 0 -772.31363790 0 13389.75074425 0 2488.03935475 0 -9145.94422662 0 1822
0.04150000 0.04152450 51643.14646641 0 -1205.61599415 0 6977.71262582 0 5494.56496512 0 -10956.47583986 0 1887
0.04250000 0.04250150 49799.23012050 0 466.61402469 0 6418.74878692 0 3343.95870466 0 -14669.83604949 0 1920
0.04350000 0.04349210 48797.12610783 0 1989.38160702 0 3351.42249675 0 433.40577023 0 -11761.31767285 0 2005
0.04450000 0.04448520 46548.88355512 0 2250.53564545 0 5419.03903286 0 -3053.23051415 0 -15095.74430569 0 2151
0.04550000 0.04548030 45178.87304403 0 2977.85071035 0 4738.02420832 0 -4713.29477671 0 -10121.74511658 0 2274
0.04650000 0.04648670 43880.24066508 0 1173.28788265 0 8418.03340723 0 -1443.85034575 0 -8269.98279646 0 2311
0.04750000 0.04749250 43262.90412693 0 550.29280093 0 8547.17724348 0 -2273.62394206 0 -9728.68204182 0 2568
0.04850000 0.04851840 44188.12208860 0 60.16502101 0 12265.01123211 0 -551.84625886 0 -5382.97902531 0 2493
0.04950000 0.04949480 42800.12653634 0 486.39644591 0 11057.86650945 0 2294.75636543 0 -9917.31140173 0 2644
0.05050000 0.05050630 43233.56602852 0 1261.87545106 0 13351.19531224 0 1146.05178593 0 -4466.60745577 0 2829
0.05150000 0.05149060 41125.83160996 0 1522.19768134 0 8791.52650907 0 985.85115578 0 -3948.41345707 0 2784
0.05250000 0.05249300 40858.97856160 0 1796.70561284 0 16928.30759437 0 -104.15339673 0 -148.91838901 0 3055
0.05350000 0.05348950 38500.01559920 0 1893.72366930 0 11646.66303539 0 -100.89180951 0 -3956.91138902 0 3009
0.05450000 0.05448610 39055.64096483 0 1159.56304811 0 21265.62508543 0 -1319.43882345 0 6556.98630961 0 3336
0.05550000 0.05550870 37727.67048747 0 631.19626050 0 17680.98156731 0 511.34507021 0 2466.47978665 0 3349
0.05650000 0.05647670 39294.16757334 0 79.52591782 0 22789.85732455 0 1848.74982573 0 9311.58645579 0 3324
0.05750000 0.05747970 38537.89659216 0 -644.84915488 0 20765.07890837 0 4324.70548094 0 6864.99138029 0 3639
0.05850000 0.05849280 38888.26767544 0 245.61383880 0 19835.13987340 0 5944.44952932 0 8017.12435826 0 3846
0.05950000 0.05951020 37460.92984562 0 748.35756307 0 17044.64832943 0 4439.01165822 0 8077.14943317 0 3787
0.06050000 0.06049470 36545.49125009 0 1174.99646156 0 12012.65862320 0 2792.12143832 0 7266.49618375 0 3930
0.06150000 0.06148310 35688.16681884 0 751.67243097 0 10741.40846942 0 993.95791308 0 5484.16736319 0 4083
0.06250000 0.06249100 34195.18358875 0 1076.45417286 0 9058.52568589 0 -518.93925384 0 2488.14052061 0 4303
0.06350000 0.06350600 33362.13896307 0 832.06444093 0 7220.01609298 0 -487.34515683 0 301.55293716 0 4470
0.06450000 0.06451750 32868.78680249 0 989.90116223 0 7059.30850947 0 -2313.73058386 0 -2026.48699508 0 4479
0.06550000 0.06550280 31594.65904213 0 1130.11254319 0 8813.43453735 0 -2363.94257068 0 -1422.24581504 0 4636
0.06650000 0.06648880 31654.12208450 0 649.18579793 0 8078.08240718 0 -792.71654305 0 -4186.50168020 0 4653
0.06750000 0.06749660 31230.23714543 0 179.49970339 0 9692.79064403 0 130.94121630 0 -3876.28220133 0 5220
0.06850000 0.06852730 31316.56534305 0 503.96670707 0 10099.00528015 0 -678.45870056 0 -2068.13360604 0 5029
0.06950000 0.06949320 30661.23540543 0 308.88633770 0 10030.43731069 0 1847.32226308 0 -5297.05549112 0 5040
0.07050000 0.07048030 30678.20878804 0 432.14456922 0 10445.47585763 0 318.46674432 0 -1338.09830367 0 5475
0.07150000 0.07148790 30104.26116171 0 405.18724064 0 10655.75471085 0 871.31342109 0 -2376.11619542 0 5509
0.07250000 0.07249820 30441.93030967 0 820.89910256 0 11980.28554909 0 843.27024564 0 -1580.51417733 0 5916
0.07350000 0.07351270 30077.95803900 0 610.58652738 0 12336.83899028 0 -480.94585437 0 -623.08275880 0 5721
0.07450000 0.07449140 28563.28035300 0 1267.75431139 0 12257.03037009 0 -1123.58397325 0 -2514.45488397 0 6028
0.07550000 0.07549160 28697.60612923 0 1265.20268368 0 13583.08993682 0 -799.16642844 0 2061.26556845 0 6183
0.07650000 0.07648840 26786.35828544 0 780.18996187 0 12974.63351275 0 447.13510104 0 -144.90435264 0 6330
0.07750000 0.07749960 26777.14095185 0 672.11560135 0 13411.55760667 0 2082.27434466 0 1355.98217898 0 6583
0.07850000 0.07848650 25807.97204582 0 -119.60839223 0 11344.73915676 0 2563.64397157 0 -658.82577999 0 6549
0.07950000 0.07947320 25523.80839534 0 339.04050735 0 10182.57951833 0 3376.83760805 0 1471.33373678 0 6828
0.08050000 0.08048110 25324.17443836 0 168.29614681 0 8386.96424861 0 1986.79625735 0 1072.83580739 0 7147
0.08150000 0.08149960 23976.30800920 0 754.94121220 0 7618.36227358 0 1839.90343360 0 2531.09104705 0 7386
0.08250000 0.08250610 24470.33460883 0 664.53940276 0 7848.79561357 0 390.54854119 0 2968.46476699 0 7227
0.08350000 0.08350160 23228.80473559 0 468.86777516 0 6741.45662875 0 891.03739093 0 2085.95003745 0 7798
0.08450000 0.08449610 23402.36038288 0 300.86051308 0 8317.98037508 0 -371.67998488 0 4582.74585912 0 7371
0.08550000 0.08548940 22658.11689798 0 78.87137473 0 6975.95908430 0 89.15477165 0 2811.54528279 0 8256
0.08650000 0.08650700 22812.22621950 0 -37.97260427 0 8443.52720309 0 1253.42248171 0 4420.83552599 0 8037
0.08750000 0.08749060 23053.45058419 0 109.72977115 0 6893.00308191 0 869.97465959 0 3172.15659889 0 8155
0.08850000 0.08849210 22692.06366319 0 608.98023839 0 7520.87210979 0 708.85454420 0 3682.42593882 0 8718
0.08950000 0.08949900 22061.57556369 0 688.95522021 0 5945.09024642 0 108.89031935 0 3525.33784486 0 8571
0.09050000 0.09049190 21301.81998078 0 669.94727983 0 6517.86884506 0 -6.55680646 0 2727.06055189 0 8932
0.09150000 0.09150830 20978.65127226 0 382.16526388 0 6293.43801257 0 -879.35498262 0 1602.24235520 0 9285
0.09250000 0.09250820 20919.41304291 0 123.98437756 0 6071.90726796 0 -325.01442337 0 1073.16403439 0 9204
0.09350000 0.09350330 20838.25554463 0 160.75479423 0 7574.24271946 0 -877.15743540 0 1070.82035872 0 9349
0.09450000 0.09448040 20696.51093892 0 111.62561930 0 5840.58591657 0 105.74844507 0 -585.24448031 0 9564
0.09550000 0.09549270 20693.58836973 0 301.28878187 0 7894.34273033 0 532.53144871 0 1191.92488156 0 10155
0.09650000 0.09649430 20438.76281765 0 263.12340044 0 6021.34682097 0 346.42224268 0 8.88974732 0 9913
0.09750000 0.09749140 20343.55450596 0 428.32836830 0 7860.50837163 0 802.61056382 0 1639.17913350 0 10476
0.09850000 0.09850240 19911.46389186 0 396.65895893 0 7223.44449145 0 739.08402621 0 2074.32720460 0 10575
0.09950000 0.09950330 19433.39901627 0 342.96237039 0 6697.33707463 0 56.50506513 0 936.27426573 0 10882
0.10050000 0.10051200 19500.84292066 0 46.66308857 0 7009.17520721 0 607.24130972 0 2504.68675848 0 10875
0.10150000 0.10150300 18968.48570204 0 287.08846780 0 6535.14572524 0 593.04661598 0 553.97523811 0 11118
0.10250000 0.10250800 18976.24175104 0 398.30796239 0 6042.22070938 0 450.19930243 0 2151.05588649 0 11575
0.10350000 0.10349800 18062.03962709 0 646.56110598 0 6018.73899000 0 632.60358997 0 455.69373250 0 11364
0.10450000 0.10450100 17841.49805975 0 642.08845106 0 5674.43785811 0 512.65573008 0 1310.10908335 0 12093
0.10550000 0.10551000 16949.55242425 0 382.38895283 0 5594.37070296 0 386.57609522 0 896.23506782 0 12067
0.10650000 0.10649700 16942.47081429 0 172.94415589 0 5185.69436433 0 380.53761765 0 1458.50815430 0 12054
0.10750000 0.10749900 16845.35159197 0 99.82102513 0 5388.35205636 0 374.91054790 0 -11.60125081 0 12807
0.10850000 0.10850100 16800.61380206 0 19.96238404 0 4766.59794248 0 -599.20199632 0 -427.10426144 0 12736
0.10950000 0.10950300 16822.08344496 0 68.44780690 0 5143.01361351 0 -264.07548356 0 -456.21192650 0 12933
0.11050000 0.11050200 16731.03417404 0 73.61929308 0 5034.48513070 0 -238.02527549 0 -1253.17518740 0 13428
0.11150000 0.11150900 16746.09664602 0 174.20985316 0 4425.56783995 0 13.95414382 0 -1045.92456548 0 13453
0.11250000 0.11250000 16449.34346672 0 438.94179072 0 4897.01197226 0 55.75104228 0 -1420.15505400 0 13668
0.11350000 0.11349100 16271.06674612 0 443.95512095 0 4910.14105231 0 -144.71663377 0 -635.86225462 0 13791
0.11450000 0.11448600 15729.71700692 0 409.92292679 0 5468.08199200 0 293.14942667 0 -240.21832645 0 14205
0.11550000 0.11549300 15807.38990347 0 122.53658175 0 5240.13283582 0 207.48330339 0 564.79324037 0 14776
0.11650000 0.11649800 15579.65431966 0 21.53270295 0 5619.47107604 0 546.42376894 0 1011.41351960 0 14553
0.11750000 0.11747300 15651.14485831 0 -16.54961007 0 5372.94112421 0 696.02558952 0 1413.93897415 0 14568
0.11850000 0.11849100 15615.84921501 0 158.57073580 0 5278.96928410 0 293.33714554 0 1260.93123640 0 16015
0.11950000 0.11950300 15365.63232974 0 292.91562114 0 4882.37664501 0 46.00359959 0 1032.14352768 0 15270
0.12050000 0.12050700 15108.67105403 0 375.38040710 0 5241.32434480 0 -186.56782457 0 1511.17060297 0 15999
0.12150000 0.12150000 14751.10595428 0 281.78288065 0 4809.60467217 0 -38.67143552 0 438.94741105 0 15670
0.12250000 0.12250700 14542.92910274 0 317.00208752 0 5387.37411975 0 -195.98861395 0 1458.46319170 0 16887
0.12350000 0.12352200 14169.85190498 0 337.74558438 0 4810.84114375 0 444.25412226 0 697.24070387 0 16407
0.12450000 0.12449800 13909.51843405 0 366.16194943 0 5449.71476870 0 197.21047268 0 1310.58119068 0 16306
0.12550000 0.12549900 13619.39723868 0 320.56649787 0 4703.94255530 0 752.41993424 0 786.75225377 0 17523
0.12650000 0.12650100 13573.76019672 0 133.18147799 0 4991.99547093 0 388.87031204 0 1398.84278022 0 17154
0.12750000 0.12750600 13179.32576257 0 -100.40475212 0 4233.35271245 0 736.13223133 0 1055.58478072 0 18007
0.12850000 0.12850300 13630.97510894 0 -107.70207017 0 4453.01750903 0 193.41900119 0 1581.78437087 0 17496
0.12950000 0.12949900 13612.09081571 0 -197.52858310 0 3894.35716770 0 0.18010108 0 483.31201135 0 18405
0.13050000 0.13049000 13716.85368052 0 130.95470508 0 4294.76038739 0 -556.14805589 0 814.08839228 0 18100
0.13150000 0.13148800 13659.63876830 0 271.23915027 0 4119.24886688 0 -429.57270834 0 476.63281669 0 19059
0.13250000 0.13249300 13354.45510095 0 358.07879749 0 4625.76382947 0 -67.62881309 0 245.54976709 0 18957
0.13350000 0.13349100 13014.08819682 0 322.21662540 0 4252.45057804 0 367.37369158 0 212.94288745 0 19468
0.13450000 0.13450700 12772.30179960 0 184.83226810 0 4163.13236733 0 828.57534294 0 21.42726564 0 19953
0.13550000 0.13551000 12560.52793982 0 157.21061706 0 3590.70222886 0 827.74915511 0 271.05143140 0 19956
0.13650000 0.13649900 12290.30269625 0 199.65081796 0 3458.51217626 0 754.57589105 0 462.88437678 0 19723
0.13750000 0.13749600 12231.85131245 0 38.90310533 0 2950.07506240 0 415.33642418 0 315.26091073 0 20946
0.13850000 0.13851100 12280.74814313 0 -12.26770899 0 3254.32575573 0 143.08786348 0 788.93968440 0 20955
0.13950000 0.13949800 12321.55170528 0 27.23182527 0 3102.28471394 0 195.52212695 0 905.28379166 0 20506
0.14050000 0.14048300 12287.49253357 0 115.21217373 0 3168.63827521 0 -171.49748414 0 1037.13662474 0 21447
0.14150000 0.14148400 12231.62649944 0 241.86395771 0 3423.80104680 0 -142.10430654 0 524.06161838 0 21771
0.14250000 0.14249400 11946.45119039 0 310.36448327 0 3356.13232940 0 -408.49199195 0 664.24489771 0 22470
0.14350000 0.14350900 11691.73804483 0 338.87077352 0 3592.75926794 0 -164.66092036 0 572.65270336 0 22519
0.14450000 0.14449900 11574.38565119 0 112.92694944 0 3327.71596435 0 -46.53730568 0 69.01635902 0 22218
0.14550000 0.14550500 11362.27457190 0 63.93187547 0 3202.92225994 0 383.39386700 0 -35.26304541 0 23559
0.14650000 0.14650700 11353.16964481 0 91.07939586 0 2771.41615968 0 232.79724883 0 -292.44913413 0 23044
0.14750000 0.14750500 11146.04941444 0 223.34048937 0 2710.96394005 0 365.01652712 0 -320.40350844 0 23649
0.14850000 0.14849900 10881.54566209 0 282.00207334 0 2341.82097004 0 310.22959546 0 -394.72669107 0 23640
0.14950000 0.14949500 10617.33416666 0 173.25664598 0 2155.90060695 0 441.05952932 0 -101.08447427 0 24457
0.15050000 0.15050000 10637.65726318 0 49.46538279 0 2173.11004322 0 235.08472126 0 137.26520640 0 24591
0.15150000 0.15149900 10556.02765757 0 53.63375330 0 2107.72317792 0 -39.83855229 0 -63.65928969 0 25020
0.15250000 0.15250500 10570.79787263 0 93.95037047 0 2718.04555001 0 -340.26461421 0 -17.49337511 0 25297
0.15350000 0.15350100 10501.87020235 0 195.45468304 0 2893.83808679 0 -701.89545733 0 221.84435876 0 25452
0.15450000 0.15450400 10587.28790725 0 139.74601802 0 3377.37715928 0 -426.85359492 0 523.97956163 0 26061
0.15550000 0.15549900 10515.71868405 0 104.68406785 0 3885.13983410 0 -285.62381101 0 449.03477101 0 26128
0.15650000 0.15649500 10519.83276222 0 162.50721168 0 4102.54525989 0 106.77145669 0 733.12310913 0 26331
0.15750000 0.15749700 10370.08481318 0 171.77175602 0 3979.83107586 0 238.85820771 0 679.66369832 0 27345
0.15850000 0.15849900 10309.27289272 0 242.01233430 0 4161.44626972 0 306.79332853 0 1293.45043896 0 26980
0.15950000 0.15949700 10019.08425345 0 175.01468375 0 3710.68493476 0 295.54031308 0 889.02981070 0 27777
0.16050000 0.16050000 9890.17647087 0 91.61579972 0 3916.11906752 0 262.03642952 0 1345.26983883 0 28224
0.16150000 0.16150500 9871.10108658 0 106.95557855 0 3758.85112314 0 9.89973102 0 838.65033819 0 28075
0.16250000 0.16249700 9787.40320123 0 83.71126172 0 3631.95541704 0 1.35329566 0 1023.38818483 0 28590
0.16350000 0.16349900 9577.78754640 0 240.16774352 0 3759.18834266 0 -57.93071686 0 1027.90580236 0 29163
0.16450000 0.16449100 9508.09551187 0 115.81354855 0 3204.40602584 0 271.42349694 0 811.73122782 0 28996
0.16550000 0.16550500 9334.05651660 0 34.58770711 0 3148.66363886 0 321.80858978 0 425.27877976 0 30777
0.16650000 0.16650700 9263.63383977 0 127.38355034 0 2862.80265012 0 147.47621353 0 33.20263413 0 29211
0.16750000 0.16749900 9089.17894043 0 186.18002212 0 2733.64757322 0 115.37853536 0 43.47096857 0 30922
0.16850000 0.16850800 8933.15870828 0 256.11260658 0 2811.25302587 0 99.73761950 0 18.81134140 0 30867
0.16950000 0.16949900 8660.86518498 0 259.62193774 0 2656.72780027 0 28.90870555 0 452.27095436 0 30852
0.17050000 0.17049200 8535.99279600 0 135.97815189 0 2707.79407654 0 300.01634021 0 278.34886186 0 31257
0.17150000 0.17149500 8428.10503029 0 56.41660121 0 2776.40700860 0 279.10985391 0 508.32358329 0 32608
0.17250000 0.17250900 8492.67132809 0 -20.81622387 0 2794.50445628 0 337.08800632 0 889.38501527 0 32361
0.17350000 0.17350400 8458.40982466 0 -55.10020860 0 2549.95285898 0 155.12322822 0 614.71971466 0 32508
0.17450000 0.17449800 8490.54684510 0 13.71123336 0 2468.88528590 0 37.24274881 0 741.06912513 0 32791
0.17550000 0.17549800 8439.41312492 0 104.83750273 0 2404.65620763 0 -91.38694007 0 401.16758394 0 33633
0.17650000 0.17650100 8475.14715360 0 69.15360736 0 2408.50051018 0 -5.56171661 0 565.34290819 0 33984
0.17750000 0.17750300 8385.99755265 0 82.16207523 0 2258.55022943 0 83.72340162 0 99.59846024 0 34069
0.17850000 0.17849800 8326.84924850 0 96.26830506 0 2362.48128608 0 96.18400017 0 495.48676016 0 34536
