### header ###
fiducial parameters:
Omega_m = 0.31
Omega_nu = 0
Omega_de = 0.69
Omega_k = 0
H_0 = 100
w_de = -1
zeff = 0
beta = 0
fgrowth = 0
b_1 = 2
gamma = 0.55
Lx = 3500 Ly = 3500 Lz = 3500
nx = 700 ny = 700 nz = 700
xoffset = 857.220397 yoffset = 15.9954215 zoffset = 262.898189
bins = 400 dk = 0.001
kx_ny = 0.628318531 ky_ny = 0.628318531 kz_ny = 0.628318531
############################
A(data) = 3.13109622 (not used)
A(ran) = 3.13027052 (used)
Ngal = 191049
weighted Ngal = 0
Nran = 9360983
weighted Nran = 0
SN(data) = 3451.32601
SN(ran) = 70.2941118
SN(data+ran) = 3521.62013
############################
13 columns: k_central k_mean P_0(k) sigma^{lin}_{P_0(k)} P^img_1(k) sigma^{lin}_{P_1(k)} P_2(k) sigma^{lin}_{P_2(k)} P^img_3(k) sigma^{lin}_{P_3(k)} P_4(k) sigma^{lin}_{P_4(k)} N_modes
### header ###
0.00050000 0 0 0 0 0 0 0 0 0 0 0 0
0.00150000 0.00179520 3773.63257885 0 -9323.09688214 0 -10548.44021833 0 20088.27932786 0 2635.82018991 0 3
0.00250000 0.00253879 13570.27559499 0 -17622.86740303 0 -11314.50180629 0 -472.30404209 0 22951.83510158 0 6
0.00350000 0.00331552 25691.63131075 0 -23956.74927693 0 -25428.48767714 0 8758.28790486 0 -30581.98881778 0 7
0.00450000 0.00420575 45055.33829250 0 -29823.13248693 0 -37063.01080975 0 2516.20842548 0 -6802.75189719 0 24
0.00550000 0.00557378 76831.19662441 0 -32550.33916728 0 -72251.30589058 0 1075.53918389 0 1744.16681132 0 45
0.00650000 0.00659388 94040.63289356 0 -23237.57244316 0 -47693.51901906 0 -58429.35212572 0 -56214.94393172 0 40
0.00750000 0.00754703 106822.48924628 0 -13422.68585089 0 -76604.36029266 0 -46926.79423270 0 -18924.08513165 0 57
0.00850000 0.00846663 107735.11767913 0 526.85941635 0 -50556.73757326 0 -61862.13445246 0 -32475.92605944 0 75
0.00950000 0.00948925 100130.25542707 0 15585.83667756 0 -41814.20906072 0 -68427.79854443 0 -9823.14847056 0 112
0.01050000 0.01054430 82169.26925005 0 14592.94999849 0 940.98522245 0 -46729.29599935 0 -32314.84753447 0 105
0.01150000 0.01145670 75589.10471864 0 9298.83955786 0 4508.40019519 0 -22749.61579493 0 -33051.11015735 0 144
0.01250000 0.01249090 72266.03114303 0 -2761.32205532 0 11852.47935028 0 -7329.85973192 0 -46552.36815685 0 169
0.01350000 0.01339930 84607.70361313 0 -8205.33781410 0 6933.30081478 0 4508.00677241 0 -56900.39881329 0 180
0.01450000 0.01448870 86159.58785305 0 -4334.29375601 0 7978.44527910 0 -11833.59505705 0 -53215.82591018 0 267
0.01550000 0.01550050 92142.08698510 0 1272.12692453 0 13599.95091292 0 -14131.63369249 0 -45964.48212362 0 238
0.01650000 0.01653350 86987.34937288 0 5354.51769766 0 3695.48757497 0 -7178.99895846 0 -30776.00244940 0 315
0.01750000 0.01747870 83069.08334107 0 10873.72216918 0 8135.22987549 0 -2629.10952142 0 -48414.15713742 0 297
0.01850000 0.01844180 76934.94783066 0 6523.44420783 0 10148.74515963 0 4779.17623064 0 -28236.51463625 0 388
0.01950000 0.01947590 69352.56688007 0 3684.59538441 0 19208.81081467 0 2851.02244815 0 -33150.58991632 0 399
0.02050000 0.02045430 63856.33829864 0 3014.34910328 0 14899.03291790 0 1064.67959122 0 -21954.11494270 0 462
0.02150000 0.02154770 61882.14281076 0 2009.07522710 0 27415.04788083 0 -1038.84295552 0 -9517.51517718 0 571
0.02250000 0.02255340 59623.22163986 0 -38.12401583 0 12579.41223305 0 6857.76364187 0 -10460.65073612 0 510
0.02350000 0.02348930 63760.45554791 0 131.34363160 0 25319.22855204 0 4014.95810940 0 -434.51185027 0 555
0.02450000 0.02439640 59898.61758277 0 -1824.50374210 0 7839.84805558 0 7841.72524426 0 -7736.27669975 0 592
0.02550000 0.02547300 62302.99277413 0 68.79177082 0 10564.00851959 0 3387.02163761 0 -634.85284418 0 837
0.02650000 0.02652900 61844.03700478 0 644.47484121 0 -344.00999904 0 1712.46817626 0 -10218.31354701 0 723
0.02750000 0.02749970 60129.50054878 0 2862.16193303 0 4332.02314457 0 -5644.42532066 0 194.89714676 0 826
0.02850000 0.02848090 59585.67786642 0 2873.17777075 0 4138.42541703 0 -5962.46829245 0 -6800.30143533 0 831
0.02950000 0.02946900 58855.03556890 0 2507.62056832 0 10273.93228682 0 -3820.75338672 0 3914.14071299 0 996
0.03050000 0.03053250 57423.53869831 0 1363.03006699 0 12053.91181138 0 -479.30247123 0 1450.36992317 0 1041
0.03150000 0.03150510 56683.67906720 0 1522.86087973 0 13746.19177893 0 4194.51626417 0 1498.28881724 0 1036
0.03250000 0.03246190 55771.05063435 0 1693.06681310 0 19484.43157059 0 5632.95985692 0 7655.23160798 0 1059
0.03350000 0.03345080 53411.75045242 0 2252.32290892 0 12225.21932852 0 3653.72855751 0 3542.03021119 0 1302
0.03450000 0.03451200 51347.29253917 0 2846.43626266 0 17292.16745853 0 4048.19671361 0 7994.63181615 0 1339
0.03550000 0.03553350 45884.44869041 0 2794.22344001 0 9966.20823241 0 894.40733801 0 1013.54137479 0 1365
0.03650000 0.03647120 46480.20317916 0 1845.89470044 0 14422.09210738 0 2188.82447294 0 8436.04092970 0 1308
0.03750000 0.03744890 43686.56425298 0 621.76985079 0 14416.80900154 0 -44.46306841 0 1772.11106904 0 1579
0.03850000 0.03847530 47335.84151280 0 -1163.87945799 0 12483.30466930 0 -2495.14344601 0 6705.96989440 0 1662
0.03950000 0.03950240 45840.27293304 0 -1115.63233692 0 16776.67121600 0 -1777.54030335 0 455.91966958 0 1683
0.04050000 0.04050350 51192.95840463 0 -500.20221314 0 18465.01695580 0 -1101.80184026 0 10142.56280173 0 1822
0.04150000 0.04152450 48802.74643319 0 930.24815287 0 18132.06888115 0 2287.95577174 0 8918.79315665 0 1887
0.04250000 0.04250150 49872.74397628 0 2569.70268231 0 23416.41119629 0 3769.50726003 0 11661.72550737 0 1920
0.04350000 0.04349210 43972.07678155 0 2687.86440279 0 21049.80459139 0 5414.03694328 0 8001.65722286 0 2005
0.04450000 0.04448520 44492.40650389 0 1256.34505090 0 21769.31864468 0 6490.02575320 0 12396.63925217 0 2151
0.04550000 0.04548030 42737.29129875 0 -285.88684224 0 13948.07386606 0 4499.65496892 0 7310.48085006 0 2274
0.04650000 0.04648670 43063.38257646 0 -1206.33539580 0 14202.22497909 0 229.42730174 0 112.91795692 0 2311
0.04750000 0.04749250 43123.74487088 0 -169.14481594 0 13044.10073427 0 -4430.33387586 0 -1691.09969922 0 2568
0.04850000 0.04851840 43669.81568339 0 668.18699392 0 14098.81099236 0 -6012.17444998 0 -4849.34037251 0 2493
0.04950000 0.04949480 43294.82757501 0 1367.62749314 0 14912.52169878 0 -6212.56153056 0 -9704.14370127 0 2644
0.05050000 0.05050630 41457.43080652 0 728.96631649 0 16938.87380605 0 -2637.42760296 0 -11248.40678000 0 2829
0.05150000 0.05149060 40829.41565018 0 -130.91985906 0 17412.55482786 0 2507.47443986 0 -15644.06324835 0 2784
0.05250000 0.05249300 41123.35866679 0 14.14737060 0 16610.42199169 0 1231.71678515 0 -13375.58752433 0 3055
0.05350000 0.05348950 41369.86613733 0 785.10662250 0 15763.43895911 0 4089.14640422 0 -12542.65530516 0 3009
0.05450000 0.05448610 39920.15941255 0 1093.17014456 0 14733.00850660 0 152.61319091 0 -9334.98949061 0 3336
0.05550000 0.05550870 39263.93022287 0 1962.48272982 0 15875.73305992 0 1342.66200786 0 -6239.17939149 0 3349
0.05650000 0.05647670 37973.05389293 0 2058.07322364 0 15099.67853345 0 -696.24815441 0 -6452.14476024 0 3324
0.05750000 0.05747970 37333.79808586 0 1700.89030601 0 15723.42224251 0 296.63065621 0 731.62135819 0 3639
0.05850000 0.05849280 35951.08563944 0 1358.26403108 0 17182.00908136 0 1304.16277911 0 -3206.23825190 0 3846
0.05950000 0.05951020 36078.66702523 0 -131.66623827 0 17327.80032134 0 2243.91490217 0 3672.57912878 0 3787
0.06050000 0.06049470 35296.76736039 0 178.71060971 0 14563.83671310 0 4450.75813824 0 -783.16311399 0 3930
0.06150000 0.06148310 37070.99167176 0 -320.73847983 0 15827.73548129 0 3335.80923288 0 4082.21092272 0 4083
0.06250000 0.06249100 35136.36327445 0 188.92836123 0 12922.81411288 0 3657.53913810 0 2256.76296596 0 4303
0.06350000 0.06350600 35398.15802998 0 -77.05061413 0 8721.87943714 0 4036.13549537 0 1372.40476970 0 4470
0.06450000 0.06451750 34832.19126567 0 372.08802050 0 9088.78551765 0 846.32770264 0 1481.61893220 0 4479
0.06550000 0.06550280 33834.02148076 0 1019.66865350 0 5477.99624594 0 783.73189092 0 349.41900017 0 4636
0.06650000 0.06648880 32678.70739863 0 1564.03538336 0 7142.39939968 0 -915.19692154 0 186.79600978 0 4653
0.06750000 0.06749660 30850.41555723 0 2179.46101088 0 6222.76804142 0 -1348.49590559 0 -9.59201821 0 5220
0.06850000 0.06852730 29621.70002583 0 1622.52048911 0 9372.72435512 0 -758.21898595 0 -288.62956101 0 5029
0.06950000 0.06949320 27972.24693756 0 1239.82129433 0 7495.00737246 0 -590.84794470 0 -242.13148520 0 5040
0.07050000 0.07048030 27872.87958510 0 599.77526951 0 11127.41241553 0 507.35688733 0 -154.71856479 0 5475
0.07150000 0.07148790 27595.34791855 0 195.16804645 0 9721.55546925 0 -385.39695096 0 -189.69272548 0 5509
0.07250000 0.07249820 27171.80019901 0 284.53009569 0 10594.34703591 0 202.99153936 0 1565.54163056 0 5916
0.07350000 0.07351270 27319.27753660 0 263.54267671 0 9210.96015045 0 531.65692608 0 242.31021155 0 5721
0.07450000 0.07449140 26869.76391387 0 168.94248423 0 7956.03142154 0 1636.56006188 0 650.29862235 0 6028
0.07550000 0.07549160 26247.14426988 0 181.68825809 0 7587.39428082 0 1988.69592733 0 -1517.27427632 0 6183
0.07650000 0.07648840 25891.37767424 0 622.90290839 0 5862.37029769 0 649.62530737 0 -2697.55384372 0 6330
0.07750000 0.07749960 25257.62978603 0 519.24499954 0 5386.90201242 0 69.78218455 0 -3567.10810297 0 6583
0.07850000 0.07848650 24541.37552145 0 585.90880277 0 6404.73169546 0 -1269.24931794 0 -3278.65052391 0 6549
0.07950000 0.07947320 24314.98881573 0 220.15826115 0 4795.56509941 0 -1162.47437665 0 -3185.17327244 0 6828
0.08050000 0.08048110 24346.79985730 0 222.06579958 0 6320.96636621 0 520.67143812 0 -3334.93246212 0 7147
0.08150000 0.08149960 24715.83042080 0 -114.94577031 0 7759.53360611 0 328.14606866 0 -1420.25621986 0 7386
0.08250000 0.08250610 24766.07612956 0 184.53101866 0 7396.17957123 0 1281.29929552 0 -1366.97553540 0 7227
0.08350000 0.08350160 24472.02070644 0 214.96395645 0 7653.37690061 0 801.34599061 0 -109.13514073 0 7798
0.08450000 0.08449610 23940.89995940 0 708.81407786 0 7733.03939234 0 344.60125726 0 470.19529601 0 7371
0.08550000 0.08548940 23506.33640214 0 1207.18968525 0 7824.93171206 0 -319.45479751 0 1478.35914349 0 8256
0.08650000 0.08650700 22375.75175162 0 955.12371294 0 8640.54208845 0 -1321.82184141 0 1798.23434134 0 8037
0.08750000 0.08749060 21818.88991440 0 531.38827453 0 7426.93399163 0 -182.65607812 0 1381.76823176 0 8155
0.08850000 0.08849210 21673.88551998 0 234.60811767 0 8388.62786492 0 49.89500046 0 1069.22193818 0 8718
0.08950000 0.08949900 21551.36242701 0 -125.58954249 0 7930.71747609 0 550.88293509 0 1624.71241601 0 8571
0.09050000 0.09049190 21432.21152926 0 14.14725820 0 7727.52023283 0 1082.58369971 0 1147.98517785 0 8932
0.09150000 0.09150830 21433.89762687 0 428.59027546 0 8173.45932863 0 377.99048620 0 541.57005596 0 9285
0.09250000 0.09250820 21173.33934292 0 772.87904264 0 8313.19185787 0 -1068.58908955 0 1260.31300061 0 9204
0.09350000 0.09350330 20600.06615564 0 436.64869797 0 9843.67389879 0 -392.14696173 0 1517.64521779 0 9349
0.09450000 0.09448040 20522.50566560 0 431.69494319 0 9487.49139908 0 -753.50915330 0 1670.38317993 0 9564
0.09550000 0.09549270 20050.51074141 0 328.71484559 0 10053.06474061 0 136.91674623 0 179.05232549 0 10155
0.09650000 0.09649430 20502.72212031 0 97.57503070 0 10439.41714689 0 205.43076056 0 647.50307251 0 9913
0.09750000 0.09749140 19731.61348017 0 322.12220393 0 9402.50083890 0 655.50753990 0 -505.68652663 0 10476
0.09850000 0.09850240 19878.19156570 0 356.19149223 0 9781.87280108 0 427.22566046 0 -356.14315744 0 10575
0.09950000 0.09950330 19160.81323605 0 443.08621864 0 9218.08672301 0 262.82552320 0 -222.36367683 0 10882
0.10050000 0.10051200 19117.42432423 0 575.85741288 0 9770.20500562 0 -35.52596423 0 -124.12376163 0 10875
0.10150000 0.10150300 18593.16037413 0 340.37477259 0 10130.71515586 0 276.10635204 0 672.56185519 0 11118
0.10250000 0.10250800 18229.97494901 0 527.03252237 0 10433.89798738 0 499.96728354 0 890.72265270 0 11575
0.10350000 0.10349800 18070.35770863 0 223.57654304 0 10158.35591601 0 819.47491211 0 948.85480203 0 11364
0.10450000 0.10450100 17810.36145723 0 240.38468808 0 9719.06004479 0 1418.89610112 0 684.88498058 0 12093
0.10550000 0.10551000 17257.20903475 0 346.73360871 0 8810.19722994 0 1200.11931594 0 833.31102910 0 12067
0.10650000 0.10649700 17237.42548947 0 195.10397474 0 7566.02580378 0 1449.62804022 0 1539.03617614 0 12054
0.10750000 0.10749900 16199.23898795 0 313.91765296 0 6566.70947249 0 1350.54170403 0 560.80842968 0 12807
0.10850000 0.10850100 16357.05772422 0 375.77045768 0 6069.82774758 0 881.85265521 0 1974.55518871 0 12736
0.10950000 0.10950300 15365.96954926 0 214.39293139 0 5434.47244631 0 1200.37785091 0 1406.86860484 0 12933
0.11050000 0.11050200 15580.55357172 0 309.00211640 0 5484.03247538 0 352.70913864 0 2801.26008737 0 13428
0.11150000 0.11150900 15057.52609321 0 -29.70566769 0 5115.20424360 0 696.78433345 0 2658.25652877 0 13453
0.11250000 0.11250000 15431.61494953 0 -15.26008262 0 5254.88056958 0 30.58153919 0 3040.13515605 0 13668
0.11350000 0.11349100 15422.51002244 0 33.09910774 0 5682.30631363 0 10.06861056 0 3658.86553489 0 13791
0.11450000 0.11448600 15359.00034581 0 115.88998497 0 5417.42037915 0 -41.87288526 0 3507.81367037 0 14205
0.11550000 0.11549300 15199.27069892 0 293.50687937 0 5696.91915958 0 -39.46086642 0 3397.90258752 0 14776
0.11650000 0.11649800 15083.15477687 0 244.04576802 0 5554.69120588 0 122.06897068 0 3129.45336676 0 14553
0.11750000 0.11747300 14803.15016716 0 198.95614574 0 5023.71658730 0 339.87456363 0 2343.21481073 0 14568
0.11850000 0.11849100 14675.79359438 0 148.62613210 0 5119.63305999 0 220.52920263 0 2234.58516207 0 16015
0.11950000 0.11950300 14579.34881111 0 -17.43975720 0 4967.92923772 0 51.28861634 0 1232.58231526 0 15270
0.12050000 0.12050700 14693.21660302 0 186.01703269 0 5023.43557103 0 -67.94793516 0 1001.67349574 0 15999
0.12150000 0.12150000 14415.90974948 0 188.93398155 0 4668.33217379 0 122.87717347 0 229.66785167 0 15670
0.12250000 0.12250700 14345.31846289 0 191.27203690 0 4924.14690312 0 -166.33352919 0 897.63228071 0 16887
0.12350000 0.12352200 14234.59805319 0 178.59033475 0 4967.43464909 0 -153.32472410 0 198.25248101 0 16407
0.12450000 0.12449800 14031.59190099 0 221.76567421 0 5003.22488101 0 45.82273752 0 -151.06422924 0 16306
0.12550000 0.12549900 14025.85916912 0 298.97433188 0 5011.21698368 0 -363.38663277 0 -181.51515207 0 17523
0.12650000 0.12650100 13697.07013523 0 210.21927778 0 4957.09325041 0 -214.56828554 0 -265.93019093 0 17154
0.12750000 0.12750600 13653.23159738 0 181.75345386 0 5429.20058112 0 -209.32564604 0 -18.81403916 0 18007
0.12850000 0.12850300 13515.30881291 0 107.03617402 0 5314.36609325 0 -8.35284887 0 -241.42669640 0 17496
0.12950000 0.12949900 13404.47599671 0 143.39360918 0 5108.38116860 0 471.90612305 0 -116.15751246 0 18405
0.13050000 0.13049000 13163.02681901 0 149.25111228 0 4728.21112023 0 282.39324799 0 -584.95671965 0 18100
0.13150000 0.13148800 12939.78749549 0 299.33515677 0 4500.49801772 0 512.91426505 0 -136.82794509 0 19059
0.13250000 0.13249300 12756.34007556 0 249.36034769 0 4261.08339780 0 347.98694126 0 -797.13749098 0 18957
0.13350000 0.13349100 12440.47779002 0 195.11184319 0 3833.35415619 0 227.38712364 0 -888.49475573 0 19468
0.13450000 0.13450700 12396.18962614 0 137.77890414 0 3516.96356006 0 157.67260780 0 -1047.06886372 0 19953
0.13550000 0.13551000 12067.96262479 0 85.41006126 0 2900.48131137 0 273.01292495 0 -1462.82456418 0 19956
0.13650000 0.13649900 12120.00683768 0 27.72146802 0 2890.51085417 0 115.82029294 0 -1626.71325184 0 19723
0.13750000 0.13749600 12119.66961815 0 3.48012795 0 2870.34512676 0 -33.72577401 0 -2258.97737415 0 20946
0.13850000 0.13851100 12168.79126185 0 77.26744628 0 2726.10509658 0 12.88538275 0 -1987.77419397 0 20955
0.13950000 0.13949800 12058.40807167 0 142.09643809 0 3091.17895102 0 15.21545724 0 -1882.82023809 0 20506
0.14050000 0.14048300 12130.46064286 0 271.58873451 0 3221.42437104 0 -214.57840213 0 -1141.79157930 0 21447
0.14150000 0.14148400 11892.72087990 0 178.51389832 0 3569.22134531 0 70.81744848 0 -1061.68733000 0 21771
0.14250000 0.14249400 11907.67094537 0 141.05555383 0 3590.24136218 0 239.79680204 0 -276.20526976 0 22470
0.14350000 0.14350900 11886.42611549 0 -9.20495764 0 3688.09122679 0 239.46295472 0 -30.34402424 0 22519
0.14450000 0.14449900 11873.16214762 0 134.98785056 0 4011.76576459 0 346.07490658 0 468.28326132 0 22218
0.14550000 0.14550500 11768.62409583 0 254.79745044 0 3945.15366836 0 80.62851325 0 171.51209698 0 23559
0.14650000 0.14650700 11411.28380909 0 460.07983442 0 4456.38970425 0 26.15710666 0 766.90688490 0 23044
0.14750000 0.14750500 11095.36532029 0 396.51620267 0 3920.07577658 0 7.09950508 0 887.51119879 0 23649
0.14850000 0.14849900 10675.99912282 0 255.70681909 0 4318.12970026 0 342.21599118 0 984.10885491 0 23640
0.14950000 0.14949500 10668.11942666 0 111.18442376 0 3898.90963125 0 405.69082179 0 816.68610666 0 24457
0.15050000 0.15050000 10451.69193748 0 56.38692589 0 3737.16790788 0 384.22679922 0 272.40143355 0 24591
0.15150000 0.15149900 10348.89618655 0 80.92987510 0 3326.23219846 0 338.17272911 0 215.64738801 0 25020
0.15250000 0.15250500 10208.09579549 0 64.45849996 0 3025.31997839 0 357.00306722 0 56.48337067 0 25297
0.15350000 0.15350100 10037.76621497 0 96.40251843 0 2786.70344467 0 349.53365481 0 -116.22046010 0 25452
0.15450000 0.15450400 10036.39485558 0 186.12606700 0 2448.82072435 0 373.74489242 0 -176.73899957 0 26061
0.15550000 0.15549900 9731.87438662 0 247.25272567 0 2363.83016417 0 245.37216481 0 -294.86250185 0 26128
0.15650000 0.15649500 9483.18622985 0 308.79191623 0 2347.25020434 0 99.46761907 0 160.28605910 0 26331
0.15750000 0.15749700 9288.00357056 0 191.83744164 0 2500.95486244 0 -22.07191696 0 335.02759504 0 27345
0.15850000 0.15849900 9345.17352018 0 131.39533859 0 2589.08156417 0 -311.71785762 0 1035.92937885 0 26980
0.15950000 0.15949700 9255.64173710 0 85.77133578 0 2926.89684059 0 -263.55841362 0 858.01910347 0 27777
0.16050000 0.16050000 9366.33966550 0 37.34009285 0 3297.02898786 0 -86.13204826 0 1728.53106616 0 28224
0.16150000 0.16150500 9326.12061719 0 60.34768158 0 3455.29735015 0 58.34841944 0 1594.82352571 0 28075
0.16250000 0.16249700 9427.33143637 0 86.65923478 0 3494.58342446 0 403.98786321 0 2039.75096295 0 28590
0.16350000 0.16349900 9296.86120333 0 123.48416861 0 3452.92557285 0 499.20853961 0 2187.76785177 0 29163
0.16450000 0.16449100 9089.66228841 0 145.45289639 0 3315.71094937 0 423.56907678 0 1995.00193239 0 28996
0.16550000 0.16550500 9050.72467428 0 127.32509896 0 3246.31117176 0 282.87322378 0 2296.70099801 0 30777
0.16650000 0.16650700 8781.03898194 0 151.91739463 0 3147.13491036 0 -72.09000255 0 1587.08995801 0 29211
0.16750000 0.16749900 8775.41865657 0 152.94479011 0 3160.57872864 0 -322.27957304 0 1645.77739548 0 30922
0.16850000 0.16850800 8649.95051312 0 124.76335466 0 3226.04427849 0 -332.82667562 0 1349.91222759 0 30867
0.16950000 0.16949900 8544.08606453 0 112.08019122 0 3023.48775232 0 -282.49328978 0 1152.02057147 0 30852
0.17050000 0.17049200 8491.59222562 0 91.42358459 0 3376.54535113 0 -6.82715535 0 426.75018094 0 31257
0.17150000 0.17149500 8428.71202543 0 89.31022985 0 2913.91388899 0 120.50652023 0 375.68952499 0 32608
0.17250000 0.17250900 8437.31112324 0 74.62387004 0 3070.12521220 0 155.74033994 0 437.13879034 0 32361
0.17350000 0.17350400 8260.32707748 0 66.75260437 0 2677.84898299 0 134.79226324 0 258.07297607 0 32508
0.17450000 0.17449800 8355.77144283 0 78.11858835 0 2937.51925553 0 238.39509290 0 467.06477478 0 32791
0.17550000 0.17549800 8157.47512329 0 99.32576205 0 2436.28739878 0 247.38199316 0 220.09194131 0 33633
0.17650000 0.17650100 8214.46522250 0 77.08197554 0 2743.46066131 0 153.49783012 0 508.81704786 0 33984
0.17750000 0.17750300 8104.65530550 0 75.18983680 0 2317.36131405 0 146.93329010 0 216.12623973 0 34069
0.17850000 0.17849800 7984.78500611 0 68.54975960 0 2507.22714555 0 91.28543699 0 121.37767066 0 34536
