### header ###
fiducial parameters:
Omega_m = 0.31
Omega_nu = 0
Omega_de = 0.69
Omega_k = 0
H_0 = 100
w_de = -1
zeff = 0
beta = 0
fgrowth = 0
b_1 = 2
gamma = 0.55
Lx = 3500 Ly = 3500 Lz = 3500
nx = 700 ny = 700 nz = 700
xoffset = 857.220397 yoffset = 15.9954215 zoffset = 262.898189
bins = 400 dk = 0.001
kx_ny = 0.628318531 ky_ny = 0.628318531 kz_ny = 0.628318531
############################
A(data) = 3.07622119 (not used)
A(ran) = 3.07337846 (used)
Ngal = 187565
weighted Ngal = 0
Nran = 9360983
weighted Nran = 0
SN(data) = 3454.14677
SN(ran) = 69.0165299
SN(data+ran) = 3523.1633
############################
13 columns: k_central k_mean P_0(k) sigma^{lin}_{P_0(k)} P^img_1(k) sigma^{lin}_{P_1(k)} P_2(k) sigma^{lin}_{P_2(k)} P^img_3(k) sigma^{lin}_{P_3(k)} P_4(k) sigma^{lin}_{P_4(k)} N_modes
### header ###
0.00050000 0 0 0 0 0 0 0 0 0 0 0 0
0.00150000 0.00179520 2590.72269918 0 -6960.98653753 0 -523.51195056 0 6086.58755782 0 13109.97094755 0 3
0.00250000 0.00253879 6991.28009125 0 -7865.02711322 0 -1706.45442812 0 -707.02231813 0 -4824.09387097 0 6
0.00350000 0.00331552 12609.76199003 0 -6727.99032918 0 5068.78035608 0 -2359.72732666 0 1104.94360214 0 7
0.00450000 0.00420575 20465.51556639 0 -6144.48814973 0 6022.78562427 0 -2349.85803531 0 1391.58131985 0 24
0.00550000 0.00557378 27558.25377114 0 -294.03069369 0 18384.87111609 0 -4239.71492076 0 15424.42093307 0 45
0.00650000 0.00659388 37055.25476074 0 3994.59005027 0 22638.67057222 0 -1943.69960245 0 5309.60005734 0 40
0.00750000 0.00754703 35771.90966678 0 3082.99575729 0 42055.88305144 0 3287.92406077 0 23665.05439046 0 57
0.00850000 0.00846663 41277.13076879 0 2519.86163697 0 57132.18103136 0 7485.63266975 0 26297.61479166 0 75
0.00950000 0.00948925 48513.63689639 0 -4691.52163624 0 64785.94011410 0 24386.59176089 0 42228.65185317 0 112
0.01050000 0.01054430 57369.35876179 0 -8928.26902521 0 42920.73871868 0 48315.35181750 0 28790.56631078 0 105
0.01150000 0.01145670 72984.87075728 0 -16519.48512728 0 43619.68238113 0 43731.75166892 0 34131.44909910 0 144
0.01250000 0.01249090 83025.35720972 0 -9794.64218031 0 20845.67437412 0 34965.05575731 0 18042.59330133 0 169
0.01350000 0.01339930 98045.45193600 0 -6038.65742310 0 30325.02754207 0 11377.67426340 0 25243.46656611 0 180
0.01450000 0.01448870 92285.06806239 0 4104.86083394 0 8464.43481345 0 -16422.81553099 0 -6099.48058421 0 267
0.01550000 0.01550050 88618.70501347 0 6948.17219570 0 32000.33412701 0 -30929.88695790 0 -23765.77062101 0 238
0.01650000 0.01653350 84549.47704234 0 6070.43474272 0 35310.25614126 0 -29960.38083235 0 -41532.06872737 0 315
0.01750000 0.01747870 84995.73087636 0 714.02973980 0 54039.42838924 0 -13076.92343441 0 -56395.69359547 0 297
0.01850000 0.01844180 80594.00445661 0 -2054.99328534 0 55471.37488586 0 -19969.91527566 0 -61188.48225415 0 388
0.01950000 0.01947590 89468.61061524 0 -2926.22240155 0 38679.52879137 0 75.11733461 0 -81847.11220010 0 399
0.02050000 0.02045430 89046.97380632 0 4074.35370786 0 40254.56877180 0 5552.54424159 0 -62696.41554971 0 462
0.02150000 0.02154770 81405.46703288 0 7823.57159332 0 31481.80290879 0 8207.18128082 0 -51780.50721834 0 571
0.02250000 0.02255340 74356.45495948 0 9103.11734734 0 35895.21960530 0 14059.24390179 0 -29163.86832156 0 510
0.02350000 0.02348930 65594.70493419 0 7709.17549084 0 31958.96853232 0 10549.13713867 0 -26743.75621917 0 555
0.02450000 0.02439640 61223.32827142 0 3303.29003032 0 32359.58532438 0 17827.11002682 0 -16659.09400936 0 592
0.02550000 0.02547300 58431.82506888 0 2856.45168246 0 36931.94482222 0 4176.62114821 0 -173.93670535 0 837
0.02650000 0.02652900 59652.33492525 0 69.05873627 0 39591.93241120 0 460.35860256 0 6929.43403093 0 723
0.02750000 0.02749970 60562.04078891 0 747.33129165 0 47589.88021932 0 5263.17616982 0 18577.87308914 0 826
0.02850000 0.02848090 60424.56763047 0 -985.93321253 0 42859.92679823 0 8457.11714983 0 9961.76817537 0 831
0.02950000 0.02946900 61478.94066904 0 -1837.74522866 0 36156.67714131 0 15084.50365496 0 12954.62515445 0 996
0.03050000 0.03053250 60671.52472703 0 181.83775875 0 29226.92837216 0 10425.80471885 0 8707.03053753 0 1041
0.03150000 0.03150510 59499.46207531 0 2166.93892597 0 21841.25880936 0 10964.32181407 0 10376.28965238 0 1036
0.03250000 0.03246190 57060.24086669 0 2163.82526572 0 18654.08470109 0 9461.66038370 0 18083.84648951 0 1059
0.03350000 0.03345080 56054.42743928 0 1906.49304853 0 19316.15902915 0 4851.10515467 0 24165.48816101 0 1302
0.03450000 0.03451200 54087.20115485 0 554.84638854 0 20331.86422920 0 6012.23065323 0 28498.53420479 0 1339
0.03550000 0.03553350 55137.75237217 0 863.43822119 0 20293.42120370 0 7034.34302420 0 26435.20035661 0 1365
0.03650000 0.03647120 52894.68051880 0 1444.77207911 0 20537.56813758 0 4700.73896984 0 26840.31340895 0 1308
0.03750000 0.03744890 52544.53424853 0 932.25236090 0 17897.58890690 0 -130.47922556 0 26594.14315794 0 1579
0.03850000 0.03847530 51371.01031221 0 1528.18894818 0 17632.19714314 0 1154.16753576 0 21771.90399435 0 1662
0.03950000 0.03950240 49178.18416761 0 192.63665190 0 12965.07895963 0 112.37593274 0 14139.16492848 0 1683
0.04050000 0.04050350 49085.11157956 0 -43.48232163 0 10219.65118444 0 3278.06601008 0 10861.30125012 0 1822
0.04150000 0.04152450 48874.79900438 0 -464.49965829 0 8586.26098607 0 2697.59880633 0 8914.38682156 0 1887
0.04250000 0.04250150 49130.74862152 0 659.45076017 0 8993.94814744 0 2599.68149781 0 8077.03702666 0 1920
0.04350000 0.04349210 46786.17369205 0 1747.83126346 0 8511.89284084 0 1132.79905872 0 6472.83879824 0 2005
0.04450000 0.04448520 46430.63190943 0 2313.05614482 0 14735.70626278 0 -989.38296824 0 15960.59997293 0 2151
0.04550000 0.04548030 44482.73954426 0 3077.97118641 0 19362.69532318 0 -2664.84355010 0 18421.96526350 0 2274
0.04650000 0.04648670 44577.49822992 0 2444.81905269 0 23514.42967067 0 -2475.80952675 0 23760.26270215 0 2311
0.04750000 0.04749250 43146.11376584 0 1748.24716754 0 26338.98038635 0 -888.16315653 0 24805.98043966 0 2568
0.04850000 0.04851840 42997.28755016 0 1697.20337257 0 27428.19944218 0 795.53007792 0 24340.39268638 0 2493
0.04950000 0.04949480 41831.51966285 0 1108.94752193 0 27986.29775098 0 1969.24960156 0 20137.06375203 0 2644
0.05050000 0.05050630 40218.37387644 0 865.17490172 0 25518.07566347 0 2872.95295773 0 17529.23278244 0 2829
0.05150000 0.05149060 40171.61276940 0 606.93331589 0 23484.41713322 0 1735.08436553 0 8478.18212929 0 2784
0.05250000 0.05249300 39120.72433256 0 105.62603438 0 24411.99563154 0 2819.66103262 0 11342.15380709 0 3055
0.05350000 0.05348950 39200.87017227 0 208.19933284 0 19112.25362489 0 2047.59693716 0 3546.52647148 0 3009
0.05450000 0.05448610 39006.06969511 0 399.32299315 0 20207.20541260 0 3043.13640980 0 7438.80411880 0 3336
0.05550000 0.05550870 37718.45315387 0 803.40527783 0 12909.88736454 0 4013.54178740 0 1703.34076787 0 3349
0.05650000 0.05647670 38504.51185949 0 972.01841099 0 15592.69347451 0 4331.97818196 0 5166.87751501 0 3324
0.05750000 0.05747970 35630.83950011 0 1090.35211343 0 11346.31284786 0 2854.50704988 0 3656.02165025 0 3639
0.05850000 0.05849280 35163.34083621 0 922.28977215 0 10259.13959046 0 1688.51434956 0 3207.49720479 0 3846
0.05950000 0.05951020 33562.89698513 0 885.82510118 0 11217.16901161 0 -512.78387350 0 2461.65754748 0 3787
0.06050000 0.06049470 33334.03733625 0 1143.39899236 0 10923.67562103 0 -3792.57307533 0 1418.62632550 0 3930
0.06150000 0.06148310 32964.21992720 0 628.72556547 0 15045.83581645 0 -1407.43063738 0 2748.04684681 0 4083
0.06250000 0.06249100 32751.20959585 0 516.40673523 0 14390.61828534 0 -2068.26849385 0 711.92886218 0 4303
0.06350000 0.06350600 32158.82730232 0 216.34318429 0 16293.77286060 0 1104.00163561 0 338.83480344 0 4470
0.06450000 0.06451750 32864.29054220 0 37.01861024 0 14319.68977922 0 1228.37831188 0 240.27452970 0 4479
0.06550000 0.06550280 32646.33432452 0 475.95163325 0 16257.80277826 0 2703.20789104 0 623.90107817 0 4636
0.06650000 0.06648880 31736.96568039 0 477.33648142 0 12345.04466531 0 2174.09922048 0 88.23236385 0 4653
0.06750000 0.06749660 31066.68567730 0 568.28009023 0 12128.99935826 0 3006.23335345 0 2000.43116669 0 5220
0.06850000 0.06852730 30692.25960145 0 310.95686556 0 11157.30130582 0 1762.53403462 0 1004.81525762 0 5029
0.06950000 0.06949320 30802.98001115 0 284.05124397 0 9489.42479101 0 1561.91090037 0 -845.86683596 0 5040
0.07050000 0.07048030 30254.66106849 0 -213.72748487 0 9626.35839821 0 568.06651786 0 -1144.77035175 0 5475
0.07150000 0.07148790 30304.00752520 0 213.87473739 0 8562.55445368 0 -725.94707770 0 -2053.65564790 0 5509
0.07250000 0.07249820 30319.63202972 0 410.90423560 0 9025.33204428 0 -413.38729535 0 -1995.56396492 0 5916
0.07350000 0.07351270 29258.40219420 0 747.78541394 0 8013.95449476 0 529.00076031 0 -3522.41527567 0 5721
0.07450000 0.07449140 28760.21655381 0 805.02730373 0 7442.92943762 0 -45.53205429 0 -3776.26289112 0 6028
0.07550000 0.07549160 28020.24451619 0 621.54840997 0 7096.44761949 0 1535.11318903 0 -2780.88078759 0 6183
0.07650000 0.07648840 27708.09164539 0 640.58332792 0 7144.61380787 0 449.38547931 0 -4017.38608995 0 6330
0.07750000 0.07749960 26609.88006897 0 750.82376184 0 6633.84987931 0 -28.66017476 0 -3695.33020586 0 6583
0.07850000 0.07848650 26284.80044983 0 582.64339373 0 6865.35108111 0 -395.16732458 0 -4529.64502507 0 6549
0.07950000 0.07947320 25688.48392855 0 570.91714689 0 5648.13473540 0 -792.84918272 0 -1808.32844570 0 6828
0.08050000 0.08048110 24931.87572785 0 764.94539135 0 6920.18297538 0 614.34540099 0 -4754.54796489 0 7147
0.08150000 0.08149960 24585.32646581 0 492.89241797 0 4257.09296679 0 1828.24687879 0 -4397.82591395 0 7386
0.08250000 0.08250610 23258.59246003 0 642.48524603 0 3948.08747820 0 2214.11593709 0 -4763.42807897 0 7227
0.08350000 0.08350160 23006.23985112 0 1064.63687675 0 2405.92640116 0 1133.29364735 0 -5169.90125005 0 7798
0.08450000 0.08449610 21673.99792648 0 526.14113877 0 1945.18336835 0 200.01051878 0 -3739.37107543 0 7371
0.08550000 0.08548940 21229.20537706 0 648.46864441 0 1964.47232500 0 -842.04951097 0 -5127.34414639 0 8256
0.08650000 0.08650700 21127.02786191 0 330.90340028 0 2179.10131006 0 -1631.88395117 0 -3827.38537065 0 8037
0.08750000 0.08749060 20604.11278991 0 306.47184592 0 3118.25767863 0 -799.90606325 0 -5415.52070918 0 8155
0.08850000 0.08849210 20956.84440985 0 361.91073533 0 4125.07152396 0 -2152.23615481 0 -3681.99879409 0 8718
0.08950000 0.08949900 21046.99442871 0 262.40849505 0 5984.36508007 0 -490.55548668 0 -4444.15987626 0 8571
0.09050000 0.09049190 20778.45528274 0 363.70923944 0 6564.37141714 0 -17.60892900 0 -2715.29159058 0 8932
0.09150000 0.09150830 20687.40601182 0 183.59242432 0 7326.66738711 0 443.59429606 0 -1675.32906625 0 9285
0.09250000 0.09250820 20531.72299920 0 295.83032187 0 7727.72256454 0 611.67349831 0 -785.22015307 0 9204
0.09350000 0.09350330 20553.97948765 0 467.20753105 0 8020.60895999 0 312.20570186 0 11.89249607 0 9349
0.09450000 0.09448040 20088.05451485 0 337.50615852 0 8986.75413097 0 277.72388168 0 -259.88496897 0 9564
0.09550000 0.09549270 19682.37942997 0 276.94940084 0 8064.40253524 0 -9.84329172 0 1259.43622985 0 10155
0.09650000 0.09649430 19649.44432332 0 132.36428268 0 8424.90144483 0 740.96571115 0 9.60958735 0 9913
0.09750000 0.09749140 19326.05080179 0 165.99068934 0 7657.47973812 0 879.04474066 0 1347.22571206 0 10476
0.09850000 0.09850240 18804.82182740 0 474.26441158 0 6992.93246691 0 1479.24715490 0 -945.82881885 0 10575
0.09950000 0.09950330 18300.22901608 0 450.22065966 0 5364.85909633 0 1164.48645313 0 518.09732910 0 10882
0.10050000 0.10051200 17763.93756971 0 333.84845078 0 5062.72164533 0 1167.79120444 0 -1113.89790451 0 10875
0.10150000 0.10150300 17635.68174487 0 156.31361313 0 4155.91586956 0 394.37485870 0 511.64519558 0 11118
0.10250000 0.10250800 17293.06671059 0 18.23199827 0 5114.97943058 0 59.65424584 0 46.62846736 0 11575
0.10350000 0.10349800 17825.64874222 0 35.86734279 0 5032.59670137 0 325.75293412 0 1149.48018440 0 11364
0.10450000 0.10450100 17702.11399069 0 147.40764556 0 5227.61075091 0 -122.36347573 0 1487.25049822 0 12093
0.10550000 0.10551000 17611.17712627 0 370.57390484 0 5997.56160403 0 18.21918392 0 2504.31581701 0 12067
0.10650000 0.10649700 17419.07440528 0 170.27899760 0 5829.92977968 0 407.76696998 0 3032.92989893 0 12054
0.10750000 0.10749900 17317.23410966 0 99.02170245 0 5750.59326682 0 1265.98952923 0 2693.74326313 0 12807
0.10850000 0.10850100 17097.25457485 0 201.32567492 0 5447.55656376 0 272.70155893 0 2740.40320431 0 12736
0.10950000 0.10950300 16803.08674522 0 59.93425045 0 4602.65305157 0 748.60822958 0 1732.00442723 0 12933
0.11050000 0.11050200 16808.14503805 0 227.12072021 0 4676.06574149 0 99.20773522 0 1716.24503491 0 13428
0.11150000 0.11150900 16511.84148478 0 115.66966822 0 3664.99168954 0 -103.21941106 0 1158.19168872 0 13453
0.11250000 0.11250000 16364.36414719 0 281.59516179 0 3242.89401394 0 100.18690831 0 354.15131413 0 13668
0.11350000 0.11349100 16045.46688595 0 237.95783158 0 3554.99068148 0 -156.20345475 0 588.60093862 0 13791
0.11450000 0.11448600 15938.34348449 0 400.66287872 0 3297.82707406 0 -4.89460647 0 -176.54903258 0 14205
0.11550000 0.11549300 15468.48428393 0 261.51261519 0 3295.79251628 0 -161.15833360 0 -421.65816616 0 14776
0.11650000 0.11649800 15410.70733917 0 25.85754332 0 3341.30591109 0 -532.58315570 0 -727.19029367 0 14553
0.11750000 0.11747300 15543.00979828 0 -229.63525378 0 3806.19674402 0 -94.99181676 0 -530.42495076 0 14568
0.11850000 0.11849100 15525.47438314 0 -168.05559688 0 3508.25205575 0 229.99832680 0 -783.76786100 0 16015
0.11950000 0.11950300 15938.90551702 0 -14.91499464 0 3273.03019855 0 250.07300494 0 -814.52340546 0 15270
0.12050000 0.12050700 15668.45546044 0 180.24945480 0 2970.90398820 0 -154.52410153 0 -940.79525545 0 15999
0.12150000 0.12150000 15564.47944117 0 640.43157914 0 3653.12156237 0 -155.34466904 0 -960.25394593 0 15670
0.12250000 0.12250700 14810.34418363 0 627.45312380 0 3502.19334500 0 -81.75527608 0 -825.61118335 0 16887
0.12350000 0.12352200 14447.04635201 0 747.85173378 0 4110.45867801 0 -194.13503064 0 -520.04533387 0 16407
0.12450000 0.12449800 13901.31275902 0 577.12648235 0 4212.08540127 0 -229.74428810 0 -494.33796565 0 16306
0.12550000 0.12549900 13541.49952912 0 264.83535155 0 4630.48490278 0 224.81189055 0 -475.79763634 0 17523
0.12650000 0.12650100 13333.32267758 0 249.43790818 0 4366.01487238 0 62.26477456 0 -241.08273249 0 17154
0.12750000 0.12750600 13237.66473986 0 84.24530503 0 4600.47236532 0 60.78921434 0 -550.18601474 0 18007
0.12850000 0.12850300 13037.80596986 0 157.80412342 0 4511.15415462 0 89.72096322 0 36.18444155 0 17496
0.12950000 0.12949900 13171.68212007 0 78.37824738 0 4484.08666765 0 422.70354667 0 166.37399553 0 18405
0.13050000 0.13049000 12938.43861740 0 -99.79910586 0 3961.52005582 0 519.92955517 0 464.91893456 0 18100
0.13150000 0.13148800 13062.98502750 0 -26.91495133 0 3893.36799044 0 777.73500375 0 782.57410389 0 19059
0.13250000 0.13249300 13204.84203972 0 15.54278499 0 3588.07191659 0 354.39298812 0 248.77470978 0 18957
0.13350000 0.13349100 12961.48195140 0 304.52384115 0 3554.75462782 0 93.14835004 0 919.42565435 0 19468
0.13450000 0.13450700 12799.05454834 0 322.53810801 0 3599.54862098 0 -40.70891587 0 640.95089720 0 19953
0.13550000 0.13551000 12448.57105854 0 404.06879589 0 3552.68634808 0 -77.81329228 0 1421.38028493 0 19956
0.13650000 0.13649900 12219.37419014 0 335.17259943 0 3551.29250739 0 194.19460609 0 1085.56472028 0 19723
0.13750000 0.13749600 12031.54291642 0 171.80322984 0 3862.96203021 0 343.65591854 0 951.71891983 0 20946
0.13850000 0.13851100 11888.56183913 0 111.26479442 0 3378.48998371 0 743.50834634 0 1222.39828569 0 20955
0.13950000 0.13949800 11797.51256820 0 61.38890306 0 3234.73330151 0 436.04732316 0 962.28513152 0 20506
0.14050000 0.14048300 11802.68326754 0 132.56886253 0 3205.26031529 0 149.51414350 0 1573.45504867 0 21447
0.14150000 0.14148400 11669.03193035 0 89.26144542 0 2969.34153775 0 63.74449382 0 681.53863886 0 21771
0.14250000 0.14249400 11513.46132423 0 237.26091124 0 2769.10058563 0 77.15459015 0 719.19594288 0 22470
0.14350000 0.14350900 11127.50234073 0 186.40033888 0 2409.84938826 0 149.09711536 0 412.13059060 0 22519
0.14450000 0.14449900 10794.61046933 0 255.59104039 0 2250.50192350 0 138.73997978 0 288.36877792 0 22218
0.14550000 0.14550500 10850.02687744 0 245.55538741 0 2086.41090413 0 40.11113807 0 -553.26482898 0 23559
0.14650000 0.14650700 10444.17194215 0 204.39437257 0 1967.72087306 0 -24.24990545 0 -774.27513146 0 23044
0.14750000 0.14750500 10435.55036303 0 157.87943578 0 2302.51241443 0 -335.88750482 0 -300.08828037 0 23649
0.14850000 0.14849900 10251.76572358 0 36.29965822 0 2086.02872201 0 -90.05840756 0 -553.61666135 0 23640
0.14950000 0.14949500 10471.31811366 0 56.36579346 0 2920.61331683 0 -118.21342748 0 -123.76968113 0 24457
0.15050000 0.15050000 10438.22563791 0 -90.35235058 0 2724.52016483 0 26.78748235 0 -485.14648555 0 24591
0.15150000 0.15149900 10673.51493901 0 -79.48826164 0 2876.75229768 0 119.41505304 0 96.15331320 0 25020
0.15250000 0.15250500 10611.70260064 0 -15.63765608 0 2666.03505908 0 99.59688655 0 94.92291157 0 25297
0.15350000 0.15350100 10714.26229791 0 72.28716357 0 2531.72052349 0 209.69321532 0 204.94741258 0 25452
0.15450000 0.15450400 10525.76782580 0 153.72039501 0 2704.32071546 0 67.38174359 0 251.55564677 0 26061
0.15550000 0.15549900 10569.95482383 0 281.60415431 0 2827.85546700 0 142.76862900 0 305.14095287 0 26128
0.15650000 0.15649500 10181.78143213 0 296.12707505 0 2720.94563790 0 -45.31533454 0 649.50053615 0 26331
0.15750000 0.15749700 10089.97903761 0 183.06973407 0 2758.35452353 0 -95.06375692 0 817.39763986 0 27345
0.15850000 0.15849900 9962.27400466 0 89.74895244 0 3054.11852556 0 240.21158206 0 1283.24392810 0 26980
0.15950000 0.15949700 9919.14362780 0 -68.71612124 0 2698.35192993 0 440.75490768 0 964.02293612 0 27777
0.16050000 0.16050000 10005.59547257 0 -59.11683032 0 2835.39794364 0 391.26569471 0 1243.42954321 0 28224
0.16150000 0.16150500 9935.88095674 0 19.79163856 0 2256.68428140 0 1.85193093 0 284.06922901 0 28075
0.16250000 0.16249700 9858.94994314 0 161.79567849 0 2351.72398334 0 -120.14232314 0 -0.37547708 0 28590
0.16350000 0.16349900 9699.62495968 0 275.61963186 0 2256.09976757 0 -339.77114965 0 -163.93814652 0 29163
0.16450000 0.16449100 9385.13403352 0 294.49268444 0 2229.98773592 0 -435.04016085 0 -887.25041569 0 28996
0.16550000 0.16550500 9204.17079741 0 304.43953627 0 2368.30394316 0 -286.79059056 0 -916.82456777 0 30777
0.16650000 0.16650700 9027.32163946 0 125.66597891 0 2289.76551651 0 -14.82967810 0 -1274.43125793 0 29211
0.16750000 0.16749900 9024.51147677 0 124.18446115 0 2480.95774479 0 144.63457702 0 -882.04936660 0 30922
0.16850000 0.16850800 8965.81279866 0 73.42561667 0 2682.69370346 0 -16.07671589 0 -803.70203101 0 30867
0.16950000 0.16949900 8944.64665333 0 176.47821648 0 2627.69319943 0 122.90190290 0 -97.08662443 0 30852
0.17050000 0.17049200 8881.30558646 0 259.95128880 0 3080.16311331 0 72.53277178 0 305.50290183 0 31257
0.17150000 0.17149500 8609.30432007 0 178.62742890 0 2756.16259664 0 266.55404704 0 350.55430589 0 32608
0.17250000 0.17250900 8492.17673946 0 102.43256551 0 3063.45950632 0 493.31169424 0 971.41591211 0 32361
0.17350000 0.17350400 8261.24881084 0 26.93417284 0 2539.28548143 0 489.40219592 0 420.34863035 0 32508
0.17450000 0.17449800 8474.03432918 0 -147.78870362 0 2314.38254161 0 610.06496119 0 800.91547369 0 32791
0.17550000 0.17549800 8402.45386532 0 -119.49710979 0 2024.18266168 0 359.66822550 0 254.47934003 0 33633
0.17650000 0.17650100 8623.41133674 0 -43.36058538 0 1535.91127523 0 222.94257034 0 249.75489453 0 33984
0.17750000 0.17750300 8488.90571009 0 -27.64098496 0 1496.72636678 0 -74.25191691 0 -102.00980464 0 34069
0.17850000 0.17849800 8613.45212019 0 202.79707610 0 1392.44684995 0 -361.49033499 0 -285.84525183 0 34536
