### header ###
fiducial parameters:
Omega_m = 0.31
Omega_nu = 0
Omega_de = 0.69
Omega_k = 0
H_0 = 100
w_de = -1
zeff = 0
beta = 0
fgrowth = 0
b_1 = 2
gamma = 0.55
Lx = 3500 Ly = 3500 Lz = 3500
nx = 700 ny = 700 nz = 700
xoffset = 857.220397 yoffset = 15.9954215 zoffset = 262.898189
bins = 400 dk = 0.001
kx_ny = 0.628318531 ky_ny = 0.628318531 kz_ny = 0.628318531
############################
A(data) = 3.05925868 (not used)
A(ran) = 3.05266096 (used)
Ngal = 186466
weighted Ngal = 0
Nran = 9360983
weighted Nran = 0
SN(data) = 3463.07067
SN(ran) = 68.5512927
SN(data+ran) = 3531.62196
############################
13 columns: k_central k_mean P_0(k) sigma^{lin}_{P_0(k)} P^img_1(k) sigma^{lin}_{P_1(k)} P_2(k) sigma^{lin}_{P_2(k)} P^img_3(k) sigma^{lin}_{P_3(k)} P_4(k) sigma^{lin}_{P_4(k)} N_modes
### header ###
0.00050000 0 0 0 0 0 0 0 0 0 0 0 0
0.00150000 0.00179520 9101.64482209 0 -11759.29435572 0 -7104.46220346 0 26776.12929328 0 42412.43649262 0 3
0.00250000 0.00253879 27765.53137062 0 -30021.30515932 0 -7437.92734805 0 18413.08514942 0 10579.01478831 0 6
0.00350000 0.00331552 44229.37527678 0 -35507.07993556 0 7406.77950487 0 -53255.16818774 0 -17726.05657674 0 7
0.00450000 0.00420575 81609.14762413 0 -34980.68026183 0 8050.35172182 0 -42726.27546103 0 -2681.98554246 0 24
0.00550000 0.00557378 105964.71518899 0 -7259.86419982 0 16833.77372172 0 -56108.83218882 0 16462.49502807 0 45
0.00650000 0.00659388 130228.55904390 0 23675.84541516 0 57259.31279113 0 -49129.84936946 0 -22689.92793955 0 40
0.00750000 0.00754703 101482.28089700 0 17928.27588339 0 45387.83674112 0 -19875.60621603 0 19460.93861056 0 57
0.00850000 0.00846663 99112.30209688 0 18048.88806574 0 75592.47691386 0 12660.34491832 0 -14218.41151614 0 75
0.00950000 0.00948925 97042.67348429 0 -1548.32095364 0 48117.62877114 0 26705.65041320 0 -11070.79325780 0 112
0.01050000 0.01054430 86587.63183288 0 -448.14451147 0 33266.59343186 0 26673.95177813 0 -62779.59636512 0 105
0.01150000 0.01145670 90258.15392258 0 1559.77517673 0 27231.37564788 0 7336.40179064 0 -23958.77259406 0 144
0.01250000 0.01249090 83392.13964308 0 4196.00003007 0 12642.47228365 0 -2534.39579836 0 -36191.63556508 0 169
0.01350000 0.01339930 87123.81087275 0 245.88586255 0 2889.35306715 0 -12573.90431419 0 -22755.01130728 0 180
0.01450000 0.01448870 80715.96551704 0 -3593.63603870 0 8360.08785272 0 -8158.77903877 0 -14434.56922969 0 267
0.01550000 0.01550050 94084.24661840 0 -1874.04128987 0 20987.75619936 0 -12459.02486372 0 -30174.51522878 0 238
0.01650000 0.01653350 87665.38542497 0 658.20866827 0 22498.94928363 0 -5905.68052495 0 -8157.02549726 0 315
0.01750000 0.01747870 85749.41650787 0 4105.67016080 0 41050.29443704 0 5701.06695970 0 -7204.65012343 0 297
0.01850000 0.01844180 85448.39188130 0 4409.29137769 0 32088.34842224 0 7855.41635685 0 3383.09865051 0 388
0.01950000 0.01947590 79102.93213715 0 4252.22576503 0 33895.39543375 0 19415.52638161 0 -18816.28729114 0 399
0.02050000 0.02045430 77053.64910238 0 4560.20835441 0 28790.79112379 0 18300.34142259 0 6265.54995811 0 462
0.02150000 0.02154770 72148.34152988 0 3105.51078070 0 18138.25123905 0 3990.64458187 0 -11124.22007072 0 571
0.02250000 0.02255340 73587.70685598 0 3612.57653518 0 6355.13794443 0 -326.13736437 0 -5381.20300250 0 510
0.02350000 0.02348930 67035.98117092 0 1547.17440726 0 4363.14850644 0 -5317.08633073 0 -21357.01157587 0 555
0.02450000 0.02439640 71082.84024709 0 -2400.30607579 0 10215.70571604 0 -4875.21635049 0 -22288.74911496 0 592
0.02550000 0.02547300 69258.93225948 0 -1608.75069197 0 7494.25424886 0 1573.10658850 0 -20351.76018100 0 837
0.02650000 0.02652900 74907.58406482 0 528.05317345 0 5906.78210872 0 7433.99312029 0 -23100.77372377 0 723
0.02750000 0.02749970 66917.72952523 0 2010.95241577 0 3434.25485198 0 7255.42414278 0 -10937.65899054 0 826
0.02850000 0.02848090 67560.24512101 0 5281.71200288 0 10268.50305252 0 5414.18307174 0 -15548.96734317 0 831
0.02950000 0.02946900 63114.79256992 0 4233.58876611 0 9899.27015731 0 -2929.86437238 0 -5594.82032899 0 996
0.03050000 0.03053250 59926.83161610 0 4813.97728531 0 18598.66829299 0 -9925.22481985 0 -4108.03069745 0 1041
0.03150000 0.03150510 57797.73996115 0 4407.59403943 0 20204.39524991 0 -14080.71354468 0 -2696.23868759 0 1036
0.03250000 0.03246190 54867.63953510 0 3259.06931034 0 29611.02140764 0 -3607.11357892 0 5750.57078552 0 1059
0.03350000 0.03345080 54829.42132261 0 1336.77190688 0 30239.93581603 0 -4469.99089164 0 -6341.46931314 0 1302
0.03450000 0.03451200 55351.43714256 0 -492.13817030 0 32291.69179396 0 5582.66918555 0 -8089.15444815 0 1339
0.03550000 0.03553350 56862.63022684 0 -1175.65965995 0 30573.33351672 0 3808.32122701 0 -12110.22747154 0 1365
0.03650000 0.03647120 55426.86190897 0 1002.25800958 0 28908.48073695 0 4030.70626107 0 -9643.05076455 0 1308
0.03750000 0.03744890 56447.85021486 0 2348.44171332 0 27844.77795827 0 2653.04086683 0 -16471.03792263 0 1579
0.03850000 0.03847530 51844.80374052 0 3459.20909661 0 26640.45463896 0 681.14184389 0 -11134.55022874 0 1662
0.03950000 0.03950240 48768.91207449 0 2892.47796805 0 22836.95565111 0 3310.76506305 0 -15663.95920014 0 1683
0.04050000 0.04050350 44967.99843632 0 1315.17861683 0 14782.80458934 0 5559.56964829 0 -17250.23983130 0 1822
0.04150000 0.04152450 45333.09477206 0 -230.86498097 0 15377.43501301 0 3409.08703500 0 -17192.57529305 0 1887
0.04250000 0.04250150 44354.37131291 0 510.78303767 0 9376.82719263 0 1967.20380313 0 -20676.39017411 0 1920
0.04350000 0.04349210 44778.81828451 0 1184.96691876 0 9361.38253853 0 -2716.39317435 0 -14291.70055890 0 2005
0.04450000 0.04448520 43268.86167182 0 1559.46043851 0 12020.30226569 0 -80.15404539 0 -7576.13114878 0 2151
0.04550000 0.04548030 43532.67974448 0 614.09248635 0 13618.94761265 0 1816.90506221 0 -6042.91762973 0 2274
0.04650000 0.04648670 43378.90764248 0 -1344.64036239 0 13351.42012526 0 4237.43306866 0 -5545.39518772 0 2311
0.04750000 0.04749250 45227.65746820 0 -1167.40902232 0 17002.04626316 0 3273.10888310 0 -2885.39635809 0 2568
0.04850000 0.04851840 45167.51998679 0 471.79146842 0 14910.94800767 0 -210.57335827 0 -2314.61859527 0 2493
0.04950000 0.04949480 44819.62184667 0 1908.90978844 0 19839.18650766 0 -1427.45023633 0 -14.83934506 0 2644
0.05050000 0.05050630 42735.49279463 0 1898.17496699 0 18979.83875928 0 -2922.13080468 0 1590.07997110 0 2829
0.05150000 0.05149060 41561.74404530 0 1128.20163257 0 19566.48832093 0 -379.71929828 0 -591.17504763 0 2784
0.05250000 0.05249300 41423.03441528 0 913.22081514 0 24565.09329449 0 1672.86736374 0 3127.63238134 0 3055
0.05350000 0.05348950 41668.97985328 0 826.05069279 0 21178.39763575 0 3303.00901405 0 4224.54004228 0 3009
0.05450000 0.05448610 39667.13236459 0 1147.45686727 0 22355.51858030 0 2162.42018437 0 7769.03195598 0 3336
0.05550000 0.05550870 39557.64842647 0 573.15853264 0 19119.44764136 0 6392.28829510 0 9491.48183009 0 3349
0.05650000 0.05647670 37833.10779133 0 608.59243594 0 22010.99263540 0 3020.56518313 0 10225.10290005 0 3324
0.05750000 0.05747970 38877.70146376 0 113.93073955 0 14776.62223144 0 4829.75915893 0 8673.42099184 0 3639
0.05850000 0.05849280 37141.92017788 0 871.71358825 0 18052.48507397 0 1450.54977358 0 5679.30505988 0 3846
0.05950000 0.05951020 36369.01303361 0 1464.17344227 0 10867.47236737 0 -811.34904570 0 5401.78463398 0 3787
0.06050000 0.06049470 34370.98736618 0 1091.76281509 0 12421.03146425 0 1570.33014777 0 1510.70973629 0 3930
0.06150000 0.06148310 33841.21549723 0 1871.54586541 0 10451.82682529 0 -2461.56762228 0 935.66727059 0 4083
0.06250000 0.06249100 31897.93179886 0 1920.19540177 0 9222.71787111 0 -1025.58910424 0 -6000.31556346 0 4303
0.06350000 0.06350600 30277.81680900 0 1416.89526529 0 11977.02576038 0 -1581.28978223 0 -3067.61854709 0 4470
0.06450000 0.06451750 29628.10719675 0 1212.11309027 0 10178.03829544 0 -1197.47776302 0 -6504.82969022 0 4479
0.06550000 0.06550280 28884.98777692 0 -51.05795819 0 11643.96527922 0 818.01812378 0 -3716.74364550 0 4636
0.06650000 0.06648880 29304.93848823 0 -489.09420209 0 12131.47230142 0 122.02962840 0 -6281.17446262 0 4653
0.06750000 0.06749660 30137.64589438 0 -642.13453772 0 11463.44042848 0 1485.12601523 0 -8263.02483365 0 5220
0.06850000 0.06852730 29840.21827604 0 -158.59883742 0 10818.33948303 0 846.68740347 0 -8242.28583305 0 5029
0.06950000 0.06949320 30709.00817104 0 265.92344654 0 8917.19698424 0 -419.11553096 0 -8338.60696917 0 5040
0.07050000 0.07048030 29283.01921931 0 36.64418416 0 8550.27966308 0 1103.38227575 0 -8071.72019886 0 5475
0.07150000 0.07148790 30123.70748748 0 431.15426789 0 8274.47905675 0 410.73000552 0 -8460.93897107 0 5509
0.07250000 0.07249820 28978.28517799 0 616.41705292 0 5891.53978633 0 882.94637053 0 -7764.41204853 0 5916
0.07350000 0.07351270 28152.65938180 0 769.70580693 0 6498.91710793 0 1087.60489839 0 -7425.85488916 0 5721
0.07450000 0.07449140 27563.53687699 0 339.10457906 0 5829.01928697 0 371.76204163 0 -4558.67962591 0 6028
0.07550000 0.07549160 27169.66447537 0 294.66803859 0 7566.52039241 0 694.83745274 0 -4283.90191879 0 6183
0.07650000 0.07648840 27491.25949279 0 221.96238559 0 8128.96883304 0 -838.00624891 0 -3312.70969563 0 6330
0.07750000 0.07749960 27262.17503089 0 676.24316830 0 10967.45795563 0 -1525.60359851 0 -2176.87566121 0 6583
0.07850000 0.07848650 26910.56747602 0 1311.10950126 0 11837.19206528 0 -2486.69047666 0 -829.39703451 0 6549
0.07950000 0.07947320 26321.78219073 0 1112.17696089 0 13351.86975129 0 -765.65917267 0 476.52603050 0 6828
0.08050000 0.08048110 25257.18016000 0 1034.98179199 0 13551.50370827 0 927.23565847 0 153.34046101 0 7147
0.08150000 0.08149960 24672.32910247 0 551.13697380 0 13184.72127492 0 2891.26397777 0 979.64406844 0 7386
0.08250000 0.08250610 24508.32800830 0 -40.59088904 0 11593.71957045 0 3344.84671607 0 -1476.69552718 0 7227
0.08350000 0.08350160 23945.95825223 0 322.52686736 0 9584.72302790 0 1862.09247814 0 -836.46965195 0 7798
0.08450000 0.08449610 23157.20179044 0 385.75665179 0 7564.18233706 0 748.95668975 0 -2211.04723944 0 7371
0.08550000 0.08548940 22747.92969732 0 407.90747812 0 7332.71485720 0 -158.94617353 0 -1149.94105108 0 8256
0.08650000 0.08650700 22358.10392997 0 535.00326780 0 6308.39931869 0 -144.88524353 0 -1845.32142725 0 8037
0.08750000 0.08749060 22060.67631163 0 163.55484033 0 6007.85804010 0 371.62265756 0 -2378.53293533 0 8155
0.08850000 0.08849210 21930.05995013 0 38.91917946 0 6502.23309990 0 1284.68273139 0 -2091.55912217 0 8718
0.08950000 0.08949900 21802.81578386 0 -0.15634621 0 5302.03509940 0 879.98445906 0 -2535.54234474 0 8571
0.09050000 0.09049190 21663.43171480 0 289.64459178 0 5836.35943189 0 1046.28763850 0 -855.18196322 0 8932
0.09150000 0.09150830 21488.07756339 0 559.81475616 0 5761.67654844 0 -132.58572350 0 -2085.56785533 0 9285
0.09250000 0.09250820 20784.52523414 0 805.83101025 0 6119.60134901 0 76.23229475 0 -740.59027341 0 9204
0.09350000 0.09350330 20343.44209946 0 778.67247402 0 6568.54169856 0 108.39707960 0 817.09863855 0 9349
0.09450000 0.09448040 19872.57124033 0 527.81599572 0 6785.30640726 0 323.17657697 0 1127.14501140 0 9564
0.09550000 0.09549270 19497.69553846 0 191.34060487 0 6164.18176981 0 1191.44153358 0 1379.65498942 0 10155
0.09650000 0.09649430 19727.34203289 0 18.66071669 0 6846.17453096 0 516.59895036 0 2499.42613394 0 9913
0.09750000 0.09749140 19377.64538865 0 175.17767319 0 6510.67482860 0 427.65617739 0 1695.18005544 0 10476
0.09850000 0.09850240 19346.50878612 0 532.12453715 0 7868.60164015 0 -691.10892889 0 2284.38124481 0 10575
0.09950000 0.09950330 18812.35306339 0 724.67688417 0 7543.26348605 0 -416.44587641 0 2082.62280484 0 10882
0.10050000 0.10051200 18377.90191263 0 490.37338814 0 8117.54833189 0 -607.84043641 0 2881.77686855 0 10875
0.10150000 0.10150300 18073.84231036 0 287.74379774 0 8244.68009166 0 516.94853460 0 1778.56320256 0 11118
0.10250000 0.10250800 17958.28842085 0 166.14131406 0 9205.62084135 0 162.51845233 0 1810.56533519 0 11575
0.10350000 0.10349800 17776.86431805 0 187.14559402 0 8429.53259293 0 112.91908098 0 839.74517757 0 11364
0.10450000 0.10450100 17727.96748737 0 173.27350695 0 8701.59006257 0 847.03811177 0 2040.09942312 0 12093
0.10550000 0.10551000 17394.56978669 0 160.92340400 0 8254.78543667 0 697.76676632 0 1800.08904871 0 12067
0.10650000 0.10649700 17192.80010607 0 12.65832160 0 7364.13247600 0 1364.61499874 0 1974.52146676 0 12054
0.10750000 0.10749900 17286.77194618 0 -21.18660331 0 6759.12693170 0 1349.33895440 0 2053.52076009 0 12807
0.10850000 0.10850100 16874.12765784 0 151.44416323 0 5489.22565602 0 846.54464720 0 1732.66762563 0 12736
0.10950000 0.10950300 16834.78538028 0 244.13906542 0 5069.54472033 0 663.60305655 0 1594.57623140 0 12933
0.11050000 0.11050200 16444.28517389 0 333.35498621 0 4603.54106297 0 -162.56116681 0 1175.60345670 0 13428
0.11150000 0.11150900 16288.93938079 0 309.92160163 0 4445.11533157 0 -243.73215387 0 1702.03685239 0 13453
0.11250000 0.11250000 16045.69169897 0 407.63545437 0 4865.92033234 0 -430.58661503 0 449.61366452 0 13668
0.11350000 0.11349100 15682.05664782 0 309.37418194 0 4892.68432173 0 10.85291572 0 1699.87864744 0 13791
0.11450000 0.11448600 15493.32612205 0 187.90208981 0 5034.69870306 0 600.54300595 0 1284.63776879 0 14205
0.11550000 0.11549300 15392.94711102 0 90.05604702 0 4189.03082662 0 814.00633553 0 1765.76010138 0 14776
0.11650000 0.11649800 15068.54193092 0 17.06218374 0 3816.65054920 0 1528.63857421 0 412.54424654 0 14553
0.11750000 0.11747300 14929.49508138 0 185.35158616 0 3512.14132090 0 659.17424017 0 1502.71763362 0 14568
0.11850000 0.11849100 14589.35299026 0 354.37837527 0 2796.97739944 0 395.97777550 0 730.81765167 0 16015
0.11950000 0.11950300 14299.79382743 0 499.68177101 0 3314.68805016 0 -283.92197649 0 1364.64872069 0 15270
0.12050000 0.12050700 13901.42516552 0 213.01707574 0 2875.48210415 0 -24.47134627 0 1222.21843528 0 15999
0.12150000 0.12150000 13792.84047946 0 22.48995676 0 3399.59992578 0 151.91065024 0 1178.27873157 0 15670
0.12250000 0.12250700 13868.26524587 0 113.58115531 0 3583.56441564 0 -413.97405732 0 1575.15238693 0 16887
0.12350000 0.12352200 13807.79054493 0 266.22469598 0 3895.52619538 0 -612.59972793 0 1305.44421329 0 16407
0.12450000 0.12449800 13843.19859474 0 375.71425442 0 4223.13496093 0 -597.99924669 0 1824.80723967 0 16306
0.12550000 0.12549900 13599.50128689 0 361.07105872 0 4887.36749393 0 -823.70364492 0 1485.11477458 0 17523
0.12650000 0.12650100 13397.16957373 0 282.81477239 0 5352.42693662 0 -231.56414945 0 1339.37973785 0 17154
0.12750000 0.12750600 13261.71973242 0 86.29694860 0 5475.27600846 0 -72.67384195 0 927.38740726 0 18007
0.12850000 0.12850300 13076.13658885 0 158.30770457 0 5221.16985804 0 544.55332466 0 -69.35178003 0 17496
0.12950000 0.12949900 13277.79386297 0 -3.44907003 0 5206.99539747 0 316.22311043 0 355.01572017 0 18405
0.13050000 0.13049000 13025.44125406 0 107.24288958 0 4761.93307242 0 656.48660058 0 -189.28806205 0 18100
0.13150000 0.13148800 13043.31388872 0 -39.89565479 0 4030.89735213 0 502.38514751 0 266.64172412 0 19059
0.13250000 0.13249300 13046.57367743 0 -151.83646194 0 3534.31912479 0 990.77793299 0 -116.09231668 0 18957
0.13350000 0.13349100 13278.46830201 0 -234.85766011 0 3124.83345931 0 825.51563781 0 280.43287850 0 19468
0.13450000 0.13450700 13217.43156854 0 20.08839173 0 2808.15060627 0 342.90279494 0 34.31635780 0 19953
0.13550000 0.13551000 13234.51735765 0 125.43554557 0 3107.34300677 0 48.80499456 0 429.05114214 0 19956
0.13650000 0.13649900 12864.13791607 0 483.82233689 0 3197.03215896 0 -476.35854481 0 466.50723851 0 19723
0.13750000 0.13749600 12650.90277170 0 630.06769916 0 3561.64514672 0 -572.61223702 0 597.01906195 0 20946
0.13850000 0.13851100 12104.60714618 0 578.38543523 0 3876.51825499 0 -140.43169771 0 1014.43500652 0 20955
0.13950000 0.13949800 11866.64257020 0 373.87078770 0 4292.96188328 0 280.40252874 0 1212.39410654 0 20506
0.14050000 0.14048300 11456.13400550 0 174.26156015 0 3424.07082242 0 787.66387054 0 1503.65060763 0 21447
0.14150000 0.14148400 11459.28138771 0 78.74177003 0 3664.04747488 0 821.60164323 0 1385.99471643 0 21771
0.14250000 0.14249400 11249.53084507 0 35.66062722 0 2846.14400574 0 475.55259015 0 1061.18262478 0 22470
0.14350000 0.14350900 11249.53084507 0 168.44564746 0 3147.60701769 0 61.20399435 0 1217.38495547 0 22519
0.14450000 0.14449900 11054.50555489 0 107.90361503 0 2906.39389366 0 -222.10289373 0 1171.24208422 0 22218
0.14550000 0.14550500 10973.02207774 0 133.08593246 0 3175.67492257 0 -292.65146585 0 701.36377456 0 23559
0.14650000 0.14650700 10935.38837909 0 119.66347142 0 3217.89480671 0 -288.12822799 0 626.04804246 0 23044
0.14750000 0.14750500 10895.00072101 0 82.56415331 0 3414.16780913 0 151.82409723 0 879.54157742 0 23649
0.14850000 0.14849900 10834.67214854 0 148.50248494 0 3275.22212544 0 225.66280782 0 397.75941864 0 23640
0.14950000 0.14949500 10634.92578505 0 67.69513293 0 3559.63307024 0 213.92756845 0 715.90018408 0 24457
0.15050000 0.15050000 10671.96372921 0 126.47867796 0 2901.30187887 0 349.90909254 0 315.25191821 0 24591
0.15150000 0.15149900 10516.25823528 0 149.75806562 0 3205.29403724 0 -1.53058321 0 779.92805471 0 25020
0.15250000 0.15250500 10431.50372877 0 239.65292171 0 2912.53128895 0 15.55447526 0 761.90704346 0 25297
0.15350000 0.15350100 10139.20184716 0 281.43666861 0 3267.29746668 0 81.79675408 0 1168.67921585 0 25452
0.15450000 0.15450400 10026.55928619 0 303.69990145 0 3158.63409606 0 -4.58111596 0 1353.82397404 0 26061
0.15550000 0.15549900 9719.73448383 0 127.88937963 0 3453.75738100 0 468.95657630 0 1734.17387283 0 26128
0.15650000 0.15649500 9674.92925002 0 117.64577462 0 3332.79673849 0 234.56315506 0 1730.34081093 0 26331
0.15750000 0.15749700 9620.68186959 0 30.77633967 0 3355.46913101 0 428.34185708 0 1740.26630552 0 27345
0.15850000 0.15849900 9540.43486402 0 80.83387994 0 3216.64709448 0 46.30451181 0 1942.03598614 0 26980
0.15950000 0.15949700 9658.33804954 0 17.90613180 0 3622.47954847 0 -196.75297820 0 1678.72374277 0 27777
0.16050000 0.16050000 9559.16178814 0 83.66461302 0 3562.57812073 0 -306.79332853 0 1721.51690010 0 28224
0.16150000 0.16150500 9734.89812167 0 -7.88276486 0 3507.83615167 0 -278.10381567 0 1265.11275847 0 28075
0.16250000 0.16249700 9681.12284857 0 6.28069111 0 3586.12728401 0 -250.87221521 0 1001.43969021 0 28590
0.16350000 0.16349900 9714.72115361 0 99.66556693 0 3507.25163783 0 36.87697804 0 854.79303671 0 29163
0.16450000 0.16449100 9582.14891889 0 192.68049044 0 3573.62768040 0 153.76086135 0 489.24595087 0 28996
0.16550000 0.16550500 9321.25341542 0 287.94388132 0 3108.08488972 0 233.53126333 0 461.39049429 0 30777
0.16650000 0.16650700 9082.31090283 0 231.42926164 0 3075.01489527 0 343.20741657 0 121.89249246 0 29211
0.16750000 0.16749900 8834.76929243 0 257.19170905 0 2838.19686567 0 176.80531941 0 126.15045096 0 30922
0.16850000 0.16850800 8698.24034866 0 212.74617606 0 2811.75885515 0 110.33047153 0 139.59089704 0 30867
0.16950000 0.16949900 8428.45349046 0 199.19107534 0 2850.03327089 0 -22.04651309 0 231.25053529 0 30852
0.17050000 0.17049200 8395.43969926 0 88.29182689 0 2615.89051616 0 -71.12060883 0 252.13791248 0 31257
0.17150000 0.17149500 8341.82179528 0 -71.69938994 0 2562.44122194 0 255.37521989 0 100.03504712 0 32608
0.17250000 0.17250900 8523.77420866 0 -169.73382604 0 2175.47057987 0 538.58791132 0 429.43220020 0 32361
0.17350000 0.17350400 8533.11518942 0 -195.17254271 0 1844.43341585 0 685.83031931 0 -90.38933232 0 32508
0.17450000 0.17449800 8725.83614620 0 -119.02725059 0 1328.46506599 0 519.63842232 0 363.90370270 0 32791
0.17550000 0.17549800 8662.57376389 0 59.32939103 0 1328.83600747 0 187.36366264 0 -88.04205963 0 33633
0.17650000 0.17650100 8641.46382181 0 171.84369618 0 1320.64157308 0 -90.16204636 0 546.73401090 0 33984
0.17750000 0.17750300 8467.02016312 0 224.77142421 0 1365.95263618 0 -206.80099589 0 371.02802713 0 34069
