### header ###
fiducial parameters:
Omega_m = 0.31
Omega_nu = 0
Omega_de = 0.69
Omega_k = 0
H_0 = 100
w_de = -1
zeff = 0
beta = 0
fgrowth = 0
b_1 = 2
gamma = 0.55
Lx = 3500 Ly = 3500 Lz = 3500
nx = 700 ny = 700 nz = 700
xoffset = 857.220397 yoffset = 15.9954215 zoffset = 262.898189
bins = 400 dk = 0.001
kx_ny = 0.628318531 ky_ny = 0.628318531 kz_ny = 0.628318531
############################
A(data) = 3.09534027 (not used)
A(ran) = 3.09813137 (used)
Ngal = 189280
weighted Ngal = 0
Nran = 9360983
weighted Nran = 0
SN(data) = 3432.78771
SN(ran) = 69.5723873
SN(data+ran) = 3502.3601
############################
13 columns: k_central k_mean P_0(k) sigma^{lin}_{P_0(k)} P^img_1(k) sigma^{lin}_{P_1(k)} P_2(k) sigma^{lin}_{P_2(k)} P^img_3(k) sigma^{lin}_{P_3(k)} P_4(k) sigma^{lin}_{P_4(k)} N_modes
### header ###
0.00050000 0 0 0 0 0 0 0 0 0 0 0 0
0.00150000 0.00179520 28144.45370676 0 -26584.70101133 0 -40211.40467299 0 50550.10558933 0 -5600.06971288 0 3
0.00250000 0.00253879 55162.59421028 0 -31818.23558517 0 4171.33804237 0 -37703.72790141 0 43816.05654940 0 6
0.00350000 0.00331552 67435.92352393 0 -17436.27260090 0 -19081.67905490 0 -34654.81379714 0 8380.64700290 0 7
0.00450000 0.00420575 84724.60638073 0 -6653.25124247 0 7964.01228356 0 -58549.17746251 0 16370.99613112 0 24
0.00550000 0.00557378 95498.20807385 0 -10247.51675761 0 14548.32461509 0 -33693.28853361 0 15774.22998381 0 45
0.00650000 0.00659388 101864.80024137 0 -4355.12268182 0 21020.35408648 0 34664.81797629 0 -283.27001875 0 40
0.00750000 0.00754703 111638.77086498 0 -8339.77599684 0 2783.98320720 0 -25560.67772974 0 -47342.92312276 0 57
0.00850000 0.00846663 127361.06904242 0 -7654.75950065 0 18251.55699842 0 2126.67491505 0 -35786.52251273 0 75
0.00950000 0.00948925 123961.89626137 0 8044.50658344 0 23612.33573853 0 -27544.65258376 0 -24472.58273898 0 112
0.01050000 0.01054430 108661.79692539 0 7106.91266532 0 -4885.83876543 0 -16832.64965664 0 -24397.38278559 0 105
0.01150000 0.01145670 108772.29252207 0 9611.52073925 0 28371.62725804 0 -3107.62402304 0 -26463.75160947 0 144
0.01250000 0.01249090 86935.97959904 0 15240.29907409 0 4677.39213828 0 14627.12157672 0 -24240.35089488 0 169
0.01350000 0.01339930 81332.40280313 0 13058.71358022 0 9750.37649773 0 24127.04513551 0 -17755.39467515 0 180
0.01450000 0.01448870 59776.54411583 0 11538.52797536 0 -35.13771215 0 23421.91911515 0 -3223.95351746 0 267
0.01550000 0.01550050 51891.45244105 0 3676.85057606 0 -8377.54458330 0 22936.43541008 0 -9178.21613487 0 238
0.01650000 0.01653350 48474.06980582 0 -1993.14722502 0 -17397.71716889 0 11765.70152664 0 7386.91727503 0 315
0.01750000 0.01747870 55299.50533618 0 -6175.59103031 0 -21373.19811292 0 1697.34950103 0 6462.60980607 0 297
0.01850000 0.01844180 52053.20540507 0 -7639.28112459 0 -22208.04124271 0 -12334.47845362 0 8346.02579865 0 388
0.01950000 0.01947590 66682.57511194 0 -4748.93888018 0 -13443.70586776 0 -23298.38436362 0 -9716.10375365 0 399
0.02050000 0.02045430 66836.79683997 0 89.88676282 0 1487.26173887 0 -24305.77148213 0 -11214.75227171 0 462
0.02150000 0.02154770 66860.17739349 0 3181.25028533 0 8474.22542024 0 -21479.19744931 0 -12859.19202975 0 571
0.02250000 0.02255340 67178.17540267 0 3927.33723695 0 28913.31421676 0 -13755.29670602 0 -1209.33664954 0 510
0.02350000 0.02348930 64923.97530507 0 1641.73076121 0 23635.71629206 0 97.25602104 0 -6630.08426131 0 555
0.02450000 0.02439640 67214.70751754 0 -980.37471074 0 30600.53589148 0 14999.07470941 0 -5840.74328568 0 592
0.02550000 0.02547300 67522.92616059 0 -1271.85714891 0 24172.23255145 0 16593.22379607 0 5760.01293213 0 837
0.02650000 0.02652900 68679.58912080 0 -485.76472134 0 30383.70373888 0 17672.32626625 0 12989.58357823 0 723
0.02750000 0.02749970 72084.04500770 0 967.82002794 0 23795.10871942 0 15001.21043304 0 36855.50839725 0 826
0.02850000 0.02848090 69502.62956733 0 -1643.37189622 0 15260.98187144 0 16619.07729276 0 28999.75482088 0 831
0.02950000 0.02946900 72574.13737957 0 10.00399930 0 9151.11492596 0 14454.01555546 0 43920.03256867 0 996
0.03050000 0.03053250 70647.60225079 0 1851.04291848 0 12662.81786148 0 6178.89578162 0 39188.84267599 0 1041
0.03150000 0.03150510 65463.07691413 0 5766.33017784 0 12080.55215361 0 908.08608589 0 39139.72103230 0 1036
0.03250000 0.03246190 62300.29501795 0 5976.86756603 0 15334.60813373 0 -1486.03650794 0 41192.15144927 0 1059
0.03350000 0.03345080 54385.30321223 0 5088.45149486 0 10713.93631904 0 -82.73029013 0 30907.29324993 0 1302
0.03450000 0.03451200 51619.65350638 0 1269.49661226 0 9564.78211351 0 4487.24529051 0 23894.36366538 0 1339
0.03550000 0.03553350 51845.02855354 0 -3039.05605358 0 5323.93188702 0 6935.75127664 0 15112.60528179 0 1365
0.03650000 0.03647120 52964.70977285 0 -2275.77090635 0 364.94795915 0 6391.40028369 0 8337.06700002 0 1308
0.03750000 0.03744890 54900.23742222 0 -1850.54832984 0 -5356.57473674 0 2892.43300545 0 3954.01130113 0 1579
0.03850000 0.03847530 54478.26339378 0 1423.85322809 0 -3296.03981059 0 -3305.30210680 0 -43.29156779 0 1662
0.03950000 0.03950240 52468.32263657 0 3661.12490569 0 -1939.96770641 0 -6397.89737981 0 -2439.97433222 0 1683
0.04050000 0.04050350 49768.99277003 0 4088.57313103 0 8767.74129213 0 -12117.42148801 0 -1259.66104287 0 1822
0.04150000 0.04152450 48491.15559493 0 3366.97955736 0 11905.76003474 0 -9716.55337968 0 -1343.90972010 0 1887
0.04250000 0.04250150 47566.38725929 0 2217.03850628 0 27328.83208972 0 -10158.97415180 0 -5463.77682277 0 1920
0.04350000 0.04349210 47438.35624747 0 1379.81235853 0 26352.91879326 0 -5760.54124271 0 -1174.98522091 0 2005
0.04450000 0.04448520 46442.88421873 0 489.49436925 0 33349.43702775 0 2055.39794876 0 -6011.16279141 0 2151
0.04550000 0.04548030 45968.64116439 0 294.01270865 0 26747.69044693 0 3423.73360290 0 -5811.23657751 0 2274
0.04650000 0.04648670 46824.16709152 0 460.29902711 0 28023.27949188 0 8367.42799764 0 -3958.40639557 0 2311
0.04750000 0.04749250 44646.96545144 0 586.93057792 0 23790.61245913 0 8358.35679250 0 -2015.61728583 0 2568
0.04850000 0.04851840 43721.97230279 0 1470.05230260 0 20655.59497025 0 4728.33476739 0 -1802.58447317 0 2493
0.04950000 0.04949480 42397.03680112 0 1959.76249235 0 18200.52444410 0 1581.93049932 0 -1283.62611023 0 2644
0.05050000 0.05050630 39874.97199661 0 2449.41647884 0 17152.44616994 0 462.97655011 0 -1404.00223890 0 2829
0.05150000 0.05149060 39389.60069805 0 2512.35288228 0 21214.36771809 0 -1519.08402109 0 2136.69033485 0 2784
0.05250000 0.05249300 36051.91427649 0 956.57263282 0 15582.23966933 0 827.57492503 0 -3277.78499381 0 3055
0.05350000 0.05348950 37423.27366567 0 -1.85560662 0 18322.14828501 0 1526.40168471 0 -3209.28446825 0 3009
0.05450000 0.05448610 36348.10542325 0 -815.29901036 0 13706.73709486 0 3396.41882162 0 -5492.76646100 0 3336
0.05550000 0.05550870 37072.56536287 0 -851.79627922 0 12893.36360797 0 2440.86234363 0 -5059.14711840 0 3349
0.05650000 0.05647670 37520.28048148 0 -588.75156334 0 11068.45520244 0 1581.88553672 0 -6703.04732521 0 3324
0.05750000 0.05747970 37747.79125228 0 -419.05932771 0 10762.02382287 0 358.11813977 0 -7067.99753249 0 3639
0.05850000 0.05849280 38678.96675883 0 -175.17092880 0 12549.28728909 0 -961.18804401 0 -7091.94011855 0 3846
0.05950000 0.05951020 38562.06399123 0 693.94269694 0 9727.68162390 0 -611.96575523 0 -5654.94656975 0 3787
0.06050000 0.06049470 37582.55368653 0 1159.28203184 0 13132.22743600 0 -902.25218816 0 -3812.19925151 0 3930
0.06150000 0.06148310 36404.42108342 0 2128.39473461 0 11314.95143232 0 808.55461993 0 -3651.96377534 0 4083
0.06250000 0.06249100 35007.09579105 0 1468.38868629 0 11641.60474257 0 3116.85259729 0 -2594.73561149 0 4303
0.06350000 0.06350600 33608.19680758 0 1121.09754131 0 10011.33944510 0 4229.11498712 0 -1361.59126370 0 4470
0.06450000 0.06451750 32569.67308654 0 675.84300114 0 9373.19646245 0 3767.27037054 0 -131.76065974 0 4479
0.06550000 0.06550280 31499.33832393 0 643.87346639 0 5690.87168948 0 3368.85674603 0 1071.25762003 0 4636
0.06650000 0.06648880 31196.85241276 0 891.89842477 0 6629.37610032 0 1562.25936055 0 -347.01462498 0 4653
0.06750000 0.06749660 30458.90369227 0 810.29354859 0 4936.21936201 0 506.32049933 0 2140.97302278 0 5220
0.06850000 0.06852730 29386.54561254 0 539.22413215 0 5083.29203617 0 345.23747810 0 1087.45764586 0 5029
0.06950000 0.06949320 30109.20704803 0 314.40100095 0 5883.27790805 0 -648.49112571 0 1910.65208930 0 5040
0.07050000 0.07048030 29663.96487258 0 -176.00273695 0 5647.03315163 0 -604.91899128 0 1657.89481696 0 5475
0.07150000 0.07148790 30180.36036716 0 -181.85686785 0 8030.29840092 0 -1144.70290784 0 1027.47078917 0 5509
0.07250000 0.07249820 30645.61090092 0 352.70801457 0 8875.52789198 0 -1327.09370660 0 1779.94580260 0 5916
0.07350000 0.07351270 30632.45933956 0 544.07334888 0 10241.16578994 0 -1881.80857953 0 632.20904313 0 5721
0.07450000 0.07449140 29983.31175985 0 835.42314737 0 11746.59242039 0 -1702.76749468 0 1751.09105218 0 6028
0.07550000 0.07549160 29346.07926991 0 1202.51357455 0 11991.30138681 0 333.15040637 0 935.07713642 0 6183
0.07650000 0.07648840 28778.53881450 0 885.12480864 0 13249.13020360 0 1097.19317346 0 1824.09907867 0 6330
0.07750000 0.07749960 27532.62508748 0 1174.07472820 0 12478.58359600 0 1469.13056924 0 1217.48612132 0 6583
0.07850000 0.07848650 26863.46914946 0 453.50630187 0 11685.33087391 0 2174.87482538 0 1854.97714623 0 6549
0.07950000 0.07947320 25934.31696004 0 208.78721887 0 11134.64015395 0 1880.12248192 0 2313.15731068 0 6828
0.08050000 0.08048110 26201.73204093 0 -263.74276030 0 8426.69994895 0 1761.14019393 0 951.46600519 0 7147
0.08150000 0.08149960 26378.88469645 0 -164.31695645 0 9211.00511305 0 381.06480417 0 2282.53777809 0 7386
0.08250000 0.08250610 26039.19223136 0 257.39516483 0 7682.70375836 0 818.29576785 0 65.66214884 0 7227
0.08350000 0.08350160 25795.83214303 0 847.16737925 0 7629.00716982 0 -435.13907858 0 1076.91616361 0 7798
0.08450000 0.08449610 25069.12407327 0 967.86049428 0 7585.56205475 0 901.47545919 0 942.97369356 0 7371
0.08550000 0.08548940 24174.03105556 0 840.64780183 0 6470.73679655 0 672.20665062 0 -1043.71577761 0 8256
0.08650000 0.08650700 23442.26469297 0 523.97618943 0 6199.73594808 0 808.96939994 0 52.49631186 0 8037
0.08750000 0.08749060 22913.27966957 0 335.04333195 0 6472.73763238 0 264.40258649 0 -1440.70296354 0 8155
0.08850000 0.08849210 22302.23789584 0 712.70671521 0 5768.96049011 0 703.16565087 0 574.49167382 0 8718
0.08950000 0.08949900 21828.33206102 0 726.73729545 0 6377.36071093 0 565.01355712 0 898.51242366 0 8571
0.09050000 0.09049190 21309.01399725 0 448.45475343 0 5739.28517218 0 479.87574442 0 2629.87388567 0 8932
0.09150000 0.09150830 21041.59891636 0 322.01541775 0 6465.16143379 0 1231.45825018 0 2561.94663331 0 9285
0.09250000 0.09250820 20929.30481555 0 -34.42370602 0 6549.27522321 0 708.15425166 0 4230.74488148 0 9204
0.09350000 0.09350330 20736.41524901 0 38.31195951 0 5426.75011926 0 930.30772832 0 4077.29875835 0 9349
0.09450000 0.09448040 20978.87608528 0 11.81504798 0 6156.68425578 0 272.42616299 0 3184.74612771 0 9564
0.09550000 0.09549270 20536.78129203 0 477.01387475 0 5315.26534531 0 -326.75110390 0 2193.95020967 0 10155
0.09650000 0.09649430 19973.96190993 0 703.36461039 0 5994.12196490 0 -612.83915379 0 423.83885240 0 9913
0.09750000 0.09749140 19195.20962728 0 853.73978773 0 5497.66738472 0 -1398.49432005 0 -402.42766089 0 10476
0.09850000 0.09850240 18857.87769885 0 752.73804466 0 6003.55287087 0 -919.71678720 0 -1470.09726520 0 10575
0.09950000 0.09950330 17950.75718486 0 355.21692782 0 6093.82653689 0 -207.89358714 0 -1577.26562927 0 10882
0.10050000 0.10051200 18147.58097916 0 166.55834221 0 5919.88870748 0 148.78237714 0 -2443.52637786 0 10875
0.10150000 0.10150300 18204.00904583 0 -58.94743372 0 5871.50894673 0 397.96287441 0 -2717.35987031 0 11118
0.10250000 0.10250800 17877.46814209 0 14.33643835 0 6086.89105539 0 828.67763286 0 -1261.68436000 0 11575
0.10350000 0.10349800 17993.13443811 0 338.87302165 0 5927.54359062 0 917.01903102 0 -1368.87520537 0 11364
0.10450000 0.10450100 17682.66766492 0 308.05340548 0 5343.86156077 0 1356.57793347 0 -58.27726612 0 12093
0.10550000 0.10551000 17080.16878574 0 581.09105986 0 5544.24864135 0 1143.23038260 0 344.18760132 0 12067
0.10650000 0.10649700 16607.04979647 0 536.47129679 0 4681.15775627 0 842.78577360 0 569.51656181 0 12054
0.10750000 0.10749900 15905.07115832 0 563.61859237 0 4657.01283850 0 516.25723458 0 822.75043773 0 12807
0.10850000 0.10850100 15764.78783720 0 644.19832120 0 4163.75060312 0 -425.88127864 0 1521.62440815 0 12736
0.10950000 0.10950300 15301.22340105 0 10.11086417 0 4585.43237465 0 103.17062664 0 1351.84561951 0 12933
0.11050000 0.11050200 15228.27157781 0 -14.21751226 0 3776.18420657 0 276.89994198 0 150.36955702 0 13428
0.11150000 0.11150900 15563.24296959 0 -107.43667840 0 3739.01137460 0 444.27323136 0 -278.54557324 0 13453
0.11250000 0.11250000 15116.53950954 0 207.21689997 0 3083.04071989 0 -374.60705033 0 -1464.92656587 0 13668
0.11350000 0.11349100 15281.10263625 0 240.89276549 0 3324.83835777 0 -82.21872811 0 -326.01708941 0 13791
0.11450000 0.11448600 14731.32240899 0 299.72857955 0 3050.85873685 0 -254.05331937 0 -1582.24523755 0 14205
0.11550000 0.11549300 14618.12905613 0 280.06755735 0 3111.76058251 0 940.68509707 0 -493.06664805 0 14776
0.11650000 0.11649800 14305.63896581 0 346.87411684 0 3240.96062201 0 449.79801120 0 81.94018479 0 14553
0.11750000 0.11747300 14031.92912051 0 294.77145257 0 2410.35521755 0 365.69433836 0 368.26844738 0 14568
0.11850000 0.11849100 13760.35499885 0 175.46880604 0 3800.41904955 0 497.78659730 0 1502.80755883 0 16015
0.11950000 0.11950300 13533.06904107 0 111.52411623 0 2855.21521088 0 171.31763373 0 1841.61201251 0 15270
0.12050000 0.12050700 13622.99424692 0 -16.32030080 0 3218.98514983 0 324.30963457 0 2085.82639029 0 15999
0.12150000 0.12150000 13696.84532222 0 27.55521880 0 3206.81152509 0 54.12440771 0 1575.07370238 0 15670
0.12250000 0.12250700 13505.64185329 0 194.72853700 0 2932.67453506 0 -201.59882273 0 1324.86805776 0 16887
0.12350000 0.12352200 13293.98040002 0 223.80697638 0 2651.14119686 0 -397.87182514 0 -127.89612402 0 16407
0.12450000 0.12449800 13217.43156854 0 53.89521084 0 2605.74020855 0 -178.47343198 0 -30.23128051 0 16306
0.12550000 0.12549900 13077.82268646 0 73.30556652 0 2679.43391475 0 -282.80915207 0 -892.61220609 0 17523
0.12650000 0.12650100 13130.87855791 0 11.58113004 0 2410.93973139 0 448.60875035 0 -388.38696406 0 17154
0.12750000 0.12750600 13128.74283428 0 -7.15000932 0 2736.78371478 0 38.55307147 0 -929.87496327 0 18007
0.12850000 0.12850300 13265.42914716 0 150.32347036 0 2771.96695156 0 311.79316998 0 -304.93974523 0 17496
0.12950000 0.12949900 13107.04837836 0 222.74023863 0 3403.63531939 0 -164.31583239 0 333.55731792 0 18405
0.13050000 0.13049000 13013.97579031 0 139.80671753 0 3262.31785840 0 88.62612384 0 355.79357320 0 18100
0.13150000 0.13148800 12922.81411288 0 138.91983019 0 3400.04955181 0 23.66651568 0 767.13619418 0 19059
0.13250000 0.13249300 12847.05212696 0 19.01535922 0 3304.13307912 0 255.61576982 0 447.42623389 0 18957
0.13350000 0.13349100 12883.13461580 0 138.64106205 0 3161.33185223 0 141.09152391 0 527.70021702 0 19468
0.13450000 0.13450700 12782.86801128 0 186.79825791 0 2833.21725740 0 137.08085973 0 189.04751212 0 19953
0.13550000 0.13551000 12578.06335496 0 218.71720973 0 2667.99093230 0 -8.71192022 0 166.95513718 0 19956
0.13650000 0.13649900 12426.65178962 0 118.19094618 0 2415.70576730 0 38.26429915 0 -35.68119762 0 19723
0.13750000 0.13749600 12368.98725137 0 116.15863652 0 2197.12007318 0 33.36213896 0 -717.31313388 0 20946
0.13850000 0.13851100 12106.18083728 0 135.15646032 0 2602.66027025 0 -90.04401953 0 -650.35370154 0 20955
0.13950000 0.13949800 12210.94370209 0 92.59193783 0 2441.06467534 0 -441.01906297 0 -892.40537812 0 20506
0.14050000 0.14048300 11976.68854086 0 54.46398777 0 2459.47686124 0 -258.82272747 0 -649.38026118 0 21447
0.14150000 0.14148400 11985.00662240 0 -15.66800583 0 2660.51589957 0 -122.27242646 0 -833.49312764 0 21771
0.14250000 0.14249400 12116.85945547 0 13.91749930 0 2852.58489861 0 -49.75415511 0 -741.02303846 0 22470
0.14350000 0.14350900 12233.42500355 0 47.58100011 0 3045.44074320 0 1.09204496 0 -389.00632391 0 22519
0.14450000 0.14449900 12002.31722452 0 219.11962502 0 3257.43941598 0 15.40587386 0 -133.01961262 0 22218
0.14550000 0.14550500 11943.52862120 0 286.59500323 0 3677.64866226 0 161.74621963 0 343.54013984 0 23559
0.14650000 0.14650700 11566.17997616 0 439.20594601 0 3519.54890973 0 93.09135994 0 15.66036219 0 23044
0.14750000 0.14750500 11300.45099288 0 438.80240665 0 3908.07076160 0 66.00858569 0 612.01184189 0 23649
0.14850000 0.14849900 10811.39276088 0 493.27797229 0 3588.38665481 0 -12.47228883 0 -62.93955083 0 23640
0.14950000 0.14949500 10484.88557909 0 284.11643975 0 3475.19330195 0 32.47513921 0 -174.45265121 0 24457
0.15050000 0.15050000 10118.50780917 0 256.29920138 0 3011.35909018 0 87.23239556 0 -842.85883783 0 24591
0.15150000 0.15149900 9996.29945442 0 -3.54745945 0 2409.16370857 0 294.03069369 0 -874.23823841 0 25020
0.15250000 0.15250500 9976.78568475 0 -46.67747660 0 2176.63960755 0 398.10338255 0 -1589.55166052 0 25297
0.15350000 0.15350100 10024.26619344 0 -182.52456250 0 1616.02339299 0 610.90913406 0 -1762.63520048 0 25452
0.15450000 0.15450400 10053.03101866 0 4.54939485 0 1537.33883787 0 174.94836391 0 -1845.98462565 0 26061
0.15550000 0.15549900 10137.06612352 0 140.34964096 0 1594.82352571 0 -40.57593898 0 -1735.07312488 0 26128
0.15650000 0.15649500 9905.86841929 0 299.21375774 0 2035.61440348 0 -370.47386305 0 -1361.83855801 0 26331
0.15750000 0.15749700 9787.74042076 0 279.25148611 0 2652.86101642 0 -396.89726073 0 -834.96452882 0 27345
0.15850000 0.15849900 9712.54046737 0 151.10919184 0 2885.29519223 0 -448.93248109 0 -388.87593236 0 26980
0.15950000 0.15949700 9707.76319081 0 67.43671037 0 3466.07713420 0 18.37396768 0 -51.07909061 0 27777
0.16050000 0.16050000 9803.81455130 0 83.36684818 0 3698.25277505 0 92.44367364 0 399.31512470 0 28224
0.16150000 0.16150500 9707.63954365 0 121.15060951 0 3526.81037010 0 348.23086339 0 511.92283966 0 28075
0.16250000 0.16249700 9597.11022501 0 158.82027824 0 3393.44004918 0 347.75313573 0 406.51138930 0 28590
0.16350000 0.16349900 9515.16588118 0 214.92011791 0 3011.21296172 0 156.29675215 0 694.44065777 0 29163
0.16450000 0.16449100 9171.62911354 0 186.74879905 0 2951.14292422 0 358.33508433 0 394.67948034 0 28996
0.16550000 0.16550500 9149.70984462 0 148.05623110 0 2507.26086750 0 88.53417532 0 607.33797932 0 30777
0.16650000 0.16650700 8955.76365690 0 30.11876160 0 2593.74643422 0 185.58539170 0 254.80531890 0 29211
0.16750000 0.16749900 9052.71426946 0 -13.06781851 0 2485.47648638 0 230.16918469 0 841.75500593 0 30922
0.16850000 0.16850800 9080.56860197 0 -141.65130832 0 2756.57850071 0 461.18591445 0 661.74385292 0 30867
0.16950000 0.16949900 9282.74294602 0 -95.55339967 0 2089.01873510 0 346.77182692 0 929.51975870 0 30852
0.17050000 0.17049200 9323.41162036 0 -32.23638779 0 2614.80017304 0 237.38455840 0 884.11989447 0 31257
0.17150000 0.17149500 9297.60308628 0 -28.49268907 0 2045.89959890 0 -35.01979773 0 793.05039037 0 32608
0.17250000 0.17250900 9381.81804156 0 90.10044759 0 2509.31790658 0 -41.73844707 0 875.27013014 0 32361
0.17350000 0.17350400 9219.06465963 0 229.81398013 0 2397.30482205 0 -249.31988134 0 657.35775101 0 32508
0.17450000 0.17449800 9051.87122065 0 210.61607275 0 2461.38777187 0 -192.53773418 0 590.23420517 0 32791
0.17550000 0.17549800 8916.66867366 0 151.85894325 0 2527.73009248 0 64.22907828 0 595.48920939 0 33633
0.17650000 0.17650100 8742.73084425 0 162.05084126 0 2507.10349839 0 111.28648887 0 546.02697397 0 33984
0.17750000 0.17750300 8671.38643406 0 113.40130490 0 2301.50075587 0 192.16342051 0 134.95525268 0 34069
