### header ###
fiducial parameters:
Omega_m = 0.31
Omega_nu = 0
Omega_de = 0.69
Omega_k = 0
H_0 = 100
w_de = -1
zeff = 0
beta = 0
fgrowth = 0
b_1 = 2
gamma = 0.55
Lx = 3500 Ly = 3500 Lz = 3500
nx = 700 ny = 700 nz = 700
xoffset = 857.220397 yoffset = 15.9954215 zoffset = 262.898189
bins = 400 dk = 0.001
kx_ny = 0.628318531 ky_ny = 0.628318531 kz_ny = 0.628318531
############################
A(data) = 3.1050157 (not used)
A(ran) = 3.10094175 (used)
Ngal = 189430
weighted Ngal = 0
Nran = 9360983
weighted Nran = 0
SN(data) = 3462.3642
SN(ran) = 69.6354977
SN(data+ran) = 3531.9997
############################
13 columns: k_central k_mean P_0(k) sigma^{lin}_{P_0(k)} P^img_1(k) sigma^{lin}_{P_1(k)} P_2(k) sigma^{lin}_{P_2(k)} P^img_3(k) sigma^{lin}_{P_3(k)} P_4(k) sigma^{lin}_{P_4(k)} N_modes
### header ###
0.00050000 0 0 0 0 0 0 0 0 0 0 0 0
0.00150000 0.00179520 11556.85023605 0 -15469.60834900 0 -8294.90331913 0 43304.60694114 0 -10645.05361136 0 3
0.00250000 0.00253879 23220.82387357 0 -20960.66623109 0 -6493.57779883 0 -11031.45098024 0 7938.64213486 0 6
0.00350000 0.00331552 34759.80147497 0 -19455.20587869 0 -6605.46723621 0 -65.22747287 0 1242.29423749 0 7
0.00450000 0.00420575 47546.82852702 0 -16205.98337839 0 -8516.72632065 0 -2796.29171975 0 -2341.25893750 0 24
0.00550000 0.00557378 62469.57921796 0 -7647.97014761 0 6940.44986864 0 -4986.04916670 0 20069.73225416 0 45
0.00650000 0.00659388 65770.95833765 0 -2562.65479430 0 3745.23869511 0 -1263.80884299 0 -4390.30591861 0 40
0.00750000 0.00754703 76313.67706476 0 635.17882305 0 34115.82459459 0 3511.34323470 0 40781.98010409 0 57
0.00850000 0.00846663 74012.60345362 0 2410.88352813 0 33638.32175153 0 8001.72466676 0 8556.11356081 0 75
0.00950000 0.00948925 91135.82393166 0 2937.11459210 0 62787.12760111 0 3097.17021786 0 32159.95136739 0 112
0.01050000 0.01054430 77000.70563744 0 4557.92650231 0 44339.87087347 0 2539.01570581 0 1271.39628223 0 105
0.01150000 0.01145670 98190.11911090 0 -1243.73304078 0 67266.97654344 0 4905.94828959 0 17624.77831366 0 144
0.01250000 0.01249090 89483.89790023 0 -2656.22197099 0 54637.43100813 0 15269.18754647 0 -10958.98250497 0 169
0.01350000 0.01339930 113754.26133256 0 -1823.09866076 0 71145.11345214 0 19361.57125810 0 -1141.56676629 0 180
0.01450000 0.01448870 103095.87630943 0 2529.35998684 0 57671.28264042 0 20772.61014436 0 -13721.12512780 0 267
0.01550000 0.01550050 99169.51700910 0 8891.27604366 0 56030.93447925 0 23135.39492802 0 -27358.95703368 0 238
0.01650000 0.01653350 92125.11360249 0 11208.49122925 0 50385.65486913 0 10620.42534561 0 -155.69312921 0 315
0.01750000 0.01747870 85330.14023561 0 12777.24768592 0 53199.18974710 0 16689.10654681 0 -7890.23989281 0 297
0.01850000 0.01844180 82885.18629511 0 9495.64087086 0 63130.07985491 0 8242.72421843 0 16581.87073884 0 388
0.01950000 0.01947590 69548.37901580 0 9218.90729052 0 54603.48424292 0 12808.04706892 0 15576.73175047 0 399
0.02050000 0.02045430 70946.49115372 0 4839.88698524 0 65404.62553033 0 15193.53796705 0 19767.80837552 0 462
0.02150000 0.02154770 66421.67960847 0 2704.17458701 0 54704.53769299 0 18677.24044160 0 14103.19484615 0 571
0.02250000 0.02255340 68579.09770327 0 -214.40079985 0 67271.81002326 0 22044.48977458 0 23334.24203945 0 510
0.02350000 0.02348930 66312.53288987 0 -3366.90087280 0 45681.44253821 0 20748.66755831 0 23749.47167745 0 555
0.02450000 0.02439640 71185.57979477 0 -6145.35367984 0 48118.19080368 0 20784.30042112 0 12809.73316653 0 592
0.02550000 0.02547300 77191.00985431 0 -4277.82072674 0 33619.43745831 0 18279.65862525 0 16701.92088864 0 837
0.02650000 0.02652900 81649.27674724 0 -1855.62910397 0 36718.03523881 0 10944.12236471 0 18022.02291049 0 723
0.02750000 0.02749970 81258.55172783 0 2665.47302654 0 24379.39774442 0 701.11760430 0 23354.13799124 0 826
0.02850000 0.02848090 76849.63129161 0 4064.73171083 0 30419.56141472 0 6000.69774558 0 11438.26137084 0 831
0.02950000 0.02946900 69192.83723318 0 5821.73534529 0 17539.79899413 0 765.12186957 0 7969.05933574 0 996
0.03050000 0.03053250 64444.56155140 0 5429.68392910 0 16558.04055929 0 3274.36783599 0 555.63997848 0 1041
0.03150000 0.03150510 60871.38349703 0 4813.51641863 0 13817.34509806 0 802.04515909 0 -5403.56065680 0 1036
0.03250000 0.03246190 56390.18567661 0 2669.76695512 0 15605.39540983 0 -4176.51998235 0 -8667.27235589 0 1059
0.03350000 0.03345080 55486.21254483 0 1759.64518738 0 10063.09140106 0 -1231.64934125 0 -10742.25151823 0 1302
0.03450000 0.03451200 52555.99971227 0 2149.68452710 0 14643.64533329 0 -5324.72997322 0 -9770.73331620 0 1339
0.03550000 0.03553350 53319.80192944 0 3175.88849493 0 12457.78839214 0 -2153.84356787 0 -14432.32109955 0 1365
0.03650000 0.03647120 50317.98615173 0 2909.42886935 0 23382.35202458 0 -1767.30007053 0 -9820.58560219 0 1308
0.03750000 0.03744890 48757.67142376 0 823.85089744 0 14736.49310833 0 5124.41033655 0 -11986.46790699 0 1579
0.03850000 0.03847530 47883.14879689 0 -704.99900100 0 18653.41026205 0 4171.24811716 0 -7665.38191559 0 1662
0.03950000 0.03950240 48951.12302284 0 -259.61069709 0 15002.10968510 0 4161.43502907 0 -12950.69092670 0 1683
0.04050000 0.04050350 47809.07290857 0 572.60324450 0 18739.85086617 0 1676.59925978 0 -9105.05073926 0 1822
0.04150000 0.04152450 45908.72849599 0 2958.31445938 0 11369.35618186 0 183.98359897 0 -6665.50355176 0 1887
0.04250000 0.04250150 44150.80312817 0 3176.55169332 0 11837.97891084 0 2233.35993114 0 -7049.91132546 0 1920
0.04350000 0.04349210 40680.47702799 0 2903.96591310 0 10032.21333351 0 2443.18915833 0 -5571.69831043 0 2005
0.04450000 0.04448520 38655.13657928 0 618.10539866 0 5654.77795999 0 6596.63208474 0 -4181.81432885 0 2151
0.04550000 0.04548030 37674.50220951 0 111.73858784 0 3766.22499002 0 5386.16012947 0 -2963.56384327 0 2274
0.04650000 0.04648670 37848.05785680 0 -18.02404623 0 864.37456739 0 3249.73957023 0 -3699.08458321 0 2311
0.04750000 0.04749250 36736.80712553 0 465.49108368 0 2148.57170267 0 913.54904214 0 614.21838163 0 2568
0.04850000 0.04851840 37132.02840523 0 1565.24937364 0 3633.16940732 0 -3446.83314015 0 2680.54673917 0 2493
0.04950000 0.04949480 36105.08255445 0 1221.74632795 0 7174.13175669 0 -5327.69750502 0 6571.41930515 0 2644
0.05050000 0.05050630 36001.55616122 0 890.60799807 0 9945.45799116 0 -3155.28438214 0 9428.44426079 0 2829
0.05150000 0.05149060 36740.74135329 0 898.01558690 0 13549.70520415 0 -1300.08242290 0 9604.03446586 0 2784
0.05250000 0.05249300 36137.79284808 0 -292.02536160 0 16569.16880351 0 932.79416026 0 10335.26127721 0 3055
0.05350000 0.05348950 37096.62035543 0 -65.68710308 0 17226.85927778 0 2124.40430360 0 9795.87865189 0 3009
0.05450000 0.05448610 36663.29326975 0 48.33794553 0 14836.98452586 0 2780.77962174 0 11114.45194523 0 3336
0.05550000 0.05550870 36119.02096136 0 -228.35157147 0 11911.82998614 0 4378.46951339 0 9260.03683154 0 3349
0.05650000 0.05647670 36851.79898251 0 -58.59324081 0 10976.99002745 0 2393.67409186 0 6645.88861624 0 3324
0.05750000 0.05747970 35530.46048908 0 167.93419786 0 6989.49282778 0 1808.75559043 0 6462.10397679 0 3639
0.05850000 0.05849280 35317.45015773 0 371.05388063 0 5648.43823297 0 935.61219140 0 2676.15164473 0 3846
0.05950000 0.05951020 34691.00869249 0 456.24902065 0 5352.87656265 0 12.50679763 0 4902.40748461 0 3787
0.06050000 0.06049470 34848.82742876 0 682.43789092 0 4679.07823589 0 -38.94413371 0 163.63240082 0 3930
0.06150000 0.06148310 33506.91854449 0 674.71106761 0 6445.31044460 0 -1436.06057479 0 976.93282349 0 4083
0.06250000 0.06249100 32948.25820316 0 915.54875391 0 7292.52953084 0 -447.41386918 0 1280.99579795 0 4303
0.06350000 0.06350600 32445.91352199 0 855.91485365 0 7938.64213486 0 -1828.38176660 0 2047.66438106 0 4470
0.06450000 0.06451750 32220.76328785 0 759.32956224 0 8536.10520251 0 266.51020851 0 1017.47897474 0 4479
0.06550000 0.06550280 30495.99783969 0 913.01511123 0 10354.04440458 0 -1015.24208524 0 -219.42537072 0 4636
0.06650000 0.06648880 31198.87572990 0 1120.08026241 0 11464.78930657 0 -922.48985574 0 829.01035613 0 4653
0.06750000 0.06749660 29169.82586644 0 1201.43447208 0 11888.89905865 0 -933.12126320 0 -11.15680672 0 5220
0.06850000 0.06852730 28923.09358290 0 1389.23202384 0 11762.44173792 0 -283.11040151 0 614.41172083 0 5029
0.06950000 0.06949320 27905.92709825 0 505.06491864 0 12742.40166865 0 829.31048150 0 -1093.06448245 0 5040
0.07050000 0.07048030 27175.62202026 0 282.28758587 0 9919.07618390 0 3327.92953672 0 369.38464400 0 5475
0.07150000 0.07148790 26717.11587694 0 -68.14262324 0 8359.41341367 0 2696.42977865 0 -2028.49907157 0 5509
0.07250000 0.07249820 26887.63654853 0 -82.29572657 0 6577.83771671 0 2161.66706078 0 -1601.01712427 0 5916
0.07350000 0.07351270 26671.36642847 0 213.19467802 0 5810.87687669 0 1390.54717998 0 -1250.53363447 0 5721
0.07450000 0.07449140 26268.95113230 0 361.22393157 0 4878.12767903 0 781.69396094 0 -1189.68799207 0 6028
0.07550000 0.07549160 25902.61832497 0 725.16135622 0 5167.14729062 0 -1207.56062673 0 900.96625772 0 6183
0.07650000 0.07648840 25524.48283438 0 667.48894951 0 5809.43807339 0 -462.09977936 0 -1289.12278843 0 6330
0.07750000 0.07749960 25485.47777635 0 280.98591852 0 5729.06742067 0 -471.36207556 0 1024.43244128 0 6583
0.07850000 0.07848650 24835.54335108 0 161.62819280 0 5618.21212316 0 -207.41473542 0 -1777.37169358 0 6549
0.07950000 0.07947320 25779.75801248 0 180.21685691 0 7483.78920303 0 -1053.88519433 0 367.98855518 0 6828
0.08050000 0.08048110 25277.41333132 0 343.45695902 0 7158.13631070 0 -1706.09472730 0 -3770.41775274 0 7147
0.08150000 0.08149960 24632.19997936 0 588.67063065 0 8625.31100671 0 -946.65613074 0 -2477.74291868 0 7386
0.08250000 0.08250610 24488.43205651 0 546.14050455 0 9284.28291517 0 -619.63525122 0 -3632.50620893 0 7227
0.08350000 0.08350160 23879.75081942 0 371.92952732 0 8155.69910047 0 514.77346868 0 -5021.41225390 0 7798
0.08450000 0.08449610 23849.06384293 0 250.30456235 0 9280.39365001 0 505.07391117 0 -3932.69902735 0 7371
0.08550000 0.08548940 23018.82937994 0 679.54679555 0 7780.27260671 0 1048.04567627 0 -5007.29399658 0 8256
0.08650000 0.08650700 22361.70093820 0 756.03717565 0 7327.36430746 0 1615.05669703 0 -2762.90698707 0 8037
0.08750000 0.08749060 21780.33448240 0 744.68861467 0 6320.78651580 0 1834.32807084 0 -3479.93685655 0 8155
0.08850000 0.08849210 21009.00102924 0 541.54083027 0 5359.14884576 0 1726.63139618 0 -1997.72216986 0 8718
0.08950000 0.08949900 20129.30770303 0 541.09345237 0 4198.64158299 0 1735.26421595 0 -2407.82607113 0 8571
0.09050000 0.09049190 19561.54243461 0 695.17916852 0 3842.97615321 0 586.52479043 0 -1385.30903674 0 8932
0.09150000 0.09150830 18918.46480629 0 661.83153000 0 4055.96400326 0 -205.83879619 0 -822.94490099 0 9285
0.09250000 0.09250820 18597.20700840 0 537.46946657 0 4963.43297743 0 -739.95517665 0 -246.21858581 0 9204
0.09350000 0.09350330 18049.89972430 0 181.99737599 0 4664.38670538 0 -465.94183378 0 -403.24373213 0 9349
0.09450000 0.09448040 18247.95999018 0 19.53737504 0 5753.20109779 0 -527.30791831 0 100.14666678 0 9564
0.09550000 0.09549270 18425.11264570 0 -101.60761415 0 6165.23839098 0 -4.88549031 0 -575.65732930 0 10155
0.09650000 0.09649430 18871.47888623 0 -140.23049006 0 6432.87828489 0 -116.23057669 0 -107.23311022 0 9913
0.09750000 0.09749140 18729.28465448 0 95.81373314 0 6792.90508715 0 -280.89037299 0 -479.41600181 0 10476
0.09850000 0.09850240 18899.58051306 0 385.97696854 0 6844.76944962 0 -69.37561021 0 -1082.49489857 0 10575
0.09950000 0.09950330 18471.31172021 0 226.93075322 0 6523.71398344 0 -162.18572907 0 -764.64863817 0 10882
0.10050000 0.10051200 18666.56182341 0 20.80307231 0 7183.55142200 0 465.32584612 0 -1267.78803335 0 10875
0.10150000 0.10150300 18105.42853891 0 154.92089650 0 6700.33832838 0 -333.03462766 0 -1712.73795188 0 11118
0.10250000 0.10250800 18590.35021145 0 75.35327587 0 6846.35438138 0 435.69773892 0 -1039.09474609 0 11575
0.10350000 0.10349800 17883.42568698 0 251.30273213 0 6538.37179200 0 -147.59311629 0 -1499.19930994 0 11364
0.10450000 0.10450100 17930.74882656 0 683.00441972 0 7553.78473513 0 240.51395556 0 34.27521702 0 12093
0.10550000 0.10551000 17278.22905162 0 417.21810912 0 6775.51580047 0 833.84720814 0 -1272.01451802 0 12067
0.10650000 0.10649700 17254.51127858 0 301.64511050 0 7019.61777174 0 562.46417754 0 1088.28720589 0 12054
0.10750000 0.10749900 16769.25238652 0 127.15873733 0 5950.09233599 0 1442.61387416 0 -101.38639815 0 12807
0.10850000 0.10850100 16755.87601215 0 206.11644026 0 5696.33464574 0 1157.59593423 0 720.60552048 0 12736
0.10950000 0.10950300 16417.64483166 0 176.84466169 0 4585.94944458 0 845.30367936 0 1052.05634045 0 12933
0.11050000 0.11050200 16174.95918237 0 294.31058589 0 4604.01317030 0 635.41262859 0 631.74480425 0 13428
0.11150000 0.11150900 15864.60481569 0 400.68873222 0 4132.65896320 0 292.30637787 0 1510.69849564 0 13453
0.11250000 0.11250000 15424.75815259 0 185.52918845 0 4289.79201977 0 193.84839405 0 284.04112739 0 13668
0.11350000 0.11349100 15426.78146972 0 223.64848320 0 3895.99830271 0 -227.93004707 0 931.79149422 0 13791
0.11450000 0.11448600 15206.01508936 0 -57.18006620 0 4111.58274308 0 149.29607488 0 135.49705204 0 14205
0.11550000 0.11549300 15015.93568550 0 8.53153026 0 4186.13073873 0 -74.44424444 0 276.74482100 0 14776
0.11650000 0.11649800 15441.50672218 0 13.68695355 0 3719.28403257 0 43.95274286 0 -56.37613486 0 14553
0.11750000 0.11747300 14834.28676969 0 301.30789097 0 3811.33372140 0 130.63659467 0 -1240.10231060 0 14568
0.11850000 0.11849100 14908.58747102 0 383.09149350 0 3580.48447734 0 133.92785720 0 -201.49990500 0 16015
0.11950000 0.11950300 14469.19043395 0 366.88022701 0 3403.11824946 0 294.80292640 0 -637.58432231 0 15270
0.12050000 0.12050700 14185.92603553 0 195.08036937 0 3130.75728225 0 268.60434174 0 -167.68128321 0 15999
0.12150000 0.12150000 14035.18890922 0 48.10661293 0 3000.16340205 0 330.97983671 0 -560.15422381 0 15670
0.12250000 0.12250700 14007.19968890 0 51.45351669 0 3328.91871398 0 135.51503708 0 174.64037008 0 16887
0.12350000 0.12352200 14091.72938240 0 -13.61535060 0 3091.60609575 0 -324.25455538 0 -462.02559106 0 16407
0.12450000 0.12449800 14180.64292968 0 -127.79046190 0 2952.87398443 0 -206.80324402 0 -121.80256726 0 16306
0.12550000 0.12549900 14181.87940126 0 74.61780009 0 3036.42574131 0 217.07607472 0 -566.74012108 0 17523
0.12650000 0.12650100 13944.36445132 0 284.84370985 0 2758.77042761 0 140.94989171 0 -1323.41801381 0 17154
0.12750000 0.12750600 13680.88359818 0 341.57415002 0 2588.09238691 0 250.96214042 0 -1114.78816405 0 18007
0.12850000 0.12850300 13325.45422207 0 376.76525527 0 2621.28602851 0 494.54479363 0 -1286.82969568 0 17496
0.12950000 0.12949900 12926.86074715 0 358.31709929 0 2534.87914635 0 274.67429313 0 -777.77884229 0 18405
0.13050000 0.13049000 12834.01297211 0 241.31316583 0 2825.33756123 0 233.63130512 0 -331.24736420 0 18100
0.13150000 0.13148800 12571.76859056 0 128.71331933 0 2479.17048132 0 -157.28705348 0 -284.98196985 0 19059
0.13250000 0.13249300 12679.22921154 0 229.28004922 0 3115.85217938 0 -395.55175483 0 265.67165596 0 18957
0.13350000 0.13349100 12419.00814712 0 153.88563257 0 3242.42190661 0 -447.56224577 0 -10.88739080 0 19468
0.13450000 0.13450700 12607.40145337 0 228.58987327 0 4018.67876479 0 -671.10394279 0 112.53127853 0 19953
0.13550000 0.13551000 12288.61659864 0 210.34966932 0 4153.90379308 0 -471.87352517 0 -478.77865691 0 19956
0.13650000 0.13649900 12433.28377355 0 56.20381569 0 4151.71186619 0 -151.69258161 0 -352.90922222 0 19723
0.13750000 0.13749600 12293.78729798 0 -69.26814959 0 4148.46331813 0 275.60277088 0 -673.00586089 0 20946
0.13850000 0.13851100 12467.34294526 0 -142.79335843 0 3743.54135685 0 744.25697368 0 -509.28915519 0 20955
0.13950000 0.13949800 12511.18148312 0 -94.69517599 0 3452.73448178 0 908.93025876 0 -652.66702746 0 20506
0.14050000 0.14048300 12373.70832468 0 113.47324506 0 3065.39289825 0 269.30351021 0 -394.40408439 0 21447
0.14150000 0.14148400 12342.68412866 0 350.12940929 0 3041.43907154 0 225.32221610 0 -258.15503282 0 21771
0.14250000 0.14249400 11888.11221310 0 392.80004353 0 2945.52259885 0 -220.19872749 0 -248.48919725 0 22470
0.14350000 0.14350900 11686.00531295 0 329.57812756 0 3314.81169732 0 -285.57997247 0 105.84410301 0 22519
0.14450000 0.14449900 11366.77083219 0 218.89368794 0 3539.87200625 0 -219.78057529 0 173.65231688 0 22218
0.14550000 0.14550500 11273.58583763 0 161.01670140 0 3736.72952250 0 172.69798564 0 524.74392588 0 23559
0.14650000 0.14650700 11275.72156127 0 -15.64867192 0 3596.99699327 0 342.82748258 0 366.48118391 0 23044
0.14750000 0.14750500 11295.72991957 0 66.18292819 0 3414.71860101 0 380.71409587 0 650.51781504 0 23649
0.14850000 0.14849900 11255.71320297 0 141.04993350 0 3313.15932166 0 425.86329359 0 566.48158611 0 23640
0.14950000 0.14949500 10981.14906822 0 259.93780002 0 3419.97922555 0 39.16467528 0 740.70717618 0 24457
0.15050000 0.15050000 10812.57302920 0 247.69111105 0 3235.84612593 0 156.78572046 0 826.20244157 0 24591
0.15150000 0.15149900 10571.02268564 0 87.49205459 0 2963.96850670 0 238.29729924 0 709.94488732 0 25020
0.15250000 0.15250500 10488.07792390 0 9.61499410 0 2916.76901428 0 389.93704979 0 499.76719996 0 25297
0.15350000 0.15350100 10600.36078405 0 -46.20435761 0 2294.38542396 0 477.85467542 0 568.35427852 0 25452
0.15450000 0.15450400 10465.19195901 0 176.08142151 0 2605.93129962 0 209.75953516 0 484.34952341 0 26061
0.15550000 0.15549900 10411.04574444 0 233.02768217 0 2154.76530123 0 186.83984832 0 599.23009795 0 26128
0.15650000 0.15649500 10019.65752664 0 384.12675743 0 2248.14138685 0 -141.42761937 0 556.61004664 0 26331
0.15750000 0.15749700 9859.79299194 0 333.79337159 0 2516.19718483 0 -244.07724184 0 753.50690517 0 27345
0.15850000 0.15849900 9747.60005700 0 196.33819819 0 3055.44492235 0 -316.32652442 0 945.02736045 0 26980
0.15950000 0.15949700 9583.26174331 0 105.67549325 0 2992.46355630 0 -63.30723251 0 774.44374122 0 27777
0.16050000 0.16050000 9621.10901432 0 -19.29626308 0 3092.02199983 0 141.74460572 0 876.16601001 0 28224
0.16150000 0.16150500 9598.14436488 0 -55.50116261 0 2805.18307447 0 10.33328292 0 420.29017896 0 28075
0.16250000 0.16249700 9742.67665198 0 125.62888476 0 3049.45365551 0 222.55476789 0 489.39882372 0 28590
0.16350000 0.16349900 9503.35195726 0 250.33940836 0 2614.51915677 0 231.14599724 0 480.03873386 0 29163
0.16450000 0.16449100 9278.19048247 0 331.11135232 0 2548.76135000 0 126.54612186 0 522.93418111 0 28996
0.16550000 0.16550500 8968.71288654 0 218.07312044 0 2319.99162632 0 273.30967813 0 195.91667379 0 30777
0.16650000 0.16650700 8858.02619880 0 139.35596744 0 2299.26386637 0 187.28497809 0 238.89979812 0 29211
0.16750000 0.16749900 8755.38781697 0 -3.22345893 0 1938.13548034 0 202.55877430 0 118.89236278 0 30922
0.16850000 0.16850800 8856.95833698 0 -121.84078547 0 1914.56383576 0 149.02405113 0 299.06762928 0 30867
0.16950000 0.16949900 8808.64602014 0 -30.19193824 0 1893.07171156 0 114.55347160 0 148.24057778 0 30852
0.17050000 0.17049200 8947.62542577 0 54.76343870 0 1849.64907778 0 79.94688019 0 114.56808445 0 31257
0.17150000 0.17149500 8817.14395209 0 144.30859815 0 1866.61121974 0 210.56998608 0 118.01896422 0 32608
0.17250000 0.17250900 8701.05051134 0 216.88610772 0 1764.66975826 0 -43.94431237 0 479.23277920 0 32361
0.17350000 0.17350400 8483.94858312 0 191.37994715 0 1833.97961067 0 265.77956621 0 116.26654677 0 32508
0.17450000 0.17449800 8395.41721796 0 88.44413771 0 1805.13610089 0 169.77878864 0 540.83042114 0 32791
0.17550000 0.17549800 8224.13218212 0 170.20930556 0 1665.26868384 0 -56.29621384 0 236.40662178 0 33633
0.17650000 0.17650100 8223.61511219 0 136.64584655 0 1767.35627378 0 154.32514202 0 549.68917798 0 33984
0.17750000 0.17750300 8016.46115987 0 125.97397274 0 1690.45898213 0 -71.44074257 0 393.88476633 0 34069
0.17850000 0.17849800 7985.44820450 0 141.38490489 0 1738.47904206 0 40.38462310 0 768.15796933 0 34536
