### header ###
fiducial parameters:
Omega_m = 0.31
Omega_nu = 0
Omega_de = 0.69
Omega_k = 0
H_0 = 100
w_de = -1
zeff = 0
beta = 0
fgrowth = 0
b_1 = 2
gamma = 0.55
Lx = 3500 Ly = 3500 Lz = 3500
nx = 700 ny = 700 nz = 700
xoffset = 857.220397 yoffset = 15.9954215 zoffset = 262.898189
bins = 400 dk = 0.001
kx_ny = 0.628318531 ky_ny = 0.628318531 kz_ny = 0.628318531
############################
A(data) = 3.09202345 (not used)
A(ran) = 3.08607919 (used)
Ngal = 187912
weighted Ngal = 0
Nran = 9360983
weighted Nran = 0
SN(data) = 3471.36148
SN(ran) = 69.3017406
SN(data+ran) = 3540.66322
############################
13 columns: k_central k_mean P_0(k) sigma^{lin}_{P_0(k)} P^img_1(k) sigma^{lin}_{P_1(k)} P_2(k) sigma^{lin}_{P_2(k)} P^img_3(k) sigma^{lin}_{P_3(k)} P_4(k) sigma^{lin}_{P_4(k)} N_modes
### header ###
0.00050000 0 0 0 0 0 0 0 0 0 0 0 0
0.00150000 0.00179520 29846.96266648 0 -37988.79080395 0 -25183.55389771 0 44208.69247944 0 -51619.99072590 0 3
0.00250000 0.00253879 44870.87921400 0 -29528.51503127 0 -681.76345188 0 -57771.66165145 0 -15169.14575497 0 6
0.00350000 0.00331552 64547.63831860 0 -24499.89752025 0 -33903.15148276 0 24183.02357615 0 37187.33240683 0 7
0.00450000 0.00420575 71168.94363169 0 -13085.46632896 0 -20378.96255576 0 -27365.36420460 0 10906.92705144 0 24
0.00550000 0.00557378 84565.43876638 0 -5355.42819037 0 -25714.78705126 0 -16628.74425238 0 12409.00396797 0 45
0.00650000 0.00659388 70307.01053364 0 -7586.31517835 0 -19884.37392360 0 7575.69276341 0 6596.64332539 0 40
0.00750000 0.00754703 83491.73180855 0 500.96770145 0 -32162.31190405 0 6530.68318690 0 12164.85703409 0 57
0.00850000 0.00846663 74234.71871206 0 -1678.21791349 0 -27112.33715664 0 5822.45474694 0 3847.59606066 0 75
0.00950000 0.00948925 73299.94619727 0 2461.38777187 0 -14820.57317580 0 1847.24357853 0 24343.54006859 0 112
0.01050000 0.01054430 71333.16953887 0 -2314.69727983 0 -11878.67006648 0 -13976.62511891 0 27690.78104326 0 105
0.01150000 0.01145670 73090.08324812 0 304.34736293 0 8258.10142863 0 -15658.78850081 0 42904.32736861 0 144
0.01250000 0.01249090 74636.34716268 0 4143.23641554 0 29087.99392912 0 -12953.05146335 0 51942.03536934 0 169
0.01350000 0.01339930 67302.04737372 0 8986.84405617 0 39221.32815660 0 -2957.12295040 0 69252.52508856 0 180
0.01450000 0.01448870 69875.59435858 0 10447.78019103 0 62936.74066234 0 6628.45436696 0 52913.78962504 0 267
0.01550000 0.01550050 70675.92869063 0 10674.52659758 0 57687.58158398 0 17244.61950594 0 56531.70546932 0 238
0.01650000 0.01653350 60089.37142567 0 2481.01394804 0 55598.50664563 0 32041.47490869 0 39019.67088249 0 315
0.01750000 0.01747870 58634.15678204 0 -1210.17969835 0 46678.93788408 0 20134.59080887 0 40860.66465921 0 297
0.01850000 0.01844180 64144.43617688 0 -15751.18664982 0 27384.58571735 0 33209.04130012 0 23834.11377746 0 388
0.01950000 0.01947590 71734.34836346 0 -5811.21409621 0 9760.76285900 0 29011.22028463 0 26572.22388902 0 399
0.02050000 0.02045430 73298.48491268 0 -7557.69648158 0 -681.71736521 0 18931.95358716 0 16008.82236457 0 462
0.02150000 0.02154770 72833.57159844 0 485.96480492 0 -21900.27222570 0 9013.14717888 0 18686.45777520 0 571
0.02250000 0.02255340 76320.75867472 0 -498.30141910 0 -20937.62289710 0 4582.55476806 0 14244.04019980 0 510
0.02350000 0.02348930 72113.15829309 0 3372.12777539 0 -28052.50518378 0 -11630.58890485 0 23194.29593785 0 555
0.02450000 0.02439640 69296.47603292 0 2802.57524350 0 -15603.59690572 0 -9442.01172622 0 12105.84361776 0 592
0.02550000 0.02547300 67757.06891531 0 6783.32805273 0 -8103.10409570 0 -17903.43404528 0 18679.15135222 0 837
0.02650000 0.02652900 67207.06387504 0 4424.85967895 0 6736.97160911 0 -21917.92004734 0 20764.51687584 0 723
0.02750000 0.02749970 68045.61641958 0 5508.99796066 0 22533.00845534 0 -10824.28578726 0 11238.87470818 0 826
0.02850000 0.02848090 66499.01528550 0 1035.22908631 0 30462.27588749 0 -11561.12168333 0 4696.19774695 0 831
0.02950000 0.02946900 65795.35054974 0 1861.82270253 0 45286.78329105 0 -5673.85334428 0 11199.94833469 0 996
0.03050000 0.03053250 66166.96646291 0 3708.14454769 0 49952.21537694 0 835.38268103 0 -850.43391235 0 1041
0.03150000 0.03150510 63989.76482282 0 2524.17804685 0 53316.09251470 0 1542.66690632 0 -850.81946667 0 1036
0.03250000 0.03246190 61029.42704631 0 2956.47099266 0 47049.65454519 0 5289.24323886 0 -811.60533253 0 1059
0.03350000 0.03345080 59394.13717796 0 1410.36444722 0 48298.26602839 0 9998.14292114 0 -7973.91529685 0 1302
0.03450000 0.03451200 55568.83132770 0 1419.13215479 0 35920.84828897 0 11063.95894215 0 -5298.51677572 0 1339
0.03550000 0.03553350 55741.15050340 0 1541.72269166 0 32805.50193888 0 9572.60560642 0 -7719.37076105 0 1365
0.03650000 0.03647120 52614.56350258 0 1834.26062693 0 24106.47474467 0 9614.28593933 0 -5144.59854526 0 1308
0.03750000 0.03744890 51644.83256402 0 1654.75867541 0 19264.22722277 0 7508.35002488 0 -4555.08261767 0 1579
0.03850000 0.03847530 50771.54640873 0 1740.70469090 0 19649.21951031 0 2808.78008271 0 1011.26177082 0 1662
0.03950000 0.03950240 49313.97122844 0 1971.78998863 0 20786.88577079 0 5703.96704758 0 3247.49144009 0 1683
0.04050000 0.04050350 48661.22664049 0 1493.16308050 0 21407.81931717 0 2066.13277021 0 11019.95179454 0 1822
0.04150000 0.04152450 45058.71048771 0 1990.91033552 0 18229.86254251 0 1198.66927200 0 12603.46722562 0 1887
0.04250000 0.04250150 45836.56351830 0 2299.54488264 0 23285.90724131 0 3392.59700037 0 15377.99704555 0 1920
0.04350000 0.04349210 42748.75676250 0 2224.25500405 0 23980.24223696 0 4519.03385078 0 13822.74061041 0 2005
0.04450000 0.04448520 41941.56563350 0 1262.76346247 0 24259.12278160 0 2646.34143899 0 13125.82026509 0 2151
0.04550000 0.04548030 40490.17281112 0 240.87590451 0 20827.80173945 0 -154.61065454 0 9766.85529170 0 2274
0.04650000 0.04648670 41501.83137691 0 -436.34969666 0 18942.96942488 0 3672.37679707 0 6725.79840229 0 2311
0.04750000 0.04749250 40980.93962203 0 -1046.08530678 0 16290.96269792 0 -760.37044650 0 -459.87975084 0 2568
0.04850000 0.04851840 42579.36015598 0 -244.48302933 0 17342.30076079 0 -970.19068118 0 -1758.18390279 0 2493
0.04950000 0.04949480 42661.97893885 0 182.68080755 0 15720.05004729 0 -1675.16045649 0 -6992.33671242 0 2644
0.05050000 0.05050630 41441.13186296 0 1776.53988543 0 16804.09840379 0 -3139.08660444 0 -3268.08431223 0 2829
0.05150000 0.05149060 40761.07249373 0 1964.93319168 0 16351.10017933 0 -474.52631874 0 -4521.51803459 0 2784
0.05250000 0.05249300 38998.87567864 0 1586.04457749 0 19142.60338186 0 521.32564399 0 -3370.61028754 0 3055
0.05350000 0.05348950 38107.71688868 0 946.25821171 0 18168.15136999 0 3712.13497870 0 -1915.03594309 0 3009
0.05450000 0.05448610 37577.72020672 0 19.93225910 0 22512.21325149 0 1852.96506975 0 -112.03972488 0 3336
0.05550000 0.05550870 39120.27470653 0 -533.19464710 0 17962.33505511 0 2050.51950635 0 2250.95154953 0 3349
0.05650000 0.05647670 38459.09963053 0 -437.74466142 0 20510.81538884 0 2604.73979064 0 4176.09283763 0 3324
0.05750000 0.05747970 39721.42470763 0 565.75431601 0 19344.82268851 0 292.86616228 0 5114.74337692 0 3639
0.05850000 0.05849280 38193.37064725 0 353.61176289 0 18342.49386283 0 2775.68760696 0 4069.81248496 0 3846
0.05950000 0.05951020 38451.68080105 0 1087.02825301 0 20473.72124143 0 2136.30815273 0 7287.08905589 0 3787
0.06050000 0.06049470 36846.06625064 0 1656.61338278 0 18134.42941780 0 3753.07342867 0 5616.26749058 0 3930
0.06150000 0.06148310 34937.06653699 0 1645.35025075 0 17178.52447964 0 2815.00740321 0 6793.41091643 0 4083
0.06250000 0.06249100 33558.62553785 0 1470.85038880 0 17641.30207023 0 904.16309878 0 6074.59378349 0 4303
0.06350000 0.06350600 31850.04662674 0 656.20783244 0 14345.31846289 0 2194.13006009 0 5289.47929253 0 4470
0.06450000 0.06451750 32030.45907097 0 237.55092003 0 15309.87870212 0 -252.45827103 0 4665.52201110 0 4479
0.06550000 0.06550280 31963.12757310 0 -421.86611819 0 14116.34640750 0 697.95673332 0 2732.50102685 0 4636
0.06650000 0.06648880 32368.01581243 0 63.69110073 0 13298.36425381 0 151.43629478 0 1688.85156908 0 4653
0.06750000 0.06749660 32699.95222851 0 31.85701583 0 13164.60051011 0 425.91387652 0 628.41532351 0 5220
0.06850000 0.06852730 32493.12425506 0 461.33878730 0 12944.95819482 0 502.94605598 0 1587.93300681 0 5029
0.06950000 0.06949320 32015.62141201 0 535.67208652 0 11513.34891772 0 2229.58307249 0 -1591.03542642 0 5040
0.07050000 0.07048030 31208.76750254 0 617.64902824 0 10373.52445230 0 2393.94386748 0 758.67872857 0 5475
0.07150000 0.07148790 30678.32119454 0 455.20251607 0 10805.88484202 0 2176.17874087 0 -1330.64575223 0 5509
0.07250000 0.07249820 29591.23786235 0 565.76218446 0 7781.47535634 0 498.09683926 0 -1060.40477175 0 5916
0.07350000 0.07351270 29339.78450550 0 566.63445896 0 8147.43722219 0 -290.75966433 0 -3171.67325091 0 5721
0.07450000 0.07449140 28512.02298567 0 621.02234752 0 7717.53853498 0 -1907.83068597 0 -1648.30654189 0 6028
0.07550000 0.07549160 27989.78235270 0 653.68093415 0 8452.80073994 0 -725.75373851 0 -1500.25593111 0 6183
0.07650000 0.07648840 28093.75837197 0 362.93363454 0 9007.25707790 0 -369.90845832 0 -1474.90826371 0 6330
0.07750000 0.07749960 27069.51027736 0 791.12711503 0 8744.28205405 0 244.93153130 0 -1528.99827503 0 6583
0.07850000 0.07848650 27063.44032596 0 376.08631996 0 9228.09090216 0 412.82751094 0 -803.19170546 0 6549
0.07950000 0.07947320 25811.68146056 0 426.23086287 0 9021.92612711 0 780.12476610 0 -305.35452524 0 6828
0.08050000 0.08048110 26482.97312222 0 -27.86197615 0 8561.29550080 0 892.08839177 0 -1498.30005789 0 7147
0.08150000 0.08149960 26260.29583123 0 -97.53051773 0 7527.69518478 0 -45.82397399 0 -1092.82280846 0 7386
0.08250000 0.08250610 26596.39128809 0 -69.03996438 0 8046.88960140 0 -353.13628336 0 -2658.38017593 0 7227
0.08350000 0.08350160 26030.87414981 0 567.68658387 0 7541.13900306 0 73.91604626 0 -2184.73287608 0 7798
0.08450000 0.08449610 25631.26901633 0 973.42236826 0 7215.63223919 0 283.23180053 0 -2565.34130983 0 7371
0.08550000 0.08548940 24705.48902212 0 1104.47936327 0 7910.06840070 0 1402.29365999 0 -2285.66267899 0 8256
0.08650000 0.08650700 23555.00841981 0 1181.05517231 0 6774.39173540 0 2283.00988542 0 -860.03455214 0 8037
0.08750000 0.08749060 22534.58214645 0 1063.24191199 0 7554.66150589 0 1810.59905715 0 -633.46799601 0 8155
0.08850000 0.08849210 21541.80787389 0 772.43503693 0 5894.63096528 0 1149.41274050 0 1047.63876471 0 8718
0.08950000 0.08949900 21220.10044997 0 345.51399810 0 6213.24721025 0 309.68329983 0 1876.13205091 0 8571
0.09050000 0.09049190 20782.61432351 0 173.13075069 0 5975.92335137 0 380.76917506 0 2328.53452088 0 8932
0.09150000 0.09150830 20804.53359244 0 100.61911133 0 6092.74743442 0 114.60967485 0 1940.59718285 0 9285
0.09250000 0.09250820 20561.51072364 0 585.05451331 0 6386.67921038 0 650.78871472 0 2711.21123436 0 9204
0.09350000 0.09350330 19505.56399397 0 618.91922177 0 5460.65192186 0 800.18370733 0 2825.52865230 0 9349
0.09450000 0.09448040 19021.09194746 0 892.93031651 0 5921.84458070 0 47.11945899 0 2839.95040718 0 9564
0.09550000 0.09549270 18717.36956471 0 495.82173155 0 6323.96761995 0 -17.98728930 0 2789.40120085 0 10155
0.09650000 0.09649430 18352.49804198 0 311.73247046 0 6927.39947315 0 -295.42790658 0 3837.08605223 0 9913
0.09750000 0.09749140 18357.44392830 0 177.40219797 0 6966.38204988 0 -283.53754623 0 3544.14345353 0 10476
0.09850000 0.09850240 18026.06954475 0 352.45172774 0 7355.44345298 0 -991.82556164 0 2420.41559995 0 10575
0.09950000 0.09950330 18114.64587251 0 459.33795147 0 8204.82074417 0 -418.86711258 0 2622.83723832 0 10882
0.10050000 0.10051200 17701.43955164 0 510.50988986 0 8285.64102292 0 -731.46286502 0 834.28334538 0 10875
0.10150000 0.10150300 17456.73058523 0 295.01312657 0 8369.60868388 0 77.43560641 0 1157.46104642 0 11118
0.10250000 0.10250800 16878.62391813 0 223.17862400 0 7321.72150079 0 816.32190958 0 -491.26027548 0 11575
0.10350000 0.10349800 17217.52953767 0 -25.34339595 0 7669.60840026 0 944.66765963 0 -135.49367985 0 11364
0.10450000 0.10450100 16860.30165744 0 -83.71665723 0 6311.64786675 0 850.68795106 0 -864.96694968 0 12093
0.10550000 0.10551000 16883.79461747 0 268.13785473 0 6427.55021644 0 998.10796133 0 -167.72961801 0 12067
0.10650000 0.10649700 16208.00669552 0 193.81579616 0 5479.25519882 0 815.34060077 0 -37.41900222 0 12054
0.10750000 0.10749900 16569.28121002 0 132.87910449 0 5744.97294145 0 676.07118635 0 -71.58878194 0 12807
0.10850000 0.10850100 16137.86503496 0 39.36532089 0 5550.36355535 0 222.56713260 0 -1.41169084 0 12736
0.10950000 0.10950300 16451.70400337 0 -31.27160274 0 5281.84689068 0 475.65712820 0 458.29931534 0 12933
0.11050000 0.11050200 16278.03594958 0 -7.56732972 0 5603.45314875 0 -458.63091454 0 -248.27112863 0 13428
0.11150000 0.11150900 16312.31993431 0 182.11765095 0 5061.36152660 0 -315.01811267 0 346.25363292 0 13453
0.11250000 0.11250000 16216.09996405 0 232.30940459 0 5023.19951736 0 166.86408791 0 -798.47962468 0 13668
0.11350000 0.11349100 15824.47569258 0 465.73837800 0 4936.82635715 0 -97.91438595 0 -758.62252531 0 13791
0.11450000 0.11448600 15375.86132191 0 619.96685042 0 4574.59638734 0 317.07177956 0 -1205.07644292 0 14205
0.11550000 0.11549300 14754.59055601 0 383.96264393 0 4296.58137281 0 291.42173866 0 -749.20735626 0 14776
0.11650000 0.11649800 14357.34595917 0 269.18098712 0 3665.86846030 0 723.93949748 0 -1188.54144569 0 14553
0.11750000 0.11747300 14230.10179290 0 154.28917193 0 3468.81985298 0 373.13340102 0 -851.14769368 0 14568
0.11850000 0.11849100 14310.13522610 0 47.03425485 0 3958.44011752 0 412.18454572 0 -359.60865006 0 16015
0.11950000 0.11950300 14309.23597404 0 146.86584619 0 3959.68782975 0 -58.62078041 0 336.44166890 0 15270
0.12050000 0.12050700 14427.26280672 0 162.85567186 0 5012.93680325 0 -746.10156446 0 999.80979585 0 15999
0.12150000 0.12150000 14346.66734098 0 214.00063268 0 5675.66308904 0 -734.96882398 0 936.71939550 0 15670
0.12250000 0.12250700 14456.60090513 0 165.79060576 0 6846.48926918 0 -894.68048583 0 1460.19425191 0 16887
0.12350000 0.12352200 14392.64160247 0 238.43331111 0 6935.77375794 0 -453.27249634 0 1438.44359274 0 16407
0.12450000 0.12449800 14254.49400498 0 196.98228747 0 7674.37443617 0 -10.67287422 0 1303.88176284 0 16306
0.12550000 0.12549900 14086.33387005 0 103.99063211 0 7038.72687799 0 1060.74199127 0 988.43088512 0 17523
0.12650000 0.12650100 13954.48103697 0 212.91815802 0 6831.92138584 0 773.59394802 0 874.89694054 0 17154
0.12750000 0.12750600 13644.68870283 0 183.66211636 0 5695.88501971 0 858.92509992 0 540.37629885 0 18007
0.12850000 0.12850300 13453.37282739 0 217.69993084 0 5507.63784192 0 886.43996478 0 219.65580406 0 17496
0.12950000 0.12949900 13195.17508010 0 177.05823405 0 4954.39549424 0 371.51362324 0 312.81044887 0 18405
0.13050000 0.13049000 12932.93069854 0 147.55714621 0 4639.65727377 0 284.99545863 0 174.97871367 0 18100
0.13150000 0.13148800 12837.38516733 0 44.01366719 0 5059.23704361 0 -152.82901140 0 1037.47834052 0 19059
0.13250000 0.13249300 12994.30465153 0 18.69320217 0 4613.82625839 0 34.40684504 0 165.29601713 0 18957
0.13350000 0.13349100 12938.10139788 0 -36.71747321 0 4837.77374291 0 171.68520300 0 575.25716213 0 19468
0.13450000 0.13450700 13088.50130466 0 -15.94418862 0 4635.40830780 0 226.37883727 0 352.31009554 0 19953
0.13550000 0.13551000 13081.98172723 0 -41.12178498 0 4559.94981944 0 142.43927793 0 592.16984522 0 19956
0.13650000 0.13649900 13131.10337093 0 56.91512407 0 4714.53124829 0 124.03945675 0 273.50976172 0 19723
0.13750000 0.13749600 12962.71842298 0 172.45855978 0 4232.25112868 0 -67.10870818 0 -140.66775138 0 20946
0.13850000 0.13851100 12732.50989601 0 213.10025656 0 4044.57722407 0 158.95853825 0 -186.82523547 0 20955
0.13950000 0.13949800 12645.50725935 0 290.59892302 0 4169.26976263 0 -5.10442446 0 -101.58591970 0 20506
0.14050000 0.14048300 12302.33019253 0 211.31299309 0 3801.49815202 0 767.79264818 0 -87.64931129 0 21447
0.14150000 0.14148400 12191.49737633 0 134.37748323 0 3413.61701724 0 544.40944433 0 -137.04488965 0 21771
0.14250000 0.14249400 12004.11572864 0 107.13733987 0 2960.02303829 0 986.46377124 0 161.81815979 0 22470
0.14350000 0.14350900 11795.93887710 0 175.75881483 0 2622.74731311 0 829.18683434 0 176.20394460 0 22519
0.14450000 0.14449900 11754.46087590 0 174.43466617 0 2332.67108035 0 531.15109680 0 274.45959670 0 22218
0.14550000 0.14550500 11530.43470684 0 229.56106549 0 2248.99567630 0 -93.66778051 0 602.71020341 0 23559
0.14650000 0.14650700 11309.33110696 0 396.04297127 0 2486.33077584 0 -457.01788116 0 406.19777514 0 23044
0.14750000 0.14750500 10920.40459167 0 318.76349749 0 2903.85350659 0 -824.19935761 0 573.73742616 0 23649
0.14850000 0.14849900 10833.60428672 0 338.51556896 0 3372.29638515 0 -548.77418901 0 511.70701916 0 23640
0.14950000 0.14949500 10693.24228104 0 10.36477923 0 3432.17533160 0 -135.96915937 0 406.98911695 0 24457
0.15050000 0.15050000 10719.78145742 0 -30.16203811 0 3399.11657780 0 163.08273300 0 77.66424125 0 24591
0.15150000 0.15149900 10879.01651567 0 -122.56917964 0 3142.89718504 0 493.47018742 0 25.24593951 0 25020
0.15250000 0.15250500 10793.27283190 0 31.36512495 0 2943.27446870 0 500.73839218 0 118.35056342 0 25297
0.15350000 0.15350100 10741.39722877 0 166.37849179 0 2665.42806394 0 229.01701799 0 217.81570954 0 25452
0.15450000 0.15450400 10628.76590845 0 180.58779838 0 2689.12335568 0 142.48424054 0 498.10807991 0 26061
0.15550000 0.15549900 10394.51074722 0 241.12881916 0 2371.29395626 0 105.28150844 0 129.74745919 0 26128
0.15650000 0.15649500 10197.88928463 0 201.24249410 0 2670.18285919 0 159.16536622 0 325.04702125 0 26331
0.15750000 0.15749700 10078.80583079 0 199.97904496 0 2239.10390366 0 -87.11897739 0 -404.65668193 0 27345
0.15850000 0.15849900 9900.09072481 0 155.16144643 0 2498.45943798 0 -139.46387768 0 62.97035021 0 26980
0.15950000 0.15949700 9742.68789263 0 166.83711034 0 2316.74307826 0 -236.60445724 0 -745.34506867 0 27777
0.16050000 0.16050000 9777.82616681 0 54.24861690 0 2330.04076807 0 -151.93650374 0 -630.49709202 0 28224
0.16150000 0.16150500 9694.64535140 0 8.89603084 0 2500.38158925 0 -123.71347788 0 -915.19242528 0 28075
0.16250000 0.16249700 9794.99064048 0 -26.80423092 0 2403.09375718 0 -58.39855274 0 -1123.64692089 0 28590
0.16350000 0.16349900 9804.17425213 0 40.08157516 0 2546.17600033 0 284.64362627 0 -755.89779158 0 29163
0.16450000 0.16449100 9581.57564570 0 99.06992484 0 2401.84604494 0 245.72062498 0 -942.37456688 0 28996
0.16550000 0.16550500 9605.14729028 0 203.34112359 0 2306.04197876 0 237.69480036 0 -494.40765769 0 30777
0.16650000 0.16650700 9279.62928576 0 318.76237343 0 2410.69243707 0 10.15819855 0 -741.19951668 0 29211
0.16750000 0.16749900 9193.61582637 0 295.51783178 0 2367.15739679 0 21.57429335 0 -336.20673930 0 30922
0.16850000 0.16850800 8823.43871650 0 260.71677712 0 2565.08277486 0 -268.77632369 0 -339.66885972 0 30867
0.16950000 0.16949900 8745.61969149 0 191.85430261 0 2440.54760541 0 -69.45272108 0 -31.69391399 0 30852
0.17050000 0.17049200 8614.54246331 0 107.84460162 0 2710.88525549 0 103.77773418 0 -415.11947963 0 31257
0.17150000 0.17149500 8675.24197726 0 148.50136087 0 2689.76407277 0 43.76929544 0 -231.14487318 0 32608
0.17250000 0.17250900 8525.35914041 0 69.43439882 0 2427.40728471 0 191.61712488 0 -463.10469353 0 32361
0.17350000 0.17350400 8462.06303615 0 181.39038085 0 2891.90469486 0 -39.45513369 0 -349.14248016 0 32508
0.17450000 0.17449800 8325.48912977 0 177.97322302 0 2489.15217917 0 14.12769946 0 -552.37569351 0 32791
0.17550000 0.17549800 8182.01346383 0 96.98253600 0 2726.62216652 0 104.15688133 0 -231.09316618 0 33633
0.17650000 0.17650100 8070.04534190 0 114.78502900 0 2483.35200339 0 66.10165828 0 -247.70909609 0 33984
0.17750000 0.17750300 8145.50383026 0 79.09270314 0 2619.98211303 0 51.90111940 0 -478.89218748 0 34069
