### header ###
fiducial parameters:
Omega_m = 0.31
Omega_nu = 0
Omega_de = 0.69
Omega_k = 0
H_0 = 100
w_de = -1
zeff = 0
beta = 0
fgrowth = 0
b_1 = 2
gamma = 0.55
Lx = 3500 Ly = 3500 Lz = 3500
nx = 700 ny = 700 nz = 700
xoffset = 857.220397 yoffset = 15.9954215 zoffset = 262.898189
bins = 400 dk = 0.001
kx_ny = 0.628318531 ky_ny = 0.628318531 kz_ny = 0.628318531
############################
A(data) = 3.07102906 (not used)
A(ran) = 3.06941511 (used)
Ngal = 187493
weighted Ngal = 0
Nran = 9360983
weighted Nran = 0
SN(data) = 3448.51123
SN(ran) = 68.927528
SN(data+ran) = 3517.43875
############################
13 columns: k_central k_mean P_0(k) sigma^{lin}_{P_0(k)} P^img_1(k) sigma^{lin}_{P_1(k)} P_2(k) sigma^{lin}_{P_2(k)} P^img_3(k) sigma^{lin}_{P_3(k)} P_4(k) sigma^{lin}_{P_4(k)} N_modes
### header ###
0.00050000 0 0 0 0 0 0 0 0 0 0 0 0
0.00150000 0.00179520 3252.38112316 0 -8933.63081561 0 -4811.83032102 0 -2139.79275445 0 -10045.85948349 0 3
0.00250000 0.00253879 10180.47751665 0 -12202.06358801 0 -11518.51961706 0 -668.78050028 0 10194.31475770 0 6
0.00350000 0.00331552 17419.29921830 0 -11872.71252159 0 -9053.32126460 0 -13915.81319846 0 -10719.38803464 0 7
0.00450000 0.00420575 26649.10994002 0 -9851.20513478 0 -12151.70547274 0 -17001.59663713 0 -6946.03647206 0 24
0.00550000 0.00557378 34711.35427032 0 -3370.74517535 0 4465.84309152 0 -29890.12676529 0 6223.16146420 0 45
0.00650000 0.00659388 47030.88265847 0 -2962.52970341 0 7807.58738799 0 -22916.65186479 0 -10007.49514255 0 40
0.00750000 0.00754703 47197.46910230 0 -855.89686861 0 37971.70501484 0 -19556.14692226 0 18250.20812033 0 57
0.00850000 0.00846663 59135.15258512 0 -2217.54433556 0 51145.63526505 0 -10255.62126678 0 -3076.73471483 0 75
0.00950000 0.00948925 65419.23837628 0 -7469.13139448 0 68683.29853555 0 8290.28341168 0 22734.44091644 0 112
0.01050000 0.01054430 79080.56324219 0 -3031.73838996 0 52787.78193034 0 32257.40780923 0 401.08440312 0 105
0.01150000 0.01145670 84120.53381045 0 -5303.78864091 0 64133.08311964 0 28439.74560147 0 8105.34098520 0 144
0.01250000 0.01249090 86849.08936889 0 2038.63813852 0 43953.19248832 0 30460.58978988 0 -10326.44860704 0 169
0.01350000 0.01339930 86085.17474521 0 5977.78929939 0 39982.65743061 0 22850.78165151 0 5761.59786388 0 180
0.01450000 0.01448870 73989.11049359 0 8943.74740127 0 29436.00447575 0 11533.46968253 0 253.60032114 0 267
0.01550000 0.01550050 69892.79255420 0 6753.30427462 0 22883.49194514 0 12280.86054964 0 -12864.58754210 0 238
0.01650000 0.01653350 65584.81316155 0 -3081.57943530 0 13248.56817107 0 7730.93739065 0 -7026.23851502 0 315
0.01750000 0.01747870 68175.33352901 0 -2639.05749732 0 4730.43676908 0 -1597.00421195 0 -26658.21486711 0 297
0.01850000 0.01844180 77794.85761158 0 -2744.24750686 0 10217.39181365 0 1002.46371349 0 -6164.57519259 0 388
0.01950000 0.01947590 75110.25299750 0 -818.96009031 0 24212.24926805 0 -13692.23665542 0 -18009.99541421 0 399
0.02050000 0.02045430 79770.96401009 0 -86.95947256 0 23866.26203855 0 -5113.09100126 0 -7242.19389687 0 462
0.02150000 0.02154770 78410.50805212 0 -53.83305004 0 37331.99958174 0 7574.65862354 0 5503.54624505 0 571
0.02250000 0.02255340 73480.47104801 0 2255.06562770 0 18398.02267744 0 15281.77707529 0 -9665.67819447 0 510
0.02350000 0.02348930 74999.30777478 0 1943.35114228 0 35930.74006161 0 18729.95909353 0 7299.81347251 0 555
0.02450000 0.02439640 69140.45580078 0 5410.33876919 0 14392.41678945 0 8686.10044587 0 -12310.98549360 0 592
0.02550000 0.02547300 66371.54630621 0 3615.36421656 0 17690.53612043 0 9565.37786800 0 11404.08979262 0 837
0.02650000 0.02652900 60191.54894082 0 4275.15669252 0 12270.06952494 0 -2870.89591865 0 -3678.39054521 0 723
0.02750000 0.02749970 58946.87168538 0 1713.49107548 0 7233.30254214 0 -3077.28550672 0 1074.55000663 0 826
0.02850000 0.02848090 57365.31212753 0 821.59827103 0 15613.26386535 0 -4350.98612235 0 -5201.47623796 0 831
0.02950000 0.02946900 58016.93265040 0 1218.40785468 0 11941.50530407 0 -5195.18147355 0 1828.03330643 0 996
0.03050000 0.03053250 57782.22786314 0 1130.95559200 0 13792.39085343 0 -1742.70552673 0 -2894.01793720 0 1041
0.03150000 0.03150510 56880.95248753 0 3141.42465979 0 18473.22263083 0 -1398.73037371 0 -8566.66853185 0 1036
0.03250000 0.03246190 56026.10099944 0 2970.36443697 0 16007.69829950 0 -2369.14699197 0 -3496.68542614 0 1059
0.03350000 0.03345080 51440.02790770 0 1475.54898081 0 15144.41632336 0 3582.13685300 0 -15784.34656947 0 1302
0.03450000 0.03451200 53593.84899426 0 -218.46541915 0 15744.32985287 0 -1818.24269964 0 -7206.04396412 0 1339
0.03550000 0.03553350 53247.63695175 0 -1790.23099802 0 13173.59303069 0 1264.07861860 0 -22562.79617978 0 1365
0.03650000 0.03647120 55286.46618134 0 -218.37436988 0 16869.63139755 0 -3363.34882717 0 -16235.32147680 0 1308
0.03750000 0.03744890 54091.47260212 0 -90.80118976 0 14877.56327500 0 -3685.35974866 0 -19832.66693024 0 1579
0.03850000 0.03847530 54031.33512071 0 685.22107604 0 17576.66832853 0 -2964.73287095 0 -18518.41004677 0 1662
0.03950000 0.03950240 54784.34631318 0 1089.46410202 0 19687.66253581 0 2305.46870558 0 -15601.34877557 0 1683
0.04050000 0.04050350 52510.36267030 0 -11.78593470 0 15362.93457357 0 4113.59481956 0 -19150.02221135 0 1822
0.04150000 0.04152450 54670.59092779 0 46.51594845 0 17773.37971632 0 4684.96833687 0 -9430.13035840 0 1887
0.04250000 0.04250150 51172.16320078 0 1387.62461079 0 12753.86713240 0 3367.62027445 0 -17372.53811125 0 1920
0.04350000 0.04349210 50671.72943023 0 2116.22110987 0 13547.11985448 0 2910.01338319 0 -776.29395233 0 2005
0.04450000 0.04448520 46397.13477025 0 3774.30701790 0 12148.33327752 0 3988.80111515 0 -6798.53665317 0 2151
0.04550000 0.04548030 44521.85700880 0 3151.58620805 0 10834.32368837 0 2849.48247900 0 986.97859304 0 2274
0.04650000 0.04648670 41630.08720175 0 2213.37405414 0 12143.49979770 0 2020.06858352 0 -2785.39952919 0 2311
0.04750000 0.04749250 40602.24209891 0 1058.14877315 0 12028.39553422 0 1284.23310537 0 -977.26779488 0 2568
0.04850000 0.04851840 38002.61680435 0 1033.04840007 0 11789.41929968 0 -1152.67252921 0 -1394.22287277 0 2493
0.04950000 0.04949480 38710.32817437 0 1355.48759035 0 15545.14552192 0 -2370.46214810 0 1997.28378449 0 2644
0.05050000 0.05050630 36881.58670695 0 828.62480181 0 13244.40913030 0 -1112.44786057 0 1493.41037482 0 2829
0.05150000 0.05149060 37109.65951028 0 129.28996471 0 15737.24824291 0 1735.91617369 0 2469.12133957 0 2784
0.05250000 0.05249300 37358.86473699 0 542.39736785 0 12556.03167953 0 1197.41031912 0 871.68436256 0 3055
0.05350000 0.05348950 36840.67073829 0 385.43854137 0 11547.40808944 0 1787.11733777 0 781.91315363 0 3009
0.05450000 0.05448610 36971.62431930 0 875.63207910 0 13860.50919686 0 1372.29236319 0 6124.25497842 0 3336
0.05550000 0.05550870 35767.41340649 0 797.97154726 0 11339.56845742 0 559.13919305 0 3170.66159234 0 3349
0.05650000 0.05647670 36452.53106855 0 1349.94594954 0 16100.09644851 0 547.25782523 0 7364.04255079 0 3324
0.05750000 0.05747970 34490.70029647 0 1357.56711073 0 13387.95224013 0 177.95411392 0 4404.58154503 0 3639
0.05850000 0.05849280 33727.57251834 0 792.39730857 0 15602.47284064 0 320.88123609 0 6072.51426310 0 3846
0.05950000 0.05951020 33138.67482654 0 62.77375123 0 13501.93243854 0 -469.98397178 0 6406.06933289 0 3787
0.06050000 0.06049470 33665.97375233 0 -152.22314033 0 13724.27251000 0 2152.66329954 0 3369.89088590 0 3930
0.06150000 0.06148310 33565.48233480 0 -616.48000056 0 11056.27033705 0 1236.35917390 0 989.77414288 0 4083
0.06250000 0.06249100 34685.61318014 0 -529.25592308 0 9742.29446985 0 1077.03756264 0 449.03814321 0 4303
0.06350000 0.06350600 34259.59251744 0 -476.98240092 0 7232.40329008 0 1380.62168538 0 -830.53121617 0 4470
0.06450000 0.06451750 35176.49239756 0 -57.86383499 0 7936.97851855 0 2267.64391587 0 -1297.96918056 0 4479
0.06550000 0.06550280 34596.81203937 0 345.38585469 0 7171.77122004 0 449.65413087 0 -1355.01548302 0 4636
0.06650000 0.06648880 34004.65455886 0 555.63773035 0 5303.50762464 0 949.16391992 0 -1160.54098472 0 4653
0.06750000 0.06749660 33608.42162059 0 909.62493097 0 7578.32307568 0 -55.16641603 0 -1553.96376031 0 5220
0.06850000 0.06852730 32162.08709103 0 1094.48417664 0 6792.65779283 0 -1035.71131022 0 -3627.38047219 0 5029
0.06950000 0.06949320 31269.01739046 0 1192.04852872 0 8272.57938677 0 -1305.96128323 0 -4193.65073407 0 5040
0.07050000 0.07048030 29897.09596874 0 1219.13849698 0 7968.74459752 0 -2791.13226106 0 -5892.92238637 0 5475
0.07150000 0.07148790 29427.01195517 0 1022.70362920 0 7909.98971614 0 -885.95998899 0 -6549.80353379 0 5509
0.07250000 0.07249820 28389.49989270 0 923.30480291 0 9286.41863881 0 -1484.56398269 0 -7320.46254791 0 5916
0.07350000 0.07351270 28499.88308288 0 885.69358557 0 9242.64754486 0 -648.98571434 0 -6847.61333426 0 5721
0.07450000 0.07449140 27105.59276620 0 893.10117440 0 10181.14071504 0 -550.97623249 0 -5691.29883421 0 6028
0.07550000 0.07549160 27431.90885693 0 1028.28910855 0 10310.22834803 0 1000.01100350 0 -4249.21327063 0 6183
0.07650000 0.07648840 26566.26634413 0 542.29282980 0 11896.09307512 0 912.60257935 0 -1815.65734997 0 6330
0.07750000 0.07749960 25768.85458128 0 842.32490692 0 10329.77583966 0 1315.71816806 0 -920.88356675 0 6583
0.07850000 0.07848650 25492.89660583 0 650.05919649 0 12172.95030262 0 836.18751162 0 431.69044693 0 6549
0.07950000 0.07947320 24268.00289567 0 653.67194163 0 10220.11205112 0 1024.19413948 0 1552.22145944 0 6828
0.08050000 0.08048110 24178.75212887 0 200.09369960 0 10814.40525527 0 1523.55780008 0 43.88754709 0 7147
0.08150000 0.08149960 23783.41844266 0 -30.46800862 0 10072.78084199 0 637.74618768 0 -365.82922617 0 7386
0.08250000 0.08250610 23904.14303151 0 61.17038481 0 9030.10932084 0 42.86363621 0 -745.76322088 0 7227
0.08350000 0.08350160 23793.87224784 0 373.96633323 0 9329.71762542 0 44.06335087 0 -1596.04875664 0 7798
0.08450000 0.08449610 23696.64061902 0 317.12685875 0 8066.30220521 0 404.18007833 0 -961.46793621 0 7371
0.08550000 0.08548940 23256.68154941 0 453.15222137 0 8286.32670262 0 835.81319795 0 -2337.99914879 0 8256
0.08650000 0.08650700 23068.17583665 0 34.98034304 0 6217.38376972 0 1990.80916966 0 -1135.08091082 0 8037
0.08750000 0.08749060 22447.57950979 0 -0.30244882 0 6518.58824671 0 1615.64121087 0 -1920.38649283 0 8155
0.08850000 0.08849210 22655.08192228 0 397.22773586 0 5088.96856479 0 436.87800725 0 -1569.97044695 0 8718
0.08950000 0.08949900 21913.76100657 0 372.83439971 0 6065.85979787 0 -765.01957965 0 -1687.21043407 0 8571
0.09050000 0.09049190 21802.81578386 0 667.10789145 0 5915.80835126 0 -846.69752005 0 -598.91985599 0 8932
0.09150000 0.09150830 21334.75508742 0 262.90308369 0 7217.95905389 0 -1325.30644314 0 -563.07566894 0 9285
0.09250000 0.09250820 21472.00343285 0 516.60681882 0 7793.06446724 0 -5.19191044 0 -706.16578055 0 9204
0.09350000 0.09350330 21007.65215115 0 368.05375095 0 7749.21468874 0 548.78205747 0 -325.46180127 0 9349
0.09450000 0.09448040 20874.22562697 0 574.62094130 0 7808.89130347 0 1375.74324297 0 -350.63973484 0 9564
0.09550000 0.09549270 19970.47730820 0 749.58953839 0 7311.85220945 0 1129.28073504 0 471.02148384 0 10155
0.09650000 0.09649430 19696.43024338 0 723.10206900 0 6962.90868881 0 797.47246237 0 458.25210461 0 9913
0.09750000 0.09749140 18508.74308714 0 581.24280865 0 6049.22363479 0 332.81543497 0 365.86407219 0 10476
0.09850000 0.09850240 18284.94173109 0 517.97143381 0 6121.10759621 0 351.18153420 0 115.18744430 0 10575
0.09950000 0.09950330 17761.46462655 0 318.60388025 0 5549.52050654 0 86.82638325 0 977.38919391 0 10882
0.10050000 0.10051200 17578.57923915 0 141.40513807 0 5274.49550511 0 535.70468441 0 189.58031897 0 10875
0.10150000 0.10150300 17271.48466118 0 254.21068848 0 5103.26667252 0 333.58541955 0 -23.63965052 0 11118
0.10250000 0.10250800 17221.23895241 0 42.24652449 0 4426.48957331 0 716.32170848 0 -722.65356704 0 11575
0.10350000 0.10349800 16913.80715492 0 154.53646625 0 4350.32292396 0 906.19203624 0 -362.29966184 0 11364
0.10450000 0.10450100 16994.06540114 0 72.39035274 0 4075.92739896 0 585.14556258 0 -564.16601206 0 12093
0.10550000 0.10551000 16565.34698226 0 22.23310789 0 3146.95505995 0 941.90021142 0 -1409.64504557 0 12067
0.10650000 0.10649700 16899.75634151 0 200.60514921 0 3675.18695975 0 230.53675397 0 -681.63081220 0 12054
0.10750000 0.10749900 16419.78055530 0 181.34654231 0 2494.26667525 0 -8.69402510 0 -823.64744166 0 12807
0.10850000 0.10850100 16460.13449142 0 372.24089335 0 4017.17251759 0 -251.67142548 0 465.17522140 0 12736
0.10950000 0.10950300 16119.54277427 0 366.39687903 0 3449.02506704 0 -562.82387836 0 -308.53000907 0 12933
0.11050000 0.11050200 16100.88329406 0 255.80124056 0 4133.35588355 0 35.41839120 0 206.53009621 0 13428
0.11150000 0.11150900 15763.43895911 0 329.54665374 0 5123.61225034 0 -413.90886154 0 656.44276204 0 13453
0.11250000 0.11250000 15468.14706441 0 284.78076220 0 4480.81563829 0 149.48379375 0 -345.67361534 0 13668
0.11350000 0.11349100 15309.31666958 0 277.24165776 0 5513.75275592 0 149.51863976 0 1158.77620256 0 13791
0.11450000 0.11448600 14782.91699585 0 281.21859999 0 4295.16505082 0 100.14104645 0 -498.00016966 0 14205
0.11550000 0.11549300 14877.00124247 0 112.11211467 0 5040.63376665 0 388.33300893 0 499.94143004 0 14776
0.11650000 0.11649800 14417.14622106 0 208.78497074 0 4233.92598564 0 300.78520072 0 -497.55054363 0 14553
0.11750000 0.11747300 14094.08991905 0 89.25076680 0 3713.91100152 0 229.24295507 0 -74.05958937 0 14568
0.11850000 0.11849100 14198.40315784 0 27.67369525 0 3332.95410760 0 298.61238293 0 -953.00934654 0 16015
0.11950000 0.11950300 14062.72850351 0 -51.51432861 0 2928.68410406 0 70.72448830 0 -1258.85171601 0 15270
0.12050000 0.12050700 14327.89545426 0 -33.77669416 0 2881.20359537 0 -42.11433444 0 -1584.30227663 0 15999
0.12150000 0.12150000 14351.83804031 0 2.78084707 0 3212.13959354 0 -320.15621412 0 -1691.12218053 0 15670
0.12250000 0.12250700 14454.80240101 0 400.89556019 0 3145.60618186 0 -293.54397351 0 -926.72308480 0 16887
0.12350000 0.12352200 13940.31781705 0 543.71139992 0 4352.13266872 0 -523.25791185 0 -1356.01590093 0 16407
0.12450000 0.12449800 13627.82772673 0 642.81909335 0 4369.07232938 0 -2.29999451 0 -267.91641391 0 16306
0.12550000 0.12549900 13213.60974729 0 473.39438521 0 5075.38985871 0 -98.26228409 0 -206.17376758 0 17523
0.12650000 0.12650100 12995.42871661 0 221.26771338 0 5038.05965763 0 492.06960233 0 533.35314027 0 17154
0.12750000 0.12750600 12836.26110226 0 185.69779821 0 5401.54858032 0 293.95088507 0 641.26900762 0 18007
0.12850000 0.12850300 12652.02683677 0 97.58436044 0 4948.49415261 0 574.42535398 0 878.77946130 0 17496
0.12950000 0.12949900 12767.69313280 0 0.30046035 0 5077.00851241 0 541.89266263 0 1389.55800271 0 18405
0.13050000 0.13049000 12716.54817197 0 -65.12158594 0 4226.51839680 0 327.60764149 0 1216.46322211 0 18100
0.13150000 0.13148800 12857.05630611 0 117.37487493 0 4745.36435325 0 151.93200748 0 1499.16558799 0 19059
0.13250000 0.13249300 12579.41223305 0 15.70318907 0 4463.59496137 0 74.06363601 0 1180.21212350 0 18957
0.13350000 0.13349100 12768.70479136 0 -47.71836086 0 4470.00213229 0 326.00922096 0 1614.88808727 0 19468
0.13450000 0.13450700 12738.24262788 0 -134.24034729 0 4191.62741694 0 651.56656775 0 1466.88243909 0 19953
0.13550000 0.13551000 12837.72238685 0 -61.33213777 0 3765.69667944 0 705.82743696 0 1589.36056946 0 19956
0.13650000 0.13649900 12728.23844873 0 187.73572818 0 3350.37711623 0 506.36433787 0 808.50740919 0 19723
0.13750000 0.13749600 12647.53057648 0 311.79204591 0 3099.57571712 0 -46.84574914 0 1162.60926446 0 20946
0.13850000 0.13851100 12059.41973024 0 515.02413519 0 2833.92541839 0 -69.21430688 0 701.78867115 0 20955
0.13950000 0.13949800 11719.50245213 0 380.85460400 0 2977.25495586 0 -114.62653583 0 458.16330347 0 20506
0.14050000 0.14048300 11320.79657070 0 289.03647257 0 2968.01514096 0 -188.05159047 0 149.47255310 0 21447
0.14150000 0.14148400 11117.05977620 0 216.33306771 0 2865.80390387 0 -140.47890845 0 -293.43044294 0 21771
0.14250000 0.14249400 11098.71503421 0 50.05821471 0 2933.23656760 0 265.07702554 0 -288.69250866 0 22470
0.14350000 0.14350900 11077.27911327 0 7.16829786 0 2753.67841282 0 -70.56621994 0 -254.46922344 0 22519
0.14450000 0.14449900 11012.82522198 0 -74.28451479 0 3064.95451287 0 431.83095507 0 -371.35288194 0 22218
0.14550000 0.14550500 11089.67755102 0 68.20995473 0 2290.61980596 0 336.01789637 0 -557.73186358 0 23559
0.14650000 0.14650700 11000.88765090 0 146.39261480 0 2688.42643533 0 56.47359131 0 -297.85588713 0 23044
0.14750000 0.14750500 10991.19820997 0 204.20328150 0 2297.67893462 0 -68.25143273 0 -68.12430097 0 23649
0.14850000 0.14849900 10907.88250675 0 124.93421255 0 2418.01010070 0 208.22293821 0 -506.57228991 0 23640
0.14950000 0.14949500 10729.79687722 0 25.24751320 0 2239.13762561 0 -56.83138122 0 -60.43389737 0 24457
0.15050000 0.15050000 10781.45890798 0 98.61130629 0 2263.94574178 0 16.89851987 0 -877.22263118 0 24591
0.15150000 0.15149900 10780.40228681 0 127.58026173 0 2473.85365353 0 -67.19143937 0 -201.96639201 0 25020
0.15250000 0.15250500 10509.25530988 0 245.26088236 0 2691.77614925 0 30.70226378 0 -752.98421491 0 25297
0.15350000 0.15350100 10400.89543683 0 225.37954342 0 2390.68407877 0 107.34293138 0 -75.89012935 0 25452
0.15450000 0.15450400 10163.06574866 0 152.33779497 0 2555.52822174 0 406.90930833 0 -190.92245267 0 26061
0.15550000 0.15549900 9963.94886162 0 148.47775551 0 2250.35579504 0 259.01606666 0 9.25604640 0 26128
0.15650000 0.15649500 9942.17572115 0 143.05863779 0 2064.77265147 0 321.74114587 0 295.00413404 0 26331
0.15750000 0.15749700 9733.90894441 0 186.26320294 0 2246.69134290 0 33.30233870 0 208.60512033 0 27345
0.15850000 0.15849900 9608.40707899 0 221.64877144 0 1837.74522866 0 12.55131061 0 392.72248304 0 26980
0.15950000 0.15949700 9380.31179436 0 117.67050405 0 2040.24555158 0 -237.68018751 0 314.91245055 0 27777
0.16050000 0.16050000 9319.60103976 0 192.00829953 0 2161.97055835 0 -224.11834240 0 77.60331692 0 28224
0.16150000 0.16150500 9305.97737108 0 25.49042366 0 2315.24807171 0 -113.53057238 0 8.20509052 0 28075
0.16250000 0.16249700 9255.67545906 0 -20.73664006 0 2359.19901607 0 -13.57106244 0 -332.77047237 0 28590
0.16350000 0.16349900 9292.05020482 0 63.63096325 0 2156.82234031 0 51.78050722 0 -39.56259431 0 29163
0.16450000 0.16449100 9248.11050111 0 144.68515995 0 2364.59452842 0 175.34628295 0 -382.44515608 0 28996
0.16550000 0.16550500 9130.47709121 0 148.48787209 0 2147.50384085 0 177.59441309 0 -9.62869645 0 30777
0.16650000 0.16650700 9082.99658253 0 125.88404754 0 2234.16925799 0 297.16683525 0 -208.53542830 0 29211
0.16750000 0.16749900 9014.58598218 0 137.98685618 0 2349.94796052 0 152.21302374 0 347.30350970 0 30922
0.16850000 0.16850800 8873.54953746 0 102.66266163 0 2253.48069595 0 50.43533855 0 487.25523163 0 30867
0.16950000 0.16949900 8837.01742258 0 85.11038551 0 2528.39329087 0 184.84013656 0 1085.30730938 0 30852
0.17050000 0.17049200 8824.91124174 0 60.04193588 0 1932.51515497 0 241.20975184 0 817.11662359 0 31257
0.17150000 0.17149500 8654.36808885 0 80.57320925 0 2220.74792102 0 494.46161281 0 798.93262290 0 32608
0.17250000 0.17250900 8579.47163303 0 80.76272662 0 1554.78432781 0 359.98071559 0 842.76329230 0 32361
0.17350000 0.17350400 8399.39640832 0 73.04793081 0 1334.04042875 0 304.93412490 0 101.51139418 0 32508
0.17450000 0.17449800 8456.45395143 0 87.99113948 0 1089.62484332 0 161.10325441 0 425.46987082 0 32791
0.17550000 0.17549800 8137.52296824 0 43.25649696 0 733.38951255 0 111.12630960 0 -182.26377941 0 33633
0.17650000 0.17650100 8335.74060323 0 20.86287257 0 693.18620115 0 35.01878607 0 192.24098100 0 33984
0.17750000 0.17750300 8176.21328806 0 44.22544105 0 934.26331331 0 -146.43532927 0 -158.41673888 0 34069
0.17850000 0.17849800 8244.53396320 0 131.79662982 0 1005.58861439 0 -182.16261355 0 100.88236737 0 34536
