### header ###
fiducial parameters:
Omega_m = 0.31
Omega_nu = 0
Omega_de = 0.69
Omega_k = 0
H_0 = 100
w_de = -1
zeff = 0
beta = 0
fgrowth = 0
b_1 = 2
gamma = 0.55
Lx = 3500 Ly = 3500 Lz = 3500
nx = 700 ny = 700 nz = 700
xoffset = 857.220397 yoffset = 15.9954215 zoffset = 262.898189
bins = 400 dk = 0.001
kx_ny = 0.628318531 ky_ny = 0.628318531 kz_ny = 0.628318531
############################
A(data) = 3.08699134 (not used)
A(ran) = 3.08420561 (used)
Ngal = 188501
weighted Ngal = 0
Nran = 9360983
weighted Nran = 0
SN(data) = 3454.39832
SN(ran) = 69.2596669
SN(data+ran) = 3523.65799
############################
13 columns: k_central k_mean P_0(k) sigma^{lin}_{P_0(k)} P^img_1(k) sigma^{lin}_{P_1(k)} P_2(k) sigma^{lin}_{P_2(k)} P^img_3(k) sigma^{lin}_{P_3(k)} P_4(k) sigma^{lin}_{P_4(k)} N_modes
### header ###
0.00050000 0 0 0 0 0 0 0 0 0 0 0 0
0.00150000 0.00179520 20568.70474010 0 -20569.04195963 0 -9492.41480410 0 40310.99683847 0 -42849.81021257 0 3
0.00250000 0.00253879 44747.11964945 0 -32191.65000246 0 -6542.37346366 0 -14298.22013633 0 72656.75616244 0 6
0.00350000 0.00331552 58953.72848232 0 -26517.14470044 0 -8241.89241028 0 -22052.80785612 0 -56973.91266907 0 7
0.00450000 0.00420575 80980.68284176 0 -22571.90110687 0 -14603.74102320 0 -10241.19951190 0 15489.16708128 0 24
0.00550000 0.00557378 94551.52046928 0 -14696.36398522 0 -14896.11034871 0 551.73385235 0 21804.38947496 0 45
0.00650000 0.00659388 107762.54486691 0 -8774.62057037 0 -19333.35722477 0 15625.40376814 0 9725.75947263 0 40
0.00750000 0.00754703 94473.17313369 0 910.19370790 0 -7400.50722176 0 -904.71389067 0 2095.51583122 0 57
0.00850000 0.00846663 96908.79733408 0 6123.74914913 0 -25825.73227397 0 10948.27016483 0 14701.87190408 0 75
0.00950000 0.00948925 81846.77498058 0 6064.62332629 0 -18203.55941980 0 -1368.85272407 0 21580.36330589 0 112
0.01050000 0.01054430 76887.28747156 0 4972.61658907 0 -21899.59778665 0 -4547.51765973 0 16633.91495172 0 105
0.01150000 0.01145670 73083.56367070 0 3076.81339939 0 -28576.88154038 0 -1115.88412750 0 32452.54550592 0 144
0.01250000 0.01249090 69306.03058604 0 -92.90251701 0 -29931.82957950 0 3764.92107454 0 30767.90918087 0 169
0.01350000 0.01339930 67681.30692939 0 -2833.31842325 0 -32728.84070089 0 3792.37074362 0 39080.70761596 0 180
0.01450000 0.01448870 73265.21258651 0 -3930.12491833 0 -42775.17229171 0 4695.25353229 0 24695.14762345 0 267
0.01550000 0.01550050 74488.42019906 0 286.75799267 0 -36569.09661663 0 -2057.99453908 0 -1241.65352040 0 238
0.01650000 0.01653350 72506.69347519 0 4287.64505548 0 -34740.57996222 0 -21732.56171679 0 6330.37479087 0 315
0.01750000 0.01747870 68427.79854443 0 5658.48737473 0 -12168.00441630 0 -28974.23854372 0 5755.85389136 0 297
0.01850000 0.01844180 62530.16632540 0 6759.10445040 0 -5594.58427532 0 -26832.10773392 0 7810.28514416 0 388
0.01950000 0.01947590 62615.93249048 0 5083.20211097 0 9502.54263041 0 -18289.88761741 0 354.47279674 0 399
0.02050000 0.02045430 59929.97899831 0 1857.45008939 0 22049.09844138 0 782.64042373 0 8687.65165567 0 462
0.02150000 0.02154770 62688.88431372 0 -3101.68895946 0 23428.10147305 0 13251.04111423 0 7613.33770270 0 571
0.02250000 0.02255340 63589.37284378 0 -1343.74111033 0 28309.91608552 0 8546.31171338 0 4636.55485417 0 510
0.02350000 0.02348930 66597.48338590 0 436.97018058 0 27326.80877259 0 6548.33100854 0 7120.86231288 0 555
0.02450000 0.02439640 61385.75567448 0 1844.78187602 0 26790.29251320 0 3610.37336764 0 6711.68014497 0 592
0.02550000 0.02547300 64115.54770450 0 -214.36932603 0 27075.46782225 0 -2078.09282259 0 15336.74385736 0 837
0.02650000 0.02652900 62552.08559433 0 -1601.27565923 0 29276.49964188 0 -2662.23571913 0 14731.43481550 0 723
0.02750000 0.02749970 70167.96368410 0 979.19331835 0 31119.40432923 0 -846.17932605 0 2278.79464139 0 826
0.02850000 0.02848090 61510.63930410 0 4106.10854617 0 27869.95701591 0 6.24569897 0 6647.36114148 0 831
0.02950000 0.02946900 57402.96830747 0 6610.28947537 0 23401.91075685 0 1585.35889780 0 6997.08026703 0 996
0.03050000 0.03053250 54065.84391846 0 1848.69362247 0 16370.54650509 0 3481.92645173 0 1880.69575510 0 1041
0.03150000 0.03150510 52579.26785928 0 -1376.00177793 0 12789.16277569 0 2448.66335524 0 -10923.78802754 0 1036
0.03250000 0.03246190 57852.14471068 0 -2347.92464339 0 13576.12073337 0 2514.65721568 0 -12778.59656401 0 1059
0.03350000 0.03345080 55223.40613074 0 451.90001288 0 8397.14827818 0 -7951.22042303 0 -19092.35767310 0 1302
0.03450000 0.03451200 56256.30952641 0 3901.53994352 0 12168.00441630 0 -10268.30072081 0 -10567.32451155 0 1339
0.03550000 0.03553350 52513.62245902 0 4227.92347815 0 17211.23477326 0 -6090.99389290 0 -16082.44862686 0 1365
0.03650000 0.03647120 52708.53534269 0 3008.06557952 0 23053.67539720 0 229.20248873 0 -11812.12541415 0 1308
0.03750000 0.03744890 48501.04736757 0 1024.06487200 0 22319.88571749 0 5428.39125426 0 -14247.86202105 0 1579
0.03850000 0.03847530 48185.52230155 0 70.30273909 0 25388.47096054 0 7708.36616398 0 -3955.95593371 0 1662
0.03950000 0.03950240 47144.18841784 0 271.14248067 0 17691.32296599 0 8401.02630268 0 -9112.52577200 0 1683
0.04050000 0.04050350 46630.26586641 0 412.95115810 0 16405.28011585 0 5790.03671023 0 -199.54065958 0 1822
0.04150000 0.04152450 44424.51297347 0 1416.69293358 0 10165.90963330 0 3341.24970783 0 -3149.95631369 0 1887
0.04250000 0.04250150 42795.85508906 0 652.72660291 0 10912.47993290 0 2803.81171508 0 4111.50405853 0 1920
0.04350000 0.04349210 41364.69543799 0 1471.69343761 0 5997.19066255 0 2107.18362668 0 598.84117143 0 2005
0.04450000 0.04448520 41975.96202474 0 344.30675222 0 8365.44964311 0 644.42088608 0 3277.12179541 0 2151
0.04550000 0.04548030 41061.08546174 0 -990.50253705 0 6693.80751031 0 1014.36756262 0 1877.59333550 0 2274
0.04650000 0.04648670 42576.10036727 0 -447.38127129 0 10664.89335990 0 -1099.19176116 0 3704.30024514 0 2311
0.04750000 0.04749250 42559.12698466 0 -161.07964904 0 5086.72043464 0 -2077.55327136 0 -3719.69993665 0 2568
0.04850000 0.04851840 42809.90590247 0 1870.50048489 0 10578.62136554 0 -2961.72037655 0 -67.42816747 0 2493
0.04950000 0.04949480 41172.92993652 0 2368.50627488 0 6723.24677457 0 -2414.12083554 0 -5642.17719052 0 2644
0.05050000 0.05050630 38408.96632827 0 2894.37763802 0 10876.20635299 0 -1012.49374614 0 -3797.41779580 0 2829
0.05150000 0.05149060 36651.15336696 0 2916.07209394 0 8577.70685087 0 -2077.31721769 0 -6003.05828224 0 2784
0.05250000 0.05249300 33936.64862194 0 1043.04920702 0 9735.03300948 0 1563.21481586 0 -3814.41365971 0 3055
0.05350000 0.05348950 33790.07053640 0 348.03640013 0 8829.03656056 0 726.57880228 0 -3838.78339049 0 3009
0.05450000 0.05448610 34340.07557667 0 -1928.46852071 0 9712.90016819 0 4411.26973222 0 -384.88774948 0 3336
0.05550000 0.05550870 35642.64218338 0 -1553.96376031 0 9636.53118712 0 2728.36446738 0 398.26187572 0 3349
0.05650000 0.05647670 37408.66081972 0 -883.59495608 0 10953.98041540 0 1691.89778543 0 3267.19630082 0 3324
0.05750000 0.05747970 37513.87331057 0 375.48494515 0 11498.28644575 0 -1826.33596817 0 2849.59488551 0 3639
0.05850000 0.05849280 37473.96900047 0 1000.63598368 0 14626.33473117 0 -784.70195907 0 8839.35547793 0 3846
0.05950000 0.05951020 37419.56425093 0 664.74623073 0 16558.37777881 0 -809.43813507 0 9163.78313933 0 3787
0.06050000 0.06049470 36396.21540838 0 648.40344864 0 15364.73307768 0 -56.74730115 0 7992.41740796 0 3930
0.06150000 0.06148310 37477.45360220 0 660.61866379 0 19736.10974046 0 1936.32573557 0 6988.95327655 0 4083
0.06250000 0.06249100 35842.83817290 0 1667.75286766 0 17186.39293515 0 395.52477727 0 9244.63714004 0 4303
0.06350000 0.06350600 33808.73001662 0 2095.02124259 0 16021.29948688 0 2315.69769774 0 7276.06197752 0 4470
0.06450000 0.06451750 32571.92121669 0 1602.57957472 0 16027.81906431 0 1326.49795211 0 7305.65861089 0 4479
0.06550000 0.06550280 30669.89070649 0 994.86053734 0 11967.35880075 0 2996.47646861 0 5377.10016498 0 4636
0.06650000 0.06648880 29591.01304933 0 239.84401278 0 12023.44964790 0 2579.36964194 0 3286.32788836 0 4653
0.06750000 0.06749660 29230.75019341 0 -762.17232281 0 8115.70486517 0 866.72049120 0 1042.51077985 0 5220
0.06850000 0.06852730 30221.38874233 0 -1082.73207630 0 6607.85025417 0 1265.78719752 0 727.27010230 0 5029
0.06950000 0.06949320 30621.89312787 0 -511.41925850 0 5894.60848398 0 -343.69076456 0 -1997.69968856 0 5040
0.07050000 0.07048030 31528.78882885 0 195.68961264 0 5375.08808850 0 -1131.95600991 0 -2406.88185647 0 5475
0.07150000 0.07148790 30486.21847355 0 1090.59266335 0 7733.01691104 0 -1760.81421506 0 -3461.80568692 0 5509
0.07250000 0.07249820 30439.68217952 0 1452.51688746 0 9430.57998443 0 -2874.89759031 0 -885.29004621 0 5916
0.07350000 0.07351270 29037.18618782 0 646.50265460 0 10417.40795275 0 -1196.30873535 0 -2173.18872777 0 5721
0.07450000 0.07449140 29693.86500352 0 1183.71920653 0 13376.71158940 0 -1989.74130784 0 190.84601624 0 6028
0.07550000 0.07549160 29191.29550934 0 143.38012040 0 12277.15113490 0 248.65218669 0 -901.25514244 0 6183
0.07650000 0.07648840 28321.04432975 0 768.79531423 0 14375.55581336 0 -533.88032679 0 -1654.94976647 0 6330
0.07750000 0.07749960 28468.07204131 0 744.72346069 0 12964.17970757 0 274.61471768 0 -1700.40695803 0 6583
0.07850000 0.07848650 27503.84902160 0 -113.22595075 0 13948.63589859 0 1364.86229306 0 -2174.88606604 0 6549
0.07950000 0.07947320 27806.11011976 0 312.32710089 0 12211.05610860 0 1449.67300282 0 -994.05683081 0 6828
0.08050000 0.08048110 27497.66666370 0 -174.96522489 0 12133.83283808 0 2988.41692204 0 -1666.07801070 0 7147
0.08150000 0.08149960 27177.30811787 0 7.73907562 0 10383.41622494 0 1802.26973495 0 -694.10905857 0 7386
0.08250000 0.08250610 26318.74721504 0 252.26830403 0 9444.04628401 0 1300.18358875 0 -336.03026108 0 7227
0.08350000 0.08350160 26618.19815051 0 869.75321877 0 9928.13614839 0 902.80522818 0 1213.45072771 0 7798
0.08450000 0.08449610 25382.51341565 0 1338.66033620 0 9387.70814254 0 562.78228795 0 2229.51562859 0 7371
0.08550000 0.08548940 24431.10473778 0 1550.59156509 0 11033.12583720 0 515.98408676 0 3443.62955469 0 8256
0.08650000 0.08650700 23208.79637729 0 1209.12307718 0 10638.29798027 0 679.33659538 0 5536.51507365 0 8037
0.08750000 0.08749060 21976.59624416 0 1195.63429630 0 10591.06476590 0 938.90008174 0 4275.99974132 0 8155
0.08850000 0.08849210 21461.99925370 0 477.90863054 0 10436.23604273 0 1173.46773306 0 5579.01597406 0 8718
0.08950000 0.08949900 21219.08879140 0 297.55351363 0 9568.16554938 0 1048.47731726 0 4907.07235466 0 8571
0.09050000 0.09049190 20884.34221263 0 295.10642397 0 9314.27297132 0 920.92515715 0 5804.45846512 0 8932
0.09150000 0.09150830 20397.39722296 0 369.37789961 0 8247.35536653 0 1146.56885586 0 5252.28397926 0 9285
0.09250000 0.09250820 20011.39327686 0 325.68436615 0 8022.77840558 0 1129.08964398 0 5206.78182510 0 9204
0.09350000 0.09350330 19614.37349304 0 130.95020882 0 7074.04500258 0 1648.82361182 0 5281.50967116 0 9349
0.09450000 0.09448040 19381.69202291 0 402.50746951 0 7110.52091420 0 318.10479536 0 3950.16699858 0 9564
0.09550000 0.09549270 19305.14319143 0 365.49425478 0 7303.12946448 0 155.77406190 0 4849.41905706 0 10155
0.09650000 0.09649430 18737.04070349 0 292.88751951 0 6443.42201527 0 -621.16960005 0 4362.97989668 0 9913
0.09750000 0.09749140 18838.54377959 0 202.34857413 0 7311.88593140 0 -355.37429693 0 5041.26324309 0 10476
0.09850000 0.09850240 19035.81719992 0 156.58451281 0 7233.81961207 0 -70.83970497 0 3732.67164759 0 10575
0.09950000 0.09950330 18214.68766402 0 263.23018662 0 6381.05888502 0 257.77285069 0 2454.21623670 0 10882
0.10050000 0.10051200 18515.93710361 0 502.37727906 0 6693.93115746 0 302.97487948 0 2995.81327022 0 10875
0.10150000 0.10150300 17640.62763119 0 411.41905741 0 5377.16760888 0 557.56437788 0 1495.54609846 0 11118
0.10250000 0.10250800 17598.02556492 0 348.92890780 0 5694.22140340 0 786.32286091 0 2470.50393961 0 11575
0.10350000 0.10349800 16956.74644071 0 348.15892322 0 5186.49245053 0 746.23195601 0 1792.78262574 0 11364
0.10450000 0.10450100 16835.79703885 0 443.11656840 0 5402.91993971 0 559.75518071 0 2473.83117223 0 12093
0.10550000 0.10551000 16330.41738198 0 326.41838064 0 5186.94207656 0 827.41305966 0 1714.76126901 0 12067
0.10650000 0.10649700 16174.17233682 0 163.81225123 0 5272.21365301 0 106.45379590 0 3190.62498804 0 12054
0.10750000 0.10749900 16002.64000667 0 1.51269933 0 4642.26510474 0 341.88888824 0 1746.40370082 0 12807
0.10850000 0.10850100 16150.11734426 0 -58.83963588 0 5003.15743711 0 228.62134709 0 1811.20605228 0 12736
0.10950000 0.10950300 16052.66090242 0 -25.36587725 0 4180.66778247 0 -523.69629723 0 805.55111805 0 12933
0.11050000 0.11050200 16345.92947999 0 79.46476868 0 4662.64440452 0 -861.44637788 0 813.65675129 0 13428
0.11150000 0.11150900 16135.61690482 0 92.64769145 0 4852.10557259 0 -384.94282867 0 390.77897453 0 13453
0.11250000 0.11250000 16352.89868345 0 230.17030876 0 5375.50399257 0 -552.34421968 0 363.27984658 0 13668
0.11350000 0.11349100 16237.34479393 0 73.64458455 0 5332.51974418 0 -478.89893187 0 -362.67847177 0 13791
0.11450000 0.11448600 16309.50977162 0 210.98476609 0 6465.61105982 0 -426.69847394 0 -59.20832922 0 14205
0.11550000 0.11549300 16261.51219300 0 220.46400685 0 7191.24002710 0 -714.42316257 0 614.68599270 0 14776
0.11650000 0.11649800 16176.42046697 0 96.83112444 0 7716.33578535 0 18.24885924 0 523.48160080 0 14553
0.11750000 0.11747300 16013.09381185 0 286.44887477 0 7564.02496795 0 85.55877507 0 849.38965590 0 14568
0.11850000 0.11849100 15667.44380187 0 271.93719468 0 7321.69901949 0 403.55397409 0 189.21050156 0 16015
0.11950000 0.11950300 15559.64596136 0 198.01867547 0 7201.25544691 0 739.65392721 0 -825.59207424 0 15270
0.12050000 0.12050700 14872.84220170 0 191.66883187 0 5746.25437563 0 727.33867026 0 -656.93060628 0 15999
0.12150000 0.12150000 15083.15477687 0 58.33459344 0 5751.07661480 0 1141.69041345 0 -1464.36453333 0 15670
0.12250000 0.12250700 14531.35123249 0 7.33408622 0 4158.60238509 0 584.01362905 0 -867.89963546 0 16887
0.12350000 0.12352200 14855.19438005 0 -16.77970619 0 4658.26055073 0 1170.90486470 0 -639.07708072 0 16407
0.12450000 0.12449800 14566.42206277 0 68.47354799 0 3281.10098577 0 859.34100399 0 -667.30123065 0 16306
0.12550000 0.12549900 14811.01862268 0 142.46175923 0 3767.22540794 0 752.70095051 0 54.25569851 0 17523
0.12650000 0.12650100 14371.73399211 0 313.56244840 0 2999.68005407 0 241.51100128 0 405.56717463 0 17154
0.12750000 0.12750600 14198.74037736 0 401.25863321 0 3263.44192348 0 140.97799334 0 556.58306908 0 18007
0.12850000 0.12850300 13876.35851439 0 432.76055688 0 3363.13525481 0 -80.48159795 0 743.91076164 0 17496
0.12950000 0.12949900 13548.69354559 0 355.11688602 0 3331.11064088 0 -61.28897367 0 778.78712866 0 18405
0.13050000 0.13049000 13390.76240282 0 322.99672656 0 3403.48919093 0 -62.85659482 0 829.00585987 0 18100
0.13150000 0.13148800 13101.54045951 0 179.54916226 0 3820.27003874 0 -309.43263332 0 546.08317723 0 19059
0.13250000 0.13249300 13069.72941794 0 91.70313957 0 3866.72764821 0 14.90566490 0 492.67772154 0 18957
0.13350000 0.13349100 12896.17377065 0 100.36170043 0 4047.62344042 0 -158.89109434 0 218.24959866 0 19468
0.13450000 0.13450700 12949.34204861 0 74.24078866 0 4144.51784972 0 45.54228328 0 631.21649367 0 19953
0.13550000 0.13551000 12883.24702231 0 71.15612929 0 3907.19399084 0 517.39254030 0 538.35410578 0 19956
0.13650000 0.13649900 12767.24350677 0 188.81145846 0 3988.26156391 0 243.76250362 0 571.52863829 0 19723
0.13750000 0.13749600 12635.50308020 0 315.45087772 0 3501.50766531 0 338.03784130 0 336.84071200 0 20946
0.13850000 0.13851100 12065.71449465 0 352.64956319 0 3695.91471970 0 -29.70611731 0 305.16568231 0 20955
0.13950000 0.13949800 11932.85000301 0 442.05882317 0 3595.07484199 0 -286.99966666 0 470.20990886 0 20506
0.14050000 0.14048300 11521.77940577 0 312.92735163 0 3763.44854929 0 -471.31036856 0 490.63417124 0 21447
0.14150000 0.14148400 11222.39591420 0 148.56543258 0 3944.11952849 0 -236.11324080 0 373.41216915 0 21771
0.14250000 0.14249400 11280.77985410 0 21.63847747 0 4055.00854795 0 111.74083597 0 372.97715597 0 22470
0.14350000 0.14350900 11410.49696354 0 -73.84343166 0 4142.82051146 0 21.09802698 0 232.71631615 0 22519
0.14450000 0.14449900 11422.63686633 0 -39.72311081 0 4076.01732417 0 267.00030088 0 209.09858490 0 22218
0.14550000 0.14550500 11556.17579701 0 22.31763759 0 4082.43573574 0 208.41065707 0 358.68017231 0 23559
0.14650000 0.14650700 11355.08055543 0 172.50127425 0 3755.82738810 0 209.10420522 0 170.46671647 0 23044
0.14750000 0.14750500 11111.47317279 0 338.66394555 0 3750.98266763 0 371.25508828 0 478.34476779 0 23649
0.14850000 0.14849900 11047.45766688 0 259.20828179 0 3810.70424496 0 222.90435213 0 1.30559034 0 23640
0.14950000 0.14949500 10637.37624691 0 206.25807246 0 3454.83648347 0 356.57929468 0 93.15430758 0 24457
0.15050000 0.15050000 10396.99493103 0 166.50775928 0 3465.85232119 0 47.38383909 0 -109.87320185 0 24591
0.15150000 0.15149900 10249.59627799 0 178.33179978 0 3421.54167601 0 -39.97231603 0 -365.16153152 0 25020
0.15250000 0.15250500 10206.85932391 0 110.49593391 0 3080.75886779 0 101.03141840 0 -446.12569060 0 25297
0.15350000 0.15350100 10015.68957693 0 124.56327108 0 2942.71243617 0 293.43044294 0 -285.01231961 0 25452
0.15450000 0.15450400 9987.10460212 0 75.60135703 0 2570.39960266 0 528.05654565 0 -329.70627098 0 26061
0.15550000 0.15549900 9806.47858553 0 124.19008147 0 2441.88524285 0 596.70544779 0 -313.48376385 0 26128
0.15650000 0.15649500 9667.25188557 0 225.50656277 0 2135.73487954 0 309.32809527 0 -465.42588791 0 26331
0.15750000 0.15749700 9496.33779121 0 220.80459857 0 1773.70724145 0 96.96927204 0 -93.09225919 0 27345
0.15850000 0.15849900 9306.49444101 0 168.93124358 0 2071.22478499 0 -261.25970055 0 183.77339880 0 26980
0.15950000 0.15949700 9355.67228796 0 29.56178736 0 2107.76814052 0 -182.35258055 0 267.52523927 0 27777
0.16050000 0.16050000 9394.31764517 0 38.21011922 0 2491.14177435 0 -206.04450009 0 461.05552290 0 28224
0.16150000 0.16150500 9400.05037704 0 76.60244938 0 2574.88462230 0 93.50512829 0 375.68502873 0 28075
0.16250000 0.16249700 9440.62912618 0 123.88321171 0 3025.07268407 0 -40.70756700 0 616.66996756 0 28590
0.16350000 0.16349900 9317.75757304 0 222.91109652 0 3068.14685767 0 50.79582621 0 986.61552003 0 29163
0.16450000 0.16449100 9212.18538138 0 207.59008957 0 3468.78613103 0 19.93495685 0 1084.33274496 0 28996
0.16550000 0.16550500 9075.37542133 0 131.02776931 0 3509.25247366 0 -137.35737974 0 1206.35787710 0 30777
0.16650000 0.16650700 9067.99031380 0 87.88525255 0 3446.58584584 0 15.05089411 0 1141.75785735 0 29211
0.16750000 0.16749900 8914.93761345 0 17.30352052 0 3393.41756788 0 -22.43487757 0 1307.82723125 0 30922
0.16850000 0.16850800 8877.96711319 0 43.88664784 0 3109.74850603 0 205.87364220 0 539.43545639 0 30867
0.16950000 0.16949900 8885.68944025 0 73.90997631 0 2873.98709760 0 146.58482992 0 667.03707535 0 30852
0.17050000 0.17049200 8824.61898482 0 108.61368694 0 2661.22406056 0 253.16755609 0 59.63356304 0 31257
0.17150000 0.17149500 8567.53406196 0 147.36380702 0 2468.66047289 0 142.86529860 0 -141.73336507 0 32608
0.17250000 0.17250900 8488.39988081 0 57.15544918 0 2232.79789860 0 223.39669263 0 -103.36093085 0 32361
0.17350000 0.17350400 8577.51575980 0 -1.65138648 0 2325.07240045 0 61.54526051 0 -313.64787735 0 32508
0.17450000 0.17449800 8509.71215460 0 79.06707446 0 2457.01515873 0 -179.74025332 0 -178.82863654 0 32791
0.17550000 0.17549800 8530.55232105 0 152.47942717 0 2721.54139238 0 -222.33894739 0 -141.45684506 0 33633
0.17650000 0.17650100 8376.13950196 0 167.71275704 0 2785.44449179 0 -372.76807987 0 68.91598001 0 33984
0.17750000 0.17750300 8475.02350644 0 81.10657813 0 3284.96776962 0 -41.20519060 0 406.85085695 0 34069
0.17850000 0.17849800 8360.84097631 0 28.43277640 0 2953.14376005 0 258.53496681 0 426.30055491 0 34536
