### header ###
fiducial parameters:
Omega_m = 0.31
Omega_nu = 0
Omega_de = 0.69
Omega_k = 0
H_0 = 100
w_de = -1
zeff = 0
beta = 0
fgrowth = 0
b_1 = 2
gamma = 0.55
Lx = 3500 Ly = 3500 Lz = 3500
nx = 700 ny = 700 nz = 700
xoffset = 857.220397 yoffset = 15.9954215 zoffset = 262.898189
bins = 400 dk = 0.001
kx_ny = 0.628318531 ky_ny = 0.628318531 kz_ny = 0.628318531
############################
A(data) = 3.13315352 (not used)
A(ran) = 3.12879328 (used)
Ngal = 191446
weighted Ngal = 0
Nran = 9360983
weighted Nran = 0
SN(data) = 3457.96213
SN(ran) = 70.2609384
SN(data+ran) = 3528.22307
############################
13 columns: k_central k_mean P_0(k) sigma^{lin}_{P_0(k)} P^img_1(k) sigma^{lin}_{P_1(k)} P_2(k) sigma^{lin}_{P_2(k)} P^img_3(k) sigma^{lin}_{P_3(k)} P_4(k) sigma^{lin}_{P_4(k)} N_modes
### header ###
0.00050000 0 0 0 0 0 0 0 0 0 0 0 0
0.00150000 0.00179520 35917.92571978 0 -45649.74390315 0 -38669.29979920 0 97626.62528976 0 -25184.79036929 0 3
0.00250000 0.00253879 60471.89077005 0 -45178.98545054 0 -592.26089450 0 -57217.27275740 0 22942.61776798 0 6
0.00350000 0.00331552 85986.03220576 0 -35664.89867183 0 -29621.25039980 0 6316.45886527 0 -22339.21963674 0 7
0.00450000 0.00420575 106453.34627627 0 -28827.21083216 0 -24129.85529819 0 -13014.65022936 0 11585.40148891 0 24
0.00550000 0.00557378 120312.05696902 0 -6411.22879158 0 -41035.45677808 0 -7581.02083185 0 7256.77302087 0 45
0.00650000 0.00659388 123699.98909934 0 -13087.26483308 0 -43617.77147051 0 21577.55314321 0 4989.26399281 0 40
0.00750000 0.00754703 103055.97199934 0 10655.55237914 0 -53009.67237577 0 -13197.87283627 0 -7206.81956902 0 57
0.00850000 0.00846663 101289.16651744 0 8995.89278001 0 -63843.18673729 0 -14444.12378282 0 -3978.69577014 0 75
0.00950000 0.00948925 74713.90765272 0 7255.01947935 0 -55143.14788452 0 -12521.29806877 0 7003.80217616 0 112
0.01050000 0.01054430 77124.91482801 0 6232.23266934 0 -59360.64003878 0 -30669.44108047 0 20141.33519931 0 105
0.01150000 0.01145670 64654.53690705 0 5317.73828847 0 -40536.93391816 0 -23991.82010721 0 4720.83725335 0 144
0.01250000 0.01249090 60700.41319941 0 7032.53327943 0 -26042.00239404 0 -23480.48290546 0 16587.37865769 0 169
0.01350000 0.01339930 56030.14763370 0 7148.75036734 0 -11473.55701414 0 -30311.31394818 0 15723.64705553 0 180
0.01450000 0.01448870 59200.34835936 0 274.00097815 0 6444.54608035 0 -12544.11658976 0 23899.42195820 0 267
0.01550000 0.01550050 64853.04679896 0 -1492.80337968 0 22403.51615892 0 -7025.93501745 0 20057.70475787 0 238
0.01650000 0.01653350 71473.90248602 0 -1961.90945663 0 27601.75508947 0 -14685.46055401 0 12144.06183024 0 315
0.01750000 0.01747870 81629.60560846 0 -1513.55362093 0 54913.61379659 0 -18369.02179856 0 15242.43479773 0 297
0.01850000 0.01844180 76524.32685946 0 3282.34869800 0 41271.73525644 0 -15472.08129217 0 2191.90441124 0 388
0.01950000 0.01947590 82844.71995248 0 1872.62496788 0 62705.74528982 0 -20410.88600384 0 -4614.64682590 0 399
0.02050000 0.02045430 81221.23276740 0 2114.66990007 0 67602.95959379 0 -6660.15300202 0 -17612.41359785 0 462
0.02150000 0.02154770 82009.98922919 0 3865.51365793 0 67359.48709896 0 -846.74023452 0 -33556.04018818 0 571
0.02250000 0.02255340 78773.58107073 0 3661.60825367 0 70634.22587642 0 2750.04768264 0 -39740.19659435 0 510
0.02350000 0.02348930 74444.01962867 0 5467.90214158 0 61537.05483332 0 589.71601117 0 -32921.73026743 0 555
0.02450000 0.02439640 71889.91896958 0 4679.86508144 0 54343.03836548 0 9686.49587962 0 -44956.98259860 0 592
0.02550000 0.02547300 67006.75547902 0 2450.67543172 0 57749.29275650 0 9360.88794990 0 -23377.51854476 0 837
0.02650000 0.02652900 67054.19102510 0 1475.25672389 0 49037.56362696 0 18673.19380734 0 -26674.62621718 0 723
0.02750000 0.02749970 64161.07233996 0 -69.60907853 0 49111.41470227 0 21073.40995793 0 -3380.29972847 0 826
0.02850000 0.02848090 62039.39951449 0 2000.04898457 0 42318.57705902 0 15393.73395657 0 -1732.95988255 0 831
0.02950000 0.02946900 60904.43101018 0 2812.09607467 0 38354.89879826 0 11952.97076781 0 2093.07661001 0 996
0.03050000 0.03053250 58491.51292426 0 4154.47706627 0 41217.21810040 0 10743.35310200 0 19011.87461386 0 1041
0.03150000 0.03150510 53634.65255642 0 2401.83480429 0 28447.50165047 0 3205.76614457 0 7818.47957854 0 1036
0.03250000 0.03246190 55346.71606925 0 640.04040449 0 33988.35561530 0 5484.14488189 0 19472.40407431 0 1059
0.03350000 0.03345080 53213.46537353 0 -1163.80077343 0 20929.75444158 0 1452.57309071 0 2356.97336723 0 1302
0.03450000 0.03451200 55412.47387603 0 -472.29167737 0 21523.14839367 0 4994.71570841 0 5980.70062793 0 1339
0.03550000 0.03553350 54565.15362393 0 661.82366154 0 18171.41115871 0 3555.39534491 0 -4977.22525587 0 1365
0.03650000 0.03647120 51556.03142324 0 1694.33700663 0 17443.69143038 0 1997.02524952 0 -3907.63237622 0 1308
0.03750000 0.03744890 50294.04356567 0 3223.48141013 0 19597.73732996 0 4376.41247430 0 -2692.96765823 0 1579
0.03850000 0.03847530 45583.87368987 0 2432.10587671 0 14493.02061350 0 2350.39758655 0 -700.66797828 0 1662
0.03950000 0.03950240 45809.13633052 0 1619.42931016 0 17160.98906450 0 3127.38508703 0 2403.63330841 0 1683
0.04050000 0.04050350 43109.13202493 0 452.51824867 0 14942.87145575 0 -216.14759697 0 3008.84118442 0 1822
0.04150000 0.04152450 43342.48793411 0 -1223.49986947 0 12680.80290265 0 2955.74035036 0 6769.56949623 0 1887
0.04250000 0.04250150 45012.51141321 0 -1168.11718331 0 8148.13414253 0 424.76957828 0 -788.17644422 0 1920
0.04350000 0.04349210 45098.05276527 0 -507.10734488 0 8930.95554074 0 776.81439446 0 1243.51946842 0 2005
0.04450000 0.04448520 45407.73269291 0 1876.15453221 0 7608.39181638 0 -1832.20358785 0 -4668.74807786 0 2151
0.04550000 0.04548030 43435.44811565 0 2394.77567563 0 9748.91521313 0 -2757.74752839 0 1412.98351884 0 2274
0.04650000 0.04648670 41140.89408193 0 3172.14535824 0 9254.36030292 0 -3043.83333014 0 -1304.44379538 0 2311
0.04750000 0.04749250 38826.89372245 0 2421.46098047 0 14214.81450790 0 -1552.86217653 0 -1064.05348698 0 2568
0.04850000 0.04851840 39669.38049474 0 566.81655750 0 15395.53246069 0 -53.70850363 0 -69.60615596 0 2493
0.04950000 0.04949480 38478.77076931 0 -92.93106826 0 16628.63184588 0 3572.03150799 0 616.24394689 0 2644
0.05050000 0.05050630 38957.17286443 0 -365.53809332 0 13962.91152502 0 1901.74949392 0 49.58610738 0 2829
0.05150000 0.05149060 39039.00480175 0 -1014.99816312 0 13668.29406936 0 4856.15220685 0 -683.05612671 0 2784
0.05250000 0.05249300 39134.77514597 0 -258.51023738 0 10339.31915213 0 3775.46480492 0 -651.34625100 0 3055
0.05350000 0.05348950 38818.57564091 0 101.63549097 0 7318.77645030 0 2083.62322275 0 -1965.32661446 0 3009
0.05450000 0.05448610 38609.38713081 0 563.58374635 0 6895.80200394 0 104.91607488 0 -3339.30507526 0 3336
0.05550000 0.05550870 38182.12999652 0 897.95263925 0 5178.52282916 0 -2942.55506706 0 -3086.43539641 0 3349
0.05650000 0.05647670 36882.26114599 0 1184.94443746 0 7515.07193401 0 -885.86893972 0 -4722.54583226 0 3324
0.05750000 0.05747970 36034.71608087 0 1841.82558488 0 6676.73296184 0 -2823.12315304 0 -5742.38759178 0 3639
0.05850000 0.05849280 34094.13013868 0 2367.79811388 0 8480.01435536 0 -1239.72012847 0 -5779.29064813 0 3846
0.05950000 0.05951020 32077.44499103 0 2637.34891841 0 11757.72066462 0 354.75606114 0 -2609.42714199 0 3787
0.06050000 0.06049470 30407.75873145 0 1109.20942909 0 8310.89876512 0 1832.12490329 0 -2816.65977887 0 3930
0.06150000 0.06148310 29456.12524056 0 -48.35581816 0 8934.36145791 0 3441.56127496 0 -1466.56770087 0 4083
0.06250000 0.06249100 30675.51103186 0 -799.32379755 0 7799.40419425 0 2497.15552249 0 -3374.44334944 0 4303
0.06350000 0.06350600 31022.06029390 0 -1040.34245832 0 6653.92568151 0 781.04312726 0 -2824.17977421 0 4470
0.06450000 0.06451750 32366.21730831 0 -991.15449479 0 5310.85901022 0 -1028.06429553 0 -2071.89922404 0 4479
0.06550000 0.06550280 32150.73403380 0 -322.80900769 0 5784.88849220 0 -925.54843680 0 -1959.14425656 0 4636
0.06650000 0.06648880 33548.62135870 0 -304.35635545 0 6557.40221368 0 676.61523384 0 -1642.33775635 0 4653
0.06750000 0.06749660 32901.49709612 0 461.55573186 0 7442.45733029 0 543.67655391 0 -1385.87106927 0 5220
0.06850000 0.06852730 32801.79252413 0 1263.34797631 0 7170.87196798 0 294.23414947 0 464.02417876 0 5029
0.06950000 0.06949320 31609.49670110 0 1133.30488800 0 9180.29565525 0 821.77924551 0 3389.60698728 0 5040
0.07050000 0.07048030 31001.26509004 0 1122.57231468 0 10027.88568297 0 838.60200340 0 8318.46372306 0 5475
0.07150000 0.07148790 30437.65886239 0 818.23619240 0 11765.36430711 0 1984.13222313 0 7684.19876491 0 5509
0.07250000 0.07249820 29332.81530204 0 1007.66813478 0 11306.40853777 0 -192.77041565 0 7694.83242050 0 5916
0.07350000 0.07351270 29521.77064083 0 998.17765337 0 14031.25468147 0 -1762.03944599 0 8543.91745477 0 5721
0.07450000 0.07449140 27698.64949877 0 1120.48717397 0 13131.55299696 0 -2093.12157262 0 4688.94752723 0 6028
0.07550000 0.07549160 27791.49727381 0 704.29421220 0 15014.81162043 0 -800.37142619 0 7196.80414922 0 6183
0.07650000 0.07648840 26807.04108279 0 -57.03967048 0 13023.75515645 0 -70.89781914 0 1563.14737195 0 6330
0.07750000 0.07749960 27252.62047777 0 -233.32331129 0 12837.49757384 0 2415.14373476 0 2645.91429427 0 6583
0.07850000 0.07848650 27571.06811298 0 -140.68124016 0 12876.27781886 0 2107.25107059 0 1591.15907357 0 6549
0.07950000 0.07947320 27032.41612995 0 365.39758518 0 10244.69535427 0 2977.64837864 0 2802.93494433 0 6828
0.08050000 0.08048110 26563.79340097 0 663.66150794 0 9888.36672610 0 2191.87068929 0 3276.13261815 0 7147
0.08150000 0.08149960 25688.37152204 0 628.08709651 0 9762.69625093 0 2039.67227839 0 6690.63764680 0 7386
0.08250000 0.08250610 25156.91355548 0 674.94374908 0 8412.34563796 0 1590.05748980 0 6753.03449901 0 7227
0.08350000 0.08350160 24667.15840313 0 539.45681362 0 8816.36834719 0 248.24077887 0 6927.07349427 0 7798
0.08450000 0.08449610 24221.12938213 0 712.69097830 0 8172.52635462 0 -945.53656193 0 6099.85152568 0 7371
0.08550000 0.08548940 23612.33573853 0 706.32989405 0 9357.86421485 0 -1585.77480187 0 4533.82654714 0 8256
0.08650000 0.08650700 23272.64327344 0 702.56764825 0 9894.23434578 0 -2289.09107746 0 4529.00430798 0 8037
0.08750000 0.08749060 22746.58081923 0 527.26295571 0 10343.56811810 0 -1634.23324718 0 433.08203949 0 8155
0.08850000 0.08849210 22765.91473849 0 253.12933788 0 11224.31806548 0 52.74956372 0 1077.03419044 0 8718
0.08950000 0.08949900 22144.30675307 0 -54.76445036 0 10391.93663820 0 1175.70462256 0 -524.20662277 0 8571
0.09050000 0.09049190 22310.89319690 0 -11.46872353 0 8907.41761811 0 2174.35775545 0 -1683.35489087 0 8932
0.09150000 0.09150830 22277.39605772 0 203.12305497 0 8400.35186363 0 1315.63948351 0 -1100.40687551 0 9285
0.09250000 0.09250820 21449.29731837 0 524.09084407 0 5852.32115593 0 1394.45892643 0 -2521.26671831 0 9204
0.09350000 0.09350330 20683.58419057 0 737.82732146 0 5757.37137921 0 275.49261251 0 369.46670075 0 9349
0.09450000 0.09448040 20138.86225615 0 743.87254342 0 5121.52148931 0 787.94713494 0 -948.38269469 0 9564
0.09550000 0.09549270 19601.10952518 0 346.72911245 0 5235.91759180 0 1307.83847190 0 1358.60125060 0 10155
0.09650000 0.09649430 19060.65903803 0 166.91804303 0 4271.44727778 0 1204.33455997 0 1310.55870938 0 9913
0.09750000 0.09749140 19056.38759076 0 229.49249752 0 4447.76812514 0 1518.09484382 0 2408.11832805 0 10476
0.09850000 0.09850240 18826.06665728 0 323.03044851 0 4921.23557458 0 791.59247797 0 2089.96294976 0 10575
0.09950000 0.09950330 18389.92940892 0 265.92906686 0 4108.55900803 0 -221.65776396 0 2850.55034082 0 10882
0.10050000 0.10051200 18378.12672565 0 72.77478300 0 4641.10731772 0 78.95466795 0 2588.67690074 0 10875
0.10150000 0.10150300 18609.68413071 0 89.31989681 0 3956.55168820 0 -156.42489557 0 2711.66086039 0 11118
0.10250000 0.10250800 18333.27652923 0 109.84880964 0 3427.76899651 0 202.76223008 0 2233.14635877 0 11575
0.10350000 0.10349800 17934.00861527 0 331.83749836 0 3733.66082485 0 252.62463266 0 1426.79827859 0 11364
0.10450000 0.10450100 17916.02357410 0 399.59164471 0 3288.14887378 0 766.31000635 0 2372.83392541 0 12093
0.10550000 0.10551000 17222.81264352 0 233.68750837 0 3271.73752371 0 961.08013376 0 1921.53303921 0 12067
0.10650000 0.10649700 17301.83441816 0 216.52415877 0 3503.68835155 0 51.94068649 0 3170.49298258 0 12054
0.10750000 0.10749900 17110.85576224 0 107.21669887 0 4137.69477473 0 859.97385263 0 2936.15913679 0 12807
0.10850000 0.10850100 16891.10104045 0 332.10052959 0 3818.34788746 0 -364.76810874 0 4270.64919157 0 12736
0.10950000 0.10950300 16766.77944336 0 345.81749567 0 4149.35132954 0 -32.47446477 0 3943.59121791 0 12933
0.11050000 0.11050200 16492.28275251 0 215.85196786 0 3970.36644795 0 -275.74889934 0 3425.79064198 0 13428
0.11150000 0.11150900 16380.55068424 0 124.07655090 0 4158.84967940 0 252.26268370 0 3361.69645151 0 13453
0.11250000 0.11250000 16014.55509644 0 -60.93343189 0 3604.01115932 0 184.98626501 0 2289.36085308 0 13668
0.11350000 0.11349100 16200.58786604 0 25.68511173 0 3564.89369478 0 107.26795623 0 1857.85475282 0 13791
0.11450000 0.11448600 16258.70203032 0 191.96895725 0 3102.88046843 0 -107.87776154 0 1006.05622546 0 14205
0.11550000 0.11549300 15929.01374438 0 360.02567820 0 3577.69679596 0 -439.15311495 0 1036.49815577 0 14776
0.11650000 0.11649800 15688.12659922 0 474.72303013 0 3611.20517579 0 -1051.15933652 0 913.44450409 0 14553
0.11750000 0.11747300 15483.20953639 0 320.17869542 0 4458.07580186 0 -470.96752872 0 1185.40530414 0 14568
0.11850000 0.11849100 15057.63849971 0 327.76613466 0 4473.40804946 0 -283.94895405 0 232.09695629 0 16015
0.11950000 0.11950300 15060.11144287 0 99.60329372 0 4887.69347280 0 -191.05059608 0 -31.38974198 0 15270
0.12050000 0.12050700 14993.56679055 0 115.88773684 0 4611.91534777 0 -172.50464644 0 -407.56688640 0 15999
0.12150000 0.12150000 15016.49771804 0 328.86209811 0 5048.76075713 0 -444.16419705 0 -1283.08655899 0 15670
0.12250000 0.12250700 14653.87432546 0 181.52639272 0 4742.28441495 0 -86.96599214 0 -566.70639912 0 16887
0.12350000 0.12352200 14663.76609810 0 39.50672828 0 4391.76720320 0 -563.28362098 0 -1512.15978024 0 16407
0.12450000 0.12449800 14754.59055601 0 -9.23858967 0 4461.50420034 0 72.16576454 0 -1447.42487268 0 16306
0.12550000 0.12549900 14731.65962852 0 149.47817342 0 4856.46694507 0 -31.51204026 0 -2216.00436641 0 17523
0.12650000 0.12650100 14482.45440181 0 254.55240426 0 4456.52459206 0 -104.63269808 0 -2099.88844436 0 17154
0.12750000 0.12750600 14148.04504256 0 532.12228902 0 5071.34322444 0 -231.49558148 0 -1697.07972541 0 18007
0.12850000 0.12850300 13743.49402275 0 502.65717126 0 4595.57144160 0 60.94826955 0 -2011.90787109 0 17496
0.12950000 0.12949900 13372.66495514 0 385.25531876 0 5395.64723868 0 330.75502369 0 -1257.36795012 0 18405
0.13050000 0.13049000 13147.51472100 0 124.46884961 0 4395.27428623 0 641.51855006 0 -890.15612391 0 18100
0.13150000 0.13148800 13286.78638355 0 -28.81113670 0 5040.86982031 0 932.34341017 0 -102.38647884 0 19059
0.13250000 0.13249300 13072.20236110 0 -102.87758287 0 4021.90483155 0 988.80182659 0 -243.19035450 0 18957
0.13350000 0.13349100 13094.79606907 0 8.31644041 0 3807.12971803 0 711.94684722 0 105.29061336 0 19468
0.13450000 0.13450700 13108.73447597 0 138.31957944 0 3724.31984410 0 571.43196869 0 -249.72229664 0 19953
0.13550000 0.13551000 12709.35415550 0 359.18712565 0 3016.49606757 0 -70.86409718 0 -87.42708363 0 19956
0.13650000 0.13649900 12372.35944659 0 412.65103273 0 2628.76106125 0 -55.33210322 0 -557.27324503 0 19723
0.13750000 0.13749600 12224.09526345 0 293.99921987 0 2839.82676003 0 -102.44054637 0 -1214.08020415 0 20946
0.13850000 0.13851100 11811.56338162 0 276.05464504 0 2535.11520001 0 -55.24701150 0 -1433.29537471 0 20955
0.13950000 0.13949800 11701.06778493 0 205.28463210 0 2616.09284788 0 -201.37963004 0 -1276.71311003 0 20506
0.14050000 0.14048300 11579.89357005 0 229.99045835 0 2953.96432755 0 -155.44920709 0 -662.25979879 0 21447
0.14150000 0.14148400 11454.11068837 0 264.02152843 0 3396.27269316 0 -304.31026878 0 -867.61299887 0 21771
0.14250000 0.14249400 11404.42701214 0 152.42322391 0 3734.67248342 0 -72.55941213 0 254.59961499 0 22470
0.14350000 0.14350900 11306.40853777 0 155.01082171 0 4313.82453103 0 132.62394171 0 580.22215756 0 22519
0.14450000 0.14449900 11451.18811918 0 135.08676829 0 4438.29225658 0 0.06867689 0 1107.56379783 0 22218
0.14550000 0.14550500 11246.15864985 0 38.87736424 0 5032.32692576 0 142.75626428 0 1420.44731092 0 23559
0.14650000 0.14650700 11281.22948013 0 86.27278121 0 4250.11252269 0 287.35824342 0 1067.37847146 0 23044
0.14750000 0.14750500 11170.84628995 0 40.61067259 0 4806.04138589 0 219.49731089 0 1725.00150183 0 23649
0.14850000 0.14849900 10977.25980306 0 92.21279068 0 3499.36070102 0 304.79361677 0 90.78961189 0 23640
0.14950000 0.14949500 11015.42181229 0 123.22563364 0 4496.46262411 0 206.28729815 0 754.74674894 0 24457
0.15050000 0.15050000 10650.11190419 0 203.07247204 0 3202.59628107 0 -146.60281496 0 -641.18245461 0 24591
0.15150000 0.15149900 10546.50682640 0 265.33331237 0 3718.82316589 0 -130.31061579 0 -412.81402216 0 25020
0.15250000 0.15250500 10330.40531610 0 252.57967006 0 3287.53063799 0 -235.21848500 0 -1077.70750542 0 25297
0.15350000 0.15350100 10140.88794477 0 172.15843440 0 3688.84435039 0 -10.74099257 0 -744.78978052 0 25452
0.15450000 0.15450400 10046.57888514 0 104.56817674 0 3306.95448245 0 217.08619131 0 -1036.57571626 0 26061
0.15550000 0.15549900 10011.09215078 0 43.38419075 0 3533.28498492 0 188.09093275 0 -727.45669710 0 26128
0.15650000 0.15649500 9966.69158039 0 25.02506072 0 3258.96814448 0 588.24460999 0 -188.20446332 0 26331
0.15750000 0.15749700 10033.10134491 0 -31.41537066 0 3120.68565919 0 600.70149913 0 189.82311702 0 27345
0.15850000 0.15849900 9992.03924779 0 -34.31793149 0 3021.20590022 0 587.17562410 0 515.88741717 0 26980
0.15950000 0.15949700 9975.12206844 0 -58.69092207 0 2669.27236649 0 387.13587963 0 299.52175157 0 27777
0.16050000 0.16050000 10058.57265947 0 78.76886000 0 2820.77385704 0 -72.57593588 0 648.88567255 0 28224
0.16150000 0.16150500 9924.57286211 0 170.43074638 0 2654.46842947 0 -343.16582617 0 403.31454823 0 28075
0.16250000 0.16249700 9869.51615482 0 321.42640765 0 2986.86571224 0 -410.96156292 0 136.68518882 0 28590
0.16350000 0.16349900 9525.97938718 0 264.66336959 0 2660.93180364 0 -487.17429894 0 157.36011771 0 29163
0.16450000 0.16449100 9403.52373812 0 231.21793741 0 2847.48164317 0 175.71160410 0 -371.18202405 0 28996
0.16550000 0.16550500 9244.56969613 0 87.14134629 0 2778.67762005 0 421.63343672 0 -435.64041160 0 30777
0.16650000 0.16650700 9195.63914350 0 43.98028246 0 2223.00729181 0 649.52526558 0 -739.03906361 0 29211
0.16750000 0.16749900 9083.35628335 0 48.07176692 0 2081.09407634 0 653.25378943 0 -471.41378255 0 30922
0.16850000 0.16850800 8933.01257982 0 96.70950060 0 1825.05453399 0 391.31964983 0 -703.09820696 0 30867
0.16950000 0.16949900 8781.36496081 0 176.19720021 0 1543.37506732 0 111.16531466 0 -506.15188957 0 30852
0.17050000 0.17049200 8755.53394543 0 188.22806869 0 1653.54468513 0 -117.99760698 0 -622.72867830 0 31257
0.17150000 0.17149500 8500.57350555 0 195.52774727 0 1829.16861215 0 -318.28464577 0 -500.25392013 0 32608
0.17250000 0.17250900 8441.31279490 0 206.27380937 0 2125.73070039 0 -248.76346913 0 -44.66079145 0 32361
0.17350000 0.17350400 8301.35545265 0 133.33322678 0 2205.76413359 0 -121.72163457 0 -276.64815140 0 32508
0.17450000 0.17449800 8303.47993563 0 92.58024755 0 2530.18055434 0 308.87397298 0 513.81913743 0 32791
0.17550000 0.17549800 8243.19632576 0 40.38035165 0 2350.34138330 0 487.05852024 0 353.27679150 0 33633
0.17650000 0.17650100 8174.20121158 0 37.80489376 0 2283.43703014 0 588.71334512 0 851.83112524 0 33984
0.17750000 0.17750300 8138.41097965 0 45.41043045 0 1812.73478078 0 366.05516325 0 629.19654873 0 34069
