### header ###
fiducial parameters:
Omega_m = 0.31
Omega_nu = 0
Omega_de = 0.69
Omega_k = 0
H_0 = 100
w_de = -1
zeff = 0
beta = 0
fgrowth = 0
b_1 = 2
gamma = 0.55
Lx = 3500 Ly = 3500 Lz = 3500
nx = 700 ny = 700 nz = 700
xoffset = 857.220397 yoffset = 15.9954215 zoffset = 262.898189
bins = 400 dk = 0.001
kx_ny = 0.628318531 ky_ny = 0.628318531 kz_ny = 0.628318531
############################
A(data) = 3.08004337 (not used)
A(ran) = 3.07835066 (used)
Ngal = 187293
weighted Ngal = 0
Nran = 9360983
weighted Nran = 0
SN(data) = 3447.83738
SN(ran) = 69.1281868
SN(data+ran) = 3516.96556
############################
13 columns: k_central k_mean P_0(k) sigma^{lin}_{P_0(k)} P^img_1(k) sigma^{lin}_{P_1(k)} P_2(k) sigma^{lin}_{P_2(k)} P^img_3(k) sigma^{lin}_{P_3(k)} P_4(k) sigma^{lin}_{P_4(k)} N_modes
### header ###
0.00050000 0 0 0 0 0 0 0 0 0 0 0 0
0.00150000 0.00179520 3699.72530030 0 -6617.68582355 0 -10216.03169491 0 35409.28627420 0 -8564.43164235 0 3
0.00250000 0.00253879 11818.08295904 0 -13417.62755806 0 4057.22295615 0 13273.52241569 0 20354.34553066 0 6
0.00350000 0.00331552 22862.13470875 0 -18259.20064091 0 6053.19158450 0 13129.75449284 0 -34035.34153535 0 7
0.00450000 0.00420575 38483.37943611 0 -24758.43248707 0 -3414.72984166 0 36260.65316057 0 4135.24431287 0 24
0.00550000 0.00557378 62640.88673510 0 -21285.74585023 0 -15551.32787982 0 43027.52490062 0 13277.68145646 0 45
0.00650000 0.00659388 84971.45107078 0 -25815.50328181 0 -39855.07604482 0 26613.81429672 0 -15006.94316492 0 40
0.00750000 0.00754703 88876.67794774 0 -6315.81814817 0 -19582.11282545 0 5225.08160449 0 14045.97993392 0 57
0.00850000 0.00846663 96220.75710284 0 2464.59135732 0 -34802.74076076 0 -15929.35096390 0 12973.50944768 0 75
0.00950000 0.00948925 86937.89050966 0 7501.62811574 0 -5475.03995480 0 -23679.33001689 0 42628.48179967 0 112
0.01050000 0.01054430 95388.38691621 0 12864.81235511 0 -12241.85549160 0 -18603.61417931 0 7520.59109352 0 105
0.01150000 0.01145670 83619.08838134 0 7308.27768251 0 4792.01305378 0 -9306.50568166 0 13775.41747083 0 144
0.01250000 0.01249090 82633.39571874 0 3627.88630148 0 6391.23167393 0 1561.62988410 0 -9878.26138109 0 169
0.01350000 0.01339930 86409.80473832 0 -5081.98812069 0 6230.04074245 0 -2295.49824838 0 -10607.38619076 0 180
0.01450000 0.01448870 88047.23033030 0 1829.16861215 0 3770.14797713 0 -12081.90103170 0 -25870.24525087 0 267
0.01550000 0.01550050 86623.15228919 0 651.81161394 0 30940.11595007 0 -10172.87883675 0 -48074.46467233 0 238
0.01650000 0.01653350 86058.19718345 0 9102.78012781 0 28081.39365616 0 -24689.07767206 0 -24903.99891403 0 315
0.01750000 0.01747870 84433.24871378 0 9635.68813832 0 39928.47749409 0 -9018.08182456 0 -18682.29873443 0 297
0.01850000 0.01844180 64586.30615711 0 7356.56751806 0 37532.42038427 0 2864.76976400 0 -8814.79465609 0 388
0.01950000 0.01947590 78595.19194363 0 -807.94200446 0 48176.86700049 0 23189.91208406 0 -23371.33618686 0 399
0.02050000 0.02045430 74734.36563705 0 338.31885757 0 38409.30354780 0 24040.49212488 0 -9933.55414204 0 462
0.02150000 0.02154770 70713.13524455 0 -952.23598976 0 28456.26935804 0 18001.34011315 0 -2565.70101065 0 571
0.02250000 0.02255340 68267.95649104 0 -1641.77572382 0 18941.95776632 0 9719.44222692 0 7351.92512930 0 510
0.02350000 0.02348930 73424.82982689 0 -2370.61951721 0 17488.20440728 0 -1084.89140530 0 6521.09491182 0 555
0.02450000 0.02439640 73172.81443750 0 2420.47180321 0 16071.32038263 0 -2609.19108833 0 -6497.47830464 0 592
0.02550000 0.02547300 73726.30407950 0 2078.87966814 0 16301.52890961 0 -14107.01666739 0 -9223.36982886 0 837
0.02650000 0.02652900 70921.98653513 0 4103.27590219 0 15164.64949467 0 -13927.39106871 0 -29631.25457895 0 723
0.02750000 0.02749970 70201.46082327 0 4593.25586755 0 19998.24171551 0 -10970.09950855 0 -25654.19994382 0 826
0.02850000 0.02848090 64828.54218037 0 1486.54233722 0 13195.96192565 0 -3427.10579812 0 -49132.88434516 0 831
0.02950000 0.02946900 64913.52149989 0 -942.36894655 0 13261.15769989 0 640.70247882 0 -43371.37640649 0 996
0.03050000 0.03053250 64710.51534769 0 -2409.64705655 0 4293.54639711 0 4822.19420099 0 -53241.67940686 0 1041
0.03150000 0.03150510 66834.21149030 0 22.82785072 0 6253.64610898 0 3959.67658910 0 -46598.79204437 0 1036
0.03250000 0.03246190 65676.64927802 0 3322.32045200 0 5241.57163911 0 2895.97381043 0 -33704.75399735 0 1059
0.03350000 0.03345080 60248.53904002 0 5669.60437830 0 12888.97975418 0 4139.04365282 0 -20150.44012640 0 1302
0.03450000 0.03451200 56937.60536721 0 6234.22226452 0 17989.64983639 0 1596.98173065 0 3234.49724784 0 1339
0.03550000 0.03553350 54932.83530934 0 3588.28548895 0 26207.12755328 0 3991.21785505 0 16123.36459552 0 1365
0.03650000 0.03647120 51311.77208286 0 2446.02180232 0 23964.95495197 0 8707.21038794 0 20688.08045087 0 1308
0.03750000 0.03744890 51539.84488619 0 399.49385104 0 26215.55804132 0 7540.80178354 0 24889.83569411 0 1579
0.03850000 0.03847530 52799.92183313 0 -600.74421360 0 25325.63572295 0 7603.62578047 0 27393.12861190 0 1662
0.03950000 0.03950240 51448.23358273 0 -363.12247747 0 21384.55117016 0 4283.75579033 0 18271.00332418 0 1683
0.04050000 0.04050350 51441.03956626 0 195.34789686 0 16038.83490202 0 2463.48977355 0 11208.31137884 0 1822
0.04150000 0.04152450 49763.48485117 0 952.10672228 0 8731.72624718 0 659.29676326 0 1607.27816672 0 1887
0.04250000 0.04250150 47793.56081056 0 2534.72177724 0 11212.51538221 0 -366.79704620 0 -4165.92004871 0 1920
0.04350000 0.04349210 46139.61146201 0 1148.74954210 0 4340.08269114 0 -1045.52889457 0 -5180.56862760 0 2005
0.04450000 0.04448520 44883.80596234 0 1355.76860662 0 7801.46123334 0 -2364.40343736 0 -3735.00970294 0 2151
0.04550000 0.04548030 46017.87521459 0 102.46797356 0 8460.83780522 0 -1235.89830722 0 -3314.55316235 0 2274
0.04650000 0.04648670 45286.44607152 0 1074.80629347 0 8418.40434871 0 -1042.32193692 0 404.91184470 0 2311
0.04750000 0.04749250 43717.36363599 0 360.10885901 0 11961.96328840 0 2216.08305096 0 821.60276729 0 2568
0.04850000 0.04851840 45126.26679861 0 1052.71167039 0 11242.44923511 0 990.38226209 0 5267.31272929 0 2493
0.04950000 0.04949480 41846.13250880 0 771.87637659 0 12207.12188084 0 2852.06782867 0 1427.16922006 0 2644
0.05050000 0.05050630 42618.81484005 0 1463.12806175 0 11851.24287870 0 2781.95989006 0 2549.77300856 0 2829
0.05150000 0.05149060 39518.75577495 0 1146.17543309 0 11206.02952674 0 239.14259617 0 -1402.05760633 0 2784
0.05250000 0.05249300 39249.87940946 0 1782.49743032 0 9884.92708698 0 -629.79904761 0 147.99103533 0 3055
0.05350000 0.05348950 36652.16502553 0 1803.78722280 0 11075.08718637 0 -1561.30390523 0 -4208.73568735 0 3009
0.05450000 0.05448610 36342.59750440 0 1269.92375698 0 9372.43209820 0 -885.40919710 0 -4542.36944169 0 3336
0.05550000 0.05550870 35184.47325958 0 285.06627473 0 11388.57769461 0 -240.16999165 0 -4558.58970070 0 3349
0.05650000 0.05647670 35786.41010623 0 228.00423536 0 9558.45362715 0 -1158.10176351 0 -6183.88663054 0 3324
0.05750000 0.05747970 35995.14899030 0 -326.15647348 0 11500.64698240 0 890.72939710 0 -4858.09683943 0 3639
0.05850000 0.05849280 37013.77675954 0 -118.04931398 0 11239.68403503 0 -1247.46493682 0 -6520.69024840 0 3846
0.05950000 0.05951020 37076.83681015 0 228.17621732 0 11366.32120616 0 1846.28812322 0 -2561.05862190 0 3787
0.06050000 0.06049470 36812.34429844 0 -444.27772762 0 9738.67498032 0 227.88620853 0 -7937.96769581 0 3930
0.06150000 0.06148310 36667.45231052 0 480.47711924 0 9211.70203340 0 1874.72696957 0 -3885.17355606 0 4083
0.06250000 0.06249100 35830.13623757 0 929.67825188 0 9375.53451780 0 1546.41004301 0 -6296.57415412 0 4303
0.06350000 0.06350600 34798.24450047 0 1049.95096657 0 7578.23315047 0 1067.34362545 0 -3833.35415619 0 4470
0.06450000 0.06451750 33729.82064849 0 1053.89418685 0 7525.81799611 0 814.74147409 0 -5283.85896716 0 4479
0.06550000 0.06550280 32652.06705640 0 836.58205846 0 9088.09983796 0 1845.59120287 0 -1745.80794633 0 4636
0.06650000 0.06648880 31904.90100231 0 908.48737712 0 8237.69964756 0 188.75862740 0 -215.72494850 0 4653
0.06750000 0.06749660 31769.22634799 0 251.09927635 0 10686.65525971 0 -690.80880352 0 636.58840065 0 5220
0.06850000 0.06852730 32025.17596513 0 866.83064958 0 12653.82534089 0 -2376.55458080 0 2238.37326136 0 5029
0.06950000 0.06949320 31228.55104782 0 594.67313814 0 13152.23579430 0 -2000.80210816 0 61.47916548 0 5040
0.07050000 0.07048030 31044.54159536 0 1081.03024178 0 14861.03951843 0 -1042.35453481 0 1806.95708631 0 5475
0.07150000 0.07148790 30248.70352360 0 998.84984428 0 13420.32531424 0 245.95443051 0 -1211.05646911 0 5509
0.07250000 0.07249820 29383.84785636 0 265.73572767 0 12834.12537862 0 1704.65592401 0 -3277.31288648 0 5916
0.07350000 0.07351270 29082.48601026 0 209.96861126 0 10981.80102596 0 2600.42338076 0 -4598.58393600 0 5721
0.07450000 0.07449140 28056.43941154 0 -281.13317104 0 7399.85526402 0 3555.38410426 0 -5931.47781838 0 6028
0.07550000 0.07549160 27490.24783422 0 538.46876042 0 6230.01826114 0 3122.39423810 0 -5783.70822387 0 6183
0.07650000 0.07648840 27332.09187843 0 415.04529133 0 4071.15012240 0 1239.10189268 0 -7010.63649181 0 6330
0.07750000 0.07749960 26449.70079605 0 628.88967897 0 4623.87540015 0 -569.26814343 0 -4361.72094380 0 6583
0.07850000 0.07848650 26801.53316393 0 607.31549802 0 4629.77674178 0 -1660.80614550 0 -3209.95890730 0 6549
0.07950000 0.07947320 25982.65175818 0 595.24303913 0 6512.33844490 0 -1771.98742188 0 -2523.27879479 0 6828
0.08050000 0.08048110 26068.53032976 0 689.90955146 0 7286.29096969 0 -1303.28600835 0 -2379.29729958 0 7147
0.08150000 0.08149960 25185.12758881 0 677.69995664 0 8221.22085358 0 69.08751234 0 -1259.29010139 0 7386
0.08250000 0.08250610 24660.75123221 0 992.55395581 0 8156.11500455 0 1442.77124327 0 352.87662433 0 7227
0.08350000 0.08350160 23771.95297891 0 862.76940247 0 8048.63190226 0 2943.92642645 0 2450.65295042 0 7798
0.08450000 0.08449610 23341.54846243 0 484.98799237 0 6631.24204834 0 3194.04214586 0 3229.24786395 0 7371
0.08550000 0.08548940 22030.55136767 0 834.64079808 0 4935.55616361 0 2143.53589115 0 2864.17400951 0 8256
0.08650000 0.08650700 21484.48055516 0 617.72546466 0 5118.03688758 0 262.83563978 0 4214.74943549 0 8037
0.08750000 0.08749060 20935.93679949 0 717.28952851 0 4540.41356847 0 -953.76584233 0 2881.24855797 0 8155
0.08850000 0.08849210 20128.40845097 0 572.83480190 0 4708.15779933 0 -1269.73266592 0 2837.26389166 0 8718
0.08950000 0.08949900 19839.07410116 0 156.58676094 0 5093.59971289 0 -1288.48207134 0 1159.49560420 0 8571
0.09050000 0.09049190 19926.07673781 0 -64.52594386 0 5104.73919777 0 -373.27278508 0 -923.93765155 0 8932
0.09150000 0.09150830 19786.91748176 0 534.91671479 0 5597.46188191 0 -486.56280754 0 -1152.02057147 0 9285
0.09250000 0.09250820 19593.01625665 0 506.56779365 0 6008.76853281 0 -542.09724248 0 -1444.74959780 0 9204
0.09350000 0.09350330 18872.94017083 0 480.06009109 0 6508.97749034 0 -595.37455475 0 -536.73207988 0 9349
0.09450000 0.09448040 19118.99801533 0 446.47864703 0 7293.72103982 0 212.52810744 0 721.40023448 0 9564
0.09550000 0.09549270 18871.92851226 0 -441.35066217 0 7800.84299755 0 1296.45169271 0 478.36387690 0 10155
0.09650000 0.09649430 19058.74812741 0 -220.24256603 0 6938.86493689 0 1172.51227775 0 2315.98995466 0 9913
0.09750000 0.09749140 19285.24723964 0 146.36900943 0 6911.24665805 0 914.75628803 0 809.19870921 0 10476
0.09850000 0.09850240 18839.55543816 0 342.61840648 0 5789.39599314 0 855.61810047 0 990.15407688 0 10575
0.09950000 0.09950330 18196.14059031 0 636.96945871 0 5391.88162069 0 -372.13860343 0 326.94331903 0 10882
0.10050000 0.10051200 18160.50772750 0 457.22583320 0 5418.12854015 0 -17.35196772 0 312.20008153 0 10875
0.10150000 0.10150300 17186.73015467 0 278.95922919 0 4971.57120856 0 183.28780269 0 -55.87738719 0 11118
0.10250000 0.10250800 17314.31154047 0 277.62046769 0 4817.12466751 0 671.16239417 0 918.62644408 0 11575
0.10350000 0.10349800 16921.11357790 0 327.79198816 0 4921.08944612 0 295.82470155 0 589.35518628 0 11364
0.10450000 0.10450100 16851.42154337 0 147.43237499 0 4988.29729684 0 963.34512488 0 2559.86711292 0 12093
0.10550000 0.10551000 16746.09664602 0 252.77413331 0 5561.69413128 0 508.47083582 0 2252.09809591 0 12067
0.10650000 0.10649700 16546.01306300 0 255.92713584 0 4968.69360197 0 127.27564010 0 3146.15697375 0 12054
0.10750000 0.10749900 16452.15362940 0 250.75194025 0 5968.14482106 0 -177.48875098 0 2432.97140682 0 12807
0.10850000 0.10850100 16227.45302129 0 67.76651106 0 5510.21195093 0 427.86188129 0 2825.32632058 0 12736
0.10950000 0.10950300 16308.94773909 0 20.39110246 0 5665.18680256 0 -20.28397906 0 2180.74244507 0 12933
0.11050000 0.11050200 16299.73040549 0 -126.60120105 0 4342.39826519 0 829.26102264 0 1480.48362648 0 13428
0.11150000 0.11150900 16386.84544865 0 -50.66993093 0 4337.05895609 0 740.68469488 0 1485.10353393 0 13453
0.11250000 0.11250000 16354.58478106 0 118.23478471 0 3510.24165092 0 871.04252140 0 1509.94537204 0 13668
0.11350000 0.11349100 15803.56808222 0 469.64900039 0 3380.54702279 0 861.00462030 0 1633.48012358 0 13791
0.11450000 0.11448600 15594.94160466 0 406.14157189 0 3077.43163518 0 576.33738867 0 1816.96126546 0 14205
0.11550000 0.11549300 15030.66093796 0 456.87512490 0 2802.37291179 0 82.90373337 0 1969.29456417 0 14776
0.11650000 0.11649800 14898.47088536 0 327.45364457 0 3198.35855574 0 410.44898925 0 2823.55029777 0 14553
0.11750000 0.11747300 14522.13389889 0 58.44598829 0 3352.43415531 0 191.27091284 0 2666.09126233 0 14568
0.11850000 0.11849100 14763.47067008 0 55.25982584 0 3168.96425408 0 -39.90959320 0 3045.67679686 0 16015
0.11950000 0.11950300 14707.37982294 0 53.58541851 0 3608.27136595 0 -96.54606153 0 2330.87257623 0 15270
0.12050000 0.12050700 14468.06636887 0 292.35583673 0 3159.81436439 0 -182.82468788 0 2302.83839331 0 15999
0.12150000 0.12150000 14385.67239902 0 302.10710124 0 3663.22690737 0 -323.02482819 0 1953.60261574 0 15670
0.12250000 0.12250700 13804.75556924 0 317.06728330 0 3011.16799912 0 -363.55524253 0 1579.42383421 0 16887
0.12350000 0.12352200 13888.04879115 0 135.91070799 0 3365.95665814 0 -46.30900807 0 954.61788365 0 16407
0.12450000 0.12449800 13619.84686471 0 -91.44898846 0 3003.76041029 0 212.04588352 0 570.59116802 0 16306
0.12550000 0.12549900 13841.06287110 0 6.63491774 0 2958.50555044 0 -47.00446713 0 379.15614168 0 17523
0.12650000 0.12650100 13815.43418743 0 -38.34051077 0 2554.43787862 0 200.17238415 0 46.58451642 0 17154
0.12750000 0.12750600 13732.14096552 0 141.72100035 0 2793.09937494 0 -140.46092340 0 285.27197864 0 18007
0.12850000 0.12850300 13627.60291372 0 250.21351308 0 2981.09925841 0 -77.20506067 0 -1.53520311 0 17496
0.12950000 0.12949900 13537.45289485 0 211.96832303 0 2974.07385171 0 -48.02174602 0 -46.50032394 0 18405
0.13050000 0.13049000 13262.05695195 0 262.47593896 0 3074.32921558 0 -161.89909248 0 -540.64382634 0 18100
0.13150000 0.13148800 13090.52462179 0 438.71922584 0 3199.67371188 0 -315.17435772 0 -462.11551627 0 19059
0.13250000 0.13249300 12625.72371406 0 395.65292069 0 3128.26185778 0 -288.54750426 0 -684.20379715 0 18957
0.13350000 0.13349100 12369.54928390 0 390.97568592 0 3332.56068482 0 -7.19106018 0 -780.64071197 0 19468
0.13450000 0.13450700 11990.62694776 0 329.23528772 0 2991.94648637 0 300.41650737 0 -869.07091127 0 19953
0.13550000 0.13551000 12029.63200580 0 -63.72482269 0 2861.17275577 0 454.32462125 0 -977.17337341 0 19956
0.13650000 0.13649900 11796.27609662 0 -204.60682087 0 2908.46217339 0 359.83233901 0 -1127.42602767 0 19723
0.13750000 0.13749600 12397.65091073 0 -128.58854810 0 2319.01368971 0 529.14126845 0 -701.02093471 0 20946
0.13850000 0.13851100 12210.26926305 0 7.62970409 0 2380.43260530 0 364.92547785 0 -274.97441851 0 20955
0.13950000 0.13949800 12231.62649944 0 262.71311669 0 2299.18518182 0 12.65011593 0 -22.20657996 0 20506
0.14050000 0.14048300 11899.91489636 0 190.04343378 0 2347.03663198 0 257.97405834 0 552.51058132 0 21447
0.14150000 0.14148400 11941.95493010 0 240.65221556 0 2684.79570515 0 105.24857333 0 414.07072691 0 21771
0.14250000 0.14249400 11641.15511654 0 215.80250899 0 2497.54894527 0 -158.10424879 0 573.59804209 0 22470
0.14350000 0.14350900 11582.81613924 0 192.68723483 0 2818.71681795 0 -304.87792165 0 366.22040082 0 22519
0.14450000 0.14449900 11446.24223286 0 221.61617355 0 2992.30618719 0 -404.89385966 0 142.26729598 0 22218
0.14550000 0.14550500 11269.76401638 0 140.67337170 0 2847.33551472 0 -260.77860070 0 -30.69417051 0 23559
0.14650000 0.14650700 11129.16595704 0 130.37581157 0 2975.19791678 0 -88.17312562 0 -596.02988469 0 23044
0.14750000 0.14750500 10970.95379800 0 82.43083919 0 2644.44176902 0 -91.05410440 0 -882.71706125 0 23649
0.14850000 0.14849900 10981.12658691 0 59.67234328 0 2652.69240666 0 75.51412958 0 -1164.05930840 0 23640
0.14950000 0.14949500 10799.99474103 0 147.29973531 0 2685.98721412 0 -92.17929354 0 -1200.01815009 0 24457
0.15050000 0.15050000 10904.76884650 0 136.19622052 0 2529.21385838 0 83.18598611 0 -1135.49681489 0 24591
0.15150000 0.15149900 10485.73986855 0 208.15774243 0 2590.27307315 0 242.18768845 0 -812.79459338 0 25020
0.15250000 0.15250500 10520.19246304 0 192.55796735 0 2652.10789282 0 475.55034202 0 -685.45600564 0 25297
0.15350000 0.15350100 10295.70542729 0 95.27553078 0 2375.64408809 0 586.92158540 0 -861.29912535 0 25452
0.15450000 0.15450400 10305.60844058 0 176.74911616 0 2200.93065378 0 353.89277916 0 43.69780490 0 26061
0.15550000 0.15549900 10043.44274359 0 245.77233197 0 2126.76484026 0 221.30143533 0 -221.38574021 0 26128
0.15650000 0.15649500 9761.50474195 0 354.98424634 0 1988.30250455 0 -101.77970852 0 173.26788663 0 26331
0.15750000 0.15749700 9603.67476504 0 303.20418875 0 2227.02020413 0 41.29331731 0 244.36163031 0 27345
0.15850000 0.15849900 9271.00770665 0 198.84149111 0 1888.83398623 0 38.64839219 0 419.24592251 0 26980
0.15950000 0.15949700 9190.35603766 0 42.60937269 0 2170.37856509 0 107.66992190 0 182.85840983 0 27777
0.16050000 0.16050000 9269.64758791 0 -22.21512285 0 1912.46183407 0 250.53499569 0 249.62000672 0 28224
0.16150000 0.16150500 9335.20306298 0 3.29423007 0 2263.90077917 0 21.87419392 0 248.19356814 0 28075
0.16250000 0.16249700 9263.75748693 0 84.86511451 0 1896.85981085 0 -226.57217646 0 251.57250775 0 28590
0.16350000 0.16349900 9175.03503071 0 142.82932851 0 2087.98459523 0 -131.23234915 0 338.64820864 0 29163
0.16450000 0.16449100 9096.58652926 0 267.38585520 0 2043.23556467 0 -225.06705333 0 14.45637609 0 28996
0.16550000 0.16550500 8792.86414651 0 212.34713296 0 2350.73480607 0 86.01323458 0 198.35252280 0 30777
0.16650000 0.16650700 8595.63568878 0 173.33308240 0 2039.22265236 0 14.40298300 0 -305.41859695 0 29211
0.16750000 0.16749900 8478.83408704 0 63.29812758 0 1943.17129187 0 280.01472629 0 -133.18597425 0 30922
0.16850000 0.16850800 8481.62176842 0 -6.02166156 0 1860.35017728 0 278.87604838 0 -193.39876802 0 30867
0.16950000 0.16949900 8388.04335108 0 -70.95750699 0 1655.20830144 0 336.65186907 0 -179.07368273 0 30852
0.17050000 0.17049200 8623.45629934 0 10.13769560 0 1639.85357254 0 294.36341695 0 329.99290757 0 31257
0.17150000 0.17149500 8476.56347559 0 27.05085080 0 1561.33762719 0 258.20786388 0 103.27055602 0 32608
0.17250000 0.17250900 8556.46202099 0 118.63045562 0 1670.79908400 0 -54.45555728 0 836.61690448 0 32361
0.17350000 0.17350400 8431.69079787 0 63.27204927 0 1588.43883610 0 177.32238935 0 710.76657889 0 32508
0.17450000 0.17449800 8449.42854473 0 83.25792627 0 1736.63557534 0 62.23532406 0 1081.33935967 0 32791
0.17550000 0.17549800 8468.08802494 0 48.12841980 0 1492.30879105 0 21.49740730 0 673.32397131 0 33633
0.17650000 0.17650100 8314.32716359 0 154.96810724 0 1645.60878572 0 73.81353153 0 847.80584821 0 33984
0.17750000 0.17750300 8227.15591717 0 172.78678678 0 1452.02229883 0 -16.43945169 0 507.94027710 0 34069
