### header ###
fiducial parameters:
Omega_m = 0.31
Omega_nu = 0
Omega_de = 0.69
Omega_k = 0
H_0 = 100
w_de = -1
zeff = 0
beta = 0
fgrowth = 0
b_1 = 2
gamma = 0.55
Lx = 3500 Ly = 3500 Lz = 3500
nx = 700 ny = 700 nz = 700
xoffset = 857.220397 yoffset = 15.9954215 zoffset = 262.898189
bins = 400 dk = 0.001
kx_ny = 0.628318531 ky_ny = 0.628318531 kz_ny = 0.628318531
############################
A(data) = 3.0898506 (not used)
A(ran) = 3.08811491 (used)
Ngal = 188850
weighted Ngal = 0
Nran = 9360983
weighted Nran = 0
SN(data) = 3451.79013
SN(ran) = 69.3474552
SN(data+ran) = 3521.13759
############################
13 columns: k_central k_mean P_0(k) sigma^{lin}_{P_0(k)} P^img_1(k) sigma^{lin}_{P_1(k)} P_2(k) sigma^{lin}_{P_2(k)} P^img_3(k) sigma^{lin}_{P_3(k)} P_4(k) sigma^{lin}_{P_4(k)} N_modes
### header ###
0.00050000 0 0 0 0 0 0 0 0 0 0 0 0
0.00150000 0.00179520 6054.67535039 0 -15783.33491091 0 -19766.79671696 0 22699.03286664 0 21768.30698612 0 3
0.00250000 0.00253879 12420.01980569 0 -17004.85642584 0 -7394.06632889 0 -27480.13124856 0 -4157.51204197 0 6
0.00350000 0.00331552 27314.55646329 0 -21827.43280896 0 -34919.30630884 0 12437.10559480 0 -23544.55461463 0 7
0.00450000 0.00420575 43445.67710782 0 -27286.11761694 0 -30248.81593011 0 -9651.22271763 0 1527.61567499 0 24
0.00550000 0.00557378 71910.71417343 0 -19713.85325201 0 -47324.26364255 0 -19064.48085928 0 2871.51415444 0 45
0.00650000 0.00659388 86170.26647124 0 -18426.34911728 0 -19866.27647592 0 -24066.79524759 0 11558.53633366 0 40
0.00750000 0.00754703 87129.65601113 0 -1952.80452954 0 -43792.33877636 0 -26738.69792635 0 5982.25183773 0 57
0.00850000 0.00846663 91324.77927044 0 857.33904410 0 -32587.99534723 0 -12681.92696772 0 9443.52921407 0 75
0.00950000 0.00948925 85256.73878633 0 -626.15033238 0 -37231.50816420 0 -10441.33929816 0 19014.01033750 0 112
0.01050000 0.01054430 81186.38675013 0 119.16775872 0 -29143.29793072 0 4132.02948676 0 11042.07339518 0 105
0.01150000 0.01145670 85419.27859590 0 -5932.18597938 0 -42968.06185826 0 8163.02800475 0 15120.24892429 0 144
0.01250000 0.01249090 81226.17865372 0 -6543.87971086 0 -35329.25284100 0 -141.98290751 0 353.30938939 0 169
0.01350000 0.01339930 91004.30831810 0 -7371.22532661 0 -39947.24938081 0 -9705.21156309 0 23204.74974303 0 180
0.01450000 0.01448870 89494.46411192 0 -2147.98718884 0 -37248.48154681 0 -18226.37794078 0 -7237.03443818 0 267
0.01550000 0.01550050 85832.26010376 0 3562.29710446 0 -27445.39763780 0 -22448.25394883 0 -21850.13892344 0 238
0.01650000 0.01653350 86385.97455877 0 3350.51200404 0 -18382.17335991 0 -24009.35552235 0 -17209.21145613 0 315
0.01750000 0.01747870 82507.83765007 0 4351.17721341 0 -11153.80546344 0 -23928.64765010 0 -19569.07367060 0 297
0.01850000 0.01844180 83527.02745185 0 2193.62423080 0 -5943.10065124 0 -20360.75270158 0 -26165.76195859 0 388
0.01950000 0.01947590 77411.32660864 0 3998.78281299 0 10730.11161544 0 -2385.87308026 0 -36269.42086814 0 399
0.02050000 0.02045430 73866.13777459 0 4467.04584115 0 2208.30452066 0 -12207.68391338 0 -33444.08330690 0 462
0.02150000 0.02154770 70554.52966273 0 4679.61778712 0 16321.53726791 0 -3324.28756588 0 -16948.87798520 0 571
0.02250000 0.02255340 66457.20006478 0 3996.55716415 0 5693.92914648 0 -1292.45002105 0 -24213.48573963 0 510
0.02350000 0.02348930 68279.87158081 0 2907.39431157 0 34068.16423549 0 9297.38951392 0 331.01468273 0 555
0.02450000 0.02439640 63376.58732544 0 1536.05740369 0 5176.01616405 0 2314.40502291 0 -14674.55712280 0 592
0.02550000 0.02547300 66768.00405749 0 1698.13634658 0 32460.52636794 0 3748.19498625 0 13502.38206457 0 837
0.02650000 0.02652900 64173.88668179 0 2122.07748890 0 18896.99516339 0 -3207.91310886 0 -889.57161007 0 723
0.02750000 0.02749970 64510.88139071 0 1302.15070263 0 34512.61956539 0 5405.79754629 0 21994.24406581 0 826
0.02850000 0.02848090 63607.80751098 0 -42.66366504 0 30672.92568219 0 -1030.09548112 0 7045.06660500 0 831
0.02950000 0.02946900 65154.85827109 0 -2311.26888135 0 18256.72769775 0 8545.38998002 0 4458.30061488 0 996
0.03050000 0.03053250 68685.32185268 0 -1428.39445099 0 25883.95884476 0 2937.66538399 0 4183.66903622 0 1041
0.03150000 0.03150510 66981.80123440 0 -199.50918576 0 11912.50442518 0 3018.54186600 0 -7939.68751538 0 1036
0.03250000 0.03246190 67821.02821797 0 702.70928045 0 18841.35394227 0 612.37603898 0 -2884.06996130 0 1059
0.03350000 0.03345080 66404.48141285 0 3203.67538354 0 12702.72217157 0 -1946.71209685 0 -8202.55013272 0 1302
0.03450000 0.03451200 62414.27521636 0 3942.12993331 0 13033.30970957 0 -1944.61009516 0 -4333.70924218 0 1339
0.03550000 0.03553350 59901.87737148 0 5174.54363881 0 17020.14371084 0 -136.32773613 0 -3852.85668521 0 1365
0.03650000 0.03647120 55715.97144577 0 4963.50042133 0 17257.32144126 0 2229.68423835 0 -3392.91173859 0 1308
0.03750000 0.03744890 51617.18056322 0 3758.49142232 0 20642.55581541 0 2063.71603031 0 -3720.61042936 0 1579
0.03850000 0.03847530 48554.66527156 0 2468.33449402 0 19905.61875348 0 1010.85935552 0 -2090.56994490 0 1662
0.03950000 0.03950240 46002.25071007 0 1771.21181698 0 23492.73521476 0 831.44845327 0 -2437.81612728 0 1683
0.04050000 0.04050350 46072.72959016 0 538.84307409 0 21951.30478002 0 -722.45573159 0 -2821.24596437 0 1822
0.04150000 0.04152450 45188.54000366 0 -62.95641180 0 24883.76574272 0 1163.47479456 0 4358.88829981 0 1887
0.04250000 0.04250150 45597.36247074 0 -544.61290011 0 23281.52338752 0 3094.42749908 0 1738.23174774 0 1920
0.04350000 0.04349210 46089.59056625 0 -148.80148625 0 19912.13833091 0 3066.80922024 0 1458.45195104 0 2005
0.04450000 0.04448520 47433.97239368 0 407.43312266 0 16499.13954946 0 2605.52663619 0 -2940.89145075 0 2151
0.04550000 0.04548030 45817.11719253 0 756.46094818 0 15165.43634022 0 2648.96051061 0 -773.31405582 0 2274
0.04650000 0.04648670 45882.87499931 0 406.10784993 0 13605.00920575 0 768.04443876 0 -3798.30580721 0 2311
0.04750000 0.04749250 44355.04575195 0 709.68073203 0 9261.49811613 0 769.74402515 0 -8799.69846215 0 2568
0.04850000 0.04851840 43282.80007873 0 1155.79743011 0 8715.92189226 0 592.15298425 0 -7782.03738887 0 2493
0.04950000 0.04949480 42103.99303657 0 1761.35376629 0 6834.88891763 0 674.35136678 0 -9573.28004546 0 2644
0.05050000 0.05050630 40782.65454314 0 1787.75805486 0 8748.48605742 0 1910.21370392 0 -5246.68613520 0 2829
0.05150000 0.05149060 39142.98082101 0 1033.11696803 0 7719.65177732 0 1561.15777677 0 -4297.80660374 0 2784
0.05250000 0.05249300 37214.42237509 0 2290.74345312 0 11240.45963993 0 1063.17559215 0 -1265.86588207 0 3055
0.05350000 0.05348950 36694.54227878 0 1649.41936631 0 11190.56239133 0 1856.39346822 0 4528.36359088 0 3009
0.05450000 0.05448610 35175.14351948 0 840.11387092 0 12164.51981457 0 1986.21174352 0 4221.44886333 0 3336
0.05550000 0.05550870 35763.25436572 0 562.87333722 0 11912.27961217 0 -367.10616409 0 6894.77910472 0 3349
0.05650000 0.05647670 34945.27221203 0 469.17464493 0 11827.52510566 0 16.13078343 0 4150.92502064 0 3324
0.05750000 0.05747970 34935.15562637 0 418.86936071 0 12226.34339359 0 -1151.77327715 0 6254.29806672 0 3639
0.05850000 0.05849280 34758.90222291 0 -248.71176214 0 11396.10893060 0 1410.90399845 0 4008.26992221 0 3846
0.05950000 0.05951020 34870.85910419 0 98.72989516 0 13233.28088607 0 2176.50471974 0 6211.21265247 0 3787
0.06050000 0.06049470 34267.91059898 0 1103.33394096 0 10692.51163875 0 1395.67291671 0 3151.50752350 0 3930
0.06150000 0.06148310 32957.47553676 0 1734.43240779 0 13076.36140187 0 450.85575643 0 3437.12121792 0 4083
0.06250000 0.06249100 32050.01780325 0 1541.04825262 0 11232.64738767 0 -465.08754432 0 5689.10690732 0 4303
0.06350000 0.06350600 30112.01721072 0 873.00738715 0 14438.84067697 0 -319.31316532 0 6060.61041398 0 4470
0.06450000 0.06451750 30943.71295830 0 -395.38539320 0 13921.32111732 0 61.53952778 0 5554.26406115 0 4479
0.06550000 0.06550280 30815.11991394 0 -488.43999621 0 13768.56067388 0 906.50003007 0 3295.91616344 0 4636
0.06650000 0.06648880 31651.08710880 0 134.41232925 0 14147.70782304 0 71.93499398 0 3148.80976732 0 4653
0.06750000 0.06749660 30820.96505232 0 816.91878814 0 13415.26702141 0 -212.52923150 0 60.65140396 0 5220
0.06850000 0.06852730 31012.95536680 0 684.82765327 0 13691.22499685 0 -365.39084079 0 407.03520362 0 5029
0.06950000 0.06949320 30260.05658084 0 325.34489850 0 13463.26460003 0 -1115.58849838 0 -1792.37796231 0 5040
0.07050000 0.07048030 30943.71295830 0 -205.54653927 0 13459.55518529 0 929.73108294 0 -629.20891345 0 5475
0.07150000 0.07148790 31068.48418142 0 -870.93123896 0 14501.33869504 0 2022.76633969 0 -2297.11690208 0 5509
0.07250000 0.07249820 31472.24835567 0 -23.74328932 0 12065.60208814 0 1022.41924073 0 -1284.95250701 0 5916
0.07350000 0.07351270 31228.66345433 0 453.97166481 0 11694.09858148 0 3007.55975023 0 -3489.42396577 0 5721
0.07450000 0.07449140 29717.80758958 0 1280.68105973 0 10722.83891442 0 1790.20851672 0 -1244.72221805 0 6028
0.07550000 0.07549160 28570.92399550 0 1300.44212372 0 8319.45290032 0 1704.25126058 0 -1856.86557555 0 6183
0.07650000 0.07648840 27550.83494166 0 772.85993353 0 8138.91680893 0 2331.74934699 0 -2125.25859306 0 6330
0.07750000 0.07749960 26088.20146854 0 880.42734070 0 5771.53459913 0 792.99193899 0 -3878.97995750 0 6583
0.07850000 0.07848650 25489.52441061 0 185.78659935 0 5293.64957395 0 750.32242881 0 -3893.10945547 0 6549
0.07950000 0.07947320 25046.75517832 0 -5.51561870 0 4628.68639866 0 -379.41804884 0 -3266.83660000 0 6828
0.08050000 0.08048110 25370.14869985 0 122.17350873 0 4648.82964477 0 -416.95170569 0 -4226.12497403 0 7147
0.08150000 0.08149960 25524.25802137 0 -50.10014234 0 5625.09140141 0 -711.19484768 0 -977.70955245 0 7386
0.08250000 0.08250610 25918.46764250 0 263.38643167 0 7325.63324724 0 -1363.03006699 0 -2589.94709428 0 7227
0.08350000 0.08350160 26335.04615860 0 483.86617543 0 9451.21781917 0 -398.48331654 0 848.60056222 0 7798
0.08450000 0.08449610 25839.22105485 0 904.79257522 0 11746.14279436 0 -2775.46279394 0 1627.39893153 0 7371
0.08550000 0.08548940 25615.64451181 0 1239.76509107 0 12828.05542722 0 -1397.76367775 0 2070.21312643 0 8256
0.08650000 0.08650700 24539.12739130 0 1321.58578774 0 14514.93988242 0 -1215.42908224 0 1535.87755328 0 8037
0.08750000 0.08749060 23936.96573165 0 1084.71267895 0 14233.47398812 0 156.05395410 0 755.86519369 0 8155
0.08850000 0.08849210 22717.91715987 0 942.72527518 0 14085.20980498 0 -424.34580575 0 -375.94918402 0 8718
0.08950000 0.08949900 21997.05422849 0 356.53995241 0 12545.80268737 0 791.84876481 0 -2508.76711470 0 8571
0.09050000 0.09049190 21557.20756539 0 149.93791604 0 11595.96770060 0 1286.55992007 0 -3472.91144985 0 8932
0.09150000 0.09150830 21342.39872992 0 -196.32920567 0 10204.82476613 0 1699.36157751 0 -3986.41809719 0 9285
0.09250000 0.09250820 20929.30481555 0 -317.25387810 0 8573.06446212 0 2447.42688366 0 -3913.76977152 0 9204
0.09350000 0.09350330 21232.46516577 0 -22.57010260 0 7565.72230621 0 2408.64663864 0 -2845.44708539 0 9349
0.09450000 0.09448040 20846.01159364 0 519.89583322 0 6751.22475424 0 1627.92724212 0 -3618.88254024 0 9564
0.09550000 0.09549270 19964.29495030 0 823.16521775 0 7672.65461661 0 420.14292644 0 -544.61964450 0 10155
0.09650000 0.09649430 19586.49667923 0 1036.22725609 0 7209.83206341 0 -427.75397105 0 -26.07077846 0 9913
0.09750000 0.09749140 18913.29410695 0 718.97562612 0 8558.39541291 0 -44.18070326 0 2135.94845190 0 10476
0.09850000 0.09850240 18723.88914213 0 433.86663691 0 9418.84474507 0 -105.30545102 0 2768.62847830 0 10575
0.09950000 0.09950330 18445.57063003 0 195.81775606 0 10138.57237072 0 30.43271298 0 3071.62021875 0 10882
0.10050000 0.10051200 18533.36011224 0 214.65821075 0 10562.95189842 0 826.43399898 0 3823.23757053 0 10875
0.10150000 0.10150300 18472.32337877 0 -8.11027563 0 9482.80404773 0 955.41484579 0 3671.30893525 0 11118
0.10250000 0.10250800 18489.85879391 0 -170.36667467 0 9412.74107172 0 1589.23692230 0 4309.01353252 0 11575
0.10350000 0.10349800 18769.52618410 0 -411.68883302 0 7768.17766652 0 1642.95599214 0 2948.35524283 0 11364
0.10450000 0.10450100 18607.32359405 0 -56.11265401 0 6820.54584730 0 1329.04957983 0 3156.37472526 0 12093
0.10550000 0.10551000 18499.30094053 0 39.02664009 0 5611.51269532 0 1197.59016953 0 2127.29315084 0 12067
0.10650000 0.10649700 18052.59748048 0 333.41343759 0 4962.36511561 0 667.10901552 0 2707.49057897 0 12054
0.10750000 0.10749900 18011.79391833 0 324.76375685 0 3984.76572153 0 576.91628218 0 1688.76164387 0 12807
0.10850000 0.10850100 17446.05196703 0 352.10101943 0 3671.36513850 0 81.64241995 0 1306.23105885 0 12736
0.10950000 0.10950300 17078.59509464 0 365.88992568 0 3611.63232052 0 191.39118780 0 1650.45350618 0 12933
0.11050000 0.11050200 16816.01349356 0 414.37422448 0 3822.54065018 0 -391.52535374 0 436.76672480 0 13428
0.11150000 0.11150900 16710.35137669 0 263.82481705 0 4025.38943328 0 384.19307727 0 1366.87436954 0 13453
0.11250000 0.11250000 15986.22865660 0 555.17686367 0 3805.94944970 0 -349.95068295 0 127.91635719 0 13668
0.11350000 0.11349100 15955.42927360 0 361.21718718 0 4091.03483354 0 -168.85031089 0 784.78064363 0 13791
0.11450000 0.11448600 15704.20072976 0 403.94290060 0 4174.37301806 0 -180.50798976 0 401.78581973 0 14205
0.11550000 0.11549300 15383.95459043 0 225.27500536 0 4270.97517045 0 94.39156601 0 881.44686772 0 14776
0.11650000 0.11649800 15300.99858804 0 60.12534151 0 4205.76815556 0 396.49484543 0 1295.70980976 0 14553
0.11750000 0.11747300 15283.12595338 0 1.37449553 0 4025.37819262 0 604.35358655 0 1076.12594586 0 14568
0.11850000 0.11849100 15335.28257277 0 139.66733346 0 4387.40583072 0 844.07507624 0 1983.15428652 0 16015
0.11950000 0.11950300 14973.22121272 0 239.20666788 0 3967.02797468 0 378.17820506 0 1032.91576039 0 15270
0.12050000 0.12050700 14848.78720913 0 365.93713642 0 4636.43120701 0 -379.93287064 0 2367.53957891 0 15999
0.12150000 0.12150000 14412.20033474 0 349.15821707 0 4288.67919535 0 -523.26128405 0 997.95958474 0 15670
0.12250000 0.12250700 14411.97552173 0 318.72865148 0 5707.94623794 0 -793.79676958 0 2378.20695646 0 16887
0.12350000 0.12352200 14349.70231668 0 276.01193057 0 5825.25366897 0 -810.87693837 0 1019.99575644 0 16407
0.12450000 0.12449800 14299.90623394 0 126.69787065 0 6690.57020289 0 -1040.76510679 0 1351.18242112 0 16306
0.12550000 0.12549900 14223.58221547 0 229.66785167 0 6503.82927230 0 -453.56700139 0 328.11122264 0 17523
0.12650000 0.12650100 14432.43350606 0 65.60639521 0 7056.79060371 0 5.19059529 0 1211.30376342 0 17154
0.12750000 0.12750600 14156.70034362 0 78.35486683 0 6340.19911961 0 304.41930310 0 141.41975091 0 18007
0.12850000 0.12850300 14174.79779130 0 55.12583728 0 6691.66054602 0 525.71736623 0 334.76681194 0 17496
0.12950000 0.12949900 13820.04285423 0 83.45227712 0 5292.46930562 0 1169.78079962 0 -381.57288158 0 18405
0.13050000 0.13049000 13666.04593922 0 243.82882346 0 4972.56038582 0 944.46307978 0 -381.63133297 0 18100
0.13150000 0.13148800 13250.02945566 0 128.27718208 0 3705.17701590 0 1163.89069864 0 -385.16314543 0 19059
0.13250000 0.13249300 13137.51054185 0 64.96118186 0 3548.65095447 0 867.53431431 0 -623.92580760 0 18957
0.13350000 0.13349100 12956.64847158 0 38.34984051 0 3076.15020100 0 328.99361372 0 -762.49605356 0 19468
0.13450000 0.13450700 13006.55696083 0 71.73996869 0 3064.56109009 0 133.65133719 0 -372.37353303 0 19953
0.13550000 0.13551000 13130.20411887 0 53.90588946 0 3588.29672960 0 -346.86849652 0 -207.83738389 0 19956
0.13650000 0.13649900 12912.24790120 0 111.49342925 0 3379.31055121 0 -422.97332229 0 188.58102512 0 19723
0.13750000 0.13749600 13115.81608594 0 205.88825505 0 4332.32664214 0 -0.52898165 0 161.23477002 0 20946
0.13850000 0.13851100 12715.76132642 0 359.53221363 0 4078.11932585 0 -175.70485971 0 528.95130145 0 20955
0.13950000 0.13949800 12588.62956665 0 442.57701717 0 4766.67662703 0 60.36375571 0 892.75383829 0 20506
0.14050000 0.14048300 11990.73935427 0 372.67927873 0 4095.53109384 0 384.17509223 0 848.10484952 0 21447
0.14150000 0.14148400 11818.42017856 0 286.78946649 0 4115.78674645 0 489.03237851 0 966.60603766 0 21771
0.14250000 0.14249400 11532.45802397 0 73.90199545 0 3816.38077358 0 535.09993740 0 725.99541250 0 22470
0.14350000 0.14350900 11467.93668877 0 29.27582520 0 3353.35588867 0 349.28411236 0 439.76685448 0 22519
0.14450000 0.14449900 11584.95186288 0 13.02499163 0 3394.08076627 0 -89.23907653 0 323.81054967 0 22218
0.14550000 0.14550500 11510.87597456 0 126.34041796 0 3349.84880564 0 -213.05866615 0 80.47429153 0 23559
0.14650000 0.14650700 11563.36981348 0 173.50618842 0 3574.69554222 0 -107.15858470 0 -67.43333817 0 23044
0.14750000 0.14750500 11297.30361068 0 214.85154994 0 3669.01584250 0 -170.22054621 0 343.66828325 0 23649
0.14850000 0.14849900 11207.64818044 0 154.28467567 0 3493.23454637 0 343.63568537 0 603.25874717 0 23640
0.14950000 0.14949500 11033.11459654 0 107.44600814 0 3703.05253291 0 736.10637783 0 893.18210708 0 24457
0.15050000 0.15050000 10869.54064711 0 123.70223723 0 3073.13770660 0 802.69711683 0 1023.60512939 0 24591
0.15150000 0.15149900 10686.64401906 0 85.74132324 0 2928.95387967 0 945.45787737 0 1549.01787398 0 25020
0.15250000 0.15250500 10546.05720037 0 125.16801808 0 2174.76241888 0 625.00491007 0 1517.11690721 0 25297
0.15350000 0.15350100 10212.99671921 0 222.19506706 0 2079.57658849 0 447.83651764 0 1532.69644912 0 25452
0.15450000 0.15450400 10090.63099535 0 188.72265732 0 1598.06083312 0 122.51522451 0 1637.77405216 0 26061
0.15550000 0.15549900 9679.15573470 0 171.24344543 0 1578.27728784 0 239.91707701 0 1286.63860462 0 26128
0.15650000 0.15649500 9673.91759145 0 252.64486583 0 1339.51462566 0 -114.21063175 0 1068.37664125 0 26331
0.15750000 0.15749700 9377.96249836 0 127.18234270 0 850.56655203 0 45.19326108 0 906.76755756 0 27345
0.15850000 0.15849900 9311.99111922 0 74.29283288 0 886.71086446 0 31.38108668 0 729.67784968 0 26980
0.15950000 0.15949700 9366.26098095 0 -4.04422876 0 782.10087250 0 -41.11526540 0 833.67747431 0 27777
0.16050000 0.16050000 9337.54111833 0 73.19979200 0 757.28826007 0 -125.60527940 0 592.63858036 0 28224
0.16150000 0.16150500 9506.67918988 0 118.99465270 0 1270.91293425 0 -382.53170909 0 872.72187462 0 28075
0.16250000 0.16249700 9338.36168583 0 105.54498929 0 1425.47188180 0 -410.49057965 0 1008.55052586 0 28590
0.16350000 0.16349900 9422.98130454 0 135.58697725 0 1910.93310557 0 -108.36526856 0 1670.77660270 0 29163
0.16450000 0.16449100 9410.72899524 0 131.40433111 0 2012.18888735 0 -172.97787784 0 1247.22888316 0 28996
0.16550000 0.16550500 9275.20046938 0 167.60597085 0 2351.39800446 0 -106.20346661 0 1357.55587008 0 30777
0.16650000 0.16650700 9277.10013935 0 199.80706300 0 2707.91772370 0 -157.36461397 0 1145.35486558 0 29211
0.16750000 0.16749900 9039.36037639 0 150.43250467 0 2191.63463562 0 -126.13808624 0 964.10049661 0 30922
0.16850000 0.16850800 9035.93197792 0 121.11913569 0 2477.30453330 0 -66.93211756 0 716.61958573 0 30867
0.16950000 0.16949900 8790.63849766 0 119.75676882 0 2204.95480674 0 27.50396143 0 300.13436704 0 30852
0.17050000 0.17049200 8848.73018064 0 138.37690676 0 2397.16993424 0 24.38074662 0 75.37137331 0 31257
0.17150000 0.17149500 8686.34774018 0 119.85456248 0 2432.13959866 0 -148.32488266 0 -36.19073631 0 32608
0.17250000 0.17250900 8666.85645181 0 163.87857107 0 2539.25175948 0 -118.75522684 0 26.45543353 0 32361
0.17350000 0.17350400 8506.21631222 0 117.05564045 0 2721.67628019 0 -224.05876696 0 28.76965870 0 32508
0.17450000 0.17449800 8508.04853829 0 173.19032614 0 2905.75317656 0 -99.27551635 0 230.55024275 0 32791
0.17550000 0.17549800 8348.49874181 0 96.35373400 0 3063.51570957 0 236.46732130 0 297.57262274 0 33633
0.17650000 0.17650100 8339.46125862 0 56.41918656 0 2923.95179010 0 303.58974307 0 652.36465395 0 33984
0.17750000 0.17750300 8307.39168209 0 -18.08733109 0 2568.91583676 0 698.13770780 0 347.44626596 0 34069
