### header ###
fiducial parameters:
Omega_m = 0.31
Omega_nu = 0
Omega_de = 0.69
Omega_k = 0
H_0 = 100
w_de = -1
zeff = 0
beta = 0
fgrowth = 0
b_1 = 2
gamma = 0.55
Lx = 3500 Ly = 3500 Lz = 3500
nx = 700 ny = 700 nz = 700
xoffset = 857.220397 yoffset = 15.9954215 zoffset = 262.898189
bins = 400 dk = 0.001
kx_ny = 0.628318531 ky_ny = 0.628318531 kz_ny = 0.628318531
############################
A(data) = 3.07082607 (not used)
A(ran) = 3.06743344 (used)
Ngal = 187505
weighted Ngal = 0
Nran = 9360983
weighted Nran = 0
SN(data) = 3448.92113
SN(ran) = 68.883027
SN(data+ran) = 3517.80416
############################
13 columns: k_central k_mean P_0(k) sigma^{lin}_{P_0(k)} P^img_1(k) sigma^{lin}_{P_1(k)} P_2(k) sigma^{lin}_{P_2(k)} P^img_3(k) sigma^{lin}_{P_3(k)} P_4(k) sigma^{lin}_{P_4(k)} N_modes
### header ###
0.00050000 0 0 0 0 0 0 0 0 0 0 0 0
0.00150000 0.00179520 8206.12465965 0 -19353.81520910 0 -1637.05465051 0 -27724.95262148 0 -44047.72636097 0 3
0.00250000 0.00253879 18300.56623560 0 -25911.61084556 0 -28334.30829761 0 19729.02813050 0 15843.58479882 0 6
0.00350000 0.00331552 32526.73380075 0 -30892.79281049 0 -18886.20413869 0 -25211.54311803 0 -25918.69245552 0 7
0.00450000 0.00420575 49138.16745101 0 -29403.40658863 0 -39639.03073777 0 5666.19846113 0 9961.16118023 0 24
0.00550000 0.00557378 62249.82449617 0 -12601.33150198 0 -34498.45634547 0 -9744.52011870 0 3903.86675822 0 45
0.00650000 0.00659388 73808.81045586 0 -1478.19053373 0 -42495.72971454 0 -26461.61588583 0 26263.44321344 0 40
0.00750000 0.00754703 63021.15794933 0 6287.66031809 0 -11457.25807058 0 -14407.59166794 0 26379.10950946 0 57
0.00850000 0.00846663 64512.34267530 0 7433.09386823 0 -14299.34420140 0 -30979.00860160 0 17429.30339745 0 75
0.00950000 0.00948925 59285.88971142 0 3572.62726248 0 2672.84689342 0 -20072.54241684 0 8641.50878442 0 112
0.01050000 0.01054430 65018.84639724 0 609.11737433 0 19049.86801333 0 -15402.27685113 0 4968.28893854 0 105
0.01150000 0.01145670 71521.33803211 0 -1184.69714314 0 19708.57014617 0 -14887.79226717 0 -29503.11116062 0 144
0.01250000 0.01249090 74337.12104022 0 -42.56474731 0 26553.45200230 0 -9109.16481743 0 -15666.76936283 0 169
0.01350000 0.01339930 72906.41101518 0 2916.36435085 0 36119.35818088 0 -282.42584588 0 -27102.89501003 0 180
0.01450000 0.01448870 73695.16747697 0 4224.73113334 0 23028.27152655 0 12318.85394911 0 -21143.55161849 0 267
0.01550000 0.01550050 70132.66804080 0 5662.39912118 0 23499.70441821 0 20857.70187040 0 -16770.03923207 0 238
0.01650000 0.01653350 63588.13637220 0 7079.94634422 0 18239.41709563 0 16479.13119115 0 8817.72846593 0 315
0.01750000 0.01747870 56628.15025259 0 -390.60924071 0 20301.85169175 0 23986.53700137 0 20219.57012840 0 297
0.01850000 0.01844180 60819.67650367 0 -3705.79525169 0 13795.42582913 0 19050.43004587 0 33736.11541289 0 388
0.01950000 0.01947590 61807.50488991 0 -4240.14206549 0 7523.67103182 0 8656.29024013 0 17458.30427633 0 399
0.02050000 0.02045430 66467.65386996 0 -1857.56249590 0 2387.98632259 0 1732.74631018 0 28153.22141433 0 462
0.02150000 0.02154770 66955.94773771 0 485.60735223 0 6364.02929916 0 -5289.70410554 0 10961.81514896 0 571
0.02250000 0.02255340 65564.69239674 0 3488.49099176 0 2566.24056189 0 -8105.07120958 0 10353.54981595 0 510
0.02350000 0.02348930 62508.13464997 0 3081.03988406 0 11469.39797337 0 2495.86284766 0 -1845.46755571 0 555
0.02450000 0.02439640 58861.89236585 0 2875.60575130 0 1627.37645023 0 1669.87735064 0 -4499.65496892 0 592
0.02550000 0.02547300 58950.46869361 0 -874.59231891 0 3594.70390052 0 6849.55796683 0 -4813.32532757 0 837
0.02650000 0.02652900 57161.40672327 0 -235.25895134 0 2381.44426387 0 251.63882759 0 -7179.17880887 0 723
0.02750000 0.02749970 61500.97234447 0 -2869.87301943 0 -643.94428249 0 -1018.55020875 0 -12335.37770568 0 826
0.02850000 0.02848090 59366.03555113 0 18.14274750 0 8284.78673347 0 -10308.82326669 0 -16579.06057615 0 831
0.02950000 0.02946900 63013.62671334 0 2799.76508082 0 11153.99655451 0 -15773.33073176 0 -12710.81544010 0 996
0.03050000 0.03053250 58486.34222493 0 3777.48812205 0 15528.50935884 0 -9371.47664289 0 -15246.25661898 0 1041
0.03150000 0.03150510 58605.94274871 0 3841.95325400 0 21930.84679569 0 -7408.06093905 0 -20378.51292974 0 1036
0.03250000 0.03246190 53653.08722362 0 2969.44270361 0 23197.10610053 0 2078.13778519 0 -21076.22012061 0 1059
0.03350000 0.03345080 52294.99180230 0 1818.44503136 0 25572.93003903 0 3902.46167688 0 -20275.99819507 0 1302
0.03450000 0.03451200 48848.83310119 0 122.96147835 0 18455.23758966 0 7698.93525802 0 -16652.23721241 0 1339
0.03550000 0.03553350 51312.22170889 0 -1096.06910839 0 18335.97428541 0 8899.60536585 0 -14244.26501282 0 1365
0.03650000 0.03647120 49818.33922674 0 -930.62921093 0 15347.19766254 0 4306.28205439 0 -12569.40805390 0 1308
0.03750000 0.03744890 50642.95336436 0 -112.75384342 0 10473.70113162 0 5742.00540966 0 -10211.23193705 0 1579
0.03850000 0.03847530 50390.37594244 0 820.78219979 0 9969.67035284 0 -1554.89673432 0 -7478.41617198 0 1662
0.03950000 0.03950240 49691.88190601 0 1137.35152226 0 8377.57830525 0 -4246.04340712 0 -7952.68170762 0 1683
0.04050000 0.04050350 48769.24929401 0 1538.76640052 0 12232.97537752 0 -2492.97400042 0 -6365.78284067 0 1822
0.04150000 0.04152450 46797.30193628 0 2283.72928706 0 11090.99270716 0 -943.15579210 0 -3444.15786528 0 1887
0.04250000 0.04250150 46881.60681676 0 1446.91904339 0 11853.94063487 0 536.69498574 0 -2488.89364421 0 1920
0.04350000 0.04349210 44359.65441875 0 1556.89757015 0 13718.65218464 0 3707.98717858 0 1021.67061340 0 2005
0.04450000 0.04448520 44871.32884003 0 1230.70512658 0 15028.75002734 0 5048.04135548 0 6544.77896291 0 2151
0.04550000 0.04548030 41616.82323389 0 807.90266218 0 8356.20982821 0 5371.67093068 0 8071.27057283 0 2274
0.04650000 0.04648670 42781.80427564 0 1367.07670125 0 11458.60694867 0 2967.01472305 0 13230.47072339 0 2311
0.04750000 0.04749250 40916.75550636 0 1799.26848121 0 8346.43046208 0 592.91622443 0 9630.37131052 0 2568
0.04850000 0.04851840 39090.82420162 0 2200.82948792 0 9077.43246041 0 -913.00274652 0 13023.64274994 0 2493
0.04950000 0.04949480 37158.10671493 0 1906.43684528 0 10278.45102842 0 -1691.12218053 0 7198.31039641 0 2644
0.05050000 0.05050630 36863.71407229 0 1110.47625043 0 14260.22673686 0 -3175.37142500 0 9042.53023990 0 2829
0.05150000 0.05149060 36856.07042979 0 886.87722609 0 15257.27245670 0 -2045.69726718 0 3796.82204131 0 2784
0.05250000 0.05249300 35653.77042760 0 23.70788127 0 16513.30276938 0 -1172.97314443 0 4826.30827916 0 3055
0.05350000 0.05348950 36213.44242750 0 -87.46485222 0 16541.06717668 0 -587.94223648 0 57.57731080 0 3009
0.05450000 0.05448610 37340.54247629 0 -720.11767623 0 18367.89773348 0 1717.52646909 0 2781.39785753 0 3336
0.05550000 0.05550870 37430.80490166 0 -348.66362844 0 17878.59220716 0 2342.33803997 0 1765.27675340 0 3349
0.05650000 0.05647670 37878.63242679 0 445.64683888 0 16288.26494174 0 538.04049163 0 553.12656898 0 3324
0.05750000 0.05747970 37426.08382836 0 160.67048935 0 16160.90836896 0 -355.95319044 0 -127.63196873 0 3639
0.05850000 0.05849280 36514.80427360 0 809.32235637 0 16216.32477706 0 -584.45538663 0 -3423.65491834 0 3846
0.05950000 0.05951020 37079.53456632 0 213.90733528 0 14269.66888347 0 473.01894748 0 -3386.87550915 0 3787
0.06050000 0.06049470 35205.94290248 0 411.93837547 0 14527.75422425 0 -967.38389069 0 -5186.15523101 0 3930
0.06150000 0.06148310 36044.60785352 0 742.14822760 0 13178.53891701 0 -1651.74618101 0 -7865.40929535 0 4083
0.06250000 0.06249100 35362.41276065 0 943.87406969 0 14845.19020090 0 -592.38229352 0 -9135.89508487 0 4303
0.06350000 0.06350600 34241.27025675 0 658.18056664 0 13544.87172434 0 -636.72104033 0 -8349.24062476 0 4470
0.06450000 0.06451750 33833.45944822 0 691.66646517 0 15267.72626188 0 1925.56843282 0 -8422.15872605 0 4479
0.06550000 0.06550280 33071.90536120 0 683.98572853 0 15588.08480771 0 1155.10050977 0 -6367.98600822 0 4636
0.06650000 0.06648880 32389.71026834 0 1121.71465303 0 15189.37892628 0 2726.48727871 0 -5999.16901708 0 4653
0.06750000 0.06749660 31524.62978808 0 1416.78285878 0 15726.56962472 0 2050.93541042 0 -3904.72104768 0 5220
0.06850000 0.06852730 29922.49983939 0 740.07994787 0 12871.44433904 0 1559.31431005 0 -1734.81458992 0 5029
0.06950000 0.06949320 30020.06868774 0 92.01473041 0 11993.77432997 0 2661.35894837 0 -1237.59564548 0 5040
0.07050000 0.07048030 29949.47740115 0 -172.12471245 0 10486.16701328 0 1488.75674542 0 -1259.69476482 0 5475
0.07150000 0.07148790 30005.11862226 0 -19.28839462 0 9392.56410366 0 2429.68913681 0 -2982.18960153 0 5509
0.07250000 0.07249820 29257.27812913 0 449.91603803 0 8556.84420311 0 121.28549732 0 -2600.97417264 0 5916
0.07350000 0.07351270 29022.91056139 0 858.98804756 0 7854.82060236 0 -289.02523192 0 -3607.63064886 0 5721
0.07450000 0.07449140 28585.53684145 0 778.35211548 0 9169.16741103 0 -3.86444580 0 -2047.23723633 0 6028
0.07550000 0.07549160 27724.05336942 0 504.45455131 0 9024.81497434 0 41.69281003 0 -589.19332091 0 6183
0.07650000 0.07648840 27789.36155017 0 -241.68410730 0 8416.77445435 0 1813.46542308 0 -1577.94006832 0 6330
0.07750000 0.07749960 27877.15103238 0 -143.39698138 0 8713.48267105 0 1145.97310137 0 -221.69036185 0 6583
0.07850000 0.07848650 27764.18249253 0 673.67243148 0 7596.99379654 0 671.34112052 0 -2170.14251143 0 6549
0.07950000 0.07947320 27008.13632437 0 969.02390163 0 6878.79489939 0 464.45019942 0 762.54663648 0 6828
0.08050000 0.08048110 25652.40143970 0 638.34306623 0 6414.92696567 0 1103.37553136 0 269.53956388 0 7147
0.08150000 0.08149960 25150.95601059 0 675.82726422 0 6634.76037202 0 1200.24296310 0 935.56048441 0 7386
0.08250000 0.08250610 25448.94566147 0 71.93724211 0 5322.80782195 0 1658.54677471 0 435.00081857 0 7227
0.08350000 0.08350160 24453.47363273 0 307.70944157 0 5366.34286223 0 345.44767826 0 -73.29061646 0 7798
0.08450000 0.08449610 24657.37903699 0 715.29656114 0 4863.30126072 0 -1521.98410898 0 2475.60719504 0 7371
0.08550000 0.08548940 23727.21518901 0 486.45939355 0 6373.03306039 0 -1137.81238894 0 115.65505537 0 8256
0.08650000 0.08650700 23817.36520787 0 584.59364663 0 6280.51126423 0 -1118.52118416 0 1145.57967860 0 8037
0.08750000 0.08749060 23302.31859137 0 449.15054971 0 7262.28093972 0 -70.72651162 0 -2012.71719794 0 8155
0.08850000 0.08849210 22774.68244606 0 304.91501579 0 6803.08911671 0 214.31087464 0 -181.21502669 0 8718
0.08950000 0.08949900 22048.98603487 0 638.17782867 0 6523.44420783 0 813.13181290 0 -2348.11573445 0 8571
0.09050000 0.09049190 21718.73571639 0 666.88083031 0 6006.64404982 0 723.52921373 0 -1433.29537471 0 8932
0.09150000 0.09150830 20843.76346349 0 687.96716701 0 6194.12686336 0 554.89359927 0 -879.24707237 0 9285
0.09250000 0.09250820 20417.85520729 0 623.03442400 0 6080.71993814 0 1183.65176262 0 -198.56946736 0 9204
0.09350000 0.09350330 19772.64185534 0 509.45776495 0 5731.36051342 0 1022.22814967 0 1985.51482317 0 9349
0.09450000 0.09448040 19445.87613859 0 399.86591658 0 4874.13724802 0 1200.58018262 0 164.05617335 0 9564
0.09550000 0.09549270 19176.32533406 0 227.31293534 0 5449.60236219 0 900.85272714 0 1874.16493703 0 10155
0.09650000 0.09649430 18704.33040986 0 309.82268390 0 4023.66961371 0 399.05546567 0 43.62462827 0 9913
0.09750000 0.09749140 18363.96350573 0 519.43609060 0 3964.47634696 0 495.83971659 0 939.80832632 0 10476
0.09850000 0.09850240 17903.32163877 0 497.83043583 0 3368.42960130 0 15.54064926 0 -367.19833743 0 10575
0.09950000 0.09950330 17173.69099982 0 476.75871197 0 2977.80574775 0 274.91933932 0 -1418.96354503 0 10882
0.10050000 0.10051200 16891.10104045 0 322.90230509 0 2750.28373630 0 -652.43209786 0 -2243.58892330 0 10875
0.10150000 0.10150300 16565.68420178 0 350.73977663 0 3184.61123990 0 -865.13555945 0 -2604.04287029 0 11118
0.10250000 0.10250800 16549.04803870 0 154.81635845 0 4040.24957354 0 -1024.40096746 0 -1805.69813343 0 11575
0.10350000 0.10349800 16448.33180815 0 192.95476232 0 3657.12323403 0 -764.58231833 0 -1955.35615726 0 11364
0.10450000 0.10450100 16486.77483365 0 9.60177510 0 5128.87287489 0 -246.14439751 0 -894.86033624 0 12093
0.10550000 0.10551000 16647.96576513 0 139.85505233 0 4802.50058091 0 390.45636786 0 -1159.54056681 0 12067
0.10650000 0.10649700 16472.16198770 0 174.36947040 0 5606.82534397 0 703.72993153 0 -8.60595461 0 12054
0.10750000 0.10749900 16299.61799898 0 377.42283333 0 4876.03691799 0 233.89658448 0 -1067.13230121 0 12807
0.10850000 0.10850100 16032.42773111 0 329.30160755 0 5084.92193053 0 40.09742447 0 -423.90517224 0 12736
0.10950000 0.10950300 15623.94248354 0 391.58717732 0 4931.64441716 0 -359.48949916 0 -940.88405659 0 12933
0.11050000 0.11050200 15781.42400028 0 182.52568657 0 5248.69821168 0 -178.31493881 0 -536.60843273 0 13428
0.11150000 0.11150900 15426.66906321 0 -98.86208521 0 4827.48854749 0 96.47962929 0 -867.24093333 0 13453
0.11250000 0.11250000 15853.36416496 0 56.49775870 0 5270.37018629 0 70.45954616 0 -1551.19856023 0 13668
0.11350000 0.11349100 15609.44204410 0 18.21412563 0 4999.52670692 0 452.72732478 0 -1000.54156222 0 13791
0.11450000 0.11448600 15550.20381475 0 291.95791770 0 4977.03416481 0 247.87096146 0 -581.67557370 0 14205
0.11550000 0.11549300 15271.32327011 0 341.49546547 0 5034.57505590 0 308.59070858 0 -316.60641662 0 14776
0.11650000 0.11649800 15033.13388112 0 331.51938794 0 4799.69041823 0 -41.05040684 0 -142.02000166 0 14553
0.11750000 0.11747300 14880.37343769 0 165.44102152 0 5107.81913607 0 323.81729406 0 -396.54992462 0 14568
0.11850000 0.11849100 14747.50894605 0 139.83594322 0 4898.07983408 0 107.16398022 0 -519.66989614 0 16015
0.11950000 0.11950300 14592.72518548 0 123.19978014 0 4739.62038072 0 225.41214130 0 -1176.30037705 0 15270
0.12050000 0.12050700 14319.57737272 0 227.08362607 0 4097.50944837 0 296.41595978 0 -1836.99210506 0 15999
0.12150000 0.12150000 14175.92185637 0 155.61894092 0 3803.75752281 0 503.38106917 0 -1669.43896527 0 15670
0.12250000 0.12250700 13868.49005888 0 152.07476374 0 3337.10190772 0 812.18085385 0 -2074.81055258 0 16887
0.12350000 0.12352200 13657.84026418 0 77.93120670 0 2635.37056388 0 1000.56067132 0 -2151.28069950 0 16407
0.12450000 0.12449800 13484.84664943 0 68.43813994 0 2250.70425522 0 520.82993130 0 -1690.13300326 0 16306
0.12550000 0.12549900 13529.80925236 0 76.37909765 0 2265.04732555 0 -40.14002654 0 -1973.06018216 0 17523
0.12650000 0.12650100 13324.10534398 0 89.87192516 0 2699.45351370 0 -437.60640141 0 -1404.30573647 0 17154
0.12750000 0.12750600 13369.74238595 0 220.30326555 0 2692.30445983 0 -808.99525343 0 -1378.50844305 0 18007
0.12850000 0.12850300 13369.51757293 0 332.97168002 0 3412.15573265 0 -704.24924960 0 -569.56040034 0 17496
0.12950000 0.12949900 13086.92761356 0 254.24778262 0 3309.98945815 0 117.54573282 0 -741.79639523 0 18405
0.13050000 0.13049000 12897.85986826 0 266.94971795 0 3577.64059271 0 288.41936085 0 -548.66178251 0 18100
0.13150000 0.13148800 12726.55235112 0 228.81243815 0 3338.31589799 0 566.53441717 0 -791.29347666 0 19059
0.13250000 0.13249300 12554.23317541 0 189.41395734 0 3231.55219735 0 -0.81536083 0 -591.37400715 0 18957
0.13350000 0.13349100 12355.83569001 0 257.66831264 0 2915.52130205 0 -59.54487430 0 -396.06208038 0 19468
0.13450000 0.13450700 12187.00111603 0 187.33218882 0 3280.25793697 0 -228.76410335 0 -297.13086516 0 19953
0.13550000 0.13551000 12041.43468907 0 187.79530363 0 3513.81617786 0 10.38413563 0 -173.17234110 0 19956
0.13650000 0.13649900 11940.83086502 0 144.26700774 0 3622.68188019 0 -123.20315234 0 -104.57154894 0 19723
0.13750000 0.13749600 11840.90148003 0 87.76846219 0 4031.13340580 0 17.25923235 0 -285.60919816 0 20946
0.13850000 0.13851100 11905.31040871 0 179.68180193 0 4278.40524058 0 -351.39735470 0 215.86320851 0 20955
0.13950000 0.13949800 11928.24133621 0 129.76207204 0 4874.66555860 0 65.56424277 0 259.06777366 0 20506
0.14050000 0.14048300 11736.58824124 0 148.57442510 0 4569.50437256 0 -37.16316501 0 1008.22679512 0 21447
0.14150000 0.14148400 11701.51741096 0 212.25833182 0 4565.14300008 0 381.82579623 0 732.02040129 0 21771
0.14250000 0.14249400 11541.67535757 0 101.17181412 0 4651.95454567 0 474.15200507 0 1332.16324008 0 22470
0.14350000 0.14350900 11381.04645862 0 194.02150007 0 4020.65711932 0 709.06474437 0 1139.12754508 0 22519
0.14450000 0.14449900 11213.61696598 0 144.15797343 0 3885.66814469 0 808.24662610 0 1252.18601013 0 22218
0.14550000 0.14550500 11135.67429381 0 -142.90014461 0 2816.41248455 0 892.30084007 0 1033.37775113 0 23559
0.14650000 0.14650700 11015.12955538 0 35.05711669 0 2802.36167114 0 660.83560834 0 988.38704658 0 23044
0.14750000 0.14750500 11042.83775943 0 81.99245381 0 2088.99625380 0 540.36056194 0 811.01070211 0 23649
0.14850000 0.14849900 10734.38306272 0 290.81024726 0 1983.31165563 0 325.15380744 0 859.96823230 0 23640
0.14950000 0.14949500 10460.92051173 0 404.22616500 0 1585.72983927 0 -74.66602248 0 1142.89316307 0 24457
0.15050000 0.15050000 10168.62987078 0 134.06274501 0 1882.92140395 0 69.12112188 0 910.23754644 0 24591
0.15150000 0.15149900 10098.17347199 0 202.97467838 0 1750.89996111 0 -286.00037281 0 1024.57744567 0 25020
0.15250000 0.15250500 9980.98968812 0 160.39509341 0 2372.85640671 0 -459.75497961 0 859.63213685 0 25297
0.15350000 0.15350100 9911.19648774 0 239.93618611 0 2568.25263837 0 -687.14997171 0 795.08832035 0 25452
0.15450000 0.15450400 9809.45735797 0 220.98782118 0 2966.84611329 0 -588.85834952 0 930.69777890 0 26061
0.15550000 0.15549900 9580.59770909 0 181.63992329 0 3148.10160632 0 -446.53372622 0 378.47271011 0 26128
0.15650000 0.15649500 9611.14979777 0 244.30317892 0 3666.62158389 0 -92.30440198 0 704.36502830 0 26331
0.15750000 0.15749700 9319.39870805 0 211.55916334 0 3442.28067661 0 98.44561910 0 296.24285375 0 27345
0.15850000 0.15849900 9262.81327227 0 107.63372701 0 3488.59215762 0 431.59602547 0 644.03308363 0 26980
0.15950000 0.15949700 9076.91539048 0 -31.47809349 0 3011.98856662 0 439.21156634 0 449.82049250 0 27777
0.16050000 0.16050000 9207.38562352 0 -79.08494710 0 2959.07882363 0 544.25432335 0 716.58923597 0 28224
0.16150000 0.16150500 9244.00766360 0 -127.12276725 0 2983.24622270 0 275.03062176 0 515.00390202 0 28075
0.16250000 0.16249700 9398.02705991 0 -43.68847516 0 2990.97979041 0 -95.31509787 0 716.54314930 0 28590
0.16350000 0.16349900 9407.35680002 0 127.88151117 0 2735.68213100 0 65.24467107 0 857.86960281 0 29163
0.16450000 0.16449100 9399.39841930 0 192.18365368 0 2986.38236426 0 -125.29391337 0 1096.81323947 0 28996
0.16550000 0.16550500 9132.62405550 0 215.75979452 0 2949.64791767 0 1.97129540 0 1050.75354903 0 30777
0.16650000 0.16650700 9130.96043920 0 150.81581086 0 3255.42733950 0 45.20753670 0 995.56869833 0 29211
0.16750000 0.16749900 8974.40065581 0 127.02609765 0 2968.28491658 0 238.02190329 0 995.98685054 0 30922
0.16850000 0.16850800 8976.31156644 0 42.51517604 0 2817.88500980 0 295.42903064 0 876.30539408 0 30867
0.16950000 0.16949900 8875.97751801 0 96.33282639 0 2924.12039986 0 68.95509747 0 752.31314806 0 30852
0.17050000 0.17049200 8873.43713095 0 85.39522360 0 2646.79106502 0 72.40193061 0 535.39331838 0 31257
0.17150000 0.17149500 8723.23955588 0 97.52871922 0 2619.26271138 0 94.67865223 0 521.60666026 0 32608
0.17250000 0.17250900 8618.70150408 0 81.68918106 0 2531.83293000 0 127.63646499 0 598.51856476 0 32361
0.17350000 0.17350400 8662.28150697 0 79.69677572 0 2277.88414868 0 60.56440133 0 110.46513452 0 32508
0.17450000 0.17449800 8508.47568301 0 71.79774563 0 2279.41287718 0 121.98691393 0 19.72115967 0 32791
0.17550000 0.17549800 8319.09319950 0 92.67466902 0 1875.14287364 0 157.51411463 0 -477.77823900 0 33633
0.17650000 0.17650100 8402.16160840 0 -2.64390222 0 1731.82457682 0 302.68487069 0 -127.02272546 0 33984
0.17750000 0.17750300 8243.19632576 0 -25.71242651 0 1304.18526041 0 341.70566564 0 -704.82252279 0 34069
