### header ###
fiducial parameters:
Omega_m = 0.31
Omega_nu = 0
Omega_de = 0.69
Omega_k = 0
H_0 = 100
w_de = -1
zeff = 0
beta = 0
fgrowth = 0
b_1 = 2
gamma = 0.55
Lx = 3500 Ly = 3500 Lz = 3500
nx = 700 ny = 700 nz = 700
xoffset = 857.220397 yoffset = 15.9954215 zoffset = 262.898189
bins = 400 dk = 0.001
kx_ny = 0.628318531 ky_ny = 0.628318531 kz_ny = 0.628318531
############################
A(data) = 3.11184018 (not used)
A(ran) = 3.10753532 (used)
Ngal = 189859
weighted Ngal = 0
Nran = 9360983
weighted Nran = 0
SN(data) = 3459.7141
SN(ran) = 69.7835645
SN(data+ran) = 3529.49766
############################
13 columns: k_central k_mean P_0(k) sigma^{lin}_{P_0(k)} P^img_1(k) sigma^{lin}_{P_1(k)} P_2(k) sigma^{lin}_{P_2(k)} P^img_3(k) sigma^{lin}_{P_3(k)} P_4(k) sigma^{lin}_{P_4(k)} N_modes
### header ###
0.00050000 0 0 0 0 0 0 0 0 0 0 0 0
0.00150000 0.00179520 6945.53064278 0 -11679.26092251 0 -5371.34495180 0 5442.97037826 0 -31623.54751451 0 3
0.00250000 0.00253879 15166.89762482 0 -15844.70886390 0 -5705.92292081 0 -6269.37177935 0 8036.59316533 0 6
0.00350000 0.00331552 23656.73630892 0 -16354.35996804 0 -3765.30325666 0 -21127.92711397 0 -3323.28714797 0 7
0.00450000 0.00420575 34440.34218119 0 -13150.10007066 0 -3431.46717060 0 -25610.36140597 0 -2367.67446672 0 24
0.00550000 0.00557378 43640.70239800 0 -6157.59474848 0 3298.02940577 0 -36071.13578924 0 -6717.87374352 0 45
0.00650000 0.00659388 53754.36548670 0 -4258.91395221 0 17488.54162680 0 -44066.04862166 0 -794.22616244 0 40
0.00750000 0.00754703 55072.66900443 0 -3345.73472748 0 28126.35625909 0 -32299.56024947 0 -9101.90335706 0 57
0.00850000 0.00846663 67768.42197255 0 -12225.21932852 0 18892.72371611 0 -7270.53157736 0 3224.35818088 0 75
0.00950000 0.00948925 68557.29084085 0 -8925.36893733 0 16486.88724016 0 11935.21053966 0 164.43723141 0 112
0.01050000 0.01054430 96026.51865820 0 -22436.78848509 0 407.02171484 0 25298.65816120 0 -9928.66445897 0 105
0.01150000 0.01145670 98412.34677586 0 -15418.57579469 0 -20778.34287624 0 22974.99084209 0 6355.34027614 0 144
0.01250000 0.01249090 113845.31060348 0 -11406.45032927 0 -32774.59014937 0 24998.42038017 0 -13482.82333230 0 169
0.01350000 0.01339930 104826.48689597 0 -4969.76146379 0 -44163.72987651 0 3491.99807479 0 -11477.26642888 0 180
0.01450000 0.01448870 109077.92581545 0 8111.88304392 0 -49631.74442460 0 -17948.95868074 0 -6229.54615381 0 267
0.01550000 0.01550050 92799.32783334 0 14838.89543649 0 -51416.19772815 0 -23213.06782457 0 -20205.06968896 0 238
0.01650000 0.01653350 78974.56390580 0 16911.44661827 0 -34910.98822730 0 -39256.73620641 0 -9448.94720772 0 315
0.01750000 0.01747870 68300.32956514 0 11421.40039475 0 -14149.05670113 0 -29621.36280631 0 -17198.30802492 0 297
0.01850000 0.01844180 58831.20538935 0 2039.40250277 0 -7011.55822517 0 -25650.82774860 0 -12506.91003584 0 388
0.01950000 0.01947590 68944.19403901 0 -1706.63427853 0 4652.34796845 0 -20083.44584805 0 -15507.82656149 0 399
0.02050000 0.02045430 71413.31537858 0 -2505.09142191 0 19290.97997151 0 -13387.39020760 0 -8778.71216724 0 462
0.02150000 0.02154770 79818.62436919 0 -1432.08138443 0 35728.97038099 0 -16386.62063564 0 -9590.39955652 0 571
0.02250000 0.02255340 83066.27317839 0 -120.01642785 0 47682.95280737 0 -11209.94127319 0 -13173.03099816 0 510
0.02350000 0.02348930 81893.19886810 0 6904.25497329 0 52379.85871532 0 -9613.91499785 0 -11744.34429025 0 555
0.02450000 0.02439640 78836.30390181 0 4612.01651362 0 57545.27494573 0 457.74290313 0 -16067.38615488 0 592
0.02550000 0.02547300 75316.51893841 0 4433.45877676 0 52257.33562235 0 14586.54282758 0 -7365.31274432 0 837
0.02650000 0.02652900 71200.64226675 0 374.45867374 0 42676.59178480 0 21900.04741268 0 -12760.94874236 0 723
0.02750000 0.02749970 73017.46864440 0 -3040.82083575 0 23327.61005552 0 22888.55023797 0 -16657.07069223 0 826
0.02850000 0.02848090 70227.76394598 0 -308.40298972 0 18020.56162590 0 19483.98194456 0 -18035.39928486 0 831
0.02950000 0.02946900 68195.79151334 0 2998.75832071 0 10887.24467201 0 3003.85033549 0 -7206.25753648 0 996
0.03050000 0.03053250 65554.68821759 0 3474.73243527 0 12408.66674845 0 508.41013630 0 -6249.12736739 0 1041
0.03150000 0.03150510 63042.06555969 0 2725.52058274 0 9828.62266747 0 -4281.60882604 0 1855.79771373 0 1036
0.03250000 0.03246190 62606.71515688 0 1336.59205647 0 16522.07047695 0 2162.99345756 0 9909.48790882 0 1059
0.03350000 0.03345080 60641.39978307 0 4244.69452904 0 15646.64859802 0 -853.11593162 0 -1957.05349552 0 1302
0.03450000 0.03451200 56810.69842046 0 4152.59987760 0 17148.84916171 0 3533.86949876 0 10879.63475146 0 1339
0.03550000 0.03553350 51821.42318700 0 4718.35306954 0 12492.40959639 0 2452.50765779 0 2673.67870157 0 1365
0.03650000 0.03647120 48055.80519212 0 2936.50759696 0 9559.34163855 0 3133.72481404 0 7424.57345498 0 1308
0.03750000 0.03744890 47373.83491227 0 17.41176798 0 4015.57634519 0 4929.59861873 0 4033.81992132 0 1579
0.03850000 0.03847530 46205.93130132 0 -980.81422018 0 1138.03720196 0 5365.78082969 0 3797.29414864 0 1662
0.03950000 0.03950240 47078.76783058 0 -716.96242557 0 307.77238921 0 -697.08895508 0 2003.54482694 0 1683
0.04050000 0.04050350 47990.94663740 0 -122.72430062 0 2395.85477810 0 -3587.72345641 0 -1731.06021257 0 1822
0.04150000 0.04152450 47391.59514042 0 2195.37777232 0 7256.58192980 0 -5085.13550289 0 7416.34529864 0 1887
0.04250000 0.04250150 46584.74123095 0 2410.37769885 0 9112.49205004 0 -6209.03196623 0 1818.47875331 0 1920
0.04350000 0.04349210 46044.51555682 0 1727.03605961 0 19647.64581921 0 -4091.15848070 0 10445.00375030 0 2005
0.04450000 0.04448520 44467.45225926 0 1697.49562949 0 18002.68899123 0 -3998.91770080 0 360.14033284 0 2151
0.04550000 0.04548030 45072.87370764 0 1034.53778629 0 27392.79139238 0 -338.17834944 0 12006.47626529 0 2274
0.04650000 0.04648670 42111.86149208 0 1099.19513336 0 20204.39524991 0 1240.87791550 0 5220.25936533 0 2311
0.04750000 0.04749250 43898.90014529 0 252.65947868 0 25453.55432827 0 5286.72533310 0 8226.71753179 0 2568
0.04850000 0.04851840 43030.78468934 0 -606.55787816 0 19632.02131469 0 3783.17589132 0 6039.82645078 0 2493
0.04950000 0.04949480 43449.94855510 0 -298.02112470 0 19107.42014508 0 8684.59419867 0 4026.73831136 0 2644
0.05050000 0.05050630 42852.17074922 0 -509.38470072 0 11858.43689517 0 5241.42551066 0 4026.69334876 0 2829
0.05150000 0.05149060 41385.15342232 0 524.65624880 0 9895.66190843 0 3742.31612592 0 1694.84283592 0 2784
0.05250000 0.05249300 41661.44861729 0 1253.54612887 0 7389.42394014 0 1315.76313067 0 3402.06162829 0 3055
0.05350000 0.05348950 38851.51074755 0 2060.96207088 0 7264.48410727 0 1145.06260866 0 2351.00458169 0 3009
0.05450000 0.05448610 37099.09329859 0 2264.87871579 0 6954.54564466 0 -571.59383406 0 2707.04095294 0 3336
0.05550000 0.05550870 35548.10831073 0 1527.10984571 0 5293.54840809 0 -1337.37890202 0 3002.46773545 0 3349
0.05650000 0.05647670 34120.09604187 0 1021.37498428 0 7975.66883837 0 -336.49337589 0 3350.20850647 0 3324
0.05750000 0.05747970 34235.31271186 0 565.49578104 0 8659.85352641 0 -520.94683406 0 1660.79490485 0 3639
0.05850000 0.05849280 34244.97967149 0 274.01109474 0 10140.23598703 0 -796.83174528 0 4096.54275240 0 3846
0.05950000 0.05951020 34274.43017640 0 923.77915837 0 12231.62649944 0 -151.15640257 0 3089.71766643 0 3787
0.06050000 0.06049470 34328.72251943 0 17.70413731 0 12431.59767594 0 -1626.11749735 0 1794.05281927 0 3930
0.06150000 0.06148310 33929.45460547 0 292.50421332 0 13700.32992395 0 -1135.68790595 0 1510.21514766 0 4083
0.06250000 0.06249100 34907.84084509 0 23.49947961 0 14490.54767034 0 -1035.65960323 0 133.60749865 0 4303
0.06350000 0.06350600 34687.74890378 0 257.61885378 0 15425.99462417 0 26.97666250 0 2270.78005742 0 4470
0.06450000 0.06451750 34455.85427920 0 11.77548089 0 14536.29711881 0 1915.11462764 0 100.48208779 0 4479
0.06550000 0.06550280 35023.16992159 0 14.81124344 0 14570.69351005 0 1811.01496122 0 2118.84018149 0 4636
0.06650000 0.06648880 34247.56502115 0 586.69002799 0 13188.88031569 0 2325.12860371 0 955.21925847 0 4653
0.06750000 0.06749660 34058.16005634 0 422.30675170 0 13544.75931783 0 1428.20335993 0 2755.63428605 0 5220
0.06850000 0.06852730 33430.03249349 0 166.64377115 0 11233.41175192 0 828.95078068 0 3791.22419725 0 5029
0.06950000 0.06949320 33277.49686307 0 326.27000405 0 12638.65046240 0 2145.64913348 0 3438.70614967 0 5040
0.07050000 0.07048030 33650.91128035 0 167.58573768 0 11585.62630193 0 1006.74977361 0 5003.80939485 0 5475
0.07150000 0.07148790 32085.08863353 0 626.43921711 0 10592.43612529 0 2222.41153733 0 3097.95706341 0 5509
0.07250000 0.07249820 32595.18936370 0 1183.98898215 0 11758.61991668 0 1175.37864369 0 6535.80892363 0 5916
0.07350000 0.07351270 30354.81526651 0 1347.01213970 0 8657.54919301 0 591.71347480 0 3738.41562011 0 5721
0.07450000 0.07449140 30733.62519614 0 938.88996515 0 13361.76152393 0 288.84875370 0 6451.30171143 0 6028
0.07550000 0.07549160 29441.84961413 0 919.45712817 0 11766.37596568 0 -1382.25157974 0 4882.80378973 0 6183
0.07650000 0.07648840 29116.54518198 0 642.56168245 0 13508.56442248 0 348.49951494 0 4608.40826474 0 6330
0.07750000 0.07749960 28003.83316612 0 351.14893632 0 10876.56605381 0 23.27320531 0 1938.93356654 0 6583
0.07850000 0.07848650 27993.49176745 0 273.77166888 0 10234.84854423 0 692.17117039 0 1574.27561618 0 6549
0.07950000 0.07947320 27127.51203513 0 453.20280430 0 9124.42962112 0 1137.01430274 0 -2203.12258067 0 6828
0.08050000 0.08048110 26506.91570827 0 480.64910119 0 6657.47772714 0 504.31179505 0 -3877.30510055 0 7147
0.08150000 0.08149960 25580.91090105 0 705.12040003 0 6139.29496909 0 -398.86549867 0 -4073.04979237 0 7386
0.08250000 0.08250610 24911.53015002 0 807.37097940 0 5565.05508585 0 -789.33085905 0 -6143.37532531 0 7227
0.08350000 0.08350160 24005.87092063 0 984.70236127 0 6378.43981340 0 -803.66606092 0 -5829.82861382 0 7798
0.08450000 0.08449610 23418.43451342 0 769.71704759 0 6827.97591743 0 -1098.38243431 0 -4733.61787323 0 7371
0.08550000 0.08548940 22768.94971419 0 752.99433149 0 7117.46763636 0 439.61847789 0 -4787.06716746 0 8256
0.08650000 0.08650700 22265.59337445 0 208.21506975 0 7653.21953150 0 950.79943460 0 -3091.14522907 0 8037
0.08750000 0.08749060 22287.17542386 0 161.09875815 0 7473.75130193 0 1602.62453732 0 -3194.93015727 0 8155
0.08850000 0.08849210 22339.10723024 0 246.17025101 0 6756.94624546 0 1559.66277023 0 -1432.38488200 0 8718
0.08950000 0.08949900 21864.07733034 0 400.72357823 0 6969.78796705 0 578.43264597 0 -1778.41707410 0 8571
0.09050000 0.09049190 21788.76497045 0 481.70122610 0 7004.31924610 0 -671.93013062 0 -320.21241737 0 8932
0.09150000 0.09150830 21250.56261345 0 488.09490824 0 7305.28766942 0 -923.11483592 0 -1509.83296554 0 9285
0.09250000 0.09250820 21305.64180203 0 633.64447423 0 8883.03664667 0 -1452.61805332 0 -1280.13026785 0 9204
0.09350000 0.09350330 20264.98235735 0 454.42353897 0 8048.96912178 0 -1020.90062882 0 -828.92267905 0 9349
0.09450000 0.09448040 20510.36576281 0 397.12319781 0 8802.78964110 0 -103.01202105 0 -2152.00010115 0 9564
0.09550000 0.09549270 19815.69354764 0 24.75607195 0 8016.92202655 0 730.01619327 0 -2552.69557775 0 10155
0.09650000 0.09649430 19945.74787659 0 38.36051912 0 6794.65862866 0 1682.81533964 0 -3567.83874527 0 9913
0.09750000 0.09749140 19758.47863541 0 -100.04280316 0 6086.65500172 0 1387.17498476 0 -3526.50687253 0 10476
0.09850000 0.09850240 19430.58885359 0 317.04142980 0 5210.89590327 0 990.17318598 0 -4060.40406030 0 10575
0.09950000 0.09950330 19388.88603938 0 393.54192648 0 4601.68635560 0 537.66617796 0 -3778.66839038 0 10882
0.10050000 0.10051200 18839.21821863 0 571.10036949 0 5043.76990820 0 -386.05565310 0 -2952.13210148 0 10875
0.10150000 0.10150300 18653.85988808 0 585.31642047 0 5736.93587618 0 129.89471172 0 -2032.24220826 0 11118
0.10250000 0.10250800 18242.33966482 0 580.23677041 0 6720.84127531 0 -433.26188991 0 -1143.33154845 0 11575
0.10350000 0.10349800 17897.47650039 0 571.47693129 0 7253.29965979 0 109.15155208 0 -1146.93979734 0 11364
0.10450000 0.10450100 17512.37180635 0 422.66757659 0 8013.39246222 0 -267.77365765 0 -583.74048124 0 12093
0.10550000 0.10551000 17096.58013581 0 453.89185619 0 8068.29180039 0 -183.92739572 0 -489.73829137 0 12067
0.10650000 0.10649700 16970.68484762 0 271.04019075 0 8673.29734468 0 -47.02177773 0 215.88906200 0 12054
0.10750000 0.10749900 16706.07992941 0 315.33285089 0 7861.38514238 0 488.12525799 0 -240.16774352 0 12807
0.10850000 0.10850100 16330.97941452 0 -73.21935073 0 7366.70658501 0 1227.15308095 0 365.75728601 0 12736
0.10950000 0.10950300 16580.74667376 0 -246.11179962 0 7125.97680896 0 1461.12722592 0 518.41319139 0 12933
0.11050000 0.11050200 16795.89272875 0 -240.46786889 0 5969.62858696 0 1813.02703770 0 981.07949954 0 13428
0.11150000 0.11150900 16907.06276448 0 12.69091949 0 6134.88863401 0 1404.98017552 0 2460.96062714 0 13453
0.11250000 0.11250000 16600.64262556 0 142.78436591 0 4973.49335983 0 826.23841166 0 1978.20840019 0 13668
0.11350000 0.11349100 16601.42947111 0 446.32914638 0 5838.09049211 0 319.83360744 0 3355.57029687 0 13791
0.11450000 0.11448600 16065.81246378 0 525.75333632 0 5254.30729639 0 -376.19085801 0 2076.94627622 0 14205
0.11550000 0.11549300 15582.46448234 0 473.03356032 0 5668.98614251 0 -426.00267766 0 2910.08082710 0 14776
0.11650000 0.11649800 15267.16422934 0 400.43469351 0 5427.69433392 0 -523.65245869 0 1388.77115716 0 14553
0.11750000 0.11747300 15047.18469453 0 163.16591382 0 5464.77724068 0 -344.89126605 0 1501.09897992 0 14568
0.11850000 0.11849100 14898.02125933 0 45.01756971 0 5059.47309727 0 299.53861255 0 969.31728262 0 16015
0.11950000 0.11950300 14816.52654153 0 -47.78164572 0 5199.04825740 0 473.30895626 0 56.43098924 0 15270
0.12050000 0.12050700 14838.78302998 0 176.73225518 0 4543.97685475 0 529.37957024 0 512.38483040 0 15999
0.12150000 0.12150000 14819.56151723 0 202.91397887 0 4815.62966097 0 73.32703617 0 24.42143778 0 15670
0.12250000 0.12250700 14523.93240301 0 250.71372203 0 4547.71999144 0 79.19094643 0 903.60331438 0 16887
0.12350000 0.12352200 14329.58155187 0 318.83880985 0 4997.15492962 0 -125.49287289 0 386.08150659 0 16407
0.12450000 0.12449800 14081.05076421 0 328.21014037 0 4801.14046217 0 -205.44424935 0 349.52691042 0 16306
0.12550000 0.12549900 13917.61170258 0 272.53519730 0 5340.87154767 0 -299.98711451 0 93.95812652 0 17523
0.12650000 0.12650100 13658.06507720 0 302.13632693 0 5214.26809849 0 223.68220516 0 78.81876849 0 17154
0.12750000 0.12750600 13451.12469724 0 227.16343469 0 4612.75839657 0 111.31414087 0 -115.41338138 0 18007
0.12850000 0.12850300 13090.52462179 0 260.52006573 0 4770.99303691 0 60.14197767 0 -670.85102815 0 17496
0.12950000 0.12949900 13098.95510984 0 297.56700241 0 4484.19907416 0 198.60656151 0 -534.92008699 0 18405
0.13050000 0.13049000 12572.44302960 0 272.53856949 0 4163.19981124 0 245.51492107 0 -549.02935178 0 18100
0.13150000 0.13148800 12473.07567714 0 275.91975723 0 3886.75848781 0 274.74061297 0 -348.87158048 0 19059
0.13250000 0.13249300 12352.80071432 0 84.07939303 0 4270.95268914 0 329.32521292 0 -488.36355979 0 18957
0.13350000 0.13349100 12247.25100395 0 -57.52695269 0 3570.55898275 0 704.33130635 0 -532.68544562 0 19468
0.13450000 0.13450700 12273.21690714 0 -59.34400388 0 3696.67908395 0 249.49973176 0 -552.32398651 0 19953
0.13550000 0.13551000 12378.87902401 0 -26.65664118 0 3208.83484222 0 -69.06649232 0 -841.16037550 0 19956
0.13650000 0.13649900 12446.77255443 0 128.35811476 0 3594.44536555 0 -231.39104343 0 -668.04648579 0 19723
0.13750000 0.13749600 12347.85482799 0 65.64753599 0 3278.56059871 0 -533.43182483 0 -1061.48162609 0 20946
0.13850000 0.13851100 12314.69490834 0 164.95992167 0 3844.14518089 0 -61.40576403 0 -88.37174792 0 20955
0.13950000 0.13949800 12463.07149799 0 3.62636881 0 3642.06076205 0 -9.16907749 0 -598.93334477 0 20506
0.14050000 0.14048300 12203.74968562 0 127.20819619 0 4053.06391537 0 506.21596128 0 -514.69478413 0 21447
0.14150000 0.14148400 12355.27365748 0 36.60203172 0 3679.42468508 0 99.14984587 0 -894.67936176 0 21771
0.14250000 0.14249400 12052.33812028 0 208.64109041 0 3874.44997526 0 109.62467107 0 -894.61416599 0 22470
0.14350000 0.14350900 12058.63288469 0 177.93163262 0 3690.42928214 0 -134.12007233 0 -967.06802840 0 22519
0.14450000 0.14449900 11731.86716794 0 178.26885214 0 3362.13483689 0 24.95671757 0 -1156.94397649 0 22218
0.14550000 0.14550500 11622.27082331 0 163.73019448 0 3662.79976265 0 419.97881294 0 -551.06166144 0 23559
0.14650000 0.14650700 11278.53172395 0 335.95944498 0 2823.57277907 0 743.66234326 0 -1026.20846410 0 23044
0.14750000 0.14750500 11012.13954228 0 276.38961643 0 2988.41692204 0 811.74022034 0 -480.52432997 0 23649
0.14850000 0.14849900 10665.97246237 0 287.41332261 0 2572.61401085 0 392.43359832 0 -163.14455658 0 23640
0.14950000 0.14949500 10428.06408965 0 283.62297518 0 2778.13806882 0 123.68650032 0 182.82918414 0 24457
0.15050000 0.15050000 10327.51646886 0 219.07915868 0 2946.97264279 0 86.11327637 0 678.95104106 0 24591
0.15150000 0.15149900 10021.79325028 0 59.78609867 0 2882.02416287 0 -278.47812934 0 404.41500793 0 25020
0.15250000 0.15250500 10233.92681087 0 13.36266078 0 2824.05612705 0 -91.92784018 0 373.54818103 0 25297
0.15350000 0.15350100 10217.26816649 0 -89.71410643 0 2943.55548497 0 29.82706671 0 192.17803335 0 25452
0.15450000 0.15450400 10170.10239602 0 14.45311630 0 2649.14036103 0 137.29668022 0 -95.84959082 0 26061
0.15550000 0.15549900 10309.12676426 0 33.06021508 0 2611.24812741 0 286.38929932 0 -144.84140499 0 26128
0.15650000 0.15649500 10114.68598792 0 109.12401248 0 2442.27866562 0 156.90374729 0 -282.40111644 0 26331
0.15750000 0.15749700 10018.07259489 0 167.44860174 0 2096.69609955 0 94.08604512 0 -640.42146255 0 27345
0.15850000 0.15849900 9863.21014976 0 165.17349404 0 2145.89642780 0 58.80130526 0 -253.88808180 0 26980
0.15950000 0.15949700 9809.80581814 0 160.63114708 0 2225.33410652 0 -39.49301468 0 -230.09612046 0 27777
0.16050000 0.16050000 9645.71479877 0 103.83775926 0 1958.86324029 0 88.34690608 0 40.48050585 0 28224
0.16150000 0.16150500 9708.30274204 0 1.91178740 0 2459.19584497 0 225.73699611 0 -24.78866984 0 28075
0.16250000 0.16249700 9739.50678847 0 54.95441736 0 2269.98197122 0 70.74067484 0 22.53008589 0 28590
0.16350000 0.16349900 9670.12949216 0 143.67574951 0 2792.69471151 0 98.26104762 0 344.45737694 0 29163
0.16450000 0.16449100 9579.40620011 0 211.13314268 0 2928.53797560 0 -443.59429606 0 400.84385320 0 28996
0.16550000 0.16550500 9497.13587741 0 262.62656368 0 2944.42101508 0 -155.43009798 0 634.04688952 0 30777
0.16650000 0.16650700 9264.35324142 0 272.42166673 0 3367.94625332 0 -305.82550850 0 598.74337777 0 29211
0.16750000 0.16749900 9084.64895818 0 190.45259347 0 3196.64997683 0 -158.03905302 0 238.39958916 0 30922
0.16850000 0.16850800 8890.80393633 0 193.03906720 0 3311.01235737 0 -124.39241318 0 321.71416831 0 30867
0.16950000 0.16949900 8714.78658653 0 171.63012382 0 3080.65770194 0 101.34278442 0 48.37436523 0 30852
0.17050000 0.17049200 8663.65286636 0 122.72430062 0 3020.45277662 0 381.33233166 0 34.58411010 0 31257
0.17150000 0.17149500 8538.99404975 0 41.42123591 0 2836.90419084 0 304.41368277 0 -97.79264970 0 32608
0.17250000 0.17250900 8498.71879818 0 73.26510018 0 2821.97660667 0 512.77263285 0 362.72231031 0 32361
0.17350000 0.17350400 8519.30042967 0 65.27412158 0 2674.03840240 0 182.92360561 0 290.87656710 0 32508
0.17450000 0.17449800 8407.48967685 0 111.57537359 0 2776.46321186 0 60.05553707 0 530.01129481 0 32791
0.17550000 0.17549800 8359.48085758 0 56.60252157 0 2630.00877348 0 63.49911042 0 360.15831788 0 33633
0.17650000 0.17650100 8360.63864460 0 35.76134346 0 2568.83715220 0 -58.33290734 0 383.24324228 0 33984
0.17750000 0.17750300 8249.46860887 0 140.40134796 0 2508.65470819 0 90.37809167 0 -46.25055668 0 34069
