### header ###
fiducial parameters:
Omega_m = 0.31
Omega_nu = 0
Omega_de = 0.69
Omega_k = 0
H_0 = 100
w_de = -1
zeff = 0
beta = 0
fgrowth = 0
b_1 = 2
gamma = 0.55
Lx = 3500 Ly = 3500 Lz = 3500
nx = 700 ny = 700 nz = 700
xoffset = 857.220397 yoffset = 15.9954215 zoffset = 262.898189
bins = 400 dk = 0.001
kx_ny = 0.628318531 ky_ny = 0.628318531 kz_ny = 0.628318531
############################
A(data) = 3.06102321 (not used)
A(ran) = 3.06092994 (used)
Ngal = 186905
weighted Ngal = 0
Nran = 9360983
weighted Nran = 0
SN(data) = 3448.99797
SN(ran) = 68.736983
SN(data+ran) = 3517.73496
############################
13 columns: k_central k_mean P_0(k) sigma^{lin}_{P_0(k)} P^img_1(k) sigma^{lin}_{P_1(k)} P_2(k) sigma^{lin}_{P_2(k)} P^img_3(k) sigma^{lin}_{P_3(k)} P_4(k) sigma^{lin}_{P_4(k)} N_modes
### header ###
0.00050000 0 0 0 0 0 0 0 0 0 0 0 0
0.00150000 0.00179520 981.05139791 0 -5228.86970379 0 -4061.48316277 0 9329.00946443 0 -6737.81465792 0 3
0.00250000 0.00253879 6996.67560360 0 -7986.10016224 0 34.75204543 0 -4877.04857656 0 12520.84844274 0 6
0.00350000 0.00331552 10416.50870070 0 -6366.12006020 0 2115.33309846 0 -12706.88121234 0 -5276.84480111 0 7
0.00450000 0.00420575 16696.75018931 0 -3196.94223375 0 7619.69991102 0 -20797.56438899 0 707.03917911 0 24
0.00550000 0.00557378 20768.33869709 0 -2185.99182896 0 14982.66335934 0 -17509.78645668 0 7977.55726769 0 45
0.00650000 0.00659388 31795.64187720 0 -2235.85535560 0 22826.27703292 0 -6006.57660591 0 -1215.11434402 0 40
0.00750000 0.00754703 36496.36960640 0 -7072.98838141 0 18055.18283015 0 11027.23573621 0 -1634.19952522 0 57
0.00850000 0.00846663 48606.59707794 0 -11337.20792077 0 26765.56308159 0 4887.72719475 0 -13451.91154279 0 75
0.00950000 0.00948925 55628.96880911 0 -9220.34609381 0 19472.74129383 0 13946.61258146 0 -4285.82407006 0 112
0.01050000 0.01054430 66693.14132362 0 -2022.57524863 0 9544.91988367 0 26211.62381357 0 -13058.15154769 0 105
0.01150000 0.01145670 67377.13492060 0 483.02200256 0 -3170.84144275 0 24806.99209822 0 5728.87632960 0 144
0.01250000 0.01249090 66904.57796387 0 1634.25572848 0 6358.20664208 0 25928.92144768 0 12184.19095335 0 169
0.01350000 0.01339930 64145.11061592 0 -761.54397044 0 3897.57199381 0 17432.67559266 0 30824.78687357 0 180
0.01450000 0.01448870 68217.48596925 0 -2714.50474503 0 3719.77862120 0 32104.31014628 0 42357.69452356 0 267
0.01550000 0.01550050 70581.61963100 0 -6070.89560940 0 -10908.20848562 0 3781.17505549 0 34359.29708942 0 238
0.01650000 0.01653350 76964.39833557 0 -2307.15480319 0 18555.95382021 0 9165.73901256 0 52697.63191148 0 315
0.01750000 0.01747870 77302.51710956 0 2912.30647594 0 14226.84200419 0 -2951.53634699 0 28491.90222086 0 297
0.01850000 0.01844180 74705.47716467 0 1817.62446385 0 29604.61423672 0 6227.37670822 0 52180.67438436 0 388
0.01950000 0.01947590 80894.57945716 0 2179.33736372 0 24387.60341945 0 -4919.25722005 0 39062.72257479 0 399
0.02050000 0.02045430 77840.83187307 0 -2224.12011624 0 28638.48030639 0 -1897.79278487 0 33610.33253121 0 462
0.02150000 0.02154770 83822.76897258 0 -3491.82946503 0 30006.91712638 0 2910.31688076 0 23016.58124979 0 571
0.02250000 0.02255340 84537.78676558 0 1080.96504600 0 31074.32931980 0 -5729.49456539 0 18378.91357120 0 510
0.02350000 0.02348930 86048.53022382 0 5830.63794067 0 47781.42090778 0 -7623.57793552 0 23750.93296205 0 555
0.02450000 0.02439640 86265.02515690 0 5851.56803233 0 40777.82106332 0 -12809.84557304 0 11119.56644132 0 592
0.02550000 0.02547300 81581.15840381 0 9227.42770377 0 62373.92128024 0 -5315.92854370 0 26769.72212236 0 837
0.02650000 0.02652900 75254.69535939 0 4778.73784527 0 55999.79787672 0 6266.86511424 0 4800.45478248 0 723
0.02750000 0.02749970 75321.35241823 0 -2290.28258644 0 62544.55435834 0 15533.34283865 0 12727.78882270 0 826
0.02850000 0.02848090 74136.13820515 0 -2180.85485157 0 45771.36774406 0 17125.80582771 0 -13839.48918000 0 831
0.02950000 0.02946900 75792.78530988 0 -1428.07971277 0 34669.76386261 0 17383.77876199 0 -7217.31833680 0 996
0.03050000 0.03053250 71183.10685161 0 2574.79469709 0 16323.78539805 0 6952.73589989 0 -22745.56916067 0 1041
0.03150000 0.03150510 67731.32782514 0 6497.60195180 0 14029.90580338 0 5210.13153902 0 -21716.48758625 0 1036
0.03250000 0.03246190 59221.59318924 0 6034.44217908 0 8686.10044587 0 1827.32514543 0 -21998.96513912 0 1059
0.03350000 0.03345080 54257.49701342 0 5801.65954309 0 5988.52412084 0 -1511.72139486 0 -17497.53414738 0 1302
0.03450000 0.03451200 51555.69420372 0 2074.49581436 0 8820.72971967 0 3027.12972316 0 -11299.32692781 0 1339
0.03550000 0.03553350 49213.36740440 0 1254.71515655 0 13643.90185728 0 519.31918784 0 -8478.68795858 0 1365
0.03650000 0.03647120 50736.25076543 0 860.29645931 0 15153.07162442 0 4135.82882671 0 60.27967564 0 1308
0.03750000 0.03744890 50168.71031002 0 60.12028322 0 16755.98841866 0 2324.02701993 0 2651.45593508 0 1579
0.03850000 0.03847530 50684.31895905 0 58.52276193 0 13978.19881002 0 2070.56158660 0 7770.53820318 0 1662
0.03950000 0.03950240 48903.57507025 0 -251.06892660 0 11305.39687920 0 3765.46062577 0 1167.25165321 0 1683
0.04050000 0.04050350 50061.81172157 0 560.86575700 0 8231.21379208 0 2627.09744494 0 2761.09724231 0 1822
0.04150000 0.04152450 47464.65937018 0 1384.46598793 0 6392.74916178 0 1916.42978378 0 1046.24155183 0 1887
0.04250000 0.04250150 45258.90647723 0 2700.13919339 0 2140.98426343 0 1390.82819625 0 -2139.77027315 0 1920
0.04350000 0.04349210 43077.43338987 0 2616.09284788 0 2873.02040164 0 -1998.54273737 0 -3980.51675556 0 2005
0.04450000 0.04448520 40744.09911113 0 1586.03333684 0 6431.02357752 0 -2547.49115647 0 -3109.28763935 0 2151
0.04550000 0.04548030 41002.40926493 0 1111.61717648 0 9872.23639230 0 -5480.97501838 0 -1665.25744319 0 2274
0.04650000 0.04648670 39812.24916553 0 255.07621858 0 14677.14247247 0 -5862.01059686 0 -3084.45704189 0 2311
0.04750000 0.04749250 41681.11975607 0 730.10274628 0 16931.79219609 0 -6371.41440669 0 -2934.51800178 0 2568
0.04850000 0.04851840 40697.33800409 0 809.65058337 0 20542.28921089 0 -2864.48874773 0 -3835.27630746 0 2493
0.04950000 0.04949480 41609.74162392 0 1131.73119690 0 25034.50286902 0 -1051.41000303 0 -1962.38156397 0 2644
0.05050000 0.05050630 40620.45195309 0 1004.68599014 0 20796.55273042 0 3533.01520931 0 -3685.56208038 0 2829
0.05150000 0.05149060 41022.30521672 0 1384.97181722 0 24550.03082251 0 1337.59247439 0 -2612.22606403 0 2784
0.05250000 0.05249300 39120.49951955 0 1009.08108458 0 19240.50944973 0 3931.72109073 0 -2059.91669036 0 3055
0.05350000 0.05348950 38630.96918021 0 267.97823749 0 22281.66750500 0 3769.29368767 0 -300.13211891 0 3009
0.05450000 0.05448610 39140.95750388 0 -238.87844088 0 18314.95426854 0 2864.23021276 0 3958.61996793 0 3336
0.05550000 0.05550870 38727.07674396 0 323.79593683 0 21053.96363216 0 3853.71097466 0 4041.58721098 0 3349
0.05650000 0.05647670 39188.84267599 0 12.10011089 0 17812.04755484 0 3873.62940776 0 2828.02407676 0 3324
0.05750000 0.05747970 38338.03782216 0 800.33882831 0 18766.15398888 0 1685.20959824 0 4759.51633252 0 3639
0.05850000 0.05849280 37140.12167376 0 622.37459780 0 15136.88508737 0 1879.85270630 0 -664.17970194 0 3846
0.05950000 0.05951020 37572.32469437 0 780.83854742 0 16079.52605767 0 609.52765808 0 3194.98636052 0 3787
0.06050000 0.06049470 35346.45103662 0 844.72815804 0 13075.01252378 0 1703.82411585 0 415.19591605 0 3930
0.06150000 0.06148310 35782.25106546 0 1179.17798363 0 15395.98208672 0 921.75471718 0 2132.50881278 0 4083
0.06250000 0.06249100 34935.04321986 0 742.73161738 0 13957.96563870 0 1522.93956429 0 832.90186941 0 4303
0.06350000 0.06350600 34140.10440017 0 823.05281124 0 14499.31537791 0 1103.54076893 0 4100.52194276 0 4470
0.06450000 0.06451750 33088.65393079 0 1073.79463490 0 14094.31473207 0 2894.45632258 0 4534.95061221 0 4479
0.06550000 0.06550280 31665.47514174 0 868.42120165 0 11490.98002277 0 2398.93471641 0 5293.57088940 0 4636
0.06650000 0.06648880 30612.11376174 0 1097.31232436 0 13443.81827427 0 3111.40088169 0 6568.66534572 0 4653
0.06750000 0.06749660 29524.69321002 0 1448.63886296 0 10289.87152956 0 2323.70104106 0 3997.10795604 0 5220
0.06850000 0.06852730 28234.04169309 0 295.25592462 0 10002.56049688 0 1598.56666241 0 5207.10780397 0 5029
0.06950000 0.06949320 28240.33645750 0 -267.06437259 0 7137.57716051 0 1087.50148440 0 4417.11487060 0 5040
0.07050000 0.07048030 28402.08942152 0 -1121.33359497 0 6012.46670690 0 1761.55609801 0 4292.43357269 0 5475
0.07150000 0.07148790 29497.94046128 0 -781.44217036 0 4821.14882047 0 1072.71216023 0 3716.85605201 0 5509
0.07250000 0.07249820 29655.75919754 0 -439.06206568 0 3510.71375826 0 1060.37779419 0 3261.84575107 0 5916
0.07350000 0.07351270 30116.06384498 0 768.01296493 0 2426.94641803 0 -581.60925386 0 2751.54268919 0 5721
0.07450000 0.07449140 28856.66133708 0 1104.10280147 0 3612.80134819 0 -879.36172701 0 895.57411756 0 6028
0.07550000 0.07549160 27462.59583342 0 1506.86543374 0 3714.32690560 0 -1318.02250146 0 1798.61652347 0 6183
0.07650000 0.07648840 26366.96960667 0 887.53368009 0 4551.90151351 0 -1879.08834205 0 -1594.20528992 0 6330
0.07750000 0.07749960 26152.04836469 0 644.30285925 0 5435.40542032 0 -1609.34644646 0 -975.65925776 0 6583
0.07850000 0.07848650 26066.16979311 0 85.63408743 0 5531.05211739 0 -896.11029660 0 -1807.82261641 0 6549
0.07950000 0.07947320 25891.60248726 0 -83.89909299 0 6589.17953330 0 384.59436850 0 -1394.26783537 0 6828
0.08050000 0.08048110 25768.74217477 0 197.71180571 0 6792.10700095 0 -249.38170492 0 -2178.34818646 0 7147
0.08150000 0.08149960 26049.19641051 0 632.25512980 0 6823.23236282 0 211.88851441 0 -1716.69466094 0 7386
0.08250000 0.08250610 25274.26594911 0 927.86513492 0 7660.82945204 0 767.11483694 0 -436.75323602 0 7227
0.08350000 0.08350160 24318.13619793 0 997.39867627 0 6554.69321686 0 24.86285813 0 -1333.93926290 0 7798
0.08450000 0.08449610 23848.16459087 0 854.03654091 0 7652.79238677 0 134.34600941 0 839.17078032 0 7371
0.08550000 0.08548940 22596.96775800 0 1039.49940952 0 7541.06031850 0 -25.98164010 0 -1604.55792925 0 8256
0.08650000 0.08650700 22171.50912784 0 872.46783592 0 9025.09599061 0 -1071.97589761 0 618.93833088 0 8037
0.08750000 0.08749060 21339.81338025 0 617.89182629 0 9415.05664577 0 -858.70927942 0 -333.25831661 0 8155
0.08850000 0.08849210 21674.67236553 0 76.83108422 0 10335.13763005 0 -1054.91596200 0 430.84177780 0 8718
0.08950000 0.08949900 21648.93127535 0 -202.78808358 0 11203.18564210 0 -203.42318034 0 367.40066914 0 8571
0.09050000 0.09049190 22070.23086475 0 -163.57057724 0 11644.19009223 0 499.02306888 0 1300.46460502 0 8932
0.09150000 0.09150830 22010.43060286 0 256.43633732 0 11237.36846098 0 1477.51609468 0 194.48798708 0 9285
0.09250000 0.09250820 21496.62045795 0 436.05294348 0 10228.84603674 0 1634.54798540 0 675.74520747 0 9204
0.09350000 0.09350330 20907.04832711 0 668.32750206 0 9636.92460990 0 1980.10807017 0 1322.45131785 0 9349
0.09450000 0.09448040 20270.04065018 0 324.45576302 0 6941.04562313 0 2383.75983792 0 -494.13338581 0 9564
0.09550000 0.09549270 19690.24788548 0 275.77025658 0 6232.14274413 0 1855.29188445 0 116.81621459 0 10155
0.09650000 0.09649430 19098.87725052 0 496.33542929 0 5070.50017564 0 745.92621031 0 -840.95579566 0 9913
0.09750000 0.09749140 18539.54247015 0 452.79139649 0 4442.06911522 0 314.10312370 0 -782.42010698 0 10476
0.09850000 0.09850240 17883.87531301 0 653.79671286 0 4058.08848625 0 -146.16442959 0 -1664.50431959 0 10575
0.09950000 0.09950330 17527.09705881 0 332.08816487 0 3778.55598387 0 -295.74489293 0 -1674.22748248 0 10882
0.10050000 0.10051200 17084.32782651 0 396.69830121 0 4195.24690647 0 -150.95407086 0 -1122.83197371 0 10875
0.10150000 0.10150300 17121.19716091 0 97.33639169 0 3821.60767617 0 -31.00834670 0 -1929.82863945 0 11118
0.10250000 0.10250800 17195.94748827 0 40.18307823 0 5078.04265228 0 -49.28609441 0 178.79154240 0 11575
0.10350000 0.10349800 17206.73851297 0 114.28257192 0 4850.43071563 0 -84.56993503 0 -669.08062566 0 11364
0.10450000 0.10450100 17173.01656078 0 105.98663446 0 5503.73733611 0 -19.20060514 0 928.41929900 0 12093
0.10550000 0.10551000 17316.67207712 0 266.49222347 0 5860.06596429 0 207.19104647 0 1155.11175042 0 12067
0.10650000 0.10649700 16943.25765984 0 398.93069444 0 6390.88321376 0 -40.03919790 0 2199.21083422 0 12054
0.10750000 0.10749900 16718.55705173 0 425.08993682 0 6198.76925211 0 608.81275270 0 1464.35329268 0 12807
0.10850000 0.10850100 16050.74999180 0 418.35791110 0 6362.92771539 0 683.70920852 0 2412.10875906 0 12736
0.10950000 0.10950300 15684.86681050 0 459.82804384 0 5030.78695661 0 714.31525233 0 1584.32475793 0 12933
0.11050000 0.11050200 15297.73879933 0 154.25095372 0 5326.15753587 0 731.75737007 0 1097.75295787 0 13428
0.11150000 0.11150900 14991.88069294 0 251.24540481 0 3999.24367967 0 696.07392432 0 217.61225376 0 13453
0.11250000 0.11250000 14573.05404670 0 175.27434278 0 3435.28899185 0 -35.37095566 0 -459.20531179 0 13668
0.11350000 0.11349100 14552.59606237 0 216.17457453 0 3295.07311463 0 -387.09204109 0 -882.19774319 0 13791
0.11450000 0.11448600 14271.46738759 0 29.40138327 0 2780.19510790 0 -255.30103160 0 -1840.67903850 0 14205
0.11550000 0.11549300 14519.99817525 0 45.54441901 0 3046.93574975 0 -263.19421654 0 -2055.29678291 0 14776
0.11650000 0.11649800 14481.10552372 0 -127.38804660 0 3041.46155284 0 -168.29165055 0 -2359.99710227 0 14553
0.11750000 0.11747300 14590.36464883 0 203.23096522 0 3104.07197741 0 -0.24221242 0 -2503.92239423 0 14568
0.11850000 0.11849100 14460.87235241 0 196.23253607 0 3511.74789812 0 -79.67283313 0 -2193.36569584 0 16015
0.11950000 0.11950300 14349.92712969 0 115.07616186 0 3381.68232851 0 353.20035507 0 -1383.71286433 0 15270
0.12050000 0.12050700 14373.30768321 0 98.41942839 0 3733.61586225 0 287.84721172 0 -821.72978665 0 15999
0.12150000 0.12150000 14358.80724377 0 9.54225585 0 3385.59407497 0 205.17110153 0 -791.07990430 0 15670
0.12250000 0.12250700 14404.21947272 0 122.97384306 0 4223.41597720 0 -31.73685327 0 -21.63218271 0 16887
0.12350000 0.12352200 14417.37103408 0 151.55432161 0 4140.75223173 0 -800.51643059 0 -31.30094084 0 16407
0.12450000 0.12449800 14346.33012146 0 259.64554311 0 4720.83725335 0 -528.94230893 0 -327.39631726 0 16306
0.12550000 0.12549900 14292.59981096 0 161.85637801 0 4804.98476472 0 -508.19543987 0 -279.60444254 0 17523
0.12650000 0.12650100 14092.06660192 0 152.62218343 0 4453.91676109 0 274.30784792 0 -674.36935182 0 17154
0.12750000 0.12750600 14000.79251799 0 59.20169724 0 4941.09780442 0 610.31562770 0 -562.88795007 0 18007
0.12850000 0.12850300 13725.62138809 0 32.64397379 0 4046.69046641 0 1135.96892222 0 -999.95255212 0 17496
0.12950000 0.12949900 13816.10862648 0 152.32205806 0 4125.93705406 0 1021.77852364 0 18.13634033 0 18405
0.13050000 0.13049000 13601.74941704 0 142.99456608 0 3406.94007071 0 813.32964836 0 164.02919579 0 18100
0.13150000 0.13148800 13432.69003004 0 205.93321765 0 3591.27550204 0 471.22831181 0 1274.30761077 0 19059
0.13250000 0.13249300 13154.93355048 0 271.72811858 0 3508.30825900 0 -143.01255112 0 1113.46963572 0 18957
0.13350000 0.13349100 12855.93224103 0 458.38924055 0 3706.44720943 0 -401.40251354 0 1306.73688813 0 19468
0.13450000 0.13450700 12504.99912521 0 404.31721427 0 4013.93521018 0 -634.57520011 0 836.92602237 0 19953
0.13550000 0.13551000 12378.87902401 0 378.69077874 0 3999.13127317 0 -272.45201648 0 407.39265631 0 19956
0.13650000 0.13649900 11907.67094537 0 163.11420682 0 3924.06620759 0 -199.01010087 0 92.85991494 0 19723
0.13750000 0.13749600 11955.10649145 0 10.85856977 0 3816.61682725 0 268.39751376 0 -403.98673914 0 20946
0.13850000 0.13851100 12037.95008734 0 43.10991887 0 3887.33176100 0 326.70614130 0 -71.03529229 0 20955
0.13950000 0.13949800 12061.78026689 0 145.47987396 0 3487.64794296 0 127.26889571 0 126.97663879 0 20506
0.14050000 0.14048300 11846.74661841 0 275.20372778 0 4086.19011308 0 414.69458303 0 1094.71348591 0 21447
0.14150000 0.14148400 11792.11705585 0 260.87864249 0 4270.39065661 0 165.92436951 0 1456.46235587 0 21771
0.14250000 0.14249400 11621.82119728 0 260.57964118 0 4452.12949763 0 224.46343038 0 1970.84577397 0 22470
0.14350000 0.14350900 11410.49696354 0 242.58673156 0 4575.05725402 0 344.08531140 0 2084.85969433 0 22519
0.14450000 0.14449900 11035.21659823 0 240.30600352 0 4120.17060024 0 65.38709012 0 1504.83087596 0 22218
0.14550000 0.14550500 11030.13582410 0 192.18814994 0 4066.41780844 0 -183.32939310 0 1287.84135425 0 23559
0.14650000 0.14650700 10647.60523907 0 168.22870291 0 3724.03882783 0 -23.67179878 0 263.91586632 0 23044
0.14750000 0.14750500 10622.96573267 0 88.74156533 0 3778.39861476 0 -228.62809148 0 30.72418305 0 23649
0.14850000 0.14849900 10326.06642491 0 119.63424573 0 3023.31914256 0 105.88816636 0 -1145.53471600 0 23640
0.14950000 0.14949500 10384.94495344 0 183.83409831 0 3484.06217537 0 96.64610333 0 -697.46102062 0 24457
0.15050000 0.15050000 10117.94577663 0 138.25101147 0 2930.07794475 0 173.71414046 0 -1537.96831432 0 24591
0.15150000 0.15149900 10061.22545304 0 180.25395106 0 3143.22316391 0 -14.03653779 0 -1306.21981819 0 25020
0.15250000 0.15250500 9925.10117269 0 181.74895760 0 2880.58535958 0 81.68996790 0 -1403.64253808 0 25297
0.15350000 0.15350100 9798.84618368 0 143.20364218 0 3196.33523861 0 -113.58452751 0 -1433.23917146 0 25452
0.15450000 0.15450400 9810.49149784 0 17.41367889 0 2986.75330573 0 97.98902387 0 -1137.78990764 0 26061
0.15550000 0.15549900 9790.48313954 0 -51.53647269 0 3023.00440434 0 262.65241718 0 -1370.33648996 0 26128
0.15650000 0.15649500 9811.85161657 0 -19.81569355 0 2983.89818045 0 208.98055807 0 -1271.49744809 0 26331
0.15750000 0.15749700 9795.90113319 0 110.97051418 0 2722.84530787 0 370.13214727 0 -1266.77637478 0 27345
0.15850000 0.15849900 9561.38743699 0 200.32750513 0 2524.31293466 0 215.34838670 0 -849.95281250 0 26980
0.15950000 0.15949700 9493.49390657 0 194.59477326 0 2516.33207264 0 355.91722036 0 -792.43777491 0 27777
0.16050000 0.16050000 9347.93872026 0 155.08276188 0 2372.02459856 0 361.03958489 0 -628.57494075 0 28224
0.16150000 0.16150500 9201.47304123 0 157.47027609 0 2296.99325493 0 -38.69268035 0 -553.49975858 0 28075
0.16250000 0.16249700 9072.48657409 0 199.11126672 0 2501.34828522 0 -235.98959364 0 -443.46840077 0 28590
0.16350000 0.16349900 8990.18252944 0 218.00904873 0 2697.54260307 0 -224.94228210 0 -229.00352921 0 29163
0.16450000 0.16449100 8736.12134162 0 221.90281015 0 2894.33267542 0 -131.25258233 0 -448.96170678 0 28996
0.16550000 0.16550500 8634.59578422 0 132.52614805 0 2898.69404791 0 -0.75902831 0 -304.54969465 0 30777
0.16650000 0.16650700 8519.35663292 0 139.32336955 0 2966.69998483 0 344.89126605 0 -544.94562337 0 29211
0.16750000 0.16749900 8382.11952815 0 100.47657988 0 2636.37098180 0 379.90364495 0 -442.79283766 0 30922
0.16850000 0.16850800 8296.26343786 0 63.89545576 0 2652.45635299 0 333.19424490 0 -193.61009226 0 30867
0.16950000 0.16949900 8252.89700734 0 100.76748792 0 2319.19354012 0 121.91047750 0 -195.40859637 0 30852
0.17050000 0.17049200 8136.47758772 0 51.26208841 0 2239.14886626 0 243.48485955 0 174.51559886 0 31257
0.17150000 0.17149500 8097.28143862 0 -33.22151842 0 2282.54901874 0 392.94729606 0 404.91409283 0 32608
0.17250000 0.17250900 8217.25290388 0 -55.73856515 0 2103.12575177 0 244.68760918 0 592.11139384 0 32361
0.17350000 0.17350400 8343.03578556 0 -12.09741313 0 2100.25938583 0 345.30492200 0 761.67998231 0 32508
0.17450000 0.17449800 8283.40413343 0 23.86019209 0 2017.40454929 0 198.91567940 0 1218.77879616 0 32791
0.17550000 0.17549800 8310.53906429 0 65.78939300 0 2116.81686436 0 43.34125146 0 1524.51325539 0 33633
0.17650000 0.17650100 8355.37802006 0 71.40050104 0 2037.21057588 0 154.15990445 0 1708.96109324 0 33984
0.17750000 0.17750300 8225.87448299 0 114.76816803 0 2185.38483382 0 18.31742721 0 1631.13082757 0 34069
