### header ###
fiducial parameters:
Omega_m = 0.31
Omega_nu = 0
Omega_de = 0.69
Omega_k = 0
H_0 = 100
w_de = -1
zeff = 0
beta = 0
fgrowth = 0
b_1 = 2
gamma = 0.55
Lx = 3500 Ly = 3500 Lz = 3500
nx = 700 ny = 700 nz = 700
xoffset = 857.220397 yoffset = 15.9954215 zoffset = 262.898189
bins = 400 dk = 0.001
kx_ny = 0.628318531 ky_ny = 0.628318531 kz_ny = 0.628318531
############################
A(data) = 3.08332455 (not used)
A(ran) = 3.08406149 (used)
Ngal = 188133
weighted Ngal = 0
Nran = 9360983
weighted Nran = 0
SN(data) = 3438.85608
SN(ran) = 69.2564305
SN(data+ran) = 3508.11251
############################
13 columns: k_central k_mean P_0(k) sigma^{lin}_{P_0(k)} P^img_1(k) sigma^{lin}_{P_1(k)} P_2(k) sigma^{lin}_{P_2(k)} P^img_3(k) sigma^{lin}_{P_3(k)} P_4(k) sigma^{lin}_{P_4(k)} N_modes
### header ###
0.00050000 0 0 0 0 0 0 0 0 0 0 0 0
0.00150000 0.00179520 33515.12421952 0 -40933.72888896 0 -16314.90528398 0 37863.90717433 0 22101.81709330 0 3
0.00250000 0.00253879 71559.78105761 0 -55233.97234242 0 -9912.65777233 0 -36575.16656802 0 11911.60517312 0 6
0.00350000 0.00331552 98546.33533257 0 -49903.76817229 0 -10324.16675494 0 -35857.45101885 0 3223.05426540 0 7
0.00450000 0.00420575 136899.88525274 0 -37590.87176807 0 -3300.14264811 0 -59899.96646086 0 16201.14989858 0 24
0.00550000 0.00557378 159429.52151287 0 -16600.19299953 0 23666.51567506 0 -50292.58228108 0 44431.70698994 0 45
0.00650000 0.00659388 176357.94151374 0 9380.01953744 0 22723.42507873 0 -22680.37338643 0 -56796.64760704 0 40
0.00750000 0.00754703 156176.47719132 0 13033.30970957 0 44433.73030707 0 -4709.05705138 0 8154.82232972 0 57
0.00850000 0.00846663 149570.34675671 0 22363.49944232 0 23234.98709350 0 13295.32927811 0 -6416.01730879 0 75
0.00950000 0.00948925 127141.87635317 0 21796.85823897 0 23259.82893161 0 15517.15630160 0 20727.53513493 0 112
0.01050000 0.01054430 113047.22440158 0 13529.69684585 0 -2657.62705233 0 26018.39702750 0 -24529.79765120 0 105
0.01150000 0.01145670 99029.00887496 0 15261.88112350 0 -9789.81994114 0 11114.44070458 0 11004.96800711 0 144
0.01250000 0.01249090 91671.10371947 0 10077.56935920 0 -12413.05060223 0 1893.30776522 0 -2187.92522088 0 169
0.01350000 0.01339930 84745.28917807 0 3165.92927838 0 -6460.88998651 0 -4597.68468394 0 8456.63380184 0 180
0.01450000 0.01448870 79274.12724778 0 4645.06402677 0 -742.42025135 0 -9037.67427878 0 10295.64922404 0 267
0.01550000 0.01550050 83778.70562172 0 2748.11429071 0 9368.11568832 0 6719.52611918 0 -5030.69703140 0 238
0.01650000 0.01653350 73734.50975453 0 2324.65649637 0 14898.13366584 0 5848.56677859 0 6871.84817723 0 315
0.01750000 0.01747870 74536.97981022 0 3834.08479848 0 23230.82805272 0 14608.01247047 0 2044.30342649 0 297
0.01850000 0.01844180 62180.80690068 0 1251.28675807 0 8344.09240672 0 11458.49454216 0 2406.20741743 0 388
0.01950000 0.01947590 67618.92131783 0 124.30698424 0 927.57962239 0 13372.10292260 0 -9178.50839179 0 399
0.02050000 0.02045430 62871.20766858 0 -649.94791405 0 -1970.38490729 0 -2346.94670677 0 -5708.72184284 0 462
0.02150000 0.02154770 65623.25618705 0 -61.79918681 0 -4571.89863117 0 -7012.41251462 0 -1723.94488066 0 571
0.02250000 0.02255340 58602.34574047 0 3435.95219024 0 -2726.86946083 0 -15763.55136562 0 -5345.90735920 0 510
0.02350000 0.02348930 63283.28992438 0 1596.16116315 0 -441.35291030 0 -10432.49290604 0 -1978.83787664 0 555
0.02450000 0.02439640 61440.16042402 0 1622.50924846 0 5883.58140562 0 -6268.05662322 0 -12679.34161805 0 592
0.02550000 0.02547300 63774.28154831 0 -1017.11252952 0 3555.22673515 0 946.99110213 0 -791.73073798 0 837
0.02650000 0.02652900 64076.31783345 0 204.16281516 0 16865.47235678 0 -5860.69544073 0 -11359.57681573 0 723
0.02750000 0.02749970 65085.61586258 0 2186.04803221 0 16634.70179727 0 -3068.75385281 0 -4318.64677020 0 826
0.02850000 0.02848090 64325.74787317 0 4213.09705983 0 30475.76466837 0 -10464.75357363 0 -9416.25939540 0 831
0.02950000 0.02946900 59548.47131250 0 4766.32816686 0 30497.45912428 0 -10035.64173198 0 -9890.24391477 0 996
0.03050000 0.03053250 57865.63349156 0 2684.78446449 0 34348.05643869 0 -8038.29050359 0 -6775.14485899 0 1041
0.03150000 0.03150510 55181.92812954 0 891.99059811 0 39313.61389910 0 777.76198131 0 -18368.90939205 0 1036
0.03250000 0.03246190 56092.08361923 0 1717.59391300 0 32379.14405665 0 43.88799671 0 -13502.04484505 0 1059
0.03350000 0.03345080 51997.00215142 0 2424.76573179 0 36669.47562765 0 8475.36072596 0 -22742.75899799 0 1302
0.03450000 0.03451200 46555.85275858 0 5250.87889792 0 21963.21986979 0 1891.92516518 0 -17134.57353528 0 1339
0.03550000 0.03553350 44135.85306270 0 3161.35433354 0 24686.04269636 0 4993.71529050 0 -20940.88268581 0 1365
0.03650000 0.03647120 41580.29111901 0 1043.81806753 0 17761.91425258 0 4412.29263144 0 -11327.65336765 0 1308
0.03750000 0.03744890 42763.93164098 0 -2176.67332950 0 20208.10466465 0 2215.57722168 0 -11995.91005361 0 1579
0.03850000 0.03847530 46979.17566510 0 -2323.61111586 0 22412.73349252 0 3869.69518000 0 -2657.95303120 0 1662
0.03950000 0.03950240 47969.25218149 0 -698.46705886 0 25026.18478748 0 5521.75609924 0 -222.93582595 0 1683
0.04050000 0.04050350 49742.68964732 0 1469.91741479 0 23625.03767386 0 8103.10409570 0 7203.75087137 0 1822
0.04150000 0.04152450 46588.11342617 0 2478.95690896 0 21317.66929831 0 3840.99779868 0 13418.18959060 0 1887
0.04250000 0.04250150 45378.73181403 0 3466.61668544 0 21917.92004734 0 7680.89401360 0 13250.36667519 0 1920
0.04350000 0.04349210 41619.52099006 0 2052.31801046 0 18639.69666816 0 7243.25051804 0 17428.40414539 0 2005
0.04450000 0.04448520 40587.85406597 0 886.51752527 0 14421.97970088 0 5891.35993592 0 14851.82218483 0 2151
0.04550000 0.04548030 38658.95840053 0 -28.52135273 0 12660.56973133 0 1510.29383222 0 12968.90078088 0 2274
0.04650000 0.04648670 39840.23838585 0 -213.67915007 0 10006.14626446 0 1325.52001550 0 9674.61451180 0 2311
0.04750000 0.04749250 38076.80509917 0 602.50225138 0 11482.99916075 0 -2287.96701239 0 5825.34359418 0 2568
0.04850000 0.04851840 38503.16298140 0 1569.54330222 0 11369.01896234 0 -5142.59770943 0 3411.95340093 0 2493
0.04950000 0.04949480 37120.90016101 0 2253.16595773 0 17114.22795746 0 -4249.80902512 0 2981.76245681 0 2644
0.05050000 0.05050630 35986.83090876 0 1781.10358963 0 15578.19303507 0 -2761.50190573 0 2047.49577130 0 2829
0.05150000 0.05149060 35301.82565321 0 254.12975579 0 19837.61281656 0 207.10561752 0 1291.94419177 0 2784
0.05250000 0.05249300 35567.66704300 0 -197.58815855 0 18098.90896149 0 3265.06057718 0 3861.82672449 0 3055
0.05350000 0.05348950 36773.11442739 0 -787.72794225 0 19347.74525770 0 5900.03771829 0 3650.19899318 0 3009
0.05450000 0.05448610 36114.29988805 0 -255.90690267 0 14068.01160936 0 4795.69998722 0 5932.70304931 0 3336
0.05550000 0.05550870 35763.02955271 0 428.88253238 0 12732.17267649 0 3733.27864273 0 4553.66629568 0 3349
0.05650000 0.05647670 35484.71104061 0 385.27330380 0 11240.87554401 0 2776.13723299 0 7514.67851124 0 3324
0.05750000 0.05747970 34600.29664109 0 421.86724226 0 8823.74221407 0 3326.85043425 0 7161.41858071 0 3639
0.05850000 0.05849280 34680.10526128 0 49.25203524 0 9770.96936987 0 1155.07802847 0 9024.25294181 0 3846
0.05950000 0.05951020 33769.94977159 0 -280.56214599 0 6134.45024863 0 2090.80599857 0 6557.07623481 0 3787
0.06050000 0.06049470 34951.34216342 0 156.26190614 0 8920.01838758 0 -2.76440199 0 9080.97326540 0 3930
0.06150000 0.06148310 34454.05577508 0 121.77334156 0 7182.85450166 0 -109.48742272 0 8134.72404621 0 4083
0.06250000 0.06249100 35142.99525839 0 -120.37612868 0 10108.52611132 0 437.53895751 0 9992.55631773 0 4303
0.06350000 0.06350600 34850.85074589 0 427.86188129 0 8114.78313181 0 75.14656030 0 9530.14966861 0 4470
0.06450000 0.06451750 35750.66483690 0 -572.09516708 0 11200.91503066 0 662.32949083 0 10208.09579549 0 4479
0.06550000 0.06550280 36301.79394224 0 793.41233933 0 10125.91539800 0 378.82004622 0 7496.40121315 0 4636
0.06650000 0.06648880 35372.97897234 0 763.67070156 0 12353.58755987 0 -350.51833581 0 7389.13168322 0 4653
0.06750000 0.06749660 33755.33692564 0 1999.45323008 0 12335.93973822 0 -1804.88880657 0 6641.43731855 0 5220
0.06850000 0.06852730 33150.25269680 0 1523.46787487 0 13655.03010150 0 -848.82312710 0 5550.27363014 0 5029
0.06950000 0.06949320 31386.59459710 0 1701.22752553 0 13297.68981476 0 -634.23685652 0 2324.20687035 0 5040
0.07050000 0.07048030 31047.57657106 0 1275.91502382 0 14521.68427286 0 -718.24385976 0 2782.66805106 0 5475
0.07150000 0.07148790 28678.94664902 0 143.39922951 0 11292.47013086 0 452.88806608 0 -1242.06942447 0 5509
0.07250000 0.07249820 29639.68506700 0 -50.05079588 0 13265.31674066 0 1473.76171734 0 280.49695021 0 5916
0.07350000 0.07351270 28564.51682458 0 90.12158002 0 10656.26054014 0 2231.74127743 0 -3500.31615633 0 5721
0.07450000 0.07449140 28884.31333788 0 491.87176688 0 10186.13156396 0 2736.25540419 0 -2331.41212746 0 6028
0.07550000 0.07549160 27691.00585627 0 926.74444204 0 8025.26258939 0 787.93364616 0 -87.26128403 0 6183
0.07650000 0.07648840 27102.22057099 0 746.60064936 0 7412.28742373 0 1958.02019148 0 -964.10049661 0 6330
0.07750000 0.07749960 26655.40470443 0 503.30575681 0 7782.52073686 0 -91.87208655 0 1035.15377395 0 6583
0.07850000 0.07848650 26143.16825062 0 164.62607435 0 6412.38657860 0 900.28957054 0 -233.04791535 0 6549
0.07950000 0.07947320 26219.26745607 0 139.34360272 0 6768.13069294 0 195.36925410 0 1841.88178813 0 6828
0.08050000 0.08048110 26057.73930506 0 184.18368255 0 4969.54789142 0 804.18425492 0 -17.47572728 0 7147
0.08150000 0.08149960 25546.85172934 0 259.65678376 0 4678.06657732 0 904.26763684 0 -312.19333714 0 7386
0.08250000 0.08250610 25277.86295735 0 432.71109802 0 3918.97419280 0 1641.09004412 0 -1111.93191470 0 7227
0.08350000 0.08350160 24435.48859157 0 668.76026711 0 2602.13195967 0 1236.03319503 0 -596.90328325 0 7798
0.08450000 0.08449610 24045.88763723 0 755.75278718 0 2056.20727562 0 450.89285058 0 -311.89096364 0 7371
0.08550000 0.08548940 23152.36831062 0 658.57736161 0 2683.10960754 0 -89.43679957 0 -829.64208070 0 8256
0.08650000 0.08650700 22843.02560251 0 694.72392217 0 2812.48949745 0 -302.09586059 0 427.20317916 0 8037
0.08750000 0.08749060 22264.01968335 0 465.62709556 0 3796.99065107 0 -194.74764611 0 1012.49037394 0 8155
0.08850000 0.08849210 22034.26078241 0 449.06062451 0 4686.96917270 0 -405.56155431 0 2442.71705100 0 8718
0.08950000 0.08949900 22086.52980831 0 548.95741162 0 6347.17956371 0 327.50984783 0 1330.56706768 0 8571
0.09050000 0.09049190 21400.28808118 0 434.34099238 0 6951.26337465 0 -421.53789119 0 1808.50829611 0 8932
0.09150000 0.09150830 21360.94580362 0 448.89651101 0 6798.68278163 0 -583.15596740 0 2309.49285854 0 9285
0.09250000 0.09250820 21024.85034677 0 305.29157759 0 7246.34169699 0 -763.96633067 0 533.90618029 0 9204
0.09350000 0.09350330 20780.92822591 0 211.38493326 0 7268.87920170 0 -957.61688927 0 466.04524776 0 9349
0.09450000 0.09448040 20717.86817530 0 148.20123550 0 6708.75757578 0 -201.87084648 0 -1838.72316527 0 9564
0.09550000 0.09549270 20031.73885468 0 224.12845899 0 5632.84745041 0 -161.39438726 0 -2693.33859970 0 10155
0.09650000 0.09649430 20073.55407540 0 413.05569615 0 5436.68685450 0 112.57399301 0 -3975.68327574 0 9913
0.09750000 0.09749140 18955.67136021 0 610.87766024 0 5070.07303091 0 455.32166697 0 -3632.42752437 0 10476
0.09850000 0.09850240 18996.36251585 0 563.85127384 0 4979.85556815 0 769.05047700 0 -3713.61874460 0 10575
0.09950000 0.09950330 18477.71889113 0 310.81523336 0 5124.39909589 0 448.36820042 0 -3001.30994843 0 10882
0.10050000 0.10051200 18141.62343427 0 294.07003597 0 5362.21754341 0 281.97284765 0 -1492.09521868 0 10875
0.10150000 0.10150300 18333.38893574 0 278.53096040 0 6081.25948937 0 165.33311128 0 -1427.42775503 0 11118
0.10250000 0.10250800 17869.82449959 0 347.36758141 0 5863.14590259 0 -198.99773615 0 1035.42467363 0 11575
0.10350000 0.10349800 17404.79877885 0 520.82318690 0 5563.88605818 0 63.35590453 0 -869.05629842 0 11364
0.10450000 0.10450100 17372.31329824 0 137.76429129 0 5873.89196469 0 937.32526657 0 498.23172707 0 12093
0.10550000 0.10551000 16688.99414030 0 292.66270650 0 4759.44888861 0 118.28199545 0 -1753.56399534 0 12067
0.10650000 0.10649700 16855.80539715 0 384.80007241 0 4589.26543654 0 -140.58906682 0 -2008.68180433 0 12054
0.10750000 0.10749900 16054.57181305 0 369.40038091 0 3986.30569068 0 -324.10730285 0 -2580.01035903 0 12807
0.10850000 0.10850100 15978.02298157 0 33.06538578 0 3833.23050903 0 497.68430737 0 -1777.85504157 0 12736
0.10950000 0.10950300 16104.25548928 0 -2.26834084 0 3846.76425251 0 450.32856991 0 -2682.58129695 0 12933
0.11050000 0.11050200 16161.13318198 0 152.22314033 0 4404.24432551 0 572.92809930 0 -2324.02701993 0 13428
0.11150000 0.11150900 15697.11911980 0 384.98891534 0 4062.67467175 0 402.88740350 0 -1815.30888980 0 13453
0.11250000 0.11250000 15563.91740864 0 469.72206462 0 5035.71036163 0 141.43211563 0 -390.15287029 0 13668
0.11350000 0.11349100 15151.61033982 0 301.13815715 0 4767.66580430 0 404.32283460 0 175.96114654 0 13791
0.11450000 0.11448600 15043.70009281 0 147.05468912 0 4975.49419566 0 790.91916299 0 -116.36209230 0 14205
0.11550000 0.11549300 14929.71989440 0 147.05356506 0 4963.95004736 0 7.49621012 0 -42.65916878 0 14776
0.11650000 0.11649800 15011.55183172 0 190.61221071 0 4120.05819373 0 -180.21798097 0 -501.54771903 0 14553
0.11750000 0.11747300 14734.80701072 0 49.68075366 0 4176.41881650 0 11.55988521 0 -302.02729262 0 14568
0.11850000 0.11849100 14653.87432546 0 132.93867994 0 4384.42705827 0 -149.39836480 0 -736.62119964 0 16015
0.11950000 0.11950300 14654.43635799 0 -139.45938142 0 3950.97632544 0 270.20388634 0 -1446.07599459 0 15270
0.12050000 0.12050700 14794.94449213 0 14.81866227 0 4559.80369098 0 -53.12837365 0 -616.15626982 0 15999
0.12150000 0.12150000 14767.85452387 0 186.35312814 0 4361.58605599 0 9.01989157 0 -1187.48482452 0 15670
0.12250000 0.12250700 14645.44383741 0 249.68295436 0 5044.75908547 0 -158.34592278 0 -28.81664462 0 16887
0.12350000 0.12352200 14401.97134258 0 255.31227225 0 4636.07150619 0 -436.25302706 0 -513.57971157 0 16407
0.12450000 0.12449800 14213.57803632 0 139.77411964 0 5024.21117593 0 118.99352864 0 -362.02089370 0 16306
0.12550000 0.12549900 14270.79294854 0 148.45077794 0 4412.84342332 0 189.22061815 0 -577.95154611 0 17523
0.12650000 0.12650100 13932.44936154 0 28.57688154 0 4474.64452104 0 819.68960854 0 -392.79329914 0 17154
0.12750000 0.12750600 14085.32221148 0 90.66798805 0 3882.08237711 0 707.77319360 0 -425.38331781 0 18007
0.12850000 0.12850300 13752.48654334 0 322.82924086 0 3275.49190106 0 393.57902063 0 -986.73916718 0 17496
0.12950000 0.12949900 13605.90845781 0 389.46943872 0 3275.16592219 0 113.22033042 0 -487.45531521 0 18405
0.13050000 0.13049000 13107.83522392 0 372.76245954 0 3415.41552136 0 -35.97176844 0 -382.19561363 0 18100
0.13150000 0.13148800 13110.98260612 0 288.59134280 0 3408.00793253 0 25.15444061 0 -72.19600189 0 19059
0.13250000 0.13249300 12702.94698459 0 149.16793146 0 3880.40752015 0 -223.29440271 0 -14.18716251 0 18957
0.13350000 0.13349100 12796.69401168 0 129.74521106 0 3519.90861055 0 232.11381727 0 -60.00776430 0 19468
0.13450000 0.13450700 12608.86273797 0 19.86964867 0 4025.44563653 0 -99.93410607 0 -135.43073220 0 19953
0.13550000 0.13551000 12663.37989401 0 21.64848165 0 3647.56868091 0 340.33093405 0 -201.40885573 0 19956
0.13650000 0.13649900 12579.18742004 0 82.29718786 0 3610.85671562 0 152.33891903 0 157.51523869 0 19723
0.13750000 0.13749600 12516.12736944 0 208.08018194 0 3495.70748953 0 285.25624173 0 -283.17896948 0 20946
0.13850000 0.13851100 12282.99627328 0 208.76024131 0 3439.42555132 0 357.93941342 0 319.96624712 0 20955
0.13950000 0.13949800 12100.11088588 0 145.77887527 0 3159.10620339 0 561.53907198 0 144.72000597 0 20506
0.14050000 0.14048300 11812.79985320 0 164.89922216 0 2841.33300722 0 474.66457874 0 350.38569613 0 21447
0.14150000 0.14148400 11726.69646860 0 210.35416558 0 2298.84796230 0 536.85235485 0 -6.10235819 0 21771
0.14250000 0.14249400 11616.53809144 0 127.82643198 0 2258.62891398 0 155.55599327 0 331.97800649 0 22470
0.14350000 0.14350900 11394.76005251 0 191.40018032 0 1839.79102709 0 206.78188678 0 -137.20787908 0 22519
0.14450000 0.14449900 11301.23783843 0 149.06788967 0 2213.39653544 0 -178.54312402 0 440.89091956 0 22218
0.14550000 0.14550500 11263.58165848 0 56.82115223 0 2041.68435487 0 128.68858989 0 153.21456572 0 23559
0.14650000 0.14650700 11397.57021520 0 -59.05343305 0 2145.50300502 0 188.36745275 0 520.65232901 0 23044
0.14750000 0.14750500 11300.00136685 0 60.30788968 0 2204.21292379 0 140.99597838 0 429.94814607 0 23649
0.14850000 0.14849900 11229.09534204 0 226.31476556 0 2107.02625757 0 198.25023288 0 427.80230585 0 23640
0.14950000 0.14949500 11001.57333059 0 305.45569109 0 2270.04941512 0 94.03231481 0 831.56310791 0 24457
0.15050000 0.15050000 10830.20961020 0 222.18270235 0 1856.67448449 0 63.55452683 0 815.23044240 0 24591
0.15150000 0.15149900 10670.33383485 0 100.23692920 0 2225.77249189 0 316.64463483 0 964.70636769 0 25020
0.15250000 0.15250500 10517.75324183 0 156.20120662 0 1889.89060740 0 -165.14651647 0 429.80201761 0 25297
0.15350000 0.15350100 10467.42884851 0 138.52640741 0 1903.86273626 0 -189.51399913 0 244.23461095 0 25452
0.15450000 0.15450400 10311.44233831 0 235.64787786 0 2153.68619876 0 -380.75343815 0 746.90864319 0 26061
0.15550000 0.15549900 10281.64337323 0 218.30018159 0 2272.82585585 0 -393.57789656 0 525.43297777 0 26128
0.15650000 0.15649500 10162.33510637 0 136.69980167 0 2944.09503621 0 -21.82012639 0 1045.33105912 0 26331
0.15750000 0.15749700 10048.14133559 0 133.17360954 0 2700.51013487 0 63.58723712 0 433.57550406 0 27345
0.15850000 0.15849900 9997.65957316 0 111.09180080 0 2990.36155462 0 233.85162187 0 1043.80457875 0 26980
0.15950000 0.15949700 9872.04530124 0 63.78023909 0 2711.75078560 0 198.66726102 0 713.50480141 0 27777
0.16050000 0.16050000 9887.96206267 0 62.11055283 0 2652.14161477 0 172.72945946 0 761.52148914 0 28224
0.16150000 0.16150500 9681.34766159 0 86.59077922 0 2186.31780783 0 211.67156985 0 428.91400620 0 28075
0.16250000 0.16249700 9581.83418067 0 156.71715249 0 2288.65269208 0 60.69153309 0 225.74036831 0 28590
0.16350000 0.16349900 9539.72670303 0 116.34523133 0 1779.09151315 0 193.58536282 0 -23.43945453 0 29163
0.16450000 0.16449100 9344.64520959 0 168.39956080 0 1949.25248391 0 -4.52410338 0 -562.75868259 0 28996
0.16550000 0.16550500 9206.64374057 0 223.66534418 0 1804.73143746 0 1.94336238 0 -418.32418915 0 30777
0.16650000 0.16650700 9016.32828304 0 194.58128448 0 2048.35006076 0 -94.91493071 0 -640.82500191 0 29211
0.16750000 0.16749900 8986.58552121 0 258.10444989 0 2386.27774368 0 -116.75888727 0 -23.42113227 0 30922
0.16850000 0.16850800 8806.47657454 0 175.52725742 0 2358.23232011 0 33.16924940 0 -87.43439005 0 30867
0.16950000 0.16949900 8727.54472511 0 142.27741256 0 2653.64786197 0 19.32897337 0 299.81176036 0 30852
0.17050000 0.17049200 8637.40594690 0 106.65061970 0 2625.16405302 0 9.03432456 0 -6.51526101 0 31257
0.17150000 0.17149500 8563.12772687 0 95.03318235 0 2575.12067596 0 -4.20073234 0 4.35916932 0 32608
0.17250000 0.17250900 8524.96571764 0 52.22968362 0 2538.29630417 0 -22.63271303 0 303.20194062 0 32361
0.17350000 0.17350400 8331.15441773 0 32.78189657 0 2434.28656295 0 34.91379839 0 -296.28669229 0 32508
0.17450000 0.17449800 8451.82280333 0 73.83005529 0 2503.39408365 0 130.28363823 0 -201.34028776 0 32791
0.17550000 0.17549800 8241.45402490 0 127.70728108 0 2190.97143723 0 186.83647613 0 -704.03230504 0 33633
0.17650000 0.17650100 8226.11053665 0 234.20345424 0 2523.46988585 0 -29.01470489 0 -18.25402994 0 33984
0.17750000 0.17750300 7942.37403090 0 173.06330678 0 2330.69272582 0 180.64737383 0 -389.25361823 0 34069
0.17850000 0.17849800 7908.04508357 0 179.35694713 0 2446.31405924 0 206.17938790 0 168.60301657 0 34536
