### header ###
fiducial parameters:
Omega_m = 0.31
Omega_nu = 0
Omega_de = 0.69
Omega_k = 0
H_0 = 100
w_de = -1
zeff = 0
beta = 0
fgrowth = 0
b_1 = 2
gamma = 0.55
Lx = 3500 Ly = 3500 Lz = 3500
nx = 700 ny = 700 nz = 700
xoffset = 857.220397 yoffset = 15.9954215 zoffset = 262.898189
bins = 400 dk = 0.001
kx_ny = 0.628318531 ky_ny = 0.628318531 kz_ny = 0.628318531
############################
A(data) = 3.09191282 (not used)
A(ran) = 3.09173597 (used)
Ngal = 188726
weighted Ngal = 0
Nran = 9360983
weighted Nran = 0
SN(data) = 3444.28594
SN(ran) = 69.4287706
SN(data+ran) = 3513.71471
############################
13 columns: k_central k_mean P_0(k) sigma^{lin}_{P_0(k)} P^img_1(k) sigma^{lin}_{P_1(k)} P_2(k) sigma^{lin}_{P_2(k)} P^img_3(k) sigma^{lin}_{P_3(k)} P_4(k) sigma^{lin}_{P_4(k)} N_modes
### header ###
0.00050000 0 0 0 0 0 0 0 0 0 0 0 0
0.00150000 0.00179520 17853.07593000 0 -18782.11571292 0 -13046.68608394 0 72693.40068383 0 19001.08358916 0 3
0.00250000 0.00253879 35551.25569293 0 -21206.38685607 0 34240.93303722 0 -39677.69857628 0 -26315.71223934 0 6
0.00350000 0.00331552 54521.98952512 0 -16668.53615597 0 13746.41659194 0 41687.75174000 0 36560.10409604 0 7
0.00450000 0.00420575 70386.59434081 0 -7483.81168433 0 43072.48750355 0 3773.49769104 0 -2954.98722677 0 24
0.00550000 0.00557378 79415.64704048 0 7949.10718069 0 47512.09491626 0 10622.32501558 0 20802.17305579 0 45
0.00650000 0.00659388 68389.46792544 0 11789.98133221 0 54030.21105564 0 36073.94595193 0 -31303.07656217 0 40
0.00750000 0.00754703 64657.79669576 0 9033.54895996 0 24750.56403155 0 38555.31960079 0 26015.36205181 0 57
0.00850000 0.00846663 56779.33700492 0 392.01769424 0 10751.49133313 0 35991.88920159 0 -11239.96505130 0 75
0.00950000 0.00948925 62442.26443668 0 -9007.47065027 0 -9834.91743187 0 30090.21034830 0 10599.65262306 0 112
0.01050000 0.01054430 61293.46993198 0 -8618.42048781 0 -29435.55484972 0 5241.15573504 0 -17640.06559865 0 105
0.01150000 0.01145670 71380.82989797 0 -6550.20819722 0 -34905.36790193 0 -8859.80222161 0 -13260.37085434 0 144
0.01250000 0.01249090 70492.48127070 0 665.53420035 0 -28421.42334077 0 -40427.44998004 0 -12456.88914008 0 169
0.01350000 0.01339930 71954.77752429 0 6498.44500060 0 -14124.55208253 0 -35999.19562456 0 -2612.05745426 0 180
0.01450000 0.01448870 72088.99089402 0 -3850.30505749 0 1600.83727385 0 -33054.93197860 0 -4825.25165799 0 267
0.01550000 0.01550050 86590.32958906 0 -5789.21614273 0 7351.03711790 0 -30406.85947939 0 -2911.45218648 0 238
0.01650000 0.01653350 93999.49211188 0 -13631.31232846 0 16551.18376234 0 6027.13575610 0 -26059.76262219 0 315
0.01750000 0.01747870 96476.36950046 0 -6922.20629251 0 17680.98156731 0 1456.68716888 0 -22349.89825494 0 297
0.01850000 0.01844180 103621.37673111 0 7865.66783031 0 13521.26635780 0 3911.61156658 0 -22381.93410952 0 388
0.01950000 0.01947590 88559.80400364 0 6492.74599068 0 10163.85259422 0 13469.10973841 0 -8412.52548838 0 399
0.02050000 0.02045430 88678.50527535 0 3308.02234427 0 -5433.55071295 0 17588.13379227 0 -10857.53563213 0 462
0.02150000 0.02154770 77814.64115687 0 1105.21450182 0 -12357.18456810 0 7002.80175825 0 -9829.08353415 0 571
0.02250000 0.02255340 78821.69105586 0 3123.99041051 0 -10186.25521112 0 -6214.76469810 0 -36723.31834466 0 510
0.02350000 0.02348930 73844.66813170 0 3882.83550070 0 -12024.23649345 0 -21066.44075447 0 -23954.50114679 0 555
0.02450000 0.02439640 73350.30431255 0 7063.74856651 0 -9565.24298019 0 -29549.98467417 0 -25238.52067979 0 592
0.02550000 0.02547300 65876.39564151 0 4920.81967051 0 3039.93282434 0 -21820.68841852 0 -27575.00234073 0 837
0.02650000 0.02652900 66370.75946066 0 3707.61623711 0 9993.07338766 0 -8650.88348713 0 -33513.66293493 0 723
0.02750000 0.02749970 62671.23649208 0 3258.70960952 0 18459.95866297 0 -4825.02684498 0 -36196.69385791 0 826
0.02850000 0.02848090 62122.91754942 0 3931.41759316 0 18154.88740213 0 171.99207277 0 -32646.10951151 0 831
0.02950000 0.02946900 58595.37653702 0 1864.20572048 0 22282.00472452 0 700.33525501 0 -18869.23075609 0 996
0.03050000 0.03053250 58303.11961801 0 1070.84284002 0 26150.92429962 0 1038.43379583 0 -16275.00097388 0 1041
0.03150000 0.03150510 60400.96226394 0 -323.42274722 0 35822.49259507 0 4066.65386211 0 -7014.68312607 0 1036
0.03250000 0.03246190 60375.22117376 0 423.74780313 0 34500.14244308 0 4151.83551335 0 -4229.66577901 0 1059
0.03350000 0.03345080 58818.39104752 0 152.19054244 0 35124.22337166 0 10287.07260753 0 -1723.32664487 0 1302
0.03450000 0.03451200 58782.98299772 0 1440.81537005 0 31457.41069671 0 1925.05136289 0 1511.06943712 0 1339
0.03550000 0.03553350 56186.61749187 0 3171.61704765 0 24716.95448587 0 7380.30777240 0 -3804.60057162 0 1365
0.03650000 0.03647120 55361.10410219 0 2559.86711292 0 24309.93052290 0 2549.44702969 0 2696.13752173 0 1308
0.03750000 0.03744890 50180.17577377 0 3609.17061801 0 18332.48968368 0 387.73500631 0 -3489.00806169 0 1579
0.03850000 0.03847530 50236.26662092 0 1880.11124127 0 17333.98267925 0 3685.95550315 0 -993.24637989 0 1662
0.03950000 0.03950240 46946.35296497 0 537.15810055 0 16004.32610428 0 799.32492161 0 -5828.13127556 0 1683
0.04050000 0.04050350 47189.71305330 0 265.44571888 0 13389.41352473 0 3417.84350192 0 -234.92960028 0 1822
0.04150000 0.04152450 46722.66401542 0 414.24270887 0 17620.50686638 0 1247.95952546 0 -1705.55517606 0 1887
0.04250000 0.04250150 47044.25903284 0 1051.13910335 0 18844.61373098 0 477.21283426 0 342.19238581 0 1920
0.04350000 0.04349210 45143.46499423 0 2564.57694558 0 22813.57509759 0 -4672.45749260 0 2649.37641469 0 2005
0.04450000 0.04448520 43929.36230877 0 1987.11099557 0 21772.69083990 0 -1976.49982128 0 1138.05968326 0 2151
0.04550000 0.04548030 42150.86655011 0 1017.87464564 0 23801.85310986 0 702.81494256 0 3949.93094492 0 2274
0.04650000 0.04648670 41768.79683177 0 88.87105762 0 22835.26955350 0 1567.67735420 0 339.30691077 0 2311
0.04750000 0.04749250 41823.08917480 0 320.31358323 0 22017.62461933 0 1833.45130008 0 -5111.07892478 0 2568
0.04850000 0.04851840 40277.94932532 0 1520.59026829 0 20546.67306467 0 1414.14130586 0 -4991.60204816 0 2493
0.04950000 0.04949480 38960.76987266 0 1975.42071881 0 18633.96393629 0 -489.08858176 0 -6056.04670978 0 2644
0.05050000 0.05050630 37678.77365679 0 1531.65106860 0 20266.89326798 0 434.57704604 0 -3926.91009222 0 2829
0.05150000 0.05149060 37954.28200621 0 -397.77178335 0 20963.81361330 0 1747.67389435 0 -1721.53938140 0 2784
0.05250000 0.05249300 37359.76398904 0 131.44816965 0 20049.16186332 0 2791.18846431 0 -2028.21805530 0 3055
0.05350000 0.05348950 37898.30356557 0 -467.94266961 0 18638.12297706 0 4087.66263832 0 -174.63587382 0 3009
0.05450000 0.05448610 37916.40101324 0 319.34126694 0 17751.12322787 0 2834.06030620 0 3403.84889176 0 3336
0.05550000 0.05550870 37712.94523501 0 675.25511510 0 16709.33971813 0 2479.81119841 0 600.86224043 0 3349
0.05650000 0.05647670 36992.64433617 0 1067.70782253 0 15097.76762282 0 609.13985563 0 1243.53070907 0 3324
0.05750000 0.05747970 35858.68749043 0 634.30879668 0 14322.83716143 0 -199.17646250 0 -3165.41220845 0 3639
0.05850000 0.05849280 35908.59597967 0 31.60488803 0 12160.02355428 0 -2760.08558374 0 -7483.04732008 0 3846
0.05950000 0.05951020 35680.18595682 0 -218.25521898 0 13682.68210230 0 -3010.13385925 0 -7394.78573054 0 3787
0.06050000 0.06049470 36670.03766019 0 -345.37911030 0 13890.63414082 0 -3215.71412047 0 -10372.24301812 0 3930
0.06150000 0.06148310 37599.52706914 0 -401.97803486 0 14991.09384739 0 -471.66782126 0 -9258.26080872 0 4083
0.06250000 0.06249100 37312.77806899 0 108.20969795 0 14844.51576185 0 1090.37571879 0 -8941.15081095 0 4303
0.06350000 0.06350600 37792.97866822 0 654.39246735 0 16562.42441307 0 2725.61050795 0 -2704.23079026 0 4470
0.06450000 0.06451750 36859.33021850 0 1200.79375499 0 17556.54756372 0 2817.44662442 0 -551.68102129 0 4479
0.06550000 0.06550280 35676.25172906 0 2290.05777342 0 17715.82758458 0 4551.74414440 0 3722.47637738 0 4636
0.06650000 0.06648880 33010.98103424 0 2244.33080625 0 16790.38480990 0 1768.30048844 0 4856.16344750 0 4653
0.06750000 0.06749660 31539.91707307 0 1488.14975028 0 15650.58282577 0 1583.20069286 0 5886.50397481 0 5220
0.06850000 0.06852730 31074.44172630 0 545.52788908 0 15007.05557142 0 2100.36055169 0 6670.86534216 0 5029
0.06950000 0.06949320 29607.42439940 0 -751.56564479 0 12744.31257928 0 2076.71022255 0 3340.86752571 0 5040
0.07050000 0.07048030 30927.75123426 0 -672.75294625 0 11283.47761028 0 1331.29770998 0 3009.53810476 0 5475
0.07150000 0.07148790 30427.76708975 0 -151.94212406 0 9710.93305431 0 1406.09299994 0 351.77166837 0 5509
0.07250000 0.07249820 30896.95185126 0 821.50160144 0 10587.20922270 0 -571.86248561 0 2856.28307270 0 5916
0.07350000 0.07351270 29971.62148309 0 1155.38152604 0 10517.62959467 0 -394.76266115 0 1919.09381800 0 5721
0.07450000 0.07449140 29581.57090272 0 1297.89049600 0 14607.67525095 0 -1695.82077253 0 5916.19053339 0 6028
0.07550000 0.07549160 28950.52077068 0 919.98206656 0 13194.61304756 0 354.11534404 0 5223.57535729 0 6183
0.07650000 0.07648840 28441.99373161 0 720.41330535 0 17142.66680381 0 499.95154663 0 7273.63399696 0 6330
0.07750000 0.07749960 28181.99748020 0 266.86990933 0 14204.81032875 0 479.86225564 0 3904.82221353 0 6583
0.07850000 0.07848650 27884.56986186 0 497.13688768 0 15961.38681849 0 1036.33404227 0 4847.76668141 0 6549
0.07950000 0.07947320 27521.04721722 0 543.95757017 0 13501.70762553 0 331.39798892 0 2590.95875284 0 6828
0.08050000 0.08048110 26413.39349419 0 864.46336853 0 13837.01623684 0 403.54610563 0 1418.92982307 0 7147
0.08150000 0.08149960 25539.65771287 0 1239.13561463 0 11456.58363153 0 1553.12071150 0 618.13125215 0 7386
0.08250000 0.08250610 24331.73738532 0 920.73294203 0 12398.66256930 0 1432.60969501 0 1042.41523432 0 7227
0.08350000 0.08350160 23716.19935129 0 503.04272558 0 10726.51460721 0 1281.13068576 0 1530.60568809 0 7798
0.08450000 0.08449610 23594.68791689 0 184.20841198 0 11287.86146406 0 1528.86338722 0 3180.38475522 0 7371
0.08550000 0.08548940 23349.41691794 0 98.39750912 0 12011.19733860 0 277.94082623 0 2868.81639826 0 8256
0.08650000 0.08650700 23633.58056842 0 -105.71146333 0 12110.00265853 0 465.07855180 0 4418.29513893 0 8037
0.08750000 0.08749060 23729.80053867 0 -119.89390476 0 12760.27430331 0 -37.89965244 0 4980.64241370 0 8155
0.08850000 0.08849210 23781.28271902 0 272.97133455 0 11655.65555598 0 903.99448902 0 4325.97567447 0 8718
0.08950000 0.08949900 23325.92395791 0 459.62346400 0 11990.73935427 0 809.02335506 0 3000.06223620 0 8571
0.09050000 0.09049190 22717.13031432 0 731.06831818 0 10094.68887027 0 1397.87608426 0 1206.58269012 0 8932
0.09150000 0.09150830 21834.85163844 0 602.84171903 0 9136.65944912 0 2033.34379203 0 947.31708101 0 9285
0.09250000 0.09250820 20710.22453281 0 535.92724929 0 6480.45995943 0 1478.94365733 0 -944.36191393 0 9204
0.09350000 0.09350330 20418.52964634 0 375.96941719 0 6037.98298406 0 1793.67063714 0 -819.27932479 0 9349
0.09450000 0.09448040 19805.68936848 0 393.42389965 0 4252.58546585 0 457.74177907 0 -1403.95727630 0 9564
0.09550000 0.09549270 19788.94079890 0 241.96287544 0 5455.61611033 0 -271.09976620 0 -232.84445957 0 10155
0.09650000 0.09649430 19796.47203489 0 297.54901737 0 4993.77149375 0 -309.33708779 0 79.48859886 0 9913
0.09750000 0.09749140 19430.92607311 0 474.67019907 0 6815.99338375 0 -1486.45241202 0 1042.97277060 0 10476
0.09850000 0.09850240 18944.99274201 0 457.74852346 0 6577.45553459 0 -97.03885166 0 810.43967705 0 10575
0.09950000 0.09950330 18799.31390854 0 737.60925284 0 8124.04542802 0 -350.05184880 0 1984.75045892 0 10882
0.10050000 0.10051200 18126.33614927 0 279.21101977 0 6870.19580158 0 961.50503036 0 549.45762058 0 10875
0.10150000 0.10150300 17708.74597462 0 153.21681385 0 7109.59918084 0 1239.82129433 0 444.93305756 0 11118
0.10250000 0.10250800 17569.69912508 0 -71.16264887 0 5240.17779842 0 1349.53004546 0 91.40537474 0 11575
0.10350000 0.10349800 17219.55285481 0 6.13808098 0 4845.91197403 0 1107.98082597 0 -313.93114175 0 11364
0.10450000 0.10450100 17474.15359386 0 166.16267130 0 3917.14196674 0 614.22287789 0 716.73311630 0 12093
0.10550000 0.10551000 17088.37446077 0 215.98011128 0 3855.20598121 0 -31.97189528 0 34.33760263 0 12067
0.10650000 0.10649700 17360.06098894 0 423.20600376 0 4539.77285138 0 -397.65488058 0 969.59829888 0 12054
0.10750000 0.10749900 16924.82299264 0 406.65302150 0 5275.93430840 0 -677.24246215 0 1505.85377518 0 12807
0.10850000 0.10850100 16698.43628692 0 443.84383850 0 5944.57317648 0 -471.86340858 0 2473.37030555 0 12736
0.10950000 0.10950300 16638.52361852 0 293.45854457 0 6553.14200706 0 51.86368803 0 2753.81330063 0 12933
0.11050000 0.11050200 16387.18266818 0 267.51175049 0 6471.00657217 0 373.35146964 0 3208.73367637 0 13428
0.11150000 0.11150900 16353.34830948 0 177.08633568 0 6374.52806694 0 914.10545436 0 3057.10853866 0 13453
0.11250000 0.11250000 16069.07225249 0 70.88309388 0 6475.08692838 0 775.65885556 0 2938.45222954 0 13668
0.11350000 0.11349100 16099.19719645 0 3.08840251 0 5672.18972797 0 341.18971977 0 2837.62359248 0 13791
0.11450000 0.11448600 15985.32940454 0 -12.62875869 0 6191.33918198 0 188.20446332 0 2615.40716818 0 14205
0.11550000 0.11549300 15970.94137161 0 90.89235144 0 5989.63694526 0 -93.24603129 0 2564.98160900 0 14776
0.11650000 0.11649800 15832.79377412 0 201.15032077 0 5812.77654666 0 443.29979101 0 2532.87831052 0 14553
0.11750000 0.11747300 15723.64705553 0 118.01446796 0 5779.84144002 0 750.43708345 0 2476.30411539 0 14568
0.11850000 0.11849100 15358.88793930 0 51.01041024 0 5020.14206037 0 970.82240575 0 2290.74345312 0 16015
0.11950000 0.11950300 15406.88551793 0 213.09913249 0 5004.15785503 0 815.33160825 0 2115.80520579 0 15270
0.12050000 0.12050700 15100.57778551 0 401.59023241 0 4850.49815953 0 45.11513855 0 2611.11323960 0 15999
0.12150000 0.12150000 14746.49728748 0 508.99465014 0 4276.76410557 0 -130.81644508 0 1954.51310845 0 15670
0.12250000 0.12250700 14449.63170167 0 338.49870798 0 4944.43627769 0 -617.70860369 0 2650.38807326 0 16887
0.12350000 0.12352200 14163.21992105 0 249.08944800 0 4402.09736122 0 -151.19574485 0 1861.64285211 0 16407
0.12450000 0.12449800 13987.97817615 0 -25.15623912 0 4903.28425537 0 137.04713778 0 1806.66482939 0 16306
0.12550000 0.12549900 14045.97993392 0 59.14886618 0 4334.66469749 0 359.63787575 0 712.62690659 0 17523
0.12650000 0.12650100 14100.83430949 0 2.73383866 0 4014.45228011 0 392.97876988 0 1034.38266531 0 17154
0.12750000 0.12750600 13946.27536194 0 121.90822937 0 3833.60145050 0 63.06960515 0 171.69194740 0 18007
0.12850000 0.12850300 13749.90119367 0 252.09857020 0 3128.55411470 0 -38.13638055 0 -194.08107552 0 17496
0.12950000 0.12949900 13454.94651849 0 313.02851749 0 3466.08837485 0 -43.64261331 0 -907.95794247 0 18405
0.13050000 0.13049000 13218.33082060 0 389.23900538 0 3606.36045533 0 -241.89430747 0 -629.04255182 0 18100
0.13150000 0.13148800 12799.27936135 0 343.27710861 0 3185.89267408 0 -331.64865543 0 -819.06462836 0 19059
0.13250000 0.13249300 12830.86558990 0 331.28333428 0 3999.08631056 0 -177.11893357 0 -980.29602618 0 18957
0.13350000 0.13349100 12517.02662150 0 269.48560875 0 4057.40280656 0 -410.66368568 0 -850.14727576 0 19468
0.13450000 0.13450700 12481.05653916 0 160.45129666 0 4904.37459849 0 -27.07321969 0 -346.85051148 0 19953
0.13550000 0.13551000 12574.01672070 0 91.13537431 0 4750.60249649 0 74.06262435 0 -353.99169689 0 19956
0.13650000 0.13649900 12411.36450462 0 -9.00840362 0 4614.25340312 0 561.16588238 0 254.96268801 0 19723
0.13750000 0.13749600 12553.89595589 0 54.87089932 0 4610.91492985 0 340.94130139 0 -484.47654277 0 20946
0.13850000 0.13851100 12400.57347992 0 70.86679494 0 4077.84955024 0 730.07801685 0 256.96914417 0 20955
0.13950000 0.13949800 12124.05347194 0 261.03376347 0 3849.11354851 0 702.18883832 0 -37.03839378 0 20506
0.14050000 0.14048300 12040.31062399 0 272.30813615 0 3645.12945970 0 307.14403683 0 366.66328245 0 21447
0.14150000 0.14148400 11448.93998904 0 306.68429422 0 3392.13613369 0 205.83767212 0 187.44009907 0 21771
0.14250000 0.14249400 11495.47628306 0 222.48844805 0 3528.39530186 0 220.65172572 0 595.60049183 0 22470
0.14350000 0.14350900 11254.36432488 0 134.97548585 0 3411.08787083 0 196.04032094 0 813.43418641 0 22519
0.14450000 0.14449900 11068.52264635 0 141.25788554 0 2853.52911327 0 266.29551208 0 344.88002540 0 22218
0.14550000 0.14550500 11034.95806326 0 15.00267172 0 3004.69338430 0 335.11077585 0 813.33976494 0 23559
0.14650000 0.14650700 10930.20643910 0 62.06536542 0 2268.31835491 0 -12.84806379 0 -604.32436086 0 23044
0.14750000 0.14750500 10982.92509103 0 47.59831071 0 2618.35221867 0 -212.52248711 0 50.57045117 0 23649
0.14850000 0.14849900 10749.43429405 0 66.78183006 0 2209.20377272 0 -129.44958195 0 -825.08174870 0 23640
0.14950000 0.14949500 10806.08717373 0 158.86973711 0 2677.70285453 0 -137.71258430 0 -121.07417309 0 24457
0.15050000 0.15050000 10809.62797871 0 82.61203848 0 2651.05127165 0 69.10324925 0 -268.86737296 0 24591
0.15150000 0.15149900 10600.47319056 0 96.79942580 0 2558.38334702 0 354.28732600 0 -26.75735741 0 25020
0.15250000 0.15250500 10561.99644311 0 106.80922528 0 2506.85620407 0 506.65322259 0 17.78417074 0 25297
0.15350000 0.15350100 10353.65098181 0 21.67815697 0 1941.81117313 0 643.57783728 0 -25.08789596 0 25452
0.15450000 0.15450400 10199.48545703 0 193.30771875 0 1738.44532010 0 281.42093170 0 -375.93569524 0 26061
0.15550000 0.15549900 10122.77925644 0 216.08240120 0 1384.42102533 0 -178.13846059 0 -464.43333845 0 26128
0.15650000 0.15649500 9765.16919409 0 244.09972314 0 1492.52236341 0 -405.45589219 0 -702.27651539 0 26331
0.15750000 0.15749700 9787.52684839 0 186.37785758 0 1429.68712582 0 -601.68842826 0 -776.59969803 0 27345
0.15850000 0.15849900 9610.72265305 0 124.15298732 0 2112.20819756 0 -541.44303661 0 -562.91155544 0 26980
0.15950000 0.15949700 9679.98754285 0 65.07437521 0 2414.23324205 0 -208.80295578 0 -196.24939705 0 27777
0.16050000 0.16050000 9605.03488378 0 71.99164686 0 2824.50575308 0 53.57586395 0 42.96053062 0 28224
0.16150000 0.16150500 9674.54706790 0 122.82771460 0 3034.99817867 0 129.42372845 0 130.77710280 0 28075
0.16250000 0.16249700 9577.36040168 0 214.81895205 0 3026.50024672 0 331.41822209 0 529.14351658 0 28590
0.16350000 0.16349900 9352.99701309 0 139.66058907 0 2757.56767798 0 372.03069318 0 747.37625426 0 29163
0.16450000 0.16449100 9321.08480566 0 128.85495152 0 2414.28944530 0 442.46910692 0 794.00247349 0 28996
0.16550000 0.16550500 9084.34546061 0 43.84561946 0 2119.22236362 0 562.99136406 0 601.69067639 0 30777
0.16650000 0.16650700 9106.11860108 0 76.03918037 0 1996.67678935 0 484.30456081 0 445.95033645 0 29211
0.16750000 0.16749900 9044.16013425 0 33.10360400 0 1760.08357276 0 165.65234576 0 788.39001658 0 30922
0.16850000 0.16850800 8948.25490221 0 182.14350444 0 1983.75004101 0 -216.00596477 0 715.27183170 0 30867
0.16950000 0.16949900 8941.82525000 0 98.60568597 0 2306.25555113 0 -294.61857972 0 878.13199982 0 30852
0.17050000 0.17049200 8760.01896507 0 147.55714621 0 2597.17483270 0 -460.49349037 0 857.51889451 0 31257
0.17150000 0.17149500 8935.99135227 0 104.97407664 0 2983.19001945 0 -308.82788631 0 973.57186892 0 32608
0.17250000 0.17250900 8753.64551611 0 65.08066998 0 2938.29486043 0 -47.67823173 0 680.17289980 0 32361
0.17350000 0.17350400 8737.82992053 0 146.77367285 0 2974.30990537 0 87.79914917 0 543.80357326 0 32508
0.17450000 0.17449800 8602.87466785 0 131.72806185 0 2821.02115135 0 145.03586825 0 340.22864413 0 32791
0.17550000 0.17549800 8404.85936458 0 196.35730729 0 2514.93823195 0 321.67482603 0 24.42818217 0 33633
0.17650000 0.17650100 8361.83015358 0 163.09959398 0 2424.57464072 0 225.33795301 0 389.75607532 0 33984
0.17750000 0.17750300 8042.44954436 0 117.63340990 0 2037.13189133 0 378.78632427 0 287.03563674 0 34069
