### header ###
fiducial parameters:
Omega_m = 0.31
Omega_nu = 0
Omega_de = 0.69
Omega_k = 0
H_0 = 100
w_de = -1
zeff = 0
beta = 0
fgrowth = 0
b_1 = 2
gamma = 0.55
Lx = 3500 Ly = 3500 Lz = 3500
nx = 700 ny = 700 nz = 700
xoffset = 857.220397 yoffset = 15.9954215 zoffset = 262.898189
bins = 400 dk = 0.001
kx_ny = 0.628318531 ky_ny = 0.628318531 kz_ny = 0.628318531
############################
A(data) = 3.08070929 (not used)
A(ran) = 3.07681937 (used)
Ngal = 187762
weighted Ngal = 0
Nran = 9360983
weighted Nran = 0
SN(data) = 3459.54342
SN(ran) = 69.0937997
SN(data+ran) = 3528.63722
############################
13 columns: k_central k_mean P_0(k) sigma^{lin}_{P_0(k)} P^img_1(k) sigma^{lin}_{P_1(k)} P_2(k) sigma^{lin}_{P_2(k)} P^img_3(k) sigma^{lin}_{P_3(k)} P_4(k) sigma^{lin}_{P_4(k)} N_modes
### header ###
0.00050000 0 0 0 0 0 0 0 0 0 0 0 0
0.00150000 0.00179520 48465.52691126 0 -67063.52076521 0 -60917.35775852 0 127452.11831334 0 1642.21410919 0 3
0.00250000 0.00253879 81556.65378521 0 -66140.55093369 0 -26102.70190799 0 -71118.69792292 0 17540.24862016 0 6
0.00350000 0.00331552 109128.84596326 0 -44867.50701878 0 -72906.97304772 0 -21475.37562807 0 3133.85970185 0 7
0.00450000 0.00420575 119864.67906992 0 -12658.20919468 0 -60884.31024537 0 -61266.49237022 0 2049.57529169 0 24
0.00550000 0.00557378 100146.66677714 0 20374.69110849 0 -69285.46019521 0 -51445.19860703 0 36310.67405632 0 45
0.00650000 0.00659388 68032.68967124 0 22685.54408576 0 -20831.28634118 0 -38651.08994502 0 -16510.15538717 0 40
0.00750000 0.00754703 58535.23905561 0 11325.51764401 0 -35703.56651034 0 -31289.81259431 0 25747.72215790 0 57
0.00850000 0.00846663 52885.68799821 0 136.63685403 0 -5404.10020803 0 -16448.89384069 0 7383.18537899 0 75
0.00950000 0.00948925 58822.32527528 0 -3671.34265720 0 -706.32314966 0 -26154.18408833 0 37841.20105985 0 112
0.01050000 0.01054430 75597.53520669 0 -4344.89368965 0 49652.42722195 0 -32088.79804827 0 20710.67415884 0 105
0.01150000 0.01145670 79863.02493958 0 2742.23543038 0 55616.71649981 0 -11082.10135243 0 31948.28991413 0 144
0.01250000 0.01249090 88654.78750231 0 5139.36040202 0 96083.62116392 0 -4390.28343730 0 34250.59999685 0 169
0.01350000 0.01339930 80873.89665981 0 7948.15172538 0 111544.68661837 0 -1256.23264439 0 67833.39293378 0 180
0.01450000 0.01448870 90181.38027809 0 3635.78847894 0 117757.05705786 0 41071.20204740 0 21007.09011861 0 267
0.01550000 0.01550050 89291.79517924 0 6748.05489073 0 117405.22468998 0 45518.11588309 0 6057.57543828 0 238
0.01650000 0.01653350 84070.51291469 0 4596.03230828 0 95097.25406227 0 34138.53070906 0 -2598.90589291 0 315
0.01750000 0.01747870 81187.06118918 0 190.68864713 0 93964.53368811 0 16436.19190536 0 3094.79844056 0 297
0.01850000 0.01844180 78614.86308241 0 -5278.22740115 0 68283.46858904 0 20256.55186930 0 -2369.83267166 0 388
0.01950000 0.01947590 82050.00594580 0 -5051.05384988 0 39698.38137363 0 17382.87950993 0 -40710.03993942 0 399
0.02050000 0.02045430 83582.55626646 0 -4842.91072029 0 29141.27461359 0 12013.10824922 0 -39903.97287550 0 462
0.02150000 0.02154770 84453.48188510 0 458.49939893 0 17299.24906849 0 -3658.19109585 0 -41797.91011716 0 571
0.02250000 0.02255340 79506.58390490 0 3953.67408161 0 11233.98502511 0 -2059.60195214 0 -39900.71308678 0 510
0.02350000 0.02348930 77620.73993176 0 4128.34255332 0 6343.89729370 0 -7052.80017270 0 -38320.27759401 0 555
0.02450000 0.02439640 79926.75942922 0 1513.42997377 0 7032.03869080 0 -1941.12549343 0 -40950.47745855 0 592
0.02550000 0.02547300 75824.82116447 0 2268.36331751 0 8028.49989680 0 2829.09193858 0 -23648.86785341 0 837
0.02650000 0.02652900 74286.42570542 0 1242.76634482 0 9884.16272273 0 5911.26712837 0 -31464.15508715 0 723
0.02750000 0.02749970 71875.41853013 0 1901.79445653 0 3475.81153774 0 8124.88847682 0 -10283.32947084 0 826
0.02850000 0.02848090 69189.57744447 0 2956.21245770 0 4255.91269847 0 5741.89300315 0 -21846.65432171 0 831
0.02950000 0.02946900 65230.95747654 0 3303.15514251 0 5653.10310303 0 -817.04917968 0 1592.66532077 0 996
0.03050000 0.03053250 62855.35835105 0 4493.68618338 0 11074.05304651 0 -839.25058894 0 -5226.39676063 0 1041
0.03150000 0.03150510 62153.71693242 0 4981.11452103 0 16000.05465700 0 -9556.20549700 0 3874.13523704 0 1036
0.03250000 0.03246190 58288.61917857 0 3967.52256331 0 23654.71299179 0 -6137.88988775 0 6388.14049498 0 1059
0.03350000 0.03345080 56897.13902458 0 3363.16897676 0 28013.38771924 0 -7314.17902415 0 2680.16455704 0 1302
0.03450000 0.03451200 55614.58077617 0 1698.97939539 0 35233.93212280 0 1155.68502361 0 6679.28458956 0 1339
0.03550000 0.03553350 54365.07004092 0 916.88301915 0 31428.85944385 0 7329.32018068 0 -2240.13804353 0 1365
0.03650000 0.03647120 52977.41170818 0 835.60974217 0 31189.99561582 0 4747.53379884 0 7630.78319264 0 1308
0.03750000 0.03744890 49965.92897084 0 1670.06844171 0 23974.50950509 0 10393.71266101 0 -294.49493257 0 1579
0.03850000 0.03847530 49468.86739551 0 1433.73376009 0 21471.10418079 0 8641.68863483 0 4815.18003494 0 1662
0.03950000 0.03950240 46690.85297385 0 2299.03905336 0 14330.36839742 0 7245.29631647 0 537.37279698 0 1683
0.04050000 0.04050350 46179.17855258 0 1051.53477426 0 12260.06534578 0 4714.76730196 0 643.16080914 0 1822
0.04150000 0.04152450 43080.91799160 0 367.84242672 0 6945.49692082 0 -19.50623843 0 2957.14543171 0 1887
0.04250000 0.04250150 44926.63284163 0 426.08810661 0 12928.43443825 0 -839.01678341 0 1871.21988654 0 1920
0.04350000 0.04349210 44308.62186444 0 -426.68723329 0 10266.95184272 0 -1558.78599947 0 3007.73960065 0 2005
0.04450000 0.04448520 46374.65346879 0 255.51123177 0 12737.68059534 0 -1091.71560436 0 2494.36784111 0 2151
0.04550000 0.04548030 44370.78266298 0 815.50921053 0 13300.05035142 0 -2106.94757302 0 2292.89041741 0 2274
0.04650000 0.04648670 43811.89750863 0 1383.98263995 0 15711.28233972 0 1763.99531921 0 2100.58536470 0 2311
0.04750000 0.04749250 42744.26050220 0 1618.65370526 0 15041.45196266 0 364.22968157 0 3210.27364552 0 2568
0.04850000 0.04851840 40917.54235191 0 1828.58409831 0 15766.58634132 0 1250.56735643 0 3201.41601274 0 2493
0.04950000 0.04949480 39530.55845821 0 1906.15582901 0 13661.66208543 0 1272.17188713 0 1661.93021058 0 2644
0.05050000 0.05050630 36927.44856193 0 1300.25103266 0 14894.98628364 0 1881.85354213 0 1509.54070862 0 2829
0.05150000 0.05149060 37253.76465265 0 444.01132420 0 11138.91160122 0 2388.89681530 0 138.08240171 0 2784
0.05250000 0.05249300 36083.50050505 0 -588.14569226 0 11143.68887779 0 307.84882563 0 -198.34915060 0 3055
0.05350000 0.05348950 37701.47977127 0 -896.64310344 0 11269.31439036 0 -149.84124644 0 -3328.57025381 0 3009
0.05450000 0.05448610 37064.58450085 0 184.01282466 0 8923.57043321 0 -458.24423616 0 -2269.12768176 0 3336
0.05550000 0.05550870 36419.48355540 0 1232.91953478 0 9312.85664932 0 -633.00038494 0 -4191.07662505 0 3349
0.05650000 0.05647670 34781.49593088 0 1294.60822599 0 9229.75451847 0 -41.74755200 0 -690.21417310 0 3324
0.05750000 0.05747970 34322.87738105 0 1155.10050977 0 10499.52090634 0 1275.94874578 0 -3694.36350990 0 3639
0.05850000 0.05849280 34082.43986192 0 152.77280815 0 10213.32269808 0 1150.75037793 0 -1105.58993956 0 3846
0.05950000 0.05951020 33539.40402510 0 92.61869058 0 9748.17333018 0 -292.25467088 0 -3528.39530186 0 3787
0.06050000 0.06049470 34044.22164943 0 173.79619721 0 11463.77764800 0 -2323.08280527 0 -1561.88841907 0 3930
0.06150000 0.06148310 34358.73505688 0 614.13744895 0 12532.98834553 0 -3198.89810698 0 -2478.51852358 0 4083
0.06250000 0.06249100 34499.91763007 0 462.33021270 0 15855.61229511 0 -1211.18011626 0 -2327.50038101 0 4303
0.06350000 0.06350600 34247.90224068 0 257.92797167 0 14750.43151524 0 428.34747741 0 -2322.52077274 0 4470
0.06450000 0.06451750 33392.82593957 0 778.31389726 0 14804.94867128 0 1793.41210218 0 -6073.63832817 0 4479
0.06550000 0.06550280 32572.59565573 0 1657.92853892 0 13367.71906882 0 1138.99265727 0 -6358.17292013 0 4636
0.06650000 0.06648880 31156.16125712 0 1531.39253364 0 14497.96649982 0 -151.81173251 0 -5403.21219663 0 4653
0.06750000 0.06749660 29833.02425957 0 1412.37652370 0 14049.57694216 0 -235.87606307 0 -4830.63592969 0 5220
0.06850000 0.06852730 29181.06651717 0 277.08428865 0 13165.49976217 0 830.97522187 0 -2932.13498383 0 5029
0.06950000 0.06949320 28414.67895034 0 67.70120288 0 13298.81387984 0 282.27184896 0 -5275.68701408 0 5040
0.07050000 0.07048030 29502.54912808 0 -236.81802960 0 12699.01275683 0 1099.10520815 0 -1513.58734288 0 5475
0.07150000 0.07148790 29175.22137879 0 114.39835062 0 12737.56818884 0 1702.03685239 0 -4847.30581473 0 5509
0.07250000 0.07249820 29640.35950604 0 196.63832356 0 12203.52487261 0 1449.35826460 0 -2095.86429140 0 5916
0.07350000 0.07351270 27964.15366904 0 473.23701610 0 10184.77144523 0 2118.99755060 0 -2220.07348197 0 5721
0.07450000 0.07449140 28862.16925594 0 681.60720683 0 8970.42146546 0 2752.17216563 0 -1515.85795433 0 6028
0.07550000 0.07549160 27031.06725186 0 346.14122641 0 8133.91471936 0 2321.43042962 0 52.63637036 0 6183
0.07650000 0.07648840 27157.07494655 0 423.29817710 0 6922.02644210 0 2713.62797427 0 -859.26007131 0 6330
0.07750000 0.07749960 26359.10115116 0 209.81798654 0 5575.49765038 0 1620.59833784 0 -356.66247550 0 6583
0.07850000 0.07848650 26220.95355368 0 173.92321657 0 5558.33317671 0 122.22746385 0 -480.26467094 0 6549
0.07950000 0.07947320 25828.65484316 0 443.67972500 0 5888.06642526 0 -115.51005098 0 818.70492754 0 6828
0.08050000 0.08048110 25510.43202097 0 222.95605912 0 5943.38166750 0 329.45785260 0 239.68889180 0 7147
0.08150000 0.08149960 24986.73010341 0 -108.35661326 0 4935.58988557 0 998.71945273 0 1484.71011115 0 7386
0.08250000 0.08250610 25213.90365469 0 286.53093152 0 5542.97844782 0 908.62676119 0 122.51972077 0 7227
0.08350000 0.08350160 24565.76773354 0 467.14458340 0 4279.67543411 0 479.47670132 0 1221.42034908 0 7798
0.08450000 0.08449610 23977.09485476 0 994.03884577 0 5068.00475118 0 -503.85767276 0 1177.08722260 0 7371
0.08550000 0.08548940 23573.33068050 0 1088.25123581 0 4878.11643838 0 -1281.90629066 0 1244.22762941 0 8256
0.08650000 0.08650700 22504.90682852 0 982.40477226 0 6306.24111375 0 -2107.40843970 0 1106.93769358 0 8037
0.08750000 0.08749060 22764.56586040 0 627.07206574 0 7379.02633822 0 -1310.16528660 0 1233.94243399 0 8155
0.08850000 0.08849210 22014.36483062 0 472.91890568 0 8294.49865570 0 -577.10400105 0 697.23845574 0 8718
0.08950000 0.08949900 21690.07205703 0 442.75349538 0 8305.55945602 0 440.97297631 0 1271.46372613 0 8571
0.09050000 0.09049190 21322.61518463 0 135.62069920 0 8490.72669551 0 1549.89464474 0 1313.91966395 0 8932
0.09150000 0.09150830 21382.07822700 0 78.45119921 0 6479.51574477 0 2353.23023053 0 74.19222905 0 9285
0.09250000 0.09250820 20878.38466774 0 -136.84930232 0 6403.27041086 0 1013.15806860 0 -275.08907314 0 9204
0.09350000 0.09350330 21260.00476006 0 162.41616241 0 5191.75307508 0 262.74908677 0 -506.08219754 0 9349
0.09450000 0.09448040 20741.92316787 0 298.38194959 0 5216.81972621 0 -403.68099344 0 -1035.10431508 0 9564
0.09550000 0.09549270 20615.69066016 0 424.69651405 0 4904.80174321 0 -487.86447490 0 -690.04893553 0 10155
0.09650000 0.09649430 20158.98302096 0 454.34597848 0 6021.24565512 0 -324.10055846 0 -558.57041612 0 9913
0.09750000 0.09749140 19790.85170952 0 673.48134042 0 5984.80346545 0 399.71978812 0 -560.86350887 0 10476
0.09850000 0.09850240 19468.46984655 0 647.31422958 0 6835.72072578 0 373.66508379 0 267.26333211 0 10575
0.09950000 0.09950330 18496.04115182 0 539.94578193 0 6839.01423645 0 280.31485167 0 561.35135312 0 10882
0.10050000 0.10051200 18389.47978289 0 220.09756164 0 6454.48281559 0 821.39818745 0 440.95274314 0 10875
0.10150000 0.10150300 18563.48505620 0 -136.62224118 0 6316.20033030 0 612.88074420 0 234.23942432 0 11118
0.10250000 0.10250800 17967.16853492 0 373.43127826 0 5941.45951623 0 -535.82945563 0 208.32410406 0 11575
0.10350000 0.10349800 17924.45406215 0 543.62259878 0 5357.93485548 0 -246.68282468 0 -817.65055450 0 11364
0.10450000 0.10450100 17052.85400446 0 641.05318712 0 5343.44565669 0 -705.86453111 0 -1400.91105995 0 12093
0.10550000 0.10551000 16964.27767670 0 643.27209158 0 5306.16041822 0 -392.94167573 0 -1986.18926221 0 12067
0.10650000 0.10649700 16205.64615887 0 334.87472219 0 5060.68708755 0 469.49387941 0 -1716.43612597 0 12054
0.10750000 0.10749900 16055.58347161 0 65.52242755 0 5001.55002406 0 1322.19278288 0 -1648.48639230 0 12807
0.10850000 0.10850100 15879.33006815 0 83.33840933 0 4557.30826652 0 1065.46756084 0 -1504.83087596 0 12736
0.10950000 0.10950300 15734.77529975 0 156.81831835 0 3923.54913765 0 1447.78457350 0 -480.76712802 0 12933
0.11050000 0.11050200 15546.38199350 0 292.25916714 0 4139.97662683 0 1119.65424175 0 -192.12520229 0 13428
0.11150000 0.11150900 15245.35736692 0 466.16777086 0 3278.05476943 0 538.83857783 0 1049.67219843 0 13453
0.11250000 0.11250000 14941.07295163 0 365.10532826 0 4214.33353141 0 -27.83443656 0 859.39158692 0 13668
0.11350000 0.11349100 14749.19504366 0 255.54832591 0 3612.91375470 0 -641.37242160 0 1887.87853092 0 13791
0.11450000 0.11448600 14712.21330275 0 232.51848070 0 4662.56571996 0 -819.87058302 0 1844.52334105 0 14205
0.11550000 0.11549300 14678.82857008 0 148.20573176 0 4993.22070186 0 -581.90825517 0 1943.10384796 0 14776
0.11650000 0.11649800 14486.16381655 0 408.71792903 0 5644.96487190 0 -726.80811155 0 1792.15314930 0 14553
0.11750000 0.11747300 14583.05822585 0 389.33904717 0 6403.28165151 0 -220.41454799 0 2064.15441568 0 14568
0.11850000 0.11849100 13904.23532821 0 200.61863799 0 6048.80773071 0 78.42467127 0 1171.54558179 0 16015
0.11950000 0.11950300 14242.69132172 0 58.56322828 0 6403.11304175 0 445.63110197 0 1204.97527706 0 15270
0.12050000 0.12050700 13819.03119567 0 -128.04000435 0 5226.61033299 0 455.73981917 0 502.97190948 0 15999
0.12150000 0.12150000 14087.79515464 0 12.96260602 0 5511.72943878 0 734.84180463 0 142.37633029 0 15670
0.12250000 0.12250700 13881.19199421 0 -92.53112591 0 4177.05953359 0 160.84809164 0 -463.83533583 0 16887
0.12350000 0.12352200 13916.82485703 0 41.14437868 0 4180.90383614 0 259.07226992 0 -1146.07426723 0 16407
0.12450000 0.12449800 13757.43242966 0 116.79935362 0 3839.07564741 0 -30.52859573 0 -1499.76134248 0 16306
0.12550000 0.12549900 13586.01250601 0 84.04331054 0 3605.69725693 0 238.09384346 0 -1832.76562039 0 17523
0.12650000 0.12650100 13403.35193163 0 105.24362744 0 3551.25878544 0 130.67818507 0 -1321.21484627 0 17154
0.12750000 0.12750600 13571.62447308 0 91.54711934 0 3347.78052591 0 253.46093707 0 -1961.48231191 0 18007
0.12850000 0.12850300 13409.53428954 0 15.79626166 0 3690.45176344 0 177.28192300 0 -1803.18022766 0 17496
0.12950000 0.12949900 13557.91087918 0 31.49832667 0 3285.70965257 0 -37.38887727 0 -1275.03825307 0 18405
0.13050000 0.13049000 13402.22786656 0 57.58304353 0 3339.35003786 0 60.99604231 0 -1321.06871781 0 18100
0.13150000 0.13148800 13518.79341464 0 159.82069616 0 3827.16055763 0 -161.02456985 0 -398.08202531 0 19059
0.13250000 0.13249300 13373.78902021 0 247.91030374 0 3494.90940333 0 74.86183462 0 -831.42822010 0 18957
0.13350000 0.13349100 13270.93706602 0 262.83114352 0 3646.14111826 0 275.70618487 0 -273.43557342 0 19468
0.13450000 0.13450700 13086.70280054 0 314.55387380 0 3481.81404523 0 10.13854989 0 -399.51408422 0 19953
0.13550000 0.13551000 12759.93708379 0 200.98620727 0 3814.55978816 0 403.62928645 0 -41.07075242 0 19956
0.13650000 0.13649900 12562.21403743 0 334.08000818 0 3598.14353964 0 29.45207861 0 12.75442916 0 19723
0.13750000 0.13749600 12265.12363861 0 201.75057152 0 3387.99957423 0 265.14109725 0 -208.26452861 0 20946
0.13850000 0.13851100 12092.35483688 0 238.63676689 0 3420.59746134 0 56.99189771 0 181.13296994 0 20955
0.13950000 0.13949800 11931.95075095 0 259.61069709 0 3751.83695709 0 55.38212412 0 -386.98075865 0 20506
0.14050000 0.14048300 11692.18767086 0 349.47295529 0 4061.11222130 0 -237.60599922 0 86.30391781 0 21447
0.14150000 0.14148400 11485.58451042 0 278.72092740 0 4194.29145116 0 -488.14773929 0 -238.95712543 0 21771
0.14250000 0.14249400 11392.96154840 0 197.03624260 0 4417.81179094 0 -349.87537059 0 475.26482949 0 22470
0.14350000 0.14350900 11363.84826300 0 -97.59683757 0 5033.37230628 0 130.13076538 0 431.98270385 0 22519
0.14450000 0.14449900 11554.60210591 0 -77.71347530 0 4493.36020451 0 204.76081778 0 246.12528841 0 22218
0.14550000 0.14550500 11535.94262569 0 87.89132250 0 4746.57834352 0 380.83661896 0 -3.62059112 0 23559
0.14650000 0.14650700 11365.30954760 0 320.08202583 0 4051.69255599 0 156.33384630 0 -262.23651310 0 23044
0.14750000 0.14750500 10924.49618853 0 421.18605883 0 4355.21260702 0 75.53852179 0 226.78012850 0 23649
0.14850000 0.14849900 10831.21002811 0 253.69699074 0 4148.40711488 0 427.62245543 0 168.84131837 0 23640
0.14950000 0.14949500 10387.65395027 0 180.12917983 0 3905.65402169 0 704.67302213 0 154.98609228 0 24457
0.15050000 0.15050000 10317.07390433 0 49.87768986 0 3418.14699949 0 452.62503485 0 360.71922635 0 24591
0.15150000 0.15149900 10403.80676537 0 47.23051662 0 3712.01133155 0 168.05672095 0 406.29332067 0 25020
0.15250000 0.15250500 10284.37485135 0 132.45982821 0 3504.19418083 0 -134.85521088 0 482.59935409 0 25297
0.15350000 0.15350100 10118.22679290 0 125.25681923 0 3591.96118174 0 -152.04216585 0 342.92190405 0 25452
0.15450000 0.15450400 10156.09654521 0 142.97433291 0 3929.20318497 0 -174.03899527 0 599.86294658 0 26061
0.15550000 0.15549900 10092.58686858 0 159.38568298 0 3741.76533403 0 -69.39741708 0 -51.75914998 0 26128
0.15650000 0.15649500 9937.83682997 0 125.61539598 0 3706.33480293 0 429.94027761 0 -66.37390684 0 26331
0.15750000 0.15749700 9752.81571894 0 183.70370677 0 3388.78641978 0 335.08042610 0 -361.68704638 0 27345
0.15850000 0.15849900 9543.59348688 0 165.45900656 0 2981.75121616 0 308.42434695 0 -144.60085507 0 26980
0.15950000 0.15949700 9378.37840244 0 181.55224622 0 3094.50618364 0 223.61026499 0 -222.78520123 0 27777
0.16050000 0.16050000 9267.30953256 0 179.39179315 0 2909.84477343 0 -82.09946481 0 -40.46173396 0 28224
0.16150000 0.16150500 9145.17986237 0 104.76129112 0 2948.47888999 0 -51.72351712 0 71.90172165 0 28075
0.16250000 0.16249700 9182.28525043 0 61.37833684 0 3294.75837641 0 -189.61853718 0 101.08649758 0 28590
0.16350000 0.16349900 9190.80566369 0 63.69930641 0 3237.04887556 0 135.38914179 0 560.50718025 0 29163
0.16450000 0.16449100 9061.85291850 0 -13.70167880 0 3256.65257043 0 491.06693629 0 430.53940430 0 28996
0.16550000 0.16550500 9151.38470157 0 18.77109988 0 2893.54582987 0 354.97075756 0 906.46630812 0 30777
0.16650000 0.16650700 9087.94246885 0 49.45863840 0 2696.66583232 0 789.60625499 0 402.03873437 0 29211
0.16750000 0.16749900 8910.62120357 0 88.61960427 0 2303.63647951 0 536.05202052 0 762.09026606 0 30922
0.16850000 0.16850800 8794.86498234 0 151.91627056 0 2039.67227839 0 420.09009538 0 503.87453373 0 30867
0.16950000 0.16949900 8665.77734934 0 110.91914441 0 1887.69868051 0 43.56111859 0 436.17659064 0 30852
0.17050000 0.17049200 8521.78461348 0 89.84854461 0 1708.43278265 0 -41.09368335 0 80.80960014 0 31257
0.17150000 0.17149500 8593.79222206 0 63.72549712 0 2012.66099469 0 -224.87259007 0 358.99828272 0 32608
0.17250000 0.17250900 8393.34893823 0 115.29760268 0 1630.83857066 0 -235.76253250 0 165.27128770 0 32361
0.17350000 0.17350400 8529.39453403 0 171.60202219 0 2280.35709184 0 -100.66036452 0 174.42342552 0 32508
0.17450000 0.17449800 8240.61097610 0 114.53773469 0 1858.07956583 0 -93.88213972 0 122.59390907 0 32791
0.17550000 0.17549800 8326.78180460 0 105.12863559 0 2279.01945441 0 -35.16626341 0 57.78211546 0 33633
0.17650000 0.17650100 8242.54436802 0 43.60574397 0 1961.88697533 0 56.61083965 0 -134.95300455 0 33984
0.17750000 0.17750300 8135.06126573 0 23.68922179 0 1825.08825594 0 273.00168430 0 -268.20979490 0 34069
