### header ###
fiducial parameters:
Omega_m = 0.31
Omega_nu = 0
Omega_de = 0.69
Omega_k = 0
H_0 = 100
w_de = -1
zeff = 0
beta = 0
fgrowth = 0
b_1 = 2
gamma = 0.55
Lx = 3500 Ly = 3500 Lz = 3500
nx = 700 ny = 700 nz = 700
xoffset = 857.220397 yoffset = 15.9954215 zoffset = 262.898189
bins = 400 dk = 0.001
kx_ny = 0.628318531 ky_ny = 0.628318531 kz_ny = 0.628318531
############################
A(data) = 3.08343554 (not used)
A(ran) = 3.08447584 (used)
Ngal = 187856
weighted Ngal = 0
Nran = 9360983
weighted Nran = 0
SN(data) = 3444.98043
SN(ran) = 69.2657352
SN(data+ran) = 3514.24616
############################
13 columns: k_central k_mean P_0(k) sigma^{lin}_{P_0(k)} P^img_1(k) sigma^{lin}_{P_1(k)} P_2(k) sigma^{lin}_{P_2(k)} P^img_3(k) sigma^{lin}_{P_3(k)} P_4(k) sigma^{lin}_{P_4(k)} N_modes
### header ###
0.00050000 0 0 0 0 0 0 0 0 0 0 0 0
0.00150000 0.00179520 8382.65907938 0 -11993.32470394 0 -3755.99599786 0 14940.73573211 0 -18520.65817692 0 3
0.00250000 0.00253879 25331.36845483 0 -24223.26510576 0 -16768.69035399 0 5249.58622309 0 46516.28566800 0 6
0.00350000 0.00331552 34108.63057812 0 -22226.36350340 0 -12740.37835152 0 -26447.78988543 0 -36546.84012818 0 7
0.00450000 0.00420575 51444.74898101 0 -17178.07485361 0 -27033.65260153 0 -17003.61995426 0 8905.06832211 0 24
0.00550000 0.00557378 57350.02484253 0 -4759.99968050 0 -27573.31624312 0 -25111.61373303 0 6436.03690774 0 45
0.00650000 0.00659388 66658.85733889 0 5041.99388539 0 -17286.65953967 0 -31615.67905900 0 12687.88451261 0 40
0.00750000 0.00754703 47448.13561360 0 8547.61562886 0 -5553.06131152 0 -12406.98065084 0 4040.13716703 0 57
0.00850000 0.00846663 50514.13550699 0 5075.40109936 0 -10536.82862612 0 6505.38048210 0 18962.86537667 0 75
0.00950000 0.00948925 41997.09444811 0 -3409.63782688 0 -3687.85517313 0 10750.08625179 0 9183.27442770 0 112
0.01050000 0.01054430 54632.59752831 0 -7441.95150101 0 -13577.46961146 0 27524.08219292 0 9738.93351528 0 105
0.01150000 0.01145670 56922.54289523 0 -7535.30510533 0 -5060.76577211 0 7391.70579224 0 15599.10064543 0 144
0.01250000 0.01249090 65288.95923431 0 -4999.20072805 0 -8728.97228775 0 -9971.41265370 0 19759.26548097 0 169
0.01350000 0.01339930 72296.83052604 0 -3723.54423920 0 9988.37479565 0 -8110.27563087 0 9140.93089639 0 180
0.01450000 0.01448870 72279.85714343 0 2222.02935520 0 22246.37186170 0 -19412.04177989 0 20450.00346838 0 267
0.01550000 0.01550050 73928.63579266 0 3553.29334322 0 8966.70081006 0 -25009.21140487 0 -20263.63347927 0 238
0.01650000 0.01653350 71857.65830198 0 2105.89095185 0 40130.58439423 0 -9141.77394520 0 15760.06676389 0 315
0.01750000 0.01747870 68202.08627775 0 1268.19269677 0 19881.33894790 0 5682.11522256 0 -34435.73351439 0 297
0.01850000 0.01844180 76946.07607488 0 -3041.42783089 0 50635.64694139 0 5548.25031301 0 -9940.54582679 0 388
0.01950000 0.01947590 75321.57723124 0 -1050.83335765 0 18547.74814518 0 15815.48317200 0 -23720.02117254 0 399
0.02050000 0.02045430 73054.67519832 0 150.31897410 0 22721.17694858 0 17177.51282107 0 -12707.33083837 0 462
0.02150000 0.02154770 70657.38161692 0 1335.31062229 0 15968.35602194 0 9574.19053817 0 -12097.18831669 0 571
0.02250000 0.02255340 73105.82015915 0 -371.25284015 0 12233.87462958 0 19062.12032263 0 -11143.99237536 0 510
0.02350000 0.02348930 69770.94390028 0 2963.58632458 0 11243.57330018 0 -27.78464048 0 2212.56472729 0 555
0.02450000 0.02439640 66771.26384620 0 3042.18095449 0 7944.39734803 0 1074.85013200 0 372.81978686 0 592
0.02550000 0.02547300 66033.42753222 0 2577.81843214 0 15581.11560426 0 -1086.94169999 0 12972.27297610 0 837
0.02650000 0.02652900 63055.32952755 0 -602.50449951 0 14494.03227206 0 -4618.14266827 0 3118.22395668 0 723
0.02750000 0.02749970 64746.48543003 0 2427.76698553 0 25050.68940607 0 -4881.87081572 0 9817.34829478 0 826
0.02850000 0.02848090 64410.61478619 0 243.19597483 0 22626.30585641 0 -3775.02641954 0 1070.66973400 0 831
0.02950000 0.02946900 64152.52944541 0 2649.29773014 0 21412.65279699 0 -2028.44286831 0 6484.92249777 0 996
0.03050000 0.03053250 62355.82383256 0 4640.14062175 0 26926.07957403 0 434.51634653 0 2603.77309468 0 1041
0.03150000 0.03150510 57386.66936391 0 2337.65068862 0 21523.82283272 0 4878.73467417 0 680.19987736 0 1036
0.03250000 0.03246190 58332.68252943 0 -1472.51400511 0 15375.52410239 0 7551.52536433 0 1652.21828835 0 1059
0.03350000 0.03345080 56463.47471938 0 -137.73843780 0 14767.29249133 0 4568.71752701 0 -3152.62034792 0 1302
0.03450000 0.03451200 55905.71363011 0 433.44174032 0 6089.20662944 0 155.01644204 0 -6316.79608479 0 1339
0.03550000 0.03553350 53750.54366545 0 2853.58531652 0 12439.01650542 0 -4228.03588465 0 -9498.50723680 0 1365
0.03650000 0.03647120 51385.17353213 0 4228.02464400 0 11943.30380819 0 -7129.69746435 0 -7778.55278715 0 1308
0.03750000 0.03744890 48950.33617729 0 2709.81739367 0 14880.37343769 0 -6100.17750455 0 -10289.07344336 0 1579
0.03850000 0.03847530 45963.58287156 0 988.52418252 0 14471.66337711 0 315.11365820 0 -11528.07417018 0 1662
0.03950000 0.03950240 47673.73547377 0 -640.02803978 0 21726.82898492 0 -1640.52801159 0 -8476.63091949 0 1683
0.04050000 0.04050350 47026.94843071 0 -54.24625636 0 15636.19479284 0 868.36499840 0 -14230.10179290 0 1822
0.04150000 0.04152450 50314.95117603 0 987.39112493 0 21441.54126937 0 -1173.80495258 0 -7052.72148815 0 1887
0.04250000 0.04250150 46951.97329034 0 1707.74710296 0 17490.34013091 0 -1673.73289384 0 -9412.07787333 0 1920
0.04350000 0.04349210 46562.14752298 0 1915.84526994 0 24523.39048028 0 2134.01505998 0 -662.29127261 0 2005
0.04450000 0.04448520 45673.68648921 0 403.59556450 0 19458.12844788 0 3624.48038430 0 -6017.48003712 0 2151
0.04550000 0.04548030 45932.89589506 0 774.41788772 0 21589.91785901 0 5307.92520038 0 -600.76219864 0 2274
0.04650000 0.04648670 44115.39507837 0 1389.97390679 0 20028.14184645 0 2797.80920759 0 -1863.93594486 0 2311
0.04750000 0.04749250 42610.83397803 0 1266.48411786 0 16250.27154227 0 2393.31439104 0 -1302.31931239 0 2568
0.04850000 0.04851840 41730.46621278 0 2171.42394561 0 18934.98856286 0 -800.11626342 0 -2403.21740433 0 2493
0.04950000 0.04949480 39775.71705066 0 1977.89366197 0 16210.14241916 0 -3849.85543146 0 -2993.75623114 0 2644
0.05050000 0.05050630 39011.69002047 0 2359.08660956 0 22430.04409465 0 -2002.45448382 0 -1551.02995047 0 2829
0.05150000 0.05149060 37117.07833976 0 1232.79588762 0 16511.84148478 0 -4580.95859565 0 -4472.95842343 0 2784
0.05250000 0.05249300 37522.64101814 0 817.04917968 0 25238.63308629 0 1824.85220227 0 50.09407239 0 3055
0.05350000 0.05348950 37373.58998944 0 -191.21808178 0 21753.80654667 0 4062.09015791 0 -990.57560128 0 3009
0.05450000 0.05448610 36078.55461873 0 -726.44616260 0 19174.63923645 0 6226.57862202 0 -2182.38358007 0 3336
0.05550000 0.05550870 37205.99188704 0 409.25860433 0 17397.04272985 0 5863.22458714 0 1263.95497145 0 3349
0.05650000 0.05647670 35151.08852691 0 236.97090245 0 13837.01623684 0 4677.98789276 0 -422.80246440 0 3324
0.05750000 0.05747970 35100.16837910 0 542.25461159 0 11476.36717682 0 3805.45486107 0 3911.90382350 0 3639
0.05850000 0.05849280 34525.65872024 0 167.62957622 0 10371.77091079 0 2355.12990051 0 3165.49089301 0 3846
0.05950000 0.05951020 34347.83162567 0 921.59734807 0 8488.38864016 0 -106.70862145 0 3952.67366370 0 3787
0.06050000 0.06049470 33894.94580772 0 537.52791796 0 10756.89808613 0 -841.75725406 0 4917.20018097 0 3930
0.06150000 0.06148310 33866.39455487 0 881.29399487 0 9500.68792304 0 -2659.13329953 0 1915.85651059 0 4083
0.06250000 0.06249100 33993.41390813 0 353.96696745 0 11752.32515227 0 -890.38206099 0 4455.41176764 0 4303
0.06350000 0.06350600 33276.26039149 0 -239.14596837 0 10094.44157595 0 199.30010966 0 1562.76518983 0 4470
0.06450000 0.06451750 33407.77600504 0 -371.12357266 0 10010.64252475 0 2205.71917099 0 225.77184213 0 4479
0.06550000 0.06550280 33520.74454489 0 25.17523582 0 7683.70417628 0 1219.31834739 0 -3449.95804105 0 4636
0.06650000 0.06648880 33100.90624009 0 453.73561115 0 7689.80784963 0 1612.69616038 0 -4461.81893856 0 4653
0.06750000 0.06749660 32316.53363208 0 957.85181887 0 4975.65156477 0 -580.62569692 0 -6545.57704912 0 5220
0.06850000 0.06852730 31112.77234530 0 1088.47492475 0 4798.01556127 0 -478.24922226 0 -5283.48802569 0 5029
0.06950000 0.06949320 30757.00574966 0 1003.49897742 0 5030.64082815 0 -325.77991168 0 -6488.31717429 0 5040
0.07050000 0.07048030 29572.69078864 0 887.80570384 0 5604.30743820 0 -469.01952395 0 -4774.42143539 0 5475
0.07150000 0.07148790 29046.06630190 0 1057.16071995 0 6521.30848419 0 -413.26252412 0 -6482.62940502 0 5509
0.07250000 0.07249820 27829.60307979 0 840.44209792 0 7305.26518812 0 -190.93706551 0 -3702.29940931 0 5916
0.07350000 0.07351270 27574.55271470 0 996.02619282 0 8562.63313824 0 -786.74888157 0 -4498.99177052 0 5721
0.07450000 0.07449140 26849.98036858 0 657.72532029 0 10484.22238070 0 -728.37955452 0 -3293.85912435 0 6028
0.07550000 0.07549160 26136.42386018 0 590.89065917 0 10170.82179767 0 -1281.37798008 0 -3115.75101352 0 6183
0.07650000 0.07648840 26205.10423615 0 597.56985384 0 11877.43359490 0 -960.08196398 0 -3741.83277794 0 6330
0.07750000 0.07749960 25493.45863837 0 749.47825594 0 10957.37509192 0 184.74571509 0 -3761.24538175 0 6583
0.07850000 0.07848650 24999.09481922 0 572.09516708 0 11780.98881163 0 862.04100830 0 -4435.51581585 0 6549
0.07950000 0.07947320 24353.76906075 0 381.15697751 0 10480.36683750 0 1956.00811500 0 -3736.70704120 0 6828
0.08050000 0.08048110 24569.36474177 0 184.41523996 0 10813.94438859 0 1891.31817004 0 -4211.96175411 0 7147
0.08150000 0.08149960 23969.67602527 0 159.41828086 0 8652.90680426 0 1856.86557555 0 -2627.37846121 0 7386
0.08250000 0.08250610 23706.08276563 0 313.98734500 0 8259.77628559 0 1626.27486646 0 -1941.85613573 0 7227
0.08350000 0.08350160 23262.52668779 0 93.78007461 0 7351.35185612 0 1452.37075900 0 -1417.34489132 0 7798
0.08450000 0.08449610 23374.93319510 0 324.48386465 0 5702.88794511 0 951.34123397 0 -603.72973044 0 7371
0.08550000 0.08548940 22836.95565111 0 362.12093549 0 5944.15727240 0 895.51004585 0 -1017.01248773 0 8256
0.08650000 0.08650700 22652.27175960 0 346.11200072 0 5367.24211429 0 173.41626322 0 -822.97637481 0 8037
0.08750000 0.08749060 22277.05883820 0 414.97784743 0 4730.58289753 0 4.99698632 0 -1942.59801868 0 8155
0.08850000 0.08849210 21868.68599714 0 497.01324053 0 6509.87674239 0 -739.19755679 0 -1263.08944134 0 8718
0.08950000 0.08949900 21402.31139831 0 448.75487881 0 5682.59857055 0 -254.56701710 0 -1386.56798962 0 8571
0.09050000 0.09049190 21206.04963655 0 449.82386469 0 7932.16752004 0 -120.30643664 0 981.63591175 0 8932
0.09150000 0.09150830 20672.23113334 0 458.56347064 0 6480.16770251 0 640.49677491 0 681.27223544 0 9285
0.09250000 0.09250820 20675.15370253 0 379.18986363 0 8010.45865238 0 1772.79674874 0 2413.96346643 0 9204
0.09350000 0.09350330 20016.00194366 0 711.43090135 0 6313.76110909 0 1251.27551742 0 3023.55519622 0 9349
0.09450000 0.09448040 19536.25097046 0 641.93445414 0 6551.46715010 0 2097.67403616 0 4454.78229120 0 9564
0.09550000 0.09549270 18419.71713335 0 576.32389989 0 5957.76970044 0 1142.30864924 0 4780.48014613 0 10155
0.09650000 0.09649430 18203.44701329 0 486.75614673 0 5143.03609481 0 932.27709033 0 4587.24211941 0 9913
0.09750000 0.09749140 17864.20417423 0 133.82556728 0 5114.79958017 0 318.50271440 0 4463.16781664 0 10476
0.09850000 0.09850240 17764.16238272 0 42.61611708 0 4812.25746575 0 -540.36618227 0 4305.56265275 0 10575
0.09950000 0.09950330 17711.66854381 0 149.39162041 0 5612.82785146 0 -672.35053095 0 4142.59569845 0 10882
0.10050000 0.10051200 17770.45714713 0 244.24360347 0 5554.53383677 0 -219.91995936 0 3898.92087190 0 10875
0.10150000 0.10150300 17278.34145813 0 350.66558833 0 6245.62028436 0 302.22737620 0 4113.77466997 0 11118
0.10250000 0.10250800 17099.39029849 0 538.15739440 0 5797.10707954 0 337.42972210 0 4525.13752412 0 11575
0.10350000 0.10349800 16715.29726301 0 478.30317738 0 5952.08193117 0 854.51314450 0 3011.38157148 0 11364
0.10450000 0.10450100 16182.82763789 0 352.99015491 0 5753.33598560 0 366.28559659 0 3856.17267717 0 12093
0.10550000 0.10551000 15826.16179019 0 265.72898328 0 4696.08534044 0 319.18727003 0 2962.49598145 0 12067
0.10650000 0.10649700 15667.10658235 0 48.61131815 0 5227.37469724 0 438.19541151 0 3841.27881495 0 12054
0.10750000 0.10749900 15557.51023772 0 -68.90946043 0 3808.45611482 0 334.40036673 0 1857.71986501 0 12807
0.10850000 0.10850100 15759.39232485 0 19.57885304 0 4569.81911078 0 271.46845954 0 2638.56290869 0 12736
0.10950000 0.10950300 15561.44446548 0 131.68647144 0 3831.62309597 0 281.57380455 0 1597.10537781 0 12933
0.11050000 0.11050200 15502.76826866 0 363.86211229 0 4150.92502064 0 327.27267010 0 2170.17623338 0 13428
0.11150000 0.11150900 15245.58217994 0 269.15288549 0 4241.77195985 0 -14.03271597 0 2887.92550450 0 13453
0.11250000 0.11250000 15013.91236837 0 209.39983434 0 4215.48007779 0 88.72234381 0 2546.60314506 0 13668
0.11350000 0.11349100 15101.36463106 0 2.96689108 0 4689.30722805 0 132.76444985 0 3114.52578259 0 13791
0.11450000 0.11448600 15114.96581844 0 15.44263079 0 4154.65691668 0 -317.73610202 0 2480.67672852 0 14205
0.11550000 0.11549300 15008.17963650 0 193.05817630 0 4868.29210964 0 -166.12332902 0 1483.46239892 0 14776
0.11650000 0.11649800 15103.83757422 0 348.05775736 0 4907.72431240 0 -518.44803741 0 2342.72022210 0 14553
0.11750000 0.11747300 14604.07824272 0 193.86413096 0 4304.71960394 0 -317.12236249 0 400.51899839 0 14568
0.11850000 0.11849100 14422.87895293 0 330.04461457 0 5128.79419033 0 -104.77028364 0 1243.91289119 0 16015
0.11950000 0.11950300 14243.92779330 0 309.99691399 0 4209.16283208 0 -316.10058734 0 -537.96630333 0 15270
0.12050000 0.12050700 13921.54593033 0 265.61432864 0 5066.76827960 0 206.93700776 0 961.46793621 0 15999
0.12150000 0.12150000 13856.01293657 0 110.27112089 0 4470.17074205 0 -10.30801394 0 29.04786481 0 15670
0.12250000 0.12250700 13866.24192874 0 -89.02775229 0 5159.12146600 0 549.43626334 0 1337.45758658 0 16887
0.12350000 0.12352200 13982.24544428 0 -63.49674988 0 4970.35721828 0 475.00629453 0 912.57335366 0 16407
0.12450000 0.12449800 14191.88358041 0 -122.34661475 0 4950.00039980 0 381.71451378 0 1538.81136312 0 16306
0.12550000 0.12549900 14269.66888347 0 47.68486372 0 5001.58374601 0 -48.81005286 0 1586.23566855 0 17523
0.12650000 0.12650100 14263.37411906 0 191.25742406 0 5251.53085566 0 -75.06472836 0 1764.87208997 0 17154
0.12750000 0.12750600 14215.93857298 0 386.09049911 0 5868.74374665 0 -510.49752514 0 1541.13817782 0 18007
0.12850000 0.12850300 13703.70211917 0 514.40252721 0 6054.15828046 0 -372.49718018 0 1958.06515409 0 17496
0.12950000 0.12949900 13361.76152393 0 414.33263407 0 6241.85466636 0 222.69977228 0 2377.89221824 0 18405
0.13050000 0.13049000 13021.61943281 0 335.95607279 0 6500.77181530 0 602.30216779 0 2511.72340584 0 18100
0.13150000 0.13148800 12896.62339668 0 163.95950376 0 6048.98758112 0 1181.12261621 0 2708.49099689 0 19059
0.13250000 0.13249300 12580.98592415 0 86.33640329 0 5661.36498131 0 1230.35666641 0 2740.66173928 0 18957
0.13350000 0.13349100 12454.41619692 0 97.88055159 0 5113.10224191 0 393.33959477 0 2667.72115668 0 19468
0.13450000 0.13450700 12343.35856770 0 116.76563166 0 4803.86069965 0 192.57033206 0 2822.25762293 0 19953
0.13550000 0.13551000 12235.44832068 0 221.54198526 0 4597.35870507 0 -387.13925183 0 2404.89226129 0 19956
0.13650000 0.13649900 11938.13310885 0 180.40345171 0 4304.07888685 0 -211.26241016 0 1613.69657829 0 19723
0.13750000 0.13749600 11931.95075095 0 140.47778438 0 4438.39342243 0 -204.94853665 0 361.54204198 0 20946
0.13850000 0.13851100 11804.25695864 0 199.99703000 0 4127.71307688 0 -266.36745224 0 217.25480107 0 20955
0.13950000 0.13949800 11461.52951786 0 267.78265017 0 3855.65560724 0 -41.42134832 0 -635.60933997 0 20506
0.14050000 0.14048300 11288.08627708 0 306.49769942 0 4105.63643884 0 -126.57647162 0 -57.16489132 0 21447
0.14150000 0.14148400 10930.56613993 0 297.39052419 0 3818.08935249 0 438.78104941 0 -230.75482260 0 21771
0.14250000 0.14249400 10871.37287318 0 226.17987775 0 3614.85838728 0 775.48350141 0 210.22040184 0 22470
0.14350000 0.14350900 10650.67393672 0 24.58971032 0 3524.55099931 0 1104.57266067 0 787.69084810 0 22519
0.14450000 0.14449900 10549.46311754 0 -56.35994833 0 2755.31954783 0 698.68400342 0 1084.48336968 0 22218
0.14550000 0.14550500 10666.93915833 0 -118.09989691 0 2834.84715175 0 739.86525144 0 1050.53210821 0 23559
0.14650000 0.14650700 10846.12637163 0 -131.77639665 0 2362.18902917 0 -151.34974177 0 1441.19755217 0 23044
0.14750000 0.14750500 10907.71389699 0 12.04222153 0 2614.55287873 0 33.05111016 0 1613.76402219 0 23649
0.14850000 0.14849900 10909.97326779 0 58.18677888 0 2313.13482938 0 -226.80598199 0 1297.55327648 0 23640
0.14950000 0.14949500 10693.14111519 0 165.20834005 0 2526.88704368 0 -4.85989534 0 1081.30226552 0 24457
0.15050000 0.15050000 10675.67314395 0 162.62074226 0 2583.38255425 0 -162.42178274 0 955.62954222 0 24591
0.15150000 0.15149900 10465.29312487 0 153.59899598 0 2502.70840395 0 189.97598987 0 880.13171159 0 25020
0.15250000 0.15250500 10376.41329954 0 190.89547510 0 2628.15406611 0 146.40160732 0 895.01208502 0 25297
0.15350000 0.15350100 10203.62201650 0 200.35673082 0 2521.88495410 0 279.34141132 0 826.68354143 0 25452
0.15450000 0.15450400 9983.44014998 0 338.00074716 0 2545.70389300 0 -86.08461271 0 998.48115094 0 26061
0.15550000 0.15549900 9743.01387150 0 399.88165349 0 2750.74460298 0 -105.31747852 0 843.34780613 0 26128
0.15650000 0.15649500 9408.50334639 0 307.25869147 0 2784.47779583 0 -250.97225700 0 899.18686271 0 26331
0.15750000 0.15749700 9231.89024211 0 197.30714228 0 2651.68074809 0 -259.65565969 0 853.13728886 0 27345
0.15850000 0.15849900 9181.84686505 0 41.81791848 0 2887.12741830 0 -3.81154729 0 863.63156038 0 26980
0.15950000 0.15949700 9145.35971278 0 26.69137479 0 2910.56417508 0 220.68881987 0 1053.46704212 0 27777
0.16050000 0.16050000 9243.87277579 0 -32.03911437 0 2742.33659624 0 279.96863963 0 1252.65811746 0 28224
0.16150000 0.16150500 9260.41901366 0 8.06415524 0 2678.88312286 0 468.91161370 0 1420.77328979 0 28075
0.16250000 0.16249700 9248.40275803 0 117.20176891 0 2761.67051549 0 285.79916516 0 1394.17791016 0 28590
0.16350000 0.16349900 9165.78397516 0 122.66697330 0 2897.42385437 0 110.98827441 0 2022.50780473 0 29163
0.16450000 0.16449100 9045.38536518 0 148.71043698 0 2662.58417930 0 92.87003153 0 1988.63972407 0 28996
0.16550000 0.16550500 8951.23367466 0 147.59873662 0 2905.33727249 0 -82.09328245 0 1934.24621519 0 30777
0.16650000 0.16650700 8766.20132298 0 148.84420072 0 2484.30745871 0 18.88159547 0 1465.21882278 0 29211
0.16750000 0.16749900 8571.09734824 0 116.16762904 0 2310.65064556 0 222.34456772 0 1333.62452468 0 30922
0.16850000 0.16850800 8505.64303903 0 154.96473504 0 2172.36816027 0 29.94722927 0 776.46256209 0 30867
0.16950000 0.16949900 8305.85171294 0 88.02283812 0 1598.75775347 0 164.07191026 0 334.53975080 0 30852
0.17050000 0.17049200 8151.89976053 0 142.82370819 0 1625.54422416 0 88.64343445 0 -246.97058534 0 31257
0.17150000 0.17149500 8080.17316821 0 167.40925947 0 1395.56051020 0 -169.00543187 0 -104.13091543 0 32608
0.17250000 0.17250900 7945.65630091 0 173.84565608 0 1526.57029447 0 36.64631989 0 91.49395106 0 32361
0.17350000 0.17350400 7956.43608497 0 161.41012417 0 1821.00789972 0 -116.77799638 0 172.29107408 0 32508
0.17450000 0.17449800 7878.65078191 0 82.01156292 0 1911.77615437 0 15.17026982 0 469.40283014 0 32791
0.17550000 0.17549800 7871.32187763 0 -1.53723767 0 2004.35415380 0 112.03983728 0 306.69890706 0 33633
0.17650000 0.17650100 7971.71212931 0 60.44097898 0 2356.65862901 0 -221.09460736 0 546.53729952 0 33984
0.17750000 0.17750300 7833.63197573 0 35.03845721 0 2228.47024807 0 -137.77215975 0 155.68076449 0 34069
