### header ###
fiducial parameters:
Omega_m = 0.31
Omega_nu = 0
Omega_de = 0.69
Omega_k = 0
H_0 = 100
w_de = -1
zeff = 0
beta = 0
fgrowth = 0
b_1 = 2
gamma = 0.55
Lx = 3500 Ly = 3500 Lz = 3500
nx = 700 ny = 700 nz = 700
xoffset = 857.220397 yoffset = 15.9954215 zoffset = 262.898189
bins = 400 dk = 0.001
kx_ny = 0.628318531 ky_ny = 0.628318531 kz_ny = 0.628318531
############################
A(data) = 3.04775487 (not used)
A(ran) = 3.04653578 (used)
Ngal = 185875
weighted Ngal = 0
Nran = 9360983
weighted Nran = 0
SN(data) = 3447.62736
SN(ran) = 68.4137443
SN(data+ran) = 3516.04111
############################
13 columns: k_central k_mean P_0(k) sigma^{lin}_{P_0(k)} P^img_1(k) sigma^{lin}_{P_1(k)} P_2(k) sigma^{lin}_{P_2(k)} P^img_3(k) sigma^{lin}_{P_3(k)} P_4(k) sigma^{lin}_{P_4(k)} N_modes
### header ###
0.00050000 0 0 0 0 0 0 0 0 0 0 0 0
0.00150000 0.00179520 40948.45414142 0 -48495.98907474 0 -48010.05574364 0 123104.23461060 0 24094.78446791 0 3
0.00250000 0.00253879 79106.97877141 0 -56671.42675790 0 -3156.23983745 0 -75208.38387838 0 10476.19655608 0 6
0.00350000 0.00331552 105427.86171008 0 -41153.93323678 0 -34996.75439238 0 -35239.44004166 0 15895.51660520 0 7
0.00450000 0.00420575 135727.48538150 0 -24681.99606210 0 -21052.38994106 0 -59507.10571781 0 23125.05352935 0 24
0.00550000 0.00557378 149411.85358141 0 -5734.60906148 0 -14721.20582334 0 -48420.00227580 0 68634.51411137 0 45
0.00650000 0.00659388 159704.91745578 0 3697.06126607 0 19307.95335412 0 -2343.57451156 0 -67511.79791636 0 40
0.00750000 0.00754703 141000.47463941 0 11663.63641800 0 10244.68411362 0 426.68161297 0 42434.58057456 0 57
0.00850000 0.00846663 133427.64824194 0 18163.76751621 0 15576.28212444 0 31592.52331849 0 -4234.55546208 0 75
0.00950000 0.00948925 110326.53729865 0 14903.75399121 0 12218.58734459 0 28582.61427226 0 49784.84208756 0 112
0.01050000 0.01054430 90851.09824864 0 13443.25624173 0 -624.38105396 0 34434.94666884 0 -2617.90259264 0 105
0.01150000 0.01145670 80400.21563801 0 8482.59970503 0 -121.97342515 0 15786.25748010 0 28398.94203931 0 144
0.01250000 0.01249090 69813.99559258 0 4939.76016699 0 -6203.70389778 0 -1829.39342517 0 10076.13055591 0 169
0.01350000 0.01339930 66146.95810461 0 3942.78189105 0 276.67737709 0 -14393.42844802 0 14877.67568151 0 180
0.01450000 0.01448870 62458.67578675 0 2079.00331530 0 -10540.41439370 0 -20106.48918205 0 6492.67854678 0 267
0.01550000 0.01550050 66819.26142483 0 -6479.92040820 0 8201.92065628 0 -13672.90273616 0 -16520.94641187 0 238
0.01650000 0.01653350 66415.94687660 0 -4158.18648101 0 -8647.37640410 0 -14133.43219661 0 -22580.66881444 0 315
0.01750000 0.01747870 77939.97441252 0 -6814.54333981 0 -2584.29304696 0 -7363.81773778 0 -34824.21040365 0 297
0.01850000 0.01844180 73858.15691257 0 1858.13576909 0 -16627.84500033 0 -4311.72252935 0 -31781.70347030 0 388
0.01950000 0.01947590 72331.22691727 0 2453.38442855 0 -9984.78902807 0 -10566.63883186 0 -38553.97072270 0 399
0.02050000 0.02045430 68850.10979239 0 2913.01463694 0 -14178.73201906 0 -7173.31118919 0 -23987.43625343 0 462
0.02150000 0.02154770 68119.46749488 0 -428.12041626 0 -19944.96103104 0 5568.16874610 0 -18006.62321899 0 571
0.02250000 0.02255340 69201.71734726 0 -2371.40636277 0 -13106.59875234 0 3585.55401082 0 -15536.26540784 0 510
0.02350000 0.02348930 68910.24727380 0 -1679.94897370 0 -15563.58018912 0 648.79125109 0 -14252.13346833 0 555
0.02450000 0.02439640 73655.37557339 0 1006.77000679 0 -8169.10919680 0 -5261.60247872 0 -7446.86366538 0 592
0.02550000 0.02547300 69753.85811117 0 5442.64439939 0 -6109.39483815 0 -16739.35225558 0 -1892.92558310 0 837
0.02650000 0.02652900 70407.50195117 0 4154.15108740 0 13431.56596497 0 -8560.83463412 0 10082.11058210 0 723
0.02750000 0.02749970 62542.41863470 0 2598.78224575 0 13074.56289775 0 -1638.20119688 0 6964.74091487 0 826
0.02850000 0.02848090 62450.69492473 0 2418.21243241 0 13724.94694905 0 3387.26893193 0 4859.52440207 0 831
0.02950000 0.02946900 61221.75458031 0 1535.81010938 0 13181.46148620 0 3857.88125608 0 -474.45887483 0 996
0.03050000 0.03053250 58628.87367620 0 4039.31659953 0 12808.27188194 0 2949.60295507 0 -1187.65343428 0 1041
0.03150000 0.03150510 54604.83312101 0 3795.52936648 0 12570.08249295 0 -1950.38778964 0 -1616.47301902 0 1036
0.03250000 0.03246190 50436.01298441 0 4684.57491409 0 11430.84254136 0 1490.73509994 0 7754.10437181 0 1059
0.03350000 0.03345080 49831.37838159 0 3618.36547031 0 14493.58264603 0 653.28076699 0 5297.57256106 0 1302
0.03450000 0.03451200 47625.85030166 0 2099.05663620 0 17609.71584168 0 5176.42082748 0 15774.34239032 0 1339
0.03550000 0.03553350 47306.61582090 0 1412.60133671 0 21288.78082593 0 3362.01118974 0 14884.42007195 0 1365
0.03650000 0.03647120 46042.71705271 0 -50.06529632 0 20153.69991512 0 2077.91297218 0 11672.62893858 0 1308
0.03750000 0.03744890 46585.97770253 0 103.64486969 0 25178.83282441 0 2422.41643578 0 16187.32389818 0 1579
0.03850000 0.03847530 46324.07054050 0 754.13525754 0 25301.46832388 0 -493.23863001 0 15019.75750675 0 1662
0.03950000 0.03950240 45284.98478693 0 1185.24793503 0 28427.83051169 0 3532.47565807 0 19222.41200205 0 1683
0.04050000 0.04050350 44222.06885381 0 268.90671524 0 19947.32156769 0 3308.88787438 0 5832.86358952 0 1822
0.04150000 0.04152450 43797.50947570 0 -159.49584135 0 21969.62704071 0 6873.61295940 0 15455.10790956 0 1887
0.04250000 0.04250150 43885.86099044 0 -885.19337661 0 12413.50022826 0 2712.02056122 0 4703.35804146 0 1920
0.04350000 0.04349210 44130.00792432 0 -1149.06428032 0 13262.28176496 0 5505.29978657 0 10420.55533496 0 2005
0.04450000 0.04448520 44224.54179697 0 1133.23744410 0 11290.67162674 0 982.48120869 0 4683.67566203 0 2151
0.04550000 0.04548030 43030.11025029 0 2661.94346221 0 8793.94324898 0 1530.36963442 0 5366.55643459 0 2274
0.04650000 0.04648670 39136.91086961 0 4009.20289622 0 9269.42277490 0 152.78854506 0 2214.11593709 0 2311
0.04750000 0.04749250 36638.78865116 0 3635.85592284 0 9986.62125414 0 -60.19435910 0 3439.58292043 0 2568
0.04850000 0.04851840 33072.13017421 0 2353.61241266 0 7857.67572764 0 442.83892433 0 -1124.50345848 0 2493
0.04950000 0.04949480 31605.89969286 0 647.46597837 0 8930.30358300 0 568.08450290 0 -2162.77988520 0 2644
0.05050000 0.05050630 32544.94365493 0 -1836.82349530 0 7409.57842690 0 -1045.51990205 0 -532.16387943 0 2829
0.05150000 0.05149060 35079.48558176 0 -2687.22368570 0 6017.95214445 0 121.56314140 0 -3854.44161696 0 2784
0.05250000 0.05249300 38140.42718231 0 -3278.83037433 0 7279.08571257 0 -1471.83956607 0 -5806.34689444 0 3055
0.05350000 0.05348950 39704.33891851 0 -1177.73918034 0 6314.19949447 0 -3435.12038209 0 -8132.09373394 0 3009
0.05450000 0.05448610 40724.42797235 0 1504.52737839 0 11235.22149669 0 -5661.80336669 0 -7508.50739399 0 3336
0.05550000 0.05550870 39532.46936884 0 2508.26128541 0 16123.25218901 0 -3870.05488082 0 -6776.86467856 0 3349
0.05650000 0.05647670 37667.98263209 0 2836.71309977 0 15367.09361434 0 -812.41803158 0 -5423.04070452 0 3324
0.05750000 0.05747970 36177.02271913 0 1190.50855957 0 18907.67378159 0 2394.37101221 0 -1766.79424125 0 3639
0.05850000 0.05849280 35162.66639716 0 443.14129783 0 18422.41488953 0 4710.34972622 0 -3447.60874505 0 3846
0.05950000 0.05951020 36291.90216960 0 -369.17781602 0 18863.16080469 0 2480.54184071 0 -981.27396280 0 3787
0.06050000 0.06049470 35290.69740899 0 438.74957559 0 17375.12346092 0 324.26242383 0 -2931.75280170 0 3930
0.06150000 0.06148310 36757.37751637 0 -87.20069692 0 19079.54333126 0 -2438.77158260 0 -1015.69733160 0 4083
0.06250000 0.06249100 36605.17910547 0 67.61318859 0 21519.66379195 0 -3277.91988162 0 -1429.14757459 0 4303
0.06350000 0.06350600 36952.85243258 0 315.65208537 0 20644.91635206 0 -1570.49875753 0 -3192.81691493 0 4470
0.06450000 0.06451750 36735.90787347 0 575.15150002 0 20936.38642551 0 1115.08154503 0 -4136.99785438 0 4479
0.06550000 0.06550280 35972.21806281 0 1066.08354850 0 18153.08889801 0 3978.63956689 0 -3860.26427404 0 4636
0.06650000 0.06648880 34508.68533764 0 1118.02659553 0 18525.94128276 0 4590.07476340 0 -4083.68344797 0 4653
0.06750000 0.06749660 33618.42579974 0 1215.32791638 0 16425.17606765 0 4096.41910524 0 -1741.15431693 0 5220
0.06850000 0.06852730 32231.55431255 0 523.66482341 0 14927.47176425 0 4411.38213873 0 -790.50775518 0 5029
0.06950000 0.06949320 31502.14848662 0 222.71550919 0 13170.44564849 0 100.45904446 0 -2295.56569228 0 5040
0.07050000 0.07048030 32087.11195066 0 -23.33491648 0 13332.53583203 0 268.76620711 0 1943.56471464 0 5475
0.07150000 0.07148790 31493.15596603 0 78.30597000 0 12710.70303359 0 -176.81993226 0 199.31921876 0 5509
0.07250000 0.07249820 31497.09019379 0 337.14083737 0 12504.09987315 0 1112.59960935 0 753.38887833 0 5916
0.07350000 0.07351270 30966.08185326 0 467.23113641 0 10977.97920471 0 1224.23051176 0 -1708.62387371 0 5721
0.07450000 0.07449140 30789.94085630 0 547.90079045 0 8864.91671769 0 3167.55917274 0 -1823.86302501 0 6028
0.07550000 0.07549160 29452.19101281 0 245.44410497 0 8144.41348714 0 1708.17424768 0 -2147.03173352 0 6183
0.07650000 0.07648840 29425.55067057 0 348.88282113 0 7309.34554433 0 1233.88623074 0 -3078.07235227 0 6330
0.07750000 0.07749960 28915.11272088 0 408.09744511 0 7054.29517925 0 141.28149091 0 -2303.19809413 0 6583
0.07850000 0.07848650 28587.56015858 0 1003.13590440 0 7518.17435361 0 -978.65489118 0 -2055.46539267 0 6549
0.07950000 0.07947320 28107.47196586 0 970.04455272 0 7953.96314180 0 -1392.67166297 0 -504.50401017 0 6828
0.08050000 0.08048110 26899.21441878 0 956.24890208 0 9382.34635214 0 -692.13857250 0 -2146.28985058 0 7147
0.08150000 0.08149960 26693.17329088 0 657.59492874 0 10174.43004655 0 -159.81507583 0 -2033.25386682 0 7386
0.08250000 0.08250610 25491.54772774 0 545.95390974 0 9453.11748915 0 647.48621154 0 -2858.62112805 0 7227
0.08350000 0.08350160 25564.27473797 0 614.90406133 0 10155.20853380 0 136.74364021 0 -2911.55335234 0 7798
0.08450000 0.08449610 24366.02137005 0 643.75993582 0 9294.18592846 0 31.97571710 0 -2966.10423034 0 7371
0.08550000 0.08548940 24412.67007058 0 755.05361871 0 9611.20600103 0 284.48176090 0 -2738.32368393 0 8256
0.08650000 0.08650700 23197.89294608 0 462.02783919 0 8264.71093126 0 728.52905518 0 -1637.48179524 0 8037
0.08750000 0.08749060 23301.41933932 0 409.76330955 0 9219.09838158 0 1032.85281274 0 -1706.90405415 0 8155
0.08850000 0.08849210 22664.41166239 0 693.79544442 0 8471.50518276 0 895.60109512 0 -1128.58381469 0 8718
0.08950000 0.08949900 22217.82060885 0 442.26565114 0 7821.67192335 0 1170.60136713 0 -647.38392162 0 8571
0.09050000 0.09049190 21644.21020205 0 401.96567014 0 7825.69607631 0 1061.08595518 0 569.50194896 0 8932
0.09150000 0.09150830 21661.52080417 0 58.77747508 0 7131.08006439 0 1142.70207201 0 409.05852075 0 9285
0.09250000 0.09250820 21208.29776670 0 126.46518918 0 6350.21453941 0 1280.33259956 0 1238.37125038 0 9204
0.09350000 0.09350330 21176.14950561 0 309.33821186 0 6450.33501547 0 634.44256043 0 1821.50248835 0 9349
0.09450000 0.09448040 20373.11741738 0 492.05161729 0 5868.76622795 0 443.51223931 0 1059.05364553 0 9564
0.09550000 0.09549270 20210.91482734 0 728.40315989 0 6057.74404804 0 144.37941425 0 2143.37852204 0 10155
0.09650000 0.09649430 19327.96171242 0 605.36187292 0 5616.76207921 0 60.63813999 0 1105.54272882 0 9913
0.09750000 0.09749140 18722.65267055 0 658.64592958 0 5546.60917800 0 -195.89194435 0 1862.80063914 0 10476
0.09850000 0.09850240 18307.31062604 0 374.52724171 0 5439.48577654 0 -30.80253039 0 483.59077949 0 10575
0.09950000 0.09950330 18191.98154954 0 216.56012885 0 5429.98742667 0 -185.72252764 0 1121.42239611 0 10882
0.10050000 0.10051200 18202.21054171 0 -8.92736977 0 4657.47370518 0 493.60619929 0 944.54626060 0 10875
0.10150000 0.10150300 17886.57306918 0 55.23959267 0 4897.83253976 0 283.24641338 0 -247.31567332 0 11118
0.10250000 0.10250800 18107.90148208 0 92.51415252 0 4138.13316011 0 406.92167305 0 -260.38630199 0 11575
0.10350000 0.10349800 17742.58033332 0 491.69978493 0 4434.75145160 0 -36.49850533 0 -431.17787326 0 11364
0.10450000 0.10450100 17362.75874512 0 586.68440767 0 4754.07585756 0 -377.47116813 0 283.46448200 0 12093
0.10550000 0.10551000 16912.12105731 0 502.93706346 0 4967.45713039 0 -747.04802726 0 -92.27292816 0 12067
0.10650000 0.10649700 16611.77086978 0 294.79056168 0 5174.39751035 0 -279.42908839 0 994.79983782 0 12054
0.10750000 0.10749900 16384.14769248 0 271.46396328 0 5472.99415636 0 -539.16680483 0 -211.35907976 0 12807
0.10850000 0.10850100 16415.50910802 0 1.04565479 0 6170.07187080 0 -74.87093954 0 66.91278364 0 12736
0.10950000 0.10950300 16384.14769248 0 130.81082475 0 5660.51069186 0 85.30158898 0 -941.18643010 0 12933
0.11050000 0.11050200 16344.69300841 0 -121.81830417 0 5631.02646499 0 301.32137976 0 -1022.62944090 0 13428
0.11150000 0.11150900 16332.10347959 0 -124.57563579 0 4829.00603534 0 987.25398899 0 -502.57174231 0 13453
0.11250000 0.11250000 16451.36678385 0 -201.99786583 0 4322.54727600 0 1305.64654501 0 -1295.40631219 0 13668
0.11350000 0.11349100 16298.04430788 0 48.18979375 0 3705.45803217 0 1249.12855313 0 -591.77642245 0 13791
0.11450000 0.11448600 16239.25570456 0 160.21749113 0 3045.86788793 0 728.23792232 0 -1788.56738171 0 14205
0.11550000 0.11549300 15837.06522140 0 349.20430374 0 3104.82510101 0 22.77962833 0 -833.13230275 0 14776
0.11650000 0.11649800 15578.86747411 0 533.48915215 0 3647.84969717 0 -388.65336748 0 -1385.51136845 0 14553
0.11750000 0.11747300 14861.26433144 0 496.49617059 0 3309.60727603 0 -529.10979462 0 -1057.55863898 0 14568
0.11850000 0.11849100 14827.54237925 0 399.86591658 0 4078.22049171 0 -404.79156973 0 -596.69533121 0 16015
0.11950000 0.11950300 14455.47684005 0 220.77762101 0 3688.19239265 0 228.79332904 0 -1167.22917191 0 15270
0.12050000 0.12050700 14553.38290792 0 -111.24770863 0 3479.09380775 0 1189.14844083 0 -370.43452077 0 15999
0.12150000 0.12150000 14550.57274524 0 98.28442817 0 3372.72352988 0 1.49453444 0 -1075.66507918 0 15670
0.12250000 0.12250700 14780.78127221 0 44.66247755 0 3203.66414289 0 -6.71062352 0 -54.32111910 0 16887
0.12350000 0.12352200 14484.02809291 0 405.47387723 0 3754.48975066 0 -340.77831195 0 -558.70642800 0 16407
0.12450000 0.12449800 14217.28745106 0 460.82846176 0 4105.24301607 0 -300.64581665 0 303.39303168 0 16306
0.12550000 0.12549900 13827.68649673 0 546.22031317 0 4157.87174279 0 -125.12193142 0 -78.97051727 0 17523
0.12650000 0.12650100 13295.32927811 0 406.78453711 0 4675.91961303 0 315.66445009 0 523.00162502 0 17154
0.12750000 0.12750600 13090.52462179 0 377.83536522 0 4357.78671604 0 109.51563675 0 424.87186820 0 18007
0.12850000 0.12850300 12750.60734369 0 145.10218809 0 4119.19266363 0 491.86277436 0 -14.32722102 0 17496
0.12950000 0.12949900 12612.34733969 0 47.29436351 0 4240.44556306 0 82.33383238 0 277.32933484 0 18405
0.13050000 0.13049000 12584.02089985 0 113.34060539 0 4105.70388275 0 -298.58990163 0 -334.77243227 0 18100
0.13150000 0.13148800 12602.34316054 0 241.05125867 0 4091.88912300 0 -200.95585751 0 289.87952138 0 19059
0.13250000 0.13249300 12280.97295614 0 348.74905738 0 4312.83535377 0 280.82854941 0 129.57435317 0 18957
0.13350000 0.13349100 12117.75870753 0 177.05148966 0 4024.71499423 0 404.87699868 0 609.09826523 0 19468
0.13450000 0.13450700 11959.71515825 0 4.49651883 0 3722.27404566 0 841.10417225 0 579.63989185 0 19953
0.13550000 0.13551000 12140.01519598 0 -53.50560989 0 3464.91934718 0 580.89659661 0 176.14549321 0 19956
0.13650000 0.13649900 12084.37397486 0 -5.64287411 0 3206.99137550 0 79.64237097 0 60.99267012 0 19723
0.13750000 0.13749600 12017.37969650 0 81.39062937 0 2969.26285319 0 -562.87558535 0 -378.55476686 0 20946
0.13850000 0.13851100 12078.75364949 0 92.61408191 0 3003.77165094 0 -312.76998252 0 -252.24582273 0 20955
0.13950000 0.13949800 12018.95338760 0 138.48481701 0 2920.28733796 0 -330.64486532 0 -689.20251453 0 20506
0.14050000 0.14048300 11907.22131934 0 102.44549226 0 3204.25989738 0 484.15056389 0 -632.55750330 0 21447
0.14150000 0.14148400 11892.38366037 0 120.61780267 0 3091.51617054 0 418.07577077 0 -863.64617322 0 21771
0.14250000 0.14249400 11463.10320896 0 319.33115036 0 2970.61173128 0 305.44107825 0 -688.94173143 0 22470
0.14350000 0.14350900 11406.11310975 0 325.03802873 0 3057.13101996 0 450.77482374 0 -279.67638271 0 22519
0.14450000 0.14449900 11069.51182361 0 289.29388347 0 2990.51892373 0 134.27069705 0 -304.34061854 0 22218
0.14550000 0.14550500 10776.95140704 0 201.70898111 0 2683.88521244 0 161.10662660 0 -115.92258286 0 23559
0.14650000 0.14650700 10654.51823927 0 7.47869719 0 2505.96819267 0 179.14337476 0 -665.47125271 0 23044
0.14750000 0.14750500 10418.90295930 0 108.59806244 0 2092.62698399 0 414.34612286 0 -497.83268396 0 23649
0.14850000 0.14849900 10346.95155397 0 248.19694034 0 1713.95194216 0 146.42408862 0 -1186.57433181 0 23640
0.14950000 0.14949500 10049.08555025 0 259.92543531 0 1753.88997421 0 180.36523350 0 -640.83287037 0 24457
0.15050000 0.15050000 9836.36747582 0 249.69307095 0 1474.98694827 0 102.77911477 0 -806.76398426 0 24591
0.15150000 0.15149900 9828.81375853 0 22.50130982 0 1798.17813809 0 78.00550741 0 -181.26785775 0 25020
0.15250000 0.15250500 9862.47950747 0 -138.57699034 0 1632.34481785 0 -189.29031018 0 -235.73555494 0 25297
0.15350000 0.15350100 10209.43343293 0 -157.79962716 0 2373.83434332 0 -38.26710932 0 181.80740899 0 25452
0.15450000 0.15450400 10341.37619121 0 -51.25568124 0 2001.25173419 0 -172.40235652 0 387.22692890 0 26061
0.15550000 0.15549900 10409.37088748 0 71.14162885 0 2493.96317769 0 -51.17508577 0 250.49340528 0 26128
0.15650000 0.15649500 10299.47104529 0 263.90799786 0 2536.67765046 0 -42.94063467 0 371.76204163 0 26331
0.15750000 0.15749700 10018.84819979 0 323.23502836 0 2685.25657183 0 11.33642108 0 222.73911456 0 27345
0.15850000 0.15849900 9917.79474971 0 276.55935026 0 2650.11829764 0 -34.00701510 0 754.13525754 0 26980
0.15950000 0.15949700 9695.15118069 0 125.34899256 0 2618.63323494 0 51.97901711 0 397.76391490 0 27777
0.16050000 0.16050000 9652.02080383 0 44.19351760 0 2801.06899631 0 182.12327127 0 909.19891031 0 28224
0.16150000 0.16150500 9652.65028027 0 43.12925279 0 2900.13285120 0 -110.68455202 0 656.90700091 0 28075
0.16250000 0.16249700 9622.22183874 0 196.45397689 0 3004.32244282 0 -172.18766009 0 536.72083923 0 28590
0.16350000 0.16349900 9491.39190489 0 210.35866184 0 3288.46361200 0 -229.54532858 0 1152.39151294 0 29163
0.16450000 0.16449100 9207.67788043 0 219.67041691 0 2908.15867582 0 -30.98620262 0 551.32132047 0 28996
0.16550000 0.16550500 9163.37847590 0 196.91821577 0 3730.78321827 0 248.31496717 0 1250.78092879 0 30777
0.16650000 0.16650700 8889.62366800 0 146.64328131 0 3073.75594239 0 156.18546971 0 312.76885846 0 29211
0.16750000 0.16749900 8893.17571363 0 57.73940098 0 3273.04143920 0 354.54586097 0 1133.78823598 0 30922
0.16850000 0.16850800 8747.44067691 0 -6.69158186 0 2950.50220712 0 314.38301590 0 556.45155346 0 30867
0.16950000 0.16949900 8812.50156334 0 -52.65289412 0 2590.66649592 0 233.50091357 0 720.70106601 0 30852
0.17050000 0.17049200 8737.09927823 0 6.16213597 0 2639.64201116 0 152.38500570 0 470.50104171 0 31257
0.17150000 0.17149500 8727.48852186 0 87.99237595 0 2234.91114094 0 94.02512080 0 74.84328754 0 32608
0.17250000 0.17250900 8582.20311116 0 132.71161879 0 2462.03972961 0 65.01322607 0 397.71445603 0 32361
0.17350000 0.17350400 8432.76990034 0 134.00654175 0 2106.03708031 0 161.76308060 0 -354.48628552 0 32508
0.17450000 0.17449800 8413.98677297 0 159.28901338 0 2349.88051662 0 69.14652575 0 54.28402495 0 32791
0.17550000 0.17549800 8250.98609672 0 222.36142870 0 2128.40597526 0 -149.00044576 0 -255.55057404 0 33633
0.17650000 0.17650100 8207.42857514 0 137.83285926 0 2251.41241621 0 -42.69266592 0 407.95806104 0 33984
0.17750000 0.17750300 8130.27274852 0 117.07025330 0 2564.98160900 0 5.38846446 0 396.38131486 0 34069
