### header ###
fiducial parameters:
Omega_m = 0.31
Omega_nu = 0
Omega_de = 0.69
Omega_k = 0
H_0 = 100
w_de = -1
zeff = 0
beta = 0
fgrowth = 0
b_1 = 2
gamma = 0.55
Lx = 3500 Ly = 3500 Lz = 3500
nx = 700 ny = 700 nz = 700
xoffset = 857.220397 yoffset = 15.9954215 zoffset = 262.898189
bins = 400 dk = 0.001
kx_ny = 0.628318531 ky_ny = 0.628318531 kz_ny = 0.628318531
############################
A(data) = 3.06803938 (not used)
A(ran) = 3.06665878 (used)
Ngal = 187407
weighted Ngal = 0
Nran = 9360983
weighted Nran = 0
SN(data) = 3446.11108
SN(ran) = 68.8656312
SN(data+ran) = 3514.97671
############################
13 columns: k_central k_mean P_0(k) sigma^{lin}_{P_0(k)} P^img_1(k) sigma^{lin}_{P_1(k)} P_2(k) sigma^{lin}_{P_2(k)} P^img_3(k) sigma^{lin}_{P_3(k)} P_4(k) sigma^{lin}_{P_4(k)} N_modes
### header ###
0.00050000 0 0 0 0 0 0 0 0 0 0 0 0
0.00150000 0.00179520 28240.78608353 0 -49565.53699180 0 -52374.01357694 0 65727.68183234 0 43459.61551472 0 3
0.00250000 0.00253879 49752.80623298 0 -49945.13376698 0 -26246.13261131 0 -60121.29487375 0 -32103.97292675 0 6
0.00350000 0.00331552 84556.22143278 0 -53148.04478627 0 -77526.43087212 0 29447.35753299 0 5100.43402854 0 7
0.00450000 0.00420575 111111.80915872 0 -43078.89467447 0 -63536.65419185 0 -32789.65262134 0 1386.10712294 0 24
0.00550000 0.00557378 134465.16030441 0 -5065.37443891 0 -68614.39334656 0 -51187.33807927 0 26047.17309337 0 45
0.00650000 0.00659388 117636.78209504 0 12346.50594991 0 -6735.53280582 0 -34557.02013578 0 13644.46388981 0 40
0.00750000 0.00754703 104659.90045214 0 24843.52421310 0 -29939.02359597 0 -25771.43993094 0 53419.61890793 0 57
0.00850000 0.00846663 92537.64548432 0 17631.85992362 0 14182.21662078 0 -13695.72125715 0 35814.84895258 0 75
0.00950000 0.00948925 84729.88948657 0 10195.67487644 0 22359.11558854 0 -2037.32298239 0 57286.85238542 0 112
0.01050000 0.01054430 72929.00472315 0 4498.20492497 0 25669.48722881 0 24984.93159930 0 24863.53257140 0 105
0.01150000 0.01145670 79356.29640462 0 1547.44418288 0 33014.69044898 0 12363.70414552 0 35538.77857062 0 144
0.01250000 0.01249090 76933.48654606 0 -2299.34255093 0 22912.83004355 0 20763.16799775 0 22716.34346877 0 169
0.01350000 0.01339930 78210.19965609 0 -560.62408301 0 27819.26168112 0 17386.70133118 0 23266.79813506 0 180
0.01450000 0.01448870 77846.33979193 0 1163.95814254 0 13696.05847667 0 3666.58786194 0 17085.11467206 0 267
0.01550000 0.01550050 76160.01736926 0 418.57035940 0 32767.17131988 0 -649.86585730 0 7096.07667802 0 238
0.01650000 0.01653350 71955.22715032 0 5227.97045173 0 24358.93976009 0 -12818.50087410 0 11065.75744627 0 315
0.01750000 0.01747870 73492.38613779 0 1628.16329578 0 32915.88512905 0 217.69206238 0 11093.38696576 0 297
0.01850000 0.01844180 68601.12937870 0 -571.65678171 0 30125.61839810 0 -1849.58163388 0 254.97392866 0 388
0.01950000 0.01947590 72839.41673682 0 -1403.82238849 0 34325.12551120 0 3122.49540396 0 422.83843448 0 399
0.02050000 0.02045430 72656.53134943 0 -2669.41849495 0 20928.06834397 0 7278.70353044 0 -2849.51620096 0 462
0.02150000 0.02154770 73379.75481746 0 2608.42672408 0 25324.39925137 0 -4204.43051812 0 -8540.38789044 0 571
0.02250000 0.02255340 73406.61997271 0 5404.31378040 0 14187.61213314 0 -2653.80523108 0 -12973.28463467 0 510
0.02350000 0.02348930 65658.32701733 0 6122.61384341 0 23333.00556787 0 -5192.36007021 0 -3086.51408097 0 555
0.02450000 0.02439640 62172.37641263 0 6501.13151613 0 20618.05119681 0 2805.28424033 0 -5602.14923326 0 592
0.02550000 0.02547300 62492.06051942 0 -1291.28099337 0 29994.66481708 0 6789.56661388 0 10137.16728938 0 837
0.02650000 0.02652900 59751.81468422 0 434.35672929 0 24495.62607298 0 8435.55758172 0 -2637.64117533 0 723
0.02750000 0.02749970 66120.20535587 0 2954.94226416 0 31187.29785964 0 1888.53048866 0 14816.52654153 0 826
0.02850000 0.02848090 59727.08525261 0 4793.13711885 0 28916.12437945 0 461.30394128 0 13899.06462887 0 831
0.02950000 0.02946900 58520.96342918 0 4765.90102213 0 34632.55730869 0 5751.21150261 0 22479.16573834 0 996
0.03050000 0.03053250 56459.65289813 0 2063.77223356 0 39113.86753562 0 5451.90669559 0 21483.01927056 0 1041
0.03150000 0.03150510 53737.27969759 0 2922.72655917 0 30617.39686758 0 9754.27700353 0 10786.33735040 0 1036
0.03250000 0.03246190 50848.09524020 0 204.85074299 0 41137.18466719 0 9055.90661426 0 19914.83608708 0 1059
0.03350000 0.03345080 50513.68588096 0 160.00167064 0 21584.40994016 0 4934.20728553 0 2157.39561350 0 1302
0.03450000 0.03451200 52101.31539020 0 -966.90728710 0 23164.28340040 0 7110.22865729 0 8211.20543378 0 1339
0.03550000 0.03553350 51721.15658248 0 -346.32220089 0 14490.66007684 0 2110.72443166 0 -2053.26222513 0 1365
0.03650000 0.03647120 51783.76700705 0 -423.01266457 0 16361.66639102 0 3456.80359735 0 -3464.05381707 0 1308
0.03750000 0.03744890 50024.71757416 0 2082.34178857 0 10244.52674451 0 71.16916844 0 -7451.29248177 0 1579
0.03850000 0.03847530 48042.99085029 0 1811.84676938 0 10810.41482426 0 213.38689315 0 -7745.61768051 0 1662
0.03950000 0.03950240 45399.41461137 0 2827.61941333 0 7525.17727902 0 -3247.96354742 0 -9131.98333841 0 1683
0.04050000 0.04050350 44521.63219579 0 1512.71057212 0 9264.12842841 0 1527.98661647 0 -9510.09634770 0 1822
0.04150000 0.04152450 41592.65583481 0 973.51454160 0 10253.69911551 0 -1614.64079295 0 -6391.72626256 0 1887
0.04250000 0.04250150 42419.74291560 0 488.46472565 0 9960.07083711 0 1783.61025474 0 -8078.82429012 0 1920
0.04350000 0.04349210 41841.52384200 0 -171.63012382 0 9544.75127391 0 1371.13457617 0 -3308.46072965 0 2005
0.04450000 0.04448520 40266.93348760 0 358.96231264 0 6912.80910850 0 2762.82830252 0 -6203.85002624 0 2151
0.04550000 0.04548030 40727.91257408 0 361.94445728 0 6143.49897247 0 4017.16127694 0 -1238.78715446 0 2274
0.04650000 0.04648670 39487.61917242 0 253.05065332 0 3430.62412180 0 2278.83960400 0 -4386.28176564 0 2311
0.04750000 0.04749250 39220.87853057 0 99.23606166 0 7222.71384915 0 -1301.95961157 0 -3204.37230388 0 2568
0.04850000 0.04851840 40374.61892160 0 374.12595047 0 6183.49320777 0 -2707.25452531 0 -2764.51440013 0 2493
0.04950000 0.04949480 39117.80176337 0 945.35333932 0 11937.57107631 0 -6965.77505474 0 -2394.13495854 0 2644
0.05050000 0.05050630 40704.53202056 0 1867.64535960 0 14155.91349807 0 -4654.41624818 0 2744.42735727 0 2829
0.05150000 0.05149060 39081.26964850 0 962.75836291 0 21801.57931228 0 -2380.21903294 0 1698.27123439 0 2784
0.05250000 0.05249300 41013.08788312 0 446.95075437 0 23929.65930867 0 1651.28531433 0 7499.18889453 0 3055
0.05350000 0.05348950 40905.51485563 0 -495.44292162 0 26048.97159749 0 2233.79831652 0 6796.04122870 0 3009
0.05450000 0.05448610 42342.74445809 0 233.75270415 0 26276.70718130 0 6384.13882332 0 12291.08954180 0 3336
0.05550000 0.05550870 41273.30894755 0 88.67524549 0 25792.23513480 0 4355.58354850 0 11001.95551272 0 3349
0.05650000 0.05647670 41093.34612934 0 82.65531499 0 21537.87364613 0 7607.45884237 0 13859.72235131 0 3324
0.05750000 0.05747970 39931.51246979 0 415.33192792 0 16936.28845638 0 5255.72361839 0 14453.79074244 0 3639
0.05850000 0.05849280 38777.09763971 0 888.35537166 0 14619.02830819 0 6036.70154987 0 10237.17535893 0 3846
0.05950000 0.05951020 37844.34844206 0 1217.26130831 0 10968.90799957 0 1101.84455473 0 8292.27300686 0 3787
0.06050000 0.06049470 34826.79575332 0 1940.97936497 0 9614.34214258 0 1301.26269122 0 7433.90319508 0 3930
0.06150000 0.06148310 34404.48450536 0 1375.75448362 0 10212.82810945 0 -2623.11825458 0 6952.27503321 0 4083
0.06250000 0.06249100 33469.93680358 0 574.08925852 0 13124.69620001 0 -2877.55038388 0 5325.41565292 0 4303
0.06350000 0.06350600 33676.31515101 0 591.51451529 0 13788.45662568 0 -2077.23853313 0 4905.21764729 0 4470
0.06450000 0.06451750 33862.01070108 0 761.31353710 0 19584.13614258 0 -2365.54998373 0 6785.10407554 0 4479
0.06550000 0.06550280 33286.15216413 0 683.09659305 0 18311.46966681 0 908.63350558 0 8304.51407550 0 4636
0.06650000 0.06648880 33618.42579974 0 846.50642899 0 20808.91744623 0 2503.85495033 0 10583.15134778 0 4653
0.06750000 0.06749660 32223.12382450 0 784.15453938 0 17856.67293824 0 4743.85810605 0 8533.78962846 0 5220
0.06850000 0.06852730 32027.98612781 0 749.29166114 0 17508.21276558 0 5373.73921041 0 12001.41797246 0 5029
0.06950000 0.06949320 30776.00244940 0 1039.92093392 0 14920.16534127 0 1899.65873289 0 9710.26985592 0 5040
0.07050000 0.07048030 29504.34763220 0 1245.03695627 0 14305.30174629 0 1500.26717176 0 10648.15603096 0 5475
0.07150000 0.07148790 28549.00472657 0 1084.50809911 0 14053.06154389 0 -593.75140478 0 8764.99857335 0 5509
0.07250000 0.07249820 27558.92821019 0 811.59184375 0 11782.67490924 0 471.07768709 0 7544.84841780 0 5916
0.07350000 0.07351270 27185.51379290 0 25.02326222 0 12420.91905775 0 303.37841884 0 6153.75044593 0 5721
0.07450000 0.07449140 26733.75204002 0 -48.50722973 0 9316.28504780 0 2150.59501981 0 2928.24571868 0 6028
0.07550000 0.07549160 26478.13964240 0 151.79487154 0 9508.43273139 0 810.33963526 0 2496.45860215 0 6183
0.07650000 0.07648840 25971.29870094 0 456.52441659 0 7734.52315823 0 58.75915282 0 -698.55136374 0 6330
0.07750000 0.07749960 25800.10359031 0 671.69295289 0 8019.68722663 0 -996.23302079 0 1231.77298840 0 6583
0.07850000 0.07848650 25415.56092880 0 557.45309544 0 7202.26710547 0 -328.48104005 0 -328.52825078 0 6549
0.07950000 0.07947320 24916.47603634 0 433.97679529 0 8547.52570365 0 9.99434358 0 1990.94405747 0 6828
0.08050000 0.08048110 24966.72174511 0 -186.90504409 0 6453.19014076 0 2321.72268653 0 -257.19845344 0 7147
0.08150000 0.08149960 25061.59283728 0 -108.67337480 0 8462.59134673 0 1206.11058278 0 670.12600617 0 7386
0.08250000 0.08250610 25535.38626559 0 22.08563056 0 5409.14726021 0 980.61413660 0 1670.87776856 0 7227
0.08350000 0.08350160 24177.62806380 0 303.98653804 0 6375.88818568 0 859.97160450 0 120.34465486 0 7798
0.08450000 0.08449610 24847.79566038 0 615.49307143 0 5550.26238949 0 -326.87362700 0 2424.28238380 0 7371
0.08550000 0.08548940 23646.28250374 0 415.90969737 0 5938.37957793 0 -452.23386021 0 -1940.51849829 0 8256
0.08650000 0.08650700 23739.35509179 0 859.93226222 0 6106.25869660 0 -1095.92860025 0 739.86974770 0 8037
0.08750000 0.08749060 22366.75923103 0 675.98350927 0 6285.23233754 0 -880.13395972 0 -3365.72060448 0 8155
0.08850000 0.08849210 22382.94576809 0 949.48540253 0 7574.41132922 0 -1255.61440860 0 -1482.90036638 0 8718
0.08950000 0.08949900 21123.99288622 0 887.05258024 0 6639.22291036 0 16.44473480 0 -2991.09219691 0 8571
0.09050000 0.09049190 20753.50103812 0 497.76748819 0 7740.39077792 0 248.41276083 0 -1246.43079696 0 8932
0.09150000 0.09150830 19866.72610195 0 370.00737605 0 6425.57186191 0 1174.42318837 0 -2512.54397334 0 9285
0.09250000 0.09250820 20021.95948855 0 361.17896896 0 7007.00576162 0 699.92272313 0 -2079.16068441 0 9204
0.09350000 0.09350330 19483.53231853 0 372.24201741 0 6155.51522810 0 726.95986033 0 -1837.62158150 0 9349
0.09450000 0.09448040 19135.97139793 0 615.33457825 0 5653.72133882 0 -547.84571126 0 -2564.86920250 0 9564
0.09550000 0.09549270 18511.89046935 0 379.73728332 0 6187.89954286 0 -409.28783003 0 -2185.44103707 0 10155
0.09650000 0.09649430 18596.75738237 0 407.61859339 0 6751.43832660 0 -855.72601072 0 -2461.07303365 0 9913
0.09750000 0.09749140 18265.15818580 0 245.67453831 0 7301.54453273 0 -945.15662793 0 -2464.88361424 0 10476
0.09850000 0.09850240 18669.14717307 0 298.91588050 0 8772.73214105 0 -527.45517084 0 -1365.18827193 0 10575
0.09950000 0.09950330 18485.69975314 0 75.88630752 0 8507.77876267 0 390.51594331 0 -926.98049570 0 10882
0.10050000 0.10051200 18384.98352259 0 234.36756774 0 9303.58311247 0 1548.09614062 0 404.10026971 0 10875
0.10150000 0.10150300 18472.66059830 0 318.75338091 0 9322.73718132 0 1515.36336570 0 1232.75092502 0 11118
0.10250000 0.10250800 17895.34077675 0 363.85536790 0 8722.31782252 0 1657.98474217 0 2655.14286852 0 11575
0.10350000 0.10349800 17521.25192043 0 632.27086671 0 8897.36847636 0 1637.39187003 0 3173.37058917 0 11364
0.10450000 0.10450100 17068.70332200 0 458.23187144 0 7843.92841180 0 953.04194442 0 4150.98122389 0 12093
0.10550000 0.10551000 16584.45608850 0 337.28022144 0 7706.05058993 0 777.91035790 0 3894.73934983 0 12067
0.10650000 0.10649700 16487.78649222 0 136.34347304 0 7905.67330626 0 163.25471496 0 4378.37958818 0 12054
0.10750000 0.10749900 16354.47237455 0 219.78956781 0 7024.75474913 0 -134.69446958 0 2588.85675116 0 12807
0.10850000 0.10850100 16153.60194599 0 155.62568531 0 7527.04322704 0 -198.28058263 0 2667.35021521 0 12736
0.10950000 0.10950300 15774.90442286 0 235.12181541 0 6615.81987553 0 -209.95849468 0 1758.84710118 0 12933
0.11050000 0.11050200 15780.07512219 0 232.04075304 0 6853.02008726 0 309.77772130 0 1181.59472354 0 13428
0.11150000 0.11150900 15522.43940744 0 194.81509001 0 6189.06857053 0 189.40721295 0 889.35578958 0 13453
0.11250000 0.11250000 15240.07426108 0 48.68292110 0 5996.49374221 0 670.42163529 0 -120.35364738 0 13668
0.11350000 0.11349100 15159.36638883 0 54.32820071 0 5806.83024242 0 284.52222724 0 432.10410288 0 13791
0.11450000 0.11448600 15149.13739666 0 -42.55429350 0 5399.14308106 0 492.14603876 0 119.10143889 0 14205
0.11550000 0.11549300 15160.60286041 0 -93.37754691 0 5534.03088983 0 532.92262335 0 1086.09415493 0 14776
0.11650000 0.11649800 15318.87122270 0 -36.61293515 0 5357.91237418 0 571.87147813 0 1311.55912729 0 14553
0.11750000 0.11747300 15479.94974768 0 -33.28199312 0 5201.40879405 0 847.41804576 0 1231.33460302 0 14568
0.11850000 0.11849100 15320.55732031 0 279.13008708 0 5036.28363481 0 256.55773635 0 1510.22638831 0 16015
0.11950000 0.11950300 15167.23484434 0 392.06378091 0 4830.41111668 0 -26.60954285 0 1195.27459548 0 15270
0.12050000 0.12050700 14708.50388801 0 568.34865820 0 5020.38935468 0 -817.48194474 0 1016.36502625 0 15999
0.12150000 0.12150000 14425.01467657 0 385.73417048 0 5408.63019028 0 -620.47155563 0 102.17414295 0 15670
0.12250000 0.12250700 14307.88709596 0 137.74068593 0 5108.17883689 0 -664.15384844 0 -103.36227973 0 16887
0.12350000 0.12352200 14193.34486501 0 27.23171287 0 5515.48381613 0 -615.35031516 0 -949.90018254 0 16407
0.12450000 0.12449800 14420.96804231 0 -61.82526512 0 5797.30941126 0 -219.46134081 0 -1136.81197103 0 16306
0.12550000 0.12549900 14253.70715943 0 142.97208478 0 5832.23411308 0 202.03271185 0 -1590.10245241 0 17523
0.12650000 0.12650100 14233.92361415 0 230.12984242 0 5901.25170856 0 273.18490691 0 -1182.89863903 0 17154
0.12750000 0.12750600 13962.68671201 0 247.50114406 0 5737.30681765 0 686.35975396 0 -1313.95338590 0 18007
0.12850000 0.12850300 13776.54153590 0 87.72900751 0 5298.92143914 0 733.01070262 0 -1011.00998024 0 17496
0.12950000 0.12949900 13547.79429353 0 -0.02791481 0 5133.87496446 0 958.03616554 0 -952.51138571 0 18405
0.13050000 0.13049000 13535.42957772 0 128.73018030 0 4742.83520683 0 605.01341275 0 -269.70929770 0 18100
0.13150000 0.13148800 13497.43617825 0 262.64117652 0 4646.73888373 0 401.90497063 0 509.47912219 0 19059
0.13250000 0.13249300 13156.39483507 0 332.17359382 0 4187.69318918 0 104.27018709 0 -83.85637852 0 18957
0.13350000 0.13349100 12949.34204861 0 408.58416529 0 4807.07552576 0 -93.32437863 0 1200.96236475 0 19468
0.13450000 0.13450700 12604.47888418 0 334.10586168 0 4649.41415861 0 -4.99794178 0 907.87813385 0 19953
0.13550000 0.13551000 12518.03828006 0 214.05233968 0 4925.60818772 0 36.58404668 0 1437.61178459 0 19956
0.13650000 0.13649900 12339.42433995 0 157.52310715 0 5030.77571596 0 138.45783944 0 1574.97253652 0 19723
0.13750000 0.13749600 12186.66389651 0 190.65042892 0 4883.96157676 0 371.44955154 0 867.73552196 0 20946
0.13850000 0.13851100 11933.97406808 0 330.31101799 0 4681.94460182 0 178.94441525 0 1093.21173497 0 20955
0.13950000 0.13949800 11549.20659356 0 458.21388640 0 4623.90912210 0 473.30333594 0 769.60351701 0 20506
0.14050000 0.14048300 10960.64612128 0 340.42310739 0 4012.26035322 0 547.32526913 0 928.01688370 0 21447
0.14150000 0.14148400 10798.01638651 0 285.70699182 0 3949.84101971 0 608.57220277 0 596.10519705 0 21771
0.14250000 0.14249400 10558.47811943 0 -17.51293384 0 3681.72901848 0 361.70615548 0 907.09466049 0 22470
0.14350000 0.14350900 10645.28966502 0 30.02546420 0 3646.20856217 0 370.46599460 0 1041.80823918 0 22519
0.14450000 0.14449900 10770.96014020 0 46.32137278 0 3564.94989803 0 250.38212284 0 1370.69619079 0 22218
0.14550000 0.14550500 10635.75759320 0 41.08514045 0 3827.76755277 0 42.83407330 0 1637.51551719 0 23559
0.14650000 0.14650700 10516.23575398 0 158.40774636 0 3726.19703277 0 341.20658074 0 1236.17932349 0 23044
0.14750000 0.14750500 10537.84028469 0 124.30023985 0 3570.16555997 0 138.57699034 0 1466.23048135 0 23649
0.14850000 0.14849900 10321.50272072 0 169.76754799 0 3521.17880409 0 -98.77654386 0 918.76358002 0 23640
0.14950000 0.14949500 10245.97678846 0 133.13651539 0 3469.82027090 0 -215.98348347 0 799.03828502 0 24457
0.15050000 0.15050000 10057.32494724 0 169.36738082 0 3207.62085194 0 -374.56208772 0 246.39956028 0 24591
0.15150000 0.15149900 10122.88042230 0 170.25314410 0 3445.94512874 0 -230.39736990 0 391.11169779 0 25020
0.15250000 0.15250500 9914.87218052 0 94.41910560 0 3373.76891040 0 42.75505153 0 69.88773426 0 25297
0.15350000 0.15350100 9912.01705524 0 64.24593925 0 3193.25530031 0 610.46512835 0 111.76792594 0 25452
0.15450000 0.15450400 9887.37754884 0 57.28820126 0 3188.44430180 0 768.94144269 0 288.87235907 0 26061
0.15550000 0.15549900 9758.50348821 0 25.55483259 0 2277.24343159 0 906.63941414 0 145.18649297 0 26128
0.15650000 0.15649500 9663.22773261 0 94.35930534 0 2339.06701061 0 707.84850596 0 584.14964093 0 26331
0.15750000 0.15749700 9528.23875798 0 152.98638051 0 1567.93588916 0 219.91209090 0 346.95167733 0 27345
0.15850000 0.15849900 9337.47367443 0 130.18696864 0 1720.64012935 0 231.39891188 0 880.12609126 0 26980
0.15950000 0.15949700 9234.62172024 0 119.03511905 0 1616.01215234 0 -229.66560354 0 504.64901457 0 27777
0.16050000 0.16050000 9199.53964931 0 109.58476676 0 1563.30474106 0 -79.48623833 0 739.95180445 0 28224
0.16150000 0.16150500 9154.98170981 0 -19.39933984 0 1720.74129520 0 0.67940404 0 342.87132112 0 28075
0.16250000 0.16249700 9189.88393033 0 -37.02928886 0 1576.56870893 0 -6.82437891 0 475.04788493 0 28590
0.16350000 0.16349900 9313.65473553 0 -105.20383554 0 1572.93797874 0 275.23744973 0 652.63667770 0 29163
0.16450000 0.16449100 9353.86254319 0 -84.57364444 0 1644.22618568 0 134.69784177 0 325.12233361 0 28996
0.16550000 0.16550500 9437.14452446 0 31.28587837 0 1304.58992384 0 -127.99841394 0 336.70582419 0 30777
0.16650000 0.16650700 9485.92894863 0 167.23502938 0 1968.65384707 0 -330.47175930 0 255.68883405 0 29211
0.16750000 0.16749900 9240.43313666 0 216.67478349 0 2021.65351527 0 -507.08261545 0 342.56782355 0 30922
0.16850000 0.16850800 9204.72158929 0 272.33398965 0 2271.85915989 0 -451.69655710 0 467.53238585 0 30867
0.16950000 0.16949900 9052.65806620 0 133.37256905 0 2536.87998218 0 -340.32868592 0 441.03142769 0 30852
0.17050000 0.17049200 8994.82491819 0 138.64218612 0 2678.77071635 0 -57.06608601 0 9.99011710 0 31257
0.17150000 0.17149500 8942.91559312 0 104.62707775 0 2707.05219359 0 65.36550807 0 -113.13714961 0 32608
0.17250000 0.17250900 8759.54685774 0 98.70999921 0 2518.22050196 0 113.14052180 0 8.65704336 0 32361
0.17350000 0.17350400 8709.60464654 0 171.80210577 0 2421.01135444 0 249.83695128 0 -433.22479576 0 32508
0.17450000 0.17449800 8483.03809041 0 207.45744989 0 2504.54063002 0 147.51780393 0 113.16075497 0 32791
0.17550000 0.17549800 8370.59786115 0 268.83702321 0 2509.03689032 0 -83.03637305 0 -309.64395756 0 33633
0.17650000 0.17650100 8122.86515969 0 243.53094622 0 2757.03936739 0 -30.01602205 0 456.39065285 0 33984
0.17750000 0.17750300 8089.43546441 0 204.03017548 0 3023.33038321 0 -309.34945251 0 649.88384234 0 34069
