### header ###
fiducial parameters:
Omega_m = 0.31
Omega_nu = 0
Omega_de = 0.69
Omega_k = 0
H_0 = 100
w_de = -1
zeff = 0
beta = 0
fgrowth = 0
b_1 = 2
gamma = 0.55
Lx = 3500 Ly = 3500 Lz = 3500
nx = 700 ny = 700 nz = 700
xoffset = 857.220397 yoffset = 15.9954215 zoffset = 262.898189
bins = 400 dk = 0.001
kx_ny = 0.628318531 ky_ny = 0.628318531 kz_ny = 0.628318531
############################
A(data) = 3.1327397 (not used)
A(ran) = 3.13342319 (used)
Ngal = 191083
weighted Ngal = 0
Nran = 9360983
weighted Nran = 0
SN(data) = 3445.09062
SN(ran) = 70.3649088
SN(data+ran) = 3515.45553
############################
13 columns: k_central k_mean P_0(k) sigma^{lin}_{P_0(k)} P^img_1(k) sigma^{lin}_{P_1(k)} P_2(k) sigma^{lin}_{P_2(k)} P^img_3(k) sigma^{lin}_{P_3(k)} P_4(k) sigma^{lin}_{P_4(k)} N_modes
### header ###
0.00050000 0 0 0 0 0 0 0 0 0 0 0 0
0.00150000 0.00179520 1460.02564215 0 -8871.51497967 0 -14727.38818124 0 17161.21387751 0 17426.26842175 0 3
0.00250000 0.00253879 6703.47446993 0 -12094.94018655 0 -11854.05304138 0 989.91127882 0 653.85966050 0 6
0.00350000 0.00331552 18748.39376073 0 -20161.45596412 0 -26298.73885673 0 -3383.12113181 0 -12306.82645283 0 7
0.00450000 0.00420575 33833.68426124 0 -26563.11896193 0 -34865.35118533 0 -6175.60227096 0 -10064.53020436 0 24
0.00550000 0.00557378 60218.18928305 0 -19695.75580434 0 -46585.07845048 0 -28501.00714795 0 -11590.34737523 0 45
0.00650000 0.00659388 77665.14050214 0 -18835.28399088 0 -35308.34523064 0 -38831.95201528 0 -27115.37213234 0 40
0.00750000 0.00754703 79973.18331674 0 -4861.98610458 0 -33281.76831035 0 -50264.25584124 0 -869.15634021 0 57
0.00850000 0.00846663 83759.14688944 0 -1822.58159082 0 -18345.41643202 0 -40834.69875602 0 -15688.01419271 0 75
0.00950000 0.00948925 84715.38904713 0 -9189.92889293 0 -22297.74163555 0 -18172.98484981 0 -11944.65268627 0 112
0.01050000 0.01054430 98672.00580774 0 -4548.25954268 0 -1045.62668823 0 -23920.44197507 0 -37527.47449795 0 105
0.01150000 0.01145670 100280.99255338 0 -2169.18705611 0 -19963.50810475 0 -10993.27773035 0 -37919.99802148 0 144
0.01250000 0.01249090 96693.53887258 0 5894.59724333 0 -763.89326644 0 -30574.34517528 0 -53010.34681482 0 169
0.01350000 0.01339930 93730.84055941 0 6598.21701649 0 -4257.16041070 0 -47196.34503723 0 -53475.59734857 0 180
0.01450000 0.01448870 84619.16907687 0 10763.35021965 0 12187.67555508 0 -34754.96799515 0 -64995.69065674 0 267
0.01550000 0.01550050 80200.13205500 0 7297.40797326 0 21435.35891146 0 -25942.18541555 0 -88402.09767388 0 238
0.01650000 0.01653350 68428.36057697 0 5502.17488566 0 24461.90412078 0 -15858.53486430 0 -74450.98883212 0 315
0.01750000 0.01747870 71817.30436585 0 2322.34092232 0 29182.30298876 0 -12898.08468128 0 -75691.95667283 0 297
0.01850000 0.01844180 65593.58086912 0 3358.34673760 0 18212.66434689 0 -698.01181251 0 -62238.69625195 0 388
0.01950000 0.01947590 59668.40905580 0 3527.45108719 0 16519.14790776 0 3607.72057406 0 -61825.26511806 0 399
0.02050000 0.02045430 58458.35300461 0 2371.94591400 0 11203.07323560 0 9450.20616061 0 -45034.99271467 0 462
0.02150000 0.02154770 54386.42727731 0 2595.03910906 0 9461.26696093 0 6810.31685513 0 -38597.58444754 0 571
0.02250000 0.02255340 50672.74108880 0 2797.26965636 0 4002.23369277 0 6721.40330785 0 -30299.73607792 0 510
0.02350000 0.02348930 46553.82944144 0 329.34657016 0 9962.08291359 0 -5109.23545806 0 -17613.20044340 0 555
0.02450000 0.02439640 51663.60445074 0 1511.73263551 0 16233.52297268 0 -5099.66966429 0 -19674.51097445 0 592
0.02550000 0.02547300 52975.05117152 0 981.03453694 0 25724.90363692 0 -3244.16420747 0 -6292.95466459 0 837
0.02650000 0.02652900 54111.14374090 0 232.74554184 0 36726.35332035 0 -2505.40616013 0 -5018.75946033 0 723
0.02750000 0.02749970 56279.46526691 0 902.68382915 0 45563.86533157 0 1066.31735403 0 15212.64707329 0 826
0.02850000 0.02848090 59434.60352059 0 842.93077799 0 50007.96900457 0 4631.48532069 0 6096.20955484 0 831
0.02950000 0.02946900 58362.02062784 0 2802.13685813 0 54707.46026218 0 6329.93640549 0 12905.27869774 0 996
0.03050000 0.03053250 59295.33185804 0 2357.81641603 0 56748.31280890 0 5808.70743110 0 15150.59868126 0 1041
0.03150000 0.03150510 56771.46854941 0 859.39720725 0 54676.77328569 0 9943.19862037 0 15158.35473026 0 1036
0.03250000 0.03246190 55466.54140605 0 1550.52412118 0 47124.18005953 0 5796.32023399 0 11014.63496674 0 1059
0.03350000 0.03345080 54664.97060242 0 388.47576520 0 45470.56793050 0 10773.11834514 0 4602.57436701 0 1302
0.03450000 0.03451200 53847.55048126 0 1301.73479855 0 37415.85483619 0 7774.88833501 0 2492.56933699 0 1339
0.03550000 0.03553350 51326.49733532 0 1657.38898768 0 30905.04511979 0 5570.02345347 0 -2239.54228904 0 1365
0.03650000 0.03647120 51353.58730358 0 1189.90156443 0 28185.59448844 0 5049.34527096 0 -3992.83650876 0 1308
0.03750000 0.03744890 47480.28387469 0 1063.10252792 0 21109.38004026 0 3092.46038521 0 -1543.93709985 0 1579
0.03850000 0.03847530 48280.84301975 0 1711.92862503 0 22580.33159492 0 4820.08095865 0 -2033.02905381 0 1662
0.03950000 0.03950240 45217.76569556 0 1149.17668683 0 19134.51011334 0 5610.07389203 0 2626.28811809 0 1683
0.04050000 0.04050350 46010.56879161 0 1483.77713714 0 17428.40414539 0 5704.05697279 0 1141.96018906 0 1822
0.04150000 0.04152450 45674.69814777 0 1124.78447475 0 22449.94004644 0 4392.85754632 0 8874.80849034 0 1887
0.04250000 0.04250150 43081.25521112 0 745.48557680 0 18322.14828501 0 2256.18969277 0 4091.49570022 0 1920
0.04350000 0.04349210 44613.13109274 0 1533.13483450 0 23261.29021621 0 -1116.31464442 0 12023.44964790 0 2005
0.04450000 0.04448520 43095.19361802 0 2183.02429716 0 21718.96052941 0 -595.14299734 0 6579.84979319 0 2151
0.04550000 0.04548030 41455.85711542 0 1197.91614840 0 25999.06310825 0 1027.24485209 0 13240.69971556 0 2274
0.04650000 0.04648670 41836.46554917 0 529.58977041 0 25839.10864834 0 1540.30636967 0 8831.67811348 0 2311
0.04750000 0.04749250 41183.60855471 0 -262.88397458 0 23667.41492712 0 4080.77211943 0 8016.55108507 0 2568
0.04850000 0.04851840 42456.27503048 0 133.88289460 0 21365.55447042 0 2748.54143544 0 2159.23908022 0 2493
0.04950000 0.04949480 40980.15277648 0 30.45856647 0 19147.54926818 0 1212.23673743 0 2495.08724276 0 2644
0.05050000 0.05050630 41469.90792883 0 511.71488762 0 18857.09085330 0 575.12789465 0 -2470.13299814 0 2829
0.05150000 0.05149060 41165.96073306 0 405.63686667 0 20289.59938245 0 -236.86186814 0 -2297.75761918 0 2784
0.05250000 0.05249300 40471.73814392 0 323.13498656 0 18635.65003390 0 -948.71204576 0 -2656.49174660 0 3055
0.05350000 0.05348950 42038.01041678 0 685.99668094 0 20826.22804835 0 -2374.30645065 0 -3666.77895300 0 3009
0.05450000 0.05448610 41163.60019641 0 842.64863766 0 22223.32852771 0 1021.85496007 0 977.32737033 0 3336
0.05550000 0.05550870 41300.62372882 0 750.46068882 0 26112.25646111 0 -816.51862097 0 63.67817398 0 3349
0.05650000 0.05647670 40765.34394101 0 690.84252547 0 25036.52618615 0 432.81788420 0 2495.75044115 0 3324
0.05750000 0.05747970 40636.30127062 0 1307.08534830 0 29319.55133418 0 3071.41788704 0 5065.19458849 0 3639
0.05850000 0.05849280 38524.18299827 0 853.41156073 0 24134.57637150 0 3096.60818533 0 3829.04898696 0 3846
0.05950000 0.05951020 36941.49937534 0 1313.38011271 0 23487.67692193 0 5285.45513957 0 5866.14715633 0 3787
0.06050000 0.06049470 36298.08452750 0 861.14962470 0 19776.68848960 0 5594.32574035 0 2686.89770683 0 3930
0.06150000 0.06148310 33935.63696337 0 1320.63033243 0 15845.60811596 0 4801.50016300 0 -32.18411877 0 4083
0.06250000 0.06249100 32130.16364296 0 910.55678092 0 13024.31718898 0 2911.90181251 0 1513.63230548 0 4303
0.06350000 0.06350600 30852.55128087 0 661.34143763 0 10665.21933877 0 1892.28486601 0 1241.55235454 0 4470
0.06450000 0.06451750 31078.60076707 0 -157.19937641 0 8021.83419092 0 1545.71312267 0 43.90103587 0 4479
0.06550000 0.06550280 30685.29039800 0 -293.72045173 0 7329.29769938 0 2348.75645154 0 -782.61569430 0 4636
0.06650000 0.06648880 30682.14301579 0 278.89066122 0 5674.60646788 0 -648.41918555 0 -2714.89816780 0 4653
0.06750000 0.06749660 30700.01565045 0 303.99328243 0 6348.77573612 0 61.88495297 0 -2176.42603519 0 5220
0.06850000 0.06852730 29738.60279343 0 1300.75686194 0 5874.01561184 0 -1225.03983862 0 -3113.76141834 0 5029
0.06950000 0.06949320 29006.83643084 0 1250.18517430 0 7352.39723663 0 -540.42126145 0 -1535.32676139 0 5040
0.07050000 0.07048030 27776.77202135 0 606.86137573 0 8035.35669375 0 -124.84203921 0 -3302.46946281 0 5475
0.07150000 0.07148790 27655.93502599 0 653.27289853 0 8313.29302372 0 -10.44699335 0 -2246.35412338 0 5509
0.07250000 0.07249820 27286.23002345 0 463.40481891 0 10751.55877703 0 130.14875042 0 1799.88671700 0 5916
0.07350000 0.07351270 27180.23068706 0 299.99048671 0 10255.01427164 0 143.26096950 0 630.90287951 0 5721
0.07450000 0.07449140 27459.44845122 0 53.45941081 0 11694.99783354 0 1092.98579789 0 5747.22107160 0 6028
0.07550000 0.07549160 27519.47352612 0 -142.44040200 0 11798.41182026 0 2141.08542929 0 5568.43852172 0 6183
0.07650000 0.07648840 27542.74167313 0 -102.31262777 0 11370.36784043 0 2048.21517295 0 7032.79181440 0 6330
0.07750000 0.07749960 27828.14179519 0 -131.17164964 0 10669.40086084 0 2114.72610332 0 6645.37154631 0 6583
0.07850000 0.07848650 27159.09826368 0 138.57249408 0 9548.73046426 0 1317.70776324 0 6419.47942922 0 6549
0.07950000 0.07947320 27332.09187843 0 527.76541280 0 8394.85518543 0 729.64862399 0 6688.50192316 0 6828
0.08050000 0.08048110 26349.20937852 0 722.25115174 0 7580.03165459 0 -920.66212593 0 3780.26456278 0 7147
0.08150000 0.08149960 25889.91638965 0 567.78212940 0 7534.14731830 0 -1245.71139531 0 4382.75220131 0 7386
0.08250000 0.08250610 25302.14276292 0 876.81796775 0 7714.23378366 0 -1002.92233204 0 1887.92349352 0 7227
0.08350000 0.08350160 24795.63904099 0 332.51643366 0 7113.94931268 0 -344.23481205 0 676.16560781 0 7798
0.08450000 0.08449610 24314.87640922 0 445.89076100 0 7247.53320596 0 -735.90067393 0 101.02849583 0 7371
0.08550000 0.08548940 24227.98617907 0 610.87091585 0 6855.62791823 0 -17.24653042 0 -1673.76661580 0 8256
0.08650000 0.08650700 23721.59486364 0 330.13229164 0 8105.13865349 0 259.67027254 0 -1029.72903590 0 8037
0.08750000 0.08749060 23138.09268419 0 537.66617796 0 6819.12952531 0 -101.98552483 0 -1826.65070639 0 8155
0.08850000 0.08849210 23279.61247690 0 3.79107807 0 8439.22203386 0 804.79012600 0 -592.35531596 0 8718
0.08950000 0.08949900 22635.52319001 0 360.79341464 0 7089.88307946 0 495.30128942 0 -1261.16729007 0 8571
0.09050000 0.09049190 22347.42531178 0 634.08173554 0 7426.54056886 0 752.34687001 0 -883.22626273 0 8932
0.09150000 0.09150830 21383.31469858 0 1059.00643480 0 6236.24558165 0 557.20917332 0 -849.31097135 0 9285
0.09250000 0.09250820 20513.06351899 0 927.94044727 0 6707.84708307 0 701.65715554 0 -859.86144612 0 9204
0.09350000 0.09350330 19498.93201004 0 670.00910341 0 5322.34695527 0 1044.98259895 0 451.03335871 0 9349
0.09450000 0.09448040 19412.49140591 0 150.15598466 0 5680.38416235 0 327.11417692 0 -790.54709746 0 9564
0.09550000 0.09549270 19343.69862344 0 -344.98681158 0 5793.31898025 0 -388.84670667 0 138.38589928 0 10155
0.09650000 0.09649430 20161.79318364 0 -309.95082732 0 6529.50291857 0 115.63594626 0 -37.12955546 0 9913
0.09750000 0.09749140 20098.05869400 0 -179.93134438 0 6217.58610144 0 -67.75763095 0 1187.54102778 0 10476
0.09850000 0.09850240 20553.97948765 0 237.94209467 0 6843.25196177 0 120.78641243 0 793.84847657 0 10575
0.09950000 0.09950330 20220.13216094 0 571.46007032 0 7629.79401537 0 905.29728044 0 1636.53758058 0 10882
0.10050000 0.10051200 19525.01031973 0 791.91958091 0 6825.91887835 0 734.05608314 0 1517.54405194 0 10875
0.10150000 0.10150300 18790.54620097 0 843.29609914 0 7097.83021953 0 268.64705621 0 1615.61872957 0 11118
0.10250000 0.10250800 18091.49013201 0 618.64270176 0 6674.39490649 0 -56.82070260 0 1626.80317704 0 11575
0.10350000 0.10349800 17451.11025986 0 505.64268809 0 6535.11200329 0 -360.80577936 0 535.32924667 0 11364
0.10450000 0.10450100 17222.02579797 0 291.83427054 0 5834.17874565 0 -552.87702653 0 -225.89436522 0 12093
0.10550000 0.10551000 16908.29923606 0 431.63649181 0 6380.06970775 0 -1161.97978801 0 -851.65015076 0 12067
0.10650000 0.10649700 16837.25832344 0 333.86418769 0 6129.67297207 0 -386.63791880 0 -1002.74248163 0 12054
0.10750000 0.10749900 16396.28759527 0 547.85245565 0 6494.72434521 0 -133.76599183 0 -2813.37750886 0 12807
0.10850000 0.10850100 15881.35338528 0 404.30934582 0 6128.45898179 0 321.28365139 0 -2390.36934055 0 12736
0.10950000 0.10950300 15379.34592363 0 470.59995944 0 5409.22594477 0 598.25440947 0 -2885.95839063 0 12933
0.11050000 0.11050200 15240.29907409 0 263.04134369 0 5291.68246007 0 675.57322552 0 -2869.55828121 0 13428
0.11150000 0.11150900 14715.69790448 0 174.82134456 0 4744.86976461 0 495.04725071 0 -2626.77146607 0 13453
0.11250000 0.11250000 14917.91721113 0 -39.96714533 0 4377.91872150 0 633.10492299 0 -2627.04124169 0 13668
0.11350000 0.11349100 14828.55403782 0 -97.60515565 0 4311.98106431 0 259.72422766 0 -2055.71268699 0 13791
0.11450000 0.11448600 14756.83868615 0 115.21329780 0 3893.23310263 0 39.29641570 0 -2502.67468200 0 14205
0.11550000 0.11549300 14798.99112639 0 195.79864695 0 4501.74572995 0 317.20441924 0 -1636.88604075 0 14776
0.11650000 0.11649800 14553.04568840 0 78.04125268 0 3441.87601318 0 265.11074749 0 -2120.39139129 0 14553
0.11750000 0.11747300 14532.70011058 0 68.66846088 0 4127.99409315 0 499.94143004 0 -1204.07602500 0 14568
0.11850000 0.11849100 14395.56417166 0 8.92602090 0 3488.80572998 0 846.01970881 0 -1670.93397181 0 16015
0.11950000 0.11950300 14484.81493846 0 26.38562909 0 3433.08582431 0 618.63258518 0 -1336.35600280 0 15270
0.12050000 0.12050700 14631.50543050 0 -126.18642104 0 3167.91887356 0 515.91327067 0 -428.94323189 0 15999
0.12150000 0.12150000 14411.52589570 0 140.47216406 0 3306.79711334 0 -144.30185376 0 -475.56270674 0 15670
0.12250000 0.12250700 14835.74805428 0 182.44812608 0 3760.21124188 0 -76.17833963 0 708.68481038 0 16887
0.12350000 0.12352200 14249.09849263 0 349.62920034 0 4741.69990111 0 -560.66005310 0 643.74757110 0 16407
0.12450000 0.12449800 14556.97991616 0 392.96528110 0 4896.96700965 0 -258.26856339 0 2293.78966947 0 16306
0.12550000 0.12549900 13987.30373711 0 284.57955456 0 5711.93666895 0 204.94853665 0 2018.59605827 0 17523
0.12650000 0.12650100 13902.88645012 0 138.23752269 0 5319.54803324 0 1032.89552722 0 3216.57965058 0 17154
0.12750000 0.12750600 13614.33894585 0 87.65313312 0 5193.05699056 0 1185.27041633 0 3032.82873308 0 18007
0.12850000 0.12850300 13527.78593523 0 143.64539976 0 4480.43345617 0 905.02750482 0 2640.83352014 0 17496
0.12950000 0.12949900 13161.00350187 0 129.03929820 0 3917.86136838 0 667.56426187 0 1879.76278109 0 18405
0.13050000 0.13049000 13119.97512671 0 138.20155261 0 3746.93603337 0 -147.39303271 0 2032.78175949 0 18100
0.13150000 0.13148800 12981.82752922 0 47.53817323 0 3172.11163629 0 -52.73866029 0 1872.31022966 0 19059
0.13250000 0.13249300 13125.93267159 0 18.91880203 0 3476.03635075 0 -531.78057324 0 1312.28976959 0 18957
0.13350000 0.13349100 12953.61349589 0 138.81978840 0 3264.64467310 0 -69.45553124 0 1058.70181316 0 19468
0.13450000 0.13450700 12947.54354449 0 216.25101096 0 3557.65471571 0 -14.36914864 0 1126.25699999 0 19953
0.13550000 0.13551000 12606.72701433 0 293.85196734 0 3168.80688497 0 19.77061854 0 836.73155911 0 19956
0.13650000 0.13649900 12478.24637647 0 296.01242041 0 3297.31000413 0 54.39227242 0 1023.11953327 0 19723
0.13750000 0.13749600 12181.26838416 0 218.05850760 0 2733.44524151 0 387.49782858 0 483.30414289 0 20946
0.13850000 0.13851100 12022.32558282 0 78.95410592 0 2868.95128607 0 113.84755873 0 1061.10956055 0 20955
0.13950000 0.13949800 12046.38057539 0 0.45763837 0 2664.70866229 0 203.76826832 0 530.02927985 0 20506
0.14050000 0.14048300 12062.45470593 0 52.65132043 0 2067.74018327 0 218.88694355 0 321.53769009 0 21447
0.14150000 0.14148400 11782.78731575 0 91.18876740 0 2417.78528768 0 19.15721623 0 319.59867784 0 21771
0.14250000 0.14249400 11851.91731774 0 253.94765725 0 2315.64149449 0 -347.19447539 0 142.54156785 0 22470
0.14350000 0.14350900 11577.30822038 0 362.27380834 0 2743.42693936 0 -575.15936847 0 -111.48904540 0 22519
0.14450000 0.14449900 11376.21297881 0 366.81615530 0 2867.96210881 0 -363.13371812 0 -82.96656861 0 22218
0.14550000 0.14550500 11040.01635609 0 256.39249878 0 2736.01935053 0 78.51999199 0 21.93343215 0 23559
0.14650000 0.14650700 10926.56446827 0 168.28153396 0 3046.12642289 0 316.97848216 0 -169.76979612 0 23044
0.14750000 0.14750500 10797.94894260 0 3.29199318 0 2617.91383330 0 480.37482931 0 -106.09398267 0 23649
0.14850000 0.14849900 10839.77540397 0 28.86644070 0 2858.25018657 0 315.18110211 0 -158.26836229 0 23640
0.14950000 0.14949500 10761.48427163 0 91.54273549 0 2540.49947171 0 -34.72293214 0 34.70966817 0 24457
0.15050000 0.15050000 10733.87723344 0 96.07238051 0 2867.33263237 0 -43.37474860 0 367.53780508 0 24591
0.15150000 0.15149900 10704.34804396 0 186.84546865 0 3033.77294774 0 -138.56237750 0 296.39235441 0 25020
0.15250000 0.15250500 10613.59102996 0 216.59497487 0 2968.59965480 0 -110.01865588 0 196.05718192 0 25297
0.15350000 0.15350100 10428.95210106 0 136.37045060 0 3123.10239910 0 -111.60774667 0 4.25227073 0 25452
0.15450000 0.15450400 10296.46979154 0 257.37155946 0 3089.33548430 0 -83.79556660 0 -483.05235232 0 26061
0.15550000 0.15549900 10044.17338588 0 213.52740129 0 3176.87767220 0 -47.63922668 0 -538.82396499 0 26128
0.15650000 0.15649500 9920.29017418 0 182.98767731 0 2862.97125988 0 -37.57311154 0 -666.10972167 0 26331
0.15750000 0.15749700 9748.96017573 0 231.37530652 0 3177.91181206 0 -47.58324824 0 -918.92994165 0 27345
0.15850000 0.15849900 9559.15054749 0 234.24729278 0 3165.36724585 0 124.06306212 0 -364.72539427 0 26980
0.15950000 0.15949700 9370.42002172 0 168.70980276 0 3211.26282278 0 84.16032571 0 -169.71808913 0 27777
0.16050000 0.16050000 9369.34091925 0 98.34917432 0 3123.37217472 0 279.00868805 0 112.49755658 0 28224
0.16150000 0.16150500 9357.87545550 0 -18.07103215 0 3358.87504818 0 113.82507743 0 58.71295374 0 28075
0.16250000 0.16249700 9462.95305854 0 24.22899784 0 3243.60217493 0 210.31931957 0 343.76382879 0 28590
0.16350000 0.16349900 9401.16320147 0 44.83569598 0 3181.40765444 0 287.28967545 0 256.33067520 0 29163
0.16450000 0.16449100 9339.00240292 0 150.36506076 0 3031.82831516 0 107.30381391 0 516.16393718 0 28996
0.16550000 0.16550500 9109.31094589 0 168.99531528 0 2655.48008804 0 366.12485528 0 174.68196049 0 30777
0.16650000 0.16650700 9115.13360297 0 111.93990790 0 2593.33053015 0 408.45714594 0 254.51418605 0 29211
0.16750000 0.16749900 8860.38673545 0 67.75482079 0 2386.13161522 0 232.09133597 0 297.82778551 0 30922
0.16850000 0.16850800 8794.04441484 0 179.52780502 0 2060.25390988 0 66.55488132 0 -9.09427096 0 30867
0.16950000 0.16949900 8655.51463523 0 88.76944214 0 2365.11159836 0 -44.40753959 0 149.34216155 0 30852
0.17050000 0.17049200 8532.30586256 0 97.09797749 0 2017.39330864 0 -381.31996694 0 -365.66736080 0 31257
0.17150000 0.17149500 8608.13529240 0 -35.79292968 0 2229.75168225 0 -132.98139441 0 -660.41183581 0 32608
0.17250000 0.17250900 8597.92878153 0 -27.58242117 0 1875.92971919 0 -22.47287097 0 -969.41170408 0 32361
0.17350000 0.17350400 8535.76798299 0 139.27503475 0 1904.22243708 0 -80.60850490 0 -1452.47192486 0 32508
0.17450000 0.17449800 8427.29570344 0 262.51078498 0 1601.38806574 0 47.71060481 0 -1331.17406282 0 32791
0.17550000 0.17549800 8105.07120958 0 278.19036868 0 1588.78729627 0 219.69402228 0 -1438.56723990 0 33633
0.17650000 0.17650100 7920.03885790 0 207.80141380 0 1403.03554294 0 217.52008043 0 -889.53339186 0 33984
0.17750000 0.17750300 7801.61860245 0 59.37986155 0 1431.59803645 0 244.97761797 0 -1039.08125731 0 34069
