### header ###
fiducial parameters:
Omega_m = 0.31
Omega_nu = 0
Omega_de = 0.69
Omega_k = 0
H_0 = 100
w_de = -1
zeff = 0
beta = 0
fgrowth = 0
b_1 = 2
gamma = 0.55
Lx = 3500 Ly = 3500 Lz = 3500
nx = 700 ny = 700 nz = 700
xoffset = 857.220397 yoffset = 15.9954215 zoffset = 262.898189
bins = 400 dk = 0.001
kx_ny = 0.628318531 ky_ny = 0.628318531 kz_ny = 0.628318531
############################
A(data) = 3.09673333 (not used)
A(ran) = 3.09811336 (used)
Ngal = 188760
weighted Ngal = 0
Nran = 9360983
weighted Nran = 0
SN(data) = 3441.23712
SN(ran) = 69.5719827
SN(data+ran) = 3510.8091
############################
13 columns: k_central k_mean P_0(k) sigma^{lin}_{P_0(k)} P^img_1(k) sigma^{lin}_{P_1(k)} P_2(k) sigma^{lin}_{P_2(k)} P^img_3(k) sigma^{lin}_{P_3(k)} P_4(k) sigma^{lin}_{P_4(k)} N_modes
### header ###
0.00050000 0 0 0 0 0 0 0 0 0 0 0 0
0.00150000 0.00179520 8028.62354396 0 -11720.73892371 0 5055.95477359 0 -12113.48726025 0 7704.69047119 0 3
0.00250000 0.00253879 18080.24948128 0 -15604.83337730 0 -14238.19506142 0 12831.42762244 0 3440.42596923 0 6
0.00350000 0.00331552 32395.55540672 0 -18012.80557689 0 7773.14603415 0 -30048.61994059 0 -32193.11128705 0 7
0.00450000 0.00420575 46664.21263162 0 -16683.48622144 0 -7999.72383093 0 13162.91441250 0 3816.90908417 0 24
0.00550000 0.00557378 61184.09840037 0 -9281.61888094 0 3488.47975111 0 9784.93025807 0 -2625.91717662 0 45
0.00650000 0.00659388 63776.97930448 0 -5369.09682166 0 -25150.61879107 0 1564.14778987 0 -22448.59116836 0 40
0.00750000 0.00754703 71082.61543408 0 -4680.11237575 0 8709.91938477 0 -6427.78627011 0 -9782.85073769 0 57
0.00850000 0.00846663 72102.03004887 0 -408.94274205 0 -15061.34791446 0 -25705.34490465 0 -39626.21639593 0 75
0.00950000 0.00948925 72948.90067494 0 8093.38093282 0 6597.02550751 0 -35539.11579015 0 -31209.77916110 0 112
0.01050000 0.01054430 63009.35526606 0 5566.15666962 0 13655.25491452 0 -43403.07504155 0 -21005.85364703 0 105
0.01150000 0.01145670 67049.58235830 0 3009.59430802 0 14104.76853725 0 -27314.66886980 0 -35520.34390342 0 144
0.01250000 0.01249090 65345.16248796 0 -2505.06894061 0 28994.58412155 0 -17790.46550543 0 -28235.39057118 0 169
0.01350000 0.01339930 68723.98969119 0 -6800.96463372 0 25364.75318750 0 3196.02050039 0 -52310.27908729 0 180
0.01450000 0.01448870 75054.16215035 0 -4255.28322203 0 23167.99281514 0 6924.98273324 0 -19516.35501867 0 267
0.01550000 0.01550050 75278.86275846 0 -1107.23332269 0 12638.31324288 0 26015.92408434 0 -36073.49632590 0 238
0.01650000 0.01653350 76771.05914300 0 1007.18591086 0 8170.81777571 0 5366.90489477 0 -16010.28364917 0 315
0.01750000 0.01747870 75153.07987678 0 3653.91964857 0 12900.78243745 0 3548.41490081 0 -26487.69419552 0 297
0.01850000 0.01844180 71733.44911140 0 3927.75314103 0 14239.54393951 0 -6082.39479509 0 -4980.40636003 0 388
0.01950000 0.01947590 70108.72545474 0 -2943.53300367 0 7094.10956414 0 -11174.36461363 0 -13380.08378462 0 399
0.02050000 0.02045430 77200.00237490 0 -6277.42008528 0 12299.52002985 0 -927.83366109 0 -5382.00108870 0 462
0.02150000 0.02154770 84678.85693225 0 -7893.70201324 0 13985.05560696 0 1082.55672214 0 -18405.89113295 0 571
0.02250000 0.02255340 83921.46188600 0 2799.22552959 0 27344.11937472 0 -3883.92584383 0 -14624.42382054 0 510
0.02350000 0.02348930 91491.92774681 0 6120.29826936 0 16786.00095611 0 -5050.44685474 0 -25544.71600570 0 555
0.02450000 0.02439640 71957.81249999 0 11217.95585717 0 27639.07404990 0 -12323.68742892 0 -23028.15912004 0 592
0.02550000 0.02547300 73234.07598399 0 13347.26108449 0 20113.79560502 0 -14107.12907390 0 -22303.69918043 0 837
0.02650000 0.02652900 59948.75088503 0 3920.68277172 0 23753.06868569 0 -6712.72552549 0 -34920.43037391 0 723
0.02750000 0.02749970 62277.70130998 0 1070.96086685 0 16797.57882636 0 441.62943031 0 -24954.35702931 0 826
0.02850000 0.02848090 60693.44399596 0 -3480.44268584 0 15530.53267597 0 948.21520900 0 -50126.55786978 0 831
0.02950000 0.02946900 62226.33153614 0 -3273.00771725 0 14588.45373820 0 3517.08720722 0 -46313.27951580 0 996
0.03050000 0.03053250 64062.60423956 0 -1830.89967237 0 13514.40956086 0 2524.13308425 0 -44943.04419169 0 1041
0.03150000 0.03150510 68185.22530166 0 -983.28266708 0 16162.48206006 0 -1288.13361117 0 -39568.43945118 0 1036
0.03250000 0.03246190 67477.73874465 0 -69.39696745 0 13188.76790918 0 783.03384651 0 -20721.46518354 0 1059
0.03350000 0.03345080 70316.90230628 0 1282.49080450 0 24705.93864815 0 -6232.21018804 0 -28865.20423163 0 1302
0.03450000 0.03451200 69600.53563519 0 2303.80508927 0 28164.68687808 0 -5092.91403320 0 -11932.51278348 0 1339
0.03550000 0.03553350 66939.19916813 0 3164.82769461 0 29338.43562741 0 -4476.75776338 0 -17143.22883634 0 1365
0.03650000 0.03647120 66125.37605520 0 2691.70870534 0 29773.44881070 0 -424.65155145 0 -6305.49923080 0 1308
0.03750000 0.03744890 60749.87206263 0 2726.93690474 0 24625.68040193 0 4810.17794536 0 -15885.17520653 0 1579
0.03850000 0.03847530 58721.72145123 0 2990.46272047 0 22704.65319201 0 9742.81153979 0 -14099.37302490 0 1662
0.03950000 0.03950240 53433.55731484 0 3117.97666237 0 15591.45700293 0 6458.16974903 0 -14525.05646808 0 1683
0.04050000 0.04050350 49733.92193975 0 3606.84380331 0 12205.09856371 0 6306.10622594 0 -15140.03246957 0 1822
0.04150000 0.04152450 47495.57115969 0 2977.49100953 0 12601.78112801 0 -2512.75754571 0 -7006.78094861 0 1887
0.04250000 0.04250150 44831.19971692 0 2263.77713202 0 14693.44141603 0 829.29249646 0 -1286.68356722 0 1920
0.04350000 0.04349210 44067.84712578 0 1673.99142881 0 20627.49334343 0 444.96228325 0 7489.26339993 0 2005
0.04450000 0.04448520 42728.41118467 0 1743.24507797 0 23413.37622060 0 2940.73408164 0 7526.96454249 0 2151
0.04550000 0.04548030 43108.23277287 0 280.63183802 0 22537.95434167 0 5920.85540344 0 10386.08025917 0 2274
0.04650000 0.04648670 43620.13200716 0 698.15569284 0 23605.81616111 0 5229.20692331 0 9646.40047847 0 2311
0.04750000 0.04749250 41779.02582393 0 1174.04100625 0 19657.42518534 0 1347.85518850 0 5455.96457051 0 2568
0.04850000 0.04851840 39579.56769540 0 1052.18335980 0 17516.64325363 0 -732.32165073 0 2190.53305185 0 2493
0.04950000 0.04949480 39099.70431569 0 1392.59297841 0 16360.20510642 0 -2580.41502246 0 -2599.07450267 0 2644
0.05050000 0.05050630 37682.03344550 0 751.06655989 0 17014.07375944 0 -2012.21136866 0 -6070.46846467 0 2829
0.05150000 0.05149060 38496.86821699 0 548.27960038 0 19925.28989226 0 -3585.68889863 0 -9192.58168650 0 2784
0.05250000 0.05249300 37445.19293460 0 -34.80678740 0 16729.23566992 0 -417.44404620 0 -8520.98652728 0 3055
0.05350000 0.05348950 38049.71513091 0 740.87915814 0 20281.61852043 0 1455.82163877 0 -9471.78821001 0 3009
0.05450000 0.05448610 37674.50220951 0 638.36442347 0 17047.68330513 0 2290.76593442 0 -6144.00480175 0 3336
0.05550000 0.05550870 37315.81304469 0 546.21469284 0 16788.92352530 0 5393.34290528 0 -3770.66504706 0 3349
0.05650000 0.05647670 35975.70266454 0 681.74659090 0 11930.26465334 0 4610.55522903 0 -5106.16676041 0 3324
0.05750000 0.05747970 35206.05530899 0 412.54087435 0 8769.41614908 0 5962.91791847 0 -5709.49744774 0 3639
0.05850000 0.05849280 33892.24805155 0 253.51489220 0 7630.60334223 0 3462.50260727 0 -5051.23370029 0 3846
0.05950000 0.05951020 33588.41326229 0 181.84337907 0 4731.66200000 0 898.06616983 0 -4357.40453392 0 3787
0.06050000 0.06049470 33670.47001263 0 415.04866353 0 4532.39898450 0 -807.61377746 0 -5403.00986491 0 3930
0.06150000 0.06148310 33017.83783118 0 1186.10222448 0 6106.69708197 0 -3880.73349902 0 -3843.71803616 0 4083
0.06250000 0.06249100 32502.56640168 0 709.24571885 0 8583.74308031 0 -1992.27045426 0 -1757.47574179 0 4303
0.06350000 0.06350600 33078.42493862 0 241.69197576 0 11261.10871532 0 -125.30627809 0 1476.04356944 0 4470
0.06450000 0.06451750 32450.97181482 0 10.38150531 0 11108.74169466 0 -13.56791506 0 -79.93631398 0 4479
0.06550000 0.06550280 32465.80947379 0 452.19114574 0 12249.94876013 0 1201.51315664 0 2930.87603095 0 4636
0.06650000 0.06648880 33075.38996293 0 167.16758548 0 12817.37680903 0 1510.13646311 0 1581.16613507 0 4653
0.06750000 0.06749660 32450.85940831 0 164.17307612 0 11978.03741894 0 -275.97820862 0 2656.95261328 0 5220
0.06850000 0.06852730 32340.13899861 0 589.53391263 0 12775.33677529 0 1330.46590182 0 2635.65158015 0 5029
0.06950000 0.06949320 32320.13064031 0 455.11146680 0 11139.50735571 0 1357.65703594 0 1512.19350219 0 5040
0.07050000 0.07048030 30680.11969866 0 1047.16553332 0 10496.83439082 0 946.73031904 0 728.42114493 0 5475
0.07150000 0.07148790 30451.59726930 0 972.89855394 0 9459.77195438 0 608.67561676 0 193.74385600 0 5509
0.07250000 0.07249820 28493.58831847 0 801.73042087 0 8569.60234169 0 2045.48369482 0 874.98686575 0 5916
0.07350000 0.07351270 27543.86573821 0 891.51174639 0 6546.76855809 0 1511.26052818 0 -1352.26152359 0 5721
0.07450000 0.07449140 27344.11937472 0 60.69659138 0 5936.64851772 0 729.60253732 0 -438.61243965 0 6028
0.07550000 0.07549160 27109.75180698 0 -115.64156659 0 5135.11143604 0 241.22436469 0 -1042.78055547 0 6183
0.07650000 0.07648840 27456.63828853 0 -383.00156829 0 6635.36736715 0 -252.78649803 0 -100.93969469 0 6330
0.07750000 0.07749960 27387.28347352 0 -49.90837684 0 5361.65551087 0 -221.11596459 0 -93.58471210 0 6583
0.07850000 0.07848650 27894.57404101 0 175.34178669 0 6820.34351558 0 727.85798833 0 -711.70292510 0 6549
0.07950000 0.07947320 27210.24322451 0 827.03537379 0 6030.59787653 0 -115.71125862 0 1071.67689630 0 6828
0.08050000 0.08048110 26793.55230191 0 1029.05684499 0 7128.65208383 0 1280.52369062 0 241.90667219 0 7147
0.08150000 0.08149960 25399.37439175 0 822.35476683 0 7272.48745059 0 177.47526220 0 1136.91313688 0 7386
0.08250000 0.08250610 24566.44217258 0 978.29069409 0 5333.72249381 0 496.60970117 0 153.29774654 0 7227
0.08350000 0.08350160 23956.74927693 0 819.61429618 0 7100.69658547 0 -163.28843691 0 1144.24204116 0 7798
0.08450000 0.08449610 23454.74181529 0 372.59722198 0 6275.79019092 0 4.33623839 0 521.26044822 0 7371
0.08550000 0.08548940 23511.95672751 0 308.57272354 0 6328.72241521 0 466.96023673 0 618.49432517 0 8256
0.08650000 0.08650700 22998.70861513 0 441.90482625 0 6245.63152501 0 85.79999944 0 -30.00556825 0 8037
0.08750000 0.08749060 22560.43564313 0 845.84210653 0 6633.37777198 0 -375.09489457 0 -1112.89186627 0 8155
0.08850000 0.08849210 22103.16597139 0 1161.57512459 0 7743.43699426 0 -719.03182937 0 213.81178975 0 8718
0.08950000 0.08949900 20916.82769324 0 945.28926761 0 7777.32755622 0 -1368.84148342 0 -1119.18663068 0 8571
0.09050000 0.09049190 20916.94009975 0 647.56489609 0 9556.52023522 0 -1158.31533588 0 -408.88316660 0 8932
0.09150000 0.09150830 19998.57893503 0 195.23998661 0 8662.83229885 0 -147.97867061 0 -2710.40190751 0 9285
0.09250000 0.09250820 20332.53866825 0 -16.63380255 0 9309.56313866 0 -135.85225660 0 -2393.42679755 0 9204
0.09350000 0.09350330 20181.68913544 0 -158.65054442 0 8530.00152916 0 1124.58214303 0 -2183.20414758 0 9349
0.09450000 0.09448040 20421.11499601 0 -187.39738460 0 8143.76152940 0 1526.12066845 0 -2573.70435397 0 9564
0.09550000 0.09549270 20027.01778138 0 171.16700901 0 7344.68615023 0 1183.70796588 0 -1491.62311135 0 10155
0.09650000 0.09649430 20269.81583717 0 615.57175598 0 7993.76628604 0 1023.70292305 0 -172.72721133 0 9913
0.09750000 0.09749140 19317.39550073 0 648.49000165 0 8191.78158932 0 375.71650255 0 2049.60901364 0 10476
0.09850000 0.09850240 19203.52770883 0 570.42143419 0 8242.29707371 0 -111.51860831 0 2775.36162808 0 10575
0.09950000 0.09950330 18826.51628331 0 267.47915260 0 9512.10842418 0 372.72424133 0 4717.76855570 0 10882
0.10050000 0.10051200 19078.19445317 0 376.32124956 0 10744.63453618 0 -283.20032671 0 5055.71871993 0 10875
0.10150000 0.10150300 18667.91070149 0 138.37353456 0 10640.39998196 0 375.06566888 0 5154.77133417 0 11118
0.10250000 0.10250800 18494.69227373 0 204.01219044 0 11067.44354388 0 481.01105015 0 5531.70407513 0 11575
0.10350000 0.10349800 18476.03279352 0 229.49474565 0 9641.15109457 0 782.42572730 0 4453.10743424 0 11364
0.10450000 0.10450100 17681.54359985 0 276.81451303 0 8197.07593581 0 1385.54509040 0 2436.47848985 0 12093
0.10550000 0.10551000 17421.65975495 0 431.81297003 0 7666.19124244 0 340.17019275 0 1243.78924403 0 12067
0.10650000 0.10649700 16877.72466608 0 298.50222455 0 6632.60216707 0 1096.58842645 0 588.98199668 0 12054
0.10750000 0.10749900 16428.66066937 0 206.22884677 0 4787.46059023 0 638.30822021 0 -651.41257084 0 12807
0.10850000 0.10850100 16453.83972701 0 -154.97822382 0 4504.84814955 0 648.85757093 0 -131.61115908 0 12736
0.10950000 0.10950300 16230.48799699 0 -85.73199350 0 3869.24555397 0 546.40578390 0 -1902.31152646 0 12933
0.11050000 0.11050200 16690.56783140 0 201.49990500 0 4040.94649389 0 798.81796826 0 -832.71977087 0 13428
0.11150000 0.11150900 15859.77133588 0 364.73888305 0 3795.61929168 0 -40.06089236 0 -1368.97637123 0 13453
0.11250000 0.11250000 15869.55070201 0 507.24110863 0 3865.80591485 0 382.57891982 0 -7.29196750 0 13668
0.11350000 0.11349100 15277.84284753 0 271.40101564 0 3868.43622712 0 154.75565894 0 -115.54939325 0 13791
0.11450000 0.11448600 14971.31030210 0 150.68991557 0 3701.84978329 0 693.68753417 0 -130.19146490 0 14205
0.11550000 0.11549300 15059.09978431 0 -8.00384915 0 3724.71326687 0 151.97134975 0 367.67156883 0 14776
0.11650000 0.11649800 15142.16819321 0 -128.71893965 0 3279.88699549 0 -87.57377412 0 19.88358708 0 14553
0.11750000 0.11747300 15356.86462217 0 -163.30192569 0 3416.92176856 0 -558.20509498 0 238.99197145 0 14568
0.11850000 0.11849100 15504.79158579 0 -145.47425363 0 3445.32689295 0 -264.31828161 0 182.15586916 0 16015
0.11950000 0.11950300 15695.65783520 0 8.06678555 0 3230.24828187 0 -18.68645778 0 -281.32201397 0 15270
0.12050000 0.12050700 15732.75198262 0 267.84447375 0 3258.59720301 0 -129.98576099 0 -145.90701868 0 15999
0.12150000 0.12150000 15354.05445949 0 447.71849081 0 3833.44408139 0 24.80069733 0 -778.87480574 0 15670
0.12250000 0.12250700 15055.27796306 0 439.91747920 0 3957.77691913 0 -193.15372184 0 198.56721923 0 16887
0.12350000 0.12352200 14748.18338509 0 383.03529024 0 4250.30361375 0 -294.31508215 0 -309.06169185 0 16407
0.12450000 0.12449800 14649.82769119 0 345.26557972 0 4983.67738939 0 -263.08630629 0 804.91826941 0 16306
0.12550000 0.12549900 14488.41194670 0 347.49347670 0 5195.61985893 0 -349.41225578 0 685.39755426 0 17523
0.12650000 0.12650100 14234.48564668 0 367.08593092 0 5616.71711661 0 -10.66931094 0 1060.39802736 0 17154
0.12750000 0.12750600 13795.31342262 0 302.75905898 0 5224.76686627 0 507.53673774 0 1051.40325864 0 18007
0.12850000 0.12850300 13662.33652448 0 294.11387451 0 5429.09941526 0 602.35050259 0 827.98408471 0 17496
0.12950000 0.12949900 13351.75734478 0 64.73872938 0 4559.41026820 0 733.70200264 0 306.95631797 0 18405
0.13050000 0.13049000 13188.31828315 0 57.21142762 0 4139.00993086 0 674.69308257 0 -211.79858920 0 18100
0.13150000 0.13148800 13010.82840811 0 90.53231339 0 3481.94893303 0 268.83477508 0 -244.71233861 0 19059
0.13250000 0.13249300 12847.83897251 0 292.80995902 0 3323.45575773 0 28.08566510 0 -492.84520724 0 18957
0.13350000 0.13349100 12533.32556506 0 373.77411811 0 3239.47685612 0 -46.99097835 0 239.22465292 0 19468
0.13450000 0.13450700 12380.22790210 0 301.19885666 0 3545.62721943 0 243.48935581 0 240.43414694 0 19953
0.13550000 0.13551000 12325.26112002 0 163.25696309 0 3531.13802063 0 -35.41861601 0 483.19286045 0 19956
0.13650000 0.13649900 12155.19007446 0 -66.88681774 0 3415.01085793 0 373.38968785 0 900.22100257 0 19723
0.13750000 0.13749600 12224.65729598 0 -0.70325108 0 3356.32342047 0 231.67543189 0 213.41499478 0 20946
0.13850000 0.13851100 12206.55984831 0 93.45151039 0 3321.79214142 0 -7.85145965 0 909.88571407 0 20955
0.13950000 0.13949800 12050.65202267 0 138.08464984 0 3045.74424077 0 297.82666144 0 4.68518191 0 20506
0.14050000 0.14048300 11951.50948322 0 156.41253086 0 2799.84376538 0 80.12515691 0 699.57201483 0 21447
0.14150000 0.14148400 11795.82647059 0 148.10793810 0 2491.34410606 0 336.68446695 0 -97.67102586 0 21771
0.14250000 0.14249400 11627.55392915 0 106.23269230 0 2613.83347708 0 314.45945233 0 399.02961217 0 22470
0.14350000 0.14350900 11627.77874217 0 149.28371016 0 2677.14082200 0 17.74325477 0 327.05909773 0 22519
0.14450000 0.14449900 11475.35551825 0 208.69729367 0 2609.75312086 0 -68.08248575 0 316.47827320 0 22218
0.14550000 0.14550500 11326.97892861 0 290.81024726 0 3038.02191372 0 -210.09450655 0 628.61765522 0 23559
0.14650000 0.14650700 10975.14656073 0 311.24575029 0 3112.31137440 0 -39.79010508 0 571.65678171 0 23044
0.14750000 0.14750500 10907.46660267 0 180.60690749 0 3196.43640447 0 107.13216917 0 1128.85359031 0 23649
0.14850000 0.14849900 10610.98319899 0 196.05718192 0 2962.18124323 0 199.44061779 0 558.35571970 0 23640
0.14950000 0.14949500 10665.01700706 0 100.45612189 0 3275.19964414 0 158.07727123 0 995.34838158 0 24457
0.15050000 0.15050000 10424.62445052 0 149.09149504 0 3141.57078825 0 -109.02003646 0 512.84794521 0 24591
0.15150000 0.15149900 10607.55480052 0 93.71589049 0 3290.73422345 0 -101.49419599 0 793.15155623 0 25020
0.15250000 0.15250500 10384.78758433 0 174.75390065 0 3368.55324846 0 -342.11594939 0 500.74176437 0 25297
0.15350000 0.15350100 10192.05538690 0 283.81968657 0 3676.05248986 0 30.79353786 0 389.67289450 0 25452
0.15450000 0.15450400 9956.03544350 0 293.22024277 0 3490.68291865 0 -18.94330664 0 731.15824338 0 26061
0.15550000 0.15549900 9772.38569186 0 222.73911456 0 3546.05436415 0 408.88204254 0 433.76209886 0 26128
0.15650000 0.15649500 9475.30653369 0 200.17126009 0 3457.84897787 0 499.22540059 0 914.01103289 0 26331
0.15750000 0.15749700 9436.98715535 0 17.25349962 0 3127.64362199 0 490.00806699 0 827.91664081 0 27345
0.15850000 0.15849900 9282.83287122 0 83.85559167 0 3345.98202179 0 172.59569571 0 1250.42122797 0 26980
0.15950000 0.15949700 9446.29441415 0 146.77142472 0 3338.65311752 0 -45.25755760 0 1592.58663622 0 27777
0.16050000 0.16050000 9257.67629489 0 91.42751882 0 3502.22706695 0 -238.52436038 0 1309.08618413 0 28224
0.16150000 0.16150500 9242.98476438 0 61.36878229 0 3627.13317788 0 -144.29061311 0 1852.06581769 0 28075
0.16250000 0.16249700 9303.05480189 0 -15.01424959 0 3707.49258995 0 -65.80501751 0 1126.86399513 0 28590
0.16350000 0.16349900 9290.39782916 0 11.42331131 0 3625.48080222 0 150.93046550 0 1178.40237873 0 29163
0.16450000 0.16449100 9336.02363048 0 118.52928976 0 3288.39616810 0 144.62446044 0 554.19892706 0 28996
0.16550000 0.16550500 9106.11860108 0 7.77971057 0 2968.23995398 0 317.86986576 0 451.97644931 0 30777
0.16650000 0.16650700 9172.55084690 0 83.04570279 0 2853.10196854 0 202.02034713 0 364.04083864 0 29211
0.16750000 0.16749900 9073.45327006 0 -6.74788628 0 2609.04495987 0 189.87819621 0 89.86057211 0 30922
0.16850000 0.16850800 9112.32344028 0 80.21508212 0 2364.90926664 0 -54.37529903 0 -95.69525668 0 30867
0.16950000 0.16949900 8949.13167297 0 144.34232010 0 2505.56352924 0 -210.76669747 0 -166.10084772 0 30852
0.17050000 0.17049200 8953.95391213 0 154.30490884 0 2723.47478431 0 -135.36441236 0 -126.24824462 0 31257
0.17150000 0.17149500 8706.01887896 0 190.63806420 0 2752.72295751 0 -177.32913374 0 -109.95053753 0 32608
0.17250000 0.17250900 8643.66698936 0 163.01191690 0 2844.40170487 0 82.75479475 0 -79.12350253 0 32361
0.17350000 0.17350400 8539.85957986 0 93.79558671 0 3011.95484467 0 46.76627774 0 -52.08782661 0 32508
0.17450000 0.17449800 8501.48399826 0 98.09063935 0 2777.28377936 0 219.64231528 0 18.71410978 0 32791
0.17550000 0.17549800 8364.04456177 0 93.53345473 0 2755.22962263 0 229.54532858 0 -188.93285749 0 33633
0.17650000 0.17650100 8365.50584637 0 97.65438970 0 2704.78158214 0 285.52489328 0 105.52374446 0 33984
0.17750000 0.17750300 8228.48231396 0 63.17594171 0 2313.29219849 0 435.02554801 0 -77.99347991 0 34069
