### header ###
fiducial parameters:
Omega_m = 0.31
Omega_nu = 0
Omega_de = 0.69
Omega_k = 0
H_0 = 100
w_de = -1
zeff = 0
beta = 0
fgrowth = 0
b_1 = 2
gamma = 0.55
Lx = 3500 Ly = 3500 Lz = 3500
nx = 700 ny = 700 nz = 700
xoffset = 857.220397 yoffset = 15.9954215 zoffset = 262.898189
bins = 400 dk = 0.001
kx_ny = 0.628318531 ky_ny = 0.628318531 kz_ny = 0.628318531
############################
A(data) = 3.07200001 (not used)
A(ran) = 3.06772168 (used)
Ngal = 186969
weighted Ngal = 0
Nran = 9360983
weighted Nran = 0
SN(data) = 3456.76717
SN(ran) = 68.8894999
SN(data+ran) = 3525.65667
############################
13 columns: k_central k_mean P_0(k) sigma^{lin}_{P_0(k)} P^img_1(k) sigma^{lin}_{P_1(k)} P_2(k) sigma^{lin}_{P_2(k)} P^img_3(k) sigma^{lin}_{P_3(k)} P_4(k) sigma^{lin}_{P_4(k)} N_modes
### header ###
0.00050000 0 0 0 0 0 0 0 0 0 0 0 0
0.00150000 0.00179520 22072.36658839 0 -18420.61638541 0 3254.59553135 0 30693.83329255 0 -115936.07163944 0 3
0.00250000 0.00253879 40192.18316024 0 -21756.72911586 0 1684.18669902 0 -3890.79388142 0 62155.51543654 0 6
0.00350000 0.00331552 39500.65832727 0 -3540.40031684 0 6486.57487343 0 -1572.70192507 0 21061.71968117 0 7
0.00450000 0.00420575 40841.78036598 0 4344.21925061 0 -7804.30511797 0 13316.46170148 0 14416.69659503 0 24
0.00550000 0.00557378 50083.95580351 0 -33654.50828859 0 -45625.80131709 0 73300.73304282 0 22123.28673620 0 45
0.00650000 0.00659388 75583.25958026 0 -41654.92903986 0 -71405.89654910 0 16322.88614599 0 -20276.89744713 0 40
0.00750000 0.00754703 128389.58858431 0 -54732.97653934 0 -97250.96274233 0 19320.09325691 0 -21353.63938065 0 57
0.00850000 0.00846663 140858.84244020 0 -21057.22342087 0 -86446.56166621 0 -46382.97155033 0 -14465.25620619 0 75
0.00950000 0.00948925 144746.98352805 0 22481.30146198 0 -93174.20353521 0 -80496.77282779 0 2290.26010514 0 112
0.01050000 0.01054430 110595.63847715 0 28115.56523438 0 -39107.90999073 0 -70466.62777402 0 3952.88723606 0 105
0.01150000 0.01145670 95821.48918887 0 17664.34540423 0 -43595.85220158 0 -35063.74867073 0 -12725.42828605 0 144
0.01250000 0.01249090 83806.02040299 0 338.11989805 0 -24705.82624165 0 -13762.82794201 0 -34686.62483871 0 169
0.01350000 0.01339930 86154.86677974 0 -3789.27956467 0 -23635.82869856 0 -10933.42126521 0 -33413.39633041 0 180
0.01450000 0.01448870 85340.25682127 0 2695.30571358 0 -11524.81438147 0 -6220.32882021 0 -11775.48089277 0 267
0.01550000 0.01550050 86145.53703963 0 10992.54708806 0 12039.52377844 0 -7363.71657192 0 -3945.72694154 0 238
0.01650000 0.01653350 76744.19398775 0 9093.30425925 0 22708.36260675 0 4034.66297013 0 36848.08956777 0 315
0.01750000 0.01747870 79824.24469455 0 -530.67786540 0 49080.27809974 0 8298.61273387 0 41888.50976205 0 297
0.01850000 0.01844180 84746.41324315 0 -3559.10475965 0 47501.86592410 0 10912.97452153 0 50490.64254696 0 388
0.01950000 0.01947590 94406.29126184 0 -7739.12058438 0 66313.65695495 0 4169.74186996 0 38408.17948272 0 399
0.02050000 0.02045430 99944.78469001 0 -1666.88733755 0 68703.75651988 0 -8240.68966065 0 49620.05414784 0 462
0.02150000 0.02154770 101781.16979993 0 3062.50405101 0 74025.53020196 0 2745.39405324 0 39124.32134080 0 571
0.02250000 0.02255340 100205.79259999 0 5663.97281228 0 74216.95848391 0 -321.98844019 0 20904.46297744 0 510
0.02350000 0.02348930 91627.48999463 0 7844.64781345 0 61746.13093691 0 16821.97103845 0 14411.30108268 0 555
0.02450000 0.02439640 88208.64607480 0 8672.47677718 0 54133.62504237 0 14647.46715454 0 2099.06787685 0 592
0.02550000 0.02547300 74662.31306587 0 9503.19458815 0 44207.90563389 0 12843.90474475 0 4376.41247430 0 837
0.02650000 0.02652900 70630.40405517 0 7780.78967664 0 39370.60399831 0 13187.75625061 0 687.70975611 0 723
0.02750000 0.02749970 60369.60084840 0 4727.57040314 0 33313.12972589 0 8517.53564750 0 7862.53168876 0 826
0.02850000 0.02848090 58786.24278643 0 1181.79705525 0 27087.38291202 0 7794.09860711 0 6967.88829708 0 831
0.02950000 0.02946900 58315.14711429 0 -2242.41989563 0 27704.26982414 0 12444.41201777 0 9479.02718908 0 996
0.03050000 0.03053250 59396.94734064 0 -567.01888921 0 21492.12419766 0 11416.22969541 0 9530.52061008 0 1041
0.03150000 0.03150510 59855.67829698 0 1129.47182610 0 24316.45010032 0 9226.01138178 0 10539.29032863 0 1036
0.03250000 0.03246190 57058.32995606 0 1180.05475439 0 17108.72003860 0 6018.97504367 0 12024.57371297 0 1059
0.03350000 0.03345080 55981.81283556 0 2312.13441146 0 17425.14435668 0 8308.36961870 0 15301.56062058 0 1302
0.03450000 0.03451200 52274.53381797 0 2467.76122083 0 14248.19924058 0 2518.90618166 0 14819.78633025 0 1339
0.03550000 0.03553350 51785.79032418 0 -342.36436777 0 10080.93031377 0 1974.31913504 0 10949.23686079 0 1365
0.03650000 0.03647120 50373.73977936 0 1104.83906409 0 10554.21791280 0 -213.93656097 0 6974.63268752 0 1308
0.03750000 0.03744890 51800.17835712 0 1244.08150095 0 7755.91411658 0 -5754.41508807 0 7723.02397254 0 1579
0.03850000 0.03847530 49173.12587478 0 2619.26271138 0 11584.50223685 0 -4138.48162028 0 4060.47150421 0 1662
0.03950000 0.03950240 47085.51222102 0 3948.62702943 0 12690.02023625 0 -4451.57870574 0 -1040.98654761 0 1683
0.04050000 0.04050350 43562.91709494 0 3657.02206817 0 13509.57608104 0 -1563.59699798 0 -4273.38066970 0 1822
0.04150000 0.04152450 40289.41478906 0 1688.75040322 0 13318.26020560 0 -74.08083420 0 -4169.74186996 0 1887
0.04250000 0.04250150 40949.24098697 0 886.90083146 0 14008.21134747 0 1383.82527084 0 -6203.29923436 0 1920
0.04350000 0.04349210 39364.53404692 0 -476.75421571 0 13939.19375198 0 2094.06578728 0 -8350.47709634 0 2005
0.04450000 0.04448520 40159.24805360 0 -684.09026658 0 12346.16873038 0 1505.90997843 0 -10471.07081934 0 2151
0.04550000 0.04548030 40061.45439224 0 -966.93089247 0 9501.53097184 0 2896.29978930 0 -5773.86141383 0 2274
0.04650000 0.04648670 41568.03880971 0 -390.20682541 0 6711.26424089 0 198.64927598 0 -8192.20873405 0 2311
0.04750000 0.04749250 40743.31226558 0 656.10441845 0 4918.93124118 0 1295.24894308 0 -11802.23364151 0 2568
0.04850000 0.04851840 39465.36268397 0 594.85298855 0 2986.28119840 0 1853.47089903 0 -6277.93715521 0 2493
0.04950000 0.04949480 38482.14296453 0 1907.10004367 0 2745.21420282 0 1743.68346334 0 -10271.48182497 0 2644
0.05050000 0.05050630 36411.50269338 0 2154.11334348 0 947.73860541 0 3746.89107076 0 -2439.87316637 0 2829
0.05150000 0.05149060 33242.08881327 0 2048.03532254 0 2962.86692293 0 2174.88606604 0 -4102.24176232 0 2784
0.05250000 0.05249300 33170.71068113 0 1512.30590870 0 2958.01096181 0 988.07680462 0 2781.29669167 0 3055
0.05350000 0.05348950 31354.78355553 0 1116.49337077 0 7284.04283954 0 -956.52317395 0 5382.92282206 0 3009
0.05450000 0.05448610 32332.49535612 0 906.53487609 0 10200.60952211 0 -2335.00913570 0 11963.76179252 0 3336
0.05550000 0.05550870 31455.27497307 0 463.88479469 0 13082.54375977 0 -2757.02812674 0 9814.54937275 0 3349
0.05650000 0.05647670 32519.53978428 0 498.08110235 0 17221.57617194 0 -2969.43146296 0 12459.36208325 0 3324
0.05750000 0.05747970 33192.74235656 0 -142.68769631 0 18609.12209817 0 -775.80723215 0 12982.16474874 0 3639
0.05850000 0.05849280 33198.47508843 0 -729.23047178 0 18158.03478434 0 1779.95704325 0 11039.87022763 0 3846
0.05950000 0.05951020 34411.90333484 0 -600.50141555 0 17523.05042454 0 3271.50147005 0 9539.45692741 0 3787
0.06050000 0.06049470 34522.06171201 0 -311.68638379 0 15940.02958210 0 3186.71324159 0 6936.47067829 0 3930
0.06150000 0.06148310 33690.02874490 0 991.65695188 0 13971.79163910 0 2022.62021123 0 4238.99551912 0 4083
0.06250000 0.06249100 32518.41571921 0 1092.67555593 0 12435.75671671 0 379.13590851 0 2841.76015195 0 4303
0.06350000 0.06350600 31550.59569127 0 1161.20418311 0 11799.53588534 0 -1096.34338027 0 2929.13373008 0 4470
0.06450000 0.06451750 30864.69118366 0 527.07298871 0 13194.05101502 0 -701.82126904 0 2167.96182518 0 4479
0.06550000 0.06550280 30888.40895671 0 287.66286505 0 13059.27561276 0 -68.49535486 0 90.99902521 0 4636
0.06650000 0.06648880 30644.59924235 0 112.80330228 0 13787.55737362 0 -79.49174625 0 439.24079203 0 4653
0.06750000 0.06749660 31312.63111529 0 -153.70915436 0 12635.72789321 0 1027.85184723 0 934.48138194 0 5220
0.06850000 0.06852730 30732.95075710 0 95.94772170 0 13934.36027217 0 36.89361420 0 2859.05951343 0 5029
0.06950000 0.06949320 31225.85329165 0 458.50501925 0 12277.03872839 0 821.57241754 0 1501.95326937 0 5040
0.07050000 0.07048030 29898.44484683 0 490.30931643 0 13706.62468836 0 1588.57372391 0 2713.86402794 0 5475
0.07150000 0.07148790 30326.48882666 0 270.31292065 0 12486.11483198 0 1393.86317194 0 2479.46273824 0 5509
0.07250000 0.07249820 29381.15010019 0 113.62611791 0 11676.45075983 0 2398.54129363 0 1197.30915326 0 5916
0.07350000 0.07351270 29805.03503925 0 -51.80973291 0 10073.07309891 0 1165.20585477 0 1075.20196437 0 5721
0.07450000 0.07449140 29495.35511161 0 247.45955365 0 8510.06061477 0 532.17399601 0 -713.61833198 0 6028
0.07550000 0.07549160 29009.42178051 0 462.35381806 0 7922.55676366 0 -395.65966508 0 -704.72472912 0 6183
0.07650000 0.07648840 28950.74558370 0 398.15958580 0 7116.23116478 0 65.69530876 0 -1558.03287587 0 6330
0.07750000 0.07749960 28562.83072697 0 247.46067771 0 6358.60006486 0 1069.06344501 0 -864.71066285 0 6583
0.07850000 0.07848650 28043.06303717 0 362.38958705 0 5263.51338934 0 1744.38038369 0 -2079.86884541 0 6549
0.07950000 0.07947320 27370.98452996 0 839.95200555 0 5004.80981277 0 882.70132434 0 -1768.07567543 0 6828
0.08050000 0.08048110 26574.58442567 0 1066.39379046 0 5747.65945698 0 -64.19850371 0 -2960.52886758 0 7147
0.08150000 0.08149960 25165.11923051 0 1661.88524797 0 6193.03652024 0 -1498.33377984 0 -377.19689625 0 7386
0.08250000 0.08250610 24060.50048318 0 1121.04808244 0 8682.41351243 0 -1585.30269454 0 -554.42936040 0 7227
0.08350000 0.08350160 23400.44947226 0 777.13812520 0 9344.92622586 0 -1208.13389992 0 268.90221898 0 7798
0.08450000 0.08449610 23437.65602617 0 434.34436457 0 11686.90456501 0 -775.34186921 0 582.90417683 0 7371
0.08550000 0.08548940 23023.43804674 0 632.44509679 0 11558.08670763 0 -540.23466665 0 346.89772221 0 8256
0.08650000 0.08650700 22681.83467102 0 578.07856547 0 12975.30795180 0 298.97882814 0 1715.04228528 0 8037
0.08750000 0.08749060 22418.24141138 0 221.32616476 0 11528.74860923 0 774.67080236 0 1140.37525731 0 8155
0.08850000 0.08849210 22049.54806740 0 145.92163153 0 11851.24287870 0 1762.20805575 0 2182.37233942 0 8718
0.08950000 0.08949900 22062.58722225 0 111.81288854 0 10505.39976668 0 1956.35657517 0 18.86304840 0 8571
0.09050000 0.09049190 21775.16378306 0 29.95374885 0 9326.32294890 0 1349.53004546 0 238.94363665 0 8932
0.09150000 0.09150830 21419.50959393 0 379.43940608 0 7935.07884858 0 1543.58863968 0 76.35234490 0 9285
0.09250000 0.09250820 20681.33606043 0 469.37697664 0 6937.11139538 0 937.33650722 0 -307.78700206 0 9204
0.09350000 0.09350330 20465.85278592 0 537.40876706 0 6273.44089492 0 1390.29988566 0 572.41440156 0 9349
0.09450000 0.09448040 19702.83741430 0 393.24629737 0 5848.96020136 0 837.32281734 0 -349.75959189 0 9564
0.09550000 0.09549270 19523.32422212 0 157.65125057 0 5143.98030947 0 744.25022929 0 592.72850557 0 10155
0.09650000 0.09649430 18961.29168557 0 100.53053500 0 5886.23419919 0 -205.18234218 0 102.27665768 0 9913
0.09750000 0.09749140 18985.23427163 0 319.82686305 0 5659.63392110 0 -71.97399904 0 1050.54784512 0 10476
0.09850000 0.09850240 19064.48085928 0 413.51319064 0 6645.01184548 0 -396.54318023 0 791.35754837 0 10575
0.09950000 0.09950330 18338.11000905 0 695.74906952 0 6309.37725531 0 -108.52938206 0 761.20787498 0 10882
0.10050000 0.10051200 18014.04204847 0 675.05503152 0 7213.18177733 0 -50.76154223 0 952.75193563 0 10875
0.10150000 0.10150300 17606.34364646 0 449.63502176 0 7544.78097389 0 -143.57795585 0 1349.84478368 0 11118
0.10250000 0.10250800 17159.64018641 0 393.14850371 0 7734.81541515 0 261.40358088 0 1295.84469757 0 11575
0.10350000 0.10349800 17297.45056437 0 179.75936242 0 8031.29881883 0 -51.55187238 0 1467.45571228 0 11364
0.10450000 0.10450100 16798.81529794 0 189.22961067 0 8197.23330492 0 537.96517927 0 1728.90200763 0 12093
0.10550000 0.10551000 17228.09574936 0 170.46784053 0 8327.52368755 0 724.63416970 0 2268.80170289 0 12067
0.10650000 0.10649700 16683.26140843 0 85.41927860 0 7804.73226270 0 1275.17314088 0 1903.42435088 0 12054
0.10750000 0.10749900 16908.97367511 0 133.96944761 0 6593.08003910 0 786.76237035 0 1801.58405526 0 12807
0.10850000 0.10850100 16597.94486938 0 57.78661172 0 5747.81682609 0 1142.61214681 0 1852.70653478 0 12736
0.10950000 0.10950300 16602.55353618 0 189.63539816 0 5764.84641194 0 648.41019303 0 2330.88381688 0 12933
0.11050000 0.11050200 16201.82433762 0 164.72161988 0 4755.94180558 0 581.63285923 0 1684.11925512 0 13428
0.11150000 0.11150900 16274.55134785 0 241.94039414 0 5058.92230539 0 262.23651310 0 2639.54084530 0 13453
0.11250000 0.11250000 15830.99527001 0 253.19790585 0 4722.69196072 0 461.12184274 0 1500.45826283 0 13668
0.11350000 0.11349100 15727.24406376 0 220.48648815 0 4603.19260280 0 6.33415165 0 2623.28686435 0 13791
0.11450000 0.11448600 15772.88110573 0 59.91559097 0 5026.17828981 0 482.62857979 0 2672.75696821 0 14205
0.11550000 0.11549300 15689.13825778 0 108.66685522 0 4701.44713084 0 572.37168709 0 2471.26830386 0 14776
0.11650000 0.11649800 15591.45700293 0 76.84187524 0 4483.85061399 0 475.86620431 0 2101.85555824 0 14553
0.11750000 0.11747300 15261.31909096 0 286.82094031 0 4298.90818751 0 181.89958232 0 1828.78643003 0 14568
0.11850000 0.11849100 14951.30194380 0 466.62076908 0 3895.62736124 0 -79.97295850 0 948.59177080 0 16015
0.11950000 0.11950300 14391.62994390 0 435.82925453 0 3755.22039296 0 -20.57072806 0 693.76734279 0 15270
0.12050000 0.12050700 13956.84157363 0 413.95607227 0 3339.76594194 0 98.35962812 0 933.25615101 0 15999
0.12150000 0.12150000 13741.69551864 0 146.01942519 0 3357.14398797 0 -0.12354599 0 -90.22443197 0 15670
0.12250000 0.12250700 13662.22411797 0 163.17041008 0 3228.52846230 0 -220.20097562 0 31.13716456 0 16887
0.12350000 0.12352200 13531.04572394 0 291.89721818 0 3260.20461606 0 -387.08866890 0 -352.27862171 0 16407
0.12450000 0.12449800 13336.80727931 0 150.26052271 0 3160.29771237 0 -579.85683641 0 -444.10124941 0 16306
0.12550000 0.12549900 13249.69223614 0 230.10286485 0 4024.31033081 0 -358.00798139 0 -194.24181683 0 17523
0.12650000 0.12650100 13179.55057558 0 192.82212264 0 4128.65729154 0 -200.52309246 0 -406.65751776 0 17154
0.12750000 0.12750600 12990.03320426 0 257.09728758 0 4173.10282453 0 193.39989209 0 -271.46396328 0 18007
0.12850000 0.12850300 12990.03320426 0 69.09841577 0 4466.32643950 0 362.74141941 0 -491.80544704 0 17496
0.12950000 0.12949900 12975.75757783 0 -94.06109088 0 4295.07512561 0 836.45391504 0 837.30483230 0 18405
0.13050000 0.13049000 12968.11393533 0 -36.09271784 0 3937.62243237 0 872.23740258 0 222.33107894 0 18100
0.13150000 0.13148800 13104.57543520 0 -21.02372628 0 4046.99396398 0 388.60840488 0 1112.50293976 0 19059
0.13250000 0.13249300 13026.79013215 0 138.94006336 0 3898.58365238 0 45.68020607 0 581.45638101 0 18957
0.13350000 0.13349100 12888.08050213 0 365.78651170 0 4393.12732194 0 -378.15122750 0 1229.04151028 0 19468
0.13450000 0.13450700 12483.64188882 0 357.15031974 0 4311.50895698 0 -326.15647348 0 798.52233915 0 19953
0.13550000 0.13551000 12368.31281232 0 170.90172965 0 4354.87538750 0 -105.84781242 0 679.05333098 0 19956
0.13650000 0.13649900 12066.61374670 0 178.56897751 0 4405.70561011 0 315.73863838 0 211.95033799 0 19723
0.13750000 0.13749600 12045.48132333 0 62.12909991 0 4012.11422476 0 346.60771342 0 68.54413928 0 20946
0.13850000 0.13851100 11865.06887910 0 77.67345858 0 3577.23592928 0 836.42581341 0 101.63189396 0 20955
0.13950000 0.13949800 12025.13574551 0 -8.32569146 0 3435.98591220 0 768.54464771 0 167.65992598 0 20506
0.14050000 0.14048300 11687.35419104 0 20.10379143 0 3178.72113892 0 391.28480382 0 346.45034431 0 21447
0.14150000 0.14148400 11836.74243926 0 133.19609084 0 3008.81870312 0 297.58835965 0 499.77282028 0 21771
0.14250000 0.14249400 11692.41248387 0 50.59967686 0 2756.28624379 0 156.26752646 0 845.32166440 0 22470
0.14350000 0.14350900 11740.18524948 0 -11.16826094 0 2926.90808124 0 157.30728665 0 676.77597515 0 22519
0.14450000 0.14449900 11755.58494098 0 49.25956648 0 2675.60085285 0 -388.84333448 0 967.48393248 0 22218
0.14550000 0.14550500 11709.61067949 0 250.02354608 0 3320.12852511 0 -213.98039951 0 561.37945474 0 23559
0.14650000 0.14650700 11507.39137284 0 415.44770663 0 3174.74194856 0 -488.59848939 0 672.71585210 0 23044
0.14750000 0.14750500 10995.05375317 0 486.35822770 0 3530.49730354 0 -301.42704187 0 540.42238552 0 23649
0.14850000 0.14849900 10803.36693625 0 416.43800796 0 3640.75684656 0 -106.05553965 0 539.64790468 0 23640
0.14950000 0.14949500 10424.41087816 0 232.50274378 0 3808.18633920 0 48.94909971 0 681.35878845 0 24457
0.15050000 0.15050000 10307.13716908 0 170.45772395 0 3735.25699726 0 150.13912368 0 284.87630774 0 24591
0.15150000 0.15149900 10242.32357697 0 59.86287231 0 3850.27133554 0 295.49197829 0 707.14596529 0 25020
0.15250000 0.15250500 10001.95350174 0 111.68350865 0 3599.69474944 0 145.41467818 0 298.39094211 0 25297
0.15350000 0.15350100 10110.51570650 0 125.09382979 0 3566.06272245 0 230.45469722 0 802.10923080 0 25452
0.15450000 0.15450400 9860.65852205 0 89.60844431 0 3320.13976576 0 487.39911196 0 479.95555304 0 26061
0.15550000 0.15549900 9798.63261132 0 46.57158967 0 3112.95209149 0 593.37484298 0 601.34671248 0 26128
0.15650000 0.15649500 9735.77489243 0 -32.37487261 0 2429.84650592 0 571.72647374 0 349.00422016 0 26331
0.15750000 0.15749700 9649.48041677 0 18.14555766 0 2040.83006542 0 352.81817295 0 -40.73915322 0 27345
0.15850000 0.15849900 9615.30883854 0 120.98762008 0 1825.34679090 0 -2.99925291 0 130.47922556 0 26980
0.15950000 0.15949700 9453.27485826 0 174.02550649 0 1650.47598748 0 -187.59072379 0 -458.44881600 0 27777
0.16050000 0.16050000 9308.20301992 0 128.95049706 0 1693.68504889 0 -296.86670987 0 -356.70294184 0 28224
0.16150000 0.16150500 9246.08718398 0 33.90169020 0 1651.15042653 0 -126.16843600 0 -737.55080145 0 28075
0.16250000 0.16249700 9260.76747384 0 89.18298568 0 1942.37320566 0 -446.29767256 0 -793.88781885 0 28590
0.16350000 0.16349900 9290.58892023 0 131.76740413 0 2165.87106415 0 -77.63838775 0 -446.66636590 0 29163
0.16450000 0.16449100 9144.73023634 0 170.97254575 0 2564.79051794 0 -145.65860030 0 -425.03260951 0 28996
0.16550000 0.16550500 9047.06022214 0 177.31789309 0 2383.43385905 0 -38.25845401 0 -275.86355398 0 30777
0.16650000 0.16650700 9019.57683110 0 158.39875384 0 2816.40124390 0 89.17702814 0 -380.97825116 0 29211
0.16750000 0.16749900 8805.68972899 0 204.14370606 0 2625.63616035 0 105.67931507 0 -240.27902596 0 30922
0.16850000 0.16850800 8632.42633863 0 176.63895778 0 2440.91854689 0 122.39045329 0 -405.71330309 0 30867
0.16950000 0.16949900 8510.24046518 0 69.80455345 0 2417.42558686 0 174.19186812 0 -172.54848498 0 30852
0.17050000 0.17049200 8535.95907405 0 -45.43493507 0 2175.17832295 0 407.49044997 0 -611.27557927 0 31257
0.17150000 0.17149500 8525.17929000 0 -97.59829885 0 2056.54449514 0 507.07699513 0 -409.95102842 0 32608
0.17250000 0.17250900 8586.76681536 0 -35.61229243 0 1692.32493015 0 328.80139860 0 -214.30525432 0 32361
0.17350000 0.17350400 8649.37723993 0 65.34786024 0 1667.86527416 0 338.00187122 0 -58.54490602 0 32508
0.17450000 0.17449800 8533.16015202 0 149.28708236 0 1581.87429607 0 138.87936385 0 252.34923672 0 32791
0.17550000 0.17549800 8440.51470870 0 204.50003468 0 1721.67426921 0 62.87345580 0 530.37099564 0 33633
0.17650000 0.17650100 8274.52401935 0 259.70511855 0 1860.08040166 0 -132.41149342 0 946.19976032 0 33984
0.17750000 0.17750300 8112.84973989 0 205.87251814 0 2089.40091723 0 -39.02866340 0 944.76095703 0 34069
