### header ###
fiducial parameters:
Omega_m = 0.31
Omega_nu = 0
Omega_de = 0.69
Omega_k = 0
H_0 = 100
w_de = -1
zeff = 0
beta = 0
fgrowth = 0
b_1 = 2
gamma = 0.55
Lx = 3500 Ly = 3500 Lz = 3500
nx = 700 ny = 700 nz = 700
xoffset = 857.220397 yoffset = 15.9954215 zoffset = 262.898189
bins = 400 dk = 0.001
kx_ny = 0.628318531 ky_ny = 0.628318531 kz_ny = 0.628318531
############################
A(data) = 3.08954328 (not used)
A(ran) = 3.0930691 (used)
Ngal = 188397
weighted Ngal = 0
Nran = 9360983
weighted Nran = 0
SN(data) = 3432.91595
SN(ran) = 69.4587076
SN(data+ran) = 3502.37466
############################
13 columns: k_central k_mean P_0(k) sigma^{lin}_{P_0(k)} P^img_1(k) sigma^{lin}_{P_1(k)} P_2(k) sigma^{lin}_{P_2(k)} P^img_3(k) sigma^{lin}_{P_3(k)} P_4(k) sigma^{lin}_{P_4(k)} N_modes
### header ###
0.00050000 0 0 0 0 0 0 0 0 0 0 0 0
0.00150000 0.00179520 12838.17201288 0 -20973.48057293 0 -24240.91292741 0 37363.69821680 0 29038.87228543 0 3
0.00250000 0.00253879 24943.90322413 0 -26255.23753841 0 -13007.68102590 0 -21559.45569553 0 -2550.51489151 0 6
0.00350000 0.00331552 39075.19969710 0 -26096.18233056 0 -37319.07283340 0 17564.07879971 0 -12437.66762733 0 7
0.00450000 0.00420575 54194.66177583 0 -25856.41925047 0 -45557.79538017 0 4052.13094136 0 6954.90534548 0 24
0.00550000 0.00557378 66925.48557423 0 -15082.70515084 0 -63878.36997408 0 293.60242490 0 18556.17863323 0 45
0.00650000 0.00659388 76066.60756169 0 -13328.37679126 0 -61875.62323334 0 6760.82426996 0 26328.97620720 0 40
0.00750000 0.00754703 68791.09637606 0 -6091.02761486 0 -67672.08959579 0 11984.89421589 0 32055.86294163 0 57
0.00850000 0.00846663 76555.80068150 0 -8630.67279711 0 -67800.23301412 0 7870.92845485 0 40360.56810819 0 75
0.00950000 0.00948925 76852.77867382 0 -4500.00342909 0 -45676.49665189 0 -19220.05146540 0 40705.76849214 0 112
0.01050000 0.01054430 73287.24426195 0 3487.17583562 0 -25837.64736375 0 -7648.20620127 0 44502.52308955 0 105
0.01150000 0.01145670 73792.39910580 0 4923.51742668 0 -4807.13172901 0 -32873.84509532 0 55534.32252995 0 144
0.01250000 0.01249090 74207.85355681 0 3216.74826034 0 20686.61916627 0 -20648.06373426 0 54612.25195049 0 169
0.01350000 0.01339930 79158.68576477 0 5269.21239926 0 55130.89557522 0 -6268.48376795 0 57796.50348957 0 180
0.01450000 0.01448870 73007.01483922 0 5331.59801082 0 41309.16662338 0 -6562.01088048 0 26508.37699287 0 267
0.01550000 0.01550050 69777.23866469 0 5626.29415103 0 61698.80779734 0 5427.54820546 0 22069.21920618 0 238
0.01650000 0.01653350 64484.69067451 0 10699.04245682 0 31737.75252594 0 2187.97018349 0 3824.10310064 0 315
0.01750000 0.01747870 59617.93853402 0 3927.85430688 0 42137.26536273 0 10724.86223155 0 -4378.69432640 0 297
0.01850000 0.01844180 57369.69598131 0 2608.46044603 0 25187.37571896 0 -2391.85310644 0 -5653.50776645 0 388
0.01950000 0.01947590 57232.56004239 0 -1471.38994004 0 21214.36771809 0 8378.23026299 0 -6116.64505787 0 399
0.02050000 0.02045430 63230.34645943 0 -4046.96024203 0 23228.80473559 0 -834.84312979 0 2677.37687566 0 462
0.02150000 0.02154770 66804.08654634 0 -3500.94563277 0 33108.77469560 0 1668.16877173 0 6880.87441977 0 571
0.02250000 0.02255340 74912.97957717 0 -4898.28216579 0 32250.88823181 0 11841.35110606 0 20178.65415974 0 510
0.02350000 0.02348930 79046.16685095 0 -4219.20073318 0 51619.65350638 0 10047.59054371 0 40941.70975098 0 555
0.02450000 0.02439640 82153.41993252 0 1125.23410078 0 35423.44949412 0 17145.25215347 0 18634.18874930 0 592
0.02550000 0.02547300 83927.08221136 0 2234.10181409 0 49072.63445724 0 14600.36882798 0 35200.32257711 0 837
0.02650000 0.02652900 80384.59113349 0 2631.14407921 0 33439.58704661 0 13973.47773671 0 23317.38106335 0 723
0.02750000 0.02749970 78136.79820682 0 239.27635992 0 30659.77412084 0 13440.67089206 0 23439.11731077 0 826
0.02850000 0.02848090 79864.93585020 0 -2453.67668547 0 23262.41428128 0 10068.36326626 0 7404.58757798 0 831
0.02950000 0.02946900 79879.99832218 0 -1995.44031777 0 18571.91554425 0 3780.07347172 0 -3678.84017124 0 996
0.03050000 0.03053250 82438.37042855 0 1631.11958692 0 28398.04278725 0 -5515.09039335 0 7387.73784253 0 1041
0.03150000 0.03150510 76703.95245814 0 4373.44494251 0 16443.49832834 0 1417.04139375 0 6410.20589236 0 1036
0.03250000 0.03246190 72368.20865818 0 5802.58127645 0 19750.04814737 0 4779.29987780 0 17734.48706479 0 1059
0.03350000 0.03345080 68230.18790458 0 6382.43024441 0 25039.89838137 0 9116.50496236 0 16852.43320193 0 1302
0.03450000 0.03451200 64188.94915377 0 4884.27631498 0 19005.91706897 0 13492.37788542 0 28053.40443584 0 1339
0.03550000 0.03553350 56587.23428393 0 6102.57176316 0 16390.89208292 0 9063.16807464 0 21958.27398347 0 1365
0.03650000 0.03647120 52158.86752195 0 3937.89220799 0 8051.23973323 0 6938.90989949 0 25825.28264794 0 1308
0.03750000 0.03744890 46454.34968247 0 2540.81420993 0 8054.89294472 0 1375.29361694 0 20883.10574105 0 1579
0.03850000 0.03847530 45261.04220087 0 385.25981502 0 4220.98799665 0 3979.83107586 0 17834.19163678 0 1662
0.03950000 0.03950240 45457.64118216 0 -754.62534991 0 701.96177717 0 1839.28519781 0 12593.68785948 0 1683
0.04050000 0.04050350 45352.87831734 0 -851.64790263 0 -346.00296641 0 -2184.50806306 0 9568.98611688 0 1822
0.04150000 0.04152450 46297.20538526 0 406.20676766 0 -1356.27443590 0 -2126.77608091 0 9348.69184386 0 1887
0.04250000 0.04250150 45940.42713105 0 834.75770085 0 4397.73598874 0 -5118.40782906 0 2513.55563191 0 1920
0.04350000 0.04349210 45122.44497736 0 1901.20994269 0 2312.93249766 0 -5354.86615783 0 2723.00267698 0 2005
0.04450000 0.04448520 43849.66609509 0 2499.87575997 0 12388.09635761 0 -7163.37445394 0 3063.03236159 0 2151
0.04550000 0.04548030 42183.01481121 0 2241.46444031 0 11935.66016569 0 -2847.36923667 0 2016.29172487 0 2274
0.04650000 0.04648670 41743.50536762 0 1393.39106461 0 18556.40344624 0 -785.10325031 0 2509.73381066 0 2311
0.04750000 0.04749250 40522.43347872 0 1194.98233856 0 19659.56090898 0 1428.84407702 0 3781.60220022 0 2568
0.04850000 0.04851840 40839.30742282 0 627.97131780 0 22784.57421870 0 1135.66542465 0 6890.12547532 0 2493
0.04950000 0.04949480 40759.83602215 0 315.62061155 0 21987.05004934 0 -881.65257163 0 4279.73163737 0 2644
0.05050000 0.05050630 41377.17256030 0 1209.69635037 0 26501.29538291 0 -1748.82044073 0 9090.11191444 0 2829
0.05150000 0.05149060 41580.51593202 0 184.65129362 0 23283.77151767 0 308.08487930 0 4641.79299741 0 2784
0.05250000 0.05249300 41181.92245710 0 1276.39837181 0 28689.62526722 0 1172.92818183 0 8336.33635772 0 3055
0.05350000 0.05348950 39438.16030920 0 1220.46489377 0 20302.63853730 0 1895.94931815 0 -787.35812484 0 3009
0.05450000 0.05448610 38076.13066013 0 2306.76138041 0 24174.14346207 0 4601.94489057 0 3643.06117996 0 3336
0.05550000 0.05550870 35672.09268829 0 2132.59873799 0 16458.67320682 0 3172.72987208 0 -3860.94995373 0 3349
0.05650000 0.05647670 33827.50190334 0 1723.21423836 0 16804.99765585 0 3063.38082176 0 -1493.69139109 0 3324
0.05750000 0.05747970 31684.80906100 0 1200.42281351 0 13996.18385119 0 1919.84694160 0 -3326.74926839 0 3639
0.05850000 0.05849280 30613.57504633 0 -55.12527525 0 10637.24135910 0 1401.37192663 0 -6745.97537035 0 3846
0.05950000 0.05951020 31233.49693415 0 -508.73948737 0 11601.81283898 0 602.82710618 0 -5329.42856523 0 3787
0.06050000 0.06049470 30898.75035538 0 -788.92956781 0 9765.13547214 0 -833.68871496 0 -11282.46595171 0 3930
0.06150000 0.06148310 32106.22105690 0 -902.09594311 0 9767.10258601 0 459.62009180 0 -7953.65964423 0 4083
0.06250000 0.06249100 31713.58512687 0 -812.26628280 0 8058.52367490 0 102.52057981 0 -11077.70625799 0 4303
0.06350000 0.06350600 32774.70255587 0 -112.07693143 0 10954.45252273 0 1339.25609069 0 -6927.66924876 0 4470
0.06450000 0.06451750 32798.30792241 0 42.57430186 0 9451.66744520 0 2512.61141725 0 -5564.78531023 0 4479
0.06550000 0.06550280 32995.35652972 0 971.85317342 0 10002.96516030 0 158.49767157 0 -1596.54334527 0 4636
0.06650000 0.06648880 31910.07170164 0 1250.44370927 0 11473.21979462 0 1237.82045850 0 1362.51299706 0 4653
0.06750000 0.06749660 31178.86737159 0 1785.43124016 0 12746.11108339 0 1061.79748837 0 3635.81096024 0 5220
0.06850000 0.06852730 29893.94858653 0 1522.57986346 0 12830.30355737 0 120.14794347 0 5510.05458182 0 5029
0.06950000 0.06949320 29107.10303536 0 1644.48472064 0 14613.52038933 0 -154.85682480 0 4438.96669562 0 5040
0.07050000 0.07048030 27783.17919227 0 986.65486230 0 14304.96452677 0 -935.15357285 0 5119.22839656 0 5475
0.07150000 0.07148790 27116.83341694 0 -5.47635511 0 13945.03889036 0 -67.16502384 0 2161.97055835 0 5509
0.07250000 0.07249820 28443.79223573 0 -800.66593124 0 14919.04127620 0 491.94145892 0 2918.11789237 0 5916
0.07350000 0.07351270 28617.68510254 0 -612.83240940 0 14389.38181376 0 -209.99558883 0 -618.50556582 0 5721
0.07450000 0.07449140 29257.39053564 0 -22.13812440 0 13783.39833285 0 -104.60695699 0 115.40214073 0 6028
0.07550000 0.07549160 29927.67053873 0 26.33403450 0 14577.99993302 0 199.12812770 0 -372.42524002 0 6183
0.07650000 0.07648840 28870.26252446 0 568.17555217 0 12646.06929189 0 1123.98751261 0 -1170.02809394 0 6330
0.07750000 0.07749960 28746.16574039 0 800.36130961 0 12900.44521793 0 1828.01082513 0 -131.21548818 0 6583
0.07850000 0.07848650 27682.68777473 0 1019.99238424 0 11753.67403035 0 1653.63461034 0 -1764.16392898 0 6549
0.07950000 0.07947320 26737.23664175 0 759.34417509 0 11048.57049130 0 1639.16789285 0 474.20820832 0 6828
0.08050000 0.08048110 25517.62603744 0 751.47122332 0 9453.69076233 0 767.05975775 0 -702.22705653 0 7147
0.08150000 0.08149960 25175.68544220 0 364.18022271 0 9387.76434580 0 801.26505793 0 -2.50596819 0 7386
0.08250000 0.08250610 25187.03849944 0 -107.94599229 0 9470.81027340 0 375.56362970 0 588.31430202 0 7227
0.08350000 0.08350160 25072.72108150 0 142.05597174 0 9251.49393698 0 -217.94834922 0 359.57605217 0 7798
0.08450000 0.08449610 25260.10272919 0 625.00041381 0 10342.78127255 0 -1386.66915548 0 1027.10546802 0 7371
0.08550000 0.08548940 24652.77037020 0 489.47863234 0 9870.59525730 0 -595.40265637 0 -985.72750862 0 8256
0.08650000 0.08650700 24417.27873738 0 861.64646146 0 11813.02466621 0 -463.53071419 0 16.24982192 0 8037
0.08750000 0.08749060 23536.57375261 0 715.21450439 0 10246.25780472 0 -253.84986359 0 -2558.60816004 0 8155
0.08850000 0.08849210 22937.33466214 0 634.23573246 0 11570.22661042 0 504.35226139 0 -2808.35293798 0 8718
0.08950000 0.08949900 22111.70886595 0 1022.58897456 0 10539.06551562 0 631.04338765 0 -3155.91385858 0 8571
0.09050000 0.09049190 21068.80129113 0 264.90729171 0 7743.03233084 0 2423.27072524 0 -3957.42845896 0 8932
0.09150000 0.09150830 20883.66777359 0 131.41557176 0 8241.92613223 0 1708.46650460 0 -3960.59832246 0 9285
0.09250000 0.09250820 20741.02391581 0 6.46484670 0 6564.89972772 0 1746.98821466 0 -4704.32473743 0 9204
0.09350000 0.09350330 20480.35322536 0 -156.98243185 0 6557.25608523 0 643.41934410 0 -3910.12780068 0 9349
0.09450000 0.09448040 20727.75994795 0 240.58139947 0 5654.80044129 0 -593.01401809 0 -2779.02608022 0 9564
0.09550000 0.09549270 20557.01446334 0 347.17087002 0 5736.96959813 0 -1216.57562862 0 -2595.58990094 0 10155
0.09650000 0.09649430 20620.97376600 0 450.31620519 0 6948.79043149 0 -640.08424303 0 -1618.15911663 0 9913
0.09750000 0.09749140 20104.57827142 0 642.62912636 0 6929.05184880 0 340.47706251 0 -1163.99186450 0 10476
0.09850000 0.09850240 19596.50085838 0 813.27119697 0 7147.57009901 0 651.50362011 0 -838.24904696 0 10575
0.09950000 0.09950330 19091.90804707 0 498.84996286 0 7122.77322350 0 1266.12441704 0 304.17650504 0 10882
0.10050000 0.10051200 18425.89949126 0 537.60435438 0 7512.86876647 0 1000.39543376 0 806.32222669 0 10875
0.10150000 0.10150300 18157.69756481 0 447.48468528 0 6972.10354110 0 1039.74782790 0 1871.07375808 0 11118
0.10250000 0.10250800 17855.21165364 0 380.79053229 0 7406.62213576 0 -50.05810231 0 2032.87168470 0 11575
0.10350000 0.10349800 17765.28644779 0 138.07790545 0 7724.87867991 0 48.46878670 0 2596.84885383 0 11364
0.10450000 0.10450100 17444.47827593 0 22.26413209 0 7746.77546753 0 -416.51107219 0 2015.58356388 0 12093
0.10550000 0.10551000 17848.13004368 0 -92.43423150 0 8187.22912577 0 94.98023889 0 2118.94134735 0 12067
0.10650000 0.10649700 17721.89753597 0 -149.46018838 0 7814.19689062 0 252.78424990 0 1928.55844592 0 12054
0.10750000 0.10749900 17578.69164566 0 92.72558916 0 8028.08399272 0 1203.35662336 0 1184.89947486 0 12807
0.10850000 0.10850100 17601.51016664 0 331.83749836 0 7228.07563955 0 1227.74883544 0 1748.37081470 0 12736
0.10950000 0.10950300 16979.11533567 0 387.44499753 0 6669.37033562 0 1254.76011915 0 1143.63504602 0 12933
0.11050000 0.11050200 16531.51262356 0 537.53691048 0 5819.29612408 0 1375.57463321 0 1056.91904596 0 13428
0.11150000 0.11150900 15774.34239032 0 432.52562728 0 4476.11704629 0 865.30192108 0 952.59456652 0 13453
0.11250000 0.11250000 15496.24869124 0 449.15617004 0 4409.70728177 0 45.89332880 0 434.82434036 0 13668
0.11350000 0.11349100 15235.57800079 0 84.69122165 0 3413.75190505 0 -324.97283296 0 616.17875112 0 13791
0.11450000 0.11448600 15172.18073066 0 144.44910628 0 3733.79571266 0 -628.85708108 0 -653.84504766 0 14205
0.11550000 0.11549300 15212.19744726 0 130.91761093 0 3717.22699349 0 -774.05593877 0 -1020.84442557 0 14776
0.11650000 0.11649800 14936.57669134 0 198.71559582 0 3316.13809410 0 -367.95932948 0 -1525.01908467 0 14553
0.11750000 0.11747300 14973.55843225 0 72.08494426 0 3818.20175900 0 437.45128043 0 -1154.41483007 0 14568
0.11850000 0.11849100 14869.13278696 0 75.31798022 0 3012.03352923 0 623.88646533 0 -1756.13810435 0 16015
0.11950000 0.11950300 14729.63631138 0 129.13259560 0 3196.20035080 0 904.85552287 0 -1754.48572870 0 15270
0.12050000 0.12050700 14329.01951933 0 440.73804671 0 2618.14988696 0 521.95287230 0 -1477.92075811 0 15999
0.12150000 0.12150000 14024.17307151 0 512.11617885 0 3180.81189995 0 26.26097027 0 -820.03919278 0 15670
0.12250000 0.12250700 13654.46806896 0 327.90327060 0 3148.53999170 0 -218.96225591 0 67.55709774 0 16887
0.12350000 0.12352200 13609.16824652 0 107.93699977 0 3811.73838483 0 -292.98756130 0 -121.04382333 0 16407
0.12450000 0.12449800 13556.22478158 0 26.62898918 0 3554.38368635 0 -358.21031310 0 -127.21943684 0 16306
0.12550000 0.12549900 13734.72631518 0 -46.81562420 0 4172.94545542 0 -782.10424469 0 -158.96191044 0 17523
0.12650000 0.12650100 13562.74435900 0 53.89374956 0 4375.81671981 0 -390.26752492 0 87.31501434 0 17154
0.12750000 0.12750600 13889.84729527 0 69.66460734 0 4444.36220797 0 -192.11733384 0 -225.88200050 0 18007
0.12850000 0.12850300 13571.62447308 0 85.82506609 0 4335.78876256 0 248.27112863 0 -1043.90237241 0 17496
0.12950000 0.12949900 13624.79275103 0 170.06767336 0 3968.48925927 0 136.22994247 0 -975.75929955 0 18405
0.13050000 0.13049000 13317.47336005 0 176.56926575 0 3960.72196962 0 88.95884710 0 -1369.95430784 0 18100
0.13150000 0.13148800 13275.99535885 0 184.61082728 0 3861.37709846 0 450.60958618 0 -1051.38414954 0 19059
0.13250000 0.13249300 12950.24130067 0 139.36046370 0 3413.09994731 0 486.03674509 0 -954.10193779 0 18957
0.13350000 0.13349100 12921.69004781 0 0.96575175 0 3253.90985166 0 854.62330288 0 -730.77381313 0 19468
0.13450000 0.13450700 12824.57082550 0 80.20485313 0 2757.02812674 0 651.19337815 0 -348.91092276 0 19953
0.13550000 0.13551000 12683.50065882 0 170.82866542 0 2477.09096094 0 676.48709042 0 -538.44852725 0 19956
0.13650000 0.13649900 12457.22635961 0 154.81298626 0 2183.79990206 0 193.56625372 0 -510.32779132 0 19723
0.13750000 0.13749600 12291.76398085 0 202.19794941 0 2411.56920783 0 -147.92359142 0 -624.51256957 0 20946
0.13850000 0.13851100 12421.48109028 0 -19.82165109 0 2151.35938406 0 -43.31281262 0 -247.82487480 0 20955
0.13950000 0.13949800 12251.63485774 0 42.44492197 0 2411.09710050 0 -151.37109900 0 -749.31414244 0 20506
0.14050000 0.14048300 12367.18874725 0 166.87308043 0 2357.73773148 0 -99.09128208 0 -453.32532740 0 21447
0.14150000 0.14148400 12140.80204153 0 336.47314272 0 2787.90619430 0 -9.82464348 0 -504.91766612 0 21771
0.14250000 0.14249400 11918.91159610 0 486.15702005 0 3148.62991691 0 -116.16875311 0 306.48083844 0 22470
0.14350000 0.14350900 11632.16259595 0 426.29830678 0 3411.93091963 0 136.01861824 0 721.74082620 0 22519
0.14450000 0.14449900 11192.67563367 0 279.10535765 0 3292.26295195 0 354.71896699 0 901.00672406 0 22218
0.14550000 0.14550500 11173.54404613 0 37.53354445 0 3271.70380176 0 525.06878069 0 1389.44559621 0 23559
0.14650000 0.14650700 11087.53058673 0 -26.37517528 0 3159.45466356 0 483.60876453 0 907.98492003 0 23044
0.14750000 0.14750500 11100.67090744 0 8.41372824 0 2837.24141036 0 335.66269180 0 1128.99971877 0 23649
0.14850000 0.14849900 10957.37509192 0 37.72733327 0 2481.53101798 0 -63.04566257 0 464.20740137 0 23640
0.14950000 0.14949500 10914.34588092 0 199.12475550 0 2809.73553802 0 -252.74490762 0 574.74683659 0 24457
0.15050000 0.15050000 10792.36233919 0 182.80557877 0 2366.53916100 0 -150.10652580 0 406.54511125 0 24591
0.15150000 0.15149900 10614.44531942 0 188.83506383 0 2519.24340118 0 -67.24910391 0 252.74490762 0 25020
0.15250000 0.15250500 10477.08456749 0 127.07106025 0 2473.56139661 0 58.97317481 0 -75.73118654 0 25297
0.15350000 0.15350100 10330.00065267 0 215.38323272 0 2428.35149937 0 141.54002587 0 137.60917031 0 25452
0.15450000 0.15450400 10170.45085619 0 231.97555727 0 2391.36975846 0 203.38945839 0 6.33285897 0 26061
0.15550000 0.15549900 10142.11317570 0 290.86532645 0 2451.12505775 0 53.04373155 0 384.74724135 0 26128
0.15650000 0.15649500 9844.97781428 0 160.28718316 0 2534.05857884 0 171.07820787 0 659.83069417 0 26331
0.15750000 0.15749700 9741.53010560 0 140.26083982 0 2586.29388279 0 -5.73744171 0 635.41262859 0 27345
0.15850000 0.15849900 9671.55705480 0 121.59798741 0 2921.74862255 0 -126.57422349 0 1125.03176906 0 26980
0.15950000 0.15949700 9562.81499963 0 58.76938181 0 2831.27262482 0 -26.64393924 0 728.69541681 0 27777
0.16050000 0.16050000 9685.40553650 0 54.72735621 0 3110.47914833 0 -33.94609077 0 995.06062092 0 28224
0.16150000 0.16150500 9535.54518096 0 82.72332092 0 2972.88234273 0 -205.48808788 0 315.40366699 0 28075
0.16250000 0.16249700 9570.87454620 0 143.33290967 0 3142.12158014 0 -276.22437887 0 266.70691989 0 28590
0.16350000 0.16349900 9295.36619679 0 120.04115729 0 2822.08901317 0 -110.01528368 0 -81.40142040 0 29163
0.16450000 0.16449100 9355.48119690 0 88.22651871 0 2678.84940091 0 -25.71242651 0 -246.76263330 0 28996
0.16550000 0.16550500 9236.60007477 0 -45.05207850 0 2543.82670433 0 199.38441454 0 -527.14830107 0 30777
0.16650000 0.16650700 9343.57734777 0 -27.12582594 0 2243.21798183 0 476.01458090 0 -823.03707433 0 29211
0.16750000 0.16749900 9245.76120511 0 55.76127127 0 2169.97390167 0 285.65528483 0 -471.48572272 0 30922
0.16850000 0.16850800 9160.71444168 0 177.37634447 0 2164.87064623 0 64.84888776 0 -850.07196340 0 30867
0.16950000 0.16949900 9035.20133562 0 203.88067483 0 2310.59444231 0 118.81929855 0 -5.04505134 0 30852
0.17050000 0.17049200 8825.99034421 0 249.67396184 0 2358.07495100 0 -143.97812302 0 -159.04059500 0 31257
0.17150000 0.17149500 8749.22794037 0 163.34576423 0 2463.75954917 0 88.06566500 0 139.73365330 0 32608
0.17250000 0.17250900 8665.28276071 0 167.05405490 0 2569.02824327 0 -51.84772631 0 420.69933865 0 32361
0.17350000 0.17350400 8524.30251924 0 76.73374018 0 2493.41238580 0 173.97604762 0 234.54179783 0 32508
0.17450000 0.17449800 8639.53042989 0 -25.39813792 0 2326.01661511 0 -16.85198358 0 250.45293894 0 32791
0.17550000 0.17549800 8617.03788777 0 -47.71836086 0 2346.47459944 0 40.22725399 0 57.12745996 0 33633
0.17650000 0.17650100 8615.14945845 0 -13.29544168 0 2321.13817270 0 180.36298537 0 -7.10443972 0 33984
0.17750000 0.17750300 8676.70326185 0 31.01925013 0 2226.80663176 0 -8.79422427 0 -179.62110242 0 34069
