### header ###
fiducial parameters:
Omega_m = 0.31
Omega_nu = 0
Omega_de = 0.69
Omega_k = 0
H_0 = 100
w_de = -1
zeff = 0
beta = 0
fgrowth = 0
b_1 = 2
gamma = 0.55
Lx = 3500 Ly = 3500 Lz = 3500
nx = 700 ny = 700 nz = 700
xoffset = 857.220397 yoffset = 15.9954215 zoffset = 262.898189
bins = 400 dk = 0.001
kx_ny = 0.628318531 ky_ny = 0.628318531 kz_ny = 0.628318531
############################
A(data) = 3.00645766 (not used)
A(ran) = 3.00438017 (used)
Ngal = 183758
weighted Ngal = 0
Nran = 9360983
weighted Nran = 0
SN(data) = 3444.71428
SN(ran) = 67.4670876
SN(data+ran) = 3512.18136
############################
13 columns: k_central k_mean P_0(k) sigma^{lin}_{P_0(k)} P^img_1(k) sigma^{lin}_{P_1(k)} P_2(k) sigma^{lin}_{P_2(k)} P^img_3(k) sigma^{lin}_{P_3(k)} P_4(k) sigma^{lin}_{P_4(k)} N_modes
### header ###
0.00050000 0 0 0 0 0 0 0 0 0 0 0 0
0.00150000 0.00179520 17048.24533767 0 -26043.46367863 0 -9041.87828215 0 57873.72676009 0 7295.20480571 0 3
0.00250000 0.00253879 34721.13363645 0 -33203.98300729 0 -6803.07787606 0 -15651.48207783 0 1621.75612486 0 6
0.00350000 0.00331552 55276.12478266 0 -30292.20484193 0 -15245.24496041 0 11439.49784242 0 -930.12675384 0 7
0.00450000 0.00420575 76294.56795851 0 -24409.63509488 0 -18628.34361092 0 12219.59900315 0 6965.66264823 0 24
0.00550000 0.00557378 90630.55668130 0 1408.93688457 0 -13401.21620799 0 8317.93541247 0 28536.75241727 0 45
0.00650000 0.00659388 88690.42036513 0 5239.98670736 0 -25583.60865723 0 21720.87144003 0 13298.92628634 0 40
0.00750000 0.00754703 73947.29527287 0 13676.27493138 0 -7697.14799455 0 22932.50118232 0 54834.47961544 0 57
0.00850000 0.00846663 71791.56327568 0 325.42807931 0 -21326.88663191 0 37299.73891414 0 39062.72257479 0 75
0.00950000 0.00948925 67822.26468955 0 -10222.86601055 0 -5444.34173765 0 35389.95235495 0 50921.49668948 0 112
0.01050000 0.01054430 78576.19524389 0 -16345.81707349 0 -28917.58566404 0 21173.33934292 0 20314.10400105 0 105
0.01150000 0.01145670 88831.94015783 0 -11016.81565298 0 -17293.06671059 0 3394.01332237 0 47998.81509291 0 144
0.01250000 0.01249090 92357.68266612 0 -4000.25533824 0 -26961.82484336 0 -9635.13734643 0 27522.17128230 0 169
0.01350000 0.01339930 98099.29465300 0 -534.58286746 0 -13865.11786366 0 -15721.84855141 0 38461.01054116 0 180
0.01450000 0.01448870 92761.10962085 0 3156.83559194 0 -21774.60175052 0 -9000.05182078 0 31742.13637972 0 267
0.01550000 0.01550050 94909.98482109 0 5916.60643746 0 -4257.66623998 0 -14908.02543848 0 -790.10983614 0 238
0.01650000 0.01653350 84540.25970874 0 5937.62645433 0 -10908.34337343 0 -8526.35955833 0 1590.01252720 0 315
0.01750000 0.01747870 86172.85182091 0 9381.99789197 0 -716.77133451 0 -13788.90625171 0 -9475.92476948 0 297
0.01850000 0.01844180 75744.22569873 0 8086.63654238 0 -7457.63220878 0 -10942.72852402 0 -15050.10726372 0 388
0.01950000 0.01947590 66325.23482520 0 5030.38229318 0 1992.42782337 0 -10562.61467890 0 -18496.15355832 0 399
0.02050000 0.02045430 65627.41522782 0 2941.34107678 0 -2321.20561660 0 -6555.03043638 0 -17929.17513545 0 462
0.02150000 0.02154770 65053.91722752 0 1889.45222202 0 -265.86949141 0 -1776.18018461 0 -20337.48455457 0 571
0.02250000 0.02255340 64444.33673838 0 -5.55659088 0 -350.29689499 0 4748.64662326 0 -17766.41051287 0 510
0.02350000 0.02348930 63339.26836502 0 -842.00230024 0 -6979.47740798 0 9195.68410610 0 -8602.05410035 0 555
0.02450000 0.02439640 63669.06905747 0 -264.08897234 0 -2802.86750042 0 13442.24458316 0 -6682.94904170 0 592
0.02550000 0.02547300 60728.85204576 0 1113.65623052 0 -6932.52520988 0 4945.59406472 0 3506.64464269 0 837
0.02650000 0.02652900 61687.34233359 0 2876.07785863 0 -3587.79090032 0 5173.40833308 0 6277.48752918 0 723
0.02750000 0.02749970 57803.92231905 0 4160.20979814 0 3053.44408652 0 -7722.31581154 0 10212.65949969 0 826
0.02850000 0.02848090 56780.23625698 0 2329.88339896 0 6956.78253416 0 -8150.20242227 0 9861.25427654 0 831
0.02950000 0.02946900 55931.22990727 0 -670.48795513 0 20300.72762668 0 -12141.02685454 0 8895.39012183 0 996
0.03050000 0.03053250 57577.31080031 0 650.72464301 0 25210.30664645 0 -14136.57957882 0 -1161.82241890 0 1041
0.03150000 0.03150510 61086.75436503 0 1468.07394807 0 29816.05087697 0 -12063.69117751 0 -6600.37522143 0 1036
0.03250000 0.03246190 58287.94473953 0 1635.93058544 0 35027.89099490 0 -12074.59460872 0 -13811.94958571 0 1059
0.03350000 0.03345080 60372.97304362 0 2911.28357672 0 39501.66998583 0 -5404.33626170 0 -9593.99656476 0 1302
0.03450000 0.03451200 57792.11963578 0 -606.02844351 0 34588.15673830 0 5806.36937574 0 -14439.40270951 0 1339
0.03550000 0.03553350 58304.91812213 0 -844.47524340 0 36498.28051702 0 9150.93507554 0 -13478.21466550 0 1365
0.03650000 0.03647120 59004.87344315 0 558.93011695 0 29044.04298476 0 10810.84196899 0 -15022.45526293 0 1308
0.03750000 0.03744890 57455.46214639 0 2046.19185582 0 29233.78516910 0 12633.03013704 0 -11268.63995131 0 1579
0.03850000 0.03847530 53306.31314856 0 5134.95406693 0 24075.00092262 0 4994.62578321 0 -3158.51044890 0 1662
0.03950000 0.03950240 49523.27214505 0 4881.19637668 0 26959.46430670 0 5791.18325661 0 2786.68096337 0 1683
0.04050000 0.04050350 43562.35506240 0 4443.92382259 0 24809.35263488 0 3625.87422499 0 5141.00153702 0 1822
0.04150000 0.04152450 41837.25239472 0 2740.13342869 0 21326.21219287 0 3424.84642732 0 9426.02752088 0 1887
0.04250000 0.04250150 38193.59546027 0 622.97934481 0 17011.82562930 0 4626.46074981 0 2960.79864319 0 1920
0.04350000 0.04349210 38999.43771117 0 324.84918580 0 18682.41114094 0 3806.68009200 0 10037.60884586 0 2005
0.04450000 0.04448520 38042.74592746 0 -345.72082608 0 14732.55888057 0 363.43833976 0 -1598.72403152 0 2151
0.04550000 0.04548030 40185.77598932 0 -674.19961800 0 15511.53597623 0 718.32142025 0 3814.54854751 0 2274
0.04650000 0.04648670 40059.31866860 0 -1016.83600952 0 15028.18799480 0 -431.13403472 0 1261.39210308 0 2311
0.04750000 0.04749250 41263.19236189 0 -1035.80910388 0 15178.58790158 0 271.87986736 0 121.24390691 0 2568
0.04850000 0.04851840 42648.04053195 0 -244.53698446 0 18852.93181253 0 -259.86585986 0 177.51685260 0 2493
0.04950000 0.04949480 43027.07527460 0 684.23189878 0 19793.54946569 0 -1386.14084489 0 -4328.69591195 0 2644
0.05050000 0.05050630 40991.28102071 0 1403.93479500 0 18422.52729604 0 -801.83720705 0 2026.45327313 0 2829
0.05150000 0.05149060 42271.25391944 0 977.03960967 0 19887.52130581 0 -2673.45388856 0 -3072.20473259 0 2784
0.05250000 0.05249300 40330.89279026 0 1169.26372969 0 17929.84957450 0 1954.00727917 0 -2073.52911839 0 3055
0.05350000 0.05348950 39849.11849993 0 1126.21203739 0 16524.09379408 0 2456.43064489 0 -5305.19372225 0 3009
0.05450000 0.05448610 36774.68811850 0 1203.30042010 0 13027.23975817 0 5318.66002183 0 -2718.89983946 0 3336
0.05550000 0.05550870 36085.52382218 0 353.59827411 0 10129.43372168 0 3922.79601405 0 -4482.82771477 0 3349
0.05650000 0.05647670 34936.61691096 0 54.43644817 0 6899.48893738 0 5843.07010038 0 -4396.90418059 0 3324
0.05750000 0.05747970 34463.94754773 0 -74.14805329 0 6151.04144911 0 3705.50299477 0 -2153.74240201 0 3639
0.05850000 0.05849280 34432.02409965 0 725.32659378 0 6060.31815706 0 -695.48716235 0 -424.32557257 0 3846
0.05950000 0.05951020 34272.40685927 0 1232.05400467 0 7479.38286794 0 -676.20157789 0 2750.93569405 0 3787
0.06050000 0.06049470 33397.54701288 0 1605.89556668 0 10742.09414912 0 -3159.13992534 0 5042.34234556 0 3930
0.06150000 0.06148310 32808.31210156 0 1008.10876829 0 9834.25423348 0 -149.05102869 0 3205.03550228 0 4083
0.06250000 0.06249100 32619.24435626 0 794.43973480 0 12172.72548960 0 388.63313431 0 5013.82481465 0 4303
0.06350000 0.06350600 31591.51165993 0 469.29941615 0 12010.29808654 0 1830.70858130 0 2485.99355632 0 4470
0.06450000 0.06451750 31493.71799857 0 227.26347648 0 8485.80329049 0 1959.07681265 0 544.58704662 0 4479
0.06550000 0.06550280 30749.24970066 0 -95.10759546 0 9555.11515388 0 684.83889392 0 -1163.53099782 0 4636
0.06650000 0.06648880 31084.22109244 0 -268.77407556 0 6145.14010747 0 -128.60203688 0 -2245.02772660 0 4653
0.06750000 0.06749660 31026.89377371 0 -182.74263113 0 7479.46155250 0 425.55867196 0 -3130.62239444 0 5220
0.06850000 0.06852730 30730.14059441 0 353.48923980 0 5948.11398146 0 330.02213327 0 -2036.37876773 0 5029
0.06950000 0.06949320 30424.39489453 0 679.43438904 0 7526.71724817 0 1831.76520247 0 -4603.41741581 0 5040
0.07050000 0.07048030 29799.41471389 0 1005.49419293 0 5173.04863226 0 1073.15616594 0 -2828.88960687 0 5475
0.07150000 0.07148790 28967.49415329 0 955.29007457 0 5596.64131441 0 1859.48464717 0 -2797.95533605 0 5509
0.07250000 0.07249820 27451.35518269 0 722.19607256 0 4272.95352497 0 702.50245247 0 -1395.66167606 0 5916
0.07350000 0.07351270 27355.58483846 0 475.82348983 0 3681.86390629 0 1233.86374944 0 -1650.65583789 0 5721
0.07450000 0.07449140 26677.99841240 0 398.71150175 0 2583.11277863 0 1135.04718886 0 -1697.47314819 0 6028
0.07550000 0.07549160 26235.22918010 0 195.87508338 0 2754.43153642 0 326.91072114 0 -957.23021088 0 6183
0.07650000 0.07648840 26369.44254983 0 405.26142893 0 1635.57088461 0 348.61192145 0 -1819.89507530 0 6330
0.07750000 0.07749960 25596.76021858 0 383.75581596 0 3463.80652275 0 -1750.21428142 0 -941.18755416 0 6583
0.07850000 0.07848650 25573.49207157 0 423.89393159 0 3541.53562256 0 -1492.74717642 0 -2444.62796163 0 6549
0.07950000 0.07947320 25733.33412497 0 673.39141521 0 6063.62290837 0 -1990.53939405 0 193.37853485 0 6828
0.08050000 0.08048110 25152.08007567 0 330.27392384 0 6443.81543805 0 -1624.06045826 0 -1131.36025542 0 7147
0.08150000 0.08149960 25234.92367155 0 487.17317488 0 8464.05263133 0 -1051.19980287 0 1262.74098117 0 7386
0.08250000 0.08250610 25055.97251192 0 252.52683900 0 8662.09041590 0 -79.34370688 0 -705.16311450 0 7227
0.08350000 0.08350160 24846.55918880 0 604.55704233 0 8989.93523512 0 419.74837960 0 585.90318244 0 7798
0.08450000 0.08449610 24680.08515147 0 509.37683227 0 9775.08344803 0 1243.48574647 0 1574.63531700 0 7371
0.08550000 0.08548940 23783.41844266 0 432.34465281 0 8160.97096567 0 2443.97600388 0 1730.05979466 0 8256
0.08650000 0.08650700 22888.55023797 0 296.10346969 0 7415.49100919 0 2802.02445162 0 3019.04769528 0 8037
0.08750000 0.08749060 22791.54342216 0 344.74288946 0 6170.46529357 0 2988.63049440 0 3847.86583628 0 8155
0.08850000 0.08849210 21669.83888571 0 805.22289105 0 3885.18479671 0 2587.47415112 0 4516.49346371 0 8718
0.08950000 0.08949900 21253.14796311 0 596.26144209 0 3503.36237268 0 817.13011237 0 4341.81375135 0 8571
0.09050000 0.09049190 20872.42712286 0 408.62463163 0 3494.87568138 0 -316.99197094 0 5483.68401521 0 8932
0.09150000 0.09150830 20786.21133175 0 44.29929212 0 4323.27791830 0 -1325.99212283 0 4591.21006912 0 9285
0.09250000 0.09250820 20993.93855726 0 74.77921583 0 4805.94022004 0 -1045.39625489 0 5323.11131952 0 9204
0.09350000 0.09350330 20815.77424317 0 461.36688893 0 5599.37279253 0 -900.80102015 0 4204.05957664 0 9349
0.09450000 0.09448040 20286.33959374 0 643.48791207 0 5712.97080882 0 558.22083189 0 4771.07172147 0 9564
0.09550000 0.09549270 19512.75801043 0 794.80730408 0 5175.13939329 0 659.69693043 0 4126.46536465 0 10155
0.09650000 0.09649430 18665.88738436 0 775.36097832 0 4821.13757982 0 720.51896747 0 3318.29629904 0 9913
0.09750000 0.09749140 18262.23561661 0 611.85784498 0 4761.96679438 0 282.09986701 0 3567.72633876 0 10476
0.09850000 0.09850240 17653.44197302 0 521.01652610 0 3889.28763422 0 -254.54790800 0 3204.55215430 0 10575
0.09950000 0.09950330 17295.31484073 0 278.30614738 0 4508.11917892 0 -814.84938434 0 3686.11287226 0 10882
0.10050000 0.10051200 17240.68527818 0 131.14579614 0 4706.82016189 0 -513.94503272 0 2704.47808458 0 10875
0.10150000 0.10150300 17471.11861816 0 21.03946319 0 5416.46492384 0 -0.95525748 0 2918.55627775 0 11118
0.10250000 0.10250800 17325.32737818 0 127.40378352 0 5191.08987668 0 -27.45787476 0 2277.52444786 0 11575
0.10350000 0.10349800 17290.48136092 0 188.36183243 0 5423.70390291 0 -299.83986199 0 1072.46936218 0 11364
0.10450000 0.10450100 16834.56056727 0 553.69422184 0 5650.87745418 0 -709.43793398 0 294.28023614 0 12093
0.10550000 0.10551000 16644.03153738 0 442.43650903 0 5585.34446042 0 -553.17602784 0 -761.68335451 0 12067
0.10650000 0.10649700 16106.39121292 0 340.04654559 0 5559.78322066 0 -757.99866920 0 -545.73246892 0 12054
0.10750000 0.10749900 15937.89385846 0 139.99331233 0 4910.36586533 0 -781.91764989 0 -2732.22001058 0 12807
0.10850000 0.10850100 15820.65387133 0 63.80305761 0 5133.40285713 0 94.88660427 0 -2875.50458545 0 12736
0.10950000 0.10950300 15932.38593960 0 -8.74454059 0 4958.45336915 0 189.18914432 0 -3400.73523150 0 12933
0.11050000 0.11050200 15788.50561024 0 66.85107247 0 4615.62476251 0 729.66998123 0 -2523.78462407 0 13428
0.11150000 0.11150900 15604.72097079 0 31.46415509 0 4565.23292528 0 1008.23915984 0 -2286.07858307 0 13453
0.11250000 0.11250000 15726.68203122 0 133.54455101 0 4808.50308840 0 821.23969428 0 -1657.65876330 0 13668
0.11350000 0.11349100 15414.97878645 0 374.45530154 0 4614.88287956 0 568.58920812 0 -232.11156914 0 13791
0.11450000 0.11448600 15360.57403691 0 355.39003384 0 5427.48076155 0 101.47092784 0 993.64991925 0 14205
0.11550000 0.11549300 15033.13388112 0 417.55083238 0 5324.05553418 0 16.93055572 0 1255.10857932 0 14776
0.11650000 0.11649800 14950.62750475 0 289.44001193 0 6167.93614716 0 24.72808273 0 2073.12445497 0 14553
0.11750000 0.11747300 14570.91832306 0 404.54877168 0 5570.09089738 0 -158.48643092 0 1329.74650017 0 14568
0.11850000 0.11849100 14528.65347631 0 310.26893774 0 5992.41338599 0 146.29144894 0 1870.21946862 0 16015
0.11950000 0.11950300 14045.19308837 0 365.60553722 0 5982.51037270 0 -59.25464070 0 969.03514228 0 15270
0.12050000 0.12050700 13795.20101612 0 234.83180662 0 5784.66367918 0 109.20247223 0 1061.22196706 0 15999
0.12150000 0.12150000 13553.63943191 0 155.48405311 0 5388.73423848 0 148.45077794 0 -135.70275595 0 15670
0.12250000 0.12250700 13421.11215979 0 109.02554438 0 5009.83438364 0 318.58027489 0 -421.88522730 0 16887
0.12350000 0.12352200 13553.97665143 0 47.59167872 0 5211.04203173 0 128.07822256 0 -781.51186240 0 16407
0.12450000 0.12449800 13377.72324797 0 64.40836666 0 4276.05594458 0 357.97313537 0 -609.43885694 0 16306
0.12550000 0.12549900 13332.08620600 0 -46.67174387 0 4299.50394200 0 376.46400583 0 -569.46373075 0 17523
0.12650000 0.12650100 13222.04023534 0 62.85277300 0 4025.06345440 0 -50.25177872 0 -1217.11517985 0 17154
0.12750000 0.12750600 13499.90912141 0 42.34791516 0 4244.73949164 0 -48.72248819 0 -1417.90692386 0 18007
0.12850000 0.12850300 13229.23425181 0 119.53532800 0 4447.10492675 0 -591.11209999 0 -1473.55938563 0 17496
0.12950000 0.12949900 13218.89285314 0 156.47660257 0 4345.66929455 0 -413.33221616 0 -1524.35588628 0 18405
0.13050000 0.13049000 13099.74195539 0 15.37001618 0 4749.88309484 0 -64.05271247 0 -1378.01385441 0 18100
0.13150000 0.13148800 13077.48546694 0 212.22685800 0 4569.90903599 0 453.65580253 0 -1282.70437687 0 19059
0.13250000 0.13249300 12990.14561076 0 175.41147872 0 4336.10350078 0 787.26482744 0 -1489.90329179 0 18957
0.13350000 0.13349100 12562.66366346 0 428.27216505 0 4143.62983831 0 784.46140915 0 -991.87389644 0 19468
0.13450000 0.13450700 12289.62825721 0 390.06856541 0 3833.08438057 0 397.91566368 0 -392.12110823 0 19953
0.13550000 0.13551000 11857.98726914 0 409.38225149 0 3713.38269094 0 491.41539646 0 -33.58616513 0 19956
0.13650000 0.13649900 11624.29414044 0 277.72837794 0 3612.39668477 0 396.62973324 0 152.34116716 0 19723
0.13750000 0.13749600 11315.62587137 0 169.21225984 0 3537.64635741 0 179.10403249 0 -197.97483693 0 20946
0.13850000 0.13851100 11381.49608465 0 93.41610234 0 3308.84291178 0 245.19568659 0 73.92222862 0 20955
0.13950000 0.13949800 11210.51454638 0 64.41825843 0 3038.15680152 0 278.95360887 0 -300.52104542 0 20506
0.14050000 0.14048300 11147.36457057 0 19.04761988 0 2496.27875174 0 552.37344538 0 -280.40140468 0 21447
0.14150000 0.14148400 11043.84941799 0 9.90641921 0 2457.13880589 0 434.31963514 0 -596.73692162 0 21771
0.14250000 0.14249400 11065.64503976 0 111.50230937 0 1830.00042031 0 72.36910791 0 -723.52584154 0 22470
0.14350000 0.14350900 10943.42544436 0 175.74869824 0 2341.70856353 0 -26.30952988 0 -438.42022453 0 22519
0.14450000 0.14449900 10806.19958024 0 214.65146636 0 2137.34229259 0 -29.62417297 0 -183.70595490 0 22218
0.14550000 0.14550500 10757.29150891 0 68.26435948 0 2516.91658648 0 -29.79941471 0 -236.59996098 0 23559
0.14650000 0.14650700 10712.44131249 0 -36.77277721 0 2801.41745648 0 3.98823908 0 -58.26085477 0 23044
0.14750000 0.14750500 10817.56387813 0 -69.46688430 0 2475.78704545 0 378.83578313 0 -57.27167751 0 23649
0.14850000 0.14849900 10916.18934764 0 -6.97765642 0 2786.83833248 0 18.99478882 0 43.93093600 0 23640
0.14950000 0.14949500 10948.79847541 0 87.48744592 0 2378.72402639 0 110.00348100 0 -249.26255402 0 24457
0.15050000 0.15050000 10710.98002790 0 -3.56045364 0 2331.17607380 0 16.02163671 0 -423.83885240 0 24591
0.15150000 0.15149900 10733.61869847 0 70.78541263 0 2156.94598747 0 63.83363218 0 -316.74580069 0 25020
0.15250000 0.15250500 10699.12114137 0 93.97712322 0 2084.35386505 0 -206.42331002 0 -843.06229361 0 25297
0.15350000 0.15350100 10580.21753794 0 267.87032724 0 2271.11727694 0 -173.33308240 0 -787.18726695 0 25452
0.15450000 0.15450400 10343.56811810 0 278.05772900 0 2417.76280638 0 -327.84931548 0 -918.22964911 0 26061
0.15550000 0.15549900 10183.28767933 0 356.76588949 0 2670.95846410 0 -121.88799620 0 -426.24210352 0 26128
0.15650000 0.15649500 9838.64932792 0 299.70834638 0 2677.39935696 0 80.68842592 0 -480.71654510 0 26331
0.15750000 0.15749700 9773.29618457 0 223.31013962 0 2939.77862633 0 172.72159100 0 -219.49281463 0 27345
0.15850000 0.15849900 9463.40268456 0 257.55478207 0 2957.31404147 0 166.31442009 0 -6.93771839 0 26980
0.15950000 0.15949700 9350.37794146 0 261.67223243 0 3166.53627352 0 76.19137878 0 -52.02982485 0 27777
0.16050000 0.16050000 9067.28215280 0 235.80749510 0 3014.45026913 0 -133.98743265 0 262.61869522 0 28224
0.16150000 0.16150500 9050.88204339 0 204.77992689 0 3199.88728424 0 12.38787154 0 211.24667325 0 28075
0.16250000 0.16249700 8802.74467850 0 67.88251458 0 2947.30986232 0 190.72124502 0 -57.21671072 0 28590
0.16350000 0.16349900 8760.52479436 0 34.81173328 0 2877.67403104 0 157.23309836 0 158.94729760 0 29163
0.16450000 0.16449100 8799.96823777 0 -4.93911945 0 2636.24733464 0 426.86483557 0 -73.42381817 0 28996
0.16550000 0.16550500 8692.72118915 0 17.47269231 0 2467.64881432 0 261.05961697 0 -139.29751605 0 30777
0.16650000 0.16650700 8714.21331334 0 109.40131934 0 2340.64070171 0 306.36393567 0 -120.67625405 0 29211
0.16750000 0.16749900 8515.81582794 0 94.19103280 0 2107.36347709 0 310.22622326 0 125.04212280 0 30922
0.16850000 0.16850800 8445.89898040 0 187.65591956 0 2045.87711760 0 272.88590560 0 26.63584597 0 30867
0.16950000 0.16949900 8302.83921854 0 115.49881033 0 2145.37935787 0 312.30461958 0 786.62073815 0 30852
0.17050000 0.17049200 8261.58603036 0 81.51427653 0 2017.92161923 0 317.31345355 0 579.20150648 0 31257
0.17150000 0.17149500 8358.54788357 0 -0.81255629 0 1970.59847965 0 231.94745564 0 1143.51139886 0 32608
0.17250000 0.17250900 8178.09047673 0 42.76865271 0 1824.89716487 0 196.48095445 0 1024.44255787 0 32361
0.17350000 0.17350400 8412.95263310 0 22.00447306 0 1953.69254095 0 118.68441074 0 1221.84749381 0 32508
0.17450000 0.17449800 8219.79329094 0 103.07294538 0 1674.09259467 0 -7.91383402 0 1184.50605208 0 32791
0.17550000 0.17549800 8170.18829927 0 67.18177241 0 1892.17245950 0 62.20385023 0 1138.72288165 0 33633
0.17650000 0.17650100 8114.35598708 0 -7.81403952 0 1436.08305609 0 110.70276188 0 1124.80695605 0 33984
0.17750000 0.17750300 8103.39635262 0 -8.01786624 0 1380.09337480 0 226.59465776 0 160.47715016 0 34069
