### header ###
fiducial parameters:
Omega_m = 0.31
Omega_nu = 0
Omega_de = 0.69
Omega_k = 0
H_0 = 100
w_de = -1
zeff = 0
beta = 0
fgrowth = 0
b_1 = 2
gamma = 0.55
Lx = 3500 Ly = 3500 Lz = 3500
nx = 700 ny = 700 nz = 700
xoffset = 857.220397 yoffset = 15.9954215 zoffset = 262.898189
bins = 400 dk = 0.001
kx_ny = 0.628318531 ky_ny = 0.628318531 kz_ny = 0.628318531
############################
A(data) = 3.05937686 (not used)
A(ran) = 3.0554353 (used)
Ngal = 186484
weighted Ngal = 0
Nran = 9360983
weighted Nran = 0
SN(data) = 3459.46798
SN(ran) = 68.613594
SN(data+ran) = 3528.08158
############################
13 columns: k_central k_mean P_0(k) sigma^{lin}_{P_0(k)} P^img_1(k) sigma^{lin}_{P_1(k)} P_2(k) sigma^{lin}_{P_2(k)} P^img_3(k) sigma^{lin}_{P_3(k)} P_4(k) sigma^{lin}_{P_4(k)} N_modes
### header ###
0.00050000 0 0 0 0 0 0 0 0 0 0 0 0
0.00150000 0.00179520 26139.57124238 0 -37886.95050833 0 -41612.66419311 0 60992.78252492 0 -14625.88510514 0 3
0.00250000 0.00253879 41453.15935924 0 -32402.52461017 0 -10169.19190331 0 -55344.24312609 0 -32458.72786382 0 6
0.00350000 0.00331552 62619.41709221 0 -27584.66930036 0 -48503.85753026 0 18113.74662046 0 44241.06555354 0 7
0.00450000 0.00420575 69635.38165246 0 -12722.73052987 0 -33173.52084381 0 -28041.26453305 0 4286.55471236 0 24
0.00550000 0.00557378 71180.85872146 0 3133.02789369 0 -40888.54147302 0 -16680.67605876 0 19859.86930501 0 45
0.00650000 0.00659388 52100.75335767 0 30.25409904 0 -4700.59284138 0 2746.29330529 0 17346.57220807 0 40
0.00750000 0.00754703 58985.08989786 0 -659.17648830 0 -28066.78081021 0 14546.86333050 0 35541.13910728 0 57
0.00850000 0.00846663 57647.11524135 0 -7119.71576650 0 -19855.71026424 0 17754.83264262 0 20792.73090917 0 75
0.00950000 0.00948925 61000.31376091 0 907.43412815 0 -14277.98696501 0 5550.86938463 0 46528.31316428 0 112
0.01050000 0.01054430 64249.64866772 0 1482.39453710 0 -4.11139165 0 -11167.15935651 0 43646.21031686 0 105
0.01150000 0.01145670 59306.34769575 0 5775.88473096 0 3803.33037808 0 -5773.44550975 0 53392.19172015 0 144
0.01250000 0.01249090 61199.83531139 0 3269.33202446 0 18365.64960334 0 -3431.46717060 0 47092.36901797 0 169
0.01350000 0.01339930 56516.41818432 0 393.71840470 0 13512.83586975 0 14799.55315893 0 35690.52735549 0 180
0.01450000 0.01448870 59428.75838221 0 972.31853636 0 18057.31855379 0 4935.02785303 0 32329.46038042 0 267
0.01550000 0.01550050 49104.78271833 0 -977.28690398 0 3937.17280634 0 20163.47928125 0 -6823.76067341 0 238
0.01650000 0.01653350 53138.04060712 0 -93.53806340 0 -2655.54753194 0 2453.80033262 0 14076.21728439 0 315
0.01750000 0.01747870 55786.11310633 0 -4109.62686985 0 -8086.51289522 0 -2263.12517427 0 1722.31498630 0 297
0.01850000 0.01844180 53948.60393133 0 -2372.30561482 0 -11374.97650723 0 -1025.75883807 0 7397.20247045 0 388
0.01950000 0.01947590 58529.50632373 0 -3181.86852112 0 -2741.05516205 0 -10443.59866896 0 3206.57547143 0 399
0.02050000 0.02045430 65347.07339859 0 -2168.43393252 0 13001.94829403 0 -9615.19643204 0 20502.16008778 0 462
0.02150000 0.02154770 72866.05707905 0 -1134.86733845 0 33517.37234967 0 -7480.50693302 0 36974.09726246 0 571
0.02250000 0.02255340 77916.36904598 0 -2935.58586360 0 52624.90490125 0 3777.21834644 0 55728.67338109 0 510
0.02350000 0.02348930 80348.17142512 0 -130.96257354 0 65121.24872540 0 5082.28037761 0 67477.28911862 0 555
0.02450000 0.02439640 90602.23024146 0 129.72385383 0 73497.55683712 0 15442.63078725 0 71028.99753009 0 592
0.02550000 0.02547300 89514.13525070 0 2127.63037036 0 88946.03276275 0 18736.14145143 0 81348.13971415 0 837
0.02650000 0.02652900 91319.27135159 0 3559.91408650 0 85685.90683124 0 16216.77440309 0 75190.17402419 0 723
0.02750000 0.02749970 86191.28648811 0 5336.53265649 0 84415.93811166 0 9950.16782382 0 68713.08625998 0 826
0.02850000 0.02848090 81907.69930754 0 6893.52015184 0 75020.88982419 0 11896.09307512 0 49070.72354662 0 831
0.02950000 0.02946900 72024.69437184 0 6247.77848930 0 59440.56106548 0 11220.11406211 0 38512.60512801 0 996
0.03050000 0.03053250 65836.82855094 0 5310.75784436 0 49597.01081384 0 7057.55496796 0 9418.50752555 0 1041
0.03150000 0.03150510 61962.62586999 0 3384.89715462 0 45077.03274841 0 3903.76559237 0 -907.40490245 0 1036
0.03250000 0.03246190 56353.76596824 0 2526.83084042 0 31939.18498704 0 4423.11737809 0 -12038.39971337 0 1059
0.03350000 0.03345080 54226.36041090 0 3008.40279904 0 25377.11790330 0 -422.58102358 0 -17816.99344116 0 1302
0.03450000 0.03451200 52992.81139968 0 1146.28783959 0 27793.29577793 0 4338.26170572 0 -13646.37480044 0 1339
0.03550000 0.03553350 52627.15303140 0 772.66097401 0 30364.81944566 0 4597.53855548 0 -11365.30954760 0 1365
0.03650000 0.03647120 53473.46162493 0 -200.94798905 0 27176.74608533 0 7520.01782033 0 -674.44241605 0 1308
0.03750000 0.03744890 51766.68121794 0 61.09046378 0 32124.54331759 0 9697.41055148 0 6037.40971087 0 1579
0.03850000 0.03847530 53320.81358801 0 1090.13741700 0 33825.02896018 0 8725.33031692 0 13819.25600868 0 1662
0.03950000 0.03950240 50470.63418866 0 1203.81749004 0 29847.97432504 0 7844.10826221 0 16019.05135674 0 1683
0.04050000 0.04050350 49851.27433338 0 1618.63122396 0 28781.12416417 0 7362.58126620 0 17566.10211684 0 1822
0.04150000 0.04152450 48520.15647382 0 1141.16210286 0 21954.45216222 0 197.24194651 0 14234.71045970 0 1887
0.04250000 0.04250150 48233.85709970 0 2251.79459834 0 20122.56331259 0 2592.40879679 0 4144.12442695 0 1920
0.04350000 0.04349210 44954.39724893 0 2701.73536580 0 18447.14432114 0 -2419.95473327 0 4789.54011062 0 2005
0.04450000 0.04448520 43343.61199918 0 2751.19422901 0 18688.14387281 0 -1954.52434910 0 976.27636948 0 2151
0.04550000 0.04548030 40415.53489026 0 2253.57062115 0 18024.72066667 0 2786.17513409 0 765.43660779 0 2274
0.04650000 0.04648670 40424.19019133 0 -146.69836049 0 15612.36461329 0 2984.60634144 0 3429.94968275 0 2311
0.04750000 0.04749250 39943.98959210 0 -1307.41132717 0 15678.34723308 0 6939.70798570 0 -1558.61738971 0 2568
0.04850000 0.04851840 42400.29658984 0 -990.03605004 0 18146.23210107 0 760.62223708 0 1817.47833539 0 2493
0.04950000 0.04949480 41525.66155646 0 418.00945093 0 15016.61012455 0 709.08272941 0 -5826.90604463 0 2644
0.05050000 0.05050630 42100.50843484 0 2550.46992891 0 20355.24478272 0 -5684.92538525 0 1895.93807749 0 2829
0.05150000 0.05149060 38388.28353093 0 2436.20871423 0 14813.82878536 0 -2524.96489240 0 -6265.56119876 0 2784
0.05250000 0.05249300 38605.79012257 0 1673.73289384 0 24010.14236790 0 -567.75402777 0 3814.29001255 0 3055
0.05350000 0.05348950 36815.82890017 0 237.79371808 0 15389.01288326 0 3393.35012397 0 -1201.61432249 0 3009
0.05450000 0.05448610 37040.07988225 0 -365.49987510 0 19559.06949145 0 7647.92518500 0 2112.74774879 0 3336
0.05550000 0.05550870 37547.59526276 0 -669.38299916 0 13091.31146734 0 6490.56530444 0 3813.30083528 0 3349
0.05650000 0.05647670 36847.63994174 0 -834.38226311 0 11305.28447269 0 6188.32668758 0 2540.06108633 0 3324
0.05750000 0.05747970 37647.52464776 0 37.91044347 0 10538.84070260 0 2013.56024674 0 2654.08624735 0 3639
0.05850000 0.05849280 36496.36960640 0 532.59664448 0 8451.59799032 0 -1223.94949549 0 777.01672617 0 3846
0.05950000 0.05951020 36639.46309020 0 1324.55331954 0 10600.81041008 0 -3063.33585916 0 731.60000096 0 3787
0.06050000 0.06049470 35145.80542107 0 1328.20653102 0 8749.61012250 0 -2792.73967411 0 -1802.38214146 0 3930
0.06150000 0.06148310 34859.39364044 0 -162.83094242 0 10619.48113095 0 420.91740727 0 -1408.34113009 0 4083
0.06250000 0.06249100 35757.07200782 0 -1110.15251969 0 10143.91167982 0 2119.69447095 0 -3448.99134509 0 4303
0.06350000 0.06350600 36700.05019764 0 -1541.04825262 0 5457.36965185 0 4442.75479492 0 -2543.84918563 0 4470
0.06450000 0.06451750 37630.88848468 0 -288.17656279 0 7361.73821739 0 2691.95599966 0 -3141.49210369 0 4479
0.06550000 0.06550280 37108.08581918 0 663.11858451 0 4527.72287379 0 1896.39894417 0 -308.48167427 0 4636
0.06650000 0.06648880 36140.82782378 0 2164.44350151 0 6703.62059839 0 -759.57798063 0 1369.57212571 0 4653
0.06750000 0.06749660 34377.16972408 0 2430.82444253 0 7100.66286351 0 -877.85435575 0 3587.31879299 0 5220
0.06850000 0.06852730 32686.23863462 0 2237.48524996 0 7969.52020242 0 -1225.88288742 0 3748.79074074 0 5029
0.06950000 0.06949320 30035.91800527 0 2346.94670677 0 8869.07575847 0 734.94184642 0 4168.30306667 0 5040
0.07050000 0.07048030 29189.27219221 0 1473.34581326 0 9482.52303146 0 -40.32437321 0 3344.31840548 0 5475
0.07150000 0.07148790 28097.24297369 0 1114.92417592 0 9455.99509573 0 663.82786957 0 5107.04353117 0 5509
0.07250000 0.07249820 27726.52631258 0 159.81395177 0 10664.14023630 0 1538.72143791 0 5512.21278676 0 5916
0.07350000 0.07351270 27868.60813782 0 -359.79861705 0 9535.38781185 0 1672.78867918 0 6676.87909030 0 5721
0.07450000 0.07449140 28274.28322271 0 -106.32778821 0 10758.33688943 0 265.11074749 0 6486.41750432 0 6028
0.07550000 0.07549160 28599.70006137 0 -94.77082557 0 11620.80953871 0 630.14975591 0 9160.17489045 0 6183
0.07650000 0.07648840 28105.56105523 0 342.04400922 0 11483.67359980 0 1499.53652947 0 6842.95970485 0 6330
0.07750000 0.07749960 28285.52387344 0 466.48363314 0 11757.38344509 0 295.08956299 0 8792.87538716 0 6583
0.07850000 0.07848650 27101.32131893 0 253.43733171 0 10123.82463696 0 1239.01196747 0 5716.92751788 0 6549
0.07950000 0.07947320 27142.01247457 0 102.24529627 0 9919.15486845 0 1219.17221893 0 5380.35995369 0 6828
0.08050000 0.08048110 26817.49488797 0 525.83426900 0 7458.50897953 0 -783.46548749 0 1753.84501160 0 7147
0.08150000 0.08149960 25827.53077809 0 581.21021076 0 7815.60197196 0 -1379.08171623 0 1754.66557911 0 7386
0.08250000 0.08250610 25375.99383823 0 1045.26811147 0 7905.61710301 0 -1846.34432647 0 47.32167829 0 7227
0.08350000 0.08350160 24753.93622677 0 499.75595930 0 8820.32505624 0 -231.43375790 0 614.86471905 0 7798
0.08450000 0.08449610 23951.80339061 0 671.97059696 0 8697.80196328 0 154.83321943 0 -570.43941923 0 7371
0.08550000 0.08548940 23401.34872431 0 735.44430351 0 9048.10560266 0 993.76344983 0 -1133.01263108 0 8256
0.08650000 0.08650700 22874.94905058 0 413.95494821 0 7910.92269016 0 1417.96312711 0 -660.33989565 0 8037
0.08750000 0.08749060 22482.87515308 0 330.74153491 0 7469.68218636 0 1719.60598948 0 -658.42673689 0 8155
0.08850000 0.08849210 22088.66553195 0 -114.47703517 0 5423.41164599 0 1650.74576310 0 -1265.50618125 0 8718
0.08950000 0.08949900 21758.97724601 0 -99.70906824 0 5190.13442137 0 544.23409018 0 -1457.20423881 0 8571
0.09050000 0.09049190 21659.27267402 0 547.65911646 0 3664.41841635 0 83.77589546 0 -2484.52103107 0 8932
0.09150000 0.09150830 21057.89785992 0 553.29630280 0 3641.12778804 0 -195.12083571 0 -2224.12011624 0 9285
0.09250000 0.09250820 20728.99641953 0 610.10317940 0 3746.98099597 0 -33.26108551 0 -2540.93785709 0 9204
0.09350000 0.09350330 20318.15063531 0 573.19562679 0 4016.86902002 0 139.97869949 0 -873.31200879 0 9349
0.09450000 0.09448040 19664.50679530 0 335.69866189 0 3763.95437857 0 1108.77329184 0 -1774.84254717 0 9564
0.09550000 0.09549270 19449.58555333 0 524.94513353 0 4149.58738320 0 304.84195156 0 -220.40105921 0 10155
0.09650000 0.09649430 18910.48394427 0 725.39403769 0 3770.93482268 0 707.33593229 0 -128.31652435 0 9913
0.09750000 0.09749140 18341.81942379 0 905.53221004 0 4760.96637646 0 -250.01230543 0 1316.17903474 0 10476
0.09850000 0.09850240 17491.12697647 0 546.91610945 0 4026.10883492 0 -357.75394269 0 1723.12431316 0 10575
0.09950000 0.09950330 17141.31792572 0 264.57569252 0 4947.63986315 0 47.36990068 0 2074.94544039 0 10882
0.10050000 0.10051200 17220.56451337 0 -176.86264673 0 5006.72072339 0 204.15831890 0 1626.26362581 0 10875
0.10150000 0.10150300 17349.04515123 0 -94.54387683 0 4917.60484440 0 334.64878511 0 1290.76392344 0 11118
0.10250000 0.10250800 17410.41910422 0 123.31893104 0 4569.07722783 0 38.40829189 0 1245.14936277 0 11575
0.10350000 0.10349800 17088.82408680 0 310.95911369 0 5017.00591881 0 -174.93375107 0 840.88835175 0 11364
0.10450000 0.10450100 16821.74622544 0 614.35102131 0 5025.97595809 0 -249.09844052 0 -286.48147266 0 12093
0.10550000 0.10551000 16511.95389129 0 578.24155490 0 5698.50409133 0 -325.39098517 0 -86.56796069 0 12067
0.10650000 0.10649700 15906.19522340 0 527.12806790 0 5932.28714523 0 -317.60795860 0 460.35972662 0 12054
0.10750000 0.10749900 15992.52342101 0 333.76077370 0 6331.12791447 0 -145.11567687 0 809.03122352 0 12807
0.10850000 0.10850100 15659.12572033 0 189.97149361 0 6351.29364188 0 371.54397300 0 1567.60991029 0 12736
0.10950000 0.10950300 15784.90860201 0 -63.63051363 0 6072.64915091 0 1265.84340077 0 2182.97933456 0 12933
0.11050000 0.11050200 15468.48428393 0 217.98544337 0 5903.72465173 0 886.97277162 0 2153.42766379 0 13428
0.11150000 0.11150900 15487.93060970 0 294.77594883 0 5638.79375465 0 975.20963173 0 3757.59217026 0 13453
0.11250000 0.11250000 14939.16204101 0 391.85470481 0 4965.00666853 0 567.18300271 0 2612.52956160 0 13668
0.11350000 0.11349100 14903.07955216 0 229.20586093 0 4352.77338582 0 350.79710395 0 3246.26620916 0 13791
0.11450000 0.11448600 14381.51335824 0 -232.84783176 0 3991.22909570 0 595.21606157 0 2068.74060118 0 14205
0.11550000 0.11549300 14820.46076929 0 -384.98217095 0 3244.68127740 0 725.38616923 0 1852.76273804 0 14776
0.11650000 0.11649800 14931.06877248 0 -305.61306020 0 2674.91517315 0 648.05498846 0 1381.32984638 0 14553
0.11750000 0.11747300 15045.83581645 0 -159.94097112 0 3200.42683548 0 -22.18230015 0 969.36336928 0 14568
0.11850000 0.11849100 15271.88530265 0 282.11785205 0 3619.93916141 0 -614.51063855 0 1213.58561552 0 16015
0.11950000 0.11950300 14950.29028523 0 543.03471275 0 3965.42056163 0 -1525.74972697 0 600.39462936 0 15270
0.12050000 0.12050700 14870.93129107 0 508.92495811 0 4954.28308773 0 -1526.03074324 0 1202.07518917 0 15999
0.12150000 0.12150000 14775.94779240 0 286.63996584 0 5976.96873189 0 -1149.05303967 0 1194.64511904 0 15670
0.12250000 0.12250700 14605.53952731 0 231.10777903 0 6472.54654132 0 -207.30345298 0 1071.92194249 0 16887
0.12350000 0.12352200 14583.62025839 0 -135.75558701 0 6543.31767832 0 586.37416571 0 451.73702345 0 16407
0.12450000 0.12449800 14731.32240899 0 -48.68157222 0 5954.74596539 0 1151.95312756 0 673.06656041 0 16306
0.12550000 0.12549900 14622.51290992 0 141.68278214 0 5771.80437475 0 859.98059702 0 -145.74178112 0 17523
0.12650000 0.12650100 14236.95858984 0 492.63613113 0 4900.80007155 0 646.66901623 0 53.17850695 0 17154
0.12750000 0.12750600 13779.91373112 0 409.13720531 0 4895.67433482 0 612.31084320 0 -85.38139760 0 18007
0.12850000 0.12850300 13450.45025820 0 338.86178100 0 4442.55246320 0 156.45187313 0 221.31604818 0 17496
0.12950000 0.12949900 13251.37833375 0 54.91035401 0 4238.38852398 0 373.26042037 0 -135.56224782 0 18405
0.13050000 0.13049000 13180.67464065 0 96.73018339 0 4078.96237466 0 -38.57813812 0 -762.46570380 0 18100
0.13150000 0.13148800 12960.58269934 0 191.96108879 0 3863.67019121 0 -105.91491911 0 -772.83745223 0 19059
0.13250000 0.13249300 12827.49339469 0 353.84894062 0 3693.72279281 0 -65.11697728 0 -993.08339046 0 18957
0.13350000 0.13349100 12306.15201378 0 341.90462515 0 3246.01891484 0 263.42464988 0 -844.26953949 0 19468
0.13450000 0.13450700 12190.03609173 0 169.84286035 0 3366.60861588 0 530.52499255 0 -555.02511488 0 19953
0.13550000 0.13551000 12152.94194432 0 -168.83007772 0 2955.67290646 0 841.30088364 0 -672.43933209 0 19956
0.13650000 0.13649900 12283.78311883 0 -139.19072987 0 2834.50993223 0 591.71909513 0 -246.53107590 0 19723
0.13750000 0.13749600 12432.60933451 0 -56.26687574 0 2785.47821374 0 321.99518458 0 -411.27630114 0 20946
0.13850000 0.13851100 12305.58998125 0 157.99746261 0 2625.73732620 0 -51.37696786 0 620.76493662 0 20955
0.13950000 0.13949800 12260.96459784 0 223.79798386 0 3216.93935140 0 -291.29022304 0 686.50588242 0 20506
0.14050000 0.14048300 12104.83195919 0 168.67383267 0 2917.72446959 0 -84.34287388 0 901.00335186 0 21447
0.14150000 0.14148400 11991.86341934 0 83.10718915 0 3832.69095779 0 68.04224422 0 402.31750251 0 21771
0.14250000 0.14249400 12152.71713130 0 120.60543795 0 2980.06511855 0 -299.35314181 0 128.25470078 0 22470
0.14350000 0.14350900 12045.36891682 0 199.14386461 0 3583.39580588 0 -183.23834383 0 513.83487435 0 22519
0.14450000 0.14449900 11662.73716594 0 367.96157761 0 3526.96773921 0 -390.12027240 0 192.23536067 0 22218
0.14550000 0.14550500 11512.67447868 0 396.40492022 0 3714.60792186 0 104.96845631 0 810.15191640 0 23559
0.14650000 0.14650700 11087.18212656 0 354.05801672 0 3954.17991089 0 26.76781121 0 168.22420664 0 23044
0.14750000 0.14750500 10894.67474214 0 290.31453456 0 3893.40171239 0 491.49520508 0 970.21541061 0 23649
0.14850000 0.14849900 10682.59738480 0 178.09799425 0 4036.79869377 0 433.64632016 0 655.89534235 0 23640
0.14950000 0.14949500 10511.53716198 0 104.32751441 0 3710.79734127 0 334.75669535 0 1464.13972031 0 24457
0.15050000 0.15050000 10504.75904959 0 39.90386047 0 3729.91768816 0 49.86037926 0 1168.17338657 0 24591
0.15150000 0.15149900 10567.44815871 0 85.01944865 0 3501.39525880 0 -136.93585534 0 740.03835746 0 25020
0.15250000 0.15250500 10459.93133447 0 203.82109938 0 3700.35477674 0 -740.10917356 0 604.46262086 0 25297
0.15350000 0.15350100 10319.68173530 0 237.37556588 0 3738.10088189 0 -613.43603234 0 153.83055338 0 25452
0.15450000 0.15450400 10061.29289695 0 357.45831357 0 3986.33941264 0 -727.34878685 0 -459.40989164 0 26061
0.15550000 0.15549900 9764.85445587 0 233.06140413 0 3876.51825499 0 -47.67497195 0 -1072.61099438 0 26128
0.15650000 0.15649500 9660.67610489 0 148.33275111 0 3905.38424607 0 453.15334544 0 -1160.82200099 0 26331
0.15750000 0.15749700 9411.30226843 0 80.20316703 0 3303.76213765 0 614.47579253 0 -1532.04449138 0 27345
0.15850000 0.15849900 9390.58574913 0 32.75840361 0 2853.95625800 0 985.07217868 0 -1123.09837714 0 26980
0.15950000 0.15949700 9253.51725412 0 -13.70471378 0 2259.91034816 0 911.86631673 0 -1363.46845237 0 27777
0.16050000 0.16050000 9190.99675475 0 -8.22620046 0 1914.14793168 0 805.66464862 0 -348.25334469 0 28224
0.16150000 0.16150500 9232.21622098 0 4.25966708 0 1600.12911286 0 431.23295245 0 -616.55194073 0 28075
0.16250000 0.16249700 9285.77792171 0 -25.94061172 0 1667.95519937 0 160.53784967 0 -272.70155893 0 28590
0.16350000 0.16349900 9207.10460725 0 132.71611505 0 1580.73899035 0 -173.14985980 0 104.17149418 0 29163
0.16450000 0.16449100 9229.47350220 0 53.29810747 0 1956.59262884 0 -32.26179166 0 41.40920841 0 28996
0.16550000 0.16550500 9060.16682089 0 184.25337459 0 1920.72371236 0 -35.40231707 0 261.20237323 0 30777
0.16650000 0.16650700 9149.90093568 0 135.68364684 0 2269.11644111 0 -16.59715802 0 172.85198255 0 29211
0.16750000 0.16749900 8946.34399159 0 160.12756592 0 1961.44858996 0 -198.81451354 0 219.97054228 0 30922
0.16850000 0.16850800 8804.70055173 0 154.62863959 0 2247.21965349 0 -42.94411927 0 -4.19556164 0 30867
0.16950000 0.16949900 8804.85792084 0 105.99686345 0 2451.65336833 0 -389.01868863 0 179.34795461 0 30852
0.17050000 0.17049200 8720.95770378 0 87.70787508 0 2542.25301323 0 -142.44827045 0 118.31122114 0 31257
0.17150000 0.17149500 8746.27164923 0 93.18746750 0 2579.47080780 0 -156.60699411 0 33.02795442 0 32608
0.17250000 0.17250900 8626.51375634 0 77.33545222 0 2610.57368837 0 121.62384091 0 130.63771873 0 32361
0.17350000 0.17350400 8628.54831412 0 62.57850112 0 2205.21334171 0 284.51660691 0 -264.78926488 0 32508
0.17450000 0.17449800 8568.62440508 0 -6.75588962 0 2343.29349529 0 478.94839074 0 -50.73793686 0 32791
0.17550000 0.17549800 8604.02121423 0 -12.98328881 0 1654.94976647 0 269.72728275 0 -551.16395136 0 33633
0.17650000 0.17650100 8485.10637015 0 36.22996618 0 1831.86636833 0 173.17796142 0 -356.25331581 0 33984
0.17750000 0.17750300 8497.41488270 0 151.01364631 0 1526.12066845 0 -55.36829812 0 -539.24661345 0 34069
