### header ###
fiducial parameters:
Omega_m = 0.31
Omega_nu = 0
Omega_de = 0.69
Omega_k = 0
H_0 = 100
w_de = -1
zeff = 0
beta = 0
fgrowth = 0
b_1 = 2
gamma = 0.55
Lx = 3500 Ly = 3500 Lz = 3500
nx = 700 ny = 700 nz = 700
xoffset = 857.220397 yoffset = 15.9954215 zoffset = 262.898189
bins = 400 dk = 0.001
kx_ny = 0.628318531 ky_ny = 0.628318531 kz_ny = 0.628318531
############################
A(data) = 3.09369918 (not used)
A(ran) = 3.09024071 (used)
Ngal = 188759
weighted Ngal = 0
Nran = 9360983
weighted Nran = 0
SN(data) = 3451.99223
SN(ran) = 69.3951926
SN(data+ran) = 3521.38743
############################
13 columns: k_central k_mean P_0(k) sigma^{lin}_{P_0(k)} P^img_1(k) sigma^{lin}_{P_1(k)} P_2(k) sigma^{lin}_{P_2(k)} P^img_3(k) sigma^{lin}_{P_3(k)} P_4(k) sigma^{lin}_{P_4(k)} N_modes
### header ###
0.00050000 0 0 0 0 0 0 0 0 0 0 0 0
0.00150000 0.00179520 21840.92158984 0 -26956.87895703 0 -3890.70395622 0 29382.04935225 0 -12979.01736654 0 3
0.00250000 0.00253879 40948.22932841 0 -30629.19955085 0 -12953.38868287 0 -8631.49336461 0 -8920.23195994 0 6
0.00350000 0.00331552 58597.73707367 0 -23186.98951487 0 -17205.38963488 0 -2315.05698065 0 4729.97590240 0 7
0.00450000 0.00420575 76835.46807169 0 -16002.52760016 0 -20447.86774475 0 -14029.11895783 0 -4053.28872839 0 24
0.00550000 0.00557378 86247.48974176 0 -8068.39296625 0 -24579.48132743 0 -11250.65491014 0 14777.74629651 0 45
0.00650000 0.00659388 100746.80511967 0 -8709.27866767 0 -13727.19507919 0 -7629.42307390 0 2383.73735662 0 40
0.00750000 0.00754703 91696.28277710 0 -352.15947082 0 -24787.09614643 0 2209.66463940 0 9909.61155598 0 57
0.00850000 0.00846663 107773.56070463 0 -3763.39234604 0 -3902.65276794 0 -13952.90734587 0 1889.71075699 0 75
0.00950000 0.00948925 98365.02363628 0 4406.33508655 0 7979.18716204 0 -28280.80280013 0 4166.23478693 0 112
0.01050000 0.01054430 105418.75678299 0 148.11018623 0 -12642.80950317 0 -22005.03509051 0 -3537.08432487 0 105
0.01150000 0.01145670 103698.48759512 0 129.21465235 0 24241.47495995 0 -29637.09971733 0 -34409.88001771 0 144
0.01250000 0.01249090 105127.73633557 0 2666.51840706 0 19465.54727736 0 -33863.80920520 0 -25023.37462480 0 169
0.01350000 0.01339930 101881.77362398 0 7305.41131658 0 37208.68964322 0 -14719.96935175 0 -73680.77944404 0 180
0.01450000 0.01448870 93573.35904267 0 5083.37072073 0 33038.40822202 0 -35183.79882054 0 -45381.20475719 0 267
0.01550000 0.01550050 98511.15209578 0 7270.82383428 0 37462.39113022 0 -18041.80645578 0 -69416.41377622 0 238
0.01650000 0.01653350 85639.48294372 0 -1329.60037172 0 35514.27395203 0 -7574.04038775 0 -52607.36948611 0 315
0.01750000 0.01747870 88745.61196022 0 -265.29059790 0 35345.32697154 0 6706.37455782 0 -73295.89956301 0 297
0.01850000 0.01844180 86971.61246185 0 -1186.68673832 0 28557.32280811 0 11789.53170619 0 -54012.78804701 0 388
0.01950000 0.01947590 87742.60869549 0 -3042.76546832 0 33933.27642672 0 6251.61155120 0 -59449.32877305 0 399
0.02050000 0.02045430 86506.36192810 0 -1311.16570452 0 29849.66042265 0 5316.65918600 0 -34870.63429117 0 462
0.02150000 0.02154770 87917.28840785 0 761.04938181 0 28129.16642177 0 6480.78593830 0 -21441.76608238 0 571
0.02250000 0.02255340 88339.48724931 0 3301.86246767 0 26338.86797984 0 10912.01906622 0 592.73524996 0 510
0.02350000 0.02348930 88978.51824337 0 4246.45931120 0 32353.29055997 0 5001.69615252 0 7517.08401049 0 555
0.02450000 0.02439640 84610.85099533 0 6808.20361279 0 36345.52007359 0 7120.69370312 0 5506.44633294 0 592
0.02550000 0.02547300 82666.78045141 0 8304.87377632 0 44690.01714374 0 7208.65179509 0 22949.69937794 0 837
0.02650000 0.02652900 76898.64052880 0 3848.79881029 0 58341.33783050 0 1481.58521025 0 34515.99176061 0 723
0.02750000 0.02749970 77708.41700746 0 2590.80138373 0 54451.39823853 0 9684.28147143 0 38601.74348831 0 826
0.02850000 0.02848090 78531.68226700 0 -751.77472089 0 59430.66929284 0 14141.07583911 0 25813.25515166 0 831
0.02950000 0.02946900 77337.81275286 0 1303.84804089 0 54946.66130974 0 8821.90998800 0 35055.09336967 0 996
0.03050000 0.03053250 75692.51870536 0 2755.45443564 0 47117.66048211 0 4270.96392980 0 24868.70327074 0 1041
0.03150000 0.03150510 73775.42572319 0 4681.18023757 0 45106.82047284 0 2233.64094741 0 17773.94174886 0 1036
0.03250000 0.03246190 69049.51893636 0 3867.49201246 0 35826.53922934 0 6347.93268731 0 5076.82866200 0 1059
0.03350000 0.03345080 66994.61557623 0 3008.25667058 0 32193.56091308 0 2147.04297417 0 -7663.49348626 0 1302
0.03450000 0.03451200 61251.42989824 0 1949.05015220 0 27573.20383661 0 -1346.23653480 0 -9586.28547836 0 1339
0.03550000 0.03553350 60167.04432223 0 2658.53754504 0 26724.64711293 0 -3497.18001478 0 -17271.25984817 0 1365
0.03650000 0.03647120 58007.26569077 0 3937.72359822 0 26100.00415181 0 -304.94761368 0 -18769.30137109 0 1308
0.03750000 0.03744890 55427.31153500 0 2931.44930414 0 29604.83904973 0 544.31951913 0 -11554.37729289 0 1579
0.03850000 0.03847530 51193.07081114 0 3105.58946526 0 23674.04691105 0 4706.15696350 0 -14638.13741443 0 1662
0.03950000 0.03950240 50443.43181389 0 2258.74132049 0 28279.90354807 0 4229.75570422 0 -4826.81410844 0 1683
0.04050000 0.04050350 47633.94357018 0 1884.38268854 0 24662.66214284 0 7408.06093905 0 -6482.06737249 0 1822
0.04150000 0.04152450 47540.30894960 0 1276.45457506 0 22909.68266134 0 6223.55488697 0 5439.92416191 0 1887
0.04250000 0.04250150 45678.18274950 0 -186.83535206 0 20106.37677554 0 7142.43312163 0 -530.27320197 0 1920
0.04350000 0.04349210 45979.76940861 0 10.56406472 0 19986.21421922 0 5401.07647299 0 6614.77449502 0 2005
0.04450000 0.04448520 46425.79842962 0 125.48050818 0 17425.81879572 0 5015.25237730 0 4042.57638824 0 2151
0.04550000 0.04548030 46738.73814597 0 1407.44187803 0 15627.87671130 0 1435.84700242 0 8394.61913176 0 2274
0.04650000 0.04648670 44214.42521131 0 1756.00321654 0 17299.02425547 0 915.02493959 0 8484.94900104 0 2311
0.04750000 0.04749250 43528.97032973 0 1916.09256426 0 13033.42211608 0 182.44812608 0 7435.99395612 0 2568
0.04850000 0.04851840 41155.16970836 0 764.19114369 0 16407.86546552 0 654.60603971 0 2582.94416887 0 2493
0.04950000 0.04949480 40869.65717980 0 937.76252788 0 14219.53558121 0 470.73259912 0 -1376.42892266 0 2644
0.05050000 0.05050630 38467.97974461 0 1322.31643004 0 13294.87965208 0 -226.66434980 0 -4022.95021207 0 2829
0.05150000 0.05149060 39004.38359750 0 2859.77891507 0 15836.16596934 0 -3355.15439279 0 -5401.88579984 0 2784
0.05250000 0.05249300 35712.44662442 0 2502.25877792 0 13512.27383722 0 -141.38602896 0 -4267.36692156 0 3055
0.05350000 0.05348950 32800.21883303 0 2364.54956582 0 16095.60018821 0 1994.70967547 0 -1535.56281506 0 3009
0.05450000 0.05448610 31683.57258942 0 1461.55437065 0 14134.55626168 0 4421.74601870 0 947.73972947 0 3336
0.05550000 0.05550870 30451.37245628 0 269.85879836 0 12650.56555218 0 6490.67771095 0 2390.63911617 0 3349
0.05650000 0.05647670 30580.75234620 0 -582.42982137 0 12192.95866092 0 5554.30902375 0 2005.35457171 0 3324
0.05750000 0.05747970 31263.84669112 0 -1002.55251463 0 6652.55432212 0 2760.55769107 0 5672.05484016 0 3639
0.05850000 0.05849280 30716.08978100 0 -780.16073618 0 8427.52051645 0 910.58263442 0 2442.82945751 0 3846
0.05950000 0.05951020 32736.37193688 0 -245.58686124 0 5821.78030790 0 -1486.81211284 0 7108.23906211 0 3787
0.06050000 0.06049470 32041.69972170 0 -484.30118861 0 5755.29185882 0 1139.70081827 0 2774.68718904 0 3930
0.06150000 0.06148310 33032.56308364 0 -63.48753255 0 5583.44479045 0 -795.86055306 0 3604.39334145 0 4083
0.06250000 0.06249100 32559.33168787 0 70.14773051 0 7597.75816079 0 -636.60188943 0 2237.45152800 0 4303
0.06350000 0.06350600 32061.82048651 0 964.56023923 0 9495.18000418 0 -2453.15961553 0 3233.12588845 0 4470
0.06450000 0.06451750 32060.80882795 0 1278.99496212 0 15151.72274633 0 -2329.35508838 0 5005.99008109 0 4479
0.06550000 0.06550280 31553.40585395 0 1473.44697912 0 16370.20928557 0 -2825.97827833 0 8466.59301839 0 4636
0.06650000 0.06648880 31654.00967799 0 919.95733713 0 21110.50410534 0 -219.06679397 0 10952.57533406 0 4653
0.06750000 0.06749660 31067.80974237 0 609.32982263 0 20473.60883492 0 1265.67479101 0 10750.25486155 0 5220
0.06850000 0.06852730 30638.52929096 0 670.98479189 0 21528.65631253 0 2881.63074010 0 10020.23079983 0 5029
0.06950000 0.06949320 29550.99633273 0 833.06485885 0 17668.27963199 0 1446.06475394 0 7350.18282844 0 5040
0.07050000 0.07048030 28691.42377133 0 954.32562674 0 18317.98924424 0 2424.47347487 0 6261.32347343 0 5475
0.07150000 0.07148790 27352.77467578 0 354.30980730 0 13048.70940107 0 2856.60905157 0 2623.26438304 0 5509
0.07250000 0.07249820 26838.85212436 0 105.44224974 0 11837.97891084 0 2548.19931746 0 2349.53205644 0 5916
0.07350000 0.07351270 26974.75159170 0 -142.10543061 0 10168.27016995 0 600.01469537 0 -718.39336041 0 5721
0.07450000 0.07449140 26888.98542662 0 262.87498206 0 8989.50809040 0 405.77512667 0 511.96892632 0 6028
0.07550000 0.07549160 26815.47157084 0 560.40151813 0 9845.38247771 0 6.85588645 0 1537.08030291 0 6183
0.07650000 0.07648840 26679.12247747 0 564.29527954 0 10129.36627777 0 -664.98453253 0 3217.87232541 0 6330
0.07750000 0.07749960 26879.20606048 0 166.22561894 0 12104.04511364 0 939.81394664 0 4480.23112445 0 6583
0.07850000 0.07848650 26703.51468956 0 -178.02493002 0 10761.66412204 0 2339.38174883 0 4090.49528231 0 6549
0.07950000 0.07947320 26287.04857997 0 -428.99381482 0 10147.90211083 0 2546.13103773 0 5155.31088541 0 6828
0.08050000 0.08048110 26784.33496831 0 -261.67223243 0 8621.07328139 0 2266.75590446 0 3538.95027289 0 7147
0.08150000 0.08149960 26537.15305874 0 375.60184792 0 8250.57019264 0 1760.80297441 0 4707.58452614 0 7386
0.08250000 0.08250610 25357.44676452 0 885.89479322 0 6993.67434986 0 233.00295274 0 2207.57387836 0 7227
0.08350000 0.08350160 25115.77277380 0 1301.85844571 0 8285.30380340 0 -1251.57901499 0 4360.91161694 0 7798
0.08450000 0.08449610 23765.43340149 0 1140.82488334 0 8506.31747807 0 -941.58884539 0 5016.23031391 0 7371
0.08550000 0.08548940 23370.21212179 0 632.54851078 0 10309.08180166 0 -946.76628912 0 4831.80495737 0 8256
0.08650000 0.08650700 23142.92616401 0 480.71204884 0 10374.30005720 0 147.58187564 0 5223.39550688 0 8037
0.08750000 0.08749060 23224.30847530 0 116.42728808 0 11124.44488373 0 1135.67666530 0 5277.35063039 0 8155
0.08850000 0.08849210 22882.92991260 0 156.86328095 0 10056.53810169 0 1036.10585706 0 6035.40887504 0 8718
0.08950000 0.08949900 22782.66330808 0 350.82520557 0 9824.67719906 0 401.82853420 0 4091.76547584 0 8571
0.09050000 0.09049190 22289.42355400 0 696.63483279 0 9184.79191555 0 534.06916973 0 3550.77543746 0 8932
0.09150000 0.09150830 21635.44249448 0 811.31082749 0 9501.12630842 0 -925.35172541 0 3459.36646572 0 9285
0.09250000 0.09250820 21304.74254997 0 791.69701602 0 9820.73173065 0 -333.51123125 0 3217.60254979 0 9204
0.09350000 0.09350330 20281.16889441 0 674.31764483 0 10180.12905647 0 -720.75951739 0 3457.99510633 0 9349
0.09450000 0.09448040 20203.94562388 0 649.93217714 0 10846.82329198 0 -97.45363168 0 1359.10707988 0 9564
0.09550000 0.09549270 19636.40516848 0 430.04481567 0 11088.86822417 0 283.07105923 0 2817.42414312 0 10155
0.09650000 0.09649430 19142.94060139 0 171.80210577 0 10156.71478100 0 943.81449424 0 1205.84080717 0 9913
0.09750000 0.09749140 19121.13373897 0 -111.20229640 0 10427.11987499 0 1065.32705270 0 2827.02365884 0 10476
0.09850000 0.09850240 19067.51583498 0 -81.60341489 0 8603.48166299 0 2077.51954940 0 651.69808337 0 10575
0.09950000 0.09950330 18838.99340562 0 20.08029847 0 7537.09236879 0 2245.15137375 0 1895.21867585 0 10882
0.10050000 0.10051200 18483.78884252 0 152.09612098 0 6487.91251087 0 2069.50496543 0 1401.85527461 0 10875
0.10150000 0.10150300 18585.96635766 0 200.26792968 0 5657.56564137 0 1527.30093677 0 2007.26548233 0 11118
0.10250000 0.10250800 18107.11463652 0 353.38357768 0 5605.84740735 0 649.85349258 0 2228.16675050 0 11575
0.10350000 0.10349800 17765.62366732 0 570.32701272 0 5093.27373402 0 -402.42204056 0 2439.80572246 0 11364
0.10450000 0.10450100 17418.39996624 0 535.32362635 0 5433.95537638 0 -236.85624781 0 3376.39922267 0 12093
0.10550000 0.10551000 16817.58718467 0 496.25337254 0 6424.12181797 0 -435.07837906 0 3478.37440610 0 12067
0.10650000 0.10649700 16767.79110193 0 462.71913921 0 6248.58781615 0 -335.64695489 0 3797.13677953 0 12054
0.10750000 0.10749900 16290.62547840 0 352.02570707 0 6708.84750098 0 144.66380271 0 3742.68706739 0 12807
0.10850000 0.10850100 15972.29024969 0 221.40484932 0 6400.79746770 0 371.17752779 0 3359.49328397 0 12736
0.10950000 0.10950300 15872.47327120 0 17.60634365 0 6635.14255414 0 400.38860684 0 3128.38550494 0 12933
0.11050000 0.11050200 16257.57796525 0 -30.36976533 0 6477.81840651 0 277.38104183 0 2632.18945972 0 13428
0.11150000 0.11150900 16073.00648024 0 90.80917062 0 6391.45648694 0 -251.56463929 0 2395.31522687 0 13453
0.11250000 0.11250000 16091.77836696 0 131.87419031 0 6522.02788583 0 -308.32992549 0 1703.58806219 0 13668
0.11350000 0.11349100 16014.10547041 0 142.26279972 0 5741.97168771 0 -39.81663302 0 850.53957447 0 13791
0.11450000 0.11448600 15957.45259073 0 143.01142706 0 6028.34974638 0 -146.98724522 0 95.00361944 0 14205
0.11550000 0.11549300 15702.85185167 0 138.63544173 0 5000.39223703 0 461.89182732 0 -625.62539400 0 14776
0.11650000 0.11649800 15460.50342191 0 279.01206025 0 4790.83278545 0 631.01528602 0 -1403.05802424 0 14553
0.11750000 0.11747300 14974.00805828 0 215.73956135 0 3785.61511253 0 703.96935739 0 -992.35274816 0 14568
0.11850000 0.11849100 14825.96868815 0 254.17696652 0 3277.78499381 0 1133.09131564 0 -1450.43736707 0 16015
0.11950000 0.11950300 14498.30371934 0 175.61043824 0 2898.37930968 0 1110.58078848 0 -1259.00908512 0 15270
0.12050000 0.12050700 14404.89391177 0 155.99887491 0 2596.32054324 0 516.52588613 0 -1095.10915682 0 15999
0.12150000 0.12150000 14246.85036249 0 309.34158405 0 2763.39033506 0 223.45289588 0 -526.70204724 0 15670
0.12250000 0.12250700 13935.93396327 0 394.70083757 0 2809.08358028 0 -244.04014770 0 -199.05843566 0 16887
0.12350000 0.12352200 13638.05671890 0 357.48079487 0 3066.57316657 0 -175.34853108 0 -39.00539526 0 16407
0.12450000 0.12449800 13607.14492939 0 141.70301531 0 3818.29168421 0 -183.97797864 0 888.22048385 0 16306
0.12550000 0.12549900 13480.68760866 0 173.82879510 0 3774.12716749 0 -208.07456162 0 571.73321813 0 17523
0.12650000 0.12650100 13557.79847268 0 31.21899649 0 3615.54406697 0 79.47960634 0 1013.72234926 0 17154
0.12750000 0.12750600 13436.96147732 0 142.55056038 0 4551.76662571 0 -201.77080469 0 750.45394443 0 18007
0.12850000 0.12850300 13469.78417745 0 124.04395301 0 4042.87988581 0 -137.66649763 0 1118.35594659 0 17496
0.12950000 0.12949900 13535.09235820 0 178.91631362 0 4806.53597452 0 36.82234848 0 982.18220738 0 18405
0.13050000 0.13049000 13235.97864225 0 280.64307867 0 4248.78612590 0 -129.31581820 0 1029.15913491 0 18100
0.13150000 0.13148800 13147.73953401 0 297.88511283 0 4800.91564916 0 103.37217150 0 938.60557669 0 19059
0.13250000 0.13249300 12757.12692111 0 305.87384330 0 4683.12487015 0 -47.37383491 0 754.96032131 0 18957
0.13350000 0.13349100 12687.88451261 0 199.03145810 0 4684.18149132 0 346.03219210 0 958.33291872 0 19468
0.13450000 0.13450700 12347.18038895 0 153.29437434 0 4698.62572751 0 733.40300133 0 1213.15847079 0 19953
0.13550000 0.13551000 12346.61835641 0 158.22227562 0 4112.21221952 0 849.94157185 0 1296.24936100 0 19956
0.13650000 0.13649900 12128.32491922 0 51.09055608 0 4104.16391360 0 858.78796398 0 1751.21469933 0 19723
0.13750000 0.13749600 12119.44480514 0 86.67609575 0 3609.39543102 0 492.87780512 0 1734.43240779 0 20946
0.13850000 0.13851100 12016.48044444 0 7.29070855 0 3672.18570601 0 413.72114267 0 2413.24406479 0 20955
0.13950000 0.13949800 11961.17644285 0 130.30274734 0 3438.89724074 0 190.54364274 0 2488.71379379 0 20506
0.14050000 0.14048300 11856.75079756 0 212.56857378 0 3583.38456523 0 45.62400281 0 3225.31363620 0 21447
0.14150000 0.14148400 11733.66567205 0 334.56897649 0 3395.21607199 0 29.67700403 0 2512.02690341 0 21771
0.14250000 0.14249400 11272.01214653 0 349.24926634 0 3595.60315258 0 159.56440932 0 2824.48327178 0 22470
0.14350000 0.14350900 11000.06708340 0 367.64683939 0 3408.52500246 0 174.42679772 0 2355.91674606 0 22519
0.14450000 0.14449900 10679.47248390 0 147.42675466 0 3279.28000035 0 72.35831689 0 2277.47948526 0 22218
0.14550000 0.14550500 10651.93288961 0 138.75908888 0 3318.31878034 0 -37.90313705 0 1916.65459679 0 23559
0.14650000 0.14650700 10608.04938915 0 75.84224417 0 2964.46309533 0 -94.84849846 0 1179.18922428 0 23044
0.14750000 0.14750500 10459.84140926 0 21.21380569 0 3043.42866672 0 -195.68511638 0 1505.88749713 0 23649
0.14850000 0.14849900 10525.88023231 0 57.47187350 0 2896.53584296 0 -76.04356423 0 871.55734321 0 23640
0.14950000 0.14949500 10484.25610265 0 12.03199254 0 2877.29184891 0 310.96698215 0 1356.27443590 0 24457
0.15050000 0.15050000 10330.88866408 0 -47.57976363 0 2767.74046689 0 594.09874089 0 1006.85880793 0 24591
0.15150000 0.15149900 10574.75458169 0 75.56055347 0 2619.67861546 0 290.61241180 0 1162.01350997 0 25020
0.15250000 0.15250500 10325.83037125 0 176.05107175 0 2590.48664551 0 209.15816035 0 1180.62802758 0 25297
0.15350000 0.15350100 10084.74089437 0 276.27720993 0 2504.99025605 0 -123.24361868 0 1491.47698289 0 25452
0.15450000 0.15450400 10009.51845968 0 203.88179889 0 2688.96598657 0 -409.56210190 0 1531.52742145 0 26061
0.15550000 0.15549900 9907.36342584 0 234.59575295 0 2970.52180608 0 -228.13237878 0 1201.50191598 0 26128
0.15650000 0.15649500 9798.41903895 0 286.57926632 0 3230.27076317 0 -552.67694295 0 1147.13088840 0 26331
0.15750000 0.15749700 9584.44201164 0 221.15418281 0 3224.25701503 0 -373.56953826 0 368.05712315 0 27345
0.15850000 0.15849900 9551.96777167 0 145.76763461 0 3442.96635630 0 -127.72189393 0 1003.55967694 0 26980
0.15950000 0.15949700 9421.67738905 0 -18.51987133 0 3443.85436771 0 143.14069454 0 449.88119201 0 27777
0.16050000 0.16050000 9589.37665731 0 -47.92440199 0 3318.39746490 0 471.33959426 0 795.09731287 0 28224
0.16150000 0.16150500 9455.87144858 0 34.58085032 0 2998.09512232 0 594.77317993 0 407.05543679 0 28075
0.16250000 0.16249700 9459.60334462 0 124.09341187 0 2581.70769729 0 632.44509679 0 492.17976071 0 28590
0.16350000 0.16349900 9224.83111345 0 205.00136771 0 2378.31936296 0 511.48557834 0 572.46161230 0 29163
0.16450000 0.16449100 8951.63833808 0 123.71797414 0 1910.23618522 0 498.83759814 0 730.21178059 0 28996
0.16550000 0.16550500 8980.94271454 0 2.40022739 0 2082.83637720 0 260.57626899 0 626.44483743 0 30777
0.16650000 0.16650700 8909.95800517 0 -41.58995808 0 1666.12297330 0 143.29019519 0 660.15330085 0 29211
0.16750000 0.16749900 8875.03330335 0 4.09627298 0 2087.24271229 0 16.24689935 0 914.51686217 0 30922
0.16850000 0.16850800 8962.50804734 0 44.07571558 0 1890.57628710 0 -43.29673849 0 1040.69653882 0 30867
0.16950000 0.16949900 8850.20270589 0 86.78681616 0 2193.09592022 0 -16.70574271 0 1494.03985126 0 30852
0.17050000 0.17049200 8955.26906827 0 60.06407996 0 2125.49464672 0 52.20742713 0 1382.35274560 0 31257
0.17150000 0.17149500 8920.26568189 0 76.23240716 0 2066.86341251 0 248.42624961 0 1444.16508397 0 32608
0.17250000 0.17250900 8792.83042456 0 75.52390894 0 1924.20831408 0 151.11593623 0 1541.84633882 0 32361
0.17350000 0.17350400 8809.59023480 0 57.53032488 0 1541.92502337 0 120.20302266 0 992.11107417 0 32508
0.17450000 0.17449800 8642.01461370 0 89.95038491 0 1591.77730936 0 -119.12954051 0 926.07225112 0 32791
0.17550000 0.17549800 8603.02079631 0 75.30516588 0 1416.16462299 0 -146.52413041 0 595.74437216 0 33633
0.17650000 0.17650100 8560.25012028 0 162.28239867 0 1567.17152491 0 -301.98345408 0 668.22521214 0 33984
0.17750000 0.17750300 8493.75043056 0 167.65992598 0 2017.40454929 0 -190.55937965 0 632.16970085 0 34069
