### header ###
fiducial parameters:
Omega_m = 0.31
Omega_nu = 0
Omega_de = 0.69
Omega_k = 0
H_0 = 100
w_de = -1
zeff = 0
beta = 0
fgrowth = 0
b_1 = 2
gamma = 0.55
Lx = 3500 Ly = 3500 Lz = 3500
nx = 700 ny = 700 nz = 700
xoffset = 857.220397 yoffset = 15.9954215 zoffset = 262.898189
bins = 400 dk = 0.001
kx_ny = 0.628318531 ky_ny = 0.628318531 kz_ny = 0.628318531
############################
A(data) = 3.09062925 (not used)
A(ran) = 3.09216833 (used)
Ngal = 188637
weighted Ngal = 0
Nran = 9360983
weighted Nran = 0
SN(data) = 3441.75834
SN(ran) = 69.4384799
SN(data+ran) = 3511.19682
############################
13 columns: k_central k_mean P_0(k) sigma^{lin}_{P_0(k)} P^img_1(k) sigma^{lin}_{P_1(k)} P_2(k) sigma^{lin}_{P_2(k)} P^img_3(k) sigma^{lin}_{P_3(k)} P_4(k) sigma^{lin}_{P_4(k)} N_modes
### header ###
0.00050000 0 0 0 0 0 0 0 0 0 0 0 0
0.00150000 0.00179520 11378.34870245 0 -23959.33462660 0 -23938.76423576 0 35462.79177168 0 19347.63285120 0 3
0.00250000 0.00253879 20067.59653052 0 -22817.95895138 0 -9119.74226977 0 -23864.80075395 0 -11754.46087590 0 6
0.00350000 0.00331552 32983.66625296 0 -16766.10500432 0 -14830.57735495 0 -14070.48455252 0 2412.77195746 0 7
0.00450000 0.00420575 42279.45959448 0 -9991.96056324 0 -11256.27523551 0 -24730.21845373 0 1466.85995779 0 24
0.00550000 0.00557378 47025.37473961 0 -4864.98735833 0 -7640.34898641 0 -8456.48767338 0 25190.97272719 0 45
0.00650000 0.00659388 50075.30050245 0 -5584.93979699 0 4493.37144516 0 4550.01308419 0 12843.00549269 0 40
0.00750000 0.00754703 71237.51160115 0 -26715.65459235 0 55.17079989 0 31817.89836565 0 24612.86606010 0 57
0.00850000 0.00846663 81974.01914686 0 -19300.08489860 0 9147.70900878 0 5167.32714104 0 -5210.41255529 0 75
0.00950000 0.00948925 118757.47497292 0 -17468.64567500 0 -1708.23045094 0 4541.93105632 0 1074.16108011 0 112
0.01050000 0.01054430 113907.13418250 0 7421.33614757 0 24847.34603435 0 -34455.17984016 0 20583.31758605 0 105
0.01150000 0.01145670 113361.96262205 0 12316.49341245 0 15210.96097568 0 -20422.91350012 0 -1098.81519936 0 144
0.01250000 0.01249090 107047.97669994 0 15745.11669842 0 38218.77451791 0 -22500.29816172 0 16136.96578290 0 169
0.01350000 0.01339930 100684.08228859 0 12287.04290754 0 25576.75186028 0 -4499.74489412 0 -20258.91240596 0 180
0.01450000 0.01448870 91560.27090326 0 315.12489885 0 25826.29430651 0 22958.12986599 0 1084.97571018 0 267
0.01550000 0.01550050 84342.31184937 0 -7717.58349758 0 -4057.14427159 0 28334.08348459 0 -41981.58235011 0 238
0.01650000 0.01653350 92344.08147873 0 -8078.79056817 0 -7277.99536945 0 42106.69079274 0 -8340.15817897 0 315
0.01750000 0.01747870 87459.34429707 0 -1694.32576598 0 -26637.53206977 0 15596.85251528 0 -22311.00560341 0 297
0.01850000 0.01844180 86077.86832223 0 4945.05451348 0 -28587.33534556 0 7222.00568815 0 7926.09756864 0 388
0.01950000 0.01947590 79065.95039624 0 11026.26904025 0 -30793.08823851 0 -7910.42810152 0 12868.18455033 0 399
0.02050000 0.02045430 68358.21891641 0 11490.86761626 0 -18657.00727028 0 -14903.64158470 0 22789.29529201 0 462
0.02150000 0.02154770 59409.76168248 0 7526.35754735 0 -3247.72749375 0 -8827.48535076 0 33029.64051445 0 571
0.02250000 0.02255340 57774.47181413 0 2499.53854045 0 3896.02078401 0 -4579.26125739 0 23160.57398566 0 510
0.02350000 0.02348930 58750.72233012 0 -146.17454617 0 3319.58897388 0 6105.47185105 0 32068.56487695 0 555
0.02450000 0.02439640 58928.77423770 0 -2101.65322652 0 4345.32083438 0 5303.97973197 0 17311.50137778 0 592
0.02550000 0.02547300 61298.75303782 0 -663.49964257 0 -476.51254172 0 1316.59493882 0 25383.07544819 0 837
0.02650000 0.02652900 61918.33770611 0 2653.90639694 0 -1341.74027450 0 -5174.86961768 0 4810.62757139 0 723
0.02750000 0.02749970 60512.91914522 0 3714.72032837 0 1882.12331775 0 -7576.10866748 0 14747.39653954 0 826
0.02850000 0.02848090 54716.90240880 0 4586.91614054 0 2552.17850782 0 -12285.24440342 0 -5307.14959548 0 831
0.02950000 0.02946900 53266.97087101 0 2920.18617210 0 13987.86576965 0 -11608.22000989 0 -2793.51527902 0 996
0.03050000 0.03053250 51173.51207887 0 2357.94006319 0 19342.91177789 0 -10720.20860215 0 -11286.06295994 0 1041
0.03150000 0.03150510 52573.19790789 0 885.02027059 0 25080.13991099 0 -1199.06269478 0 -8878.01207580 0 1036
0.03250000 0.03246190 52260.82022408 0 568.42172243 0 27607.82504087 0 -2269.84708341 0 2740.08846609 0 1059
0.03350000 0.03345080 51888.64227837 0 996.53427023 0 31940.08423910 0 9802.06100979 0 250.40685227 0 1302
0.03450000 0.03451200 52766.42469396 0 -756.63630233 0 29007.96049592 0 10371.83835469 0 8203.80908560 0 1339
0.03550000 0.03553350 51147.54617568 0 58.92697573 0 27936.50166824 0 12844.91640332 0 6550.61286064 0 1365
0.03650000 0.03647120 50845.50989054 0 1993.46196324 0 25274.82798165 0 2514.03897989 0 8917.01713383 0 1308
0.03750000 0.03744890 49287.33088621 0 925.66421550 0 22406.10150859 0 3933.91301763 0 11124.55729024 0 1579
0.03850000 0.03847530 47867.29947936 0 1300.23979201 0 18986.69555622 0 -3355.51409361 0 2665.18076962 0 1662
0.03950000 0.03950240 48087.50382718 0 927.55264482 0 20538.57979615 0 -1540.26140706 0 -3140.99751506 0 1683
0.04050000 0.04050350 45907.04239838 0 1501.02029536 0 18980.28838531 0 -3359.99911325 0 -8585.09195840 0 1822
0.04150000 0.04152450 44030.19094583 0 2726.85822018 0 20059.05363596 0 -1102.58306549 0 -5336.34156543 0 1887
0.04250000 0.04250150 41399.65386176 0 3527.66465956 0 16507.12041148 0 694.72054997 0 -5354.98980499 0 1920
0.04350000 0.04349210 39169.84597626 0 2806.88041273 0 17882.97606095 0 5232.26438031 0 -329.87712887 0 2005
0.04450000 0.04448520 37393.71075425 0 1817.45585409 0 15811.77375726 0 5484.69567378 0 -2168.70370813 0 2151
0.04550000 0.04548030 35164.35249477 0 408.27954366 0 16291.52473045 0 5943.23553904 0 3016.82204644 0 2274
0.04650000 0.04648670 35353.64505308 0 524.55508295 0 10981.91343247 0 3544.68300476 0 -466.46002777 0 2311
0.04750000 0.04749250 34155.84131119 0 -286.20045639 0 10771.94931746 0 1615.02297508 0 1231.53693474 0 2568
0.04850000 0.04851840 34667.40332596 0 -851.37475482 0 7150.16668933 0 108.90189723 0 835.64121599 0 2493
0.04950000 0.04949480 35409.39868071 0 -1319.62991452 0 5993.53745107 0 726.36747804 0 -2289.86668236 0 2644
0.05050000 0.05050630 36388.79657890 0 -245.58236498 0 7164.94814504 0 1167.69003859 0 -2040.58277110 0 2829
0.05150000 0.05149060 36803.57659087 0 698.93691806 0 5172.37419321 0 181.88496948 0 -794.40488879 0 2784
0.05250000 0.05249300 36351.70243149 0 963.31589919 0 7340.42594361 0 384.57975565 0 5195.03534509 0 3055
0.05350000 0.05348950 35799.44926108 0 1044.21149031 0 9327.41329202 0 1151.02015355 0 5743.39925035 0 3009
0.05450000 0.05448610 35320.82235295 0 51.41338757 0 12087.40895056 0 172.82275686 0 8665.42888917 0 3336
0.05550000 0.05550870 35519.10743184 0 347.09330953 0 12395.62759360 0 1230.25550055 0 6964.72967422 0 3349
0.05650000 0.05647670 35625.44398776 0 -487.89482465 0 14352.84969888 0 -1729.49776212 0 3654.52664371 0 3324
0.05750000 0.05747970 35064.19829676 0 163.30867008 0 12246.35175189 0 -585.61879398 0 2566.35296839 0 3639
0.05850000 0.05849280 34893.90243819 0 252.41780468 0 12299.07040382 0 925.55967745 0 259.81415287 0 3846
0.05950000 0.05951020 34312.53598238 0 308.77505525 0 9785.69462232 0 1562.83263373 0 95.57172193 0 3787
0.06050000 0.06049470 33492.64291806 0 467.80778180 0 8101.45172005 0 2957.78614880 0 -3287.89033881 0 3930
0.06150000 0.06148310 32931.62204008 0 276.98986718 0 5008.77776248 0 3811.55853442 0 -1993.96779252 0 4083
0.06250000 0.06249100 32693.09543157 0 -21.73312375 0 3578.16890329 0 3198.13374273 0 -3069.70930813 0 4303
0.06350000 0.06350600 32527.74545931 0 142.44939452 0 2407.62373942 0 1863.17158061 0 -518.65598944 0 4470
0.06450000 0.06451750 32088.01120272 0 685.92923704 0 2601.68233364 0 -107.23074968 0 -1658.05218607 0 4479
0.06550000 0.06550280 31883.09413989 0 1433.89112920 0 3480.63377690 0 -2764.60432534 0 -359.02975654 0 4636
0.06650000 0.06648880 30232.29217354 0 1415.89484738 0 4357.08979570 0 -1302.34179369 0 -1019.17406487 0 4653
0.06750000 0.06749660 28865.20423163 0 1143.79241513 0 4746.87060044 0 -1616.96760765 0 -327.97296264 0 5220
0.06850000 0.06852730 28408.15937291 0 302.67475410 0 4381.16726956 0 899.78936158 0 -640.04602482 0 5029
0.06950000 0.06949320 28305.75704475 0 295.98094659 0 4432.84054097 0 965.81694398 0 -1159.09094078 0 5040
0.07050000 0.07048030 28196.04829362 0 159.24854704 0 3534.03810852 0 1220.15015555 0 -1268.38378783 0 5475
0.07150000 0.07148790 27805.77290024 0 454.85742809 0 3325.61396267 0 598.67368574 0 -1527.78428475 0 5509
0.07250000 0.07249820 27190.01005319 0 482.34306726 0 2563.64397157 0 935.85049319 0 -22.81728451 0 5916
0.07350000 0.07351270 26892.35762184 0 391.24995780 0 2854.68690029 0 849.01646630 0 -70.28599052 0 5721
0.07450000 0.07449140 26539.28878238 0 -92.82754187 0 1231.12103066 0 1618.42889225 0 209.70895223 0 6028
0.07550000 0.07549160 26579.86753152 0 157.64675431 0 1300.12738550 0 655.13435029 0 1392.78406947 0 6183
0.07650000 0.07648840 26529.28460323 0 189.24871977 0 1196.36493860 0 -156.83855152 0 -164.19780555 0 6330
0.07750000 0.07749960 25943.42188713 0 547.81985777 0 1824.24520713 0 -1041.85320178 0 1179.07681778 0 6583
0.07850000 0.07848650 25868.10952723 0 966.54196595 0 3073.50864807 0 -1931.82947528 0 241.25246631 0 6549
0.07950000 0.07947320 25114.87352175 0 995.69684175 0 4049.27581608 0 -3035.39160144 0 1117.25885908 0 6828
0.08050000 0.08048110 24483.93579622 0 923.54872503 0 6798.05330518 0 -1701.77831742 0 392.59771182 0 7147
0.08150000 0.08149960 23952.02820363 0 470.40437212 0 6636.46895093 0 -997.69205726 0 -148.17425794 0 7386
0.08250000 0.08250610 23753.06868569 0 152.00282357 0 7982.23337839 0 703.95811674 0 -268.23564839 0 7227
0.08350000 0.08350160 23738.56824624 0 178.82863654 0 7632.55921545 0 1259.36878595 0 -395.15833206 0 7798
0.08450000 0.08449610 23436.86918062 0 244.14693388 0 7105.84480350 0 1407.37443412 0 -147.46946914 0 7371
0.08550000 0.08548940 23283.88392418 0 787.11083053 0 6178.52484015 0 1616.52922227 0 -184.38376614 0 8256
0.08650000 0.08650700 22612.92948204 0 672.99911650 0 5474.11822144 0 817.77532572 0 2032.97285056 0 8037
0.08750000 0.08749060 22001.77530180 0 593.68058868 0 5636.24212693 0 311.40311940 0 1131.31529282 0 8155
0.08850000 0.08849210 22008.51969224 0 -81.13715270 0 6006.80141893 0 471.28563913 0 3355.15439279 0 8718
0.08950000 0.08949900 21935.56786899 0 -299.38798783 0 5451.49079152 0 -48.80150996 0 3009.95400884 0 8571
0.09050000 0.09049190 22093.38660526 0 -33.71644427 0 5338.43232646 0 -458.20152168 0 3216.90562945 0 8932
0.09150000 0.09150830 22353.49526317 0 427.75284698 0 6640.06595916 0 -371.39559641 0 2426.59795785 0 9285
0.09250000 0.09250820 21246.29116617 0 866.54064079 0 6137.79996255 0 -1007.85248145 0 2437.16416954 0 9204
0.09350000 0.09350330 20817.46034078 0 1154.81949350 0 7268.94664561 0 -139.57178793 0 2826.69767997 0 9349
0.09450000 0.09448040 19825.13569425 0 966.45990920 0 6978.88165349 0 -65.77961364 0 2367.04499028 0 9564
0.09550000 0.09549270 19235.45115690 0 700.52409795 0 7345.05709171 0 1082.68374150 0 3160.16282456 0 10155
0.09650000 0.09649430 18610.47097626 0 542.32205549 0 7257.64979162 0 702.93184533 0 2493.58099556 0 9913
0.09750000 0.09749140 18311.69447983 0 258.13367558 0 6972.76673950 0 892.96516253 0 3746.20539107 0 10476
0.09850000 0.09850240 18060.69074901 0 268.92807248 0 6701.79961297 0 510.57396157 0 2792.96448713 0 10575
0.09950000 0.09950330 17723.47122708 0 130.18809270 0 6579.61373953 0 782.61569430 0 3875.31550537 0 10882
0.10050000 0.10051200 17715.71517807 0 122.94124517 0 5990.70480708 0 619.01476730 0 3133.48876037 0 10875
0.10150000 0.10150300 17489.21606584 0 15.54649440 0 5688.42122762 0 487.67450790 0 2642.73319011 0 11118
0.10250000 0.10250800 17414.57814499 0 46.92207316 0 4705.04413907 0 197.85006571 0 2009.68222224 0 11575
0.10350000 0.10349800 17284.29900302 0 223.82383736 0 4830.08513781 0 -252.21210078 0 907.97480345 0 11364
0.10450000 0.10450100 17041.16372770 0 268.23227620 0 4897.64144870 0 140.33952438 0 1856.46091213 0 12093
0.10550000 0.10551000 17006.43011695 0 263.98893055 0 4905.13896274 0 -155.16369456 0 1498.58107415 0 12067
0.10650000 0.10649700 16615.81750404 0 214.42440521 0 4400.31009776 0 217.52907295 0 2284.83087083 0 12054
0.10750000 0.10749900 16977.31683155 0 108.96540690 0 4710.67570509 0 367.65021159 0 2091.06453353 0 12807
0.10850000 0.10850100 16553.99392502 0 114.57145664 0 4417.44084947 0 531.32869908 0 1568.11573958 0 12736
0.10950000 0.10950300 16474.07289833 0 199.14611274 0 4142.73058626 0 389.98088833 0 1608.89682043 0 12933
0.11050000 0.11050200 16078.40199260 0 186.52960636 0 4407.86381505 0 -280.82292908 0 566.20731423 0 13428
0.11150000 0.11150900 16284.21830748 0 273.70534904 0 4403.71601493 0 -681.19017869 0 798.12442011 0 13453
0.11250000 0.11250000 15796.03684623 0 331.72171966 0 5297.61752366 0 -637.00542880 0 169.92042084 0 13668
0.11350000 0.11349100 15662.94754158 0 351.74693893 0 5237.14282273 0 -587.49823078 0 237.83306036 0 13791
0.11450000 0.11448600 15543.00979828 0 348.16341948 0 5978.16024087 0 -158.00757920 0 73.04208567 0 14205
0.11550000 0.11549300 15246.81865152 0 331.41035363 0 5939.32379259 0 348.42645071 0 -191.17424324 0 14776
0.11650000 0.11649800 14967.03885482 0 232.94674949 0 5637.07393508 0 922.50671671 0 144.45585067 0 14553
0.11750000 0.11747300 14784.37828044 0 167.32045833 0 5725.57157829 0 916.66157833 0 361.00136668 0 14568
0.11850000 0.11849100 14515.38950845 0 178.04403912 0 4754.91890637 0 613.54281852 0 280.04732418 0 16015
0.11950000 0.11950300 14311.70891721 0 46.22088137 0 4562.53516911 0 854.59632532 0 10.13177178 0 15270
0.12050000 0.12050700 14410.28942412 0 71.23492625 0 3943.46757075 0 277.14498816 0 646.70273818 0 15999
0.12150000 0.12150000 14222.12093088 0 127.21269245 0 3810.71548561 0 -20.95358462 0 -244.81912479 0 15670
0.12250000 0.12250700 14229.98938639 0 66.02465982 0 3529.01353765 0 -109.98369745 0 468.33609238 0 16887
0.12350000 0.12352200 14084.31055292 0 133.10728970 0 3945.11994641 0 -195.35576531 0 -318.71853489 0 16407
0.12450000 0.12449800 14421.64248135 0 -27.01465590 0 3484.05093472 0 -87.15078843 0 138.66241929 0 16306
0.12550000 0.12549900 14169.85190498 0 -67.47830078 0 3911.11697794 0 124.42163888 0 -358.49694970 0 17523
0.12650000 0.12650100 14319.35255970 0 -34.11099111 0 3712.95554621 0 -258.04262631 0 -403.10434806 0 17154
0.12750000 0.12750600 14345.76808892 0 123.70560942 0 3904.94586069 0 291.65666826 0 127.46448303 0 18007
0.12850000 0.12850300 14165.35564469 0 322.01991401 0 4029.51475209 0 372.42074376 0 212.55058874 0 17496
0.12950000 0.12949900 13951.44606128 0 338.18509383 0 3930.15864028 0 575.52581369 0 664.25838649 0 18405
0.13050000 0.13049000 13578.03164399 0 442.08467666 0 3969.68076825 0 782.32456145 0 966.84546352 0 18100
0.13150000 0.13148800 13212.26086921 0 401.12599353 0 3739.31487217 0 576.54421664 0 1872.55752397 0 19059
0.13250000 0.13249300 12755.55323001 0 343.46482748 0 3491.14378533 0 708.41278663 0 1462.04895928 0 18957
0.13350000 0.13349100 12701.37329348 0 177.74166562 0 2691.58505819 0 418.67602152 0 2356.82723877 0 19468
0.13450000 0.13450700 12322.00133131 0 13.75181210 0 2911.74444340 0 324.13203228 0 1843.01709385 0 19953
0.13550000 0.13551000 12537.25979281 0 45.29802394 0 2597.18607335 0 -154.85907293 0 2169.17581546 0 19956
0.13650000 0.13649900 12389.78245522 0 48.29062239 0 2990.78869934 0 -212.97211314 0 1119.84196062 0 19723
0.13750000 0.13749600 12314.80731484 0 221.60830510 0 2723.68835667 0 -614.17004684 0 314.83713819 0 20946
0.13850000 0.13851100 12096.62628416 0 324.81096759 0 2907.40555222 0 -291.82302989 0 512.97833676 0 20955
0.13950000 0.13949800 11802.68326754 0 252.02775410 0 2840.08529499 0 -83.18295113 0 -175.98250378 0 20506
0.14050000 0.14048300 11558.87355319 0 179.16585607 0 2932.32607489 0 504.25446773 0 -72.40923703 0 21447
0.14150000 0.14148400 11448.37795650 0 88.62870919 0 2349.30724343 0 647.73575398 0 -517.03396354 0 21771
0.14250000 0.14249400 11163.04527834 0 124.01247919 0 2098.22482805 0 627.86453162 0 -751.76910056 0 22470
0.14350000 0.14350900 11237.48086748 0 73.88918111 0 1663.51514233 0 236.34592227 0 -359.47938257 0 22519
0.14450000 0.14449900 10992.49088480 0 93.91046616 0 1826.98792591 0 33.58324256 0 -31.02756821 0 22218
0.14550000 0.14550500 11177.77053080 0 33.52535321 0 1876.39058587 0 -107.40127035 0 185.00987038 0 23559
0.14650000 0.14650700 10977.23732176 0 133.32535832 0 2138.32022921 0 -378.03207660 0 9.51264798 0 23044
0.14750000 0.14750500 11181.30009513 0 95.63747974 0 2378.42052882 0 -380.56459521 0 611.26546269 0 23649
0.14850000 0.14849900 10931.27430092 0 203.71880946 0 2407.03922558 0 -126.92155960 0 315.55541578 0 23640
0.14950000 0.14949500 10904.57775544 0 229.64087411 0 2604.69482804 0 158.99675646 0 490.75557026 0 24457
0.15050000 0.15050000 10704.22439681 0 199.09890201 0 2403.93680598 0 123.25710746 0 221.06875386 0 24591
0.15150000 0.15149900 10524.58755747 0 225.83816197 0 2470.21168269 0 9.45905255 0 251.61297409 0 25020
0.15250000 0.15250500 10268.17707365 0 240.87815264 0 2435.57923779 0 -279.88321068 0 25.01573098 0 25297
0.15350000 0.15350100 10218.85309824 0 262.39837847 0 2793.49279771 0 -597.61594050 0 343.14222080 0 25452
0.15450000 0.15450400 9989.65622984 0 226.60927061 0 3125.83387723 0 -430.30672283 0 155.93480320 0 26061
0.15550000 0.15549900 10050.92901697 0 115.11887633 0 3536.52229233 0 -317.08302021 0 259.67814099 0 26128
0.15650000 0.15649500 9984.81150937 0 51.25523161 0 3607.67561146 0 103.74019041 0 84.57386925 0 26331
0.15750000 0.15749700 9868.79675318 0 -11.50177105 0 3437.24486508 0 564.94049289 0 -73.90390636 0 27345
0.15850000 0.15849900 9990.65664775 0 -77.77417481 0 3103.50994487 0 734.81033081 0 139.66958159 0 26980
0.15950000 0.15949700 9906.47541443 0 45.96526897 0 2635.24691672 0 835.37144038 0 105.69718770 0 27777
0.16050000 0.16050000 9808.50190266 0 139.03560889 0 2265.60935808 0 538.87792011 0 56.42368282 0 28224
0.16150000 0.16150500 9576.14641140 0 194.27216658 0 1949.29744651 0 191.59913984 0 58.51197091 0 28075
0.16250000 0.16249700 9394.71106795 0 233.16032185 0 1827.47127389 0 31.94986361 0 -0.07291664 0 28590
0.16350000 0.16349900 9260.11551609 0 161.53152320 0 2117.03043672 0 -321.10604911 0 540.16160242 0 29163
0.16450000 0.16449100 9191.31149297 0 65.17261850 0 2211.78912238 0 -157.58380666 0 350.41379776 0 28996
0.16550000 0.16550500 9182.26276913 0 34.17000453 0 2257.88703103 0 76.28894763 0 532.58990009 0 30777
0.16650000 0.16650700 9118.23602257 0 56.22719624 0 2267.20553049 0 193.21891761 0 481.05376462 0 29211
0.16750000 0.16749900 8993.98186939 0 125.77950948 0 2428.34025872 0 309.28200860 0 783.06307220 0 30922
0.16850000 0.16850800 8906.20362783 0 220.21671254 0 2067.86383043 0 138.54439245 0 296.12595099 0 30867
0.16950000 0.16949900 8831.26220941 0 168.06121721 0 2112.10703170 0 15.15194756 0 745.53840786 0 30852
0.17050000 0.17049200 8522.50401513 0 181.19366946 0 1723.03438795 0 -19.75139703 0 9.77775872 0 31257
0.17150000 0.17149500 8472.34823157 0 106.83968744 0 1704.08265082 0 -9.46570702 0 124.22380342 0 32608
0.17250000 0.17250900 8315.90085469 0 103.31315809 0 1818.17525574 0 -169.22687269 0 -281.84245610 0 32361
0.17350000 0.17350400 8255.35870985 0 122.87267721 0 1774.15686748 0 35.30182565 0 -551.39775689 0 32508
0.17450000 0.17449800 8268.94865659 0 123.97875724 0 1861.27191064 0 -154.73767390 0 -432.46942403 0 32791
0.17550000 0.17549800 8112.98462770 0 148.78574934 0 1788.93832319 0 -67.20020708 0 -615.95955843 0 33633
0.17650000 0.17650100 8161.83649577 0 82.60203430 0 1996.37329178 0 54.80581596 0 -106.49662278 0 33984
0.17750000 0.17750300 8103.87970060 0 71.59743724 0 2069.71853780 0 102.86735388 0 -122.09594824 0 34069
0.17850000 0.17849800 8125.14701179 0 -40.14823222 0 1730.67803045 0 230.53000958 0 8.73312009 0 34536
