### header ###
fiducial parameters:
Omega_m = 0.31
Omega_nu = 0
Omega_de = 0.69
Omega_k = 0
H_0 = 100
w_de = -1
zeff = 0
beta = 0
fgrowth = 0
b_1 = 2
gamma = 0.55
Lx = 3500 Ly = 3500 Lz = 3500
nx = 700 ny = 700 nz = 700
xoffset = 857.220397 yoffset = 15.9954215 zoffset = 262.898189
bins = 400 dk = 0.001
kx_ny = 0.628318531 ky_ny = 0.628318531 kz_ny = 0.628318531
############################
A(data) = 3.06900062 (not used)
A(ran) = 3.06357818 (used)
Ngal = 187672
weighted Ngal = 0
Nran = 9360983
weighted Nran = 0
SN(data) = 3462.35994
SN(ran) = 68.7964525
SN(data+ran) = 3531.15639
############################
13 columns: k_central k_mean P_0(k) sigma^{lin}_{P_0(k)} P^img_1(k) sigma^{lin}_{P_1(k)} P_2(k) sigma^{lin}_{P_2(k)} P^img_3(k) sigma^{lin}_{P_3(k)} P_4(k) sigma^{lin}_{P_4(k)} N_modes
### header ###
0.00050000 0 0 0 0 0 0 0 0 0 0 0 0
0.00150000 0.00179520 9388.09032467 0 -11265.82978863 0 467.97301936 0 15238.38816347 0 15656.87759018 0 3
0.00250000 0.00253879 17454.81967460 0 -13250.25426868 0 -5184.89627813 0 -8082.87092439 0 -21479.98429487 0 6
0.00350000 0.00331552 27673.47044113 0 -15384.40421646 0 -5318.06426734 0 -5540.86520548 0 25115.54796079 0 7
0.00450000 0.00420575 35613.86611751 0 -10290.11882388 0 -8862.29764607 0 -5365.94943945 0 -1419.94148164 0 24
0.00550000 0.00557378 44490.94521929 0 -2339.12321387 0 -3388.15694334 0 -15507.37693546 0 6436.77879069 0 45
0.00650000 0.00659388 35485.04826013 0 3439.87517735 0 -12064.47802307 0 -2376.35224909 0 -10373.44576775 0 40
0.00750000 0.00754703 40021.10045611 0 1687.07554626 0 2877.04455460 0 -9104.30885631 0 11657.34165359 0 57
0.00850000 0.00846663 40614.60681471 0 -7358.18617176 0 -16798.59048493 0 6670.22462507 0 9906.53161768 0 75
0.00950000 0.00948925 50141.17071573 0 -15852.12769338 0 -17493.03788709 0 18451.30336191 0 24073.31482501 0 112
0.01050000 0.01054430 67057.67562683 0 -22143.85712704 0 -34048.83031623 0 19635.39350991 0 9749.38732046 0 105
0.01150000 0.01145670 79309.76011060 0 -18133.41775923 0 -39796.28744149 0 10495.81149160 0 17659.73673743 0 144
0.01250000 0.01249090 93529.07087879 0 -7083.65575896 0 -34671.44996022 0 -5967.78512024 0 9691.07082447 0 169
0.01350000 0.01339930 90869.19569632 0 3257.83283876 0 -37126.85770590 0 -17788.89181433 0 18702.08227972 0 180
0.01450000 0.01448870 88730.32467522 0 6587.76321131 0 -24204.15599952 0 -17776.41469202 0 15404.52498127 0 267
0.01550000 0.01550050 77677.84243747 0 5157.12063017 0 12740.82797755 0 -19849.07828031 0 -11359.23959620 0 238
0.01650000 0.01653350 79795.91825471 0 2159.23908022 0 -10415.90170556 0 -7278.41127352 0 -5098.51187726 0 315
0.01750000 0.01747870 68279.42195478 0 3900.66317276 0 13616.02504346 0 -7533.98994919 0 -19642.92474590 0 297
0.01850000 0.01844180 73438.65582729 0 6505.18939104 0 -8172.07672859 0 -12461.72261990 0 -17210.33552121 0 388
0.01950000 0.01947590 63839.36491604 0 7545.17439667 0 9529.77872713 0 -9027.41156466 0 -19954.17836464 0 399
0.02050000 0.02045430 60106.56962129 0 5231.07287133 0 1531.98828813 0 -9346.74721128 0 -11875.97231031 0 462
0.02150000 0.02154770 56428.74110862 0 1706.30829966 0 6794.72607257 0 -553.37611142 0 -5949.50782215 0 571
0.02250000 0.02255340 56982.79278315 0 -549.94096856 0 4270.60422897 0 8733.14256918 0 -4741.36268159 0 510
0.02350000 0.02348930 57513.91353019 0 -875.50505974 0 9896.25766291 0 4860.22132242 0 675.56985332 0 555
0.02450000 0.02439640 55731.82076330 0 1786.01575400 0 1534.44999064 0 3730.80569957 0 -3389.32597101 0 592
0.02550000 0.02547300 53350.48890594 0 3332.72929458 0 12928.88406428 0 1215.56397005 0 9233.18291694 0 837
0.02650000 0.02652900 48995.29878021 0 3771.94648124 0 7518.90499591 0 -6790.81432611 0 2840.69229013 0 723
0.02750000 0.02749970 47466.57028080 0 1862.69947328 0 20126.72235336 0 -5219.21398481 0 12689.79542323 0 826
0.02850000 0.02848090 47191.84877693 0 -363.11798121 0 17127.15470580 0 -4961.74687982 0 4708.62990666 0 831
0.02950000 0.02946900 50462.42851362 0 -1313.53748182 0 22162.96623328 0 -3844.17890284 0 7499.98698073 0 996
0.03050000 0.03053250 53697.03816797 0 -1518.73556091 0 24061.17492222 0 1342.33602899 0 8658.26859466 0 1041
0.03150000 0.03150510 56053.64059373 0 -2073.48415579 0 29670.93407603 0 -2277.58065111 0 8703.61337970 0 1036
0.03250000 0.03246190 56363.43292787 0 -818.74764201 0 33866.73177439 0 4368.44285293 0 15164.31227515 0 1059
0.03350000 0.03345080 61754.78623798 0 -199.21355665 0 33205.78151141 0 3339.17018745 0 14911.84725973 0 1302
0.03450000 0.03451200 59817.68489751 0 1308.74896461 0 29638.67340843 0 5517.57457716 0 14614.08242187 0 1339
0.03550000 0.03553350 58522.08749425 0 2957.53885448 0 36626.98596789 0 7397.96683470 0 17542.60915681 0 1365
0.03650000 0.03647120 55335.25060551 0 3606.58526834 0 23754.41756377 0 9969.31065201 0 11453.99828187 0 1308
0.03750000 0.03744890 50932.51252719 0 3127.56493744 0 21542.70712594 0 7811.08323036 0 8301.09691768 0 1579
0.03850000 0.03847530 48006.34632890 0 2333.76142347 0 12699.01275683 0 4687.71105565 0 4587.97276171 0 1662
0.03950000 0.03950240 44444.40892527 0 1586.06705879 0 10212.06374520 0 2524.99861435 0 -4522.43976795 0 1683
0.04050000 0.04050350 42922.64962930 0 1321.60826905 0 3971.65912278 0 -1638.42600990 0 -10041.94773704 0 1822
0.04150000 0.04152450 42114.10962222 0 1232.67224046 0 3665.53124077 0 -3801.18341379 0 -10363.99238048 0 1887
0.04250000 0.04250150 40152.39125665 0 790.43806314 0 3657.48293485 0 -1962.46024852 0 -13430.66671291 0 1920
0.04350000 0.04349210 38570.49447928 0 -19.00018434 0 1301.85844571 0 -739.64718282 0 -12165.08184711 0 2005
0.04450000 0.04448520 39880.47991547 0 -1053.13993918 0 3449.63206218 0 3774.00352033 0 -14451.87983182 0 2151
0.04550000 0.04548030 39524.93813285 0 213.99726049 0 2257.06646353 0 74.86981548 0 -9441.41597174 0 2274
0.04650000 0.04648670 40349.66467698 0 1127.85317240 0 6203.56900997 0 599.36386169 0 -8009.44699381 0 2311
0.04750000 0.04749250 37679.22328282 0 3178.69865761 0 5279.03672800 0 -3699.77026290 0 -5546.24947718 0 2568
0.04850000 0.04851840 35492.80430913 0 2441.71663309 0 8328.91752824 0 -1378.11502027 0 97.24478038 0 2493
0.04950000 0.04949480 34284.99638809 0 1515.07110878 0 7079.20446127 0 1530.95414826 0 311.78417746 0 2644
0.05050000 0.05050630 33945.64114252 0 -193.65393079 0 7721.27043102 0 4261.66791164 0 2494.28915656 0 2829
0.05150000 0.05149060 34088.50981331 0 -539.65914533 0 6945.51940212 0 3067.28132757 0 -185.25379250 0 2784
0.05250000 0.05249300 34407.51948106 0 -904.14061748 0 4445.46379174 0 2699.91438038 0 2716.47185890 0 3055
0.05350000 0.05348950 34124.03026962 0 919.51333142 0 4299.18920378 0 -390.51594331 0 1988.14513544 0 3009
0.05450000 0.05448610 34265.43765582 0 1290.03328114 0 5121.53272996 0 -2158.14873710 0 4356.26922819 0 3336
0.05550000 0.05550870 32095.09281268 0 1124.11003570 0 7321.35055931 0 -2176.32486933 0 2268.00361669 0 3349
0.05650000 0.05647670 32708.94474910 0 996.85125658 0 8519.90742481 0 -1988.56103952 0 4231.26195141 0 3324
0.05750000 0.05747970 31856.45379766 0 25.80291375 0 10011.72162722 0 -1599.24110145 0 2419.32525683 0 3639
0.05850000 0.05849280 33073.47905230 0 -2.63802336 0 12880.99889216 0 -814.69763555 0 2878.56204245 0 3846
0.05950000 0.05951020 33522.76786202 0 33.16228019 0 12874.25450173 0 -1088.15344214 0 4136.42458120 0 3787
0.06050000 0.06049470 33393.50037861 0 412.57122410 0 14312.27094974 0 -855.98004943 0 3951.79689294 0 3930
0.06150000 0.06148310 34600.40904760 0 -156.57214810 0 17882.86365444 0 -1075.53805983 0 6577.82647606 0 4083
0.06250000 0.06249100 35539.11579015 0 -172.98237410 0 17923.89202961 0 1458.83413317 0 5761.73275169 0 4303
0.06350000 0.06350600 35652.64636253 0 -184.22752109 0 17485.84387062 0 2615.44089013 0 8208.37278980 0 4470
0.06450000 0.06451750 35450.98908841 0 -55.08458409 0 17121.42197392 0 2641.38431202 0 5394.23091669 0 4479
0.06550000 0.06550280 35238.65319611 0 823.04719091 0 16196.09160575 0 3463.71659755 0 6615.93228204 0 4636
0.06650000 0.06648880 33695.19944423 0 1860.13660492 0 13686.61633005 0 3755.36652142 0 4238.73698415 0 4653
0.06750000 0.06749660 31007.78466747 0 1542.21728029 0 11774.13201468 0 2841.54657959 0 4601.65263365 0 5220
0.06850000 0.06852730 29196.12898915 0 1315.14489488 0 9216.67040102 0 2949.80528678 0 3537.38782244 0 5029
0.06950000 0.06949320 28142.31798312 0 821.97708096 0 8555.55152828 0 1277.32010517 0 621.71139941 0 5040
0.07050000 0.07048030 27006.11300724 0 776.83912389 0 7372.38311363 0 -579.39147347 0 2761.69299680 0 5475
0.07150000 0.07148790 26856.16272648 0 590.66921835 0 7257.50366316 0 -1101.36120675 0 406.59569418 0 5509
0.07250000 0.07249820 25888.56751156 0 654.22835385 0 8132.17241849 0 -1923.34278398 0 1499.81754573 0 5916
0.07350000 0.07351270 26491.62842328 0 -4.59846029 0 8848.79762455 0 -782.21665120 0 73.86669981 0 5721
0.07450000 0.07449140 25531.22722482 0 151.11256404 0 8471.62882992 0 1085.59394597 0 -669.04015931 0 6028
0.07550000 0.07549160 26002.88492949 0 509.94560919 0 8011.15557272 0 1044.79038382 0 -808.20953195 0 6183
0.07650000 0.07648840 25220.53563862 0 572.52006368 0 7038.07492024 0 1129.59547326 0 -2262.05731245 0 6330
0.07750000 0.07749960 24515.40961826 0 877.17204825 0 6323.82149149 0 1484.60894530 0 -195.66375914 0 6583
0.07850000 0.07848650 23781.39512553 0 297.76596193 0 5680.50780951 0 629.29097020 0 -1331.32019128 0 6549
0.07950000 0.07947320 23638.63886125 0 60.62768619 0 5100.50147244 0 1076.13381432 0 230.85486439 0 6828
0.08050000 0.08048110 23917.06977985 0 61.57437379 0 5596.47270464 0 -20.94942558 0 -1078.38082040 0 7147
0.08150000 0.08149960 23546.01589922 0 204.09986752 0 6404.13594097 0 -318.79834351 0 583.56962335 0 7386
0.08250000 0.08250610 23495.09575141 0 339.71157420 0 5924.74466859 0 -587.78149518 0 32.06069642 0 7227
0.08350000 0.08350160 23156.86457091 0 562.46530160 0 6018.68278675 0 -958.16543303 0 -640.75193768 0 7798
0.08450000 0.08449610 22601.68883131 0 351.03203355 0 7291.46166902 0 -291.79043200 0 -736.88085867 0 7371
0.08550000 0.08548940 22291.89649717 0 343.71099773 0 6817.44342770 0 -542.48504493 0 -1670.91149051 0 8256
0.08650000 0.08650700 22073.26584045 0 352.49219408 0 6737.27510668 0 -24.18718262 0 -1505.47159305 0 8037
0.08750000 0.08749060 22246.59667472 0 148.99707357 0 6700.57438205 0 -282.46294002 0 -2738.43609043 0 8155
0.08850000 0.08849210 21567.88618358 0 546.46311122 0 7520.82714719 0 -183.34175781 0 -1644.21494502 0 8718
0.08950000 0.08949900 21879.58942835 0 524.90354312 0 7435.54433009 0 -180.47651594 0 -2085.03954474 0 8571
0.09050000 0.09049190 21078.58065726 0 858.93409244 0 9135.96252877 0 -234.62947490 0 -590.24994208 0 8932
0.09150000 0.09150830 20327.59278192 0 724.92417849 0 8036.13229865 0 1043.38193028 0 -739.25038784 0 9285
0.09250000 0.09250820 19628.76152598 0 777.39890830 0 8325.42168586 0 870.64685050 0 -456.08490715 0 9204
0.09350000 0.09350330 19215.78001812 0 570.76764623 0 8536.48738464 0 325.97100274 0 261.29679470 0 9349
0.09450000 0.09448040 18714.78421504 0 365.24358827 0 8594.61278957 0 210.27885322 0 20.55465393 0 9564
0.09550000 0.09549270 18342.94348886 0 84.40593393 0 7999.20676100 0 -31.78945952 0 1049.85654510 0 10155
0.09650000 0.09649430 18600.80401663 0 -89.70826129 0 7666.15752049 0 -47.83953507 0 -461.13757965 0 9913
0.09750000 0.09749140 18598.55588648 0 -197.58815855 0 7457.44111772 0 25.67746809 0 75.35541159 0 10476
0.09850000 0.09850240 18963.76462873 0 33.67058242 0 6871.19621949 0 1186.81038548 0 -460.76663818 0 10575
0.09950000 0.09950330 18365.87441635 0 197.76688490 0 6276.25105760 0 1336.98547925 0 -1037.43225385 0 10882
0.10050000 0.10051200 18286.29060918 0 379.10668281 0 5627.54186326 0 1137.23911576 0 -1522.25388459 0 10875
0.10150000 0.10150300 17661.42283504 0 542.29395387 0 5135.19012060 0 1236.16808284 0 -1966.61928929 0 11118
0.10250000 0.10250800 17051.05550035 0 327.87629304 0 4790.94519196 0 525.89834071 0 -414.92389230 0 11575
0.10350000 0.10349800 16809.83113566 0 351.63340836 0 5443.82466772 0 544.71856223 0 -420.77914727 0 11364
0.10450000 0.10450100 16897.95783739 0 -77.38120166 0 4913.52448818 0 127.39479099 0 15.63529554 0 12093
0.10550000 0.10551000 16596.37117828 0 205.21494007 0 6166.95821054 0 305.13196035 0 552.52969042 0 12067
0.10650000 0.10649700 16891.88788600 0 404.52179412 0 5291.16539014 0 -372.81416653 0 1555.97583679 0 12054
0.10750000 0.10749900 16191.25812593 0 451.60550783 0 6083.10295609 0 37.16395185 0 1189.85660183 0 12807
0.10850000 0.10850100 16003.76407174 0 578.99130631 0 5680.32795910 0 193.82591275 0 1637.58296109 0 12736
0.10950000 0.10950300 15494.22537411 0 183.16977586 0 5183.55864069 0 562.62491884 0 517.91972682 0 12933
0.11050000 0.11050200 15313.25089734 0 50.87349911 0 4323.32288090 0 582.76928902 0 39.76335233 0 13428
0.11150000 0.11150900 15211.29819521 0 112.94830668 0 4039.44024669 0 418.09937613 0 168.50634698 0 13453
0.11250000 0.11250000 14880.82306372 0 265.87286361 0 3563.43241018 0 70.77293551 0 -1158.67503670 0 13668
0.11350000 0.11349100 14810.68140315 0 402.10842640 0 3691.81188218 0 -158.81803011 0 -19.47869884 0 13791
0.11450000 0.11448600 14443.44934377 0 522.56436370 0 3915.30974067 0 -1213.68678138 0 -1144.44437287 0 14205
0.11550000 0.11549300 14257.19176116 0 223.82158923 0 4877.13850177 0 -470.33917634 0 -62.41337596 0 14776
0.11650000 0.11649800 14129.27315584 0 155.42784985 0 5386.67719940 0 -868.18964425 0 -400.38186245 0 14553
0.11750000 0.11747300 14265.73465572 0 -125.93687859 0 5695.58152214 0 118.04594178 0 20.17022367 0 14568
0.11850000 0.11849100 14428.61168481 0 -106.10601017 0 5841.46268733 0 -53.35768292 0 -521.01540203 0 16015
0.11950000 0.11950300 14535.17305374 0 63.30307347 0 5658.98196336 0 566.52542465 0 -1198.17468337 0 15270
0.12050000 0.12050700 14323.28678746 0 271.97653696 0 5480.23313544 0 248.34981319 0 -995.17977182 0 15999
0.12150000 0.12150000 14225.49312610 0 250.78791033 0 5445.20726776 0 572.30873945 0 -926.74893830 0 15670
0.12250000 0.12250700 13846.45838345 0 215.48777077 0 4613.14057870 0 681.41948796 0 -983.69182677 0 16887
0.12350000 0.12352200 13995.28459913 0 48.29804122 0 4426.21979769 0 501.32515415 0 -1199.48983950 0 16407
0.12450000 0.12449800 13657.27823165 0 130.78497126 0 4355.61727045 0 301.36072203 0 -1230.52527617 0 16306
0.12550000 0.12549900 13800.59652847 0 156.47885070 0 4335.64263410 0 -83.66416339 0 -1116.14266246 0 17523
0.12650000 0.12650100 13457.41946165 0 -19.39855300 0 4200.31643995 0 129.68900781 0 -780.85203620 0 17154
0.12750000 0.12750600 13644.01426378 0 -74.89252159 0 4220.98799665 0 493.79391816 0 -567.46401898 0 18007
0.12850000 0.12850300 13830.94628544 0 -261.20574543 0 3739.80946080 0 755.53247043 0 -1001.35313720 0 17496
0.12950000 0.12949900 13753.94782793 0 -186.91740881 0 3380.34469108 0 967.37602223 0 -661.67191276 0 18405
0.13050000 0.13049000 13991.91240391 0 4.83253560 0 2923.63705188 0 302.95577037 0 -1174.87281440 0 18100
0.13150000 0.13148800 13857.92384720 0 296.70484450 0 2359.97462097 0 94.06423826 0 -825.92479750 0 19059
0.13250000 0.13249300 13543.97247228 0 423.78152508 0 3021.29582543 0 -403.14031814 0 -927.43574206 0 18957
0.13350000 0.13349100 13201.24503149 0 550.17027783 0 2884.49710603 0 -515.03537584 0 -496.31182392 0 19468
0.13450000 0.13450700 12708.23009043 0 495.15403690 0 4024.13048039 0 -445.50295855 0 0.24617362 0 19953
0.13550000 0.13551000 12387.87154460 0 663.70984274 0 4316.92695063 0 -115.72249928 0 810.23622128 0 19956
0.13650000 0.13649900 11980.62276861 0 412.93879338 0 4863.05396640 0 473.29097122 0 1092.43500601 0 19723
0.13750000 0.13749600 11715.34341136 0 351.61879552 0 4826.06098484 0 657.37011572 0 1376.97971455 0 20946
0.13850000 0.13851100 11568.99013884 0 36.88563334 0 4777.81611191 0 854.63454353 0 2224.42361381 0 20955
0.13950000 0.13949800 11482.54953472 0 -46.91161935 0 4174.04703919 0 578.62261296 0 1820.67068020 0 20506
0.14050000 0.14048300 11533.02005650 0 -98.00813298 0 3597.54778515 0 332.74799107 0 1984.89658738 0 21447
0.14150000 0.14148400 11498.84847828 0 -65.70497572 0 3257.28204687 0 372.02507285 0 1321.87804466 0 21771
0.14250000 0.14249400 11586.07592795 0 81.69277807 0 2894.29895347 0 299.52175157 0 1331.62368885 0 22470
0.14350000 0.14350900 11399.81834534 0 206.31427571 0 2543.98407344 0 182.56615291 0 934.97934276 0 22519
0.14450000 0.14449900 11100.53601963 0 308.35802711 0 2553.17892574 0 86.30729000 0 1149.07552098 0 22218
0.14550000 0.14550500 10627.36082711 0 276.47392131 0 2496.25627043 0 241.04563834 0 1354.12747161 0 23559
0.14650000 0.14650700 10653.83255958 0 168.36471478 0 2631.53750198 0 523.93010277 0 1474.90826371 0 23044
0.14750000 0.14750500 10541.21247991 0 129.82052342 0 2605.96502157 0 55.58883969 0 2186.31780783 0 23649
0.14850000 0.14849900 10469.51960954 0 122.51297638 0 2827.37211902 0 192.85696866 0 2175.50430183 0 23640
0.14950000 0.14949500 10409.65190375 0 124.87351304 0 2730.10676824 0 -9.20535107 0 2673.39768530 0 24457
0.15050000 0.15050000 10366.04941956 0 57.53268542 0 2893.45590466 0 -3.03556021 0 2410.05171998 0 24591
0.15150000 0.15149900 10355.43824527 0 7.18266341 0 2727.25164296 0 188.83506383 0 2570.57945307 0 25020
0.15250000 0.15250500 10343.14097338 0 -23.51083266 0 2642.30604538 0 120.29069973 0 1669.67501893 0 25297
0.15350000 0.15350100 10302.89944376 0 41.38549064 0 2468.97521111 0 -123.71685008 0 1323.33932926 0 25452
0.15450000 0.15450400 10208.24192395 0 154.49375178 0 2358.16487620 0 -66.10255753 0 866.41249737 0 26061
0.15550000 0.15549900 10089.38328312 0 203.49062425 0 2447.43812431 0 -237.84205288 0 126.47530576 0 26128
0.15650000 0.15649500 9899.11278820 0 209.04350571 0 2113.47839109 0 -164.24164409 0 -286.48934112 0 26331
0.15750000 0.15749700 9827.20634547 0 111.27108918 0 2077.24977379 0 15.19466203 0 -834.16644262 0 27345
0.15850000 0.15849900 9644.41088329 0 168.24781201 0 1867.04960512 0 -240.32286450 0 -656.99130579 0 26980
0.15950000 0.15949700 9624.45872824 0 142.72816266 0 1769.81797629 0 -100.52558911 0 -808.04204625 0 27777
0.16050000 0.16050000 9461.25572028 0 210.42947794 0 2250.68177391 0 4.55624040 0 -469.42193924 0 28224
0.16150000 0.16150500 9304.14514501 0 210.14284135 0 1903.03092811 0 286.43651006 0 -484.04377771 0 28075
0.16250000 0.16249700 9200.38269811 0 126.03130006 0 2008.51319457 0 552.20146342 0 56.35871185 0 28590
0.16350000 0.16349900 9026.92821668 0 102.03959236 0 1879.70657784 0 518.01190016 0 398.63394126 0 29163
0.16450000 0.16449100 9029.80582327 0 76.74082179 0 2011.42452311 0 461.42084405 0 633.28814560 0 28996
0.16550000 0.16550500 8811.47866412 0 89.61788646 0 1794.28887293 0 136.93922753 0 928.09781639 0 30777
0.16650000 0.16650700 8780.84789088 0 65.61179072 0 1883.19117957 0 55.67685398 0 877.37325590 0 29211
0.16750000 0.16749900 8743.33783939 0 63.93682136 0 1827.52747715 0 -2.30061274 0 1285.70563061 0 30922
0.16850000 0.16850800 8717.64171182 0 76.24050043 0 1955.32243531 0 -3.03007477 0 1234.02111855 0 30867
0.16950000 0.16949900 8668.20532990 0 66.56792047 0 1881.49384131 0 14.17693351 0 1415.96229128 0 30852
0.17050000 0.17049200 8739.48229619 0 -12.06178027 0 1977.00565057 0 83.24825931 0 894.20051004 0 31257
0.17150000 0.17149500 8701.07299264 0 11.12685038 0 1910.12377872 0 15.69880522 0 1082.88944541 0 32608
0.17250000 0.17250900 8766.79707746 0 88.70649450 0 1993.55188844 0 -212.54721654 0 1076.47440603 0 32361
0.17350000 0.17350400 8648.99505780 0 248.25089546 0 2091.43547501 0 -279.84611653 0 1121.25603448 0 32508
0.17450000 0.17449800 8472.42691612 0 309.28200860 0 2283.41454884 0 -145.55406225 0 1171.51185983 0 32791
0.17550000 0.17549800 8268.30793950 0 317.50679274 0 2500.22422014 0 -216.70625731 0 956.25227427 0 33633
0.17650000 0.17650100 8045.37211355 0 290.47864806 0 2443.16667703 0 -53.31316995 0 1105.07848995 0 33984
0.17750000 0.17750300 7826.21314625 0 120.15693599 0 2755.81413646 0 132.50703895 0 971.49684479 0 34069
0.17850000 0.17849800 7820.03078834 0 67.85902162 0 2507.14846099 0 143.11146885 0 1264.51700398 0 34536
