### header ###
fiducial parameters:
Omega_m = 0.31
Omega_nu = 0
Omega_de = 0.69
Omega_k = 0
H_0 = 100
w_de = -1
zeff = 0
beta = 0
fgrowth = 0
b_1 = 2
gamma = 0.55
Lx = 3500 Ly = 3500 Lz = 3500
nx = 700 ny = 700 nz = 700
xoffset = 857.220397 yoffset = 15.9954215 zoffset = 262.898189
bins = 400 dk = 0.001
kx_ny = 0.628318531 ky_ny = 0.628318531 kz_ny = 0.628318531
############################
A(data) = 3.13289358 (not used)
A(ran) = 3.13061281 (used)
Ngal = 191060
weighted Ngal = 0
Nran = 9360983
weighted Nran = 0
SN(data) = 3452.97998
SN(ran) = 70.3017984
SN(data+ran) = 3523.28177
############################
13 columns: k_central k_mean P_0(k) sigma^{lin}_{P_0(k)} P^img_1(k) sigma^{lin}_{P_1(k)} P_2(k) sigma^{lin}_{P_2(k)} P^img_3(k) sigma^{lin}_{P_3(k)} P_4(k) sigma^{lin}_{P_4(k)} N_modes
### header ###
0.00050000 0 0 0 0 0 0 0 0 0 0 0 0
0.00150000 0.00179520 11063.65544458 0 -25788.18850053 0 -16943.48247285 0 -42839.80603342 0 -3249.86321739 0 3
0.00250000 0.00253879 27597.48364219 0 -38885.12029324 0 -55522.96947272 0 31294.42126111 0 -3244.26537333 0 6
0.00350000 0.00331552 52800.93349170 0 -49732.34824865 0 -57392.17728277 0 -29297.18243923 0 -38083.66189612 0 7
0.00450000 0.00420575 85751.55223151 0 -51549.17462630 0 -88351.85196511 0 -7435.49936749 0 -3683.63992910 0 24
0.00550000 0.00557378 109333.31340006 0 -19392.48304761 0 -90228.47860465 0 -40398.67391417 0 4102.54525989 0 45
0.00650000 0.00659388 125337.75191084 0 1072.86166089 0 -93350.90656471 0 -47381.14133524 0 19090.44676247 0 40
0.00750000 0.00754703 96758.28502079 0 15014.13718138 0 -57504.92100960 0 -40782.76694965 0 25813.03033865 0 57
0.00850000 0.00846663 86841.67053940 0 17510.34848922 0 -40411.26344299 0 -33353.03403598 0 43161.62586385 0 75
0.00950000 0.00948925 66254.86835162 0 11977.81260593 0 -16978.32849012 0 -15210.84856918 0 31826.89088624 0 112
0.01050000 0.01054430 59452.36374875 0 7812.51079301 0 -5158.67183997 0 -1146.51265261 0 22772.09709639 0 105
0.01150000 0.01145670 50599.11482651 0 4234.56670273 0 -4664.51035254 0 2453.74412937 0 19212.74504242 0 144
0.01250000 0.01249090 50123.97252011 0 -220.82258361 0 -590.84682063 0 850.25968227 0 8386.91928601 0 169
0.01350000 0.01339930 45369.40207392 0 -2965.89065797 0 -10609.19593553 0 -7431.48645518 0 7505.55110284 0 180
0.01450000 0.01448870 48256.00118164 0 -1688.28953654 0 -5322.38067722 0 -9078.64645069 0 -3279.20131580 0 267
0.01550000 0.01550050 51906.17769351 0 -473.75071384 0 -12758.58820570 0 -8447.07924872 0 -4665.25223549 0 238
0.01650000 0.01653350 50422.97382956 0 -353.49261199 0 -292.77286487 0 -9704.42471754 0 -5009.73321779 0 315
0.01750000 0.01747870 56717.17620638 0 -3864.60316522 0 -3758.31157191 0 -6614.13377792 0 -12249.94876013 0 297
0.01850000 0.01844180 60170.30411094 0 -3606.94496916 0 14149.84354668 0 -434.33424799 0 9723.78111810 0 388
0.01950000 0.01947590 67157.60501183 0 -4709.63032457 0 18312.25651236 0 -13798.12358531 0 -16486.66242714 0 399
0.02050000 0.02045430 73316.69476686 0 -1961.02144523 0 37136.18744600 0 -8271.03941762 0 10764.83398555 0 462
0.02150000 0.02154770 76832.88272202 0 1419.73914993 0 46033.72453212 0 -9615.18519139 0 17932.77214369 0 571
0.02250000 0.02255340 76359.76373275 0 4127.04987849 0 55129.54669713 0 -10271.27949325 0 19569.07367060 0 510
0.02350000 0.02348930 76451.71225573 0 4460.35765396 0 60903.98138415 0 8890.10701598 0 7923.45601572 0 555
0.02450000 0.02439640 75171.85176350 0 4108.35667632 0 61228.61137726 0 6393.51352603 0 19844.58202001 0 592
0.02550000 0.02547300 69280.28949587 0 3851.29423475 0 56574.19512908 0 19359.32312796 0 18998.04861346 0 837
0.02650000 0.02652900 67350.71939139 0 2544.62479053 0 48829.83640145 0 19551.76306847 0 16183.05245090 0 723
0.02750000 0.02749970 60473.35205464 0 2948.09670787 0 29786.71277856 0 18189.73341940 0 3338.91165248 0 826
0.02850000 0.02848090 58089.99688015 0 1471.68219696 0 24818.00793594 0 13255.76218754 0 9608.37335704 0 831
0.02950000 0.02946900 53920.27749149 0 1731.79085487 0 15272.22252217 0 7343.65201037 0 10474.08331374 0 996
0.03050000 0.03053250 51647.86753971 0 1879.09958270 0 14656.12245560 0 -1301.94837092 0 4692.19607529 0 1041
0.03150000 0.03150510 51838.73378913 0 559.65064266 0 7158.58593673 0 -3614.27387344 0 4694.50040869 0 1036
0.03250000 0.03246190 52255.98674426 0 1233.31295755 0 13113.68036230 0 -7086.37599643 0 3834.99529119 0 1059
0.03350000 0.03345080 53000.11782265 0 1189.44069775 0 11858.32448866 0 -5875.65674685 0 5112.48400612 0 1302
0.03450000 0.03451200 53055.53423076 0 512.09032535 0 23659.20925208 0 -1760.51071749 0 3862.77093915 0 1339
0.03550000 0.03553350 52661.32460962 0 1702.21670280 0 22521.54299160 0 -3205.55257221 0 1868.84810923 0 1365
0.03650000 0.03647120 54545.81970467 0 350.23956767 0 30439.90699254 0 3475.98014750 0 3778.66839038 0 1308
0.03750000 0.03744890 52890.40907152 0 1590.77689145 0 26939.79316792 0 142.07170865 0 5608.07305620 0 1579
0.03850000 0.03847530 52339.05515316 0 400.44930636 0 31247.21052804 0 6827.90847353 0 9743.05883410 0 1662
0.03950000 0.03950240 51401.58488220 0 1120.79516780 0 27805.54808722 0 4506.82650408 0 8384.37889894 0 1683
0.04050000 0.04050350 49641.41138423 0 605.99584562 0 24058.02754002 0 6993.73055311 0 4509.16455944 0 1822
0.04150000 0.04152450 48655.38150211 0 2798.47240599 0 19173.62757788 0 5673.77465972 0 2952.57048686 0 1887
0.04250000 0.04250150 45470.34311748 0 2349.25104017 0 15426.78146972 0 2397.23737814 0 186.77465255 0 1920
0.04350000 0.04349210 42560.25104974 0 2349.97044182 0 12278.16279346 0 -821.03736256 0 -3121.66359581 0 2005
0.04450000 0.04448520 39979.51004841 0 2119.18864166 0 10111.65101222 0 -953.93220396 0 -4508.17538217 0 2151
0.04550000 0.04548030 38576.67683718 0 1414.28743432 0 8636.66406395 0 1320.38303812 0 -7832.41798545 0 2274
0.04650000 0.04648670 36419.82077492 0 69.41439046 0 7960.51644118 0 200.37921213 0 -7134.09255879 0 2311
0.04750000 0.04749250 37541.18809184 0 -1089.16622477 0 5832.76242366 0 5459.17939662 0 -6607.08588992 0 2568
0.04850000 0.04851840 38695.60292192 0 -1279.65816052 0 6945.64304928 0 2285.47158793 0 -4871.29336339 0 2493
0.04950000 0.04949480 39401.62819433 0 -145.75976616 0 3747.57675046 0 307.57905002 0 -7584.83141245 0 2644
0.05050000 0.05050630 39816.18339329 0 -188.30338105 0 7428.87862421 0 -3738.39313881 0 -4240.22075005 0 2829
0.05150000 0.05149060 38191.45973663 0 506.05297184 0 7359.42264334 0 -4185.47878099 0 -6277.02666250 0 2784
0.05250000 0.05249300 40098.99816568 0 -421.91670112 0 11976.68854086 0 -4199.76564807 0 -6192.75550397 0 3055
0.05350000 0.05348950 40332.01685533 0 -184.40737150 0 11246.15864985 0 -3146.12325180 0 -9757.27825728 0 3009
0.05450000 0.05448610 40870.44402535 0 680.22797899 0 13861.07122940 0 -1538.41794034 0 -10039.65464429 0 3336
0.05550000 0.05550870 39302.14843536 0 1596.47590137 0 13598.37722182 0 -1479.74174353 0 -10406.71809391 0 3349
0.05650000 0.05647670 38741.12755738 0 2788.13100732 0 18148.59263772 0 -47.98577594 0 -6648.38404070 0 3324
0.05750000 0.05747970 35792.03043159 0 2793.62768552 0 16425.51328717 0 1607.76151470 0 -5785.45052473 0 3639
0.05850000 0.05849280 34050.06678781 0 2084.52247481 0 18025.84473174 0 4544.88734746 0 -2112.46673253 0 3846
0.05950000 0.05951020 32899.13655946 0 1174.58055748 0 16437.87800297 0 3781.19753680 0 -1443.11970345 0 3787
0.06050000 0.06049470 32133.08621215 0 549.48347407 0 14401.85893607 0 3560.65596945 0 716.65105955 0 3930
0.06150000 0.06148310 31000.36583799 0 512.82996017 0 12580.19907860 0 2536.27298704 0 511.85651982 0 4083
0.06250000 0.06249100 30166.08474073 0 623.56723085 0 10318.44526372 0 1197.47776302 0 -1676.99268256 0 4303
0.06350000 0.06350600 29549.75986115 0 672.24936510 0 9479.04967038 0 144.37154579 0 -1472.50276446 0 4470
0.06450000 0.06451750 29201.29968849 0 251.59386499 0 8063.43583927 0 -4.69597293 0 -3394.92381508 0 4479
0.06550000 0.06550280 28793.37647346 0 -103.78740114 0 7956.55973212 0 517.51955965 0 -4189.27812093 0 4636
0.06650000 0.06648880 29720.73015877 0 -1160.61966928 0 6202.53487011 0 -488.93121265 0 -6809.26023396 0 4653
0.06750000 0.06749660 30273.65776823 0 -1103.86000341 0 6295.10162888 0 80.26926206 0 -6969.37206298 0 5220
0.06850000 0.06852730 32032.03276208 0 -665.99619110 0 7376.30610074 0 -1204.33455997 0 -6435.46363455 0 5029
0.06950000 0.06949320 31920.41310032 0 -3.01987950 0 6330.09377460 0 -337.33305250 0 -8533.83459106 0 5040
0.07050000 0.07048030 31698.41024838 0 978.84373411 0 9525.15881968 0 -1999.61059919 0 -4745.40931585 0 5475
0.07150000 0.07148790 30669.44108047 0 1702.17174019 0 7638.15705952 0 -1283.31137201 0 -9357.24597906 0 5509
0.07250000 0.07249820 29989.26930473 0 1313.41383466 0 12989.80839124 0 -706.00841144 0 -6764.47748145 0 5916
0.07350000 0.07351270 28432.10195897 0 802.16093779 0 10094.17180033 0 -49.02250115 0 -8537.31919279 0 5721
0.07450000 0.07449140 28644.32544477 0 -98.22710085 0 11997.14652519 0 926.02054413 0 -7436.63467321 0 6028
0.07550000 0.07549160 28732.78936602 0 -476.50804546 0 10324.23419885 0 563.62084050 0 -8215.19586479 0 6183
0.07650000 0.07648840 29042.13207414 0 -143.86346838 0 10129.18642736 0 1135.60922140 0 -8365.02249839 0 6330
0.07750000 0.07749960 29262.67364148 0 140.84647772 0 9066.77632352 0 38.99921290 0 -8308.54946911 0 6583
0.07850000 0.07848650 28915.78715992 0 562.03590874 0 8735.52558713 0 475.09172347 0 -8451.04719843 0 6549
0.07950000 0.07947320 27987.42181605 0 935.54362343 0 8265.17179794 0 212.00878937 0 -5919.73133837 0 6828
0.08050000 0.08048110 27343.66974869 0 907.82867499 0 8223.13176421 0 883.03629573 0 -6517.01455561 0 7147
0.08150000 0.08149960 26254.56309936 0 1029.93698794 0 9660.23771952 0 1747.35915613 0 -2018.66350218 0 7386
0.08250000 0.08250610 25288.54157554 0 952.24161009 0 8064.93084582 0 2144.76112208 0 -127.61061149 0 7227
0.08350000 0.08350160 24626.57965399 0 599.26606803 0 8395.40597731 0 3171.12245902 0 2311.84215454 0 7798
0.08450000 0.08449610 23958.77259406 0 274.65293590 0 7653.53426972 0 2911.01380111 0 5044.99513913 0 7371
0.08550000 0.08548940 23972.14896843 0 -26.90438512 0 6907.26746769 0 2256.94281637 0 4850.89158231 0 8256
0.08650000 0.08650700 23481.71937704 0 245.39014985 0 6238.99954108 0 723.94399374 0 5257.84810137 0 8037
0.08750000 0.08749060 23422.70596070 0 415.36789801 0 5767.45424291 0 -7.83421649 0 5242.51585378 0 8155
0.08850000 0.08849210 22647.88790582 0 980.76588539 0 5284.06129888 0 -721.10010911 0 3697.90431488 0 8718
0.08950000 0.08949900 21715.70074069 0 1243.09232369 0 5392.84831665 0 -469.22972411 0 2503.87743163 0 8571
0.09050000 0.09049190 20760.02061555 0 1106.41837552 0 5783.17991329 0 -953.20718199 0 1706.21837446 0 8932
0.09150000 0.09150830 20048.93705030 0 641.65793413 0 5037.72243811 0 11.88192986 0 1599.69072748 0 9285
0.09250000 0.09250820 19588.18277684 0 282.71697873 0 5048.50222216 0 264.15978844 0 241.45479803 0 9204
0.09350000 0.09350330 19901.34730621 0 -213.66004096 0 5994.61655354 0 -399.63997950 0 1064.82122342 0 9349
0.09450000 0.09448040 19762.97489571 0 -226.12142636 0 5540.52798596 0 -140.80263919 0 -830.09170673 0 9564
0.09550000 0.09549270 20455.17416772 0 -104.65113274 0 5870.99187680 0 -364.04870709 0 344.28314685 0 10155
0.09650000 0.09649430 20363.33805125 0 4.37014019 0 5940.53778287 0 -46.20334595 0 -370.89538745 0 9913
0.09750000 0.09749140 20088.39173437 0 448.46037376 0 5848.88151681 0 785.76757276 0 571.23076104 0 10476
0.09850000 0.09850240 19853.68694711 0 321.74114587 0 5109.33662392 0 875.08578347 0 304.01576374 0 10575
0.09950000 0.09950330 19184.30619608 0 350.27553775 0 5172.81257859 0 1883.30358607 0 643.69474005 0 10882
0.10050000 0.10051200 18914.19335901 0 239.02681747 0 4361.41744623 0 900.80888861 0 457.34498410 0 10875
0.10150000 0.10150300 18307.76025207 0 408.30202496 0 4230.81232538 0 370.99880144 0 376.01775199 0 11118
0.10250000 0.10250800 18033.03874821 0 526.84592757 0 3497.51723430 0 -542.60082363 0 797.66467750 0 11575
0.10350000 0.10349800 17665.46946930 0 450.13972698 0 4151.38588732 0 -677.32002264 0 389.12097855 0 11364
0.10450000 0.10450100 17277.32979956 0 487.47667245 0 4523.24909480 0 -1385.81486602 0 104.69193631 0 12093
0.10550000 0.10551000 17145.70177950 0 363.76769083 0 5191.83175963 0 -241.81562292 0 -559.43594623 0 12067
0.10650000 0.10649700 16844.22752690 0 310.31277627 0 5112.00065814 0 -331.69136990 0 50.89980223 0 12054
0.10750000 0.10749900 16701.58366912 0 292.73352260 0 6004.14862536 0 15.60517060 0 -327.49523498 0 12807
0.10850000 0.10850100 16505.88393989 0 149.28933049 0 5694.43497576 0 42.72234123 0 256.39811911 0 12736
0.10950000 0.10950300 16454.17694653 0 268.55263474 0 6135.74292346 0 315.23168503 0 -50.65115904 0 12933
0.11050000 0.11050200 16177.09490601 0 387.15611280 0 6426.58352048 0 -107.26537089 0 629.05042027 0 13428
0.11150000 0.11150900 16067.16134186 0 535.98008035 0 7203.57102096 0 -668.65910125 0 1443.88406770 0 13453
0.11250000 0.11250000 15770.85778860 0 376.88103397 0 7075.19154896 0 -103.10801621 0 1522.07403418 0 13668
0.11350000 0.11349100 15208.37562602 0 355.99927711 0 7068.78437804 0 542.63566965 0 2126.32645488 0 13791
0.11450000 0.11448600 15421.61077038 0 80.36447037 0 7383.78113347 0 764.07873718 0 1829.44962842 0 14205
0.11550000 0.11549300 14956.92226916 0 181.68263777 0 6254.91630251 0 900.88082877 0 1498.53611155 0 14776
0.11650000 0.11649800 14871.26851059 0 230.84699593 0 6066.73656863 0 806.92697370 0 693.63582718 0 14553
0.11750000 0.11747300 14300.91789250 0 228.13350285 0 4857.34371583 0 48.84175149 0 213.54089007 0 14568
0.11850000 0.11849100 14345.09364988 0 332.33883138 0 5253.46424759 0 -349.06716780 0 -255.66073242 0 16015
0.11950000 0.11950300 13785.30924347 0 342.90391900 0 4736.13577900 0 -104.26479158 0 -1229.46865500 0 15270
0.12050000 0.12050700 13794.30176406 0 212.10321084 0 4844.99024067 0 -156.76998355 0 -583.62695067 0 15999
0.12150000 0.12150000 13529.58443934 0 -37.82366564 0 4762.78736188 0 657.43081524 0 -725.70427965 0 15670
0.12250000 0.12250700 13631.98676750 0 -43.09384474 0 4759.85355204 0 1036.00693934 0 -139.93823315 0 16887
0.12350000 0.12352200 13740.45904706 0 -180.78788197 0 4668.79304047 0 1172.98438508 0 1.75548615 0 16407
0.12450000 0.12449800 14026.75842117 0 -168.18261624 0 3974.54797002 0 1072.79871325 0 1452.88782893 0 16306
0.12550000 0.12549900 13935.82155676 0 -135.51278895 0 4131.69226724 0 1107.31987571 0 2019.14685016 0 17523
0.12650000 0.12650100 14269.66888347 0 -112.51778975 0 3066.20222510 0 873.68295026 0 3050.98238401 0 17154
0.12750000 0.12750600 14209.08177603 0 15.48523285 0 3637.01370987 0 764.54297605 0 2679.38895214 0 18007
0.12850000 0.12850300 14012.25798173 0 333.29428669 0 2866.77059983 0 172.68337279 0 2789.12018458 0 17496
0.12950000 0.12949900 13731.57893298 0 462.97992231 0 3288.64346241 0 -404.50268501 0 3140.61533294 0 18405
0.13050000 0.13049000 13315.78726244 0 467.76731545 0 3228.23620539 0 -387.11339833 0 2238.65427763 0 18100
0.13150000 0.13148800 12890.89066481 0 434.92550621 0 3026.50024672 0 -479.12824115 0 2221.07389989 0 19059
0.13250000 0.13249300 12625.94852708 0 159.67007144 0 3528.81120593 0 -449.48102485 0 1299.31805865 0 18957
0.13350000 0.13349100 12507.92169440 0 193.29985030 0 2991.99144897 0 -686.87232763 0 597.31131887 0 19468
0.13450000 0.13450700 12438.90409891 0 131.33014282 0 3205.54133156 0 -95.11231653 0 160.73343700 0 19953
0.13550000 0.13551000 12203.86209213 0 173.27013476 0 3275.99773034 0 -140.06750063 0 26.72194936 0 19956
0.13650000 0.13649900 12168.45404233 0 211.29500805 0 3618.41043291 0 -28.58935866 0 189.31166742 0 19723
0.13750000 0.13749600 12012.54621669 0 196.66192893 0 3338.28217604 0 162.82194990 0 -577.27710707 0 20946
0.13850000 0.13851100 11992.20063887 0 228.38978968 0 4220.27983565 0 -42.33420156 0 315.01586454 0 20955
0.13950000 0.13949800 11756.70900605 0 226.70031988 0 4136.43582185 0 -97.34403533 0 650.08954625 0 20506
0.14050000 0.14048300 11802.12123500 0 -4.57005516 0 4605.62058336 0 201.26160321 0 1016.12784852 0 21447
0.14150000 0.14148400 11657.22924708 0 52.81105008 0 4056.35742604 0 321.50509221 0 629.14484174 0 21771
0.14250000 0.14249400 11759.18194921 0 50.57550946 0 4100.60062732 0 440.45815450 0 878.96155984 0 22470
0.14350000 0.14350900 11510.20153552 0 101.01219688 0 3416.47214253 0 536.10822377 0 429.42770394 0 22519
0.14450000 0.14449900 11509.86431600 0 96.60552458 0 3189.66953273 0 280.05856483 0 648.97222556 0 22218
0.14550000 0.14550500 11330.91315636 0 92.06025505 0 2928.54921625 0 309.86315025 0 282.29657839 0 23559
0.14650000 0.14650700 11238.42508215 0 115.58648740 0 2515.21924822 0 -28.24955379 0 274.00772254 0 23044
0.14750000 0.14750500 10997.71778739 0 270.67936586 0 2894.92842991 0 -88.97413439 0 416.75387024 0 23649
0.14850000 0.14849900 10881.25340517 0 308.11522906 0 2800.12478165 0 -147.72688004 0 462.10539968 0 23640
0.14950000 0.14949500 10535.35610088 0 360.28421316 0 3178.74362022 0 -225.76734587 0 766.11554309 0 24457
0.15050000 0.15050000 10310.82410252 0 167.99939363 0 3348.18518934 0 24.69728335 0 770.34652403 0 24591
0.15150000 0.15149900 10293.00767111 0 52.53351841 0 3355.15439279 0 85.24291279 0 755.49537628 0 25020
0.15250000 0.15250500 10368.64600988 0 16.05771920 0 3487.05218847 0 119.82421273 0 573.36198842 0 25297
0.15350000 0.15350100 10346.00733931 0 51.93158156 0 3407.00751461 0 -127.80619881 0 248.63195352 0 25452
0.15450000 0.15450400 10285.44271317 0 160.17028040 0 3470.78696686 0 -124.86901678 0 24.28003039 0 26061
0.15550000 0.15549900 10103.79379736 0 279.94840646 0 3509.43232407 0 -374.46879032 0 -159.48572477 0 26128
0.15650000 0.15649500 9987.68911596 0 264.08447608 0 3503.03639381 0 54.48017430 0 64.83427491 0 26331
0.15750000 0.15749700 9689.12619189 0 165.81870739 0 3484.15210058 0 115.40101666 0 -100.33730821 0 27345
0.15850000 0.15849900 9683.69695759 0 20.60962071 0 3102.83550583 0 430.48769731 0 148.09107712 0 26980
0.15950000 0.15949700 9687.58622274 0 -122.70631557 0 3079.73596858 0 547.68496996 0 -206.11194400 0 27777
0.16050000 0.16050000 9785.44732801 0 -70.74966736 0 2582.65191195 0 344.62598670 0 50.36677058 0 28224
0.16150000 0.16150500 9869.77468979 0 -27.28712928 0 2519.69302721 0 208.51294699 0 70.76765240 0 28075
0.16250000 0.16249700 9822.24921850 0 57.55415506 0 2390.11080558 0 -22.28425285 0 50.75603431 0 28590
0.16350000 0.16349900 9783.67130519 0 134.50899884 0 2436.36608334 0 -70.95076260 0 257.59187622 0 29163
0.16450000 0.16449100 9790.42693628 0 159.29463370 0 2455.73372455 0 62.29917095 0 131.04575435 0 28996
0.16550000 0.16550500 9493.75244154 0 158.75733060 0 2619.55496830 0 254.57151337 0 318.70841831 0 30777
0.16650000 0.16650700 9499.93479944 0 210.48455713 0 2714.62839219 0 58.95530217 0 298.80122586 0 29211
0.16750000 0.16749900 9226.74202407 0 230.87284943 0 2660.09999549 0 0.89218169 0 382.60364926 0 30922
0.16850000 0.16850800 9149.30518119 0 191.63286179 0 2966.91355719 0 -100.80402003 0 555.40617294 0 30867
0.16950000 0.16949900 8924.66077633 0 186.46553465 0 2834.31884117 0 -204.13920980 0 662.04959862 0 30852
0.17050000 0.17049200 8888.54456553 0 125.50860980 0 3180.56460564 0 16.25443058 0 676.34770635 0 31257
0.17150000 0.17149500 8754.08390149 0 76.84513503 0 2969.90357029 0 -102.08770235 0 298.24818585 0 32608
0.17250000 0.17250900 8773.97985328 0 131.58080933 0 2931.46054479 0 -36.85472155 0 272.43290738 0 32361
0.17350000 0.17350400 8695.18289166 0 115.65168318 0 3084.62565165 0 -12.09876201 0 -54.62203132 0 32508
0.17450000 0.17449800 8543.22053442 0 181.15207905 0 2695.51928594 0 -45.98111829 0 -113.95209679 0 32791
0.17550000 0.17549800 8391.39306500 0 144.03320221 0 2754.99356896 0 133.33659897 0 -333.35948247 0 33633
0.17650000 0.17650100 8304.15437468 0 92.62150074 0 2568.74722700 0 319.81674647 0 81.21898464 0 33984
0.17750000 0.17750300 8095.43797190 0 36.25896706 0 2322.80178900 0 480.19160671 0 -446.00429157 0 34069
