### header ###
fiducial parameters:
Omega_m = 0.31
Omega_nu = 0
Omega_de = 0.69
Omega_k = 0
H_0 = 100
w_de = -1
zeff = 0
beta = 0
fgrowth = 0
b_1 = 2
gamma = 0.55
Lx = 3500 Ly = 3500 Lz = 3500
nx = 700 ny = 700 nz = 700
xoffset = 857.220397 yoffset = 15.9954215 zoffset = 262.898189
bins = 400 dk = 0.001
kx_ny = 0.628318531 ky_ny = 0.628318531 kz_ny = 0.628318531
############################
A(data) = 3.07907664 (not used)
A(ran) = 3.07604471 (used)
Ngal = 187699
weighted Ngal = 0
Nran = 9360983
weighted Nran = 0
SN(data) = 3451.74022
SN(ran) = 69.0764039
SN(data+ran) = 3520.81663
############################
13 columns: k_central k_mean P_0(k) sigma^{lin}_{P_0(k)} P^img_1(k) sigma^{lin}_{P_1(k)} P_2(k) sigma^{lin}_{P_2(k)} P^img_3(k) sigma^{lin}_{P_3(k)} P_4(k) sigma^{lin}_{P_4(k)} N_modes
### header ###
0.00050000 0 0 0 0 0 0 0 0 0 0 0 0
0.00150000 0.00179520 17492.58826106 0 -21055.42491676 0 -17880.72793080 0 31863.98503365 0 -74718.40391302 0 3
0.00250000 0.00253879 34419.54697734 0 -24519.11903300 0 3201.12375582 0 -14233.02436209 0 43695.21955405 0 6
0.00350000 0.00331552 46589.91193029 0 -18427.13596284 0 -10844.87865940 0 -5215.96543675 0 7186.38406599 0 7
0.00450000 0.00420575 58885.72254540 0 -12113.26244724 0 -7228.35665582 0 -12241.51827208 0 12907.97645392 0 24
0.00550000 0.00557378 73140.55376991 0 -10055.27914881 0 -20825.32879629 0 7448.50480038 0 18715.68346710 0 45
0.00650000 0.00659388 75245.14080627 0 -9447.35103532 0 -22165.88880247 0 30804.66610876 0 32694.78152918 0 40
0.00750000 0.00754703 80248.01722711 0 -2453.17085618 0 -27959.32018922 0 3275.59306692 0 9410.14448140 0 57
0.00850000 0.00846663 80234.64085274 0 121.98129360 0 -32247.40363008 0 24414.35616819 0 17153.68264152 0 75
0.00950000 0.00948925 71950.16885749 0 6907.67213111 0 -21210.43349034 0 3187.83730666 0 19941.36402281 0 112
0.01050000 0.01054430 60267.98536579 0 8618.00458374 0 -33537.94274051 0 -1862.93552695 0 24535.86760259 0 105
0.01150000 0.01145670 56317.12144686 0 5940.77383653 0 -19866.50128894 0 -6721.26842004 0 21853.96074469 0 144
0.01250000 0.01249090 50392.28685306 0 2578.61651834 0 -24837.56666821 0 -6591.10168458 0 15536.04059482 0 169
0.01350000 0.01339930 56672.77563599 0 -2885.86846542 0 -14398.59914736 0 -20789.35871395 0 15835.60393681 0 180
0.01450000 0.01448870 57244.25031915 0 -4177.23938400 0 -9971.41265370 0 -20826.45286137 0 -615.51780086 0 267
0.01550000 0.01550050 63040.60427510 0 -3438.27900494 0 2096.38136133 0 -15150.37386824 0 -15711.50715274 0 238
0.01650000 0.01653350 66704.38197435 0 -1244.65477414 0 10530.64626822 0 -16944.60653793 0 -14299.45660791 0 315
0.01750000 0.01747870 72228.82458912 0 11.74872814 0 20275.21134952 0 -7783.01532549 0 -21097.46495049 0 297
0.01850000 0.01844180 63804.63130528 0 2031.82630418 0 26094.38382644 0 -10738.04751486 0 -15614.94996296 0 388
0.01950000 0.01947590 67116.91385618 0 766.81246344 0 19738.47027711 0 2135.22905026 0 -23349.41691794 0 399
0.02050000 0.02045430 69823.99977173 0 456.22429122 0 29328.54385477 0 4288.44314168 0 -17020.36852385 0 462
0.02150000 0.02154770 72803.55906099 0 -1782.40750511 0 25674.09589561 0 371.41133332 0 -11587.42480604 0 571
0.02250000 0.02255340 70844.76326461 0 225.78870310 0 9011.88822600 0 8341.84427658 0 -15477.13958499 0 510
0.02350000 0.02348930 72935.97392660 0 2839.99536979 0 26434.30110455 0 -4273.67292662 0 -8493.28956388 0 555
0.02450000 0.02439640 69908.97909125 0 4832.19838014 0 16796.67957431 0 7348.66534059 0 -12664.39155258 0 592
0.02550000 0.02547300 63754.49800302 0 6052.68575521 0 26055.94080094 0 3865.03030995 0 -562.28882339 0 837
0.02650000 0.02652900 59659.07931569 0 4577.81121345 0 18735.91663842 0 8164.21951373 0 3474.86732307 0 723
0.02750000 0.02749970 56028.68634910 0 1734.42116714 0 22028.19083102 0 7365.60500124 0 17920.74464740 0 826
0.02850000 0.02848090 56102.31261139 0 956.68054306 0 29436.45410178 0 4481.81605621 0 17390.86037195 0 831
0.02950000 0.02946900 56229.44437116 0 -2741.79704500 0 24019.35970150 0 3985.99095246 0 21604.64311147 0 996
0.03050000 0.03053250 61861.34760691 0 -845.15417871 0 37972.26704738 0 -4681.71978881 0 30425.06933357 0 1041
0.03150000 0.03150510 64206.48456891 0 309.56190081 0 40128.11145107 0 -7089.09623391 0 27492.72077738 0 1036
0.03250000 0.03246190 64235.26063479 0 987.38100834 0 53013.04457099 0 -2221.17506575 0 28539.56257996 0 1059
0.03350000 0.03345080 66135.71745387 0 1577.61408944 0 53827.09249693 0 -1576.29893331 0 28631.73591595 0 1302
0.03450000 0.03451200 67175.92727252 0 281.71543675 0 56410.98088046 0 10348.86246460 0 22072.59140140 0 1339
0.03550000 0.03553350 65641.01641520 0 -202.99266342 0 53853.39561964 0 5975.72101966 0 13164.26329059 0 1365
0.03650000 0.03647120 66555.89297820 0 1744.48154955 0 46122.63807940 0 10908.09607911 0 7053.44088979 0 1308
0.03750000 0.03744890 61830.88544343 0 1923.05052706 0 36622.37730109 0 4367.66724803 0 -540.51118666 0 1579
0.03850000 0.03847530 60365.66662064 0 2826.46162631 0 36364.96639935 0 1841.70193772 0 -8805.85833875 0 1662
0.03950000 0.03950240 59024.99420796 0 2645.14993002 0 30903.02180266 0 4023.82698282 0 -11326.19208305 0 1683
0.04050000 0.04050350 54245.01989111 0 2936.99094495 0 29499.51415238 0 823.01009677 0 -16029.05553589 0 1822
0.04150000 0.04152450 53500.55159320 0 3221.69414666 0 24054.09331226 0 342.93426876 0 -17456.39336571 0 1887
0.04250000 0.04250150 51027.49602587 0 2405.18451821 0 30816.35638552 0 -1348.78816251 0 -16380.21346472 0 1920
0.04350000 0.04349210 47786.70401362 0 3180.59832759 0 26582.67769420 0 28.95580388 0 -14874.41589280 0 2005
0.04450000 0.04448520 46126.90952668 0 1197.17426545 0 27277.01268985 0 3703.11997682 0 -12783.87966985 0 2151
0.04550000 0.04548030 45626.92538217 0 474.54542785 0 23815.79151677 0 6055.93430327 0 -12678.32995948 0 2274
0.04650000 0.04648670 44980.81277815 0 1578.78311712 0 24574.76025412 0 4737.50713838 0 -12479.03322202 0 2311
0.04750000 0.04749250 43020.44329066 0 2320.87963773 0 22806.83070715 0 2150.20159703 0 -7311.00916064 0 2568
0.04850000 0.04851840 39995.02214642 0 2575.16563857 0 18580.90806484 0 3735.98763956 0 -2434.20787840 0 2493
0.04950000 0.04949480 39842.26170298 0 580.28398114 0 20168.53757408 0 2186.23912327 0 -2784.71384949 0 2644
0.05050000 0.05050630 38913.33432657 0 121.77334156 0 21244.94228808 0 2884.35097757 0 2567.93790015 0 2829
0.05150000 0.05149060 40733.87011897 0 -443.99221509 0 23865.81241252 0 3251.93149713 0 3184.59999925 0 2784
0.05250000 0.05249300 39408.82221080 0 46.74087387 0 21360.60858410 0 3656.65112670 0 7522.43456024 0 3055
0.05350000 0.05348950 39456.37016339 0 1041.72955462 0 22389.12812599 0 2405.49925643 0 5792.46469079 0 3009
0.05450000 0.05448610 39120.38711304 0 431.13291066 0 20515.42405564 0 3378.10780158 0 8299.41082007 0 3336
0.05550000 0.05550870 39427.25687800 0 -348.91991528 0 20794.52941329 0 3024.34204178 0 6339.69329033 0 3349
0.05650000 0.05647670 39574.05977654 0 -809.75062516 0 16246.67453404 0 1508.47284680 0 1891.76779607 0 3324
0.05750000 0.05747970 39529.32198663 0 -509.08007909 0 14411.41348919 0 2630.93050684 0 1553.54785623 0 3639
0.05850000 0.05849280 38720.55716654 0 839.29330342 0 11122.47776986 0 1143.01681023 0 -4853.51065393 0 3846
0.05950000 0.05951020 37981.82160050 0 1932.20041675 0 10181.98376384 0 1312.66071106 0 905.92788095 0 3787
0.06050000 0.06049470 35289.46093741 0 1406.80116094 0 8719.13671836 0 2477.68671543 0 -4894.52778845 0 3930
0.06150000 0.06148310 34346.03312156 0 1128.97723747 0 6863.09171031 0 1363.41224911 0 1442.25417334 0 4083
0.06250000 0.06249100 33116.86796412 0 484.00780763 0 6740.42248889 0 3799.60972269 0 -1055.69044283 0 4303
0.06350000 0.06350600 31690.54179287 0 191.78573464 0 6330.43099412 0 1058.56467722 0 2675.25239267 0 4470
0.06450000 0.06451750 32410.61787870 0 378.75822264 0 7124.06589834 0 558.03760928 0 3428.55584206 0 4479
0.06550000 0.06550280 31966.27495530 0 117.69073722 0 7426.30451519 0 -398.95092761 0 5385.08102700 0 4636
0.06650000 0.06648880 32508.97357259 0 -224.60281445 0 7472.13264822 0 -348.65913218 0 4790.43936268 0 4653
0.06750000 0.06749660 32548.31585015 0 137.36524819 0 9489.51471621 0 -417.35749319 0 4621.60478870 0 5220
0.06850000 0.06852730 32302.37041216 0 575.87877012 0 8501.49523891 0 244.71233861 0 5211.40173255 0 5029
0.06950000 0.06949320 31461.00770494 0 1195.93779387 0 10406.94290692 0 -212.98335379 0 5341.52350541 0 5040
0.07050000 0.07048030 29460.50909435 0 1800.78596906 0 10019.53387948 0 -411.29878244 0 4890.33502572 0 5475
0.07150000 0.07148790 29180.39207813 0 1483.81085909 0 10085.97736595 0 -569.56602067 0 3649.88425496 0 5509
0.07250000 0.07249820 27827.35494964 0 1056.81001165 0 10778.51385749 0 59.23541919 0 4849.55394487 0 5916
0.07350000 0.07351270 27438.31602784 0 369.20479358 0 9647.98541022 0 328.24723452 0 4570.03268314 0 5721
0.07450000 0.07449140 27265.54722611 0 -386.63791880 0 10381.88749644 0 1608.57084156 0 3482.53344687 0 6028
0.07550000 0.07549160 27943.13365217 0 -349.11437853 0 8537.16182368 0 2088.19816760 0 4275.77492831 0 6183
0.07650000 0.07648840 27673.58284764 0 -406.13819969 0 6304.52129419 0 2280.28964794 0 3184.85853421 0 6330
0.07750000 0.07749960 28456.71898407 0 381.60772760 0 6763.04991881 0 1624.25154933 0 4847.09224236 0 6583
0.07850000 0.07848650 27372.44581456 0 584.13615215 0 5992.48082990 0 738.72769759 0 3769.57470394 0 6549
0.07950000 0.07947320 27265.88444563 0 1013.19403868 0 7968.93568858 0 -899.90064403 0 5947.22597005 0 6828
0.08050000 0.08048110 26597.85257269 0 854.43221182 0 7433.58845686 0 -1711.24294533 0 5630.21713814 0 7147
0.08150000 0.08149960 26038.85501183 0 599.92139797 0 8186.76825909 0 -987.91493925 0 4728.90804058 0 7386
0.08250000 0.08250610 25492.78419932 0 427.93269739 0 10183.96211837 0 -1352.72239027 0 3991.56631523 0 7227
0.08350000 0.08350160 25267.18433915 0 315.65658163 0 10995.34601009 0 -1315.74064936 0 3311.64183381 0 7798
0.08450000 0.08449610 25429.61174221 0 132.33393293 0 10668.29927707 0 368.93389390 0 2360.71650392 0 7371
0.08550000 0.08548940 25397.35107462 0 -100.12924377 0 10167.30347399 0 1012.54657720 0 543.35394723 0 8256
0.08650000 0.08650700 25208.50814234 0 4.59254771 0 10398.23140261 0 1566.81182409 0 1179.29039014 0 8037
0.08750000 0.08749060 25028.54532413 0 331.63853884 0 8376.84766296 0 1906.31319812 0 -477.83331818 0 8155
0.08850000 0.08849210 24252.26598465 0 946.77640570 0 7721.42780013 0 1081.98457302 0 560.58698887 0 8718
0.08950000 0.08949900 23273.31771249 0 1529.18936609 0 7707.16341435 0 243.12740686 0 734.16624152 0 8571
0.09050000 0.09049190 21563.38992329 0 1206.09934213 0 6631.09591988 0 242.09888731 0 327.77625125 0 8932
0.09150000 0.09150830 20885.35387120 0 927.29298579 0 7517.39874871 0 225.08616243 0 583.88660970 0 9285
0.09250000 0.09250820 20120.65240197 0 508.70688948 0 6336.28737316 0 -404.73873868 0 -1252.01740037 0 9204
0.09350000 0.09350330 19846.60533715 0 292.19284730 0 7135.19414256 0 -438.50115721 0 -816.61978683 0 9349
0.09450000 0.09448040 19725.76834179 0 407.88050055 0 6666.32411927 0 -656.33822399 0 -2433.34234829 0 9564
0.09550000 0.09549270 19636.06794895 0 85.49504058 0 6590.30359837 0 233.56273715 0 -1996.30584787 0 10155
0.09650000 0.09649430 19309.52704522 0 -144.89536012 0 6175.56854900 0 870.05559227 0 -1959.93110211 0 9913
0.09750000 0.09749140 19463.52396023 0 -188.85754513 0 5757.33765726 0 1794.72725831 0 -1924.52305230 0 10476
0.09850000 0.09850240 19566.60072744 0 -65.27029975 0 5065.12714459 0 1570.97086486 0 -2084.23021789 0 10575
0.09950000 0.09950330 19369.10249409 0 466.56231770 0 4990.05083836 0 607.12890322 0 -1651.84734687 0 10882
0.10050000 0.10051200 18648.46437573 0 547.40732588 0 5036.18246896 0 -185.11328437 0 -1505.56151826 0 10875
0.10150000 0.10150300 18460.85791503 0 587.15988719 0 5082.28037761 0 -835.35457940 0 -734.60237877 0 11118
0.10250000 0.10250800 17811.82274182 0 210.18218363 0 5546.80026906 0 -110.90925263 0 -961.44208271 0 11575
0.10350000 0.10349800 18243.80094941 0 259.37464342 0 5872.90278742 0 -353.06546727 0 -1098.53530716 0 11364
0.10450000 0.10450100 17775.85265948 0 377.75668066 0 6713.33252062 0 -208.19371251 0 -258.97672439 0 12093
0.10550000 0.10551000 17469.20770754 0 323.53515373 0 6779.21397456 0 -143.79152822 0 -432.34914907 0 12067
0.10650000 0.10649700 17199.99412253 0 297.71088274 0 7033.81471362 0 543.49108317 0 261.87793634 0 12054
0.10750000 0.10749900 16985.97213262 0 242.27086927 0 7213.66512531 0 371.88119252 0 -173.89511494 0 12807
0.10850000 0.10850100 16731.14658054 0 241.15804485 0 7246.74636041 0 391.97160758 0 -190.73585786 0 12736
0.10950000 0.10950300 16719.00667775 0 295.08619079 0 7187.87907254 0 -32.19052594 0 -607.29863704 0 12933
0.11050000 0.11050200 16203.17321571 0 323.35305519 0 6271.61990950 0 -173.32746208 0 -1290.21313155 0 13428
0.11150000 0.11150900 16107.51527799 0 248.94781580 0 6125.54765325 0 106.06621827 0 -1190.26126525 0 13453
0.11250000 0.11250000 15825.93697718 0 198.80102476 0 5357.01312212 0 336.47876305 0 -1979.04020835 0 13668
0.11350000 0.11349100 15685.54124955 0 194.87691359 0 4717.80227765 0 513.21663856 0 -1837.77895061 0 13791
0.11450000 0.11448600 15468.25947092 0 216.80517504 0 5078.66088807 0 373.05921272 0 -1763.18599236 0 14205
0.11550000 0.11549300 15260.86946493 0 294.55788021 0 4200.76606598 0 621.15161500 0 -1340.11038015 0 14776
0.11650000 0.11649800 15017.73418962 0 328.12246329 0 4934.25224813 0 132.53626464 0 -978.65713931 0 14553
0.11750000 0.11747300 14576.65105493 0 348.57707543 0 4284.94729930 0 168.00164176 0 -1087.01251609 0 14568
0.11850000 0.11849100 14590.70186835 0 198.06363808 0 4464.32560367 0 175.61156231 0 -869.39689014 0 16015
0.11950000 0.11950300 14266.63390777 0 243.59052167 0 4545.95520928 0 51.88976634 0 -639.16475780 0 15270
0.12050000 0.12050700 14238.53228095 0 -72.49736374 0 3867.88543523 0 336.77214403 0 -864.19584104 0 15999
0.12150000 0.12150000 14203.79867019 0 -246.22757833 0 3453.68993710 0 796.72720723 0 -856.44316424 0 15670
0.12250000 0.12250700 14257.19176116 0 -94.99260360 0 2624.44465137 0 748.60148519 0 -679.16798562 0 16887
0.12350000 0.12352200 14368.92382943 0 -101.34964122 0 2830.28344756 0 1192.62180191 0 -294.48931224 0 16407
0.12450000 0.12449800 14243.36576076 0 85.39443676 0 2228.79622694 0 727.58484052 0 349.51566976 0 16306
0.12550000 0.12549900 14217.51226408 0 155.86173897 0 2664.55129318 0 580.51778668 0 904.61272481 0 17523
0.12650000 0.12650100 14126.01336713 0 178.61281605 0 2194.54596416 0 240.57577914 0 1340.23402731 0 17154
0.12750000 0.12750600 13922.66999541 0 233.33792413 0 2912.93595238 0 -339.80037534 0 1266.19186094 0 18007
0.12850000 0.12850300 13852.19111532 0 338.49308766 0 3077.17310021 0 -559.25834395 0 1628.95014133 0 17496
0.12950000 0.12949900 13531.15813045 0 273.88744758 0 3216.59089123 0 -488.21518320 0 1383.46557002 0 18405
0.13050000 0.13049000 13539.81343151 0 307.52059863 0 3516.76122835 0 -4.78427949 0 1828.11199098 0 18100
0.13150000 0.13148800 13169.99602246 0 220.13802798 0 3498.42772701 0 103.92611077 0 1496.54651637 0 19059
0.13250000 0.13249300 13037.91837637 0 216.14310071 0 3253.79744515 0 543.81593797 0 1190.94694495 0 18957
0.13350000 0.13349100 12881.11129867 0 183.74866937 0 3282.24753215 0 283.26777062 0 1194.69008164 0 19468
0.13450000 0.13450700 12704.52067569 0 313.49612856 0 3137.83889221 0 -331.80827267 0 786.09917196 0 19953
0.13550000 0.13551000 12433.39618006 0 308.00619474 0 3178.56376981 0 -443.16153100 0 163.94713904 0 19956
0.13650000 0.13649900 12248.93710156 0 250.88345586 0 3301.61517336 0 -694.42716899 0 130.69167385 0 19723
0.13750000 0.13749600 12020.52707871 0 247.12570632 0 3053.20803285 0 -344.12015741 0 -863.23588947 0 20946
0.13850000 0.13851100 11905.08559570 0 195.79864695 0 3535.52187442 0 -66.41819501 0 -477.45113606 0 20955
0.13950000 0.13949800 11815.49760937 0 109.07365437 0 3216.08506195 0 592.94432606 0 -927.88874028 0 20506
0.14050000 0.14048300 11599.45230232 0 114.08698459 0 3287.81165426 0 722.49170167 0 -469.89292251 0 21447
0.14150000 0.14148400 11622.38322982 0 72.03773353 0 3120.56201203 0 792.52770011 0 -494.21993882 0 21771
0.14250000 0.14249400 11552.80360179 0 -20.15617286 0 2892.46672740 0 771.17046373 0 294.76246005 0 22470
0.14350000 0.14350900 11504.35639714 0 -9.29673756 0 2626.58037501 0 343.53676764 0 506.04510339 0 22519
0.14450000 0.14449900 11404.08979262 0 147.51780393 0 2452.78867406 0 233.55936495 0 609.70076410 0 22218
0.14550000 0.14550500 11282.91557774 0 174.19074405 0 2636.79812652 0 -124.77796750 0 790.82811372 0 23559
0.14650000 0.14650700 10994.15450111 0 225.83366571 0 2504.95653410 0 -592.12038636 0 314.43247477 0 23044
0.14750000 0.14750500 11095.78122437 0 78.56675310 0 2695.13710382 0 -295.90563423 0 488.18820564 0 23649
0.14850000 0.14849900 10948.86591932 0 134.04363590 0 3119.33678110 0 -400.49876522 0 -63.63366101 0 23640
0.14950000 0.14949500 10871.40659513 0 166.30767570 0 3243.59093428 0 -423.21162409 0 85.81674801 0 24457
0.15050000 0.15050000 10761.59667814 0 177.72368058 0 3810.64804171 0 -115.16383893 0 59.70606524 0 24591
0.15150000 0.15149900 10623.96615059 0 166.70784286 0 3506.77953050 0 -26.14350547 0 44.92708247 0 25020
0.15250000 0.15250500 10729.53834225 0 64.13229627 0 3777.19586513 0 252.34923672 0 181.72872443 0 25297
0.15350000 0.15350100 10399.01824816 0 104.51084942 0 3552.95612370 0 399.17124437 0 87.71990258 0 25452
0.15450000 0.15450400 10453.87262373 0 99.49605791 0 3218.99639048 0 395.27186263 0 428.87691206 0 26061
0.15550000 0.15549900 10320.32245239 0 127.29587327 0 2968.29615723 0 279.93491767 0 86.22759379 0 26128
0.15650000 0.15649500 10375.80630440 0 97.14766116 0 2605.04328821 0 235.03638646 0 197.65223026 0 26331
0.15750000 0.15749700 10202.94757746 0 73.65166616 0 2690.10129229 0 207.13371915 0 88.47853410 0 27345
0.15850000 0.15849900 10269.04260376 0 49.30711443 0 2460.07261573 0 171.14677583 0 -23.16754319 0 26980
0.15950000 0.15949700 9996.46806418 0 218.98698535 0 2567.49951477 0 -224.35214794 0 72.88179399 0 27777
0.16050000 0.16050000 9954.84393452 0 295.09068706 0 2954.04301210 0 -78.66713211 0 415.03742288 0 28224
0.16150000 0.16150500 9548.39324474 0 262.63330807 0 2794.17847741 0 72.28041918 0 284.73355147 0 28075
0.16250000 0.16249700 9409.25646999 0 229.81398013 0 3037.32499337 0 112.84264456 0 402.63898512 0 28590
0.16350000 0.16349900 9189.37810104 0 165.83781649 0 2835.79136641 0 233.66839927 0 -0.85343966 0 29163
0.16450000 0.16449100 9064.04484539 0 110.97141343 0 2535.00279350 0 455.81400747 0 300.78969698 0 28996
0.16550000 0.16550500 8928.17910001 0 31.22720217 0 2384.98506885 0 322.41558492 0 -154.58592511 0 30777
0.16650000 0.16650700 8880.57494416 0 100.70521471 0 1962.55017373 0 30.90032405 0 -57.77053759 0 29211
0.16750000 0.16749900 8873.36968704 0 46.08217174 0 2014.27964839 0 80.32096905 0 -96.47367174 0 30922
0.16850000 0.16850800 8865.61363804 0 79.21916047 0 1921.64544572 0 -161.35054872 0 -23.51881352 0 30867
0.16950000 0.16949900 8823.30382869 0 58.83232945 0 2011.09854423 0 125.30852622 0 86.98645012 0 30852
0.17050000 0.17049200 8711.54927912 0 30.22498575 0 1974.49898545 0 66.56016443 0 9.25819336 0 31257
0.17150000 0.17149500 8748.78955499 0 21.55923088 0 1981.44570761 0 168.16463120 0 70.21270147 0 32608
0.17250000 0.17250900 8821.01073594 0 68.80211221 0 2015.22386305 0 123.11659933 0 331.38112794 0 32361
0.17350000 0.17350400 8695.05924450 0 80.41932474 0 1936.97769331 0 8.00135373 0 121.34844497 0 32508
0.17450000 0.17449800 8623.10783917 0 94.58850221 0 1946.41983993 0 63.20381852 0 336.87218582 0 32791
0.17550000 0.17549800 8570.38918724 0 95.81159742 0 1923.14045226 0 -70.18673557 0 145.95422942 0 33633
0.17650000 0.17650100 8463.54680204 0 146.27796016 0 1891.21700419 0 -22.64597700 0 165.50284510 0 33984
0.17750000 0.17750300 8432.76990034 0 171.14902396 0 2342.56285299 0 -292.26928372 0 81.03070374 0 34069
