### header ###
fiducial parameters:
Omega_m = 0.31
Omega_nu = 0
Omega_de = 0.69
Omega_k = 0
H_0 = 100
w_de = -1
zeff = 0
beta = 0
fgrowth = 0
b_1 = 2
gamma = 0.55
Lx = 3500 Ly = 3500 Lz = 3500
nx = 700 ny = 700 nz = 700
xoffset = 857.220397 yoffset = 15.9954215 zoffset = 262.898189
bins = 400 dk = 0.001
kx_ny = 0.628318531 ky_ny = 0.628318531 kz_ny = 0.628318531
############################
A(data) = 3.03710611 (not used)
A(ran) = 3.03273612 (used)
Ngal = 185379
weighted Ngal = 0
Nran = 9360983
weighted Nran = 0
SN(data) = 3458.62653
SN(ran) = 68.1038558
SN(data+ran) = 3526.73039
############################
13 columns: k_central k_mean P_0(k) sigma^{lin}_{P_0(k)} P^img_1(k) sigma^{lin}_{P_1(k)} P_2(k) sigma^{lin}_{P_2(k)} P^img_3(k) sigma^{lin}_{P_3(k)} P_4(k) sigma^{lin}_{P_4(k)} N_modes
### header ###
0.00050000 0 0 0 0 0 0 0 0 0 0 0 0
0.00150000 0.00179520 9507.67960779 0 -8589.72310650 0 17150.64766582 0 122.29603182 0 24541.93755399 0 3
0.00250000 0.00253879 17279.01589717 0 -7689.00976342 0 2269.34125413 0 13939.98059753 0 -1538.21560863 0 6
0.00350000 0.00331552 26827.27425411 0 -7253.80548907 0 25017.97911245 0 4099.86998502 0 -4925.72059422 0 7
0.00450000 0.00420575 35228.42420394 0 -4827.02768081 0 16408.31509155 0 28800.57048993 0 43.33911574 0 24
0.00550000 0.00557378 43809.31215896 0 -2206.71958891 0 22974.54121606 0 41923.01855980 0 11492.21649435 0 45
0.00650000 0.00659388 41877.38151783 0 2960.89980905 0 -2177.43769375 0 32900.03581152 0 -28957.48997414 0 40
0.00750000 0.00754703 46734.57910520 0 -3316.03692825 0 6936.51564089 0 35396.69674538 0 13030.94917292 0 57
0.00850000 0.00846663 39408.37258477 0 2628.59245149 0 -2598.42254493 0 16822.87029051 0 -7228.25548996 0 75
0.00950000 0.00948925 44248.37197652 0 -950.72075005 0 -15954.08039551 0 11112.56351591 0 5203.13985427 0 112
0.01050000 0.01054430 40287.84109796 0 -1411.48851229 0 -11623.84451441 0 -7913.69913089 0 -1817.65818580 0 105
0.01150000 0.01145670 47953.29045745 0 -3222.45851091 0 -18431.18259710 0 -14327.10860871 0 -12939.56268247 0 144
0.01250000 0.01249090 51536.24787796 0 -3645.56784508 0 -6440.35331762 0 -24740.11022637 0 -19601.22193169 0 169
0.01350000 0.01339930 56394.00749786 0 -808.29046463 0 -5250.60912230 0 -21352.06568955 0 -26857.06197854 0 180
0.01450000 0.01448870 63700.31806650 0 -1821.50248835 0 23377.40613826 0 -28131.07733239 0 -20178.65415974 0 267
0.01550000 0.01550050 71768.18272216 0 -2544.93952875 0 34917.84502424 0 -24990.77673768 0 -35980.31133134 0 238
0.01650000 0.01653350 77067.02547675 0 -3342.19392250 0 62773.07678770 0 -9054.23175731 0 -13509.35126803 0 315
0.01750000 0.01747870 80816.11971506 0 -3264.49854464 0 44374.82929724 0 8471.92108684 0 -27872.42995907 0 297
0.01850000 0.01844180 86193.08499223 0 -5769.69113241 0 53645.44358112 0 12360.33195031 0 397.99659637 0 388
0.01950000 0.01947590 96040.45706511 0 -3625.93042825 0 59345.24034728 0 19836.82597101 0 -26247.48148940 0 399
0.02050000 0.02045430 94591.42477938 0 237.50932962 0 38554.53275524 0 18603.95139883 0 -13805.54241479 0 462
0.02150000 0.02154770 93688.91293219 0 4553.95855260 0 36728.26423098 0 9315.31835183 0 -17219.89007433 0 571
0.02250000 0.02255340 85545.17388409 0 6624.08175382 0 25540.89418445 0 -5975.74350096 0 -26959.35190019 0 510
0.02350000 0.02348930 81479.20570168 0 11312.70330218 0 32090.37173937 0 -5945.12396837 0 -25222.55895575 0 555
0.02450000 0.02439640 73207.43564176 0 7675.77951751 0 30424.39489453 0 -1191.11555471 0 -21987.05004934 0 592
0.02550000 0.02547300 69458.22899694 0 4245.60502175 0 38146.27232069 0 1599.24110145 0 -8616.97044387 0 837
0.02650000 0.02652900 66351.08832188 0 2020.12478677 0 37533.43204284 0 5457.17856079 0 -8131.32936969 0 723
0.02750000 0.02749970 67445.70289006 0 278.65685569 0 40385.74716583 0 18045.85309004 0 3896.27931898 0 826
0.02850000 0.02848090 63369.61812199 0 2284.68474238 0 32983.66625296 0 13053.54288089 0 3539.22004851 0 831
0.02950000 0.02946900 62349.30425514 0 2677.47804152 0 26277.94365288 0 13376.93640242 0 13577.24479844 0 996
0.03050000 0.03053250 57296.18212553 0 2840.17522020 0 19657.31277884 0 12817.93884156 0 13095.13328859 0 1041
0.03150000 0.03150510 55315.69187324 0 1725.02398313 0 17041.27613421 0 6876.23203102 0 10954.04785930 0 1036
0.03250000 0.03246190 52219.79184891 0 625.38596813 0 5319.12088851 0 6314.32314163 0 9887.87213747 0 1059
0.03350000 0.03345080 51775.33651900 0 955.50589506 0 6441.62351116 0 -2051.13774214 0 1033.19228039 0 1302
0.03450000 0.03451200 50391.94963354 0 774.74049440 0 4282.53055940 0 -5880.92861204 0 -1628.52299660 0 1339
0.03550000 0.03553350 49636.35309140 0 585.98861139 0 10355.98903716 0 -6009.85887593 0 -4209.89347437 0 1365
0.03650000 0.03647120 50378.46085266 0 994.57614887 0 11664.31085704 0 -5159.24511316 0 -210.23501469 0 1308
0.03750000 0.03744890 51009.39857819 0 -523.23767868 0 16826.91692477 0 -2963.28282701 0 -769.24718838 0 1579
0.03850000 0.03847530 52309.49224174 0 58.64955647 0 19865.71444339 0 2001.12808704 0 -1271.82342696 0 1662
0.03950000 0.03950240 53898.69544209 0 463.73529404 0 25887.55585299 0 2618.59951299 0 8500.52854295 0 1683
0.04050000 0.04050350 52928.85209702 0 906.58883121 0 18806.17070548 0 5374.72838767 0 6377.19210117 0 1822
0.04150000 0.04152450 52405.48739898 0 1906.20079161 0 25598.33390969 0 5178.23057225 0 18572.58998329 0 1887
0.04250000 0.04250150 50418.47756927 0 2111.62368372 0 19321.10491547 0 4292.55721985 0 8854.75516943 0 1920
0.04350000 0.04349210 49182.68042790 0 1538.36173709 0 21962.54543075 0 1325.72234721 0 13443.03142871 0 2005
0.04450000 0.04448520 47284.24692594 0 1041.54408389 0 20360.52788857 0 87.71001081 0 8011.30170118 0 2151
0.04550000 0.04548030 47673.51066076 0 977.76350757 0 16101.78254612 0 132.91395050 0 9645.26517274 0 2274
0.04650000 0.04648670 46416.58109602 0 -310.16215156 0 17883.76290650 0 1711.52396160 0 5348.56015277 0 2311
0.04750000 0.04749250 46217.39676507 0 968.85866407 0 15266.60219680 0 2321.36298571 0 3042.77670897 0 2568
0.04850000 0.04851840 46525.72781462 0 658.51441397 0 12166.20591218 0 2383.72611597 0 -221.61055323 0 2493
0.04950000 0.04949480 43179.27368549 0 2511.74588714 0 15391.26101341 0 1478.80876952 0 -1406.85736419 0 2644
0.05050000 0.05050630 42131.64503736 0 3188.71407742 0 12885.15793294 0 -4166.07741782 0 -1488.28463808 0 2829
0.05150000 0.05149060 39045.52437917 0 2183.19290693 0 18402.63134424 0 -271.67079126 0 -478.03564990 0 2784
0.05250000 0.05249300 38293.97447130 0 2207.03432713 0 17704.13730782 0 -2796.12310998 0 1234.66183564 0 3055
0.05350000 0.05348950 37468.34867511 0 -185.50445901 0 20599.95374914 0 517.87364015 0 1525.89585543 0 3009
0.05450000 0.05448610 38242.04266492 0 -295.82245342 0 21864.97658240 0 2112.95008051 0 1998.66638453 0 3336
0.05550000 0.05550870 38150.76858098 0 -109.32207275 0 19959.23665747 0 3503.47477918 0 -65.75870603 0 3349
0.05650000 0.05647670 37714.40651961 0 337.99849903 0 18867.65706498 0 2087.08534318 0 994.88077051 0 3324
0.05750000 0.05747970 37532.08316475 0 777.11901609 0 17187.74181324 0 749.52771481 0 -3660.03456257 0 3639
0.05850000 0.05849280 36938.12718012 0 745.64856624 0 18107.90148208 0 -594.80577782 0 -4444.00250715 0 3846
0.05950000 0.05951020 36078.89183825 0 301.95760059 0 17131.87577910 0 -1189.69923272 0 -4464.11203131 0 3787
0.06050000 0.06049470 36286.50665725 0 617.37138416 0 20126.49754035 0 -2245.25253961 0 -5829.51387560 0 3930
0.06150000 0.06148310 34596.81203937 0 729.95999002 0 17535.75235987 0 -504.59730757 0 -7177.77372753 0 4083
0.06250000 0.06249100 35476.95499160 0 977.59489781 0 21480.20910788 0 967.01744548 0 -4044.74583383 0 4303
0.06350000 0.06350600 34357.49858530 0 1443.00729694 0 18022.92216255 0 4310.08139434 0 -2439.92936962 0 4470
0.06450000 0.06451750 33818.39697625 0 120.59419730 0 19718.34951230 0 5713.89254218 0 -864.83093781 0 4479
0.06550000 0.06550280 33033.46233570 0 -138.07116106 0 13937.17043485 0 5551.28528871 0 -835.64796038 0 4636
0.06650000 0.06648880 33254.22871606 0 -197.83770100 0 12522.53454035 0 3959.39557283 0 -1304.54496124 0 4653
0.06750000 0.06749660 32642.51250328 0 227.53887242 0 11425.33462250 0 1616.66411008 0 -1308.27685728 0 5220
0.06850000 0.06852730 32538.64889052 0 773.15443858 0 9853.90289096 0 -1729.98111010 0 -1591.90095652 0 5029
0.06950000 0.06949320 31389.40475979 0 1096.53671946 0 9208.86938941 0 -1511.62022900 0 -3760.17751993 0 5040
0.07050000 0.07048030 30633.24618511 0 920.12707095 0 9736.07839000 0 -1970.62096095 0 -3000.99521021 0 5475
0.07150000 0.07148790 29875.85113886 0 769.12691342 0 10625.58480429 0 -58.47824896 0 -3648.56909882 0 5509
0.07250000 0.07249820 29317.52801705 0 168.86379967 0 10303.19170068 0 623.96739801 0 -3821.07936559 0 5916
0.07350000 0.07351270 29263.01086100 0 -111.60988239 0 9908.81346978 0 1889.77820089 0 -2852.37132624 0 5721
0.07450000 0.07449140 28898.13933828 0 19.53973557 0 9631.41669104 0 2417.08836734 0 -2967.28449867 0 6028
0.07550000 0.07549160 28860.59556483 0 151.20698550 0 9648.71605252 0 1509.83296554 0 -730.89296403 0 6183
0.07650000 0.07648840 29028.64329326 0 477.07682239 0 9512.67045672 0 1503.05485315 0 -1758.30754994 0 6330
0.07750000 0.07749960 27955.38596147 0 1033.87233976 0 9025.23087842 0 -433.06742665 0 665.35210181 0 6583
0.07850000 0.07848650 27545.21461629 0 1250.20765560 0 9345.46577710 0 -706.73455747 0 605.03814218 0 6549
0.07950000 0.07947320 26135.41220161 0 1230.64892333 0 10905.79174571 0 -577.83801554 0 1229.05275093 0 6828
0.08050000 0.08048110 25838.65902231 0 663.68623737 0 10400.17603518 0 19.89730067 0 150.33695914 0 7147
0.08150000 0.08149960 24751.01365758 0 445.58726343 0 9898.77556868 0 -78.25347616 0 -692.35551706 0 7386
0.08250000 0.08250610 24808.00375679 0 294.51066948 0 9621.45747449 0 890.61923872 0 -2116.67073590 0 7227
0.08350000 0.08350160 23839.39688330 0 548.65054185 0 9390.63071173 0 956.23653736 0 -1133.41729451 0 7798
0.08450000 0.08449610 23845.57924120 0 628.73343392 0 7721.22546842 0 1624.75737861 0 -539.18029361 0 7371
0.08550000 0.08548940 22464.21567287 0 466.82872112 0 7048.82098234 0 2429.01469776 0 -1755.28381490 0 8256
0.08650000 0.08650700 22302.91233488 0 446.70795631 0 5470.38632539 0 1498.43494569 0 718.94752449 0 8037
0.08750000 0.08749060 21567.99859009 0 270.30505219 0 5142.04691754 0 1639.75240668 0 -611.21825195 0 8155
0.08850000 0.08849210 21634.20602289 0 409.04840417 0 4362.32793894 0 730.90982500 0 1401.14711362 0 8718
0.08950000 0.08949900 21092.74387718 0 372.22178424 0 4584.99398927 0 78.33924233 0 1727.45196369 0 8571
0.09050000 0.09049190 20567.13104900 0 464.16918316 0 4156.05075737 0 -310.58704815 0 2108.34141371 0 8932
0.09150000 0.09150830 20580.84464289 0 391.42081569 0 4575.47315810 0 158.57635612 0 1888.30567565 0 9285
0.09250000 0.09250820 20098.95794606 0 197.62525270 0 4128.79217935 0 -87.15697079 0 851.78054231 0 9204
0.09350000 0.09350330 20338.15899361 0 95.30408204 0 4804.79367366 0 229.36547817 0 409.56435003 0 9349
0.09450000 0.09448040 20067.25931099 0 -84.54902742 0 4015.48641998 0 -329.69615440 0 -783.47672815 0 9564
0.09550000 0.09549270 20148.75402879 0 177.25044918 0 4533.60173412 0 -209.45378946 0 -570.19100085 0 10155
0.09650000 0.09649430 19761.96323714 0 226.47213467 0 4194.17904465 0 -420.22048693 0 -1843.90510526 0 9913
0.09750000 0.09749140 19324.25229768 0 743.37570666 0 4601.06811981 0 -123.76406081 0 -579.46678583 0 10476
0.09850000 0.09850240 19051.21689142 0 751.87476268 0 4580.55393223 0 417.62277254 0 -1139.89190933 0 10575
0.09950000 0.09950330 17981.33175484 0 804.27530419 0 5056.42688092 0 506.98931805 0 -404.84215266 0 10882
0.10050000 0.10051200 17520.80229440 0 594.42696789 0 4955.57576257 0 486.65160868 0 -54.32606498 0 10875
0.10150000 0.10150300 16945.05616395 0 463.77576038 0 5695.50283758 0 -302.91193183 0 18.91014672 0 11118
0.10250000 0.10250800 16867.38326740 0 219.10726031 0 6098.12046547 0 -166.99223132 0 1226.25382889 0 11575
0.10350000 0.10349800 16841.64217723 0 90.51489039 0 5711.34091446 0 -623.58971215 0 -48.12898183 0 11364
0.10450000 0.10450100 16878.51151163 0 -55.99721253 0 6274.63240390 0 -151.59703608 0 485.31172312 0 12093
0.10550000 0.10551000 17070.05220008 0 1.26351659 0 6288.32351649 0 -675.04491493 0 -624.30012127 0 12067
0.10650000 0.10649700 16950.11445678 0 72.70149395 0 6458.45076530 0 -323.44410446 0 -367.85591550 0 12054
0.10750000 0.10749900 17035.31858932 0 509.00251860 0 6778.38216641 0 -562.53724177 0 -969.03851448 0 12807
0.10850000 0.10850100 16541.85402223 0 456.56937920 0 7170.90568993 0 -200.63325083 0 -810.41269949 0 12736
0.10950000 0.10950300 16193.61866259 0 477.54106126 0 7635.98761393 0 313.55457995 0 -682.40978929 0 12933
0.11050000 0.11050200 16110.66266019 0 160.30179601 0 7618.71073375 0 917.97336227 0 11.64531416 0 13428
0.11150000 0.11150900 15676.21150944 0 31.57791047 0 6896.53264624 0 1826.69566899 0 449.16965882 0 13453
0.11250000 0.11250000 15719.93764078 0 -36.86169076 0 6570.49757179 0 1343.30272496 0 658.56499690 0 13668
0.11350000 0.11349100 15808.62637505 0 -150.71689313 0 5604.32991951 0 976.16621111 0 781.04537539 0 13791
0.11450000 0.11448600 15761.07842246 0 -6.46109232 0 5042.84817484 0 1035.54944485 0 442.78272107 0 14205
0.11550000 0.11549300 15688.12659922 0 96.39094055 0 4150.45291331 0 -252.20423232 0 555.77374222 0 14776
0.11650000 0.11649800 15432.96382762 0 109.70279359 0 4270.08715904 0 -241.39072632 0 -425.74751489 0 14553
0.11750000 0.11747300 15438.13452696 0 296.02253700 0 4001.69414153 0 -208.23530292 0 -198.18616117 0 14568
0.11850000 0.11849100 15174.54126732 0 331.40023705 0 4170.89965699 0 -424.88872918 0 -849.04007166 0 16015
0.11950000 0.11950300 14791.45989040 0 447.95117228 0 4557.20710066 0 -382.22708746 0 -591.80564814 0 15270
0.12050000 0.12050700 14578.22474604 0 398.05954401 0 4584.87034211 0 -131.06149126 0 -553.95612900 0 15999
0.12150000 0.12150000 14356.89633314 0 422.00100600 0 5394.71426467 0 184.25337459 0 -195.13544856 0 15670
0.12250000 0.12250700 14192.78283247 0 371.88344065 0 5621.78665009 0 84.54486838 0 1173.42277046 0 16887
0.12350000 0.12352200 13850.16779819 0 285.51365263 0 5493.48586265 0 382.98583138 0 954.70780886 0 16407
0.12450000 0.12449800 13873.21113219 0 190.61445884 0 6053.20282515 0 65.79231557 0 2222.73751620 0 16306
0.12550000 0.12549900 13691.89943590 0 123.83375284 0 5444.29677505 0 65.26355536 0 1261.68436000 0 17523
0.12650000 0.12650100 13796.10026817 0 15.49231446 0 6294.69696545 0 100.81402421 0 1818.33262485 0 17154
0.12750000 0.12750600 13597.59037627 0 28.09701816 0 5452.89587286 0 68.97060957 0 1014.02359870 0 18007
0.12850000 0.12850300 13522.39042288 0 139.78423623 0 5610.32118634 0 260.18959060 0 1116.48325418 0 17496
0.12950000 0.12949900 13476.64097440 0 36.88574575 0 4634.96992242 0 808.22189666 0 667.72275505 0 18405
0.13050000 0.13049000 13184.60886841 0 150.77759265 0 4742.01463933 0 975.71770914 0 27.42325356 0 18100
0.13150000 0.13148800 13119.30068766 0 81.35061266 0 3788.51520042 0 638.40938607 0 215.16741223 0 19059
0.13250000 0.13249300 12801.97711753 0 87.94055655 0 3827.67762757 0 617.85698027 0 118.69789952 0 18957
0.13350000 0.13349100 12910.56180359 0 145.78337153 0 3550.59558705 0 332.11851463 0 674.06135799 0 19468
0.13450000 0.13450700 12683.50065882 0 137.50238413 0 3561.15055809 0 260.23680133 0 686.21699770 0 19953
0.13550000 0.13551000 12597.17246121 0 282.74170816 0 3601.43705031 0 -40.43385715 0 939.26877508 0 19956
0.13650000 0.13649900 12324.24946146 0 339.28218134 0 4030.21167244 0 -441.74520901 0 987.66652087 0 19723
0.13750000 0.13749600 12043.23319318 0 319.08160791 0 3888.41086347 0 -184.85924566 0 487.64078595 0 20946
0.13850000 0.13851100 11930.37705984 0 187.20741760 0 4072.91490457 0 -278.92775537 0 695.51189178 0 20955
0.13950000 0.13949800 11776.82977086 0 73.60816484 0 4064.74295148 0 -300.70314397 0 -69.89908732 0 20506
0.14050000 0.14048300 11716.01785040 0 147.86064378 0 4105.16433151 0 -436.72401033 0 -257.59075215 0 21447
0.14150000 0.14148400 11611.03017258 0 200.70181880 0 4236.54505726 0 -248.04856375 0 -677.59766671 0 21771
0.14250000 0.14249400 11405.55107721 0 180.37535008 0 4294.27703941 0 -271.37066588 0 -278.48936999 0 22470
0.14350000 0.14350900 11389.81416619 0 180.82947237 0 4615.39994949 0 147.27950214 0 -236.61682195 0 22519
0.14450000 0.14449900 11507.39137284 0 11.06832031 0 4938.38880760 0 184.38264207 0 13.44348105 0 22218
0.14550000 0.14550500 11367.89489727 0 29.76670442 0 4780.37898027 0 661.92033114 0 1047.43081268 0 23559
0.14650000 0.14650700 11495.36387656 0 118.50231220 0 4896.76467794 0 717.66271812 0 1206.87494703 0 23044
0.14750000 0.14750500 11273.92305715 0 87.14674180 0 4644.90665766 0 633.45338316 0 1732.11683374 0 23649
0.14850000 0.14849900 11281.79151267 0 154.74217016 0 4506.61293172 0 575.55953564 0 1802.17980975 0 23640
0.14950000 0.14949500 11071.25412448 0 249.12541809 0 4024.98476985 0 599.63925764 0 2149.60584254 0 24457
0.15050000 0.15050000 10727.59370968 0 280.64307867 0 3770.71000966 0 258.48438388 0 2042.98827036 0 24591
0.15150000 0.15149900 10450.09576508 0 203.01289659 0 3370.30678997 0 320.88123609 0 2053.03741211 0 25020
0.15250000 0.15250500 10288.61257668 0 266.86428900 0 3412.98754080 0 201.62130403 0 1857.85475282 0 25297
0.15350000 0.15350100 9989.06047535 0 174.61788878 0 3224.57175325 0 244.09522688 0 1412.65753997 0 25452
0.15450000 0.15450400 10019.64628599 0 16.55107136 0 3092.66271692 0 224.71072470 0 1595.67781517 0 26061
0.15550000 0.15549900 9897.24684018 0 -88.32183943 0 2836.15106724 0 314.00645411 0 1032.68982331 0 26128
0.15650000 0.15649500 9975.14454974 0 -87.78824574 0 2639.78813962 0 190.21204354 0 510.34128010 0 26331
0.15750000 0.15749700 10094.44157595 0 33.58447903 0 2217.61177946 0 -11.47805327 0 601.88064339 0 27345
0.15850000 0.15849900 9994.30985924 0 122.04311718 0 2332.73852425 0 -164.63506687 0 305.13645661 0 26980
0.15950000 0.15949700 9890.46872779 0 278.68270918 0 2118.05333594 0 -264.48014698 0 385.36322901 0 27777
0.16050000 0.16050000 9715.01341053 0 249.31763321 0 2595.01662776 0 -205.99054497 0 487.73520741 0 28224
0.16150000 0.16150500 9497.64170669 0 297.98290649 0 2765.58226195 0 -91.88164111 0 392.57523052 0 28075
0.16250000 0.16249700 9335.49531990 0 225.17271544 0 3156.55457567 0 -149.64678318 0 530.30355173 0 28590
0.16350000 0.16349900 9268.98438952 0 79.50950647 0 3331.47034170 0 75.59191488 0 916.03097783 0 29163
0.16450000 0.16449100 9273.95275714 0 10.81899144 0 3269.10721144 0 249.47387826 0 900.06026127 0 28996
0.16550000 0.16550500 9311.59769644 0 -101.27983678 0 3152.49670076 0 317.97890007 0 835.73226526 0 30777
0.16650000 0.16650700 9343.49866322 0 -63.59330707 0 3243.92815381 0 262.98289231 0 803.23891620 0 29211
0.16750000 0.16749900 9439.35893265 0 21.36532966 0 2885.26147028 0 218.83860876 0 520.59500169 0 30922
0.16850000 0.16850800 9234.00348445 0 120.88757829 0 2820.93122615 0 -47.76984304 0 653.69891920 0 30867
0.16950000 0.16949900 9153.00335528 0 232.83097079 0 2580.74100133 0 -161.72935865 0 551.40450128 0 30852
0.17050000 0.17049200 9004.80661604 0 286.25665965 0 2760.17550895 0 -271.66067467 0 254.88063126 0 31257
0.17150000 0.17149500 8711.17833765 0 259.97039791 0 2774.12515650 0 -68.24378909 0 289.92111178 0 32608
0.17250000 0.17250900 8542.73718644 0 184.27023556 0 3066.43827876 0 -185.83268601 0 163.64588960 0 32361
0.17350000 0.17350400 8449.06884390 0 122.92663233 0 2754.92612506 0 -16.13190749 0 -170.51842346 0 32508
0.17450000 0.17449800 8368.11367734 0 111.77433311 0 2851.11237336 0 242.34280943 0 -130.89737776 0 32791
0.17550000 0.17549800 8103.39635262 0 104.61089121 0 2623.62408387 0 108.26073051 0 -308.55361444 0 33633
0.17650000 0.17650100 8173.40312537 0 61.77884123 0 2471.42567297 0 482.07666383 0 -41.84624492 0 33984
0.17750000 0.17750300 8056.54532038 0 22.07101771 0 2182.04636055 0 395.42698361 0 3.28510266 0 34069
0.17850000 0.17849800 8098.70900127 0 -9.05637872 0 1952.36614416 0 370.41878386 0 80.92627809 0 34536
