### header ###
fiducial parameters:
Omega_m = 0.31
Omega_nu = 0
Omega_de = 0.69
Omega_k = 0
H_0 = 100
w_de = -1
zeff = 0
beta = 0
fgrowth = 0
b_1 = 2
gamma = 0.55
Lx = 3500 Ly = 3500 Lz = 3500
nx = 700 ny = 700 nz = 700
xoffset = 857.220397 yoffset = 15.9954215 zoffset = 262.898189
bins = 400 dk = 0.001
kx_ny = 0.628318531 ky_ny = 0.628318531 kz_ny = 0.628318531
############################
A(data) = 3.04334576 (not used)
A(ran) = 3.03486192 (used)
Ngal = 185062
weighted Ngal = 0
Nran = 9360983
weighted Nran = 0
SN(data) = 3473.38562
SN(ran) = 68.1515932
SN(data+ran) = 3541.53721
############################
13 columns: k_central k_mean P_0(k) sigma^{lin}_{P_0(k)} P^img_1(k) sigma^{lin}_{P_1(k)} P_2(k) sigma^{lin}_{P_2(k)} P^img_3(k) sigma^{lin}_{P_3(k)} P_4(k) sigma^{lin}_{P_4(k)} N_modes
### header ###
0.00050000 0 0 0 0 0 0 0 0 0 0 0 0
0.00150000 0.00179520 14810.68140315 0 -4666.80344529 0 -902.21059775 0 7098.23488296 0 -36185.79042670 0 3
0.00250000 0.00253879 20981.12421542 0 -5019.44514002 0 3773.11550892 0 1568.41923715 0 24302.96131945 0 6
0.00350000 0.00331552 25863.72567344 0 -1951.18587584 0 9721.87020747 0 -8879.86678317 0 -19085.61328266 0 7
0.00450000 0.00420575 31081.07371023 0 468.00449318 0 13021.73183932 0 2991.03599366 0 7479.63016226 0 24
0.00550000 0.00557378 35822.04296904 0 -740.29127210 0 22187.80807140 0 12595.37395709 0 -500.77548633 0 45
0.00650000 0.00659388 40048.41523739 0 -589.41026547 0 37674.95183554 0 12461.61021339 0 37180.70042290 0 40
0.00750000 0.00754703 49450.20791530 0 -8163.28653972 0 30028.49917578 0 39292.70628875 0 -1102.49089215 0 57
0.00850000 0.00846663 52989.10198494 0 -9908.18399334 0 34204.40092235 0 28516.96887199 0 28780.89935115 0 75
0.00950000 0.00948925 69903.58357890 0 -3813.99775563 0 12297.04708669 0 31403.90519923 0 8420.59627560 0 112
0.01050000 0.01054430 63166.94918931 0 -810.45316583 0 27266.55888467 0 16322.54892647 0 47255.02123404 0 105
0.01150000 0.01145670 65937.43237498 0 4136.59319096 0 3651.26685500 0 18586.64079671 0 55944.26906211 0 144
0.01250000 0.01249090 64002.35435164 0 -4806.73830624 0 4421.59989024 0 35465.82674738 0 56330.72263425 0 169
0.01350000 0.01339930 63692.89923702 0 -10407.74099313 0 -14782.57977633 0 36775.69977706 0 51613.13392896 0 180
0.01450000 0.01448870 77817.56372606 0 -12317.28025801 0 -17760.22815497 0 16620.87579687 0 35679.06189175 0 267
0.01550000 0.01550050 72647.87604837 0 -7490.98321950 0 -16056.37031716 0 -1030.86321756 0 31906.92431944 0 238
0.01650000 0.01653350 86013.90901957 0 5422.41122808 0 -8549.52653948 0 -37519.60604244 0 28248.65453904 0 315
0.01750000 0.01747870 78435.23748372 0 6549.10661345 0 2158.72201028 0 -30946.86034051 0 27028.14468267 0 297
0.01850000 0.01844180 76202.95665506 0 5859.13299028 0 29170.50030549 0 -30898.52554236 0 27099.86003433 0 388
0.01950000 0.01947590 80840.39952063 0 2953.96432755 0 35020.13494590 0 -16455.63823113 0 -3710.01049572 0 399
0.02050000 0.02045430 77304.31561368 0 1717.22297152 0 45129.63899383 0 -513.40660555 0 7603.46841136 0 462
0.02150000 0.02154770 76411.47072612 0 3879.60943395 0 47512.76935530 0 10412.73184205 0 8911.93635970 0 571
0.02250000 0.02255340 73457.20290100 0 3531.07057673 0 38019.36537394 0 11880.35616409 0 6460.54152634 0 510
0.02350000 0.02348930 69353.12891261 0 6868.81320154 0 46980.07491716 0 16291.74954347 0 16445.18442595 0 555
0.02450000 0.02439640 62016.35618049 0 8803.18306388 0 30246.68020647 0 8674.82607318 0 779.35253339 0 592
0.02550000 0.02547300 54576.16946164 0 5663.66931471 0 33727.01048580 0 11908.00816489 0 23313.22202258 0 837
0.02650000 0.02652900 52487.43174281 0 1515.10483073 0 23613.12258409 0 5574.50847312 0 6434.37329143 0 723
0.02750000 0.02749970 53661.85493119 0 -3359.96539130 0 22766.70158404 0 11404.98904468 0 19130.57588558 0 826
0.02850000 0.02848090 54858.53460801 0 -3996.84942107 0 16906.83795147 0 2643.08165028 0 -2119.18864166 0 831
0.02950000 0.02946900 56994.48305991 0 -1486.44117136 0 10662.83632082 0 4357.53942173 0 366.14396439 0 996
0.03050000 0.03053250 55250.94572503 0 337.50166226 0 8766.36993274 0 5103.22170992 0 -4779.33359976 0 1041
0.03150000 0.03150510 52917.72385279 0 2017.32586474 0 4267.90647280 0 1045.03430594 0 -13387.72742712 0 1036
0.03250000 0.03246190 52763.72693778 0 1130.52844727 0 122.92213607 0 5499.56705469 0 -7709.35534125 0 1059
0.03350000 0.03345080 49353.20109949 0 729.69021440 0 3495.86485864 0 -2904.17948546 0 -14475.71001137 0 1302
0.03450000 0.03451200 50353.16938852 0 -43.55785880 0 -191.62386927 0 -3351.79343822 0 -8268.66764032 0 1339
0.03550000 0.03553350 50804.25670235 0 -251.88612191 0 7060.92716318 0 -4662.84673623 0 -9671.36596374 0 1365
0.03650000 0.03647120 51483.41681952 0 1337.03044185 0 2208.25955806 0 -5807.47095952 0 -6566.63078793 0 1308
0.03750000 0.03744890 50983.32026850 0 1499.45784491 0 8239.34078256 0 -6222.89168858 0 -9715.59792437 0 1579
0.03850000 0.03847530 50355.52992517 0 2465.59177524 0 11967.58361376 0 -8506.26127482 0 -11607.65797736 0 1662
0.03950000 0.03950240 48236.33004286 0 1892.07129364 0 13959.87654933 0 -4182.80350611 0 -12899.99559190 0 1683
0.04050000 0.04050350 48172.82036623 0 1772.25719750 0 19178.46105770 0 -1939.56304298 0 -8977.80657299 0 1822
0.04150000 0.04152450 46922.74759843 0 439.02497154 0 16781.61710233 0 607.84268454 0 -8442.75159819 0 1887
0.04250000 0.04250150 46504.48298473 0 1003.11005091 0 22554.25328523 0 2411.74905824 0 -5007.21531202 0 1920
0.04350000 0.04349210 47462.63605304 0 2061.38921560 0 22051.90860406 0 1970.35118533 0 -1350.11455930 0 2005
0.04450000 0.04448520 45630.85960992 0 2345.71023519 0 22173.53244497 0 3132.44337986 0 3916.98459763 0 2151
0.04550000 0.04548030 45747.53756451 0 1487.54275514 0 26020.08312511 0 3990.11627128 0 11734.45251760 0 2274
0.04650000 0.04648670 43230.53105283 0 71.24313193 0 21685.23857721 0 5795.78068276 0 8847.37006190 0 2311
0.04750000 0.04749250 44315.02903535 0 412.37451272 0 22385.08149172 0 7187.96899774 0 12492.40959639 0 2568
0.04850000 0.04851840 42299.13073326 0 133.78959720 0 13653.45641040 0 6753.64149415 0 12183.40410780 0 2493
0.04950000 0.04949480 41272.29728898 0 999.53889617 0 14575.75180288 0 6210.20099391 0 10269.55967369 0 2644
0.05050000 0.05050630 40423.96537831 0 433.55414682 0 10860.13222245 0 2421.30361136 0 11177.32090477 0 2829
0.05150000 0.05149060 38320.50240702 0 783.36881790 0 10872.50817890 0 90.44587279 0 6509.48331962 0 2784
0.05250000 0.05249300 38881.41087850 0 116.39581425 0 9627.52742589 0 -783.16311399 0 7591.49711833 0 3055
0.05350000 0.05348950 38608.03825272 0 -835.02747646 0 7722.93404733 0 -3057.53568338 0 4244.24490301 0 3009
0.05450000 0.05448610 39961.41260073 0 -184.38601427 0 11490.41799023 0 -2056.74682685 0 5069.03889104 0 3336
0.05550000 0.05550870 40035.15126953 0 745.14048883 0 11133.79710514 0 -1595.22818914 0 1221.27422062 0 3349
0.05650000 0.05647670 38461.90979322 0 2091.16569939 0 9687.15907802 0 -918.22740098 0 -487.31930334 0 3324
0.05750000 0.05747970 36403.97145739 0 2036.07527016 0 10971.38094273 0 943.58743309 0 -2842.02992757 0 3639
0.05850000 0.05849280 35422.88746159 0 1449.59431827 0 10106.40162833 0 871.18078141 0 -4194.99961216 0 3846
0.05950000 0.05951020 34276.22868052 0 729.06523422 0 12540.06995549 0 1231.17723391 0 -1077.04093483 0 3787
0.06050000 0.06049470 34436.29554693 0 612.84252598 0 13254.86293548 0 396.86803503 0 47.79468488 0 3930
0.06150000 0.06148310 34221.37430495 0 842.60592319 0 15035.49441777 0 1131.15792371 0 4341.08310906 0 4083
0.06250000 0.06249100 33617.52654768 0 1315.96546238 0 15985.32940454 0 1909.38189577 0 7133.59797016 0 4303
0.06350000 0.06350600 33405.52787490 0 972.01728692 0 19568.84885758 0 1116.18425287 0 11783.34934828 0 4470
0.06450000 0.06451750 33106.97619148 0 410.19607461 0 19704.18629238 0 3184.64496185 0 13512.16143071 0 4479
0.06550000 0.06550280 32622.27933196 0 56.58937001 0 18742.77343536 0 2599.34427829 0 13280.71643216 0 4636
0.06650000 0.06648880 33590.21176641 0 83.62313502 0 20972.35650785 0 2437.31029800 0 16682.69937589 0 4653
0.06750000 0.06749660 32778.41197061 0 93.19128932 0 17408.17097407 0 199.04831908 0 11943.41621469 0 5220
0.06850000 0.06852730 33489.38312935 0 313.10382985 0 18183.10143547 0 5.52491472 0 13523.28967493 0 5029
0.06950000 0.06949320 32145.45092795 0 796.50801454 0 17115.80164856 0 -1171.75915415 0 6215.49534040 0 5040
0.07050000 0.07048030 31181.45272126 0 827.76826422 0 13527.78593523 0 208.14425365 0 6323.43930937 0 5475
0.07150000 0.07148790 29782.66614430 0 992.54945955 0 13603.54792115 0 1283.77223869 0 363.05840577 0 5509
0.07250000 0.07249820 28492.68906641 0 803.65819247 0 9770.33989343 0 2136.84770396 0 -1763.98407856 0 5916
0.07350000 0.07351270 27517.67502200 0 267.50613016 0 7296.14902038 0 2774.81083620 0 -2568.98328066 0 5721
0.07450000 0.07449140 26965.64666460 0 195.97400110 0 5883.70505277 0 2495.87408831 0 -3350.07361866 0 6028
0.07550000 0.07549160 26398.66824173 0 393.59812974 0 4072.03813381 0 1390.10879460 0 -2623.11825458 0 6183
0.07650000 0.07648840 26077.07322432 0 781.34325264 0 5175.84755429 0 166.45942448 0 -1844.74815407 0 6330
0.07750000 0.07749960 25304.50329958 0 1056.84148547 0 5901.57768744 0 -473.50679172 0 508.37191809 0 6583
0.07850000 0.07848650 24947.27541935 0 612.72449915 0 5850.17419164 0 -100.66654687 0 -625.41969009 0 6549
0.07950000 0.07947320 24726.84625851 0 269.78461006 0 8148.12290188 0 -85.53618136 0 1471.92949127 0 6828
0.08050000 0.08048110 24819.01959451 0 -151.48013332 0 6953.79252106 0 128.32439281 0 -1398.87650217 0 7147
0.08150000 0.08149960 24642.76619104 0 -368.44829779 0 7219.80252061 0 736.35367215 0 -221.71958754 0 7386
0.08250000 0.08250610 25106.78025322 0 201.66963883 0 6915.40569882 0 -612.31421540 0 -1278.51161414 0 7227
0.08350000 0.08350160 24747.19183634 0 562.21013883 0 6134.96731856 0 -270.41745870 0 -1631.97387638 0 7798
0.08450000 0.08449610 24174.03105556 0 525.25425142 0 6364.45644389 0 1006.27429409 0 -1206.91990964 0 7371
0.08550000 0.08548940 23386.96069138 0 840.63656118 0 6060.02590014 0 790.67636494 0 -800.55352474 0 8256
0.08650000 0.08650700 23134.60808247 0 859.92551783 0 7008.50076817 0 1152.14421863 0 1563.69816384 0 8037
0.08750000 0.08749060 22176.11779464 0 458.99173943 0 6736.97160911 0 617.00044269 0 531.64343730 0 8155
0.08850000 0.08849210 22012.00429396 0 459.27050757 0 6333.78070804 0 765.39389331 0 3713.46137549 0 8718
0.08950000 0.08949900 21531.01684918 0 155.20640903 0 6982.99573166 0 170.33295272 0 3320.07232186 0 8571
0.09050000 0.09049190 21596.10021692 0 265.12198814 0 8243.93820871 0 3.53549939 0 3807.87160098 0 8932
0.09150000 0.09150830 21188.06459538 0 557.98815042 0 7462.66802031 0 -142.71579794 0 3400.76895346 0 9285
0.09250000 0.09250820 20746.64424118 0 631.35475367 0 8390.08914952 0 -198.38624475 0 2618.56579104 0 9204
0.09350000 0.09350330 20172.69661485 0 770.53873915 0 7970.99272766 0 -742.13811102 0 3646.12987761 0 9349
0.09450000 0.09448040 19782.19640846 0 583.64493571 0 8405.57876622 0 183.83185018 0 1973.52104884 0 9564
0.09550000 0.09549270 19193.52352967 0 734.14263615 0 7952.83907673 0 -228.48083895 0 2543.30963439 0 10155
0.09650000 0.09649430 18720.62935342 0 736.53577069 0 7981.59266130 0 586.81817141 0 1736.90535095 0 9913
0.09750000 0.09749140 18020.11199987 0 633.36570609 0 7639.95556363 0 1012.46789264 0 2092.68318724 0 10476
0.09850000 0.09850240 17274.40723037 0 396.34422071 0 6318.51590435 0 1068.72734955 0 1085.25447832 0 10575
0.09950000 0.09950330 17018.34520672 0 183.61827782 0 6299.96883064 0 1206.74005923 0 1754.55317260 0 10882
0.10050000 0.10051200 16789.93518387 0 -134.89342910 0 4579.28373870 0 1086.37179900 0 -135.90508766 0 10875
0.10150000 0.10150300 17001.59663713 0 -378.33782230 0 4488.22322712 0 438.63267282 0 -81.08072463 0 11118
0.10250000 0.10250800 17221.57617194 0 -245.96117491 0 3579.15808056 0 -47.27188221 0 -135.22840049 0 11575
0.10350000 0.10349800 17589.25785735 0 -51.15530222 0 4495.34979969 0 -799.96001838 0 -241.18502241 0 11364
0.10450000 0.10450100 17723.69604009 0 190.48181916 0 4633.45243457 0 -696.34707213 0 -240.50383898 0 12093
0.10550000 0.10551000 17679.40787621 0 460.80485639 0 5584.99600025 0 -1178.09888116 0 469.47589437 0 12067
0.10650000 0.10649700 17494.83639121 0 470.38076675 0 6633.36653132 0 -938.93492775 0 1027.34152169 0 12054
0.10750000 0.10749900 17172.00490221 0 244.21662591 0 7016.09944806 0 96.09283850 0 1262.04406082 0 12807
0.10850000 0.10850100 16880.08520273 0 -75.67071184 0 6949.88077461 0 373.78760689 0 1086.06380517 0 12736
0.10950000 0.10950300 17159.41537339 0 -180.20561626 0 7225.04066385 0 991.57939139 0 529.09967804 0 12933
0.11050000 0.11050200 17182.45870739 0 -90.95720999 0 6362.75910563 0 721.27995952 0 -375.66591962 0 13428
0.11150000 0.11150900 16845.35159197 0 290.03913862 0 6207.12105561 0 276.17042374 0 314.96190942 0 13453
0.11250000 0.11250000 16824.44398161 0 431.04748171 0 5767.76898113 0 -135.51503708 0 28.82069125 0 13668
0.11350000 0.11349100 16159.89671039 0 133.90874809 0 5414.52029126 0 613.56642389 0 484.67100602 0 13791
0.11450000 0.11448600 16198.90176843 0 123.04690729 0 4948.91005668 0 1252.68059876 0 708.68481038 0 14205
0.11550000 0.11549300 15849.09271768 0 75.91137418 0 4527.09339735 0 1871.65827192 0 588.28058007 0 14776
0.11650000 0.11649800 15691.38638793 0 433.91497171 0 3921.71691158 0 1300.44212372 0 716.97591436 0 14553
0.11750000 0.11747300 15329.10021487 0 354.40872503 0 3573.69512430 0 1088.32879630 0 2211.72167848 0 14568
0.11850000 0.11849100 14947.59252906 0 472.32427526 0 3336.80965080 0 103.79009890 0 2283.58315860 0 16015
0.11950000 0.11950300 14713.78699385 0 372.98502443 0 3466.93142366 0 105.97640547 0 2839.07363643 0 15270
0.12050000 0.12050700 14294.39831508 0 320.34730518 0 3860.55653096 0 -733.44234361 0 3182.67784797 0 15999
0.12150000 0.12150000 14310.24763261 0 324.44115018 0 3681.70653718 0 -510.17716660 0 2595.11779361 0 15670
0.12250000 0.12250700 14291.81296541 0 115.44373114 0 3874.52865981 0 -236.43472341 0 2652.13037412 0 16887
0.12350000 0.12352200 14139.27733499 0 -16.49396885 0 4221.25777226 0 -61.28099281 0 1729.68885318 0 16407
0.12450000 0.12449800 14199.07759688 0 188.62036740 0 4077.64721852 0 -67.85576183 0 1334.91719951 0 16306
0.12550000 0.12549900 14010.12225809 0 273.87508287 0 4004.93144894 0 -90.13709211 0 229.44303866 0 17523
0.12650000 0.12650100 13517.78175608 0 487.77230156 0 4278.07926171 0 -377.36100976 0 891.61853257 0 17154
0.12750000 0.12750600 13319.72149020 0 443.56282224 0 4229.00258062 0 -257.16360742 0 778.06323075 0 18007
0.12850000 0.12850300 12865.37438765 0 292.74701138 0 4951.84386652 0 -63.34275297 0 677.94050656 0 17496
0.12950000 0.12949900 12853.12207835 0 201.81239509 0 4639.14020384 0 259.51402749 0 730.33992401 0 18405
0.13050000 0.13049000 12632.58051101 0 134.27631737 0 4863.97569976 0 360.62930114 0 1109.05992844 0 18100
0.13150000 0.13148800 12593.91267250 0 -51.55603142 0 4774.17414107 0 856.97147482 0 1341.02087286 0 19059
0.13250000 0.13249300 12593.68785948 0 -80.32198071 0 4382.48242570 0 740.71954089 0 1141.30823132 0 18957
0.13350000 0.13349100 12646.18169839 0 75.83729829 0 4151.95916051 0 586.35842880 0 1295.76601302 0 19468
0.13450000 0.13450700 12456.77673358 0 192.45904962 0 3835.62476763 0 204.96876982 0 992.68097516 0 19953
0.13550000 0.13551000 12272.54246810 0 285.55074678 0 3958.59748663 0 87.81477367 0 1278.03950681 0 19956
0.13650000 0.13649900 12082.68787725 0 323.89485455 0 3541.54686321 0 -373.56279387 0 992.95524704 0 19723
0.13750000 0.13749600 11825.38938202 0 324.02524610 0 3803.83620737 0 -282.57759466 0 675.43496551 0 20946
0.13850000 0.13851100 11546.73365040 0 334.53300641 0 4054.49147802 0 -380.04864934 0 297.70076615 0 20955
0.13950000 0.13949800 11474.34385969 0 181.15320312 0 4265.17499467 0 -326.62633268 0 1064.87068228 0 20506
0.14050000 0.14048300 11394.42283299 0 150.80794240 0 4245.79611281 0 80.65380472 0 723.15377600 0 21447
0.14150000 0.14148400 11266.50422767 0 21.43434725 0 4216.25568269 0 219.66929285 0 729.52048057 0 21771
0.14250000 0.14249400 11300.00136685 0 38.27340408 0 4177.38551246 0 328.01005679 0 329.26226528 0 22470
0.14350000 0.14350900 11243.12367415 0 150.39316239 0 3782.69254334 0 381.87637915 0 416.07156274 0 22519
0.14450000 0.14449900 11045.32194324 0 127.04183456 0 3838.87331570 0 196.60572568 0 668.50398027 0 22218
0.14550000 0.14550500 10731.47173418 0 169.86084539 0 3335.42705076 0 251.64557198 0 -244.47066462 0 23559
0.14650000 0.14650700 10736.27149204 0 158.63255938 0 3394.93505573 0 230.14895152 0 200.51859619 0 23044
0.14750000 0.14750500 10520.85566143 0 80.76238940 0 3118.39256644 0 311.63242867 0 -111.61044443 0 23649
0.14850000 0.14849900 10524.30654121 0 54.69374667 0 3435.90722764 0 206.15465847 0 466.33413249 0 23640
0.14950000 0.14949500 10435.23562481 0 37.97148020 0 3182.65536667 0 231.07180895 0 349.62807627 0 24457
0.15050000 0.15050000 10559.89444142 0 72.55176848 0 3554.09142943 0 327.21084652 0 1436.17298130 0 24591
0.15150000 0.15149900 10462.93258822 0 167.55089167 0 3294.67969186 0 -15.34719766 0 1582.17779364 0 25020
0.15250000 0.15250500 10516.78654587 0 177.25944170 0 3722.34148957 0 344.59001661 0 2038.46952876 0 25297
0.15350000 0.15350100 10241.09834604 0 176.46697583 0 3642.69023849 0 221.80951274 0 2057.10652768 0 25452
0.15450000 0.15450400 10230.09374897 0 139.28290321 0 3623.30011598 0 355.46422213 0 2464.75996709 0 26061
0.15550000 0.15549900 10113.87666107 0 43.74299232 0 3524.49479605 0 358.70827393 0 2388.09872910 0 26128
0.15650000 0.15649500 10039.20501826 0 -19.93698017 0 3039.02233163 0 321.65459286 0 1901.20994269 0 26331
0.15750000 0.15749700 10083.02107481 0 -6.08815001 0 2899.00878613 0 -80.44427899 0 1407.90274471 0 27345
0.15850000 0.15849900 10053.19962842 0 118.46971431 0 3004.06390786 0 -214.42103302 0 1335.16449383 0 26980
0.15950000 0.15949700 9954.54043695 0 213.95004975 0 3032.05312818 0 -436.61160382 0 882.02014091 0 27777
0.16050000 0.16050000 9683.43842262 0 208.82318895 0 3029.33289070 0 -451.50434198 0 693.10976472 0 28224
0.16150000 0.16150500 9700.73778410 0 216.49605714 0 3059.46907531 0 -138.33306822 0 294.78831355 0 28075
0.16250000 0.16249700 9503.45312312 0 174.00190112 0 3344.97036323 0 -223.00664205 0 335.72563945 0 28590
0.16350000 0.16349900 9404.34430562 0 199.86101813 0 3393.32764267 0 214.29850993 0 384.19982166 0 29163
0.16450000 0.16449100 9155.38637323 0 213.38689315 0 3077.27426607 0 428.62849367 0 249.29402785 0 28996
0.16550000 0.16550500 8958.47265373 0 189.56008580 0 2954.67248855 0 528.31170842 0 329.15547910 0 30777
0.16650000 0.16650700 8823.62980756 0 99.77752381 0 2530.46157061 0 650.92472660 0 341.69892125 0 29211
0.16750000 0.16749900 8754.33119580 0 -21.78247021 0 2195.18668126 0 688.84730997 0 453.83677700 0 30922
0.16850000 0.16850800 8863.99498433 0 -103.61800454 0 1951.43317015 0 443.75728549 0 617.40510612 0 30867
0.16950000 0.16949900 8799.42868654 0 -80.47934982 0 1703.65550609 0 264.71507658 0 752.49075034 0 30852
0.17050000 0.17049200 8900.42593335 0 40.54131777 0 1547.57907069 0 57.14072393 0 884.94608229 0 31257
0.17150000 0.17149500 8811.74843974 0 108.03254530 0 1683.14131851 0 -259.86023953 0 611.24860171 0 32608
0.17250000 0.17250900 8768.55061898 0 169.68998750 0 1706.90405415 0 -219.14098226 0 928.55081461 0 32361
0.17350000 0.17350400 8699.88148366 0 187.12311272 0 2006.35498963 0 -339.79587908 0 461.51076926 0 32508
0.17450000 0.17449800 8476.14757151 0 168.85255902 0 2054.99328534 0 -324.53669571 0 192.33203027 0 32791
0.17550000 0.17549800 8397.86767982 0 181.26673369 0 2162.62251609 0 -261.17089941 0 -79.54356565 0 33633
0.17650000 0.17650100 8202.74122378 0 137.40459047 0 2238.30581746 0 -82.83179320 0 -218.39460305 0 33984
0.17750000 0.17750300 8237.36242803 0 131.53697079 0 2261.32667016 0 79.01289452 0 -306.72925682 0 34069
0.17850000 0.17849800 7984.84120936 0 59.80161077 0 2222.86116335 0 285.56535963 0 -172.37313083 0 34536
