### header ###
fiducial parameters:
Omega_m = 0.31
Omega_nu = 0
Omega_de = 0.69
Omega_k = 0
H_0 = 100
w_de = -1
zeff = 0
beta = 0
fgrowth = 0
b_1 = 2
gamma = 0.55
Lx = 3500 Ly = 3500 Lz = 3500
nx = 700 ny = 700 nz = 700
xoffset = 857.220397 yoffset = 15.9954215 zoffset = 262.898189
bins = 400 dk = 0.001
kx_ny = 0.628318531 ky_ny = 0.628318531 kz_ny = 0.628318531
############################
A(data) = 3.02918074 (not used)
A(ran) = 3.02947537 (used)
Ngal = 184818
weighted Ngal = 0
Nran = 9360983
weighted Nran = 0
SN(data) = 3442.57509
SN(ran) = 68.0306315
SN(data+ran) = 3510.60572
############################
13 columns: k_central k_mean P_0(k) sigma^{lin}_{P_0(k)} P^img_1(k) sigma^{lin}_{P_1(k)} P_2(k) sigma^{lin}_{P_2(k)} P^img_3(k) sigma^{lin}_{P_3(k)} P_4(k) sigma^{lin}_{P_4(k)} N_modes
### header ###
0.00050000 0 0 0 0 0 0 0 0 0 0 0 0
0.00150000 0.00179520 884.30199301 0 -4889.51445822 0 -5756.38220194 0 452.48227859 0 2458.42024007 0 3
0.00250000 0.00253879 3162.86058073 0 -3601.83047308 0 -3167.42428493 0 2797.51695068 0 -9580.47406193 0 6
0.00350000 0.00331552 7744.05523005 0 -4551.27203707 0 -8280.08814146 0 10611.27545591 0 8788.53649598 0 7
0.00450000 0.00420575 11722.08780180 0 -7812.83677188 0 -8884.97003860 0 17064.99390725 0 2762.00773502 0 24
0.00550000 0.00557378 26353.70563881 0 -15048.98319865 0 -9671.88303367 0 31104.11704423 0 6880.90814172 0 45
0.00650000 0.00659388 39811.68713300 0 -25335.07786957 0 -12529.95336984 0 35852.84235205 0 21933.20733234 0 40
0.00750000 0.00754703 55520.94615558 0 -17980.65731580 0 2984.89859836 0 27553.75751085 0 22595.84369293 0 57
0.00850000 0.00846663 68192.30691162 0 -12387.42191857 0 -1267.02366910 0 26795.46321254 0 44226.00308156 0 75
0.00950000 0.00948925 65606.05799143 0 4460.93092715 0 17762.70109813 0 23379.09223587 0 49674.12167786 0 112
0.01050000 0.01054430 74868.12938075 0 7372.04589411 0 12369.88650343 0 19040.42586672 0 68126.66151135 0 105
0.01150000 0.01145670 59161.34330132 0 10037.58636455 0 14320.70143779 0 15146.32723398 0 45755.06880050 0 144
0.01250000 0.01249090 60866.32520420 0 1970.51979509 0 15029.53687289 0 10072.58975093 0 49732.68546817 0 169
0.01350000 0.01339930 50162.86517164 0 -6010.49959302 0 3114.99788992 0 13410.65835461 0 27746.08504486 0 180
0.01450000 0.01448870 69085.26420569 0 -7794.53699249 0 1469.96237739 0 3006.32327865 0 31972.56971971 0 267
0.01550000 0.01550050 66609.73569520 0 -8347.89174667 0 -14214.58969489 0 -2764.26710581 0 -8744.93401179 0 238
0.01650000 0.01653350 79971.49721913 0 -1976.93820666 0 -7915.99222364 0 -593.45914786 0 21268.54765462 0 315
0.01750000 0.01747870 70811.71575146 0 -525.51391045 0 -23662.13182127 0 -2536.02569272 0 -7699.36240275 0 297
0.01850000 0.01844180 76855.02680396 0 4943.86300450 0 -7319.95671862 0 -18331.14080559 0 8083.02829350 0 388
0.01950000 0.01947590 72875.27441265 0 6528.59242586 0 -2555.40457458 0 -16020.84986085 0 -12815.46589840 0 399
0.02050000 0.02045430 66460.45985349 0 6383.86904770 0 8837.62441772 0 -21068.57647811 0 -7542.80261937 0 462
0.02150000 0.02154770 64412.18847729 0 4866.30251446 0 17395.01941272 0 -21509.32239327 0 -14760.88532042 0 571
0.02250000 0.02255340 63268.00263938 0 2873.44754636 0 30109.43186105 0 -8823.31506934 0 -20408.18824767 0 510
0.02350000 0.02348930 60968.72753236 0 3363.48371498 0 36331.24444716 0 -8404.12872228 0 -26847.05779939 0 555
0.02450000 0.02439640 62318.16765261 0 3452.55463137 0 32275.73006992 0 2429.54300835 0 -34093.90532566 0 592
0.02550000 0.02547300 58689.23597062 0 3356.69436194 0 35382.08389943 0 4016.82405742 0 -23007.58872921 0 837
0.02650000 0.02652900 56816.76837185 0 2420.89894793 0 27163.93174350 0 10967.52539953 0 -23265.11203745 0 723
0.02750000 0.02749970 55503.86036647 0 -783.19346375 0 30573.89554925 0 14788.20010169 0 -7627.27610961 0 826
0.02850000 0.02848090 57054.50813481 0 -387.06731166 0 24087.02841890 0 11197.57655739 0 -12551.19819972 0 831
0.02950000 0.02946900 59746.08195235 0 -2333.15442833 0 24348.71076792 0 7190.92528888 0 -7473.07686288 0 996
0.03050000 0.03053250 60924.66418149 0 -1108.37424874 0 35306.77153954 0 0.69656851 0 6916.94566797 0 1041
0.03150000 0.03150510 63966.15945629 0 313.57818531 0 33423.51291607 0 -2224.33368860 0 -1247.79091570 0 1036
0.03250000 0.03246190 63844.98524141 0 2423.20328133 0 49677.83109260 0 -785.83726480 0 16715.07245000 0 1059
0.03350000 0.03345080 63771.24657261 0 4233.03797423 0 46054.40732947 0 -541.38458522 0 12635.39067369 0 1302
0.03450000 0.03451200 60954.11468641 0 2850.79763514 0 52654.24299966 0 9453.57835583 0 20281.95573996 0 1339
0.03550000 0.03553350 58981.60529613 0 1974.22920984 0 46857.43941769 0 12987.89748062 0 13553.41461889 0 1365
0.03650000 0.03647120 57188.38428502 0 1137.16043120 0 38381.65154700 0 9998.16540244 0 8150.85438001 0 1308
0.03750000 0.03744890 54645.52427665 0 2243.06061272 0 30605.59418431 0 9742.96890890 0 3341.01365417 0 1579
0.03850000 0.03847530 53607.45018165 0 2624.06246925 0 25210.19423994 0 1009.45877044 0 -3164.22069947 0 1662
0.03950000 0.03950240 47592.12834947 0 2617.14946905 0 19111.57918585 0 -2128.34977201 0 -8537.78005947 0 1683
0.04050000 0.04050350 47175.43742687 0 2667.67619408 0 16627.95740683 0 -2408.92765491 0 -15273.45899375 0 1822
0.04150000 0.04152450 43390.71032574 0 1259.16645423 0 17629.94901299 0 -2043.58402485 0 -16923.36170804 0 1887
0.04250000 0.04250150 43644.18699973 0 862.95374914 0 16468.67738598 0 73.07097414 0 -15075.62354088 0 1920
0.04350000 0.04349210 43177.13796185 0 -13.78058817 0 21801.91653180 0 3687.67532271 0 -11283.25279726 0 2005
0.04450000 0.04448520 44140.68654251 0 -720.66846812 0 19581.77560592 0 4231.00341645 0 -8878.51790508 0 2151
0.04550000 0.04548030 45666.82969226 0 -1111.37325436 0 22895.18222190 0 5779.92012457 0 -3032.48027291 0 2274
0.04650000 0.04648670 46317.77577609 0 168.22982697 0 22327.52935998 0 4891.13311193 0 449.17527915 0 2311
0.04750000 0.04749250 46127.35915271 0 1611.03254407 0 24301.94966088 0 2757.20797715 0 6474.00782591 0 2568
0.04850000 0.04851840 43661.04797582 0 2728.18461697 0 24041.61618995 0 3319.36416086 0 12709.12934249 0 2493
0.04950000 0.04949480 41801.28231238 0 3568.16472414 0 24228.32339859 0 686.60704828 0 9760.13338256 0 2644
0.05050000 0.05050630 39767.06174959 0 2685.31277508 0 25606.98921075 0 3012.07849183 0 13640.97928809 0 2829
0.05150000 0.05149060 36588.99256842 0 1979.46735308 0 24346.01301175 0 -279.52238579 0 12291.42676132 0 2784
0.05250000 0.05249300 37214.53478160 0 401.05517743 0 22574.37405003 0 1354.26235942 0 8290.56442794 0 3055
0.05350000 0.05348950 35748.86633279 0 -115.14922609 0 23187.10192138 0 -197.38245464 0 4788.03386342 0 3009
0.05450000 0.05448610 38010.93488589 0 -1096.68397198 0 21998.06588706 0 1364.40142638 0 4144.14690825 0 3336
0.05550000 0.05550870 37413.83151906 0 -732.25757902 0 18439.16345912 0 275.72079772 0 854.49965572 0 3349
0.05650000 0.05647670 38219.89858298 0 -663.24335573 0 16119.99240030 0 5278.50841742 0 -1340.79605984 0 3324
0.05750000 0.05747970 37963.16212028 0 103.16860332 0 15905.07115832 0 4104.18639490 0 497.80458234 0 3639
0.05850000 0.05849280 37579.18149131 0 377.21825349 0 10665.43291113 0 5612.33326283 0 -3732.89646060 0 3846
0.05950000 0.05951020 36300.22025114 0 745.12587598 0 11599.11508280 0 3477.39646949 0 875.23753226 0 3787
0.06050000 0.06049470 35603.29990582 0 1424.19044762 0 6307.52254793 0 2035.72680999 0 212.89904891 0 3930
0.06150000 0.06148310 34049.16753575 0 1069.49396193 0 10184.55787286 0 -976.54726917 0 3227.02221511 0 4083
0.06250000 0.06249100 33143.39589985 0 1166.84698978 0 7113.38728014 0 -1849.21069241 0 -636.02411999 0 4303
0.06350000 0.06350600 32683.42847194 0 733.09725563 0 8982.03305766 0 -1848.76106638 0 797.03632512 0 4470
0.06450000 0.06451750 31565.43335023 0 953.89398575 0 7613.07916774 0 -2040.23431093 0 -3601.06610883 0 4479
0.06550000 0.06550280 31676.15375993 0 668.21734368 0 8567.30924894 0 -1363.96304100 0 -4249.57297145 0 4636
0.06650000 0.06648880 30159.11553728 0 856.57467985 0 7694.47271968 0 -736.70438045 0 -4797.37484418 0 4653
0.06750000 0.06749660 30012.08782572 0 143.36438349 0 7993.37286327 0 1348.83312512 0 -6407.77791180 0 5220
0.06850000 0.06852730 29861.12588640 0 -8.13576943 0 7742.24548529 0 2862.85885337 0 -4253.66456832 0 5029
0.06950000 0.06949320 29680.15140963 0 598.43763207 0 8201.70708392 0 1352.18283903 0 -4596.83039449 0 5040
0.07050000 0.07048030 29233.56035609 0 766.93498653 0 9509.05096718 0 910.26339994 0 22.14644248 0 5475
0.07150000 0.07148790 28980.98293416 0 329.67816935 0 11897.10473368 0 1060.82629615 0 1838.81309048 0 5509
0.07250000 0.07249820 29241.09159208 0 559.46742005 0 13375.13789830 0 -388.63650650 0 4779.34484041 0 5916
0.07350000 0.07351270 28788.09336762 0 315.89937969 0 13118.73865513 0 -223.12579295 0 4966.95130111 0 5721
0.07450000 0.07449140 29094.06388052 0 515.43779114 0 15806.26583840 0 -1251.98367842 0 7885.39517235 0 6028
0.07550000 0.07549160 28440.08282099 0 713.62282824 0 14642.74608123 0 903.32567030 0 7106.71033361 0 6183
0.07650000 0.07648840 27922.78807435 0 997.98206604 0 14781.90533728 0 1045.14783651 0 6095.40022799 0 6330
0.07750000 0.07749960 26739.03514587 0 474.48697646 0 11222.38467355 0 2189.44270873 0 3349.37669831 0 6583
0.07850000 0.07848650 26022.55606827 0 668.00601945 0 9910.39840153 0 1615.42763850 0 1709.54560707 0 6549
0.07950000 0.07947320 25312.70897461 0 444.14846014 0 8998.16339146 0 1232.07648597 0 26.49702394 0 6828
0.08050000 0.08048110 25124.87770090 0 336.08758840 0 8000.31958542 0 1181.17881946 0 -679.87277442 0 7147
0.08150000 0.08149960 24289.80975809 0 275.58028958 0 7283.70562002 0 860.42685085 0 -784.16128377 0 7386
0.08250000 0.08250610 24465.16390949 0 522.07876759 0 7859.03584638 0 1039.09699422 0 686.68910503 0 7227
0.08350000 0.08350160 24219.89291054 0 291.79942452 0 7697.88987750 0 1325.67738461 0 1631.62541621 0 7798
0.08450000 0.08449610 24177.62806380 0 477.61862176 0 9138.34554673 0 534.64918730 0 2900.73984634 0 7371
0.08550000 0.08548940 23844.67998914 0 646.45319573 0 8722.14921276 0 183.02701959 0 3090.98785996 0 8256
0.08650000 0.08650700 22965.09906944 0 517.93658780 0 9763.50557778 0 97.07470934 0 3821.14680949 0 8037
0.08750000 0.08749060 22933.40043438 0 866.58110713 0 9899.78722724 0 -998.86895339 0 2913.25069060 0 8155
0.08850000 0.08849210 21822.48692264 0 622.10931845 0 8965.71163280 0 -182.58638608 0 2266.90203292 0 8718
0.08950000 0.08949900 21004.72958196 0 717.61550738 0 9237.35319836 0 -398.34280841 0 1090.17900741 0 8571
0.09050000 0.09049190 20644.01710000 0 600.04729326 0 8234.73211576 0 231.37081026 0 265.77169775 0 8932
0.09150000 0.09150830 19893.70366371 0 607.19409899 0 8596.41129368 0 650.93709131 0 -639.67058708 0 9285
0.09250000 0.09250820 19558.50745891 0 659.30575578 0 6954.84914223 0 873.61663042 0 38.45876241 0 9204
0.09350000 0.09350330 18834.27233231 0 333.03799986 0 7185.74334890 0 988.11502283 0 594.56635196 0 9349
0.09450000 0.09448040 18786.61197321 0 70.69840999 0 6113.65504478 0 1196.09516298 0 733.79305191 0 9564
0.09550000 0.09549270 19065.15529833 0 -286.42976567 0 7249.03945316 0 1147.15336970 0 1731.18385973 0 10155
0.09650000 0.09649430 19333.69444429 0 -239.06953194 0 6593.61959034 0 1033.60031602 0 2465.74914435 0 9913
0.09750000 0.09749140 19159.35195145 0 172.52263148 0 7596.54417051 0 1014.57888685 0 3727.84940843 0 10476
0.09850000 0.09850240 19147.77408120 0 511.56426290 0 7751.22676522 0 88.37186032 0 4262.92686452 0 10575
0.09950000 0.09950330 18669.25957958 0 563.26788406 0 7971.99314558 0 70.01475361 0 4421.57740894 0 10882
0.10050000 0.10051200 18247.95999018 0 519.01681433 0 7894.19660187 0 515.56593456 0 4351.90785571 0 10875
0.10150000 0.10150300 17729.31636546 0 158.17169270 0 7404.67750318 0 135.56337188 0 3843.23468818 0 11118
0.10250000 0.10250800 17753.48376453 0 137.42257551 0 6836.66494045 0 346.95504953 0 3377.18606822 0 11575
0.10350000 0.10349800 17365.45650129 0 277.99140916 0 6250.38632027 0 -219.59960081 0 1854.37015109 0 11364
0.10450000 0.10450100 17143.34124285 0 554.94755439 0 5165.24762065 0 -471.30250011 0 420.04850497 0 12093
0.10550000 0.10551000 16640.99656168 0 652.96378064 0 5427.98659084 0 -694.80935111 0 -61.22658806 0 12067
0.10650000 0.10649700 16105.71677387 0 505.88436208 0 5266.07625771 0 -104.23129444 0 658.44359787 0 12054
0.10750000 0.10749900 15781.98603282 0 145.93961657 0 5002.71905173 0 502.16370669 0 -277.03482979 0 12807
0.10850000 0.10850100 15750.84943029 0 -187.42211403 0 4818.27121389 0 1191.34036772 0 -159.74538380 0 12736
0.10950000 0.10950300 15864.94203521 0 -87.38560563 0 4715.70027597 0 928.97009088 0 -608.02478308 0 12933
0.11050000 0.11050200 15808.62637505 0 63.06331039 0 4591.26627237 0 952.12695545 0 -146.35664471 0 13428
0.11150000 0.11150900 15621.01991435 0 265.30970701 0 4247.56089497 0 193.18182346 0 945.16786859 0 13453
0.11250000 0.11250000 15345.62397144 0 341.49321734 0 4239.63623621 0 130.31960831 0 508.78107778 0 13668
0.11350000 0.11349100 15157.11825868 0 128.31652435 0 3562.48819552 0 813.18914022 0 1105.78552688 0 13791
0.11450000 0.11448600 14851.48496531 0 213.97590325 0 4045.26290377 0 529.40542374 0 820.11450514 0 14205
0.11550000 0.11549300 14652.41304086 0 251.94794548 0 3357.89711157 0 415.13521654 0 592.65431727 0 14776
0.11650000 0.11649800 14541.01819212 0 262.83114352 0 3289.32914211 0 241.84484861 0 754.73888049 0 14553
0.11750000 0.11747300 13813.74808982 0 377.04289934 0 3081.52323204 0 -130.21507026 0 675.54062763 0 14568
0.11850000 0.11849100 13830.04703338 0 398.36079345 0 3274.66009290 0 242.16857935 0 685.19185035 0 16015
0.11950000 0.11950300 13202.48150307 0 394.03314292 0 3562.27462316 0 -130.24766815 0 845.13282147 0 15270
0.12050000 0.12050700 13214.84621888 0 201.59545053 0 3256.63008913 0 -90.66899971 0 1125.81861461 0 15999
0.12150000 0.12150000 13266.66561874 0 -15.30324672 0 4087.33665945 0 -391.82098286 0 1453.14636390 0 15670
0.12250000 0.12250700 13510.13811358 0 -305.92667436 0 3276.30122791 0 373.45151143 0 2066.63859950 0 16887
0.12350000 0.12352200 13806.55407335 0 -212.46628386 0 3955.65243614 0 -25.31787967 0 1593.27231591 0 16407
0.12450000 0.12449800 14121.06748081 0 -157.29267381 0 3714.45055275 0 255.90465454 0 2194.04013488 0 16306
0.12550000 0.12549900 14078.57782104 0 110.92229179 0 3796.74335676 0 7.44106349 0 1483.74341519 0 17523
0.12650000 0.12650100 13992.13721692 0 69.46013991 0 3339.76594194 0 141.30284814 0 2027.48741300 0 17154
0.12750000 0.12750600 13945.60092290 0 124.96119011 0 3751.74703188 0 -57.73760248 0 1618.48509550 0 18007
0.12850000 0.12850300 13963.02393153 0 102.60971817 0 3511.12966233 0 157.83672130 0 1099.91116281 0 17496
0.12950000 0.12949900 13587.92341664 0 299.12383254 0 3605.92206995 0 21.98918577 0 977.32062594 0 18405
0.13050000 0.13049000 13405.48765527 0 266.30338053 0 3576.93243171 0 -358.78133816 0 630.60612633 0 18100
0.13150000 0.13148800 13292.18189590 0 449.21686955 0 4069.98109473 0 -425.45975423 0 927.70102141 0 19059
0.13250000 0.13249300 12880.77407915 0 367.78397533 0 4321.63678329 0 -149.06339341 0 481.49327406 0 18957
0.13350000 0.13349100 12640.89859255 0 337.32181185 0 4489.71823367 0 5.91452692 0 1016.90120529 0 19468
0.13450000 0.13450700 12320.54004672 0 -8.88189010 0 4193.61701212 0 817.56737368 0 801.00202670 0 19953
0.13550000 0.13551000 12424.96569201 0 -13.87703295 0 3948.72819529 0 959.86164722 0 1347.67533809 0 19956
0.13650000 0.13649900 12455.31544898 0 -121.97342515 0 3389.04495474 0 1151.64962999 0 894.28818712 0 19723
0.13750000 0.13749600 12429.79917182 0 192.70746800 0 2923.41223886 0 342.38572501 0 723.64386837 0 20946
0.13850000 0.13851100 11961.40125586 0 308.17930077 0 2540.06108633 0 196.60684974 0 1252.27593534 0 20955
0.13950000 0.13949800 11816.05964191 0 420.44867214 0 2506.27169024 0 -295.77411862 0 1035.00764549 0 20506
0.14050000 0.14048300 11568.54051281 0 265.00958163 0 2541.72470264 0 -374.81163017 0 1037.91897403 0 21447
0.14150000 0.14148400 11329.78909129 0 140.63852569 0 2931.13456591 0 -150.20319539 0 971.56653683 0 21771
0.14250000 0.14249400 11424.21055743 0 36.29527436 0 3028.48984190 0 -242.21241789 0 994.83355978 0 22470
0.14350000 0.14350900 11418.81504508 0 125.89753632 0 3353.54697973 0 -113.55305368 0 968.29550746 0 22519
0.14450000 0.14449900 11371.37949899 0 185.61686552 0 3514.67046731 0 -151.05523672 0 1258.55945910 0 22218
0.14550000 0.14550500 11222.59824592 0 193.37965892 0 3788.33535001 0 141.86600475 0 1533.94416135 0 23559
0.14650000 0.14650700 11014.67992935 0 209.65162491 0 3665.45255622 0 369.12048870 0 1375.54091125 0 23044
0.14750000 0.14750500 10943.38048176 0 107.74602111 0 3853.55360555 0 351.01180038 0 1674.59842395 0 23649
0.14850000 0.14849900 10839.39322185 0 132.52952025 0 3185.25195699 0 413.03321485 0 965.23018201 0 23640
0.14950000 0.14949500 10694.05160790 0 159.26540801 0 3444.33771569 0 208.84342213 0 1035.71693055 0 24457
0.15050000 0.15050000 10475.58956094 0 145.02912386 0 2752.52062580 0 -25.85664406 0 214.74026750 0 24591
0.15150000 0.15149900 10348.40159792 0 217.14351863 0 2859.92504353 0 -477.98619103 0 232.47464216 0 25020
0.15250000 0.15250500 10327.59515341 0 72.95542025 0 2711.51473193 0 -232.70619956 0 -93.34742196 0 25297
0.15350000 0.15350100 10186.39009893 0 203.75702767 0 2933.20284565 0 -220.05372310 0 -294.76470818 0 25452
0.15450000 0.15450400 10190.20067953 0 105.19315692 0 2910.09206775 0 87.03557176 0 -404.27225167 0 26061
0.15550000 0.15549900 10009.40605317 0 180.17751463 0 3386.49332703 0 -17.38568967 0 -115.87087587 0 26128
0.15650000 0.15649500 10041.84657118 0 215.32702947 0 3179.41805926 0 315.29912894 0 -82.15229587 0 26331
0.15750000 0.15749700 9772.53182032 0 239.18980690 0 3395.77810453 0 244.89443715 0 -155.21540155 0 27345
0.15850000 0.15849900 9569.69427788 0 176.96268852 0 3121.25893238 0 338.95845060 0 426.25671637 0 26980
0.15950000 0.15949700 9406.09784714 0 130.03409579 0 2827.66437594 0 463.43179647 0 137.24946949 0 27777
0.16050000 0.16050000 9255.39444279 0 88.96941332 0 2856.57532962 0 384.56514281 0 290.34151212 0 28224
0.16150000 0.16150500 9133.14112544 0 40.30166710 0 2242.80207775 0 458.13857404 0 4.85580375 0 28075
0.16250000 0.16249700 9131.26393677 0 -2.40375696 0 2258.73007984 0 288.06640441 0 -82.14667554 0 28590
0.16350000 0.16349900 9045.05938631 0 112.67403480 0 1925.45602631 0 58.72543087 0 237.72290198 0 29163
0.16450000 0.16449100 8963.50846526 0 103.92015323 0 2461.74747269 0 -62.57400486 0 174.52683951 0 28996
0.16550000 0.16550500 8895.00793970 0 173.57700452 0 2116.52460744 0 -172.84636223 0 359.17026468 0 30777
0.16650000 0.16650700 8776.75629401 0 155.99325458 0 2437.51262971 0 -35.05677947 0 389.15020424 0 29211
0.16750000 0.16749900 8699.39813568 0 165.50172104 0 2325.01619720 0 20.09974479 0 574.54787707 0 30922
0.16850000 0.16850800 8484.07223028 0 79.28424383 0 2244.17343714 0 225.93145937 0 377.03165869 0 30867
0.16950000 0.16949900 8511.20716114 0 16.87693782 0 2188.38608756 0 23.78027106 0 191.79247903 0 30852
0.17050000 0.17049200 8455.64462458 0 35.83676822 0 1784.22849053 0 55.57456406 0 -139.15925605 0 31257
0.17150000 0.17149500 8363.31391947 0 174.74603220 0 1990.93281682 0 -186.86120556 0 -386.09949163 0 32608
0.17250000 0.17250900 8317.38462059 0 185.89226146 0 1783.00325960 0 -369.97590222 0 -219.38378032 0 32361
0.17350000 0.17350400 8116.13200990 0 152.62218343 0 2229.88657006 0 -211.18709780 0 -371.30567121 0 32508
0.17450000 0.17449800 8164.35440154 0 97.10865610 0 2246.51149249 0 -89.54965571 0 -164.14047823 0 32791
0.17550000 0.17549800 8114.61452205 0 4.88011727 0 2517.52358162 0 16.79881530 0 -165.53094673 0 33633
0.17650000 0.17650100 8172.81861154 0 63.56408138 0 2489.38823284 0 -51.98969573 0 56.77776331 0 33984
0.17750000 0.17750300 8182.41812726 0 86.68756122 0 2629.21068728 0 37.63122570 0 76.97541417 0 34069
0.17850000 0.17849800 8032.67017822 0 186.12494293 0 2643.18281614 0 122.42867150 0 219.12636942 0 34536
