### header ###
fiducial parameters:
Omega_m = 0.31
Omega_nu = 0
Omega_de = 0.69
Omega_k = 0
H_0 = 100
w_de = -1
zeff = 0
beta = 0
fgrowth = 0
b_1 = 2
gamma = 0.55
Lx = 3500 Ly = 3500 Lz = 3500
nx = 700 ny = 700 nz = 700
xoffset = 857.220397 yoffset = 15.9954215 zoffset = 262.898189
bins = 400 dk = 0.001
kx_ny = 0.628318531 ky_ny = 0.628318531 kz_ny = 0.628318531
############################
A(data) = 3.0732867 (not used)
A(ran) = 3.07411708 (used)
Ngal = 187590
weighted Ngal = 0
Nran = 9360983
weighted Nran = 0
SN(data) = 3436.57776
SN(ran) = 69.0331166
SN(data+ran) = 3505.61088
############################
13 columns: k_central k_mean P_0(k) sigma^{lin}_{P_0(k)} P^img_1(k) sigma^{lin}_{P_1(k)} P_2(k) sigma^{lin}_{P_2(k)} P^img_3(k) sigma^{lin}_{P_3(k)} P_4(k) sigma^{lin}_{P_4(k)} N_modes
### header ###
0.00050000 0 0 0 0 0 0 0 0 0 0 0 0
0.00150000 0.00179520 -454.56179898 0 -3643.89298812 0 -790.74268478 0 -729.79812464 0 11213.29098711 0 3
0.00250000 0.00253879 3508.64547852 0 -7024.10279138 0 3179.65411293 0 -18352.38563547 0 -6816.15075286 0 6
0.00350000 0.00331552 8133.45385268 0 -5129.03024400 0 1671.48476370 0 -11612.49145717 0 -1310.40134027 0 7
0.00450000 0.00420575 19857.28395534 0 -8855.33968327 0 11094.78080646 0 -24890.73494617 0 -8180.91188006 0 24
0.00550000 0.00557378 33741.28611223 0 -8746.99105088 0 25361.26858577 0 -30145.62675640 0 2175.53802378 0 45
0.00650000 0.00659388 54971.84036738 0 -6648.49644721 0 44728.79738876 0 -36159.26249097 0 -37998.90738961 0 40
0.00750000 0.00754703 50925.54332374 0 53.89543565 0 45000.82113645 0 -12539.28310994 0 -2396.78775212 0 57
0.00850000 0.00846663 55196.76578850 0 4638.89290952 0 38043.75758602 0 11053.67374673 0 -32685.11456955 0 75
0.00950000 0.00948925 49087.92174224 0 3053.25299546 0 31429.08425687 0 12622.46392535 0 -1099.50649938 0 112
0.01050000 0.01054430 45837.91239639 0 2264.96864099 0 21230.32944213 0 22389.12812599 0 -30649.43272216 0 105
0.01150000 0.01145670 44972.83191613 0 -331.53400079 0 10593.61639361 0 10385.95661201 0 -9487.36775192 0 144
0.01250000 0.01249090 43023.92789239 0 400.84834946 0 12581.32314368 0 -6109.50724466 0 -3637.55326110 0 169
0.01350000 0.01339930 47566.27485278 0 917.22023867 0 18981.41245038 0 -5271.87643349 0 12853.45929787 0 180
0.01450000 0.01448870 51435.41924090 0 -4411.64067369 0 32958.59960183 0 -14542.92910274 0 10726.34599745 0 267
0.01550000 0.01550050 67707.72245860 0 -8381.51253301 0 45813.40777779 0 -8206.83282065 0 -1571.73522911 0 238
0.01650000 0.01653350 72854.14198928 0 -7135.98098811 0 58835.81405615 0 584.80497087 0 6740.43372954 0 315
0.01750000 0.01747870 88165.25716298 0 -3383.14361311 0 65146.09056352 0 5676.96700453 0 8629.85222961 0 297
0.01850000 0.01844180 85018.66180385 0 1154.66212439 0 67957.93934388 0 9029.32247529 0 8984.23622520 0 388
0.01950000 0.01947590 87844.22417810 0 7234.40412591 0 72571.55202990 0 15696.55708726 0 3953.43802795 0 399
0.02050000 0.02045430 78048.44669207 0 8435.32152806 0 59505.86924623 0 12855.93224103 0 6104.49391443 0 462
0.02150000 0.02154770 71405.89654910 0 6583.73905835 0 53179.29379530 0 19835.25227991 0 15780.63715473 0 571
0.02250000 0.02255340 65490.72891493 0 891.11832361 0 40935.97701911 0 20814.87499111 0 8814.18766095 0 510
0.02350000 0.02348930 64324.39899508 0 -2095.65071903 0 30382.91689333 0 15411.60659123 0 15688.01419271 0 555
0.02450000 0.02439640 66850.39802735 0 -941.62706360 0 26842.33672608 0 11762.10451840 0 -9622.60402087 0 592
0.02550000 0.02547300 65711.38288878 0 960.62376334 0 16744.86017444 0 2639.51836400 0 7995.86828773 0 837
0.02650000 0.02652900 62402.13531358 0 3317.81295106 0 9573.01026984 0 3863.26552778 0 -6044.23278586 0 723
0.02750000 0.02749970 63390.97535838 0 2980.04263725 0 18206.03236296 0 -4975.16821679 0 12932.70588553 0 826
0.02850000 0.02848090 56761.46437026 0 2754.10555755 0 6505.24559429 0 2753.24002745 0 -12211.16851510 0 831
0.02950000 0.02946900 57854.84246686 0 2677.07337809 0 8934.32773596 0 -448.74139003 0 -2141.80483093 0 996
0.03050000 0.03053250 54602.36017785 0 -22.56650559 0 9822.08060874 0 -1403.83362914 0 -16035.23789379 0 1041
0.03150000 0.03150510 55615.36762172 0 436.13387617 0 9573.50485847 0 2416.27904048 0 -15273.23418073 0 1036
0.03250000 0.03246190 53559.78982255 0 605.93289798 0 11136.09019789 0 -3269.71420658 0 -16288.71456777 0 1059
0.03350000 0.03345080 53673.77002096 0 695.46917731 0 8238.11555163 0 -1189.49690100 0 -21199.75487214 0 1302
0.03450000 0.03451200 50705.22656941 0 2557.38292911 0 14427.60002624 0 -3585.87998969 0 -14276.18846090 0 1339
0.03550000 0.03553350 50307.75715957 0 1245.84628312 0 11111.01230611 0 384.62022200 0 -15071.01487408 0 1365
0.03650000 0.03647120 48476.76756199 0 -288.54975239 0 14879.02455960 0 2825.88835312 0 -6682.29708396 0 1308
0.03750000 0.03744890 50242.89860485 0 -305.16793044 0 11098.25416753 0 2412.27736882 0 -11910.36870154 0 1579
0.03850000 0.03847530 49974.24705238 0 -795.85268460 0 13893.44430351 0 3539.50106478 0 -6832.42721512 0 1662
0.03950000 0.03950240 49868.02290297 0 1704.30746383 0 9259.00269167 0 -480.72666168 0 -6406.49647762 0 1683
0.04050000 0.04050350 50371.60405572 0 1685.16463564 0 15826.94863574 0 -4530.75784949 0 -2235.23711981 0 1822
0.04150000 0.04152450 49693.79281664 0 1865.85809614 0 20745.18295658 0 -3688.95675690 0 431.64098807 0 1887
0.04250000 0.04250150 48528.58696186 0 2215.18379891 0 23788.70154850 0 -828.55061351 0 3693.98132777 0 1920
0.04350000 0.04349210 47228.04367229 0 1891.02591313 0 25133.08337593 0 1462.00399668 0 4406.08779223 0 2005
0.04450000 0.04448520 46092.73794846 0 2074.86675583 0 27229.80195678 0 2233.94444498 0 8698.64501208 0 2151
0.04550000 0.04548030 44598.40584028 0 1026.40517548 0 26487.35697600 0 7335.80603616 0 5694.73847333 0 2274
0.04650000 0.04648670 42891.17580726 0 123.96302033 0 23187.66395392 0 5689.36544229 0 5681.02487944 0 2311
0.04750000 0.04749250 43758.27960465 0 -152.85261677 0 20309.94496028 0 1885.33814386 0 1514.53155754 0 2568
0.04850000 0.04851840 42361.96597084 0 1811.77932547 0 19705.08554444 0 -2457.75704168 0 -4219.36934294 0 2493
0.04950000 0.04949480 40931.59316532 0 2956.25742030 0 20229.57430755 0 -5042.17373580 0 -5658.89203815 0 2644
0.05050000 0.05050630 38677.73028725 0 2484.77956604 0 21790.11384853 0 -4532.84861053 0 -3673.03999546 0 2829
0.05150000 0.05149060 36922.16545609 0 1681.14048268 0 23876.15381119 0 -289.27140217 0 -3829.62226014 0 2784
0.05250000 0.05249300 37126.40807987 0 -113.20571758 0 25086.32226889 0 2215.52101843 0 -3881.82384214 0 3055
0.05350000 0.05348950 37139.89686075 0 -90.44362466 0 27098.28634323 0 5212.33470656 0 -2183.49640450 0 3009
0.05450000 0.05448610 38075.90584712 0 -41.70798491 0 24332.86145039 0 4006.97724738 0 1304.73605230 0 3336
0.05550000 0.05550870 37242.97362795 0 -65.77725310 0 24316.67491334 0 3217.00679531 0 4771.46514424 0 3349
0.05650000 0.05647670 37824.56489677 0 -11.36553436 0 20380.42384036 0 3430.83769416 0 3441.46010910 0 3324
0.05750000 0.05747970 37132.47803126 0 571.08013632 0 19996.10599187 0 1731.73465162 0 1554.82929041 0 3639
0.05850000 0.05849280 36766.14522394 0 1449.03228573 0 17757.19317927 0 588.63578463 0 522.26311426 0 3846
0.05950000 0.05951020 34071.87365023 0 1488.39704459 0 14858.56657527 0 1393.45850852 0 212.60229573 0 3787
0.06050000 0.06049470 33209.60333265 0 762.79730300 0 14705.13169279 0 965.87202317 0 -2586.51869580 0 3930
0.06150000 0.06148310 33412.04745232 0 175.38787336 0 13103.00174410 0 4353.76256308 0 -2365.89844391 0 4083
0.06250000 0.06249100 32905.76854340 0 144.82004776 0 13132.22743600 0 4221.12288445 0 -2834.70102329 0 4303
0.06350000 0.06350600 32139.38097656 0 550.26582336 0 9990.92642337 0 2593.42045535 0 830.84033407 0 4470
0.06450000 0.06451750 32020.11767230 0 1085.13195523 0 11773.90720167 0 1683.61342584 0 2623.38803020 0 4479
0.06550000 0.06550280 30863.79193160 0 1159.55180746 0 10677.99995865 0 1109.55002081 0 4620.22218866 0 4636
0.06650000 0.06648880 29862.92439052 0 1092.95882033 0 12267.82139479 0 128.61215347 0 6945.40699562 0 4653
0.06750000 0.06749660 29230.75019341 0 843.12299312 0 13350.07124717 0 1127.26865856 0 9497.97892621 0 5220
0.06850000 0.06852730 27746.98429692 0 665.84107012 0 10584.98357385 0 2189.83613151 0 7435.16214797 0 5029
0.06950000 0.06949320 28980.75812115 0 -306.35719128 0 13742.70717720 0 2127.54044516 0 9090.56154047 0 5040
0.07050000 0.07048030 27879.28675602 0 -434.00489692 0 9160.09620589 0 2676.50010491 0 7436.67963581 0 5475
0.07150000 0.07148790 28986.04122699 0 -165.26117111 0 11299.21452130 0 1141.18458416 0 9174.60788598 0 5509
0.07250000 0.07249820 28950.85799020 0 -230.97738748 0 8124.40512884 0 929.06114015 0 8217.88238032 0 5916
0.07350000 0.07351270 29144.19718278 0 50.17804005 0 9824.55355190 0 -788.17419609 0 7796.03199903 0 5721
0.07450000 0.07449140 29211.64108716 0 553.87969257 0 10257.14999528 0 -1600.08415026 0 6881.91980029 0 6028
0.07550000 0.07549160 28544.05884025 0 692.89619236 0 11563.48221999 0 -2077.46334615 0 5488.55121698 0 6183
0.07650000 0.07648840 28399.39166534 0 575.07618766 0 13562.40713948 0 -2667.24904935 0 4053.31120969 0 6330
0.07750000 0.07749960 28033.84570357 0 95.34005212 0 13623.78109247 0 -2193.82656252 0 1441.17507087 0 6583
0.07850000 0.07848650 28732.90177253 0 -369.21828237 0 15434.31270571 0 447.39700820 0 271.86975077 0 6549
0.07950000 0.07947320 28504.94137571 0 -35.48797083 0 13021.50702630 0 255.90240641 0 -1369.34731270 0 6828
0.08050000 0.08048110 28789.44224571 0 635.10238663 0 11115.68841681 0 934.15765119 0 -4645.27759914 0 7147
0.08150000 0.08149960 27377.16688787 0 1354.48717243 0 11040.21868781 0 1548.37715689 0 -3622.90669320 0 7386
0.08250000 0.08250610 25898.23447119 0 1631.23199343 0 8536.29629357 0 1061.91663927 0 -5288.24282095 0 7227
0.08350000 0.08350160 24299.58912423 0 967.86161835 0 7484.19386645 0 1794.68229571 0 -3909.86926571 0 7798
0.08450000 0.08449610 23313.33442909 0 909.42934365 0 6695.01025993 0 1488.12726897 0 -3412.39178631 0 7371
0.08550000 0.08548940 22609.22006730 0 346.28061048 0 5164.68558811 0 1115.32996342 0 -4610.29669406 0 8256
0.08650000 0.08650700 22258.39935799 0 72.23747989 0 5655.89078441 0 1269.50785291 0 -2427.67706032 0 8037
0.08750000 0.08749060 21827.09558944 0 459.52342221 0 5213.17775537 0 -312.39904105 0 -3397.47544279 0 8155
0.08850000 0.08849210 22215.90969822 0 63.55407720 0 5607.30869195 0 665.99281890 0 -1425.77537937 0 8718
0.08950000 0.08949900 21552.93611811 0 492.46190105 0 4895.33711530 0 -699.20894181 0 -2566.61150336 0 8571
0.09050000 0.09049190 21666.12947097 0 85.63970776 0 6367.34529113 0 692.60168731 0 -344.35733514 0 8932
0.09150000 0.09150830 21068.12685208 0 546.96444424 0 6941.70882153 0 301.96996530 0 -1511.56402575 0 9285
0.09250000 0.09250820 21215.71659618 0 448.63235572 0 7276.88254502 0 538.65985148 0 575.08068392 0 9204
0.09350000 0.09350330 20410.88600384 0 824.87941698 0 8168.26614799 0 640.01342693 0 1634.18828457 0 9349
0.09450000 0.09448040 20107.16362109 0 781.58942289 0 7687.66088534 0 563.64444586 0 3115.41379400 0 9564
0.09550000 0.09549270 19163.62339873 0 701.82576530 0 8051.18352998 0 1361.25404417 0 4554.70043555 0 10155
0.09650000 0.09649430 19055.71315171 0 727.12847010 0 7963.69754534 0 1231.24467782 0 5181.70393332 0 9913
0.09750000 0.09749140 18486.71141171 0 135.38127334 0 7557.11196775 0 962.69091901 0 5386.99193762 0 10476
0.09850000 0.09850240 18309.55875619 0 374.24285324 0 7102.68618065 0 149.77829880 0 4948.62904041 0 10575
0.09950000 0.09950330 17856.67293824 0 352.02008675 0 6773.85218416 0 -447.98039797 0 3972.22115532 0 10882
0.10050000 0.10051200 17525.74818072 0 653.43139171 0 6713.31003932 0 -896.62961466 0 2319.14857752 0 10875
0.10150000 0.10150300 17100.06473753 0 508.56638135 0 6879.63794819 0 -1063.08679101 0 1833.37261553 0 11118
0.10250000 0.10250800 16370.88372462 0 290.84734140 0 6345.79696367 0 482.93994581 0 907.22730017 0 11575
0.10350000 0.10349800 16791.73368798 0 -242.41587366 0 6272.95754694 0 503.36420819 0 -120.66051714 0 11364
0.10450000 0.10450100 16439.33928757 0 -234.97231475 0 5861.76330255 0 896.15525920 0 -903.98774463 0 12093
0.10550000 0.10551000 16725.07662915 0 46.08947816 0 5381.29292770 0 236.27173397 0 -1050.04988430 0 12067
0.10650000 0.10649700 16455.07619859 0 315.91624066 0 5133.52650429 0 -377.95451611 0 -1080.77395494 0 12054
0.10750000 0.10749900 16261.73700602 0 500.97219771 0 5898.77876540 0 -66.43651727 0 -298.82483123 0 12807
0.10850000 0.10850100 15808.85118807 0 271.28411287 0 5367.30955819 0 117.22762241 0 -1014.12813675 0 12736
0.10950000 0.10950300 15916.08699604 0 161.83277264 0 5507.55915736 0 606.97041004 0 -627.42951844 0 12933
0.11050000 0.11050200 15684.52959098 0 291.23851605 0 5567.84276723 0 586.20892814 0 -1126.75158862 0 13428
0.11150000 0.11150900 15294.47901062 0 417.43055742 0 4971.51500530 0 432.49752566 0 246.81996062 0 13453
0.11250000 0.11250000 15021.44360436 0 274.34606613 0 4586.53395842 0 629.35841410 0 -616.21247307 0 13668
0.11350000 0.11349100 14762.45901152 0 88.53057831 0 4468.20362817 0 240.64322304 0 541.74541011 0 13791
0.11450000 0.11448600 14783.47902838 0 120.89432268 0 4127.04987849 0 357.53362593 0 -615.32221354 0 14205
0.11550000 0.11549300 14699.17414790 0 -102.64557584 0 4290.17420189 0 -31.49360559 0 -372.87036979 0 14776
0.11650000 0.11649800 14739.19086450 0 39.45681979 0 4094.47447267 0 -163.45704667 0 -510.65377019 0 14553
0.11750000 0.11747300 14850.13608722 0 -5.95494830 0 4299.78495827 0 288.03942685 0 -154.65336902 0 14568
0.11850000 0.11849100 14794.71967912 0 -26.97576325 0 4083.85205773 0 376.81134193 0 -411.89903319 0 16015
0.11950000 0.11950300 14653.19988641 0 173.23304061 0 4237.93889795 0 529.40205154 0 -25.78459149 0 15270
0.12050000 0.12050700 14522.47111841 0 234.40016563 0 3735.26823791 0 820.27299831 0 4.43830350 0 15999
0.12150000 0.12150000 14253.36993991 0 277.17308979 0 3730.64833046 0 338.18284570 0 173.51180875 0 15670
0.12250000 0.12250700 14118.14491162 0 171.25243795 0 3470.24741562 0 147.31996848 0 632.70250770 0 16887
0.12350000 0.12352200 13856.68737561 0 120.45481323 0 3388.71897587 0 341.48085262 0 414.42930367 0 16407
0.12450000 0.12449800 14020.12643724 0 100.42003940 0 3612.77886689 0 -163.30080162 0 1066.45561404 0 16306
0.12550000 0.12549900 13838.58992794 0 108.37752087 0 3389.34845231 0 164.98015484 0 196.36629981 0 17523
0.12650000 0.12650100 13845.33431838 0 286.03297070 0 3894.12111404 0 -536.36451061 0 306.62471877 0 17154
0.12750000 0.12750600 13684.70541943 0 338.83143124 0 3704.76111182 0 -412.26547841 0 336.72156110 0 18007
0.12850000 0.12850300 13260.48326084 0 375.51529491 0 4492.66328416 0 -540.90573350 0 392.17731148 0 17496
0.12950000 0.12949900 13367.71906882 0 347.87565882 0 4536.89524479 0 -234.34733457 0 1111.82737665 0 18405
0.13050000 0.13049000 13000.82422896 0 82.74760073 0 5009.37351696 0 310.45665660 0 211.57377619 0 18100
0.13150000 0.13148800 12990.25801727 0 211.58276871 0 4907.45453679 0 215.63614736 0 1352.55378051 0 19059
0.13250000 0.13249300 12808.04706892 0 197.41055627 0 4580.94735500 0 470.09188203 0 323.25750966 0 18957
0.13350000 0.13349100 12515.11571087 0 219.51079967 0 4690.91464111 0 414.59341717 0 1259.25637944 0 19468
0.13450000 0.13450700 12299.96965588 0 197.04973138 0 4082.43573574 0 308.85486388 0 624.22705704 0 19953
0.13550000 0.13551000 12141.70129359 0 94.31670328 0 4424.18523991 0 213.99950862 0 720.62125739 0 19956
0.13650000 0.13649900 11919.36122213 0 59.50395834 0 3826.47487794 0 314.70000226 0 296.84872483 0 19723
0.13750000 0.13749600 11999.84428136 0 -7.54958073 0 3535.63428093 0 393.56440778 0 -37.53815312 0 20946
0.13850000 0.13851100 11963.42457299 0 -41.27240970 0 3470.79820751 0 -31.98898107 0 -212.59330321 0 20955
0.13950000 0.13949800 12029.29478628 0 25.78301780 0 3254.33699638 0 204.73946054 0 -299.68024475 0 20506
0.14050000 0.14048300 11896.31788813 0 47.58437230 0 3102.43084240 0 393.66894584 0 -466.48925347 0 21447
0.14150000 0.14148400 11952.52114178 0 82.26020611 0 2798.55109054 0 220.10992635 0 -558.82108264 0 21771
0.14250000 0.14249400 11770.42259994 0 173.68266664 0 2342.38300258 0 152.15457236 0 -680.26507313 0 22470
0.14350000 0.14350900 11631.82537643 0 141.91433954 0 2610.53996642 0 107.99185414 0 -539.83225136 0 22519
0.14450000 0.14449900 11454.56031440 0 163.98985351 0 2482.70004565 0 -5.47833347 0 -448.07706757 0 22218
0.14550000 0.14550500 11279.09375649 0 125.84133306 0 2414.28944530 0 -224.63653640 0 -737.06183315 0 23559
0.14650000 0.14650700 11292.69494388 0 184.16007719 0 2711.03138395 0 -67.07431179 0 -566.52879684 0 23044
0.14750000 0.14750500 11097.30995287 0 193.66629551 0 2694.37273957 0 -193.45946754 0 -441.31806428 0 23649
0.14850000 0.14849900 11162.53944906 0 188.84180822 0 2724.98103151 0 97.98059338 0 -286.23642647 0 23640
0.14950000 0.14949500 10864.56103883 0 208.38030732 0 2870.79475279 0 -27.84590202 0 -270.28819122 0 24457
0.15050000 0.15050000 10802.59133135 0 182.11989908 0 2777.49735172 0 185.07169396 0 -544.67809589 0 24591
0.15150000 0.15149900 10592.22255292 0 198.67288134 0 3173.41555177 0 71.27449334 0 -63.06904312 0 25020
0.15250000 0.15250500 10494.51881677 0 185.61349333 0 2588.98039831 0 232.94562542 0 -343.04779933 0 25297
0.15350000 0.15350100 10358.29337056 0 131.74492283 0 3073.32879766 0 115.41787764 0 73.31422182 0 25452
0.15450000 0.15450400 10191.65072347 0 118.72937335 0 2990.77745869 0 -83.72238996 0 -62.85198616 0 26061
0.15550000 0.15549900 10287.27493924 0 118.49444375 0 3236.89150645 0 105.23474733 0 136.20858523 0 26128
0.15650000 0.15649500 10104.46823640 0 146.65452196 0 2979.26703234 0 -44.07357986 0 163.06474796 0 26331
0.15750000 0.15749700 9982.79943289 0 243.79060525 0 3322.72511543 0 -117.66937998 0 -151.37447120 0 27345
0.15850000 0.15849900 9903.86758346 0 148.24619810 0 3422.00254269 0 4.24693142 0 305.78166997 0 26980
0.15950000 0.15949700 9723.51134248 0 162.26778582 0 3434.74944062 0 -5.84255303 0 39.16051624 0 27777
0.16050000 0.16050000 9643.68024099 0 157.68272439 0 3236.36319586 0 166.05476105 0 357.81689033 0 28224
0.16150000 0.16150500 9392.99124839 0 168.17025152 0 3321.76966012 0 288.61270004 0 67.56114437 0 28075
0.16250000 0.16249700 9280.61846303 0 262.76257555 0 3026.54520932 0 409.63966239 0 278.72092740 0 28590
0.16350000 0.16349900 9061.40329247 0 189.64439068 0 2945.98346553 0 115.49993439 0 87.90492369 0 29163
0.16450000 0.16449100 8997.39902721 0 76.01209041 0 2839.68063157 0 112.66504228 0 316.64238670 0 28996
0.16550000 0.16550500 8954.71827638 0 -4.64293954 0 2945.73617121 0 28.22549880 0 -90.94540731 0 30777
0.16650000 0.16650700 8996.18503693 0 -37.80028509 0 2648.99423257 0 32.41252879 0 -100.68554357 0 29211
0.16750000 0.16749900 8996.45481255 0 41.99776889 0 2779.36329974 0 90.11820782 0 -306.38754104 0 30922
0.16850000 0.16850800 8967.18415805 0 119.93324704 0 2604.26768331 0 -73.60614152 0 -304.53283367 0 30867
0.16950000 0.16949900 8901.29146346 0 147.71788752 0 2693.49596881 0 -124.44074798 0 -368.29542494 0 30852
0.17050000 0.17049200 8786.72675121 0 117.65813933 0 2680.42309201 0 -119.69382118 0 -304.96335059 0 31257
0.17150000 0.17149500 8760.52479436 0 48.72597279 0 2799.32669544 0 71.42197068 0 -149.14657422 0 32608
0.17250000 0.17250900 8749.86865746 0 -3.68232477 0 2661.33646707 0 138.57024595 0 107.28773978 0 32361
0.17350000 0.17350400 8681.73907338 0 35.63758389 0 2793.69512943 0 275.13515981 0 37.63471031 0 32508
0.17450000 0.17449800 8633.79769801 0 178.85786224 0 2330.71520712 0 156.33384630 0 -217.17386838 0 32791
0.17550000 0.17549800 8487.00604012 0 201.66851476 0 2441.52554202 0 272.58578023 0 -167.94768664 0 33633
0.17650000 0.17650100 8214.25165013 0 211.77161164 0 2143.71574156 0 128.00965459 0 -171.81109829 0 33984
0.17750000 0.17750300 8017.21428347 0 217.34135408 0 1951.30952300 0 111.37225504 0 -209.22448019 0 34069
0.17850000 0.17849800 7881.79816411 0 122.74003753 0 2070.87632482 0 149.14882235 0 -265.40188034 0 34536
