### header ###
fiducial parameters:
Omega_m = 0.31
Omega_nu = 0
Omega_de = 0.69
Omega_k = 0
H_0 = 100
w_de = -1
zeff = 0
beta = 0
fgrowth = 0
b_1 = 2
gamma = 0.55
Lx = 3500 Ly = 3500 Lz = 3500
nx = 700 ny = 700 nz = 700
xoffset = 857.220397 yoffset = 15.9954215 zoffset = 262.898189
bins = 400 dk = 0.001
kx_ny = 0.628318531 ky_ny = 0.628318531 kz_ny = 0.628318531
############################
A(data) = 3.06137873 (not used)
A(ran) = 3.06496535 (used)
Ngal = 187076
weighted Ngal = 0
Nran = 9360983
weighted Nran = 0
SN(data) = 3434.18859
SN(ran) = 68.8276031
SN(data+ran) = 3503.01619
############################
13 columns: k_central k_mean P_0(k) sigma^{lin}_{P_0(k)} P^img_1(k) sigma^{lin}_{P_1(k)} P_2(k) sigma^{lin}_{P_2(k)} P^img_3(k) sigma^{lin}_{P_3(k)} P_4(k) sigma^{lin}_{P_4(k)} N_modes
### header ###
0.00050000 0 0 0 0 0 0 0 0 0 0 0 0
0.00150000 0.00179520 30317.60871259 0 -45869.04899891 0 -47297.51089381 0 70404.80419500 0 50485.80906714 0 3
0.00250000 0.00253879 52230.69528012 0 -46002.36311658 0 -21689.62243100 0 -43264.25300502 0 -10128.12980619 0 6
0.00350000 0.00331552 76060.65001680 0 -43355.52708895 0 -67626.78977334 0 6243.70937373 0 14417.25862757 0 7
0.00450000 0.00420575 91707.41102133 0 -31023.52157849 0 -66351.87516743 0 -33588.86288832 0 -5526.38724734 0 24
0.00550000 0.00557378 104809.40110686 0 -9779.51226442 0 -95212.92035829 0 -40152.50366316 0 2027.38624714 0 45
0.00650000 0.00659388 86022.22710111 0 5054.60589551 0 -52456.40754679 0 -50629.80180301 0 -35599.92771060 0 40
0.00750000 0.00754703 86943.62324153 0 7277.28720845 0 -78514.14685186 0 -52286.11168822 0 10087.05646842 0 57
0.00850000 0.00846663 70274.18783350 0 7821.63820140 0 -41016.34767184 0 -48836.91801142 0 -15060.11144287 0 75
0.00950000 0.00948925 77101.87149401 0 2099.94464761 0 -22784.34940569 0 -45566.90030726 0 2770.91033040 0 112
0.01050000 0.01054430 70070.50724226 0 3671.19652874 0 16474.07289833 0 -32064.40583618 0 15394.52080212 0 105
0.01150000 0.01145670 75818.41399355 0 6961.54857007 0 32414.66451296 0 -16217.44884214 0 6971.95741264 0 144
0.01250000 0.01249090 78629.70074137 0 2458.31907422 0 58149.23510950 0 1114.72072015 0 38294.42409733 0 169
0.01350000 0.01339930 81015.19163950 0 -3537.85992977 0 64313.15834435 0 27107.16645731 0 38571.61854435 0 180
0.01450000 0.01448870 94379.65091961 0 -6361.70248446 0 71114.76369517 0 36189.83706096 0 42847.56208242 0 267
0.01550000 0.01550050 101185.97734373 0 -5168.38376221 0 46995.81182819 0 41560.17035420 0 -8864.29848190 0 238
0.01650000 0.01653350 101039.06203867 0 4939.16441250 0 53934.77793093 0 27880.41082109 0 46904.31293124 0 315
0.01750000 0.01747870 93920.80755677 0 11522.79106434 0 40469.49001377 0 10914.76178500 0 32007.19092396 0 297
0.01850000 0.01844180 83552.65613552 0 4807.62631764 0 35306.43432001 0 23437.88083919 0 43508.51234540 0 388
0.01950000 0.01947590 79699.24865842 0 7847.05331270 0 27264.76038056 0 3276.04269294 0 8295.51031427 0 399
0.02050000 0.02045430 74446.60497834 0 5892.51772295 0 32049.79299023 0 2631.61618654 0 13586.46213204 0 462
0.02150000 0.02154770 67718.51348330 0 4458.85140676 0 35947.48863120 0 -8322.97122400 0 -2151.77528813 0 571
0.02250000 0.02255340 63630.40121895 0 4833.28872326 0 35075.32654098 0 -15610.90332869 0 -4731.05500487 0 510
0.02350000 0.02348930 66426.96271431 0 1395.39190044 0 44908.76020696 0 -10606.20592243 0 -9739.01219984 0 555
0.02450000 0.02439640 66146.50847858 0 491.74362346 0 52325.22915276 0 -2131.47467291 0 -12618.41729109 0 592
0.02550000 0.02547300 65955.52982266 0 1950.82617501 0 53141.07558282 0 5734.51913627 0 -7019.64025304 0 837
0.02650000 0.02652900 64765.03250374 0 -90.13079735 0 46715.13277943 0 16125.72513217 0 -6935.65011078 0 723
0.02750000 0.02749970 62941.68654866 0 1564.94587607 0 45351.75425227 0 19335.71776142 0 -4449.69027642 0 826
0.02850000 0.02848090 62799.37991041 0 -407.52192380 0 31451.67796484 0 23953.15226870 0 3075.38583675 0 831
0.02950000 0.02946900 62367.62651583 0 -535.12466683 0 30810.51124714 0 15310.32832815 0 6505.03202193 0 996
0.03050000 0.03053250 64591.70166947 0 -327.76838280 0 21682.76563405 0 6034.44217908 0 5716.25307883 0 1041
0.03150000 0.03150510 62077.16810094 0 -15.41497879 0 21113.42667453 0 2466.65963706 0 8642.49796168 0 1036
0.03250000 0.03246190 62512.96812978 0 2525.90910706 0 14120.95507430 0 -11379.47276752 0 10058.56141882 0 1059
0.03350000 0.03345080 61356.19276306 0 1940.52973894 0 25295.17355947 0 -3187.32023672 0 9447.93554916 0 1302
0.03450000 0.03451200 62349.86628768 0 4317.79248074 0 27904.24100064 0 -816.33090210 0 6145.70214001 0 1339
0.03550000 0.03553350 57556.51559646 0 4079.62557305 0 26059.87502870 0 663.95488892 0 -3015.21463338 0 1365
0.03650000 0.03647120 54180.04892988 0 4105.05192501 0 30367.96682786 0 73.38065407 0 -3724.38728800 0 1308
0.03750000 0.03744890 50238.51475106 0 4056.30122279 0 24272.27434295 0 -29.79300754 0 -6944.49650291 0 1579
0.03850000 0.03847530 48067.49546888 0 3867.53697506 0 28157.94248764 0 -576.29692233 0 -5979.12693683 0 1662
0.03950000 0.03950240 44845.92496938 0 846.03319759 0 23852.09881863 0 -0.25510320 0 -7207.99983734 0 1683
0.04050000 0.04050350 45933.90755363 0 -1394.91979311 0 23014.22071314 0 3471.02302052 0 -8383.04126151 0 1822
0.04150000 0.04152450 46264.04546560 0 -304.25294147 0 20829.60024357 0 822.84710733 0 -9006.08805023 0 1887
0.04250000 0.04250150 46044.40315032 0 375.44335474 0 20927.50631144 0 3348.09526413 0 -11974.66522372 0 1920
0.04350000 0.04349210 45079.95531760 0 2464.47895082 0 19043.23602940 0 2979.07594128 0 -10719.01709317 0 2005
0.04450000 0.04448520 42511.12940604 0 2796.79754903 0 18403.19337678 0 2759.63595771 0 -8120.26856937 0 2151
0.04550000 0.04548030 40262.99925984 0 2052.82383975 0 17826.43558777 0 3457.80401526 0 -2818.90790902 0 2274
0.04650000 0.04648670 39728.39391108 0 1042.90757482 0 17608.92899613 0 4480.24236510 0 -1488.82418932 0 2311
0.04750000 0.04749250 37477.34119569 0 604.90887470 0 12501.85174301 0 5444.93749214 0 1470.53565058 0 2568
0.04850000 0.04851840 37418.21537285 0 -31.70965090 0 11750.41424164 0 4759.40392601 0 4281.31656912 0 2493
0.04950000 0.04949480 36746.69889818 0 -308.84924355 0 7280.65940367 0 3293.34205442 0 2522.21093297 0 2644
0.05050000 0.05050630 37403.71493340 0 -107.31089552 0 9770.82324141 0 1687.51393164 0 2414.59294287 0 2829
0.05150000 0.05149060 36182.53063799 0 515.69520204 0 7316.26978518 0 154.10257713 0 1871.63579061 0 2784
0.05250000 0.05249300 35948.38788326 0 1596.61078918 0 6955.38869347 0 -1551.92920252 0 1293.69773328 0 3055
0.05350000 0.05348950 35440.31047022 0 161.61920028 0 9229.88940628 0 256.92867782 0 4321.42321093 0 3009
0.05450000 0.05448610 34643.46073990 0 -88.90039572 0 7748.47280579 0 1111.25635159 0 4218.02046485 0 3336
0.05550000 0.05550870 36383.40106655 0 -708.04971361 0 9529.58763607 0 1791.75972652 0 3386.32471727 0 3349
0.05650000 0.05647670 35796.41428538 0 -488.75923069 0 6799.87429060 0 1782.59859617 0 2462.77037191 0 3324
0.05750000 0.05747970 36178.93362975 0 1375.87813077 0 10454.52458147 0 -2046.51783469 0 5163.55028239 0 3639
0.05850000 0.05849280 35274.96049797 0 1790.46705169 0 9324.35583502 0 -818.61612640 0 4918.75139077 0 3846
0.05950000 0.05951020 34284.54676206 0 1399.87692009 0 15036.05645031 0 -1215.50776680 0 9745.98140329 0 3787
0.06050000 0.06049470 33276.03557847 0 835.84691990 0 11256.72486154 0 -1271.67729850 0 1397.59506799 0 3930
0.06150000 0.06148310 33810.41611423 0 650.39304382 0 17981.78138087 0 -989.18288465 0 8809.97241692 0 4083
0.06250000 0.06249100 32528.19508534 0 404.07891248 0 13253.28924438 0 -525.69600900 0 868.28743791 0 4303
0.06350000 0.06350600 33154.29933106 0 408.75389912 0 17098.82826595 0 -445.02972716 0 6177.67055069 0 4470
0.06450000 0.06451750 32557.30837074 0 -99.03226866 0 12838.39682589 0 1757.83544261 0 -796.36525827 0 4479
0.06550000 0.06550280 32792.46278403 0 -535.20559951 0 12166.65553821 0 3228.76451597 0 -345.73543892 0 4636
0.06650000 0.06648880 32546.06772000 0 -364.40391166 0 9231.64294779 0 3028.69217361 0 -1685.58053972 0 4653
0.06750000 0.06749660 33026.04350622 0 -402.88403130 0 7435.47688619 0 1820.22105417 0 -2711.58217584 0 5220
0.06850000 0.06852730 32447.14999357 0 438.50902567 0 6392.14216664 0 194.88703018 0 -4607.80126960 0 5029
0.06950000 0.06949320 32006.74129793 0 1427.80993715 0 6369.09883264 0 -913.67156524 0 -4246.17829493 0 5040
0.07050000 0.07048030 30744.86584687 0 1399.92188269 0 6997.20391419 0 -1774.48284635 0 -3720.53174480 0 5475
0.07150000 0.07148790 29720.28053274 0 1324.96922361 0 9172.53960625 0 -878.05893559 0 -2717.75329309 0 5509
0.07250000 0.07249820 29255.36721851 0 700.45215778 0 9813.32414182 0 -762.03293875 0 -2685.75116046 0 5916
0.07350000 0.07351270 29206.47038783 0 405.49748260 0 11889.01146515 0 -75.05247605 0 -1305.52289785 0 5721
0.07450000 0.07449140 28628.36372073 0 736.94493038 0 11316.86234295 0 502.77519809 0 -85.58327969 0 6028
0.07550000 0.07549160 28264.27904356 0 601.34783655 0 13294.76724557 0 1500.06484005 0 1865.55459857 0 6183
0.07650000 0.07648840 27459.11123169 0 210.77119373 0 11233.18693891 0 2042.90958580 0 2330.91753883 0 6330
0.07750000 0.07749960 27798.57888377 0 68.60607527 0 10716.20693049 0 2529.95574133 0 2077.84552827 0 6583
0.07850000 0.07848650 26861.10861281 0 132.21927829 0 8248.80541048 0 2060.44500094 0 1936.87652746 0 6549
0.07950000 0.07947320 26332.57321543 0 578.46861605 0 7302.32013763 0 1447.67216699 0 1216.08103998 0 6828
0.08050000 0.08048110 25398.13792017 0 854.39399361 0 5923.83417588 0 350.44639564 0 421.08152077 0 7147
0.08150000 0.08149960 24681.32162305 0 1270.68812123 0 5326.10133261 0 401.05854963 0 -1170.78121754 0 7386
0.08250000 0.08250610 23644.37159312 0 691.68557428 0 5972.13525207 0 -1901.91810368 0 -1471.96321322 0 7227
0.08350000 0.08350160 23249.26271992 0 683.70134006 0 6561.80854877 0 -882.62151572 0 -1559.53912307 0 7798
0.08450000 0.08449610 23472.83926296 0 259.10936407 0 7081.13785319 0 -1682.16338189 0 -1709.93902985 0 7371
0.08550000 0.08548940 22722.97545270 0 500.17523558 0 7926.13129059 0 -1502.33545150 0 -3717.95763578 0 8256
0.08650000 0.08650700 23073.12172297 0 640.16405165 0 9945.12077164 0 -1039.44545440 0 -3102.08238223 0 8037
0.08750000 0.08749060 22383.73261364 0 772.22820896 0 9658.41673410 0 -712.42007861 0 -4812.89818284 0 8155
0.08850000 0.08849210 21711.31688691 0 495.16977381 0 9184.93804401 0 269.50134567 0 -3487.43437059 0 8718
0.08950000 0.08949900 21766.84570152 0 -118.68553481 0 9015.33910578 0 437.94249687 0 -3611.42998881 0 8571
0.09050000 0.09049190 21909.93918533 0 0.35047225 0 8394.04585857 0 1214.81084645 0 -4536.06343663 0 8932
0.09150000 0.09150830 21933.31973885 0 84.24912685 0 7888.29526023 0 984.80240306 0 -3844.60604757 0 9285
0.09250000 0.09250820 21432.43634227 0 637.81812784 0 8109.89344874 0 1314.92008186 0 -2508.92448381 0 9204
0.09350000 0.09350330 20908.39720519 0 578.96657688 0 7201.99732985 0 933.35619280 0 -772.21809237 0 9349
0.09450000 0.09448040 20368.05912456 0 623.14458238 0 8158.66663227 0 1310.22148986 0 -288.62956101 0 9564
0.09550000 0.09549270 19652.92892505 0 844.39431072 0 7870.88349225 0 536.47017272 0 523.99305041 0 10155
0.09650000 0.09649430 19006.70391453 0 613.73390959 0 7659.45809265 0 599.36835795 0 834.01244570 0 9913
0.09750000 0.09749140 18392.96438461 0 726.99245822 0 7830.01248619 0 240.76574614 0 1940.30492593 0 10476
0.09850000 0.09850240 18093.06382311 0 268.31433295 0 6984.62562602 0 569.60985921 0 1064.53009057 0 10575
0.09950000 0.09950330 17741.34386174 0 85.53101066 0 6894.34071935 0 512.40281544 0 1138.63295645 0 10882
0.10050000 0.10051200 17645.79833052 0 -52.41313104 0 6078.62917710 0 822.48740651 0 -404.60609900 0 10875
0.10150000 0.10150300 17362.19671258 0 165.96146365 0 5328.94521725 0 796.43495031 0 -229.93987542 0 11118
0.10250000 0.10250800 17291.94264551 0 246.21184142 0 5346.39070718 0 428.38794375 0 -25.26617268 0 11575
0.10350000 0.10349800 17065.78075281 0 334.17780184 0 4432.86302227 0 434.36122555 0 248.95231206 0 11364
0.10450000 0.10450100 16758.46136182 0 331.92180324 0 5464.38381790 0 658.75271576 0 1631.40060319 0 12093
0.10550000 0.10551000 16589.28956832 0 160.52773309 0 4454.16405541 0 1040.07268271 0 1944.00310002 0 12067
0.10650000 0.10649700 16251.50801385 0 153.51019484 0 4537.08633585 0 1126.20079674 0 3188.42182050 0 12054
0.10750000 0.10749900 16474.18530483 0 226.81272638 0 4344.65763599 0 525.14296898 0 2474.30327956 0 12807
0.10850000 0.10850100 16154.95082407 0 263.23693101 0 4340.77961149 0 417.50362165 0 2909.31646285 0 12736
0.10950000 0.10950300 15706.44885991 0 464.77842643 0 3845.19056141 0 -329.90073424 0 2075.79972984 0 12933
0.11050000 0.11050200 15315.38662098 0 280.59249574 0 4016.52055985 0 -255.15827533 0 2218.03892419 0 13428
0.11150000 0.11150900 15219.39146373 0 44.33323889 0 4283.47477406 0 -288.00570490 0 1964.01145832 0 13453
0.11250000 0.11250000 15331.23593851 0 -35.83620619 0 4071.22880696 0 -95.71256728 0 704.91469612 0 13668
0.11350000 0.11349100 15226.81029322 0 -73.01106147 0 4280.58592682 0 -221.38798834 0 544.17226660 0 13791
0.11450000 0.11448600 15368.10527290 0 240.86466386 0 4679.16816109 0 -378.88411793 0 499.13659945 0 14205
0.11550000 0.11549300 15254.91192004 0 176.86489486 0 4778.87273308 0 191.10679934 0 1448.32412474 0 14776
0.11650000 0.11649800 15020.54435230 0 321.86591710 0 4649.30175210 0 -37.81242499 0 1095.47222983 0 14553
0.11750000 0.11747300 14991.88069294 0 337.92431073 0 5502.05123850 0 562.31804908 0 1339.19988744 0 14568
0.11850000 0.11849100 14352.84969888 0 495.92064928 0 5283.31941593 0 216.58823048 0 2015.32502891 0 16015
0.11950000 0.11950300 14350.26434921 0 317.08189615 0 5882.46858119 0 340.48942723 0 2108.72359583 0 15270
0.12050000 0.12050700 14176.82110843 0 91.23069502 0 5504.04083368 0 84.77710022 0 2628.63741409 0 15999
0.12150000 0.12150000 14289.67724177 0 -141.51417238 0 5922.56398235 0 139.25592565 0 1959.50395738 0 15670
0.12250000 0.12250700 14222.12093088 0 13.08063285 0 5512.76357865 0 -161.94293102 0 1685.55805841 0 16887
0.12350000 0.12352200 14328.56989330 0 119.70056557 0 5071.10717078 0 -173.45560549 0 1012.51060711 0 16407
0.12450000 0.12449800 13834.09366765 0 247.46180178 0 4584.74669495 0 208.94683611 0 572.16710725 0 16306
0.12550000 0.12549900 13768.67308039 0 174.07046909 0 3539.30997371 0 659.95321726 0 -438.88221527 0 17523
0.12650000 0.12650100 13379.52175208 0 82.62069378 0 3059.13185579 0 685.04459782 0 -1287.93127946 0 17154
0.12750000 0.12750600 13273.52241569 0 26.48398478 0 2350.98210039 0 517.69603787 0 -1625.09459813 0 18007
0.12850000 0.12850300 13217.54397505 0 -6.64631576 0 1871.00631417 0 317.98339633 0 -1947.81368062 0 17496
0.12950000 0.12949900 13311.62822167 0 -43.56033175 0 1950.83741566 0 -13.10041639 0 -1362.58044096 0 18405
0.13050000 0.13049000 13484.05980388 0 -9.80828833 0 2249.22048932 0 -258.12018680 0 -1208.38119423 0 18100
0.13150000 0.13148800 13485.07146245 0 -80.53611511 0 2429.73409941 0 -74.45807044 0 -1168.98271342 0 19059
0.13250000 0.13249300 13736.74963232 0 167.62058370 0 3005.13176968 0 -658.43797754 0 -1231.85167296 0 18957
0.13350000 0.13349100 13532.95663456 0 398.57773801 0 3192.51341736 0 -504.47815668 0 -1434.27331132 0 19468
0.13450000 0.13450700 13205.96610480 0 471.78359996 0 3690.90138947 0 -393.22718826 0 -894.74568160 0 19953
0.13550000 0.13551000 12853.90892390 0 406.23599335 0 3371.12735748 0 -292.48398015 0 -1162.90152137 0 19956
0.13650000 0.13649900 12662.70545497 0 214.08606163 0 3507.04930612 0 510.65152206 0 -1237.40455442 0 19723
0.13750000 0.13749600 12443.06313969 0 67.75538282 0 3064.78590311 0 648.38209140 0 -1315.54955830 0 20946
0.13850000 0.13851100 12228.02949120 0 69.75419533 0 3179.99133245 0 473.98564344 0 -924.29847644 0 20955
0.13950000 0.13949800 12308.40014393 0 85.31811274 0 2842.40086904 0 303.47958470 0 -722.27026085 0 20506
0.14050000 0.14048300 12157.32579810 0 246.57041817 0 3261.07014617 0 84.11390183 0 -410.98629235 0 21447
0.14150000 0.14148400 11965.33548362 0 459.81680319 0 3496.49433508 0 52.08805142 0 -206.14679002 0 21771
0.14250000 0.14249400 11475.01829873 0 395.88222996 0 3405.72608043 0 -119.76126508 0 -132.58684757 0 22470
0.14350000 0.14350900 11091.17255757 0 290.99122173 0 3409.32308866 0 376.69668730 0 28.43873394 0 22519
0.14450000 0.14449900 10846.47483181 0 237.46998734 0 3209.10461784 0 186.76341190 0 -497.82706364 0 22218
0.14550000 0.14550500 10711.72191084 0 124.31710082 0 2760.17550895 0 348.50176307 0 -607.59426616 0 23559
0.14650000 0.14650700 10676.05532607 0 10.91892083 0 2389.32396003 0 221.62516607 0 -634.39647376 0 23044
0.14750000 0.14750500 10581.83619165 0 -68.65980558 0 1896.62375719 0 310.32401693 0 -386.04890871 0 23649
0.14850000 0.14849900 10615.53566254 0 37.43102971 0 1995.96862835 0 198.04340490 0 -190.91458421 0 23640
0.14950000 0.14949500 10696.07492503 0 -25.07384515 0 1998.25048045 0 420.31490839 0 0.28264391 0 24457
0.15050000 0.15050000 10712.72232876 0 181.13971433 0 2148.24572380 0 310.56906311 0 427.79218926 0 24591
0.15150000 0.15149900 10488.57251253 0 181.72535224 0 2233.00023031 0 355.22254814 0 970.86287209 0 25020
0.15250000 0.15250500 10230.81315062 0 394.39059561 0 2362.71733975 0 -87.87659725 0 1161.62008719 0 25297
0.15350000 0.15350100 9981.00092877 0 373.93148722 0 2747.74334924 0 -104.37652365 0 1392.15459303 0 25452
0.15450000 0.15450400 9481.74742656 0 370.16474516 0 2539.03818712 0 -86.31538327 0 981.70223159 0 26061
0.15550000 0.15549900 9368.50911109 0 170.14073759 0 2516.18594418 0 345.14755289 0 1153.25704305 0 26128
0.15650000 0.15649500 9210.13958294 0 10.12988335 0 2193.62423080 0 152.10848569 0 754.45336796 0 26331
0.15750000 0.15749700 9238.34237563 0 -55.97383197 0 2161.39728516 0 280.57451070 0 420.19912969 0 27345
0.15850000 0.15849900 9326.48031801 0 -73.24891364 0 1983.58143124 0 195.54011199 0 433.34169853 0 26980
0.15950000 0.15949700 9362.22558734 0 59.73911275 0 2028.06068619 0 -255.60228104 0 450.14197511 0 27777
0.16050000 0.16050000 9461.07586986 0 80.51116086 0 1994.23756814 0 -306.80232105 0 408.29078431 0 28224
0.16150000 0.16150500 9372.94916813 0 114.04427012 0 2352.46586628 0 -245.15072399 0 507.87732946 0 28075
0.16250000 0.16249700 9292.75836582 0 122.90077883 0 2223.83909997 0 -55.96978534 0 330.30427360 0 28590
0.16350000 0.16349900 9239.35403419 0 111.72588591 0 2520.71592642 0 196.46521754 0 1116.68446183 0 29163
0.16450000 0.16449100 9159.08454732 0 157.14317315 0 2502.02272426 0 316.18714035 0 683.49563615 0 28996
0.16550000 0.16550500 8988.23789686 0 185.80683252 0 2233.61846610 0 351.69073568 0 793.38536176 0 30777
0.16650000 0.16650700 8804.81295824 0 161.03918270 0 2118.25566765 0 207.26073850 0 924.46146587 0 29211
0.16750000 0.16749900 8807.91537784 0 49.93760253 0 1940.95688367 0 180.62826473 0 1124.72827149 0 30922
0.16850000 0.16850800 8734.18794969 0 -39.56607891 0 2075.91213635 0 121.90822937 0 1091.37613671 0 30867
0.16950000 0.16949900 8807.54443636 0 -13.51362272 0 1871.70323452 0 -44.33795996 0 982.01472168 0 30852
0.17050000 0.17049200 8840.63691212 0 70.97537963 0 1901.72701262 0 -170.13624133 0 614.32404375 0 31257
0.17150000 0.17149500 8734.22167165 0 182.36269713 0 2159.30652412 0 -447.06203681 0 412.77355582 0 32608
0.17250000 0.17250900 8588.37422841 0 273.76942075 0 2403.93680598 0 -525.15982996 0 163.06924422 0 32361
0.17350000 0.17350400 8396.19282286 0 255.08633517 0 2532.83334791 0 -350.80160021 0 -95.69154727 0 32508
0.17450000 0.17449800 8238.98108174 0 148.62725616 0 2593.67899032 0 -69.96315903 0 -245.68690303 0 32791
0.17550000 0.17549800 8204.62965311 0 71.72400696 0 2468.77287940 0 281.04886616 0 -378.01184343 0 33633
0.17650000 0.17650100 8110.18570566 0 28.45289716 0 2252.03065200 0 404.91072063 0 -448.69193116 0 33984
0.17750000 0.17750300 8026.29672926 0 53.39713761 0 1877.13246882 0 553.53572866 0 -714.43889949 0 34069
