### header ###
fiducial parameters:
Omega_m = 0.31
Omega_nu = 0
Omega_de = 0.69
Omega_k = 0
H_0 = 100
w_de = -1
zeff = 0
beta = 0
fgrowth = 0
b_1 = 2
gamma = 0.55
Lx = 3500 Ly = 3500 Lz = 3500
nx = 700 ny = 700 nz = 700
xoffset = 857.220397 yoffset = 15.9954215 zoffset = 262.898189
bins = 400 dk = 0.001
kx_ny = 0.628318531 ky_ny = 0.628318531 kz_ny = 0.628318531
############################
A(data) = 3.07038519 (not used)
A(ran) = 3.06716321 (used)
Ngal = 187400
weighted Ngal = 0
Nran = 9360983
weighted Nran = 0
SN(data) = 3458.50413
SN(ran) = 68.8769587
SN(data+ran) = 3527.38109
############################
13 columns: k_central k_mean P_0(k) sigma^{lin}_{P_0(k)} P^img_1(k) sigma^{lin}_{P_1(k)} P_2(k) sigma^{lin}_{P_2(k)} P^img_3(k) sigma^{lin}_{P_3(k)} P_4(k) sigma^{lin}_{P_4(k)} N_modes
### header ###
0.00050000 0 0 0 0 0 0 0 0 0 0 0 0
0.00150000 0.00179520 22522.44224366 0 -40307.62464325 0 -45365.80506569 0 40186.45042837 0 118462.96992377 0 3
0.00250000 0.00253879 40443.29929757 0 -41495.53661250 0 -11167.67642645 0 -56223.14960675 0 -75686.89838000 0 6
0.00350000 0.00331552 67688.95057188 0 -39133.98830042 0 -50777.39154711 0 18984.67223909 0 36824.25938822 0 7
0.00450000 0.00420575 89348.22324591 0 -26558.39788862 0 -24899.72746676 0 -36868.54755210 0 6347.05591656 0 24
0.00550000 0.00557378 98159.31972790 0 9091.25846081 0 -14015.51777044 0 -51386.85962974 0 33084.38248351 0 45
0.00650000 0.00659388 88697.72678810 0 13040.39131953 0 28952.43168131 0 5249.78855480 0 270.33427789 0 40
0.00750000 0.00754703 74379.27348046 0 13110.19576057 0 9282.64178016 0 -1665.06635213 0 39184.68363522 0 57
0.00850000 0.00846663 86515.35444868 0 -9409.20026674 0 26414.06793323 0 22504.79442201 0 -6955.35497151 0 75
0.00950000 0.00948925 88563.85063790 0 -9839.14391655 0 29648.67758758 0 3406.00709670 0 7455.13678432 0 112
0.01050000 0.01054430 111343.70378330 0 -10375.88498895 0 35061.05091456 0 -2475.38238203 0 9475.73367842 0 105
0.01150000 0.01145670 112097.27700830 0 -2901.27939757 0 40255.13080433 0 -1875.23279885 0 5315.14169815 0 144
0.01250000 0.01249090 114656.88558626 0 2897.01919095 0 37836.92961257 0 7158.42856762 0 17110.29372970 0 169
0.01350000 0.01339930 107847.41177993 0 5703.29260854 0 35259.33599345 0 6504.21145443 0 -12377.75495894 0 180
0.01450000 0.01448870 102407.83607819 0 5629.52021779 0 35160.41826702 0 23213.06782457 0 -1228.86165986 0 267
0.01550000 0.01550050 92780.21872709 0 9892.21102865 0 23014.10830663 0 21827.65762198 0 -12141.02685454 0 238
0.01650000 0.01653350 83135.51558689 0 5378.56144957 0 10617.25548210 0 15627.98911780 0 9063.73010717 0 315
0.01750000 0.01747870 73417.97302995 0 6792.03955704 0 4759.78610813 0 13932.67417456 0 -6287.06456360 0 297
0.01850000 0.01844180 71189.73883554 0 5058.21414439 0 2368.30394316 0 3959.58666390 0 7764.99656237 0 388
0.01950000 0.01947590 67074.08697690 0 4653.65188393 0 -5408.55150572 0 -4552.41858345 0 7266.48494310 0 399
0.02050000 0.02045430 63083.88078041 0 6070.42350207 0 9632.22601789 0 -14352.06285333 0 11214.41505219 0 462
0.02150000 0.02154770 61733.09178207 0 5962.02990707 0 14283.38247736 0 -17504.95297687 0 14231.11345146 0 571
0.02250000 0.02255340 57058.77958209 0 3378.13028288 0 31193.48021754 0 -15766.13671529 0 16784.09004549 0 510
0.02350000 0.02348930 63043.75165730 0 290.52248660 0 34260.04214347 0 -7878.42596889 0 8462.86112235 0 555
0.02450000 0.02439640 66160.44688548 0 -3449.84563455 0 46885.54104452 0 -5312.23036961 0 -5786.12496378 0 592
0.02550000 0.02547300 70486.07409978 0 -2072.80971675 0 45421.22147379 0 -5500.55623196 0 -13283.97622087 0 837
0.02650000 0.02652900 74051.83332467 0 -3365.79928903 0 47708.24427152 0 -2004.65765136 0 -29837.07089384 0 723
0.02750000 0.02749970 77271.83013307 0 -3337.77634676 0 40177.00828175 0 1294.15859996 0 -29041.12041557 0 826
0.02850000 0.02848090 77680.09056762 0 -3.40486055 0 38748.09676083 0 2797.69680109 0 -47738.14440246 0 831
0.02950000 0.02946900 77064.21531407 0 -122.90864729 0 38181.11833796 0 3607.54072365 0 -37141.92017788 0 996
0.03050000 0.03053250 76613.35281325 0 3451.65537931 0 30724.07064302 0 1338.93011182 0 -38848.13855233 0 1041
0.03150000 0.03150510 74915.11530081 0 5223.95753942 0 35609.93188975 0 3025.43238490 0 -35565.53131936 0 1036
0.03250000 0.03246190 68753.32778960 0 7467.73755378 0 27253.85694935 0 -150.32122223 0 -18961.40409208 0 1059
0.03350000 0.03345080 63483.48591390 0 6667.97649493 0 38321.28925257 0 3091.68478031 0 -18715.90828011 0 1302
0.03450000 0.03451200 58506.91261577 0 4876.20552775 0 31554.86713855 0 4870.06813246 0 -12579.97426559 0 1339
0.03550000 0.03553350 54699.70421318 0 3170.49298258 0 33695.98628978 0 4955.72189103 0 -10490.49466381 0 1365
0.03650000 0.03647120 51734.87017637 0 1426.01143303 0 30159.90238283 0 2631.51502068 0 -11155.05317567 0 1308
0.03750000 0.03744890 51682.82596349 0 -416.48184649 0 32373.63613779 0 1455.60806641 0 -12099.88607287 0 1579
0.03850000 0.03847530 51047.50438417 0 -581.26753808 0 29544.13953579 0 1150.95270965 0 -15763.43895911 0 1662
0.03950000 0.03950240 51895.61148183 0 335.92459897 0 32517.06684112 0 -2077.14860793 0 -16547.47434760 0 1683
0.04050000 0.04050350 51977.33101264 0 1193.76834828 0 29408.35247496 0 132.10799585 0 -19160.25120351 0 1822
0.04150000 0.04152450 50226.03762875 0 1185.87741147 0 28825.63714106 0 1766.71555669 0 -10349.03107436 0 1887
0.04250000 0.04250150 49577.00245554 0 1907.11128432 0 25684.66210730 0 6019.80685182 0 -15179.93677967 0 1920
0.04350000 0.04349210 48865.69407729 0 278.97496610 0 27257.22914457 0 7850.25689816 0 -10133.27802423 0 2005
0.04450000 0.04448520 46593.50893852 0 1425.73041677 0 23478.00996230 0 7045.43754647 0 -11268.52754480 0 2151
0.04550000 0.04548030 43778.73758898 0 940.57156650 0 15362.70976055 0 6364.64753495 0 -7981.59266130 0 2274
0.04650000 0.04648670 43458.37904314 0 851.88957662 0 11681.50905266 0 2849.93210503 0 -6240.25849396 0 2311
0.04750000 0.04749250 41080.30697449 0 1143.98350619 0 9053.20885809 0 1323.68778943 0 -7285.77389975 0 2568
0.04850000 0.04851840 41337.94268925 0 464.25686023 0 8625.58078233 0 -394.34900520 0 -4962.15154324 0 2493
0.04950000 0.04949480 40710.82678497 0 -285.21577539 0 5914.85289595 0 -827.91439268 0 -6236.29054425 0 2644
0.05050000 0.05050630 41419.32500054 0 657.86358029 0 8794.88746364 0 -1022.91495343 0 -3352.59152442 0 2829
0.05150000 0.05149060 42304.52624561 0 1156.30325940 0 10119.95785311 0 -1891.67787087 0 -529.54143561 0 2784
0.05250000 0.05249300 40858.52893557 0 1529.23432870 0 12260.73978483 0 -661.95180496 0 -1427.80993715 0 3055
0.05350000 0.05348950 40489.27355906 0 1702.11553694 0 13398.63085833 0 -707.89122043 0 -1311.63781185 0 3009
0.05450000 0.05448610 39030.79912671 0 825.71010107 0 13480.46279565 0 1314.20068021 0 -303.07941753 0 3336
0.05550000 0.05550870 39077.67264026 0 107.09934647 0 13060.73689735 0 1608.37975049 0 -2250.45696090 0 3349
0.05650000 0.05647670 38010.26044685 0 240.43976727 0 12985.87416348 0 444.71049267 0 -9007.74042588 0 3324
0.05750000 0.05747970 39191.09080614 0 325.03915280 0 12052.67533980 0 -1264.12358121 0 -8215.62300952 0 3639
0.05850000 0.05849280 37463.40278878 0 1102.06374742 0 8635.07913220 0 -2136.90390722 0 -14260.33914336 0 3846
0.05950000 0.05951020 36661.26995262 0 1559.26934745 0 10148.43042141 0 -1587.13492061 0 -8212.00351999 0 3787
0.06050000 0.06049470 34627.72382888 0 1133.13627824 0 9807.01813676 0 1821.89591113 0 -9994.33234054 0 3930
0.06150000 0.06148310 34284.54676206 0 1265.15772107 0 10813.66337232 0 3526.82161075 0 -5331.08094089 0 4083
0.06250000 0.06249100 32571.92121669 0 1148.49100714 0 10363.76756747 0 3753.46685144 0 -1247.00407014 0 4303
0.06350000 0.06350600 32499.86864550 0 447.28797389 0 9490.68374389 0 5773.33310325 0 2330.79389167 0 4470
0.06450000 0.06451750 31123.56337000 0 343.04892340 0 9968.14162434 0 4124.72306379 0 6121.73707265 0 4479
0.06550000 0.06550280 30965.18260120 0 484.51138878 0 7444.72794174 0 1894.27446119 0 9543.63844948 0 4636
0.06650000 0.06648880 30702.60100012 0 493.18130269 0 9063.61770067 0 2172.28947572 0 8860.16192244 0 4653
0.06750000 0.06749660 29973.98201974 0 787.18726695 0 6107.09050475 0 873.13553057 0 9480.84817450 0 5220
0.06850000 0.06852730 29125.42529606 0 633.98843814 0 6151.35618733 0 -462.36281058 0 7117.53508026 0 5029
0.06950000 0.06949320 28173.45458565 0 668.91763622 0 4015.94728666 0 -662.39356254 0 3723.53299855 0 5040
0.07050000 0.07048030 27788.91192414 0 508.20780459 0 5433.15729017 0 -2535.57606669 0 3148.98961773 0 5475
0.07150000 0.07148790 27558.92821019 0 315.46998683 0 6171.49943344 0 -2195.02931215 0 -432.63915785 0 5509
0.07250000 0.07249820 27645.81844034 0 323.92183211 0 7138.83611340 0 -1934.07760543 0 1652.22952900 0 5916
0.07350000 0.07351270 27222.27072079 0 244.57407860 0 8338.66317242 0 -663.72108339 0 -1232.07648597 0 5721
0.07450000 0.07449140 27245.87608733 0 452.26083777 0 9693.84726520 0 -56.09174640 0 548.76744462 0 6028
0.07550000 0.07549160 27482.04215919 0 321.96820702 0 10938.78305561 0 1790.81551186 0 1290.67399823 0 6183
0.07650000 0.07648840 27397.62487220 0 131.75279128 0 11208.64859836 0 1098.75337578 0 2402.05961731 0 6330
0.07750000 0.07749960 27018.70253605 0 138.83777344 0 10689.69023541 0 318.00025731 0 1361.16411897 0 6583
0.07850000 0.07848650 27052.19967523 0 482.60385035 0 11630.36409183 0 322.61791663 0 3401.93798113 0 6549
0.07950000 0.07947320 26588.63523909 0 541.57680035 0 11968.37045932 0 -332.17134569 0 2798.19138972 0 6828
0.08050000 0.08048110 26386.97796497 0 753.75307542 0 11753.22440432 0 -107.28369315 0 3626.96456812 0 7147
0.08150000 0.08149960 26057.62689855 0 834.78692654 0 13573.98500973 0 318.19359650 0 4564.85074316 0 7386
0.08250000 0.08250610 24783.83635772 0 504.78727457 0 11736.47583474 0 826.44748776 0 2969.58883207 0 7227
0.08350000 0.08350160 24752.47494218 0 539.96039477 0 12036.71361576 0 1430.06930795 0 4243.43557616 0 7798
0.08450000 0.08449610 24205.28006459 0 461.15106843 0 10923.24847630 0 1179.82994138 0 3378.13028288 0 7371
0.08550000 0.08548940 23441.92747345 0 414.94637360 0 9637.63277090 0 1662.09882034 0 1396.85318504 0 8256
0.08650000 0.08650700 23145.39910717 0 310.10370017 0 9283.88949239 0 752.30865180 0 1589.15823774 0 8037
0.08750000 0.08749060 22474.66947805 0 266.59676152 0 7673.39649956 0 860.11998109 0 -208.86815156 0 8155
0.08850000 0.08849210 22313.47854657 0 383.60406717 0 6847.17494888 0 1104.91325238 0 212.17627507 0 8718
0.08950000 0.08949900 21505.95019805 0 481.98336643 0 5946.72014077 0 358.91622597 0 -1617.19242067 0 8571
0.09050000 0.09049190 21042.49816842 0 896.28452669 0 6235.12151658 0 -662.22382871 0 -1109.09027820 0 8932
0.09150000 0.09150830 20506.31912855 0 967.83351672 0 7100.80899197 0 -847.94523228 0 -1146.14171113 0 9285
0.09250000 0.09250820 19422.04595904 0 917.01565883 0 7071.20111795 0 -864.53081244 0 -343.79979887 0 9204
0.09350000 0.09350330 18981.52485689 0 657.52411264 0 7185.96816191 0 357.58758105 0 -505.50105589 0 9349
0.09450000 0.09448040 18559.32601543 0 278.48824593 0 7045.75228469 0 -268.20642270 0 -2205.88778075 0 9564
0.09550000 0.09549270 18227.50200585 0 165.39381079 0 6663.77249155 0 -34.06288113 0 -2217.57805751 0 10155
0.09650000 0.09649430 18335.74947239 0 159.50595794 0 6972.66557364 0 -33.02896608 0 -3702.95136706 0 9913
0.09750000 0.09749140 18113.40940093 0 207.37764127 0 5692.44538059 0 -838.32323526 0 -3116.96500380 0 10476
0.09850000 0.09850240 17950.98199787 0 53.16614223 0 6236.86381744 0 -51.30693860 0 -3201.98928593 0 10575
0.09950000 0.09950330 18163.43029669 0 3.10529721 0 6777.80889322 0 265.69975759 0 -2734.11968055 0 10882
0.10050000 0.10051200 18024.38344714 0 33.54952061 0 6335.03966092 0 1205.60475350 0 -2879.79851403 0 10875
0.10150000 0.10150300 18150.61595485 0 82.29561416 0 6100.96435010 0 1525.81717088 0 -1535.23683619 0 11118
0.10250000 0.10250800 17691.99740503 0 178.72634662 0 5965.52574944 0 979.91609219 0 -557.53515219 0 11575
0.10350000 0.10349800 17892.08098804 0 337.80403577 0 5366.09556791 0 998.39122573 0 -147.30872783 0 11364
0.10450000 0.10450100 17296.10168628 0 319.18839409 0 5997.26934711 0 673.14187277 0 999.26912055 0 12093
0.10550000 0.10551000 17204.37797632 0 271.81691972 0 5354.66382612 0 279.61568319 0 609.46133824 0 12067
0.10650000 0.10649700 17032.73323966 0 340.21178315 0 5627.72171368 0 321.09818065 0 2294.37418331 0 12054
0.10750000 0.10749900 16721.81684044 0 301.61476074 0 5457.58322421 0 -250.12920820 0 1128.24659517 0 12807
0.10850000 0.10850100 16486.32520762 0 287.60104147 0 5790.76735253 0 -227.12072021 0 1343.78607294 0 12736
0.10950000 0.10950300 16428.09863684 0 246.92787087 0 5787.46260121 0 -16.52386898 0 789.15100863 0 12933
0.11050000 0.11050200 16146.63274253 0 393.94771397 0 5730.93336869 0 -162.72977657 0 358.77346971 0 13428
0.11150000 0.11150900 15808.40156204 0 226.82284297 0 5192.51743932 0 154.58704918 0 439.25090861 0 13453
0.11250000 0.11250000 15585.49945804 0 285.40237019 0 5496.18361882 0 389.10973790 0 12.07425739 0 13668
0.11350000 0.11349100 15195.56128418 0 167.35305621 0 4089.71967741 0 560.07104300 0 -679.42539652 0 13791
0.11450000 0.11448600 15108.22142800 0 185.55616601 0 4940.14234911 0 398.80142696 0 -354.46605235 0 14205
0.11550000 0.11549300 14738.74123848 0 381.15810157 0 4184.30975331 0 169.09872927 0 -596.17826128 0 14776
0.11650000 0.11649800 14453.79074244 0 464.35352983 0 4319.97316698 0 -88.21516565 0 -562.24386078 0 14553
0.11750000 0.11747300 14295.52238015 0 365.03001590 0 4760.82024800 0 39.03023709 0 219.74123301 0 14568
0.11850000 0.11849100 13917.83651559 0 261.47102478 0 5196.65399879 0 21.45199507 0 319.26145832 0 16015
0.11950000 0.11950300 13945.48851639 0 108.79893286 0 5069.89318050 0 442.57814123 0 109.85960067 0 15270
0.12050000 0.12050700 13778.67725954 0 111.31121830 0 5446.16272307 0 15.37406282 0 980.65235481 0 15999
0.12150000 0.12150000 13757.32002315 0 31.18100310 0 5603.30702029 0 272.14739485 0 418.86149225 0 15670
0.12250000 0.12250700 13871.97466061 0 107.32854334 0 5838.45019293 0 -255.63038266 0 1241.57483584 0 16887
0.12350000 0.12352200 13751.47488477 0 83.57311412 0 5801.63706179 0 -376.50447217 0 679.93234987 0 16407
0.12450000 0.12449800 13986.74170457 0 -62.88109944 0 6014.09660125 0 -27.69145548 0 1382.44267080 0 16306
0.12550000 0.12549900 14037.09981985 0 -96.02438293 0 6251.37549753 0 228.43700042 0 1202.60349976 0 17523
0.12650000 0.12650100 14181.42977523 0 -125.27368020 0 5853.40025840 0 912.75208001 0 908.44016639 0 17154
0.12750000 0.12750600 14019.90162423 0 22.79502802 0 5579.61172855 0 969.84559320 0 681.85562521 0 18007
0.12850000 0.12850300 14045.08068187 0 251.58374840 0 4725.45716080 0 563.54103188 0 495.45416227 0 17496
0.12950000 0.12949900 13685.26745197 0 376.88440616 0 4855.53397106 0 381.80893525 0 487.22600593 0 18405
0.13050000 0.13049000 13531.38294346 0 472.91216129 0 4403.82842144 0 130.79958410 0 734.05495908 0 18100
0.13150000 0.13148800 13084.56707690 0 312.52830853 0 4300.15589974 0 -169.89569141 0 798.48412094 0 19059
0.13250000 0.13249300 12822.09788233 0 446.32015386 0 4753.18784615 0 -180.91152912 0 509.47687406 0 18957
0.13350000 0.13349100 12512.75517422 0 369.03393569 0 5067.28534953 0 -61.94194307 0 843.56587476 0 19468
0.13450000 0.13450700 12170.47735946 0 345.46678737 0 5228.98211030 0 65.65102059 0 654.26207580 0 19953
0.13550000 0.13551000 12043.00838017 0 197.77587742 0 5390.25172633 0 385.42168039 0 1469.89493349 0 19956
0.13650000 0.13649900 11927.11727113 0 33.96194009 0 5186.52617249 0 572.98205443 0 1242.94619523 0 19723
0.13750000 0.13749600 11823.25365838 0 -11.76244174 0 4930.26181712 0 804.61027558 0 1452.40448095 0 20946
0.13850000 0.13851100 11860.46021230 0 -49.46324707 0 4519.89938088 0 529.61562391 0 1593.19363136 0 20955
0.13950000 0.13949800 11822.24199981 0 15.39193545 0 3603.38168288 0 823.77558508 0 1661.42438129 0 20506
0.14050000 0.14048300 11575.06009024 0 80.37919562 0 3540.51272334 0 470.57073375 0 1503.09981575 0 21447
0.14150000 0.14148400 11605.40984721 0 142.97995323 0 2830.90168335 0 538.72954352 0 1612.80856688 0 21771
0.14250000 0.14249400 11232.62490637 0 175.93192085 0 2743.39321741 0 395.67540199 0 1290.55035108 0 22470
0.14350000 0.14350900 11181.61483335 0 323.22828396 0 2570.60193437 0 -34.21114531 0 1559.04453444 0 22519
0.14450000 0.14449900 10906.85960753 0 278.53882885 0 2718.21415977 0 41.19979509 0 1395.77408257 0 22218
0.14550000 0.14550500 10662.33049153 0 285.97451931 0 2803.26092320 0 -412.01706002 0 1619.29442235 0 23559
0.14650000 0.14650700 10420.52161301 0 266.32810996 0 3257.07971516 0 -151.65885966 0 1073.88793230 0 23044
0.14750000 0.14750500 10255.92476435 0 117.44793916 0 3444.04545877 0 -166.45605228 0 1403.55261287 0 23649
0.14850000 0.14849900 10241.22199320 0 25.75064473 0 3423.84600941 0 291.31158028 0 1088.34790540 0 23640
0.14950000 0.14949500 10205.85890600 0 63.07331457 0 3144.29102573 0 172.31467945 0 935.46606294 0 24457
0.15050000 0.15050000 10228.23904160 0 -49.30711443 0 2814.95119996 0 398.40125979 0 590.66584616 0 24591
0.15150000 0.15149900 10218.63952588 0 -26.57896828 0 2666.19242819 0 514.33957956 0 912.12597576 0 25020
0.15250000 0.15250500 10232.47676693 0 58.57300764 0 2204.68503112 0 34.10244822 0 239.13472772 0 25297
0.15350000 0.15350100 10292.96270851 0 68.24221540 0 2482.01436596 0 -206.52559995 0 351.37374933 0 25452
0.15450000 0.15450400 10097.78004922 0 126.88671358 0 2366.43799514 0 -465.45848579 0 -96.27785961 0 26061
0.15550000 0.15549900 10192.16779341 0 73.64761952 0 3001.44483624 0 -528.44772030 0 80.96663203 0 26128
0.15650000 0.15649500 9985.54215167 0 90.64078567 0 2915.89224352 0 -307.97247279 0 -223.67208857 0 26331
0.15750000 0.15749700 10140.47204070 0 154.34874738 0 3288.59849981 0 -103.88395833 0 -309.50007723 0 27345
0.15850000 0.15849900 9789.29163056 0 198.68861826 0 3007.42486243 0 322.27957304 0 -121.19444805 0 26980
0.15950000 0.15949700 9775.39818625 0 245.69814368 0 2766.78501158 0 357.37625682 0 -215.09659613 0 27777
0.16050000 0.16050000 9425.62285746 0 244.91017406 0 2701.48807148 0 414.46302562 0 -21.40557119 0 28224
0.16150000 0.16150500 9279.15717843 0 287.75054213 0 2625.33266278 0 167.94206631 0 122.34773882 0 28075
0.16250000 0.16249700 9076.40956120 0 213.22839998 0 2516.00609377 0 87.99979478 0 522.44970907 0 28590
0.16350000 0.16349900 8860.15068178 0 191.56766602 0 2635.55041429 0 -69.42889090 0 975.27819970 0 29163
0.16450000 0.16449100 8913.68990122 0 60.93005969 0 2748.01312486 0 1.99121383 0 952.83511645 0 28996
0.16550000 0.16550500 8854.17065560 0 -33.63180217 0 2834.90335501 0 297.74572876 0 1037.56601759 0 30777
0.16650000 0.16650700 8840.58070886 0 -2.84353617 0 2704.88274800 0 205.54204301 0 658.37278177 0 29211
0.16750000 0.16749900 8976.67126726 0 -2.37425025 0 2554.90998595 0 228.15148789 0 757.97956009 0 30922
0.16850000 0.16850800 8780.69052177 0 191.21808178 0 2369.34932368 0 -241.10296566 0 278.94461635 0 30867
0.16950000 0.16949900 8768.61806288 0 222.52554220 0 2523.57105171 0 -199.54515584 0 652.29721005 0 30852
0.17050000 0.17049200 8549.88624031 0 208.13750926 0 2825.01158236 0 -338.92360458 0 15.75939232 0 31257
0.17150000 0.17149500 8497.14510708 0 114.40959127 0 2558.69808524 0 7.77917102 0 81.37567931 0 32608
0.17250000 0.17250900 8339.50622123 0 56.54485703 0 2636.19113138 0 145.05048110 0 99.01911710 0 32361
0.17350000 0.17350400 8324.46623055 0 68.95442303 0 2292.63188244 0 264.78252049 0 -276.40647741 0 32508
0.17450000 0.17449800 8233.56308809 0 180.16852211 0 2354.21940780 0 311.86623421 0 -169.38311774 0 32791
0.17550000 0.17549800 8039.59441907 0 151.31264762 0 1895.99428075 0 301.90814172 0 -501.64663676 0 33633
0.17650000 0.17650100 7903.81859889 0 109.09343791 0 1774.92123172 0 289.25341713 0 -177.29990804 0 33984
0.17750000 0.17750300 7830.79933174 0 48.70798775 0 1819.00706389 0 131.73255811 0 -236.20091788 0 34069
