### header ###
fiducial parameters:
Omega_m = 0.31
Omega_nu = 0
Omega_de = 0.69
Omega_k = 0
H_0 = 100
w_de = -1
zeff = 0
beta = 0
fgrowth = 0
b_1 = 2
gamma = 0.55
Lx = 3500 Ly = 3500 Lz = 3500
nx = 700 ny = 700 nz = 700
xoffset = 857.220397 yoffset = 15.9954215 zoffset = 262.898189
bins = 400 dk = 0.001
kx_ny = 0.628318531 ky_ny = 0.628318531 kz_ny = 0.628318531
############################
A(data) = 3.10000341 (not used)
A(ran) = 3.09609565 (used)
Ngal = 188838
weighted Ngal = 0
Nran = 9360983
weighted Nran = 0
SN(data) = 3469.8897
SN(ran) = 69.5266727
SN(data+ran) = 3539.41637
############################
13 columns: k_central k_mean P_0(k) sigma^{lin}_{P_0(k)} P^img_1(k) sigma^{lin}_{P_1(k)} P_2(k) sigma^{lin}_{P_2(k)} P^img_3(k) sigma^{lin}_{P_3(k)} P_4(k) sigma^{lin}_{P_4(k)} N_modes
### header ###
0.00050000 0 0 0 0 0 0 0 0 0 0 0 0
0.00150000 0.00179520 17015.42263753 0 -19564.68981681 0 -11187.79719125 0 13233.50569909 0 -31703.01891518 0 3
0.00250000 0.00253879 29095.07553908 0 -17657.71342030 0 -8493.09847281 0 -10344.86079294 0 717.94935471 0 6
0.00350000 0.00331552 38813.51734808 0 -13007.34380638 0 -14402.08374908 0 -15977.23613602 0 28156.14398352 0 7
0.00450000 0.00420575 44392.02749286 0 -6274.92466081 0 -17548.00466916 0 -15372.93875272 0 4593.49192122 0 24
0.00550000 0.00557378 52942.00365837 0 -12693.05521194 0 -33631.91458062 0 4930.85757161 0 7820.32304526 0 45
0.00650000 0.00659388 51835.81121994 0 -10215.40221847 0 -24748.54071442 0 -11171.07110297 0 -19532.65396223 0 40
0.00750000 0.00754703 71891.26784766 0 -17706.38543796 0 -51105.84336147 0 7708.72586481 0 -3169.98715330 0 57
0.00850000 0.00846663 70533.06001984 0 -9088.74055505 0 -24291.27104269 0 -34567.58634747 0 -22528.51219505 0 75
0.00950000 0.00948925 76173.61855665 0 -198.62679468 0 -38007.89991019 0 -26260.85786377 0 13195.84951914 0 112
0.01050000 0.01054430 74859.69889270 0 4114.31422121 0 -11736.58824124 0 -14908.58747102 0 23220.71146707 0 105
0.01150000 0.01145670 72576.04829020 0 270.91879172 0 -5353.06765372 0 1560.05619300 0 29510.30517709 0 144
0.01250000 0.01249090 78269.88751147 0 -3274.08681972 0 -5383.82207412 0 18544.37594996 0 33088.87874380 0 169
0.01350000 0.01339930 81935.91334088 0 -6580.92889566 0 6930.08598867 0 3905.08074850 0 42557.55329356 0 180
0.01450000 0.01448870 83757.12357231 0 6747.20060128 0 -4257.37398306 0 8985.85487891 0 31601.06621305 0 267
0.01550000 0.01550050 78373.86353073 0 -108.58401162 0 12438.00484686 0 3005.89613393 0 10347.67095562 0 238
0.01650000 0.01653350 77620.96474477 0 4211.14118660 0 4143.61859766 0 -9088.85296156 0 20241.26458431 0 315
0.01750000 0.01747870 83279.28350974 0 -5277.46303690 0 11130.99818311 0 -5873.15008174 0 10486.92013688 0 297
0.01850000 0.01844180 80586.69803364 0 -7848.94174202 0 14400.28524497 0 4738.94594168 0 -13508.00238994 0 388
0.01950000 0.01947590 86281.54891348 0 -2295.70058009 0 9522.73083912 0 -4016.03721187 0 -19256.92079980 0 399
0.02050000 0.02045430 87274.77281207 0 8402.67867833 0 20194.16625775 0 -3689.56375204 0 -15262.44315603 0 462
0.02150000 0.02154770 81808.44436159 0 8796.07897262 0 31484.05103894 0 -10700.49250076 0 10171.70980908 0 571
0.02250000 0.02255340 73838.93539982 0 5433.50575035 0 37662.36230672 0 1983.94113207 0 6826.70572390 0 510
0.02350000 0.02348930 75557.74330310 0 -998.62165907 0 45319.83080420 0 4326.58266961 0 14174.91019781 0 555
0.02450000 0.02439640 74385.90546439 0 -541.39132961 0 45258.34444470 0 15946.77397254 0 17388.61224180 0 592
0.02550000 0.02547300 80664.82055622 0 401.36766752 0 50149.93842330 0 4939.99622065 0 20613.55493652 0 837
0.02650000 0.02652900 79991.84279695 0 2717.09009470 0 44345.37879233 0 -948.65921470 0 15239.06260251 0 723
0.02750000 0.02749970 77339.04922444 0 7191.52104337 0 49278.33836562 0 4116.86584892 0 18708.60185714 0 826
0.02850000 0.02848090 74130.74269280 0 5094.10554217 0 44001.19006694 0 -2800.84418329 0 8903.17989278 0 831
0.02950000 0.02946900 65848.18160818 0 5749.55912695 0 40777.25903079 0 3792.89905421 0 6004.05870015 0 996
0.03050000 0.03053250 62997.10295677 0 3354.50243505 0 41051.41850212 0 7700.74500279 0 -5252.62119878 0 1041
0.03150000 0.03150510 58405.85916569 0 3873.20226303 0 31000.59065100 0 6499.02951444 0 -19385.96347019 0 1036
0.03250000 0.03246190 53780.44379640 0 2829.35047355 0 24681.32162305 0 6206.58150437 0 -10826.12925398 0 1059
0.03350000 0.03345080 51646.06903560 0 3179.39557796 0 24644.67710167 0 -2053.82425766 0 -24809.46504139 0 1302
0.03450000 0.03451200 47240.29598159 0 1063.08229475 0 14997.95064433 0 4116.69723916 0 -20048.59983078 0 1339
0.03550000 0.03553350 48556.46377568 0 -16.33266551 0 16361.32917149 0 1500.96409211 0 -25990.18299417 0 1365
0.03650000 0.03647120 46539.21659549 0 -680.54721347 0 12238.25848337 0 1238.94452357 0 -22383.73261364 0 1308
0.03750000 0.03744890 48722.82540650 0 928.40018989 0 16356.27087867 0 -1806.11403750 0 -18028.54248791 0 1579
0.03850000 0.03847530 46621.27334583 0 992.44941776 0 16461.25855649 0 100.39935661 0 -13656.94101212 0 1662
0.03950000 0.03950240 46260.78567689 0 2579.34716064 0 21309.35121677 0 3977.02091318 0 -3252.24623535 0 1683
0.04050000 0.04050350 44799.05145583 0 1962.78622739 0 22207.36680367 0 -420.46778124 0 -2007.11935388 0 1822
0.04150000 0.04152450 43692.29698486 0 1405.93563083 0 26447.11544638 0 5962.74930871 0 5050.51429864 0 1887
0.04250000 0.04250150 44379.55037055 0 446.05037824 0 27670.66027845 0 1762.46659072 0 4238.73698415 0 1920
0.04350000 0.04349210 42290.25061918 0 -372.21953611 0 22102.82875187 0 5601.04764949 0 10040.23915813 0 2005
0.04450000 0.04448520 43990.17422923 0 -851.14207335 0 23731.82385581 0 4117.25927170 0 9152.12658452 0 2151
0.04550000 0.04548030 44828.27714773 0 -1054.42024930 0 18316.52795964 0 5239.68320979 0 5226.50916714 0 2274
0.04650000 0.04648670 44525.90364307 0 812.12802279 0 19984.30330860 0 1366.53715002 0 3224.60547520 0 2311
0.04750000 0.04749250 44176.99384438 0 1250.00532389 0 16759.81023991 0 1838.71192462 0 4480.50090007 0 2568
0.04850000 0.04851840 42385.00930484 0 1481.92242977 0 16780.83025677 0 -173.56014355 0 3212.92643909 0 2493
0.04950000 0.04949480 42423.11511082 0 2281.68348863 0 18622.16125302 0 -272.93873666 0 1313.26770620 0 2644
0.05050000 0.05050630 39958.49003154 0 1461.16094787 0 21284.39697215 0 1052.58577510 0 1813.79140195 0 2829
0.05150000 0.05149060 37556.70018985 0 1478.24673698 0 19478.47402571 0 1192.16093523 0 3300.23257332 0 2784
0.05250000 0.05249300 37712.27079597 0 1481.73133871 0 16809.38150963 0 2875.48210415 0 741.25347180 0 3055
0.05350000 0.05348950 36103.62126986 0 -372.07340765 0 14723.56635999 0 3722.63374649 0 -1849.90761275 0 3009
0.05450000 0.05448610 36357.43516336 0 -568.31718437 0 12567.38473677 0 2393.15702193 0 131.85058494 0 3336
0.05550000 0.05550870 36316.40678819 0 -495.65087366 0 9727.99636212 0 1786.66771174 0 -1053.04439365 0 3349
0.05650000 0.05647670 36044.83266653 0 686.06637298 0 9446.82272474 0 304.89365856 0 648.53159205 0 3324
0.05750000 0.05747970 36443.53854796 0 1069.05894875 0 9389.75394098 0 -1798.06573158 0 -316.76603386 0 3639
0.05850000 0.05849280 34712.25352237 0 895.68989626 0 12132.37155348 0 -142.71579794 0 3718.58711222 0 3846
0.05950000 0.05951020 35516.74689519 0 358.72738304 0 13589.72192075 0 55.19665338 0 6570.57625634 0 3787
0.06050000 0.06049470 34188.21438529 0 180.78675790 0 15071.35209361 0 1112.81767798 0 7947.63465544 0 3930
0.06150000 0.06148310 35582.05507594 0 661.33019698 0 14712.21330275 0 1709.70297618 0 7085.67907609 0 4083
0.06250000 0.06249100 34487.89013378 0 1441.24251478 0 14936.12706531 0 -452.00117874 0 6910.77455071 0 4303
0.06350000 0.06350600 33058.97861286 0 1851.07664043 0 14183.45309236 0 696.58874612 0 6361.19665518 0 4470
0.06450000 0.06451750 31322.74770095 0 1444.44610023 0 14629.81933289 0 1007.74344714 0 4306.87780888 0 4479
0.06550000 0.06550280 30103.58672267 0 946.46166748 0 11720.28929768 0 -845.47004099 0 944.57323816 0 4636
0.06650000 0.06648880 29701.50864602 0 -145.22471118 0 11335.63422967 0 1612.87601079 0 -1931.21123949 0 4653
0.06750000 0.06749660 29230.52538039 0 -380.28695114 0 9919.86302945 0 -573.49462810 0 -4186.80517777 0 5220
0.06850000 0.06852730 30186.65513157 0 -243.16787320 0 10104.86165918 0 -1390.29988566 0 -5140.60811425 0 5029
0.06950000 0.06949320 29899.68131841 0 64.96938753 0 10700.98708940 0 -1937.15754373 0 -6535.05580003 0 5040
0.07050000 0.07048030 30394.71957660 0 328.95764364 0 12104.83195919 0 -2058.82634724 0 -5716.98372113 0 5475
0.07150000 0.07148790 30515.55657196 0 587.78037111 0 14043.84421029 0 -740.55655146 0 -5748.49126513 0 5509
0.07250000 0.07249820 30532.41754805 0 708.36445183 0 15789.74208182 0 -495.11581868 0 -2633.74066952 0 5916
0.07350000 0.07351270 29987.58320712 0 649.33417452 0 16752.16659741 0 1067.17726381 0 -1852.56040632 0 5721
0.07450000 0.07449140 29310.10918757 0 688.94622769 0 16167.65275940 0 1521.69185206 0 1637.88645866 0 6028
0.07550000 0.07549160 28977.16111291 0 545.19966208 0 14882.05953530 0 3873.61816711 0 1503.95410520 0 6183
0.07650000 0.07648840 28115.45282788 0 591.77979464 0 14827.76719227 0 3214.37648303 0 1807.24934323 0 6330
0.07750000 0.07749960 27442.36266211 0 736.74372273 0 11305.50928571 0 3399.11657780 0 3786.67173370 0 6583
0.07850000 0.07848650 26211.96103309 0 500.37194696 0 10633.40829720 0 3412.02084484 0 2973.12963705 0 6549
0.07950000 0.07947320 25400.27364381 0 960.22022398 0 8628.97545885 0 1582.88595464 0 3781.16381484 0 6828
0.08050000 0.08048110 25187.48812547 0 799.59244910 0 7155.43855453 0 1099.69534231 0 1560.97792636 0 7147
0.08150000 0.08149960 24112.09507003 0 592.83416768 0 8322.93750205 0 -570.84408266 0 2335.64985279 0 7386
0.08250000 0.08250610 23277.70156627 0 776.46818241 0 7426.99019488 0 -884.12663886 0 591.06264113 0 7227
0.08350000 0.08350160 23005.56541208 0 211.92223636 0 9210.27447075 0 -1505.73012802 0 796.83624154 0 7798
0.08450000 0.08449610 22867.41781459 0 537.87975032 0 10107.50321210 0 87.77307086 0 443.63925866 0 7371
0.08550000 0.08548940 22961.61446772 0 253.55985480 0 9598.30173399 0 682.70766654 0 -604.52894070 0 8256
0.08650000 0.08650700 22731.85556678 0 -57.01370457 0 9130.33096275 0 1397.10047935 0 110.27314421 0 8037
0.08750000 0.08749060 22395.19807738 0 -128.52335233 0 7881.15744702 0 686.62053706 0 -1072.95158610 0 8155
0.08850000 0.08849210 22591.01021312 0 14.18749973 0 7597.11744370 0 999.72773910 0 -722.18932816 0 8718
0.08950000 0.08949900 22377.88747526 0 17.47089381 0 7179.08888366 0 208.50845073 0 -852.24253306 0 8571
0.09050000 0.09049190 22347.65012479 0 389.45594994 0 6217.21515996 0 245.82403897 0 546.79471042 0 8932
0.09150000 0.09150830 22002.33733433 0 244.62016527 0 6940.00024262 0 528.69951087 0 -199.77109292 0 9285
0.09250000 0.09250820 21734.92225344 0 350.43965125 0 6297.94551351 0 1345.87683397 0 193.95180804 0 9204
0.09350000 0.09350330 21088.80964943 0 741.26246433 0 6321.25862313 0 781.59279508 0 110.28292357 0 9349
0.09450000 0.09448040 20636.37345750 0 820.24264856 0 4996.88515400 0 357.33017015 0 -218.62728452 0 9564
0.09550000 0.09549270 19601.67155772 0 909.23712852 0 6131.58388269 0 -361.23742035 0 1354.40848788 0 10155
0.09650000 0.09649430 19342.57455837 0 696.90348435 0 5021.41225390 0 -571.57697309 0 -98.93593629 0 9913
0.09750000 0.09749140 18375.42896947 0 343.87286310 0 5740.47668116 0 396.62523698 0 720.96522130 0 10476
0.09850000 0.09850240 18223.79259111 0 190.42561590 0 4757.24572107 0 510.24461050 0 -511.25402094 0 10575
0.09950000 0.09950330 18336.87353747 0 -147.19969352 0 4816.20293415 0 922.95409461 0 -214.18273122 0 10882
0.10050000 0.10051200 18346.20327757 0 -29.80537226 0 4836.99813800 0 1084.25406041 0 -652.30507851 0 10875
0.10150000 0.10150300 18431.85703614 0 54.22006565 0 4201.30561722 0 278.97833830 0 -345.52973502 0 11118
0.10250000 0.10250800 17947.94702217 0 367.72664801 0 4726.64866978 0 88.75460448 0 634.73032109 0 11575
0.10350000 0.10349800 17961.99783559 0 454.86866874 0 4910.09608971 0 -689.89269048 0 286.73888356 0 11364
0.10450000 0.10450100 17687.61355124 0 418.44558818 0 6184.22385007 0 -205.24304170 0 2400.67701727 0 12093
0.10550000 0.10551000 17756.51874022 0 259.98051450 0 5765.19487212 0 338.98655222 0 2266.85707032 0 12067
0.10650000 0.10649700 17407.15931551 0 5.78559665 0 6229.92833594 0 679.19945944 0 2925.99758853 0 12054
0.10750000 0.10749900 17521.58913995 0 143.85559993 0 6100.67209318 0 313.94238240 0 1603.20905116 0 12807
0.10850000 0.10850100 17264.74027074 0 309.30224177 0 7194.75835078 0 -92.18761162 0 1871.71447517 0 12736
0.10950000 0.10950300 17216.63028562 0 482.60722255 0 6406.41779307 0 -102.59251997 0 2042.69601344 0 12933
0.11050000 0.11050200 16689.89339236 0 409.75094484 0 6967.68596537 0 -128.89429380 0 1437.34200897 0 13428
0.11150000 0.11150900 16654.71015557 0 229.78250631 0 6838.72197953 0 -13.92885235 0 2642.96924378 0 13453
0.11250000 0.11250000 16543.87733937 0 159.68805648 0 7074.17989039 0 634.97536727 0 1625.71283392 0 13668
0.11350000 0.11349100 16464.18112568 0 94.86603388 0 6296.48422892 0 1015.84570819 0 2381.89388990 0 13791
0.11450000 0.11448600 16144.15979937 0 181.45445256 0 5883.25542674 0 720.84831853 0 1540.76723635 0 14205
0.11550000 0.11549300 15830.54564398 0 380.83324677 0 5284.82566313 0 746.93000042 0 1798.54907956 0 14776
0.11650000 0.11649800 15317.40993811 0 366.20691203 0 4417.87923485 0 1166.20627269 0 1089.43712446 0 14553
0.11750000 0.11747300 14944.89477288 0 268.98764793 0 3774.20585204 0 711.65683843 0 907.85228035 0 14568
0.11850000 0.11849100 14704.79447327 0 97.49657096 0 3502.08093849 0 508.83053664 0 1378.86814387 0 16015
0.11950000 0.11950300 14514.93988242 0 45.54127162 0 3207.95807147 0 766.00875691 0 486.17163290 0 15270
0.12050000 0.12050700 14502.01313408 0 71.08452634 0 2871.09825036 0 -55.26893077 0 1412.56761476 0 15999
0.12150000 0.12150000 14388.81978122 0 297.09377102 0 3241.79243017 0 -659.40242538 0 639.17262626 0 15670
0.12250000 0.12250700 14358.02039822 0 437.20623425 0 4059.81954646 0 -916.07706449 0 1908.83110388 0 16887
0.12350000 0.12352200 13955.49269554 0 440.97297631 0 4267.45684677 0 -1070.58655318 0 1083.55826412 0 16407
0.12450000 0.12449800 13687.96520814 0 354.67625251 0 4789.22537240 0 -511.15847541 0 1645.96848654 0 16306
0.12550000 0.12549900 13514.07234133 0 142.27853663 0 4724.80520306 0 306.40665015 0 1104.60638262 0 17523
0.12650000 0.12650100 13327.14031968 0 234.63734336 0 4507.97305046 0 594.53487814 0 1683.00643070 0 17154
0.12750000 0.12750600 13274.53407426 0 27.49272078 0 4461.43675643 0 933.61135557 0 1419.16587674 0 18007
0.12850000 0.12850300 12975.42035830 0 116.49023572 0 3929.66405165 0 240.72752792 0 895.49430894 0 17496
0.12950000 0.12949900 13113.00592325 0 56.99088605 0 4244.25614366 0 198.69423858 0 1904.48097205 0 18405
0.13050000 0.13049000 13076.92343441 0 35.34487735 0 4557.42067302 0 -351.17591388 0 1432.90195193 0 18100
0.13150000 0.13148800 13170.10842897 0 -105.66481463 0 4995.03044663 0 -550.43892939 0 2602.40173529 0 19059
0.13250000 0.13249300 13525.20058556 0 -120.68187438 0 5222.24896051 0 -297.96716958 0 1592.90137444 0 18957
0.13350000 0.13349100 13546.33300893 0 21.81877751 0 5263.08624461 0 -70.06342563 0 1666.59508063 0 19468
0.13450000 0.13450700 13505.19222726 0 164.90821468 0 5007.69866001 0 60.25651990 0 514.58574981 0 19953
0.13550000 0.13551000 13328.26438475 0 322.88769225 0 5042.38730816 0 -12.54546547 0 351.90318398 0 19956
0.13650000 0.13649900 13012.40209921 0 308.96165006 0 4675.25641464 0 -81.93759944 0 -542.89757681 0 19723
0.13750000 0.13749600 12672.48482110 0 354.34128112 0 4540.52597498 0 225.46272423 0 -473.51690830 0 20946
0.13850000 0.13851100 12372.13463357 0 221.59481632 0 3915.60199759 0 238.02527549 0 -770.15430890 0 20955
0.13950000 0.13949800 12104.60714618 0 185.04584046 0 3470.55091319 0 639.86392628 0 -1221.27422062 0 20506
0.14050000 0.14048300 11985.56865493 0 99.47987138 0 3145.32516559 0 498.39134431 0 -1260.66146078 0 21447
0.14150000 0.14148400 11765.70152664 0 83.03367529 0 2890.62326068 0 325.93728079 0 -1470.27711561 0 21771
0.14250000 0.14249400 11720.28929768 0 198.10522848 0 2628.37887913 0 -19.28614649 0 -1416.68169293 0 22470
0.14350000 0.14350900 11625.53061202 0 195.96163639 0 3002.29912569 0 -20.19562754 0 -1262.67353726 0 22519
0.14450000 0.14449900 11518.85683658 0 262.76257555 0 3276.09889620 0 -241.51549754 0 -423.83772833 0 22218
0.14550000 0.14550500 11407.34958133 0 197.35098082 0 3610.08111072 0 -100.26368195 0 -454.15488742 0 23559
0.14650000 0.14650700 11199.75724363 0 211.32985407 0 4012.90107031 0 -48.78914525 0 2.44228991 0 23044
0.14750000 0.14750500 11201.81428272 0 204.78329908 0 4016.38567204 0 -265.57611043 0 186.81849108 0 23649
0.14850000 0.14849900 11190.86588890 0 9.09740710 0 4375.71555396 0 103.81527796 0 161.06728432 0 23640
0.14950000 0.14949500 10991.20945062 0 97.50387738 0 4297.21084925 0 411.28866586 0 507.27932684 0 24457
0.15050000 0.15050000 11060.30573066 0 59.82892555 0 3965.06086080 0 593.01851435 0 191.89364489 0 24591
0.15150000 0.15149900 10792.30613593 0 78.42523330 0 3557.26129293 0 675.60020308 0 175.76218702 0 25020
0.15250000 0.15250500 10707.46170422 0 154.53534218 0 3343.67768839 0 644.45798023 0 233.58746658 0 25297
0.15350000 0.15350100 10547.37235651 0 226.74753061 0 2979.35695755 0 409.67563248 0 152.06015089 0 25452
0.15450000 0.15450400 10315.69130429 0 194.67458188 0 2864.93837376 0 154.08346803 0 533.84772891 0 26061
0.15550000 0.15549900 10154.84883298 0 260.31998215 0 2813.20889910 0 -18.28145713 0 468.67218784 0 26128
0.15650000 0.15649500 10101.96157129 0 114.42870038 0 2838.29803153 0 -39.65903910 0 474.83768476 0 26331
0.15750000 0.15749700 9920.62739370 0 112.37222333 0 2834.28511922 0 -102.94086774 0 122.75577444 0 27345
0.15850000 0.15849900 9870.10066866 0 174.14016112 0 2790.34541551 0 -53.49257073 0 -16.22363120 0 26980
0.15950000 0.15949700 9727.20951657 0 166.27170561 0 2749.37324359 0 -62.83962144 0 -342.24072061 0 27777
0.16050000 0.16050000 9663.76728384 0 212.62365297 0 2758.41072678 0 -74.50809134 0 -333.92263907 0 28224
0.16150000 0.16150500 9396.66694117 0 210.94992007 0 2666.72073877 0 -96.11711830 0 -526.49859146 0 28075
0.16250000 0.16249700 9273.06474574 0 253.34515837 0 2946.07339074 0 -24.96627212 0 -263.99230274 0 28590
0.16350000 0.16349900 9042.19302037 0 213.78706032 0 2748.30538178 0 -45.20371488 0 -143.10022820 0 29163
0.16450000 0.16449100 8967.99348490 0 228.35044740 0 3106.93834335 0 52.29611587 0 -12.03851212 0 28996
0.16550000 0.16550500 8751.21753555 0 130.74000865 0 3167.91887356 0 91.47191939 0 123.60556763 0 30777
0.16650000 0.16650700 8789.69428300 0 107.52368104 0 3298.60267896 0 178.65890272 0 108.91516119 0 29211
0.16750000 0.16749900 8618.10574959 0 -0.85129719 0 3190.02923355 0 3.99013875 0 128.39520891 0 30922
0.16850000 0.16850800 8766.13387907 0 80.36615647 0 3445.05711734 0 -203.80648653 0 254.44899027 0 30867
0.16950000 0.16949900 8773.45154270 0 4.80707553 0 3252.13382884 0 -145.69344632 0 314.56061819 0 30852
0.17050000 0.17049200 8775.47485983 0 -14.80202610 0 3559.16096291 0 -68.02313512 0 403.52025214 0 31257
0.17150000 0.17149500 8906.69821646 0 -83.32975403 0 3370.94750707 0 253.31368455 0 189.42744612 0 32608
0.17250000 0.17250900 8905.88888961 0 -21.81956435 0 3156.14991225 0 412.63079955 0 64.49862908 0 32361
0.17350000 0.17350400 8807.26342010 0 89.48592122 0 2822.26886359 0 342.82073819 0 -408.48749569 0 32508
0.17450000 0.17449800 8693.51927535 0 145.12017313 0 2597.06242619 0 290.91928157 0 -228.36730838 0 32791
0.17550000 0.17549800 8559.49699668 0 141.15334749 0 2422.39395448 0 472.94138699 0 -389.30982148 0 33633
0.17650000 0.17650100 8448.42812681 0 85.07407821 0 2040.14438572 0 303.00860143 0 69.47385350 0 33984
0.17750000 0.17750300 8310.80883991 0 111.98498291 0 1903.93018016 0 448.14113928 0 -354.52562780 0 34069
