### header ###
fiducial parameters:
Omega_m = 0.31
Omega_nu = 0
Omega_de = 0.69
Omega_k = 0
H_0 = 100
w_de = -1
zeff = 0
beta = 0
fgrowth = 0
b_1 = 2
gamma = 0.55
Lx = 3500 Ly = 3500 Lz = 3500
nx = 700 ny = 700 nz = 700
xoffset = 857.220397 yoffset = 15.9954215 zoffset = 262.898189
bins = 400 dk = 0.001
kx_ny = 0.628318531 ky_ny = 0.628318531 kz_ny = 0.628318531
############################
A(data) = 3.05838178 (not used)
A(ran) = 3.05622797 (used)
Ngal = 186089
weighted Ngal = 0
Nran = 9360983
weighted Nran = 0
SN(data) = 3455.13077
SN(ran) = 68.6313944
SN(data+ran) = 3523.76216
############################
13 columns: k_central k_mean P_0(k) sigma^{lin}_{P_0(k)} P^img_1(k) sigma^{lin}_{P_1(k)} P_2(k) sigma^{lin}_{P_2(k)} P^img_3(k) sigma^{lin}_{P_3(k)} P_4(k) sigma^{lin}_{P_4(k)} N_modes
### header ###
0.00050000 0 0 0 0 0 0 0 0 0 0 0 0
0.00150000 0.00179520 17411.09354326 0 -13690.55055781 0 41676.84830879 0 -76450.92541018 0 29874.83948029 0 3
0.00250000 0.00253879 32346.43376302 0 -10044.96023143 0 -7077.18114414 0 22328.42861204 0 -35813.61248100 0 6
0.00350000 0.00331552 54075.73569110 0 -19316.83346819 0 15002.55931113 0 27192.37058985 0 40975.99373571 0 7
0.00450000 0.00420575 71411.74168748 0 -18662.17796962 0 3098.63150246 0 28968.61821836 0 -8723.17211198 0 24
0.00550000 0.00557378 105117.28253039 0 -28977.94795847 0 -4487.90848890 0 48696.74709680 0 7124.35815525 0 45
0.00650000 0.00659388 105163.81882441 0 -19975.31078802 0 -38851.84796708 0 13969.20628943 0 -60620.94179874 0 40
0.00750000 0.00754703 131053.62280755 0 -18045.62827703 0 -52976.84967564 0 7405.39690483 0 -4278.86610726 0 57
0.00850000 0.00846663 126021.18347529 0 -7774.59607809 0 -54774.67935355 0 -17081.63007034 0 -20425.49884979 0 75
0.00950000 0.00948925 127984.92515799 0 9571.79627956 0 -68966.00090143 0 -45306.45442983 0 29336.18749726 0 112
0.01050000 0.01054430 107817.28683597 0 13982.80747682 0 -36761.98618317 0 -55876.03831218 0 5756.29227674 0 105
0.01150000 0.01145670 105040.50888589 0 16054.79662606 0 -18618.56424478 0 -47264.57578716 0 49414.79986550 0 144
0.01250000 0.01249090 94335.13794271 0 11417.24135398 0 -2052.11567875 0 -14343.51995877 0 28271.58546653 0 169
0.01350000 0.01339930 85011.91741341 0 14237.97024841 0 29810.65536462 0 -4706.94380905 0 48542.97499480 0 180
0.01450000 0.01448870 78723.22295545 0 6519.56618332 0 35879.48269428 0 10244.09959978 0 26367.64404572 0 267
0.01550000 0.01550050 75211.86848011 0 9184.24112366 0 48616.48885058 0 7108.85729790 0 -3542.01897054 0 238
0.01650000 0.01653350 68244.91315704 0 4478.00547561 0 43574.71977821 0 -595.93995948 0 7038.79432189 0 315
0.01750000 0.01747870 59327.92974516 0 -466.45328338 0 52617.48607177 0 -1602.12994869 0 -4089.07896032 0 297
0.01850000 0.01844180 67926.69033484 0 385.27442787 0 46934.99990773 0 -11461.64192436 0 -13145.37899736 0 388
0.01950000 0.01947590 64612.38446681 0 -585.20064177 0 49974.13464587 0 -7494.58022773 0 -23032.31816082 0 399
0.02050000 0.02045430 70961.77843872 0 1822.48042497 0 50733.55300926 0 -8822.05611646 0 -23620.54141357 0 462
0.02150000 0.02154770 69834.00395088 0 -225.73812017 0 51170.47710317 0 -900.49864665 0 -24192.80294228 0 571
0.02250000 0.02255340 75570.33283192 0 -975.76941614 0 49418.84649976 0 3916.34388053 0 -35874.64921447 0 510
0.02350000 0.02348930 69659.88627105 0 1920.99348797 0 45575.21838880 0 2861.38632813 0 -28759.42970826 0 555
0.02450000 0.02439640 68054.72134667 0 3135.15237668 0 40148.23221588 0 2228.61637653 0 -36474.11311795 0 592
0.02550000 0.02547300 65331.44889407 0 2834.29635987 0 30659.66171433 0 5159.85210830 0 -29154.31376844 0 837
0.02650000 0.02652900 62923.36428797 0 6013.98419475 0 35963.56276175 0 361.85678020 0 -30716.08978100 0 723
0.02750000 0.02749970 56919.84513906 0 4271.95310706 0 27709.21571046 0 512.11617885 0 -24220.11772356 0 826
0.02850000 0.02848090 56351.29302508 0 2114.20903339 0 35933.77503731 0 3478.30696220 0 -20060.17770103 0 831
0.02950000 0.02946900 55448.10673885 0 1488.03734377 0 28886.56146802 0 3564.54523461 0 -8616.52081784 0 996
0.03050000 0.03053250 57151.85217014 0 -3125.93504308 0 30374.93603131 0 15612.58942630 0 2314.86588959 0 1041
0.03150000 0.03150510 60144.22580124 0 -3268.73626997 0 23391.68176469 0 17534.62829479 0 6905.32283511 0 1036
0.03250000 0.03246190 59644.24165673 0 -1607.94136512 0 18764.13067175 0 11739.51081043 0 15585.94908407 0 1059
0.03350000 0.03345080 61645.07748684 0 135.86911758 0 11274.93471572 0 16188.67277627 0 13251.49074026 0 1302
0.03450000 0.03451200 56818.67928248 0 1814.17358408 0 4497.89018675 0 8595.96166765 0 12253.32095535 0 1339
0.03550000 0.03553350 56364.33217993 0 1541.67772906 0 -2117.14284323 0 7243.44160910 0 8272.11852009 0 1365
0.03650000 0.03647120 50635.08490885 0 2422.20286342 0 694.28666086 0 -151.96460536 0 8656.16659297 0 1308
0.03750000 0.03744890 49850.93711386 0 3297.59102040 0 -2416.25655918 0 -4048.60137703 0 6788.86969354 0 1579
0.03850000 0.03847530 48894.69495617 0 2126.36017683 0 3550.51690249 0 -6494.90419562 0 9117.50538027 0 1662
0.03950000 0.03950240 47689.02275877 0 407.89511340 0 7768.23386978 0 -2849.22394404 0 12733.74636759 0 1683
0.04050000 0.04050350 49536.53611291 0 -634.80226125 0 8234.05767672 0 1572.55579661 0 14535.95989929 0 1822
0.04150000 0.04152450 50320.57150140 0 -713.68127963 0 14796.74299625 0 3445.11332059 0 18378.80116469 0 1887
0.04250000 0.04250150 51870.88205022 0 454.71916809 0 12527.81764620 0 3943.14159188 0 14115.22234243 0 1920
0.04350000 0.04349210 49924.78818916 0 2967.98141901 0 16218.23568769 0 2619.62241221 0 20146.73071166 0 2005
0.04450000 0.04448520 48508.69101007 0 2538.62228304 0 12864.47513559 0 -931.97471682 0 13614.78857188 0 2151
0.04550000 0.04548030 45010.93772211 0 2787.43408697 0 16425.28847415 0 -709.74255561 0 17778.77522867 0 2274
0.04650000 0.04648670 44439.68785196 0 2625.89469531 0 18693.42697865 0 -3422.00254269 0 11230.95004941 0 2311
0.04750000 0.04749250 42511.24181255 0 1834.90134403 0 19704.07388588 0 -3291.38618119 0 9466.98845215 0 2568
0.04850000 0.04851840 41818.93013403 0 1124.53718043 0 22714.43255814 0 -1390.44601412 0 7800.10111460 0 2493
0.04950000 0.04949480 41540.04958939 0 -11.81853259 0 24633.54885745 0 -668.63549589 0 6674.75460732 0 2644
0.05050000 0.05050630 42788.43625958 0 -190.05130223 0 28292.04345086 0 464.05790071 0 7229.37955503 0 2829
0.05150000 0.05149060 43413.86606625 0 324.18149115 0 26874.93461320 0 1071.85674671 0 5550.59960901 0 2784
0.05250000 0.05249300 42813.50291071 0 788.37090747 0 26704.41394162 0 2862.42046800 0 6439.15056799 0 3055
0.05350000 0.05348950 41083.00473067 0 1092.55415690 0 23813.31857360 0 585.78852780 0 3651.94129404 0 3009
0.05450000 0.05448610 40487.58746145 0 2039.72848165 0 24947.16301284 0 5491.66487723 0 9098.16022036 0 3336
0.05550000 0.05550870 36689.93361198 0 2081.70107148 0 19719.36117087 0 5047.13086277 0 2957.79738945 0 3349
0.05650000 0.05647670 35709.86127475 0 1623.09376230 0 16262.86107109 0 4849.02563429 0 4754.53672424 0 3324
0.05750000 0.05747970 33049.19924672 0 1337.49130853 0 13704.15174520 0 5001.89848423 0 3188.08460097 0 3639
0.05850000 0.05849280 32861.93000555 0 546.23267788 0 12455.98988803 0 1955.01893774 0 4262.71329216 0 3846
0.05950000 0.05951020 32044.95951042 0 -226.26081043 0 11056.54011267 0 1416.88402464 0 5650.36038425 0 3787
0.06050000 0.06049470 33440.59870518 0 109.19437896 0 10760.28152200 0 2242.10515741 0 7629.80525602 0 3930
0.06150000 0.06148310 32169.39351401 0 204.41010948 0 10913.22181585 0 63.12007568 0 6953.27545113 0 4083
0.06250000 0.06249100 32981.41812282 0 698.19166292 0 11581.01763513 0 1387.29863192 0 6290.03209540 0 4303
0.06350000 0.06350600 31503.49736470 0 857.92130981 0 10596.89866363 0 2533.17056743 0 7019.06697986 0 4470
0.06450000 0.06451750 30724.07064302 0 834.44858295 0 8332.14359500 0 4118.93412866 0 6025.01127311 0 4479
0.06550000 0.06550280 29379.68881559 0 263.02335865 0 6789.44296672 0 2955.83027557 0 6229.17521234 0 4636
0.06650000 0.06648880 28716.60282897 0 712.05138527 0 3421.63160121 0 3634.39463825 0 5343.77163556 0 4653
0.06750000 0.06749660 28145.35295882 0 110.12386837 0 2023.93536737 0 1930.86277932 0 4703.93131465 0 5220
0.06850000 0.06852730 27552.07141324 0 304.15964406 0 1617.12497676 0 616.27204852 0 5729.87674752 0 5029
0.06950000 0.06949320 27433.48254803 0 93.30167251 0 -186.76453596 0 -929.38599496 0 3400.58910304 0 5040
0.07050000 0.07048030 27542.06723409 0 158.53476571 0 2008.36706611 0 -1253.28759390 0 3177.59707384 0 5475
0.07150000 0.07148790 26895.50500404 0 479.34068945 0 1311.03081671 0 -2323.02660202 0 -313.39833490 0 5509
0.07250000 0.07249820 26723.41064135 0 693.41888262 0 3929.93382727 0 -2670.37395026 0 1106.02270461 0 5916
0.07350000 0.07351270 26446.44100734 0 616.25069129 0 4318.80413931 0 -1937.93314863 0 -974.17886406 0 5721
0.07450000 0.07449140 26188.58047957 0 193.55838526 0 4922.17978924 0 -660.79289387 0 -2887.61076628 0 6028
0.07550000 0.07549160 26463.18957693 0 -346.25925325 0 5604.55473252 0 -763.83931132 0 -2015.79713624 0 6183
0.07650000 0.07648840 26561.54527082 0 -204.33254899 0 5760.93466549 0 -567.96760014 0 -3488.43478851 0 6330
0.07750000 0.07749960 27335.46407365 0 85.51718466 0 5969.51618045 0 -447.34754934 0 -800.65131840 0 6583
0.07850000 0.07848650 26419.46344559 0 492.34837047 0 7255.54778994 0 -593.17588346 0 -1674.08135402 0 6549
0.07950000 0.07947320 27413.58659623 0 373.19297646 0 7676.61132567 0 162.43527152 0 542.86048266 0 6828
0.08050000 0.08048110 26352.13194771 0 601.02298174 0 7995.51982756 0 225.51218310 0 33.65720604 0 7147
0.08150000 0.08149960 25942.97226110 0 482.37791327 0 7633.88561224 0 1536.63067688 0 1339.87432648 0 7386
0.08250000 0.08250610 24957.61681802 0 833.78538456 0 6617.44976989 0 1065.20677774 0 434.80185906 0 7227
0.08350000 0.08350160 24277.78226181 0 770.56122046 0 5800.15329589 0 1217.59852783 0 170.66792411 0 7798
0.08450000 0.08449610 23550.06253348 0 908.54920070 0 3940.30894789 0 1323.57538292 0 858.49907925 0 7371
0.08550000 0.08548940 22703.07950090 0 425.87903051 0 4014.30615165 0 1512.78925668 0 -570.28879451 0 8256
0.08650000 0.08650700 22164.98955041 0 562.67999803 0 2580.93209239 0 918.97827645 0 47.79794466 0 8037
0.08750000 0.08749060 21449.40972488 0 405.31763219 0 2929.76320653 0 845.06762570 0 -757.07468771 0 8155
0.08850000 0.08849210 21206.49926258 0 486.15589599 0 1893.33024653 0 197.32962358 0 333.20548555 0 8718
0.08950000 0.08949900 20929.52962857 0 310.05311724 0 2832.95872243 0 -175.16193628 0 -27.13594252 0 8571
0.09050000 0.09049190 20850.73266694 0 345.34314021 0 3020.31788881 0 -866.22253037 0 531.39052266 0 8932
0.09150000 0.09150830 20560.94869110 0 307.22946578 0 3899.30305403 0 -1204.33455997 0 598.36231971 0 9285
0.09250000 0.09250820 20975.16667054 0 178.75332418 0 5149.00488035 0 -1139.13878573 0 1885.15829344 0 9204
0.09350000 0.09350330 20538.57979615 0 221.07887045 0 5886.51521546 0 -1094.15932183 0 1975.91530745 0 9349
0.09450000 0.09448040 20936.72364504 0 420.61390970 0 6590.17995122 0 -401.52840883 0 1234.38081937 0 9564
0.09550000 0.09549270 20178.87897275 0 740.70155585 0 7053.83431257 0 -257.99653964 0 1429.43983151 0 10155
0.09650000 0.09649430 19447.00020366 0 1011.53829083 0 6293.58414103 0 540.95744049 0 792.26579295 0 9913
0.09750000 0.09749140 18425.00023920 0 708.55441883 0 6653.35240832 0 792.48048938 0 931.75889633 0 10476
0.09850000 0.09850240 18217.94745273 0 113.76999824 0 4973.35847202 0 1239.81005368 0 685.99780501 0 10575
0.09950000 0.09950330 17648.04646067 0 -165.50734136 0 4844.41696749 0 1692.76331553 0 1239.88873823 0 10882
0.10050000 0.10051200 17979.98287676 0 35.23157159 0 4154.33093781 0 660.05663125 0 441.29333485 0 10875
0.10150000 0.10150300 17573.85816585 0 392.26386449 0 4245.99844452 0 291.35429475 0 967.82115200 0 11118
0.10250000 0.10250800 17297.56297088 0 583.69664270 0 4189.13199247 0 -327.40418571 0 1273.89170669 0 11575
0.10350000 0.10349800 16938.19936701 0 449.46866013 0 5040.99346747 0 -153.11227580 0 1781.81175062 0 11364
0.10450000 0.10450100 16747.78274363 0 201.25261069 0 4888.97490699 0 504.95138807 0 1889.44098137 0 12093
0.10550000 0.10551000 16680.33883924 0 97.39697880 0 4589.77126583 0 1000.30663262 0 1393.97557845 0 12067
0.10650000 0.10649700 16421.91627893 0 69.61807105 0 3736.89813226 0 801.30777240 0 1296.98000329 0 12054
0.10750000 0.10749900 16385.15935104 0 98.24474867 0 3188.99509368 0 870.80871587 0 1171.36573138 0 12807
0.10850000 0.10850100 16067.04893536 0 155.74596027 0 2825.60733685 0 548.15707729 0 1173.32160460 0 12736
0.10950000 0.10950300 15968.69324146 0 285.10674108 0 2855.31637673 0 93.47803832 0 1800.76348776 0 12933
0.11050000 0.11050200 15895.06697917 0 383.69848864 0 3031.16511677 0 -390.92397893 0 2450.00099268 0 13428
0.11150000 0.11150900 15662.04828952 0 362.50199355 0 3794.96733394 0 -795.66721386 0 2792.57106435 0 13453
0.11250000 0.11250000 15673.73856628 0 315.75549936 0 4475.66742026 0 -920.58568950 0 2322.12734996 0 13668
0.11350000 0.11349100 15479.05049562 0 209.20986734 0 5618.93152480 0 -1099.52560849 0 3344.88043802 0 13791
0.11450000 0.11448600 15456.11956813 0 167.65205752 0 5617.49272151 0 -373.34922151 0 1753.05816605 0 14205
0.11550000 0.11549300 15202.75530065 0 215.99022786 0 6176.58020757 0 -214.44801058 0 1238.76467316 0 14776
0.11650000 0.11649800 15084.84087448 0 336.26519068 0 5602.22791782 0 256.66677066 0 -250.36863406 0 14553
0.11750000 0.11747300 14604.86508827 0 242.90034571 0 5634.36493826 0 216.88947992 0 -468.25740783 0 14568
0.11850000 0.11849100 14538.20802943 0 117.32541607 0 5269.33604642 0 122.45340093 0 -282.09199855 0 16015
0.11950000 0.11950300 14385.33517949 0 -71.54932725 0 4270.21080620 0 619.53745756 0 -1361.51257914 0 15270
0.12050000 0.12050700 14747.95857207 0 -249.78299615 0 4225.56294149 0 565.71160153 0 -570.97559827 0 15999
0.12150000 0.12150000 14626.55954418 0 -23.16551987 0 3779.24166357 0 278.91763878 0 -1124.03472334 0 15670
0.12250000 0.12250700 14850.81052626 0 81.36522550 0 3790.23501998 0 599.54258804 0 -843.04880482 0 16887
0.12350000 0.12352200 14503.47441868 0 223.44390336 0 3533.28498492 0 443.18288824 0 -915.59596464 0 16407
0.12450000 0.12449800 14253.36993991 0 229.99270648 0 3036.06604049 0 74.28339073 0 -916.57502532 0 16306
0.12550000 0.12549900 14245.61389091 0 194.44302447 0 3234.47476654 0 79.17329861 0 -1160.20376520 0 17523
0.12650000 0.12650100 13937.28284136 0 195.76942126 0 3597.32297214 0 168.61875349 0 -578.84068159 0 17154
0.12750000 0.12750600 13961.45024043 0 363.10561650 0 3548.01023738 0 -247.40559852 0 -177.22234755 0 18007
0.12850000 0.12850300 13720.78790828 0 145.57429542 0 3936.99295593 0 8.46745855 0 -88.53990805 0 17496
0.12950000 0.12949900 13641.20410110 0 257.09728758 0 4094.17097510 0 -149.23312723 0 439.02721967 0 18405
0.13050000 0.13049000 13518.79341464 0 210.08101777 0 4701.28976173 0 115.97204172 0 55.84344043 0 18100
0.13150000 0.13148800 13388.28945965 0 146.09698568 0 4527.70039249 0 277.17533792 0 1406.04803734 0 19059
0.13250000 0.13249300 13182.81036429 0 321.31512521 0 4385.80965831 0 113.88240475 0 438.38088225 0 18957
0.13350000 0.13349100 12902.35612855 0 246.04660385 0 3941.55666012 0 -6.80730436 0 148.11018623 0 19468
0.13450000 0.13450700 12644.72041380 0 238.45804054 0 4384.87668430 0 365.91690325 0 -49.82362233 0 19953
0.13550000 0.13551000 12249.94876013 0 438.74957559 0 4146.45124165 0 -90.09628855 0 -147.68191743 0 19956
0.13650000 0.13649900 12111.35153661 0 208.11727609 0 3975.98677331 0 26.26400525 0 -48.49025634 0 19723
0.13750000 0.13749600 11792.11705585 0 171.70543618 0 3903.13611592 0 401.58686021 0 -244.04127176 0 20946
0.13850000 0.13851100 11703.99035412 0 102.11310622 0 3706.72822570 0 647.52105755 0 95.42772919 0 20955
0.13950000 0.13949800 11582.59132623 0 48.45979418 0 3436.91888621 0 580.53689578 0 23.60649060 0 20506
0.14050000 0.14048300 11556.06339050 0 22.02717917 0 2891.54499404 0 613.66758975 0 343.89759253 0 21447
0.14150000 0.14148400 11492.89093339 0 -19.70407389 0 2699.61088281 0 256.96914417 0 -86.70622070 0 21771
0.14250000 0.14249400 11488.73189262 0 27.04545528 0 2303.31050064 0 190.37840517 0 110.48615454 0 22470
0.14350000 0.14350900 11322.37026181 0 217.55942270 0 2683.32317990 0 -33.31537786 0 198.69761078 0 22519
0.14450000 0.14449900 11181.25513253 0 343.57161366 0 2242.67843059 0 19.06403123 0 145.46750924 0 22218
0.14550000 0.14550500 10860.24462895 0 357.61455862 0 2266.92451422 0 97.63393171 0 468.24729124 0 23559
0.14650000 0.14650700 10586.57974626 0 186.11145415 0 2184.91272649 0 156.05170597 0 117.57833071 0 23044
0.14750000 0.14750500 10559.34364954 0 60.19233579 0 2434.10671254 0 337.46456812 0 571.24649795 0 23649
0.14850000 0.14849900 10474.43177391 0 -8.45472289 0 2150.31400354 0 -26.83885212 0 -194.12941032 0 23640
0.14950000 0.14949500 10577.62094762 0 31.39277696 0 2559.01282347 0 -320.48668925 0 481.96313326 0 24457
0.15050000 0.15050000 10512.17787907 0 109.62039962 0 2588.06990560 0 -274.69003004 0 173.18470581 0 24591
0.15150000 0.15149900 10624.14600100 0 96.10475359 0 2934.67537089 0 -251.56014303 0 378.99540037 0 25020
0.15250000 0.15250500 10520.63084842 0 130.74787711 0 2834.34132247 0 -19.80771269 0 500.79909169 0 25297
0.15350000 0.15350100 10516.02218162 0 178.07888514 0 3250.66130359 0 193.40101615 0 426.32640840 0 25452
0.15450000 0.15450400 10325.98774036 0 238.21299436 0 2922.60291201 0 379.77774966 0 781.68047216 0 26061
0.15550000 0.15549900 10038.15963774 0 286.48596892 0 2885.89094672 0 406.17529384 0 629.88560062 0 26128
0.15650000 0.15649500 9888.49037326 0 263.95296047 0 2940.94765400 0 37.37325277 0 1125.60504225 0 26331
0.15750000 0.15749700 9567.44614773 0 222.38053780 0 2786.11893083 0 161.08751750 0 750.34153792 0 27345
0.15850000 0.15849900 9580.95740991 0 69.83636449 0 2929.65080002 0 -61.91507792 0 1257.36795012 0 26980
0.15950000 0.15949700 9595.99740059 0 -32.22548436 0 2840.10777630 0 -20.47473290 0 1318.28103643 0 27777
0.16050000 0.16050000 9720.00425945 0 -141.94244117 0 2841.23184137 0 81.67985132 0 1028.97703637 0 28224
0.16150000 0.16150500 9853.99281617 0 -184.53888712 0 2639.24858838 0 231.43375790 0 1111.26534411 0 28075
0.16250000 0.16249700 9957.89015087 0 -75.51502883 0 2627.01876039 0 297.10163947 0 922.32686630 0 28590
0.16350000 0.16349900 10007.54010515 0 126.73833699 0 2608.04454195 0 47.44206566 0 822.61667399 0 29163
0.16450000 0.16449100 9816.85370615 0 231.71927043 0 2423.25948459 0 205.92647326 0 1026.60413500 0 28996
0.16550000 0.16550500 9561.36495569 0 284.91002969 0 2215.25124281 0 158.50104376 0 888.02602059 0 30777
0.16650000 0.16650700 9356.12191399 0 125.97284868 0 2183.67625491 0 242.71599904 0 747.04128287 0 29211
0.16750000 0.16749900 9248.29035153 0 102.16503802 0 2243.94862413 0 263.55728956 0 693.17608456 0 30922
0.16850000 0.16850800 9063.02194618 0 177.21335503 0 1983.31165563 0 34.89558854 0 480.80197404 0 30867
0.16950000 0.16949900 8968.55551743 0 148.48787209 0 2192.33155597 0 -242.76995416 0 582.97162073 0 30852
0.17050000 0.17049200 8894.11992829 0 249.43678411 0 2444.72912748 0 -231.64395807 0 763.95846222 0 31257
0.17150000 0.17149500 8768.43821247 0 221.57570721 0 2449.23662843 0 8.06799954 0 593.01851435 0 32608
0.17250000 0.17250900 8649.86058791 0 193.08740200 0 2744.48356053 0 -106.10432407 0 1373.79861039 0 32361
0.17350000 0.17350400 8453.29532858 0 96.57877183 0 2506.56394715 0 229.91964225 0 962.60099380 0 32508
0.17450000 0.17449800 8516.99609627 0 41.65841364 0 2737.46939447 0 245.39464611 0 1260.34672256 0 32791
0.17550000 0.17549800 8354.38884279 0 83.34245597 0 2231.05559774 0 244.70784235 0 757.29612853 0 33633
0.17650000 0.17650100 8401.64453847 0 55.51341492 0 2291.83379624 0 118.84515205 0 1102.48976809 0 33984
0.17750000 0.17750300 8200.59425949 0 95.92141857 0 2064.44667260 0 189.29255831 0 778.71968476 0 34069
0.17850000 0.17849800 8184.50888830 0 123.75394422 0 1830.27019592 0 177.92713636 0 792.58615150 0 34536
