### header ###
fiducial parameters:
Omega_m = 0.31
Omega_nu = 0
Omega_de = 0.69
Omega_k = 0
H_0 = 100
w_de = -1
zeff = 0
beta = 0
fgrowth = 0
b_1 = 2
gamma = 0.55
Lx = 3500 Ly = 3500 Lz = 3500
nx = 700 ny = 700 nz = 700
xoffset = 857.220397 yoffset = 15.9954215 zoffset = 262.898189
bins = 400 dk = 0.001
kx_ny = 0.628318531 ky_ny = 0.628318531 kz_ny = 0.628318531
############################
A(data) = 3.07022639 (not used)
A(ran) = 3.06658672 (used)
Ngal = 187064
weighted Ngal = 0
Nran = 9360983
weighted Nran = 0
SN(data) = 3455.51635
SN(ran) = 68.864013
SN(data+ran) = 3524.38037
############################
13 columns: k_central k_mean P_0(k) sigma^{lin}_{P_0(k)} P^img_1(k) sigma^{lin}_{P_1(k)} P_2(k) sigma^{lin}_{P_2(k)} P^img_3(k) sigma^{lin}_{P_3(k)} P_4(k) sigma^{lin}_{P_4(k)} N_modes
### header ###
0.00050000 0 0 0 0 0 0 0 0 0 0 0 0
0.00150000 0.00179520 12552.09745178 0 -17103.99896529 0 -8379.47797523 0 -1578.22108458 0 74913.09198368 0 3
0.00250000 0.00253879 24916.70084936 0 -17459.31593490 0 -13044.88757982 0 -6638.14380789 0 -33414.74520850 0 6
0.00350000 0.00331552 37121.34978704 0 -18806.17070548 0 -16559.72665690 0 -6144.08348631 0 19825.36050726 0 7
0.00450000 0.00420575 50199.73450604 0 -14506.84661390 0 -17108.49522558 0 -9692.19488954 0 2499.12263637 0 24
0.00550000 0.00557378 69105.04775097 0 -21989.97261853 0 -33007.49643251 0 9232.86817872 0 19359.77275399 0 45
0.00650000 0.00659388 76216.89506196 0 -16578.04891759 0 -7762.24260294 0 -2015.10021589 0 -74544.84826573 0 40
0.00750000 0.00754703 97607.96580955 0 -23143.71300956 0 -43538.52488286 0 -1560.56202228 0 -16639.42287058 0 57
0.00850000 0.00846663 111508.82894253 0 -17601.39776014 0 -20084.00788058 0 -8457.90399538 0 -40480.73066450 0 75
0.00950000 0.00948925 123895.57642206 0 -13211.92364969 0 -34046.80699910 0 -28087.23879454 0 -6116.54389202 0 112
0.01050000 0.01054430 128590.79623239 0 -11597.31657869 0 -6341.08713102 0 -20965.27489789 0 -24518.21978095 0 105
0.01150000 0.01145670 139514.46061277 0 -9748.16208953 0 -4260.88106609 0 -12206.78466132 0 -23295.01216840 0 144
0.01250000 0.01249090 136727.90329656 0 2783.87080069 0 4747.66868665 0 -18987.25758876 0 -21383.42710509 0 169
0.01350000 0.01339930 141573.74782669 0 18500.08778608 0 -11767.94965678 0 -21155.57911477 0 -27837.35912879 0 180
0.01450000 0.01448870 112224.29636156 0 22808.85402428 0 7349.42970484 0 -23745.76226271 0 -17543.17118935 0 267
0.01550000 0.01550050 98783.28824998 0 18095.08714024 0 15277.84284753 0 -9904.55326315 0 -23984.06405821 0 238
0.01650000 0.01653350 75226.59373256 0 13916.48763750 0 4782.57090717 0 -5505.97422561 0 -27077.26632636 0 315
0.01750000 0.01747870 69721.03541103 0 3686.18031617 0 9557.47569053 0 -8492.88490045 0 -29999.38589039 0 297
0.01850000 0.01844180 60536.63691826 0 1713.15385596 0 4456.82808963 0 -5034.96847868 0 -37933.26198934 0 388
0.01950000 0.01947590 64118.69508671 0 -1193.09390924 0 6975.68930869 0 -9859.61314153 0 -38198.54134659 0 399
0.02050000 0.02045430 68104.06780338 0 -2435.82653210 0 18142.18546681 0 -16550.95894933 0 -32894.86511219 0 462
0.02150000 0.02154770 74375.11443969 0 -1221.09437021 0 36971.28709978 0 -18005.72396693 0 -24638.71955678 0 571
0.02250000 0.02255340 78484.80875345 0 -12.02288762 0 50683.64452001 0 -11342.82824614 0 -22530.98513821 0 510
0.02350000 0.02348930 81462.45713209 0 1770.36876818 0 62086.61024756 0 -7340.80812573 0 -11908.68260393 0 555
0.02450000 0.02439640 77415.48564941 0 2472.99936407 0 51826.03185380 0 14242.35410220 0 -16112.01153828 0 592
0.02550000 0.02547300 74809.79040346 0 3242.30950010 0 54588.64658396 0 12585.14496492 0 -14069.24808094 0 837
0.02650000 0.02652900 71718.61145244 0 2662.17951587 0 21415.35055316 0 25305.85217767 0 -19363.70698174 0 723
0.02750000 0.02749970 67021.03110545 0 1661.59299106 0 28957.26516112 0 18057.76817982 0 -10891.13393716 0 826
0.02850000 0.02848090 64843.37983933 0 110.06507976 0 -672.19203778 0 14560.12729836 0 -15810.08765965 0 831
0.02950000 0.02946900 61242.77459718 0 -122.62425882 0 1976.66843104 0 9386.52787422 0 1819.74894684 0 996
0.03050000 0.03053250 62835.79961878 0 1229.42369240 0 -2691.94475901 0 338.73925791 0 2456.29575709 0 1041
0.03150000 0.03150510 61808.40414196 0 2370.41718550 0 4343.60101482 0 -3866.92997992 0 7138.88107600 0 1036
0.03250000 0.03246190 60446.71171241 0 5047.28823188 0 4464.47173213 0 -5142.76631919 0 15789.62967532 0 1059
0.03350000 0.03345080 57713.43508066 0 4861.94114198 0 19639.77736370 0 -2785.72550806 0 17663.78337169 0 1302
0.03450000 0.03451200 51353.47489707 0 4140.33632765 0 17040.15206914 0 -1701.28372879 0 21693.33184574 0 1339
0.03550000 0.03553350 50457.59503381 0 3297.51233584 0 21554.50980921 0 5499.16239127 0 13767.09938929 0 1365
0.03650000 0.03647120 45784.51930541 0 2011.82918653 0 17358.59970435 0 389.02768115 0 13982.35785079 0 1308
0.03750000 0.03744890 46879.35868661 0 2257.49360826 0 21576.76629766 0 1210.94406260 0 9559.75754263 0 1579
0.03850000 0.03847530 43570.89795696 0 1209.04439263 0 18924.75957070 0 -399.94684927 0 8091.71731651 0 1662
0.03950000 0.03950240 43268.97407833 0 1602.70322188 0 20234.96981990 0 -2184.66543217 0 5088.15923794 0 1683
0.04050000 0.04050350 43684.65334236 0 -16.86659642 0 21038.56394066 0 -189.69834580 0 6406.71004998 0 1822
0.04150000 0.04152450 42275.86258624 0 449.96774502 0 20299.04152907 0 507.24110863 0 6906.05347741 0 1887
0.04250000 0.04250150 44511.96523616 0 518.31427366 0 18352.04841595 0 3737.51636805 0 2440.03053548 0 1920
0.04350000 0.04349210 43196.02225508 0 -821.56567315 0 17770.23233412 0 3741.73161208 0 3799.00272755 0 2005
0.04450000 0.04448520 43912.16411315 0 340.44446462 0 16666.73765186 0 509.61513406 0 1594.95841352 0 2151
0.04550000 0.04548030 43150.83483914 0 737.31362372 0 11496.93756766 0 666.41659143 0 -1106.13398705 0 2274
0.04650000 0.04648670 40753.09163172 0 1650.37482163 0 13543.41043974 0 -2879.47253516 0 -5867.63092223 0 2311
0.04750000 0.04749250 40112.26213354 0 1404.89025031 0 8880.06911488 0 -2000.29627888 0 -8776.20550213 0 2568
0.04850000 0.04851840 38829.02944609 0 1149.54762831 0 12501.28971047 0 -1428.46189489 0 -8106.55497548 0 2493
0.04950000 0.04949480 37913.02881802 0 1305.50041655 0 10537.53678712 0 -2090.95212703 0 -13427.18211118 0 2644
0.05050000 0.05050630 37015.35045065 0 130.54554539 0 12746.44830291 0 3079.89333769 0 -6625.27326280 0 2829
0.05150000 0.05149060 37987.21711285 0 -215.92053583 0 12736.21931075 0 2185.49724033 0 -8846.50453180 0 2784
0.05250000 0.05249300 37708.67378773 0 -218.63402891 0 11783.46175479 0 1025.19905366 0 -4612.63474941 0 3055
0.05350000 0.05348950 39157.36885394 0 -507.15230749 0 15115.64025749 0 -278.78612317 0 -6202.01780017 0 3009
0.05450000 0.05448610 39701.30394282 0 31.41042478 0 14829.00366385 0 -2594.04993179 0 -887.18297179 0 3336
0.05550000 0.05550870 40872.13012296 0 482.52066954 0 18084.07130253 0 -1706.88157285 0 -3314.55316235 0 3349
0.05650000 0.05647670 40494.21944538 0 522.24962548 0 19586.27186622 0 -985.72526049 0 -2044.60692406 0 3324
0.05750000 0.05747970 38726.62711793 0 1769.96410475 0 19604.25690739 0 1308.14196947 0 -2817.10940490 0 3639
0.05850000 0.05849280 37768.13683010 0 1828.84263328 0 18889.68874042 0 1809.62112053 0 -3241.05054722 0 3846
0.05950000 0.05951020 35713.12106346 0 1415.09676118 0 17720.32384487 0 4783.09921775 0 -992.00541205 0 3787
0.06050000 0.06049470 34473.05247482 0 821.66683900 0 13680.32156565 0 5778.17782371 0 -3750.38691314 0 3930
0.06150000 0.06148310 33230.06131699 0 253.56659919 0 11864.50684656 0 5013.68992685 0 -66.87951131 0 4083
0.06250000 0.06249100 32121.50834189 0 114.93565372 0 8692.39521028 0 3498.28159855 0 -1614.84312466 0 4303
0.06350000 0.06350600 31985.83368757 0 739.05592459 0 8227.80787491 0 934.10032388 0 1433.93609180 0 4470
0.06450000 0.06451750 31476.18258343 0 567.32351085 0 8426.61002374 0 206.88417670 0 2157.08087528 0 4479
0.06550000 0.06550280 31290.71184637 0 1456.13637699 0 10075.45611687 0 -1598.52169980 0 6908.81867749 0 4636
0.06650000 0.06648880 30577.15533796 0 844.60451089 0 12247.58822347 0 1005.75160383 0 8373.37430188 0 4653
0.06750000 0.06749660 30222.85002692 0 850.06521901 0 14861.60155097 0 14.33362819 0 11147.80295595 0 5220
0.06850000 0.06852730 30279.72771962 0 363.72947261 0 15860.67058794 0 1712.71547058 0 13915.25116592 0 5029
0.06950000 0.06949320 29902.60388760 0 280.46884858 0 16488.12371174 0 2519.00734751 0 14577.77512001 0 5040
0.07050000 0.07048030 29703.30715014 0 245.97353962 0 14821.69724087 0 1903.26698177 0 14679.84022865 0 5475
0.07150000 0.07148790 30129.66503236 0 265.60983238 0 15450.49924276 0 1111.53624379 0 12697.10184621 0 5509
0.07250000 0.07249820 29289.98842276 0 590.75801949 0 13866.46674175 0 585.31529641 0 12463.29631100 0 5916
0.07350000 0.07351270 28383.65475432 0 595.99391460 0 13283.63900135 0 709.78976634 0 7954.21043612 0 5721
0.07450000 0.07449140 27950.32766864 0 445.60300034 0 11264.03128451 0 377.17441495 0 7431.44149257 0 6028
0.07550000 0.07549160 27371.32174949 0 381.49981735 0 10403.39086129 0 1314.81891600 0 5611.14175385 0 6183
0.07650000 0.07648840 26908.54415889 0 15.90394709 0 9769.72165764 0 1842.41009871 0 3750.76909527 0 6330
0.07750000 0.07749960 27023.76082888 0 -191.34285300 0 9133.71439862 0 895.47182764 0 3772.46355118 0 6583
0.07850000 0.07848650 27370.08527790 0 -46.17569395 0 7216.04814327 0 436.61497602 0 2083.15111542 0 6549
0.07950000 0.07947320 26969.58089236 0 566.78733181 0 7872.20988904 0 -671.19948832 0 2709.52513675 0 6828
0.08050000 0.08048110 26074.93750068 0 801.08745565 0 6923.49896734 0 -54.76568683 0 771.54365333 0 7147
0.08150000 0.08149960 25352.83809772 0 786.24417636 0 7572.55662185 0 694.50248135 0 2358.00750709 0 7386
0.08250000 0.08250610 24697.17094058 0 346.31770463 0 5555.92767746 0 2361.60451533 0 87.72743382 0 7227
0.08350000 0.08350160 24011.15402647 0 356.47363257 0 4720.07288910 0 1700.29455152 0 1162.29452624 0 7798
0.08450000 0.08449610 23338.73829974 0 529.62798862 0 3141.03123701 0 1146.52389326 0 237.07094424 0 7371
0.08550000 0.08548940 23253.08454117 0 514.43287696 0 4012.33903778 0 329.12063308 0 953.40726557 0 8256
0.08650000 0.08650700 22887.87579892 0 835.50408005 0 4274.02138679 0 -2252.35663087 0 1350.22696581 0 8037
0.08750000 0.08749060 22147.56654178 0 956.64232485 0 6881.47017426 0 -2200.63839686 0 1226.19762564 0 8155
0.08850000 0.08849210 21456.94096087 0 883.18579639 0 8215.38695586 0 -3051.83667346 0 1412.48893021 0 8718
0.08950000 0.08949900 21677.25771519 0 377.70722180 0 10066.42987433 0 -1191.84619701 0 941.51465710 0 8571
0.09050000 0.09049190 21261.80326418 0 376.72029266 0 10720.35473061 0 -696.89673995 0 484.55073106 0 8932
0.09150000 0.09150830 21537.08680058 0 11.26582979 0 11015.12955538 0 607.29076859 0 -1109.68153642 0 9285
0.09250000 0.09250820 20580.05779734 0 434.75577239 0 10433.80806217 0 737.28889429 0 -1345.70822421 0 9204
0.09350000 0.09350330 20686.61916627 0 433.77333951 0 9117.73019329 0 518.33675496 0 -1855.94384219 0 9349
0.09450000 0.09448040 19773.31629438 0 464.61543699 0 9176.35018685 0 1110.38857335 0 -2056.08362846 0 9564
0.09550000 0.09549270 19691.70917007 0 223.73166402 0 8081.92670973 0 1180.70671213 0 -1333.53459947 0 10155
0.09650000 0.09649430 19246.91662065 0 -139.91912404 0 8135.05002508 0 2192.42148118 0 -1264.94414871 0 9913
0.09750000 0.09749140 19309.63945173 0 67.01226340 0 6020.30144046 0 1991.97819734 0 -728.70216120 0 10476
0.09850000 0.09850240 18989.50571891 0 361.98155143 0 5401.12143559 0 2273.01694692 0 -1000.82033035 0 10575
0.09950000 0.09950330 18262.57283613 0 898.45509634 0 4785.43727310 0 1156.51683176 0 717.16250916 0 10882
0.10050000 0.10051200 17135.47278734 0 729.53509342 0 3297.51233584 0 1035.22346598 0 608.81500083 0 10875
0.10150000 0.10150300 16654.48534256 0 476.33831164 0 3539.74835909 0 640.19102921 0 1921.76909287 0 11118
0.10250000 0.10250800 16588.39031626 0 -22.29403222 0 3199.61750862 0 530.02927985 0 1768.33421040 0 11575
0.10350000 0.10349800 16831.52559157 0 -58.97025224 0 4335.12556417 0 -317.41124721 0 2024.28382754 0 11364
0.10450000 0.10450100 16483.06541891 0 41.03163496 0 4087.53899117 0 -725.15123963 0 1966.87782426 0 12093
0.10550000 0.10551000 16745.42220697 0 157.46353170 0 4939.11944990 0 -356.17912752 0 2621.79185780 0 12067
0.10650000 0.10649700 16675.16813990 0 201.32567492 0 4815.88819593 0 44.74138692 0 2289.16976202 0 12054
0.10750000 0.10749900 16573.32784428 0 117.66263559 0 4700.52539748 0 251.21842725 0 1401.63046160 0 12807
0.10850000 0.10850100 16447.43255609 0 21.68647505 0 3886.14025202 0 541.85444442 0 1374.06838601 0 12736
0.10950000 0.10950300 16140.78760415 0 207.99362893 0 2782.17346243 0 414.89803881 0 -452.18664948 0 12933
0.11050000 0.11050200 15920.02122380 0 279.21664009 0 2442.95310467 0 -314.32568859 0 -762.91982609 0 13428
0.11150000 0.11150900 15826.72382273 0 394.76490928 0 2394.76443498 0 -413.49295746 0 -734.06282753 0 13453
0.11250000 0.11250000 15408.90883506 0 633.74339195 0 3391.59658246 0 -1023.40616987 0 -1713.15385596 0 13668
0.11350000 0.11349100 15158.46713677 0 549.99155149 0 3280.29165892 0 -481.66862821 0 -364.65345410 0 13791
0.11450000 0.11448600 14834.51158270 0 223.45851621 0 4312.82411312 0 -359.90877543 0 -817.40326018 0 14205
0.11550000 0.11549300 14846.53907899 0 67.39242221 0 4627.19139211 0 320.26974469 0 88.34319666 0 14776
0.11650000 0.11649800 14873.40423423 0 -163.80213465 0 4962.51124407 0 896.59701678 0 198.98649550 0 14553
0.11750000 0.11747300 15037.18051538 0 -97.84997702 0 4793.28324731 0 567.99682583 0 394.86607514 0 14568
0.11850000 0.11849100 15160.94007993 0 178.11822742 0 5250.36182799 0 404.61396745 0 855.30898258 0 16015
0.11950000 0.11950300 14709.40314007 0 329.52754463 0 4250.22492920 0 162.73202470 0 518.79874571 0 15270
0.12050000 0.12050700 14629.48211337 0 283.21493956 0 4400.82716769 0 -6.94522715 0 1224.07314265 0 15999
0.12150000 0.12150000 14216.38819901 0 311.75719989 0 4221.65119504 0 -241.43793705 0 351.02079290 0 15670
0.12250000 0.12250700 14164.68120564 0 112.67740699 0 4592.66011307 0 211.85816465 0 1164.16047426 0 16887
0.12350000 0.12352200 13937.50765437 0 77.13997730 0 4183.96129314 0 28.04553598 0 49.57014566 0 16407
0.12450000 0.12449800 13998.43198133 0 39.20682772 0 3652.05370055 0 -236.54038553 0 396.43864218 0 16306
0.12550000 0.12549900 13837.12864334 0 189.62977783 0 4166.84178207 0 -28.07790905 0 -317.42361193 0 17523
0.12650000 0.12650100 13684.70541943 0 273.55135212 0 4059.93195297 0 18.46883878 0 409.49578206 0 17154
0.12750000 0.12750600 13413.69333031 0 296.99148109 0 3992.76906485 0 188.26066657 0 -135.97477970 0 18007
0.12850000 0.12850300 13125.82026509 0 313.88280695 0 4289.06137747 0 278.08583063 0 315.53293447 0 17496
0.12950000 0.12949900 12960.69510585 0 316.60866475 0 4266.97349879 0 372.44996945 0 701.05690479 0 18405
0.13050000 0.13049000 12668.21337383 0 192.32078962 0 4430.10906284 0 605.19775942 0 454.86304842 0 18100
0.13150000 0.13148800 12713.06357024 0 291.95791770 0 4087.66263832 0 -99.64623301 0 1513.86835915 0 19059
0.13250000 0.13249300 12273.21690714 0 90.26748366 0 4181.97169796 0 -116.55543149 0 515.53783293 0 18957
0.13350000 0.13349100 12488.36296213 0 -53.26562199 0 4141.75264964 0 -242.04043593 0 1049.51707745 0 19468
0.13450000 0.13450700 12556.81852508 0 -192.52199726 0 4329.26918514 0 -143.05189340 0 -69.66516938 0 19953
0.13550000 0.13551000 12813.77980079 0 -175.07763140 0 3768.38319496 0 -113.35971449 0 -316.38834800 0 19956
0.13650000 0.13649900 12821.98547583 0 -1.69340403 0 3706.49217204 0 -20.65525775 0 -492.70245097 0 19723
0.13750000 0.13749600 12937.98899137 0 164.12923758 0 4118.31589287 0 55.05592043 0 -1084.21022187 0 20946
0.13850000 0.13851100 12799.72898738 0 301.06846511 0 3885.80303250 0 231.82830474 0 -302.81301411 0 20955
0.13950000 0.13949800 12420.13221219 0 341.53255962 0 3883.45373650 0 376.10093281 0 -154.87818203 0 20506
0.14050000 0.14048300 12088.53301563 0 368.09084510 0 3921.05371319 0 430.14036120 0 864.87252822 0 21447
0.14150000 0.14148400 12059.30732373 0 144.60759946 0 4279.69791541 0 423.57020085 0 674.63125899 0 21771
0.14250000 0.14249400 11979.16148402 0 -17.86251808 0 3979.71866936 0 377.25534764 0 1194.53271253 0 22470
0.14350000 0.14350900 11876.42193634 0 52.15639458 0 4025.14213896 0 396.44651063 0 1252.93913373 0 22519
0.14450000 0.14449900 11924.30710845 0 81.91568017 0 3470.41602538 0 108.82872059 0 1061.65922837 0 22218
0.14550000 0.14550500 11744.34429025 0 144.17258628 0 3657.73022917 0 -37.71283283 0 1348.14744542 0 23559
0.14650000 0.14650700 11569.88939090 0 271.43024133 0 3310.48404678 0 73.13706917 0 1094.60220347 0 23044
0.14750000 0.14750500 11390.03897921 0 235.25445508 0 3548.12264389 0 41.64706058 0 1672.73247593 0 23649
0.14850000 0.14849900 11183.50326267 0 354.63353804 0 3296.30958621 0 87.05085905 0 1398.13461922 0 23640
0.14950000 0.14949500 11014.21906267 0 252.09744614 0 3879.54199004 0 217.69880677 0 1772.96535850 0 24457
0.15050000 0.15050000 10683.09197343 0 196.90023072 0 3237.73455525 0 268.85838044 0 1323.51917967 0 24591
0.15150000 0.15149900 10662.47661999 0 63.26699098 0 3374.01620472 0 247.50564032 0 1237.86542110 0 25020
0.15250000 0.15250500 10503.36520889 0 -72.04043128 0 2748.40654763 0 37.44541775 0 314.72023543 0 25297
0.15350000 0.15350100 10489.42680199 0 15.96430939 0 2880.32682461 0 -24.93794568 0 -85.70636482 0 25452
0.15450000 0.15450400 10472.85808281 0 110.00134527 0 2371.59745383 0 -242.73735628 0 -826.29124271 0 26061
0.15550000 0.15549900 10297.77370702 0 262.16906919 0 2438.79406390 0 -373.12665662 0 -989.04574871 0 26128
0.15650000 0.15649500 10078.14263239 0 466.03625524 0 2490.47857596 0 -295.66508431 0 -951.89314992 0 26331
0.15750000 0.15749700 9647.67067200 0 305.90756525 0 2729.96063978 0 -87.21508496 0 -1134.88981975 0 27345
0.15850000 0.15849900 9578.90037083 0 187.35129793 0 2846.18896834 0 299.52175157 0 -139.89889087 0 26980
0.15950000 0.15949700 9418.63117270 0 47.81975153 0 2878.53956114 0 581.40017776 0 -495.67560309 0 27777
0.16050000 0.16050000 9466.01051553 0 16.88390702 0 2750.87949079 0 443.69771004 0 8.26910603 0 28224
0.16150000 0.16150500 9414.07870916 0 19.81468189 0 2730.35406256 0 162.24980078 0 -458.66238836 0 28075
0.16250000 0.16249700 9388.69731981 0 110.50829862 0 2511.21757656 0 -36.92879744 0 162.70729527 0 28590
0.16350000 0.16349900 9263.64508042 0 113.36758295 0 2653.24319854 0 -182.05470330 0 20.81071595 0 29163
0.16450000 0.16449100 9240.81531879 0 129.23376145 0 2267.19428984 0 -112.47395121 0 -308.79304030 0 28996
0.16550000 0.16550500 9184.22988301 0 32.24526791 0 2597.32096116 0 15.28357558 0 -79.03829840 0 30777
0.16650000 0.16650700 9077.98325230 0 102.31363943 0 2391.92055035 0 125.71656184 0 -340.75695471 0 29211
0.16750000 0.16749900 9159.52293270 0 91.21158592 0 2543.00613682 0 249.69194688 0 280.32496825 0 30922
0.16850000 0.16850800 8920.95136159 0 127.16548172 0 2269.72343625 0 347.60813134 0 -198.47729402 0 30867
0.16950000 0.16949900 8864.81555184 0 206.03775570 0 2292.77801090 0 181.06889824 0 519.39562426 0 30852
0.17050000 0.17049200 8632.22400691 0 224.59157380 0 2219.43276488 0 196.75635040 0 94.05861793 0 31257
0.17150000 0.17149500 8604.14486139 0 201.65165379 0 2313.83174972 0 16.18642465 0 761.98685208 0 32608
0.17250000 0.17250900 8278.19971214 0 163.37948618 0 2249.98485357 0 169.89231921 0 618.60111135 0 32361
0.17350000 0.17350400 8343.33928313 0 103.14893218 0 2612.31598923 0 68.19927612 0 901.49119610 0 32508
0.17450000 0.17449800 8256.86495705 0 -53.72907402 0 2510.95904159 0 207.69462762 0 1077.33094362 0 32791
0.17550000 0.17549800 8335.56075282 0 -7.03378099 0 2638.88888756 0 102.76551358 0 1238.71971056 0 33633
0.17650000 0.17650100 8428.22867745 0 -20.10457827 0 2499.89824127 0 71.87362003 0 1339.70571672 0 33984
0.17750000 0.17750300 8348.91464589 0 58.92854942 0 2752.83536402 0 27.08794494 0 1145.39982819 0 34069
