### header ###
fiducial parameters:
Omega_m = 0.31
Omega_nu = 0
Omega_de = 0.69
Omega_k = 0
H_0 = 100
w_de = -1
zeff = 0
beta = 0
fgrowth = 0
b_1 = 2
gamma = 0.55
Lx = 3500 Ly = 3500 Lz = 3500
nx = 700 ny = 700 nz = 700
xoffset = 857.220397 yoffset = 15.9954215 zoffset = 262.898189
bins = 400 dk = 0.001
kx_ny = 0.628318531 ky_ny = 0.628318531 kz_ny = 0.628318531
############################
A(data) = 3.07270099 (not used)
A(ran) = 3.07148686 (used)
Ngal = 187452
weighted Ngal = 0
Nran = 9360983
weighted Nran = 0
SN(data) = 3451.15199
SN(ran) = 68.9740517
SN(data+ran) = 3520.12604
############################
13 columns: k_central k_mean P_0(k) sigma^{lin}_{P_0(k)} P^img_1(k) sigma^{lin}_{P_1(k)} P_2(k) sigma^{lin}_{P_2(k)} P^img_3(k) sigma^{lin}_{P_3(k)} P_4(k) sigma^{lin}_{P_4(k)} N_modes
### header ###
0.00050000 0 0 0 0 0 0 0 0 0 0 0 0
0.00150000 0.00179520 5865.12425712 0 -11892.04644085 0 -13357.04045062 0 9453.73572494 0 -10718.46630128 0 3
0.00250000 0.00253879 12076.61792585 0 -11942.62936914 0 -4528.83569821 0 -16081.21215528 0 4730.23443736 0 6
0.00350000 0.00331552 23174.06276653 0 -14344.08199131 0 -21294.73837082 0 18721.75341849 0 4571.12302626 0 7
0.00450000 0.00420575 30976.87287796 0 -12538.27145138 0 -16363.46489513 0 -3066.23594705 0 -828.42471822 0 24
0.00550000 0.00557378 50224.57634416 0 -12089.20745467 0 -19316.94587470 0 -2373.37347664 0 4675.13276748 0 45
0.00650000 0.00659388 39482.78569261 0 -2367.32600655 0 -1916.37358052 0 -8776.16053952 0 -5565.21245496 0 40
0.00750000 0.00754703 64146.34708750 0 -8659.52754754 0 -7607.58248953 0 -2418.14498850 0 21522.92358066 0 57
0.00850000 0.00846663 58902.80833451 0 -4278.75370075 0 13564.43045661 0 -3804.78042203 0 -2435.65792234 0 75
0.00950000 0.00948925 82249.30268326 0 -5057.49474274 0 26092.36050931 0 -5138.09020849 0 25861.81476282 0 112
0.01050000 0.01054430 69007.36649612 0 1520.98369106 0 30504.65314075 0 6945.46319887 0 17963.68393320 0 105
0.01150000 0.01145670 83068.85852805 0 4659.80051988 0 56028.12431657 0 -320.69351723 0 20220.01975443 0 144
0.01250000 0.01249090 72711.27331849 0 8524.77462657 0 43259.53193171 0 12650.56555218 0 21718.96052941 0 169
0.01350000 0.01339930 73492.72335731 0 10720.81559729 0 65004.68317732 0 11967.69602027 0 22179.15277033 0 180
0.01450000 0.01448870 64144.88580291 0 2980.03139659 0 43397.56712269 0 16796.90438732 0 18306.63618700 0 267
0.01550000 0.01550050 68107.88962463 0 -971.76662041 0 45157.17858812 0 10726.19986899 0 -6371.87527337 0 238
0.01650000 0.01653350 65406.08681493 0 -4705.31391469 0 24737.97450274 0 1954.53558976 0 -3963.91431443 0 315
0.01750000 0.01747870 76898.41571578 0 -5976.81136278 0 25178.15838536 0 -4638.56693065 0 -28063.85824102 0 297
0.01850000 0.01844180 78010.67810562 0 -3783.64799865 0 21191.32438409 0 -16179.34303616 0 -21543.04434547 0 388
0.01950000 0.01947590 79065.50077021 0 -316.53897271 0 23348.40525937 0 -7708.10762902 0 -29061.80321292 0 399
0.02050000 0.02045430 80880.41623724 0 42.55508035 0 16958.65735134 0 -310.49487482 0 -21895.77596540 0 462
0.02150000 0.02154770 82280.66409880 0 -486.63362364 0 13958.07804521 0 12231.06446690 0 -18653.07304253 0 571
0.02250000 0.02255340 80691.57330496 0 -161.96316419 0 9560.36453777 0 16394.71390417 0 -10276.27034218 0 510
0.02350000 0.02348930 77278.01249097 0 463.35873224 0 2479.53018215 0 14128.82352981 0 -19704.97313793 0 555
0.02450000 0.02439640 79005.70050832 0 3033.86287295 0 -2714.53846698 0 7448.96566706 0 -15517.60592763 0 592
0.02550000 0.02547300 69867.61349656 0 6041.95093376 0 -2101.04623138 0 -3779.07305381 0 -6829.53836788 0 837
0.02650000 0.02652900 65488.48078478 0 5575.74494470 0 -2757.87117555 0 -10121.21680599 0 -7271.68936439 0 723
0.02750000 0.02749970 60434.23459010 0 4436.29142075 0 7482.51900950 0 -2937.93515961 0 4298.84074361 0 826
0.02850000 0.02848090 56451.89684913 0 5190.24682788 0 9458.53548280 0 -8922.07542666 0 -12111.23913011 0 831
0.02950000 0.02946900 54972.96443245 0 5460.34842429 0 13614.78857188 0 -1540.37381357 0 -2575.15439791 0 996
0.03050000 0.03053250 51145.18563902 0 3712.67452994 0 21013.94691556 0 -3372.54367947 0 3451.16079068 0 1041
0.03150000 0.03150510 48395.04803118 0 1534.87713536 0 17621.18130542 0 8606.89882082 0 4574.07931741 0 1036
0.03250000 0.03246190 50500.30950659 0 -2420.53924711 0 25524.25802137 0 8135.65702022 0 11227.98251762 0 1059
0.03350000 0.03345080 49676.36980801 0 315.26203479 0 18448.83041875 0 7768.06526002 0 1327.39720417 0 1302
0.03450000 0.03451200 52018.58420082 0 756.39013208 0 19666.30529942 0 7265.50700648 0 12615.60712841 0 1339
0.03550000 0.03553350 46216.27269999 0 2370.56331396 0 17677.38455908 0 336.06735523 0 7886.47427482 0 1365
0.03650000 0.03647120 47786.81642013 0 2601.23270761 0 16708.77768559 0 2705.78200006 0 13074.56289775 0 1308
0.03750000 0.03744890 44284.11724584 0 183.02364740 0 12589.97844474 0 1779.61982373 0 6809.48504698 0 1579
0.03850000 0.03847530 44468.12669831 0 -1061.45240040 0 13568.25227786 0 3634.51828541 0 935.27047562 0 1662
0.03950000 0.03950240 47011.32392619 0 -501.48364732 0 9887.15273582 0 -4341.24047817 0 -926.43869634 0 1683
0.04050000 0.04050350 44672.81894812 0 111.67564020 0 10979.29436084 0 -1839.70110189 0 -9087.77385909 0 1822
0.04150000 0.04152450 45034.43068214 0 1846.20943866 0 9330.99905960 0 -4827.37614098 0 -3810.73796692 0 1887
0.04250000 0.04250150 42349.48884853 0 754.80857252 0 9747.93727652 0 1169.74707767 0 -12295.47339559 0 1920
0.04350000 0.04349210 42807.43295931 0 1217.67721239 0 8743.50644915 0 380.92204791 0 -11105.22337098 0 2005
0.04450000 0.04448520 42085.67077587 0 911.27505850 0 8938.75655235 0 988.45786268 0 -14692.42975746 0 2151
0.04550000 0.04548030 41166.74757862 0 1816.93878416 0 10751.61498029 0 -2059.02867895 0 -11162.30339540 0 2274
0.04650000 0.04648670 39165.91174850 0 1504.26884342 0 13558.69772474 0 -3378.80472193 0 -9614.15105152 0 2311
0.04750000 0.04749250 38107.71688868 0 1323.08079429 0 13674.02680124 0 -1417.74955475 0 -6671.02271127 0 2568
0.04850000 0.04851840 37952.14628257 0 25.33001958 0 16344.69300841 0 4008.34860677 0 -1427.97854691 0 2493
0.04950000 0.04949480 39177.60202526 0 -484.21013934 0 12465.65684765 0 6695.23507295 0 -1959.94234276 0 2644
0.05050000 0.05050630 37989.46524299 0 -76.45002616 0 14225.71793911 0 4204.14950185 0 2712.24537423 0 2829
0.05150000 0.05149060 38640.29892032 0 957.74166049 0 13590.73357932 0 2649.19656428 0 2054.79095363 0 2784
0.05250000 0.05249300 37543.43622199 0 1016.68201260 0 12447.44699347 0 1617.55212149 0 6358.55510225 0 3055
0.05350000 0.05348950 37973.16629943 0 652.99750259 0 12021.08911124 0 -939.03946581 0 6695.52732987 0 3009
0.05450000 0.05448610 36393.06802618 0 325.42695525 0 16444.50998690 0 4.75803257 0 9679.66156398 0 3336
0.05550000 0.05550870 38645.46961965 0 -304.78350018 0 16051.31202433 0 2970.73537844 0 10325.52687368 0 3349
0.05650000 0.05647670 37758.46987047 0 -78.23245614 0 14924.88641458 0 1525.24389769 0 7717.36992522 0 3324
0.05750000 0.05747970 38355.91045682 0 661.96192155 0 15012.67589679 0 2711.59341649 0 10635.88124036 0 3639
0.05850000 0.05849280 37954.16959970 0 788.49905089 0 15227.14751274 0 2752.43070059 0 9935.38636811 0 3846
0.05950000 0.05951020 36435.55768594 0 1500.21096851 0 13663.79780907 0 1021.31990509 0 11425.44702901 0 3787
0.06050000 0.06049470 35672.31750131 0 1214.99069686 0 13580.50458715 0 888.24296515 0 5662.00569841 0 3930
0.06150000 0.06148310 34426.74099381 0 833.74604228 0 13495.97489366 0 1124.93060321 0 8607.03370862 0 4083
0.06250000 0.06249100 33000.19000954 0 675.47880405 0 12173.39992865 0 584.78810989 0 2735.50228059 0 4303
0.06350000 0.06350600 33649.22518274 0 317.57985697 0 11147.30836732 0 -300.66042949 0 5361.98148975 0 4470
0.06450000 0.06451750 32174.67661985 0 276.29519497 0 13330.73732791 0 -2159.77863145 0 1174.53559488 0 4479
0.06550000 0.06550280 33054.36994606 0 598.21956345 0 12791.63571885 0 -63.76214165 0 3422.96923865 0 4636
0.06650000 0.06648880 32146.23777350 0 485.18695189 0 15007.84241698 0 -1776.79842040 0 3969.29858613 0 4653
0.06750000 0.06749660 31549.24681318 0 1072.29850429 0 13246.54485394 0 911.27393444 0 3103.36381641 0 5220
0.06850000 0.06852730 31891.07500191 0 411.85069839 0 14576.53864843 0 3006.58181362 0 6131.94358352 0 5029
0.06950000 0.06949320 30145.17713037 0 424.36603892 0 11732.31679396 0 2723.65463472 0 2588.02494300 0 5040
0.07050000 0.07048030 30607.39268843 0 30.29242965 0 11863.04556197 0 4486.26735390 0 6342.99804164 0 5475
0.07150000 0.07148790 29179.60523258 0 114.09597711 0 7102.31523917 0 3340.18184602 0 1957.25582723 0 5509
0.07250000 0.07249820 28956.70312858 0 268.31545701 0 5885.68340730 0 2861.22895902 0 3517.77288691 0 5916
0.07350000 0.07351270 27761.59714287 0 667.84303001 0 3842.75134020 0 1072.76161910 0 709.60541967 0 5721
0.07450000 0.07449140 27621.98826079 0 582.68835633 0 4299.11051923 0 -401.45084834 0 439.16098341 0 6028
0.07550000 0.07549160 26427.21949459 0 436.35868918 0 3298.92865783 0 -1609.40264971 0 262.29608855 0 6183
0.07650000 0.07648840 26425.30858397 0 366.26648748 0 4622.41411555 0 -2211.51934677 0 -891.20937288 0 6330
0.07750000 0.07749960 26662.59872090 0 461.88171073 0 5743.25312189 0 -2064.57031976 0 -799.85997659 0 6583
0.07850000 0.07848650 26766.01270762 0 785.50566560 0 7994.75546331 0 -876.85056564 0 -303.74598812 0 6549
0.07950000 0.07947320 26055.15395539 0 633.45225910 0 7169.61301510 0 214.34122440 0 925.56866997 0 6828
0.08050000 0.08048110 25950.27868407 0 242.29447464 0 8347.59948975 0 1202.65970301 0 180.71481774 0 7147
0.08150000 0.08149960 25960.62008275 0 178.76231671 0 8277.09812837 0 1372.14623473 0 2179.46101088 0 7386
0.08250000 0.08250610 25385.77320436 0 527.33826807 0 8170.67164725 0 1899.34399467 0 2009.41244662 0 7227
0.08350000 0.08350160 25178.72041790 0 524.39321758 0 8759.65926425 0 -167.96342355 0 3804.44320251 0 7798
0.08450000 0.08449610 24381.30865504 0 750.57534346 0 8722.48643228 0 488.89299444 0 5282.61125493 0 7371
0.08550000 0.08548940 23690.68307413 0 511.40127346 0 8770.12431008 0 354.63803430 0 3171.78565741 0 8256
0.08650000 0.08650700 23899.08473868 0 124.16310391 0 8896.24441128 0 699.10327969 0 5917.01110089 0 8037
0.08750000 0.08749060 23411.12809045 0 208.27576926 0 7457.57600552 0 737.21470600 0 3299.86163184 0 8155
0.08850000 0.08849210 23312.43517703 0 309.03583835 0 7101.49467167 0 1603.01796010 0 5000.36975573 0 8718
0.08950000 0.08949900 22563.02099280 0 281.43779268 0 6186.92160624 0 1415.97353193 0 3162.97298724 0 8571
0.09050000 0.09049190 22000.08920419 0 885.83746590 0 5425.08650295 0 972.69959442 0 2679.81609687 0 8932
0.09150000 0.09150830 21292.15302115 0 985.51506032 0 5133.57146689 0 64.03697556 0 2107.00377627 0 9285
0.09250000 0.09250820 20074.56573397 0 1018.69858534 0 5634.79208299 0 -1399.65210707 0 1483.15890135 0 9204
0.09350000 0.09350330 19778.71180673 0 885.72056313 0 6436.65514353 0 -1532.16813854 0 1785.28511170 0 9349
0.09450000 0.09448040 19297.61195544 0 392.91919443 0 7313.92048918 0 -1359.17452379 0 590.11730240 0 9564
0.09550000 0.09549270 19290.19312596 0 250.02916640 0 7852.92093238 0 -908.67509599 0 1376.56381047 0 10155
0.09650000 0.09649430 19122.14539753 0 156.41028273 0 8007.17638236 0 390.91049015 0 635.43623395 0 9913
0.09750000 0.09749140 18996.25010935 0 99.98277809 0 7668.19207827 0 1049.77673648 0 1315.34722659 0 10476
0.09850000 0.09850240 18767.39046046 0 154.12843063 0 6702.17055445 0 2132.27275911 0 1525.06404728 0 10575
0.09950000 0.09950330 18118.13047424 0 149.25223634 0 5657.66680722 0 3012.64052437 0 2103.03582656 0 10882
0.10050000 0.10051200 17958.85045338 0 157.73443138 0 4355.61727045 0 2028.35294311 0 2295.03738170 0 10875
0.10150000 0.10150300 17811.37311579 0 244.02778298 0 4025.62548694 0 797.46122172 0 2774.18135976 0 11118
0.10250000 0.10250800 17525.97299373 0 615.31659321 0 4282.19333988 0 -585.17029201 0 3050.15057585 0 11575
0.10350000 0.10349800 17037.11709344 0 845.09572732 0 5083.87655001 0 -1639.06672699 0 3476.56466133 0 11364
0.10450000 0.10450100 16311.30827574 0 518.84595644 0 5094.49896495 0 -1292.15776413 0 3372.08281279 0 12093
0.10550000 0.10551000 16561.30034800 0 152.64466473 0 6732.47534882 0 -633.15325779 0 2494.96359560 0 12067
0.10650000 0.10649700 16287.14087667 0 -330.27729604 0 5601.96938285 0 653.99454831 0 1446.13219784 0 12054
0.10750000 0.10749900 16584.34368200 0 -223.33936531 0 5550.09377973 0 1014.25290798 0 516.99799346 0 12807
0.10850000 0.10850100 16450.91715782 0 -59.53475772 0 3960.69948832 0 432.02429426 0 -1093.10045253 0 12736
0.10950000 0.10950300 16305.12591784 0 190.15808842 0 3641.66733927 0 472.52435884 0 -622.30153357 0 12933
0.11050000 0.11050200 15872.69808422 0 260.95283079 0 2574.82841904 0 -221.22275078 0 -1357.66827659 0 13428
0.11150000 0.11150900 15743.88022684 0 163.69759660 0 2711.59341649 0 219.33207332 0 -569.16248131 0 13453
0.11250000 0.11250000 15849.65475022 0 217.75501003 0 3299.20967410 0 -146.16892585 0 -1237.03361295 0 13668
0.11350000 0.11349100 15547.39365206 0 402.71654561 0 3306.80835400 0 99.82642064 0 -681.75783155 0 13791
0.11450000 0.11448600 15236.47725284 0 591.87871237 0 4456.27729775 0 -355.15847643 0 -257.88300907 0 14205
0.11550000 0.11549300 14782.57977633 0 636.02974031 0 5013.03796910 0 -532.08631894 0 875.37579226 0 14776
0.11650000 0.11649800 14448.73244962 0 486.61563860 0 5582.52305709 0 75.00549013 0 1285.91920297 0 14553
0.11750000 0.11747300 14190.19748280 0 162.58139998 0 5787.61997032 0 254.59174654 0 1569.79059654 0 14568
0.11850000 0.11849100 14028.44451878 0 -27.33152985 0 5714.74683164 0 948.61425210 0 1823.01997620 0 16015
0.11950000 0.11950300 14216.16338599 0 -98.82633994 0 4833.90695905 0 1055.46900201 0 1601.63536006 0 15270
0.12050000 0.12050700 14152.65370936 0 23.69461730 0 4011.55219223 0 1103.92407512 0 2085.64653988 0 15999
0.12150000 0.12150000 14150.29317271 0 20.96853469 0 3634.40587890 0 1063.41614208 0 1330.45466117 0 15670
0.12250000 0.12250700 13797.78636578 0 109.64636552 0 2711.99807991 0 386.04328838 0 1496.37790661 0 16887
0.12350000 0.12352200 13844.43506632 0 120.16592851 0 2329.60238270 0 15.07787167 0 533.44868581 0 16407
0.12450000 0.12449800 13504.29297520 0 232.40157793 0 2439.71579726 0 -138.89510076 0 334.63754446 0 16306
0.12550000 0.12549900 13358.16451570 0 185.53593284 0 2311.40376916 0 -440.99208541 0 -43.99197273 0 17523
0.12650000 0.12650100 13380.42100414 0 0.47764672 0 2454.41856841 0 -202.70040650 0 -98.65368355 0 17154
0.12750000 0.12750600 13297.01537572 0 -100.15329876 0 2556.65228681 0 51.71216406 0 -314.08176647 0 18007
0.12850000 0.12850300 13593.20652248 0 -10.44158659 0 2647.46550407 0 -118.13586699 0 -554.45633796 0 17496
0.12950000 0.12949900 13552.51536683 0 154.60840641 0 3200.31442897 0 -218.97799283 0 -314.86523982 0 18405
0.13050000 0.13049000 13375.58752433 0 298.90801204 0 3211.45391384 0 -352.15160236 0 -166.58194757 0 18100
0.13150000 0.13148800 13212.93530825 0 393.40141835 0 3857.38666745 0 -508.85189388 0 484.84636018 0 19059
0.13250000 0.13249300 13175.16672179 0 386.38612823 0 4186.10825743 0 -580.36154163 0 -471.59812922 0 18957
0.13350000 0.13349100 12628.30906373 0 379.02799826 0 4209.45508900 0 -192.47703466 0 -471.17548076 0 19468
0.13450000 0.13450700 12589.07919268 0 440.79424996 0 4675.32385854 0 -116.82970337 0 -317.69001535 0 19953
0.13550000 0.13551000 12018.84098110 0 224.08012419 0 3894.13235469 0 -93.26693890 0 -1018.89642079 0 19956
0.13650000 0.13649900 12029.40719278 0 224.83324779 0 4348.47945724 0 275.95685138 0 -397.45030074 0 19723
0.13750000 0.13749600 11848.99474855 0 93.20916196 0 3788.14425895 0 464.60082414 0 -1150.33447386 0 20946
0.13850000 0.13851100 11749.96461561 0 115.81804481 0 3948.85184245 0 446.09309271 0 -357.76518334 0 20955
0.13950000 0.13949800 11501.20901494 0 245.61721099 0 3654.92006648 0 737.17873591 0 -505.07053897 0 20506
0.14050000 0.14048300 11494.80184402 0 84.63153379 0 3730.76073697 0 531.65130575 0 126.40448967 0 21447
0.14150000 0.14148400 11378.57351546 0 101.50004113 0 3331.25676934 0 451.28514929 0 273.96275994 0 21771
0.14250000 0.14249400 11409.03567894 0 25.99883830 0 3354.97454238 0 523.18934388 0 682.14338587 0 22470
0.14350000 0.14350900 11129.70550828 0 -0.73111665 0 3320.66807635 0 374.36537634 0 485.75797695 0 22519
0.14450000 0.14449900 11302.58671652 0 -26.51703229 0 2910.72154419 0 523.02073412 0 1253.36627846 0 22218
0.14550000 0.14550500 11340.46770948 0 42.81777436 0 2935.18120018 0 352.96092921 0 959.29511842 0 23559
0.14650000 0.14650700 11320.23453817 0 4.50202675 0 2479.35033173 0 152.47268278 0 752.24345602 0 23044
0.14750000 0.14750500 11379.80998704 0 63.31824835 0 2612.74313396 0 2.57159111 0 1068.26760694 0 23649
0.14850000 0.14849900 11121.56727715 0 224.78154080 0 2271.63434688 0 -386.76044190 0 262.86149328 0 23640
0.14950000 0.14949500 11069.36569515 0 247.23474063 0 2816.82838863 0 -626.99675338 0 595.88825249 0 24457
0.15050000 0.15050000 10878.46572379 0 408.09182479 0 2979.50308601 0 -582.53211129 0 -70.34522875 0 24591
0.15150000 0.15149900 10608.85871601 0 385.11930689 0 3348.64605602 0 -109.55093240 0 292.45363039 0 25020
0.15250000 0.15250500 10191.21233810 0 190.19967882 0 3137.00708405 0 156.26527833 0 -85.08689255 0 25297
0.15350000 0.15350100 10106.85125436 0 123.33579202 0 3196.53757032 0 519.34953759 0 83.64033321 0 25452
0.15450000 0.15450400 10072.36493792 0 -6.37570834 0 2933.47262127 0 573.91053218 0 273.01966934 0 26061
0.15550000 0.15549900 9935.64490308 0 -57.91239460 0 2770.65179543 0 759.98826438 0 331.47892160 0 26128
0.15650000 0.15649500 10037.91234343 0 27.32905690 0 2366.03333172 0 316.45354377 0 891.42856557 0 26331
0.15750000 0.15749700 10008.00097183 0 -15.79974626 0 2090.37885384 0 480.92786933 0 743.58703090 0 27345
0.15850000 0.15849900 9892.85174574 0 157.43767820 0 2106.80144456 0 -18.52773979 0 1003.55742881 0 26980
0.15950000 0.15949700 9734.77447451 0 162.53081705 0 1914.81113007 0 59.06399927 0 897.57944965 0 27777
0.16050000 0.16050000 9600.67351129 0 270.54785025 0 2108.67863323 0 -169.46629855 0 717.65147746 0 28224
0.16150000 0.16150500 9378.40088374 0 301.78224644 0 2095.47086862 0 -382.22146713 0 562.94864958 0 28075
0.16250000 0.16249700 9177.29440151 0 247.98224391 0 2208.24831740 0 -174.15702210 0 438.79903446 0 28590
0.16350000 0.16349900 9036.25795679 0 186.13393545 0 2547.77217273 0 -199.71039341 0 884.16822926 0 29163
0.16450000 0.16449100 8980.13338769 0 48.14202098 0 2234.88865964 0 174.36947040 0 368.68884772 0 28996
0.16550000 0.16550500 8897.34599505 0 46.34621462 0 2389.98715842 0 287.89554652 0 455.28232469 0 30777
0.16650000 0.16650700 8917.06209644 0 38.14368697 0 2143.29983748 0 171.72679341 0 247.73832179 0 29211
0.16750000 0.16749900 8889.35389238 0 72.44846690 0 2158.92434200 0 165.60401096 0 443.80224810 0 30922
0.16850000 0.16850800 8772.12514591 0 143.51388414 0 1981.50191086 0 -2.70930032 0 406.64065678 0 30867
0.16950000 0.16949900 8602.32387597 0 139.98544388 0 1993.04605916 0 113.26641709 0 554.57324072 0 30852
0.17050000 0.17049200 8624.07453513 0 54.20084413 0 1824.81848032 0 183.69359018 0 371.47090877 0 31257
0.17150000 0.17149500 8494.14385333 0 59.49091918 0 1869.82604585 0 376.69219104 0 167.41712792 0 32608
0.17250000 0.17250900 8439.85151030 0 38.92952086 0 1646.05841174 0 131.64488104 0 348.70409478 0 32361
0.17350000 0.17350400 8373.88013116 0 167.94768664 0 1749.07897569 0 76.56670411 0 -111.55019454 0 32508
0.17450000 0.17449800 8258.91075549 0 170.41725760 0 1412.62381801 0 -203.84245662 0 126.32468105 0 32791
0.17550000 0.17549800 8174.43726524 0 96.57191503 0 1740.44615593 0 -192.15555205 0 61.96700972 0 33633
0.17650000 0.17650100 8207.67586945 0 1.57516363 0 1747.66265370 0 -129.10336991 0 329.67816935 0 33984
0.17750000 0.17750300 8250.18801052 0 -114.69847599 0 1809.01412539 0 100.79435307 0 318.58027489 0 34069
0.17850000 0.17849800 8384.01919812 0 33.38102326 0 1874.51339720 0 368.80462642 0 422.81033286 0 34536
