### header ###
fiducial parameters:
Omega_m = 0.31
Omega_nu = 0
Omega_de = 0.69
Omega_k = 0
H_0 = 100
w_de = -1
zeff = 0
beta = 0
fgrowth = 0
b_1 = 2
gamma = 0.55
Lx = 3500 Ly = 3500 Lz = 3500
nx = 700 ny = 700 nz = 700
xoffset = 857.220397 yoffset = 15.9954215 zoffset = 262.898189
bins = 400 dk = 0.001
kx_ny = 0.628318531 ky_ny = 0.628318531 kz_ny = 0.628318531
############################
A(data) = 3.081232 (not used)
A(ran) = 3.07665723 (used)
Ngal = 187235
weighted Ngal = 0
Nran = 9360983
weighted Nran = 0
SN(data) = 3464.63677
SN(ran) = 69.0901588
SN(data+ran) = 3533.72693
############################
13 columns: k_central k_mean P_0(k) sigma^{lin}_{P_0(k)} P^img_1(k) sigma^{lin}_{P_1(k)} P_2(k) sigma^{lin}_{P_2(k)} P^img_3(k) sigma^{lin}_{P_3(k)} P_4(k) sigma^{lin}_{P_4(k)} N_modes
### header ###
0.00050000 0 0 0 0 0 0 0 0 0 0 0 0
0.00150000 0.00179520 7502.96575318 0 -9000.61385332 0 11232.78227548 0 -30414.95274792 0 -54415.65296921 0 3
0.00250000 0.00253879 17022.95387352 0 -15632.14815857 0 -25221.32248417 0 31530.36251995 0 29879.56055360 0 6
0.00350000 0.00331552 26553.45200230 0 -16242.29068025 0 -2397.31606270 0 -24002.61113191 0 -15786.93191914 0 7
0.00450000 0.00420575 39793.14005929 0 -15991.84898197 0 -27791.72208682 0 14799.32834592 0 7974.96067737 0 24
0.00550000 0.00557378 52966.28346395 0 -9737.11252986 0 -14880.48584419 0 20996.86112645 0 18896.88275688 0 45
0.00650000 0.00659388 57652.39834720 0 -2734.85032285 0 -49087.35970970 0 3404.46712755 0 2071.58448582 0 40
0.00750000 0.00754703 56004.06932400 0 -1247.49865878 0 4737.06875301 0 9123.73270078 0 26167.89768223 0 57
0.00850000 0.00846663 59807.00627931 0 -1607.09831631 0 -19186.10470019 0 6357.00389245 0 14243.81538679 0 75
0.00950000 0.00948925 58252.76150274 0 2504.60807393 0 -1645.32776945 0 -4009.95601982 0 23575.24159112 0 112
0.01050000 0.01054430 55740.47606436 0 3408.13157968 0 15015.26124646 0 -21282.26124851 0 2233.53978155 0 105
0.01150000 0.01145670 54508.83796377 0 5798.99550886 0 14205.14754828 0 -23541.29482591 0 2043.53906224 0 144
0.01250000 0.01249090 54688.68837546 0 2042.38127522 0 26686.54130695 0 -19035.47998040 0 -8057.20851877 0 169
0.01350000 0.01339930 54865.16659194 0 -998.58231679 0 15640.24142710 0 434.64111775 0 -8156.91309075 0 180
0.01450000 0.01448870 58960.13565324 0 -4006.42645549 0 29261.43716990 0 5682.54236729 0 -16719.23149077 0 267
0.01550000 0.01550050 65775.79181747 0 -4054.46899672 0 20390.54042602 0 9710.31481852 0 -30921.00684383 0 238
0.01650000 0.01653350 64995.12862420 0 -1490.81378450 0 17133.89909624 0 9264.90403331 0 -10503.41017150 0 315
0.01750000 0.01747870 66415.83447009 0 -765.55013836 0 2347.44129541 0 5690.52322931 0 -21423.66863470 0 297
0.01850000 0.01844180 63823.51559851 0 206.39071214 0 3385.00956113 0 112.05265162 0 -11694.54820751 0 388
0.01950000 0.01947590 63930.86381299 0 1164.96980111 0 -1019.82377448 0 -5071.44439030 0 -29679.36456408 0 399
0.02050000 0.02045430 60528.88086926 0 2147.02049287 0 -261.43168251 0 -13397.39438675 0 -24712.00859955 0 462
0.02150000 0.02154770 57911.60775305 0 1881.16786243 0 7265.76554145 0 -8601.00871983 0 -20776.76918513 0 571
0.02250000 0.02255340 55405.39226607 0 3080.33172307 0 16807.92022504 0 -9885.81509838 0 -19058.41090789 0 510
0.02350000 0.02348930 58487.46629000 0 289.89413422 0 16000.61668954 0 3512.63590953 0 -6432.57478732 0 555
0.02450000 0.02439640 56158.85308457 0 2887.22858416 0 33212.52590184 0 1533.92168005 0 8306.99825931 0 592
0.02550000 0.02547300 58886.28457794 0 1734.63473951 0 33711.27357478 0 8456.57759859 0 18574.72570693 0 837
0.02650000 0.02652900 58265.46343806 0 2918.33146473 0 42854.08165985 0 11342.82824614 0 21978.39474828 0 723
0.02750000 0.02749970 55593.33594629 0 2656.78400352 0 33357.08067025 0 9747.94851717 0 30786.34384807 0 826
0.02850000 0.02848090 53821.35976506 0 3586.57691004 0 32064.51824269 0 12641.23581207 0 27391.89214032 0 831
0.02950000 0.02946900 47967.56608388 0 3837.20969939 0 28450.98625220 0 8286.22553676 0 23905.71672261 0 996
0.03050000 0.03053250 44704.40517667 0 1286.53743876 0 21137.14444757 0 10052.58139263 0 15926.87802074 0 1041
0.03150000 0.03150510 42772.36212903 0 -565.64528169 0 15794.01352910 0 4203.74483842 0 12375.16960927 0 1036
0.03250000 0.03246190 45499.00677685 0 -1447.76209220 0 9509.01724523 0 -1109.09365039 0 7690.70710168 0 1059
0.03350000 0.03345080 45744.61499532 0 -1172.30994604 0 16534.99722529 0 -3285.91198429 0 4744.00423451 0 1302
0.03450000 0.03451200 49548.78842221 0 808.91319668 0 19695.64339783 0 -5647.31416790 0 11005.15909818 0 1339
0.03550000 0.03553350 47068.42643191 0 1444.51354414 0 19337.17904602 0 -1117.54661974 0 5260.92803967 0 1365
0.03650000 0.03647120 49926.81150629 0 794.89610522 0 25853.49668128 0 1707.45484604 0 8890.47795746 0 1308
0.03750000 0.03744890 46303.50014966 0 698.53000651 0 19254.56026314 0 5882.69339421 0 1102.61453931 0 1579
0.03850000 0.03847530 46935.78675328 0 856.32626147 0 21894.98911985 0 3653.07659976 0 -3739.00013395 0 1662
0.03950000 0.03950240 44564.90870110 0 1490.22927066 0 15837.73966044 0 -1127.57215613 0 -4467.25941351 0 1683
0.04050000 0.04050350 43154.20703436 0 1056.19964431 0 15831.10767651 0 -272.35422282 0 -4783.93102590 0 1822
0.04150000 0.04152450 42709.97651747 0 1567.56494769 0 15022.90488896 0 3095.43915765 0 -1242.06942447 0 1887
0.04250000 0.04250150 43418.47473305 0 332.91660083 0 16119.09314824 0 2935.61958556 0 -2620.85888379 0 1920
0.04350000 0.04349210 43160.61420528 0 1643.01219540 0 20493.61719322 0 3104.71269450 0 5391.04981254 0 2005
0.04450000 0.04448520 41725.85754598 0 1769.63812588 0 21589.13101346 0 2315.31551562 0 4806.86195340 0 2151
0.04550000 0.04548030 40107.99068626 0 2220.82660557 0 22286.05135878 0 -504.31629131 0 7217.25089290 0 2274
0.04650000 0.04648670 39621.60772913 0 958.88033841 0 22452.30058310 0 -37.16462629 0 5693.68185217 0 2311
0.04750000 0.04749250 39022.03141914 0 -341.59775539 0 20253.29208059 0 203.93238182 0 1072.19396624 0 2568
0.04850000 0.04851840 39955.45505584 0 -530.26308539 0 15447.01464104 0 -498.23060300 0 -4446.22815599 0 2493
0.04950000 0.04949480 38987.07299537 0 1031.10264342 0 18140.61177570 0 -161.92494598 0 -8359.59326408 0 2644
0.05050000 0.05050630 38145.03584911 0 1051.15146807 0 12288.50419213 0 176.77721779 0 -11865.40609862 0 2829
0.05150000 0.05149060 35610.26910927 0 1498.41246439 0 14219.87280073 0 1746.52734798 0 -11215.35926685 0 2784
0.05250000 0.05249300 35773.70817090 0 1681.29785179 0 12426.98900914 0 986.23446197 0 -8860.57782651 0 3055
0.05350000 0.05348950 33878.87167718 0 820.16846026 0 12712.72635072 0 5251.47465241 0 -7772.97742438 0 3009
0.05450000 0.05448610 33179.47838870 0 1343.70738838 0 15249.96603372 0 1556.05452134 0 -2102.88969810 0 3336
0.05550000 0.05550870 32633.85720221 0 921.31745586 0 13765.30088517 0 1944.72250167 0 390.04158784 0 3349
0.05650000 0.05647670 32202.77824668 0 -84.01992999 0 16165.85425528 0 1660.81738615 0 5754.42632872 0 3324
0.05750000 0.05747970 31765.85415277 0 -265.80429564 0 15208.71284554 0 55.59007616 0 1777.34921228 0 3639
0.05850000 0.05849280 33026.38072574 0 -261.99933537 0 16554.21873804 0 1314.67278754 0 5210.70481221 0 3846
0.05950000 0.05951020 33362.36377609 0 -274.58549199 0 17538.78733557 0 752.93700417 0 4486.77318318 0 3787
0.06050000 0.06049470 33205.21947887 0 281.95711074 0 15057.97571924 0 1852.62785023 0 3898.76350279 0 3930
0.06150000 0.06148310 33135.63985084 0 -213.24413689 0 14149.84354668 0 2934.22574487 0 4385.25886643 0 4083
0.06250000 0.06249100 32858.67021683 0 277.98354071 0 12010.18568003 0 1491.43202029 0 1281.74892155 0 4303
0.06350000 0.06350600 33173.85806333 0 358.40365230 0 11589.67293619 0 1989.38160702 0 5464.11404229 0 4470
0.06450000 0.06451750 31431.10757400 0 761.85084020 0 11463.89005451 0 -80.81229789 0 2583.11277863 0 4479
0.06550000 0.06550280 32043.04859979 0 846.89198331 0 10014.46434600 0 -97.46903137 0 5017.17452857 0 4636
0.06650000 0.06648880 30200.48113197 0 719.67704273 0 10086.15721636 0 2121.76275068 0 2672.63332105 0 4653
0.06750000 0.06749660 30433.72463464 0 619.22609153 0 10156.35508018 0 629.78443477 0 4429.55827096 0 5220
0.06850000 0.06852730 28764.15078156 0 991.11065625 0 10455.01917010 0 1217.51984328 0 2336.53786420 0 5029
0.06950000 0.06949320 28410.85712909 0 1623.99301436 0 9244.08634815 0 64.45119354 0 1927.49058410 0 5040
0.07050000 0.07048030 26090.44959869 0 1447.16633771 0 9839.96448405 0 -62.74497516 0 1230.04192819 0 5475
0.07150000 0.07148790 25811.79386707 0 1135.84527507 0 8621.68027653 0 -643.33054296 0 536.60955679 0 5509
0.07250000 0.07249820 24227.87377256 0 421.35804078 0 8284.11229442 0 -334.32730250 0 -1535.04574513 0 5916
0.07350000 0.07351270 24723.13684377 0 -117.01292598 0 8634.96672569 0 -262.28372383 0 -3165.68198407 0 5721
0.07450000 0.07449140 24307.00795371 0 -310.68146962 0 6720.61646230 0 -506.90838536 0 -4719.53333787 0 6028
0.07550000 0.07549160 25129.14914817 0 -379.12579192 0 9268.75957651 0 -81.85869007 0 -4290.91608484 0 6183
0.07650000 0.07648840 25012.47119359 0 1.22825466 0 8320.14982067 0 -179.84479137 0 -3998.68164714 0 6330
0.07750000 0.07749960 25468.16717422 0 -21.86227883 0 9634.60903585 0 342.35312712 0 -1687.41276578 0 6583
0.07850000 0.07848650 25415.33611579 0 378.11862961 0 8632.89844596 0 974.31937219 0 -3441.78608797 0 6549
0.07950000 0.07947320 25672.40979800 0 111.82514085 0 10001.02052773 0 951.18386486 0 160.71657602 0 6828
0.08050000 0.08048110 25135.21909957 0 140.91167350 0 7501.85292875 0 2252.67136909 0 -3334.87625887 0 7147
0.08150000 0.08149960 25132.18412387 0 231.21344115 0 8417.55005925 0 -194.75326644 0 -1228.27714603 0 7386
0.08250000 0.08250610 24425.03478639 0 393.28339152 0 6500.26598602 0 215.23260800 0 -3207.10378201 0 7227
0.08350000 0.08350160 24312.96549860 0 628.04325797 0 7240.20430169 0 -731.41902648 0 -3086.43539641 0 7798
0.08450000 0.08449610 23731.59904279 0 554.71599699 0 7034.61279982 0 126.61131764 0 -3424.41928259 0 7371
0.08550000 0.08548940 23019.84103850 0 296.94314630 0 6849.94014896 0 -248.06092846 0 -4447.17237065 0 8256
0.08650000 0.08650700 22986.45630583 0 217.67857360 0 7731.15096301 0 -277.65081745 0 -3335.93288004 0 8037
0.08750000 0.08749060 22893.38371778 0 -21.66163321 0 7136.29572633 0 561.88640809 0 -3569.52484288 0 8155
0.08850000 0.08849210 22804.02054447 0 16.49464329 0 7945.69002287 0 625.59392017 0 -2438.09714355 0 8718
0.08950000 0.08949900 22998.14658259 0 382.91276715 0 7483.57563066 0 379.54956445 0 -2574.76097514 0 8571
0.09050000 0.09049190 22292.57093621 0 482.20143506 0 7401.26034536 0 883.22851086 0 -1877.59333550 0 8932
0.09150000 0.09150830 21931.74604774 0 831.53613035 0 7390.00845398 0 939.68692729 0 -1060.94769518 0 9285
0.09250000 0.09250820 21079.14268980 0 896.48011401 0 7240.58648381 0 780.69579115 0 -55.83579678 0 9204
0.09350000 0.09350330 20247.55934872 0 686.71383446 0 7368.19035091 0 842.53960335 0 1540.01411275 0 9349
0.09450000 0.09448040 20084.56991312 0 490.82076604 0 6606.61378258 0 1375.81068687 0 1796.40211527 0 9564
0.09550000 0.09549270 19615.60996462 0 194.26879439 0 6593.58586839 0 1185.02312201 0 2848.41461719 0 10155
0.09650000 0.09649430 19387.76197431 0 335.39404025 0 5674.68515243 0 891.76353696 0 2784.99486576 0 9913
0.09750000 0.09749140 18924.19753816 0 301.35734984 0 6243.09113794 0 969.81636751 0 3683.43759739 0 10476
0.09850000 0.09850240 18477.83129763 0 645.73154596 0 5243.85349121 0 -234.44175604 0 3000.86032240 0 10575
0.09950000 0.09950330 18067.54754595 0 688.51571077 0 5951.44121408 0 -237.21032831 0 3353.13107566 0 10882
0.10050000 0.10051200 17261.81770155 0 687.61083839 0 6104.08925101 0 -454.50784385 0 2203.42607824 0 10875
0.10150000 0.10150300 16706.64196195 0 811.37040293 0 5630.23961944 0 -761.62602719 0 1615.83230193 0 11118
0.10250000 0.10250800 16233.18575316 0 517.28687818 0 6732.63271793 0 -600.99825231 0 1699.78872224 0 11575
0.10350000 0.10349800 15887.98536921 0 370.24005752 0 6916.13634111 0 -604.07819061 0 944.38102303 0 11364
0.10450000 0.10450100 15813.01022884 0 62.10335882 0 7200.90698673 0 6.08378864 0 1035.57642241 0 12093
0.10550000 0.10551000 16095.60018821 0 -145.55069006 0 7641.34940432 0 196.74623381 0 981.96863501 0 12067
0.10650000 0.10649700 16107.96490402 0 -47.48489254 0 6888.66419073 0 376.39206566 0 355.28774391 0 12054
0.10750000 0.10749900 16180.80432075 0 -154.04187762 0 6810.80020311 0 88.49224769 0 301.43041407 0 12807
0.10850000 0.10850100 16116.73261159 0 -9.85383545 0 5967.21184705 0 229.51160663 0 -892.20079828 0 12736
0.10950000 0.10950300 16106.05399339 0 25.94690649 0 5673.84210363 0 499.48281149 0 -1019.04030112 0 12933
0.11050000 0.11050200 15910.57907718 0 32.08014275 0 4785.43727310 0 484.14831576 0 -1837.62158150 0 13428
0.11150000 0.11150900 15912.26517479 0 29.78749962 0 4812.27994705 0 977.45438968 0 -897.03090589 0 13453
0.11250000 0.11250000 15848.86790467 0 251.46010124 0 3876.57445825 0 496.74683710 0 -2295.65561749 0 13668
0.11350000 0.11349100 15563.80500213 0 221.14069403 0 4510.83941639 0 797.29598415 0 -17.68885002 0 13791
0.11450000 0.11448600 15255.13673306 0 288.81840395 0 4011.03512229 0 79.83919476 0 -503.35633973 0 14205
0.11550000 0.11549300 15449.82480372 0 126.30669600 0 4779.63709732 0 352.79681571 0 1208.70717310 0 14776
0.11650000 0.11649800 15037.96736093 0 71.75727929 0 4112.78549271 0 675.23488193 0 1174.41194772 0 14553
0.11750000 0.11747300 15161.38970596 0 13.72404770 0 4216.86267783 0 837.76345085 0 1409.61132362 0 14568
0.11850000 0.11849100 15045.61100343 0 95.54013570 0 3639.53161563 0 854.44570060 0 1442.33285790 0 16015
0.11950000 0.11950300 14641.39720315 0 333.85407110 0 3468.43767086 0 551.14034599 0 835.30399647 0 15270
0.12050000 0.12050700 14532.58770407 0 301.43153813 0 2529.46115269 0 460.45976841 0 1703.55434023 0 15999
0.12150000 0.12150000 14127.81187125 0 425.08881276 0 3143.31308911 0 -169.56634034 0 1341.71779320 0 15670
0.12250000 0.12250700 14075.99247138 0 447.93206317 0 3416.30353277 0 -651.63850792 0 2251.10891864 0 16887
0.12350000 0.12352200 13761.92868995 0 403.33140920 0 4358.87705916 0 -556.57632468 0 2341.50623182 0 16407
0.12450000 0.12449800 13610.85434413 0 411.37521887 0 4815.94439919 0 -568.37788389 0 3253.11176545 0 16306
0.12550000 0.12549900 13484.73424293 0 226.59690589 0 5475.89424425 0 -346.54476578 0 3246.08635875 0 17523
0.12650000 0.12650100 13454.60929897 0 124.12825789 0 6158.53896315 0 150.04133002 0 3617.42125564 0 17154
0.12750000 0.12750600 13430.89152592 0 98.01768753 0 5998.68566910 0 58.59706263 0 2710.15461319 0 18007
0.12850000 0.12850300 13234.96698368 0 -20.61636510 0 5972.06780817 0 726.18537950 0 2676.55630816 0 17496
0.12950000 0.12949900 13162.91441250 0 59.96673593 0 4944.81845982 0 216.06554022 0 1751.39454974 0 18405
0.13050000 0.13049000 12989.69598473 0 -214.91786978 0 4892.61687782 0 675.96215203 0 1293.03453489 0 18100
0.13150000 0.13148800 13252.61480533 0 -127.85565767 0 4019.39816644 0 285.18430157 0 587.06209353 0 19059
0.13250000 0.13249300 13334.67155567 0 -185.16611543 0 4147.89004494 0 240.46562076 0 126.87659700 0 18957
0.13350000 0.13349100 13289.70895274 0 18.93037990 0 3667.13865383 0 -420.79263605 0 -476.76770449 0 19468
0.13450000 0.13450700 13337.81893787 0 215.86995290 0 4032.32491478 0 -667.16072251 0 -364.89512809 0 19953
0.13550000 0.13551000 13085.01670293 0 354.31767576 0 4369.35334564 0 -189.70059393 0 -177.82035017 0 19956
0.13650000 0.13649900 12941.47359310 0 302.23074840 0 4687.36259547 0 -156.89025851 0 79.98408675 0 19723
0.13750000 0.13749600 12625.04927502 0 355.50356441 0 4821.44107739 0 284.85270237 0 -296.43731701 0 20946
0.13850000 0.13851100 12374.83238975 0 279.67750677 0 4776.34358666 0 534.78070292 0 582.51300218 0 20955
0.13950000 0.13949800 12070.66038097 0 356.19261630 0 4640.64645104 0 618.18295915 0 654.71394996 0 20506
0.14050000 0.14048300 11922.84582385 0 211.78847262 0 4430.16526610 0 405.88640912 0 1149.64879416 0 21447
0.14150000 0.14148400 11672.51653208 0 247.50676438 0 4057.57141632 0 184.36578109 0 1073.68784872 0 21771
0.14250000 0.14249400 11440.73431400 0 258.25395054 0 4118.20348636 0 202.09341136 0 1117.76244023 0 22470
0.14350000 0.14350900 11283.92723631 0 292.61099950 0 3979.16787747 0 -199.19781973 0 1022.55637667 0 22519
0.14450000 0.14449900 10987.60120174 0 324.00950919 0 4498.62082905 0 -123.90681707 0 1162.58678315 0 22218
0.14550000 0.14550500 10829.23167359 0 204.07401402 0 4213.76025823 0 -29.20793167 0 1371.05589161 0 23559
0.14650000 0.14650700 10738.60954739 0 104.78590815 0 4431.19940597 0 367.13426572 0 1057.27762272 0 23044
0.14750000 0.14750500 10633.16100289 0 61.11508080 0 4117.24803105 0 205.41277552 0 845.57682717 0 23649
0.14850000 0.14849900 10568.05515385 0 76.64741198 0 4151.43084992 0 180.20674032 0 499.43897295 0 23640
0.14950000 0.14949500 10602.45154509 0 104.89438043 0 3971.34438456 0 -330.04124237 0 322.30430247 0 24457
0.15050000 0.15050000 10427.56950102 0 156.33384630 0 3997.08547473 0 -556.81350242 0 -441.01344265 0 24591
0.15150000 0.15149900 10449.76978621 0 191.83406944 0 4194.04415684 0 -344.90812703 0 -210.73859584 0 25020
0.15250000 0.15250500 10363.20553493 0 42.64500556 0 4079.77170151 0 -55.91571781 0 -606.55338190 0 25297
0.15350000 0.15350100 10341.96070505 0 -43.48749233 0 4153.74642397 0 416.85616016 0 -675.41360828 0 25452
0.15450000 0.15450400 10329.03395671 0 13.80183300 0 3817.47111670 0 642.91801108 0 -546.15961365 0 26061
0.15550000 0.15549900 10301.16838355 0 103.65521109 0 3416.11244170 0 562.07187883 0 -690.99652239 0 26128
0.15650000 0.15649500 10099.74716310 0 280.96905754 0 3176.79898764 0 457.53719922 0 -147.55040182 0 26331
0.15750000 0.15749700 9907.77932991 0 230.24786925 0 3140.54788903 0 145.50685152 0 -355.60697840 0 27345
0.15850000 0.15849900 9581.74425546 0 176.72326266 0 2845.50328865 0 260.20757564 0 -81.47493425 0 26980
0.15950000 0.15949700 9532.10554183 0 121.73849555 0 2788.51318944 0 269.38669103 0 122.76364289 0 27777
0.16050000 0.16050000 9453.73572494 0 115.26163260 0 2523.69469887 0 135.56449595 0 -198.34690247 0 28224
0.16150000 0.16150500 9340.60981598 0 157.48151674 0 2785.41076984 0 103.36745043 0 351.69972820 0 28075
0.16250000 0.16249700 9223.92062074 0 183.59467245 0 2939.07046533 0 77.63220540 0 40.40845328 0 28590
0.16350000 0.16349900 9121.25975761 0 215.14155873 0 3001.95066552 0 -37.26500530 0 711.15325728 0 29163
0.16450000 0.16449100 9021.08307830 0 193.89223259 0 3173.67408674 0 -206.24458368 0 239.19992349 0 28996
0.16550000 0.16550500 8910.93594179 0 165.64784950 0 3089.61650057 0 -54.61438767 0 537.20306315 0 30777
0.16650000 0.16650700 8695.62127704 0 228.52130530 0 3372.81345509 0 20.73877579 0 99.08420047 0 29211
0.16750000 0.16749900 8567.27552699 0 163.17715447 0 2992.82325713 0 -71.21042163 0 341.87652353 0 30922
0.16850000 0.16850800 8363.94339592 0 67.28136458 0 2938.58711735 0 294.40613143 0 27.01690403 0 30867
0.16950000 0.16949900 8297.16268992 0 -30.34852050 0 2628.77230190 0 509.16663210 0 -146.53199886 0 30852
0.17050000 0.17049200 8349.46543777 0 -117.86271917 0 2246.60141770 0 414.74516596 0 -276.06363756 0 31257
0.17150000 0.17149500 8307.24555363 0 -78.40646142 0 2068.39214101 0 477.34210175 0 -596.51997706 0 32608
0.17250000 0.17250900 8437.22119803 0 94.26555831 0 2064.17689699 0 43.31663444 0 -129.96440375 0 32361
0.17350000 0.17350400 8130.86850301 0 195.10172661 0 1849.01960134 0 -82.03842808 0 -531.63556884 0 32508
0.17450000 0.17449800 8235.59764587 0 159.18222720 0 2245.57851848 0 -79.06167895 0 160.74804984 0 32791
0.17550000 0.17549800 7950.25372706 0 171.96284708 0 2169.15333416 0 -285.25961393 0 -279.54261896 0 33633
0.17650000 0.17650100 8048.99160308 0 89.68139613 0 2541.00530099 0 0.26831546 0 160.29729975 0 33984
0.17750000 0.17750300 7887.72198705 0 22.04404015 0 2431.28530921 0 15.88753574 0 -90.92191435 0 34069
