### header ###
fiducial parameters:
Omega_m = 0.31
Omega_nu = 0
Omega_de = 0.69
Omega_k = 0
H_0 = 100
w_de = -1
zeff = 0
beta = 0
fgrowth = 0
b_1 = 2
gamma = 0.55
Lx = 3500 Ly = 3500 Lz = 3500
nx = 700 ny = 700 nz = 700
xoffset = 857.220397 yoffset = 15.9954215 zoffset = 262.898189
bins = 400 dk = 0.001
kx_ny = 0.628318531 ky_ny = 0.628318531 kz_ny = 0.628318531
############################
A(data) = 3.11665391 (not used)
A(ran) = 3.12120887 (used)
Ngal = 190276
weighted Ngal = 0
Nran = 9360983
weighted Nran = 0
SN(data) = 3433.58296
SN(ran) = 70.0906211
SN(data+ran) = 3503.67358
############################
13 columns: k_central k_mean P_0(k) sigma^{lin}_{P_0(k)} P^img_1(k) sigma^{lin}_{P_1(k)} P_2(k) sigma^{lin}_{P_2(k)} P^img_3(k) sigma^{lin}_{P_3(k)} P_4(k) sigma^{lin}_{P_4(k)} N_modes
### header ###
0.00050000 0 0 0 0 0 0 0 0 0 0 0 0
0.00150000 0.00179520 5603.99269998 0 -11640.03105146 0 -8634.68570942 0 30712.26795975 0 22040.78035983 0 3
0.00250000 0.00253879 11209.13194634 0 -14547.98739557 0 -3996.37731374 0 478.66625040 0 -22074.16509251 0 6
0.00350000 0.00331552 34771.49175173 0 -35175.48073900 0 -23485.99082432 0 37692.59965719 0 20650.42427092 0 7
0.00450000 0.00420575 53118.36946834 0 -37047.38630523 0 -23134.72048897 0 24067.80690615 0 -36507.27303761 0 24
0.00550000 0.00557378 106611.38982555 0 -30978.10934954 0 -51942.37258887 0 7149.69458200 0 -34720.45919741 0 45
0.00650000 0.00659388 88132.20964983 0 -7378.58795284 0 -5331.17086609 0 -49571.26972367 0 -69685.29014171 0 40
0.00750000 0.00754703 128355.86663211 0 14817.42579359 0 -28249.32897808 0 -77805.53622977 0 -8492.13177685 0 57
0.00850000 0.00846663 105817.79988394 0 16253.08170495 0 484.14157137 0 -70333.20124984 0 -89795.48873849 0 75
0.00950000 0.00948925 103496.15588196 0 26891.79558930 0 24875.44766118 0 -77036.78812628 0 -41990.68727720 0 112
0.01050000 0.01054430 87567.70417012 0 2824.73056610 0 53235.15982944 0 -45767.77073583 0 -57736.02878863 0 105
0.01150000 0.01145670 87668.19558765 0 -4841.91030237 0 48457.65845575 0 2750.13760784 0 -76058.85151269 0 144
0.01250000 0.01249090 95877.01800348 0 -12462.28465244 0 44747.00724294 0 26324.92957294 0 -67230.55683507 0 169
0.01350000 0.01339930 93692.06031439 0 -7420.06595403 0 13369.29275992 0 45994.04503504 0 -84368.05293954 0 180
0.01450000 0.01448870 90131.80900836 0 3293.43197963 0 6751.01118188 0 30074.81065680 0 -45447.63700301 0 267
0.01550000 0.01550050 82517.84182922 0 6199.55609766 0 -14959.39521232 0 19281.20060538 0 -56218.99056598 0 238
0.01650000 0.01653350 73177.19829129 0 5238.86264229 0 -11884.96483089 0 -1671.49600435 0 -7381.51052203 0 315
0.01750000 0.01747870 71983.32877715 0 1843.15198166 0 -16743.28648333 0 -16078.62680561 0 -13704.71377773 0 297
0.01850000 0.01844180 69220.37682747 0 688.13352865 0 3343.22806236 0 -9848.82211683 0 16261.73700602 0 388
0.01950000 0.01947590 75050.34032910 0 2898.40179099 0 5997.85386095 0 -9755.03012713 0 17209.54867565 0 399
0.02050000 0.02045430 69669.10360465 0 6237.18979631 0 10722.25440058 0 668.12629441 0 11577.98265943 0 462
0.02150000 0.02154770 66590.51418245 0 4836.14384855 0 11475.91755079 0 4078.08560390 0 9850.87915591 0 571
0.02250000 0.02255340 61551.10564673 0 1797.34632993 0 11777.16699038 0 5121.62265516 0 875.50730788 0 510
0.02350000 0.02348930 62357.62233668 0 410.43550047 0 3581.66474567 0 4189.16571443 0 1207.59434868 0 555
0.02450000 0.02439640 62402.69734611 0 -1901.76073457 0 10275.25868361 0 -3006.46940711 0 -15607.08150744 0 592
0.02550000 0.02547300 63983.58246492 0 53.32856964 0 4031.56055053 0 -7624.48842823 0 -3303.69469374 0 837
0.02650000 0.02652900 64017.75404314 0 607.19747119 0 3390.18026047 0 -3052.44366860 0 -12405.06974021 0 723
0.02750000 0.02749970 64093.29121605 0 1114.15643948 0 -585.42320666 0 -7505.55110284 0 -1817.45585409 0 826
0.02850000 0.02848090 63260.02177736 0 1180.48189912 0 -157.75916081 0 -431.37908091 0 -19787.70432731 0 831
0.02950000 0.02946900 62142.92590772 0 962.35707168 0 4117.18058714 0 -1293.83262109 0 -11770.87222597 0 996
0.03050000 0.03053250 60109.71700350 0 2435.51179388 0 -194.96683880 0 1546.99455685 0 -13583.31474984 0 1041
0.03150000 0.03150510 59251.15610066 0 1506.95535895 0 -521.26944074 0 -2958.51679110 0 -16663.81508267 0 1036
0.03250000 0.03246190 56140.53082388 0 1715.99774059 0 -3392.20357760 0 -229.57680240 0 -11932.73759650 0 1059
0.03350000 0.03345080 54370.91517930 0 2391.31355521 0 2916.80273623 0 -1975.87034484 0 -12872.34359110 0 1302
0.03450000 0.03451200 53141.52520885 0 2722.02474037 0 4872.68720408 0 -2582.39337699 0 -318.79159912 0 1339
0.03550000 0.03553350 52502.49421479 0 2179.85443366 0 8810.28715514 0 731.68205771 0 -1732.29668415 0 1365
0.03650000 0.03647120 50653.29476304 0 510.59082254 0 13145.49140386 0 1514.14937542 0 10121.84628243 0 1308
0.03750000 0.03744890 52275.54547653 0 -948.75251210 0 17216.06825308 0 5674.83128089 0 11879.11969251 0 1579
0.03850000 0.03847530 52428.64313949 0 -1433.71127879 0 14643.30811377 0 8393.75360165 0 16217.89846817 0 1662
0.03950000 0.03950240 54490.40329657 0 -1357.00507820 0 16318.61469872 0 7229.59312740 0 16898.51986993 0 1683
0.04050000 0.04050350 55134.26777044 0 -863.18530654 0 12210.15685654 0 1375.16996978 0 14698.61211537 0 1822
0.04150000 0.04152450 54332.13493427 0 1380.01469024 0 11475.69273778 0 1877.42472574 0 11025.56087925 0 1887
0.04250000 0.04250150 52604.89654295 0 3423.46382728 0 13003.63439164 0 -6812.14908120 0 2155.75447849 0 1920
0.04350000 0.04349210 50003.36033777 0 2109.87014221 0 12370.22372295 0 -3824.49652341 0 1614.19116692 0 2005
0.04450000 0.04448520 47677.55729502 0 3162.01753193 0 14563.38708707 0 -6099.41314030 0 -3453.28527367 0 2151
0.04550000 0.04548030 47251.64903882 0 1417.55846369 0 12444.52442428 0 -225.52454781 0 -3976.42515869 0 2274
0.04650000 0.04648670 45487.42890659 0 941.29658847 0 14465.81823873 0 908.54582850 0 -5150.70221861 0 2311
0.04750000 0.04749250 45442.24149066 0 761.46191369 0 12367.30115376 0 4059.68465866 0 -7154.94396589 0 2568
0.04850000 0.04851840 43499.63223133 0 2105.40760387 0 13006.78177384 0 3299.07478629 0 -1001.31379492 0 2493
0.04950000 0.04949480 42012.15692009 0 2359.42382909 0 11272.68658557 0 1175.72710386 0 -2737.87405790 0 2644
0.05050000 0.05050630 40587.74165946 0 1824.88592422 0 11953.75761337 0 -7.78161024 0 6191.72136410 0 2829
0.05150000 0.05149060 39619.92163152 0 665.06883741 0 13205.85369829 0 -833.91465204 0 6041.72612075 0 2784
0.05250000 0.05249300 40263.44888587 0 103.65116446 0 13214.28418634 0 -229.33288028 0 7415.53597179 0 3055
0.05350000 0.05348950 40487.47505494 0 -187.96840965 0 15287.06018113 0 3919.25520907 0 7872.53586791 0 3009
0.05450000 0.05448610 39999.29359370 0 279.77867263 0 13622.65702740 0 2549.06484757 0 11537.17909727 0 3336
0.05550000 0.05550870 39757.39478996 0 697.34973818 0 12918.54266561 0 3910.56618606 0 8718.25994761 0 3349
0.05650000 0.05647670 38105.69357155 0 1507.09024676 0 10758.50549919 0 3816.68427115 0 5101.92903508 0 3324
0.05750000 0.05747970 36342.82231741 0 1980.26543928 0 10497.77860548 0 1152.39151294 0 5451.17605330 0 3639
0.05850000 0.05849280 34431.68688013 0 1539.91294689 0 9020.79082138 0 -2194.98434954 0 1956.35657517 0 3846
0.05950000 0.05951020 32811.45948376 0 833.28967186 0 10682.00163031 0 -2369.27063913 0 1732.95988255 0 3787
0.06050000 0.06049470 32922.06748696 0 412.54312248 0 9886.53450003 0 -3809.87243681 0 -3568.05231763 0 3930
0.06150000 0.06148310 33838.40533455 0 308.48729460 0 13283.18937532 0 -1880.67327380 0 -2085.99500005 0 4083
0.06250000 0.06249100 33077.07606054 0 554.27086722 0 13502.38206457 0 -575.67194215 0 -4567.70586844 0 4303
0.06350000 0.06350600 33419.01665577 0 586.09314944 0 14717.60881510 0 1897.64665641 0 -1050.74455651 0 4470
0.06450000 0.06451750 32732.10048960 0 129.50690927 0 13357.49007665 0 2944.44349638 0 -1964.21379003 0 4479
0.06550000 0.06550280 32514.03186542 0 261.40920120 0 13604.89679924 0 3642.64527588 0 71.56899839 0 4636
0.06650000 0.06648880 32540.67220765 0 -172.21913391 0 10608.03814850 0 2534.44076097 0 568.83088211 0 4653
0.06750000 0.06749660 32154.66826155 0 -240.66008402 0 9861.07442613 0 1055.63536364 0 2427.08130584 0 5220
0.06850000 0.06852730 32035.85458332 0 -150.69553589 0 8905.31561642 0 1389.79405638 0 2146.57086684 0 5029
0.06950000 0.06949320 32505.26415785 0 124.62734278 0 7951.81617751 0 768.76271634 0 1607.06459436 0 5040
0.07050000 0.07048030 31490.68302287 0 1044.92751976 0 8572.25513526 0 997.73027547 0 3118.16775343 0 5475
0.07150000 0.07148790 30515.33175894 0 1076.91391548 0 9704.60456795 0 1037.87625955 0 3840.43576615 0 5509
0.07250000 0.07249820 29571.34191055 0 841.60775340 0 9192.81774017 0 1291.08990231 0 6226.30884640 0 5916
0.07350000 0.07351270 29234.12238863 0 682.08156229 0 9557.98151982 0 661.86637602 0 5612.78288886 0 5721
0.07450000 0.07449140 28679.95830759 0 794.12836878 0 8394.25943094 0 1023.91649541 0 4976.58453878 0 6028
0.07550000 0.07549160 28084.42863186 0 1011.37979765 0 10585.81538201 0 -999.16458250 0 5715.28638287 0 6183
0.07650000 0.07648840 27507.44602984 0 1183.34826505 0 8706.03011961 0 -1021.66836527 0 3539.02895745 0 6330
0.07750000 0.07749960 25959.94564370 0 1027.86870821 0 9852.93619500 0 -733.82789793 0 3052.36498405 0 6583
0.07850000 0.07848650 25749.74547503 0 620.58508621 0 9255.45064604 0 887.45499554 0 957.60227642 0 6549
0.07950000 0.07947320 25295.51077899 0 -58.35921047 0 8767.75253278 0 1714.41280884 0 1167.72376054 0 6828
0.08050000 0.08048110 25077.55456132 0 95.39085986 0 8366.75355860 0 2204.87612219 0 1089.17858949 0 7147
0.08150000 0.08149960 25161.74703529 0 119.65110671 0 8566.69101315 0 1614.94429052 0 2710.46935141 0 7386
0.08250000 0.08250610 25158.71205960 0 -202.74312097 0 7529.08902547 0 1591.08038902 0 2945.90478098 0 7227
0.08350000 0.08350160 24833.96965998 0 195.43220174 0 6919.74459000 0 1829.40466582 0 4426.50081396 0 7798
0.08450000 0.08449610 24654.68128082 0 527.25733538 0 5843.51972641 0 441.19666526 0 3220.45767508 0 7371
0.08550000 0.08548940 23879.18878689 0 325.79340046 0 5008.03587953 0 850.74752651 0 2229.12220581 0 8256
0.08650000 0.08650700 23110.55308990 0 905.16014450 0 4317.61263033 0 -442.09816545 0 1611.68450181 0 8037
0.08750000 0.08749060 22677.56322375 0 784.78289176 0 3734.04300698 0 -513.65052767 0 -452.99372820 0 8155
0.08850000 0.08849210 21671.07535729 0 468.04945579 0 3262.91361289 0 -794.25763626 0 -2296.65603540 0 8718
0.08950000 0.08949900 21363.19393377 0 594.80690189 0 3082.32131825 0 -683.86657763 0 -3360.40377668 0 8571
0.09050000 0.09049190 20866.91920400 0 318.13289699 0 3121.69731776 0 -758.23472286 0 -3704.43513295 0 8932
0.09150000 0.09150830 20577.02282165 0 434.86143450 0 4086.71842366 0 -249.03886508 0 -3895.97582141 0 9285
0.09250000 0.09250820 20216.31033969 0 328.12695955 0 4820.04723670 0 -481.10659568 0 -2644.05958690 0 9204
0.09350000 0.09350330 20245.98565762 0 270.34439447 0 5526.20739692 0 225.39528033 0 -1422.21209309 0 9349
0.09450000 0.09448040 19848.06662174 0 226.63062784 0 5553.12875543 0 -300.23890509 0 -2018.39372656 0 9564
0.09550000 0.09549270 20141.78482534 0 206.81111247 0 6210.84171100 0 330.66285036 0 -260.72127338 0 10155
0.09650000 0.09649430 19588.85721588 0 337.62306129 0 6105.06718762 0 66.53543499 0 -1111.32042330 0 9913
0.09750000 0.09749140 19563.34093872 0 707.85300222 0 5702.44955974 0 308.58059200 0 18.73659108 0 10476
0.09850000 0.09850240 18749.96745183 0 669.06713688 0 5715.81469346 0 853.28678951 0 -1315.98794368 0 10575
0.09950000 0.09950330 18090.59087995 0 762.00034086 0 4723.86098840 0 543.02122397 0 -250.69573699 0 10882
0.10050000 0.10051200 17410.75632374 0 745.99815048 0 4952.83304379 0 399.62199446 0 -755.56956458 0 10875
0.10150000 0.10150300 16950.11445678 0 558.83232329 0 4687.19398571 0 449.73731168 0 -547.04537693 0 11118
0.10250000 0.10250800 16394.37668464 0 410.41976356 0 5238.73899513 0 -298.44939349 0 -617.04315716 0 11575
0.10350000 0.10349800 16407.64065251 0 350.23169922 0 5889.37034074 0 -701.36040236 0 -288.82402427 0 11364
0.10450000 0.10450100 16336.59973989 0 281.01514421 0 6599.11626855 0 -435.01205922 0 -93.26626446 0 12093
0.10550000 0.10551000 16272.19081120 0 345.02053354 0 7185.82203345 0 -971.95883554 0 204.75632152 0 12067
0.10650000 0.10649700 15925.30432964 0 308.73796111 0 7365.47011343 0 -262.28597196 0 695.89744610 0 12054
0.10750000 0.10749900 15718.47635619 0 148.53957908 0 7477.61808578 0 -67.58171476 0 -54.56560325 0 12807
0.10850000 0.10850100 15874.72140135 0 -74.27192527 0 7018.43750342 0 535.22133643 0 -614.51850701 0 12736
0.10950000 0.10950300 15867.75219790 0 -348.77828308 0 6747.34672974 0 1033.33054040 0 -908.74816022 0 12933
0.11050000 0.11050200 16127.97326232 0 -336.99470892 0 5894.81081570 0 214.96058425 0 -848.94452613 0 13428
0.11150000 0.11150900 16369.64725304 0 -241.03776988 0 5376.49316984 0 334.64428885 0 -1081.14602048 0 13453
0.11250000 0.11250000 16786.67539515 0 -30.83816325 0 6047.89723800 0 242.13148520 0 -943.95275424 0 13668
0.11350000 0.11349100 16594.68508067 0 39.81618339 0 5490.81058777 0 -328.01342898 0 -791.12374284 0 13791
0.11450000 0.11448600 16690.79264442 0 243.94797436 0 6308.60165040 0 152.95490669 0 1.01632231 0 14205
0.11550000 0.11549300 16536.90813591 0 366.72060977 0 6265.62864266 0 3.92620193 0 -410.45348551 0 14776
0.11650000 0.11649800 16134.49283974 0 501.42856813 0 6750.06696721 0 -169.25047806 0 -74.27001436 0 14553
0.11750000 0.11747300 16067.04893536 0 439.66906082 0 6824.41263115 0 -156.58338875 0 -609.59622605 0 14568
0.11850000 0.11849100 15418.46338818 0 465.02572074 0 6540.50751564 0 -11.41330713 0 -548.96640414 0 16015
0.11950000 0.11950300 15297.62639282 0 229.13616889 0 6086.40770741 0 149.52313602 0 -1638.40352860 0 15270
0.12050000 0.12050700 14763.80788961 0 53.26809494 0 5483.80766237 0 966.00129065 0 -1449.40322721 0 15999
0.12150000 0.12150000 14771.22671909 0 -222.57387699 0 4225.93388297 0 1600.55625759 0 -2074.66442412 0 15670
0.12250000 0.12250700 14741.43899465 0 -232.16664833 0 3389.92172550 0 1438.36490819 0 -1926.62505399 0 16887
0.12350000 0.12352200 14836.31008682 0 -114.13194720 0 2371.27147496 0 942.93884755 0 -2397.10249034 0 16407
0.12450000 0.12449800 14689.73200129 0 141.49506327 0 2198.48019192 0 255.38084022 0 -1888.92391144 0 16306
0.12550000 0.12549900 14591.48871390 0 308.66040062 0 2237.28291824 0 -343.03206242 0 -1014.31135936 0 17523
0.12650000 0.12650100 14293.04943699 0 373.23569094 0 2717.88818090 0 -575.02897692 0 -845.88819320 0 17154
0.12750000 0.12750600 14153.44055491 0 393.47785477 0 3146.89885670 0 -100.23355701 0 215.41807874 0 18007
0.12850000 0.12850300 13969.43110245 0 363.15057910 0 3721.68953183 0 -49.87431767 0 -417.47552002 0 17496
0.12950000 0.12949900 13614.56375887 0 480.07357987 0 3846.65184600 0 -42.89466041 0 850.60364618 0 18405
0.13050000 0.13049000 13364.12206058 0 285.05615815 0 4300.27954690 0 -95.92872500 0 708.62523493 0 18100
0.13150000 0.13148800 13230.69553641 0 237.79484215 0 4470.73277459 0 121.30573049 0 1457.65386484 0 19059
0.13250000 0.13249300 13080.52044264 0 164.74859744 0 4123.17185398 0 50.09845624 0 1341.68407125 0 18957
0.13350000 0.13349100 12961.36954489 0 11.10364968 0 4270.62671027 0 303.57063397 0 1409.99350574 0 19468
0.13450000 0.13450700 13057.47710864 0 71.42849026 0 4124.79050769 0 150.58425345 0 1344.50547458 0 19953
0.13550000 0.13551000 12876.95225790 0 91.26228125 0 4278.34903733 0 403.14144221 0 1729.26170846 0 19956
0.13650000 0.13649900 12824.79563851 0 245.30134871 0 3564.79252892 0 -48.61570201 0 1311.01957606 0 19723
0.13750000 0.13749600 12543.77937023 0 202.90161415 0 4132.04072741 0 312.40803357 0 1271.48620744 0 20946
0.13850000 0.13851100 12373.70832468 0 265.42773384 0 3714.90017878 0 -90.32256285 0 1060.68353989 0 20955
0.13950000 0.13949800 12150.46900116 0 153.60798850 0 3606.69767485 0 43.21479414 0 533.66338223 0 20506
0.14050000 0.14048300 12003.66610261 0 159.07768914 0 3474.12544013 0 -162.87253283 0 -1.23035667 0 21447
0.14150000 0.14148400 11950.61023116 0 77.64277161 0 3508.19585249 0 -216.33081958 0 -685.07494758 0 21771
0.14250000 0.14249400 11879.34450553 0 32.04237416 0 3270.26499847 0 -242.61932944 0 -1397.20164521 0 22470
0.14350000 0.14350900 11834.71912212 0 99.03204385 0 3393.44004918 0 -184.27023556 0 -1868.27483605 0 22519
0.14450000 0.14449900 11761.65489237 0 173.78720469 0 3252.21251339 0 -20.45641064 0 -2052.52034218 0 22218
0.14550000 0.14550500 11595.18085505 0 263.61686501 0 3232.00182338 0 82.98185589 0 -2382.01753706 0 23559
0.14650000 0.14650700 11347.77413246 0 287.19862618 0 3159.03875949 0 82.11733744 0 -2376.56582145 0 23044
0.14750000 0.14750500 11103.68340183 0 168.95822114 0 3301.05314082 0 197.55668473 0 -2006.72593110 0 23649
0.14850000 0.14849900 11000.14576795 0 168.20959380 0 3030.05229235 0 502.81004411 0 -1874.53587850 0 23640
0.14950000 0.14949500 10844.01312930 0 120.22325583 0 3239.22956180 0 244.87532804 0 -1630.66996089 0 24457
0.15050000 0.15050000 10744.81438660 0 89.58405210 0 2899.80687233 0 145.83507852 0 -1313.88594199 0 24591
0.15150000 0.15149900 10739.53128075 0 48.82871234 0 2940.76780359 0 251.53091734 0 -1037.29511791 0 25020
0.15250000 0.15250500 10712.86845722 0 0.18065075 0 2508.01399110 0 426.39722450 0 -958.06314310 0 25297
0.15350000 0.15350100 10809.48185025 0 -13.13211503 0 2922.16452663 0 160.32315325 0 -364.43763361 0 25452
0.15450000 0.15450400 10738.92428561 0 103.63643920 0 2500.98858439 0 124.57226360 0 -655.58172819 0 26061
0.15550000 0.15549900 10639.32087949 0 257.86952029 0 3027.53438658 0 -32.88205077 0 -127.47122742 0 26128
0.15650000 0.15649500 10374.92953364 0 426.54560109 0 2989.91192859 0 -269.14838923 0 -92.64330760 0 26331
0.15750000 0.15749700 10005.89897014 0 351.88182674 0 3434.73819996 0 -129.51814992 0 52.35321837 0 27345
0.15850000 0.15849900 9805.32079850 0 234.48559457 0 3438.00922933 0 271.74385549 0 341.15824595 0 26980
0.15950000 0.15949700 9671.41092634 0 190.98202811 0 3532.28456701 0 356.42754590 0 360.56747756 0 27777
0.16050000 0.16050000 9456.21990875 0 72.37607711 0 2981.93106657 0 579.54996665 0 460.73066810 0 28224
0.16150000 0.16150500 9361.86588651 0 72.39496141 0 3003.88405745 0 393.24404924 0 536.10035531 0 28075
0.16250000 0.16249700 9390.29349221 0 137.98910431 0 2697.31779006 0 100.08956427 0 627.31486380 0 28590
0.16350000 0.16349900 9329.58273761 0 46.73435429 0 2835.16188997 0 25.51751363 0 967.78855412 0 29163
0.16450000 0.16449100 9196.85313378 0 11.19196747 0 2690.66332483 0 -169.52699806 0 884.79545757 0 28996
0.16550000 0.16550500 9239.39899680 0 131.62914412 0 3070.65352279 0 -207.32930647 0 969.77252897 0 30777
0.16650000 0.16650700 9324.24342852 0 130.05882522 0 2915.10539797 0 1.90407631 0 1048.04567627 0 29211
0.16750000 0.16749900 9112.98663868 0 144.43786563 0 3330.80714331 0 32.52999359 0 1241.14769111 0 30922
0.16850000 0.16850800 9117.30304856 0 92.45457708 0 3476.67706784 0 87.97169316 0 1341.58290539 0 30867
0.16950000 0.16949900 9057.90745010 0 96.41094891 0 3134.24188397 0 271.01546132 0 1686.72708609 0 30852
0.17050000 0.17049200 8918.34353062 0 157.85358228 0 3211.83609597 0 448.99767686 0 1398.33695094 0 31257
0.17150000 0.17149500 8822.88792461 0 187.37939956 0 2891.80352901 0 259.05653301 0 1613.76402219 0 32608
0.17250000 0.17250900 8635.65240539 0 135.61845107 0 2716.16836134 0 683.88006641 0 1531.02159216 0 32361
0.17350000 0.17350400 8420.74240406 0 80.45518242 0 2392.44886093 0 591.80340001 0 1826.05495190 0 32508
0.17450000 0.17449800 8357.26644938 0 30.89650223 0 1964.40488110 0 463.17101337 0 1246.97034819 0 32791
0.17550000 0.17549800 8339.13527975 0 23.06727658 0 1647.20495812 0 326.72187821 0 1438.90445942 0 33633
0.17650000 0.17650100 8232.10180349 0 172.07300546 0 1681.28661114 0 -178.26435588 0 1433.09304300 0 33984
0.17750000 0.17750300 8111.12992033 0 175.02030408 0 1675.70000772 0 -426.87607623 0 1521.27594798 0 34069
