### header ###
fiducial parameters:
Omega_m = 0.31
Omega_nu = 0
Omega_de = 0.69
Omega_k = 0
H_0 = 100
w_de = -1
zeff = 0
beta = 0
fgrowth = 0
b_1 = 2
gamma = 0.55
Lx = 3500 Ly = 3500 Lz = 3500
nx = 700 ny = 700 nz = 700
xoffset = 857.220397 yoffset = 15.9954215 zoffset = 262.898189
bins = 400 dk = 0.001
kx_ny = 0.628318531 ky_ny = 0.628318531 kz_ny = 0.628318531
############################
A(data) = 3.08594608 (not used)
A(ran) = 3.0878627 (used)
Ngal = 188090
weighted Ngal = 0
Nran = 9360983
weighted Nran = 0
SN(data) = 3439.64672
SN(ran) = 69.3417914
SN(data+ran) = 3508.98852
############################
13 columns: k_central k_mean P_0(k) sigma^{lin}_{P_0(k)} P^img_1(k) sigma^{lin}_{P_1(k)} P_2(k) sigma^{lin}_{P_2(k)} P^img_3(k) sigma^{lin}_{P_3(k)} P_4(k) sigma^{lin}_{P_4(k)} N_modes
### header ###
0.00050000 0 0 0 0 0 0 0 0 0 0 0 0
0.00150000 0.00179520 7117.41143310 0 -12629.65794182 0 -10316.80412871 0 19064.14363976 0 19963.17088523 0 3
0.00250000 0.00253879 15071.57690662 0 -13630.86270243 0 16.46912701 0 -13236.20345526 0 -7797.08862020 0 6
0.00350000 0.00331552 24311.50421400 0 -12286.48087500 0 -10828.35490283 0 3233.81156815 0 1913.33860483 0 7
0.00450000 0.00420575 32073.17354375 0 -8647.51129191 0 -6460.55276699 0 -6660.69255325 0 -2404.02673119 0 24
0.00550000 0.00557378 38926.48588793 0 -1712.95152425 0 -4559.21917714 0 -11227.99375827 0 2159.95848186 0 45
0.00650000 0.00659388 39606.65766366 0 -2596.14069283 0 -251.30273213 0 3774.61051547 0 -7755.02610517 0 40
0.00750000 0.00754703 41378.63384490 0 -2772.97861013 0 -7626.93889009 0 6842.10541540 0 3525.94484000 0 57
0.00850000 0.00846663 45384.46454590 0 -4184.98419235 0 -9009.04434137 0 4257.86857169 0 -4922.39336161 0 75
0.00950000 0.00948925 50942.06708032 0 -6731.89083498 0 -14747.05932002 0 8373.59911489 0 12827.15617516 0 112
0.01050000 0.01054430 51813.10510546 0 -3054.11852556 0 -21574.63057402 0 11895.98066861 0 14729.52390488 0 105
0.01150000 0.01145670 54819.64195648 0 -5594.46062816 0 -25975.23292870 0 15238.50056998 0 35607.57135310 0 144
0.01250000 0.01249090 58294.80153647 0 -8655.17741571 0 -32001.68300510 0 24396.14631401 0 39225.82441690 0 169
0.01350000 0.01339930 63997.18365230 0 -10598.93322141 0 -27693.47879944 0 13439.99645302 0 45577.12929943 0 180
0.01450000 0.01448870 76637.74502533 0 -10640.68099822 0 -42182.78999819 0 5847.06053139 0 33793.77995114 0 267
0.01550000 0.01550050 79026.27089916 0 -14.62363697 0 -16198.90176843 0 -30360.43559187 0 18693.65179167 0 238
0.01650000 0.01653350 82112.72877688 0 3181.71115201 0 -19337.74107855 0 -38304.65308949 0 21895.32633938 0 315
0.01750000 0.01747870 86636.19144404 0 731.91361511 0 15497.26034980 0 -34206.31183297 0 -6151.07517106 0 297
0.01850000 0.01844180 79969.02427597 0 4927.42917314 0 7957.42526223 0 -27496.99222466 0 -5608.09553750 0 388
0.01950000 0.01947590 80221.93891742 0 -637.07961709 0 26072.12733800 0 -9497.27076522 0 -30152.37114684 0 399
0.02050000 0.02045430 80366.38127931 0 133.69517573 0 15563.46778261 0 4050.44484375 0 -32690.17286238 0 462
0.02150000 0.02154770 79291.88747593 0 32.13173733 0 2703.15168779 0 7955.01976297 0 -36372.72244836 0 571
0.02250000 0.02255340 77694.14138103 0 257.60648906 0 -1199.84954033 0 4820.55306599 0 -39639.70517681 0 510
0.02350000 0.02348930 73313.43497815 0 5236.53582759 0 845.35988261 0 -10528.49930393 0 -39722.77358571 0 555
0.02450000 0.02439640 69715.63989868 0 6257.14195136 0 6092.07299537 0 -14794.27005309 0 -50540.77584922 0 592
0.02550000 0.02547300 63733.25317314 0 7371.93348760 0 13477.76503947 0 -20781.71507146 0 -41887.16088397 0 837
0.02650000 0.02652900 63542.04970421 0 5012.89184064 0 27346.81713089 0 -14728.62465282 0 -38809.02108779 0 723
0.02750000 0.02749970 60451.32037921 0 -1848.85099158 0 29864.04845559 0 -1013.63916845 0 -31564.42169167 0 826
0.02850000 0.02848090 65675.97483898 0 -1975.57808792 0 38878.60071582 0 4642.70349012 0 -26944.85146075 0 831
0.02950000 0.02946900 67776.62764758 0 -256.53075879 0 43213.67007673 0 9144.69651439 0 -13608.15658795 0 996
0.03050000 0.03053250 69485.20655869 0 1656.72578929 0 44753.97644640 0 14228.86532132 0 -3311.52942730 0 1041
0.03150000 0.03150510 65726.22054774 0 4162.25559658 0 46672.64311967 0 7109.07087026 0 9648.74977447 0 1036
0.03250000 0.03246190 63116.47866753 0 3845.56150288 0 42747.40788441 0 9784.79537027 0 17587.79657275 0 1059
0.03350000 0.03345080 60571.93256156 0 2985.78660977 0 47662.60722955 0 9709.68534208 0 28703.67608063 0 1302
0.03450000 0.03451200 57087.66805447 0 1812.26267345 0 40452.40422466 0 10538.50348308 0 29392.95278345 0 1339
0.03550000 0.03553350 54938.68044772 0 1804.11320167 0 38585.78176427 0 8145.86353108 0 26009.62931993 0 1365
0.03650000 0.03647120 54073.71237397 0 448.90437946 0 30153.27039890 0 5988.06325416 0 19979.91945481 0 1308
0.03750000 0.03744890 52847.91941175 0 2007.70386771 0 32636.55495839 0 -768.66155048 0 18636.43687945 0 1579
0.03850000 0.03847530 51303.22918830 0 1436.22918455 0 24471.57108041 0 804.01676923 0 10929.73433177 0 1662
0.03950000 0.03950240 49658.72198636 0 2177.60630351 0 27139.20231189 0 -2149.03256935 0 7175.13217461 0 1683
0.04050000 0.04050350 47553.23569794 0 3860.08442363 0 24719.65224204 0 -3096.57446337 0 -5554.54507742 0 1822
0.04150000 0.04152450 44888.18981613 0 2590.08198209 0 28564.96645061 0 388.26331690 0 2801.15892151 0 1887
0.04250000 0.04250150 42546.76226886 0 1412.24163589 0 25377.45512282 0 525.15982996 0 -9152.87970812 0 1920
0.04350000 0.04349210 43298.87420927 0 -528.65005201 0 21292.26542766 0 5660.79170813 0 -5580.85944078 0 2005
0.04450000 0.04448520 42564.07287099 0 -1066.91760478 0 19661.02219358 0 5447.66897027 0 -12466.55609971 0 2151
0.04550000 0.04548030 42292.61115583 0 -184.47031915 0 15091.69767143 0 7688.79619106 0 -8499.84286325 0 2274
0.04650000 0.04648670 41981.91956963 0 382.63062682 0 10805.27784688 0 3208.49762270 0 -5174.16145668 0 2311
0.04750000 0.04749250 41178.55026188 0 334.71622901 0 11896.87992067 0 6211.59483460 0 -2519.20967923 0 2568
0.04850000 0.04851840 40681.37628005 0 827.40406714 0 11288.31109009 0 4210.56791342 0 2456.23955383 0 2493
0.04950000 0.04949480 39667.46958412 0 686.80937999 0 10106.07564946 0 6523.06202570 0 4085.86413421 0 2644
0.05050000 0.05050630 38050.50197646 0 828.64166278 0 7241.58690173 0 3383.60447979 0 9419.96881014 0 2829
0.05150000 0.05149060 38157.62537793 0 -6.90195064 0 7442.10887012 0 1225.32085488 0 9652.68400222 0 2784
0.05250000 0.05249300 39330.25006219 0 -76.93809521 0 6984.89540163 0 -1325.13783338 0 9581.37331399 0 3055
0.05350000 0.05348950 38031.16805721 0 324.76825312 0 9384.59448229 0 -1446.84035884 0 5232.66904374 0 3009
0.05450000 0.05448610 37723.28663368 0 1100.43160494 0 6876.99639527 0 -3693.91388387 0 4406.04282963 0 3336
0.05550000 0.05550870 35547.43387169 0 1109.38590731 0 9411.17862127 0 -3953.28065884 0 -2717.06761339 0 3349
0.05650000 0.05647670 35270.46423767 0 2264.45157106 0 10240.99718018 0 -2266.30627843 0 -4629.81046373 0 3324
0.05750000 0.05747970 33463.19241315 0 2145.72781804 0 11490.64280325 0 -1964.75334127 0 -4327.61680948 0 3639
0.05850000 0.05849280 31944.24327987 0 1391.12045317 0 10325.62803954 0 792.93685980 0 -6693.77378835 0 3846
0.05950000 0.05951020 31316.67774956 0 439.75898603 0 11088.83450222 0 2169.25450002 0 -2080.28474948 0 3787
0.06050000 0.06049470 31251.93160135 0 -356.14652963 0 9402.69192997 0 2422.86606181 0 -5801.64830244 0 3930
0.06150000 0.06148310 32344.18563288 0 -997.00525350 0 9590.51196303 0 1701.29496944 0 -1701.14884098 0 4083
0.06250000 0.06249100 33132.15524912 0 -318.26666073 0 10180.37635079 0 -473.68102180 0 -3671.34265720 0 4303
0.06350000 0.06350600 33829.41281396 0 408.61901131 0 12291.98879386 0 -2672.39726739 0 485.20718506 0 4470
0.06450000 0.06451750 33562.44735910 0 439.22168292 0 12495.55697860 0 -1457.77751200 0 2433.42103285 0 4479
0.06550000 0.06550280 33668.44669549 0 203.17925822 0 15357.98868725 0 -432.69086485 0 3762.09967120 0 4636
0.06650000 0.06648880 34210.69568676 0 -146.96139172 0 16950.56408281 0 2394.28108700 0 3218.98514983 0 4653
0.06750000 0.06749660 33067.07188139 0 181.55899061 0 16282.19499035 0 1825.63904782 0 729.60815765 0 5220
0.06850000 0.06852730 33705.20362338 0 763.89776270 0 16044.79244691 0 1171.17464031 0 2245.72464694 0 5029
0.06950000 0.06949320 32235.37613380 0 674.63575525 0 14386.68405758 0 2197.07511058 0 1610.87517496 0 5040
0.07050000 0.07048030 31971.89528067 0 861.42502064 0 14506.28458136 0 321.21395935 0 3969.65828695 0 5475
0.07150000 0.07148790 30895.15334714 0 748.93420845 0 12274.22856571 0 417.91952572 0 -651.02364432 0 5509
0.07250000 0.07249820 30075.82231536 0 423.54996767 0 10750.25486155 0 673.60723571 0 -181.40836589 0 5916
0.07350000 0.07351270 30131.57594299 0 920.49913649 0 10526.77948437 0 -316.66374394 0 -116.94885427 0 5721
0.07450000 0.07449140 28765.61206616 0 959.56826624 0 9243.83905384 0 -527.27194823 0 -1137.19415315 0 6028
0.07550000 0.07549160 28418.61317809 0 594.89008270 0 9623.03116560 0 279.82475930 0 -274.99689981 0 6183
0.07650000 0.07648840 28035.19458166 0 732.77015270 0 10984.75731710 0 -280.44299509 0 -763.00637910 0 6330
0.07750000 0.07749960 28011.47680862 0 274.64843964 0 10152.30844592 0 1621.44138664 0 -509.74215341 0 6583
0.07850000 0.07848650 27726.97593861 0 264.69371935 0 10953.89049019 0 477.15213475 0 -172.68337279 0 6549
0.07950000 0.07947320 27905.02784619 0 817.43360994 0 9436.60497322 0 -263.44825525 0 189.76466564 0 6828
0.08050000 0.08048110 26747.46563392 0 741.41196498 0 12028.73275374 0 -506.58015836 0 450.24426503 0 7147
0.08150000 0.08149960 26046.83587385 0 970.46607712 0 11752.66237179 0 130.14987449 0 1944.48644800 0 7386
0.08250000 0.08250610 25293.71227488 0 669.80227543 0 11642.72880764 0 710.85538003 0 48.70956144 0 7227
0.08350000 0.08350160 24920.29785759 0 264.61053853 0 10865.76378846 0 1459.18259334 0 442.53992302 0 7798
0.08450000 0.08449610 24497.64939011 0 314.52464810 0 10346.98527593 0 2260.55106526 0 288.54300800 0 7371
0.08550000 0.08548940 23816.12873629 0 739.27961354 0 8431.65707592 0 1186.47316596 0 -1100.33156315 0 8256
0.08650000 0.08650700 22976.90175271 0 509.09131974 0 8883.43006945 0 2050.20476813 0 921.34892969 0 8037
0.08750000 0.08749060 22415.76846822 0 561.83132890 0 7311.89717205 0 454.85405589 0 173.84115982 0 8155
0.08850000 0.08849210 22199.94797419 0 190.73360973 0 7654.44476243 0 1871.99549144 0 1313.49251922 0 8718
0.08950000 0.08949900 21984.01507364 0 20.91930064 0 8069.56199392 0 397.16366415 0 2003.29753263 0 8571
0.09050000 0.09049190 21786.51684030 0 95.37309963 0 6739.23097991 0 736.95841916 0 988.66131846 0 8932
0.09150000 0.09150830 21631.39586021 0 273.71996189 0 7178.07722510 0 301.52933179 0 1313.02041189 0 9285
0.09250000 0.09250820 21400.51289420 0 574.91095009 0 6443.92784456 0 -6.80087471 0 -766.92599401 0 9204
0.09350000 0.09350330 20533.85872284 0 505.79893314 0 5723.41337335 0 -40.87640157 0 -395.40675044 0 9349
0.09450000 0.09448040 20099.29516558 0 637.33590393 0 5833.47058466 0 418.87835323 0 -1924.17459213 0 9564
0.09550000 0.09549270 19687.55012930 0 210.69925356 0 4347.44531737 0 -201.53250289 0 -2933.03423589 0 10155
0.09650000 0.09649430 19443.40319542 0 242.11350016 0 4548.11341422 0 525.57460997 0 -2592.49872199 0 9913
0.09750000 0.09749140 19358.64868891 0 186.55433579 0 3627.89754213 0 -98.23811669 0 -2487.15134334 0 10476
0.09850000 0.09850240 19087.74900630 0 -88.30441642 0 4591.97443337 0 548.54712787 0 -2475.23625357 0 10575
0.09950000 0.09950330 19332.45797271 0 204.24712004 0 4147.92376689 0 501.93776961 0 -1835.31724810 0 10882
0.10050000 0.10051200 19291.31719103 0 223.54394515 0 3924.15613279 0 202.35756665 0 -1646.46307517 0 10875
0.10150000 0.10150300 18555.61660069 0 813.24197128 0 3968.19700236 0 16.80634653 0 -485.59835971 0 11118
0.10250000 0.10250800 18321.02421994 0 872.95343203 0 4511.14291396 0 -280.89374518 0 -541.63525173 0 11575
0.10350000 0.10349800 17285.42306809 0 795.93136916 0 4681.04534976 0 -572.55940596 0 -962.34807916 0 11364
0.10450000 0.10450100 16905.37666687 0 700.17451371 0 5656.99236818 0 -1008.45722846 0 -363.26973000 0 12093
0.10550000 0.10551000 16053.33534146 0 346.92132758 0 5850.72498353 0 -645.40556709 0 -820.08977571 0 12067
0.10650000 0.10649700 16410.22600217 0 134.43705868 0 6620.13628541 0 -95.12130905 0 -403.89568987 0 12054
0.10750000 0.10749900 15882.02782432 0 151.74541267 0 6300.03627455 0 -63.84498524 0 -568.18342063 0 12807
0.10850000 0.10850100 16066.48690282 0 115.17395552 0 6497.93917132 0 887.68655294 0 -177.04811747 0 12736
0.10950000 0.10950300 15855.27507558 0 -109.74056218 0 5311.64585577 0 797.44998107 0 -1770.87459746 0 12933
0.11050000 0.11050200 16037.48602393 0 -140.19789218 0 5392.20759956 0 652.73109917 0 -970.10075597 0 13428
0.11150000 0.11150900 16006.12460839 0 -136.64584655 0 3988.76739319 0 298.70905253 0 -2603.37967190 0 13453
0.11250000 0.11250000 16008.82236457 0 285.87897378 0 4493.74238663 0 -419.97319261 0 -2769.77502467 0 13668
0.11350000 0.11349100 15596.40288925 0 431.50047994 0 4217.26734125 0 -47.70487208 0 -2425.62002124 0 13791
0.11450000 0.11448600 15358.10109375 0 548.49317274 0 4400.46746687 0 434.21060083 0 -1877.87435177 0 14205
0.11550000 0.11549300 15045.27378391 0 307.69707685 0 4053.49106010 0 688.59776752 0 -1183.05600814 0 14776
0.11650000 0.11649800 14852.27181086 0 -33.04447817 0 4723.93967295 0 1477.92075811 0 -710.23826831 0 14553
0.11750000 0.11747300 14915.33186146 0 -36.62327655 0 3945.91803261 0 1170.68005168 0 -6.25059989 0 14568
0.11850000 0.11849100 14924.54919506 0 -65.71936375 0 3677.03042647 0 734.46411876 0 641.62421218 0 16015
0.11950000 0.11950300 14899.14532441 0 182.38405437 0 3492.36901626 0 159.09117793 0 656.35058870 0 15270
0.12050000 0.12050700 14734.35738469 0 291.40824988 0 3690.50796670 0 -241.86732991 0 1013.36040031 0 15999
0.12150000 0.12150000 14474.58594630 0 320.90708959 0 2919.33188265 0 -391.08134804 0 687.36579220 0 15670
0.12250000 0.12250700 14213.91525585 0 306.39540950 0 3672.00585559 0 -453.90646904 0 440.88529923 0 16887
0.12350000 0.12352200 13909.63084056 0 411.80236359 0 3108.62444096 0 -372.47919514 0 -318.69942579 0 16407
0.12450000 0.12449800 13702.69046060 0 393.32498192 0 3932.32808587 0 -37.75712099 0 -74.01709971 0 16306
0.12550000 0.12549900 13291.50745686 0 279.19977912 0 3227.22454682 0 32.58080133 0 -934.69832649 0 17523
0.12650000 0.12650100 12972.27297610 0 186.80500230 0 3280.83121016 0 135.49705204 0 -918.94230636 0 17154
0.12750000 0.12750600 12971.93575658 0 -52.43055405 0 2952.54800556 0 231.54279221 0 -1190.51980022 0 18007
0.12850000 0.12850300 12877.28947742 0 -106.55192678 0 2561.33963817 0 217.64485165 0 -1516.88085354 0 17496
0.12950000 0.12949900 13100.75361396 0 -55.05030011 0 2550.41372566 0 384.47521760 0 -1611.49341075 0 18405
0.13050000 0.13049000 12932.14385299 0 82.36789155 0 2279.16558287 0 -38.95593639 0 -1635.23366509 0 18100
0.13150000 0.13148800 12847.95137902 0 180.40232765 0 2614.51915677 0 328.65864233 0 -589.42712645 0 19059
0.13250000 0.13249300 12715.53651340 0 169.71808913 0 2777.99194036 0 114.97499600 0 -594.77767619 0 18957
0.13350000 0.13349100 12659.89529229 0 315.30924552 0 3094.37129583 0 150.78208891 0 50.88282885 0 19468
0.13450000 0.13450700 12481.39375868 0 255.27068184 0 3384.38008469 0 -301.38207927 0 372.38140148 0 19953
0.13550000 0.13551000 12171.15179850 0 258.59229413 0 4014.86818419 0 -106.01990678 0 746.72317245 0 19956
0.13650000 0.13649900 12199.70305136 0 352.25389228 0 4004.52678552 0 -270.39272927 0 899.08120059 0 19723
0.13750000 0.13749600 11888.44943262 0 266.64734445 0 4163.30097709 0 -125.01289710 0 487.42946171 0 20946
0.13850000 0.13851100 11692.07526435 0 194.14514723 0 3922.68360755 0 430.51130267 0 599.93938301 0 20955
0.13950000 0.13949800 11552.24156925 0 92.48964791 0 3810.92905798 0 536.69723387 0 281.62438748 0 20506
0.14050000 0.14048300 11485.24729090 0 74.78629744 0 3473.88938646 0 254.04207872 0 475.11083258 0 21447
0.14150000 0.14148400 11429.26885026 0 97.49140026 0 3573.43658933 0 -41.51644422 0 72.86560745 0 21771
0.14250000 0.14249400 11407.34958133 0 83.06694762 0 3694.02629038 0 -455.53411526 0 638.12274948 0 22470
0.14350000 0.14350900 11362.49938492 0 -1.97448774 0 3693.27316678 0 -232.79837290 0 -16.66819894 0 22519
0.14450000 0.14449900 11539.65204044 0 -137.55409113 0 3984.88936869 0 -137.80812983 0 144.35131262 0 22218
0.14550000 0.14550500 11697.58318321 0 -73.63851460 0 3791.13427204 0 272.65996852 0 -339.99821079 0 23559
0.14650000 0.14650700 11653.74464536 0 34.98180433 0 3466.98762691 0 504.48602513 0 -557.18894015 0 23044
0.14750000 0.14750500 11447.02907841 0 294.37128541 0 3240.96062201 0 327.84257109 0 -557.06641706 0 23649
0.14850000 0.14849900 11144.66681440 0 409.43845475 0 2874.62781469 0 409.66551589 0 -658.85500569 0 23640
0.14950000 0.14949500 10732.31478298 0 397.86620482 0 2853.25933765 0 339.72955924 0 -344.22694360 0 24457
0.15050000 0.15050000 10450.46670655 0 282.38200734 0 2614.86761695 0 192.99860086 0 -418.26798590 0 24591
0.15150000 0.15149900 10193.08952677 0 197.22733366 0 2869.14237713 0 -90.95080282 0 9.51374956 0 25020
0.15250000 0.15250500 10108.93077474 0 164.03369205 0 3222.59339872 0 -399.04085282 0 59.00487344 0 25297
0.15350000 0.15350100 10247.04465028 0 26.50140779 0 3452.89185090 0 -179.54241787 0 266.02461239 0 25452
0.15450000 0.15450400 10158.68189488 0 28.64522470 0 3456.19660221 0 -88.62027870 0 594.48991554 0 26061
0.15550000 0.15549900 10327.89865098 0 15.43341345 0 3432.32146006 0 112.42786455 0 404.92533348 0 26128
0.15650000 0.15649500 10183.37760454 0 186.97023987 0 3588.06067594 0 251.16222400 0 386.44008335 0 26331
0.15750000 0.15749700 10064.97983039 0 281.45240552 0 3456.43265588 0 77.61691811 0 141.99190003 0 27345
0.15850000 0.15849900 9712.48426411 0 247.91142781 0 3602.83089100 0 60.45772755 0 443.61902549 0 26980
0.15950000 0.15949700 9678.33516719 0 211.63784790 0 3744.91271624 0 -355.74973466 0 212.81474403 0 27777
0.16050000 0.16050000 9522.11260333 0 48.80353328 0 3677.62618096 0 -57.25661503 0 29.55043430 0 28224
0.16150000 0.16150500 9618.80468092 0 -13.53531717 0 3752.45519288 0 -122.88504192 0 93.39260938 0 28075
0.16250000 0.16249700 9620.05239315 0 0.37742396 0 3474.69871331 0 222.00060381 0 -386.41535392 0 28590
0.16350000 0.16349900 9524.77663756 0 87.78082691 0 3595.95161275 0 256.08000869 0 -360.74170765 0 29163
0.16450000 0.16449100 9362.91126703 0 339.65087468 0 3247.87362221 0 -9.73367289 0 -551.21903055 0 28996
0.16550000 0.16550500 9099.12691633 0 298.00875998 0 3310.46156548 0 99.50134102 0 -603.95341939 0 30777
0.16650000 0.16650700 8880.39509375 0 202.14287023 0 3194.34564343 0 138.91196173 0 -441.88459308 0 29211
0.16750000 0.16749900 8776.46403709 0 4.60204606 0 3250.29036212 0 241.19738713 0 -385.58354576 0 30922
0.16850000 0.16850800 8736.78454001 0 -54.36844224 0 3034.42490548 0 213.02944046 0 -470.68426432 0 30867
0.16950000 0.16949900 8903.76440662 0 -26.27479627 0 2992.00268962 0 170.22391841 0 -516.15944092 0 30852
0.17050000 0.17049200 8812.77133895 0 17.33004845 0 3138.68194101 0 250.36526186 0 -313.32077441 0 31257
0.17150000 0.17149500 8787.81709433 0 53.62419875 0 2825.88835312 0 207.28321980 0 58.77039347 0 32608
0.17250000 0.17250900 8771.61931663 0 33.18116449 0 2903.70737813 0 257.70428272 0 21.30665346 0 32361
0.17350000 0.17350400 8666.54171359 0 121.12925228 0 2740.60553602 0 127.19358335 0 -44.19093225 0 32508
0.17450000 0.17449800 8647.87099273 0 176.88962429 0 2688.11169711 0 125.79187420 0 112.06827613 0 32791
0.17550000 0.17549800 8535.27339436 0 92.14388549 0 2417.58295597 0 15.28638574 0 109.09849621 0 33633
0.17650000 0.17650100 8441.98723394 0 47.91585909 0 2647.15076585 0 27.93942424 0 508.86987892 0 33984
0.17750000 0.17750300 8470.40359899 0 3.35243416 0 2296.57735085 0 129.76319610 0 13.78373555 0 34069
