### header ###
fiducial parameters:
Omega_m = 0.31
Omega_nu = 0
Omega_de = 0.69
Omega_k = 0
H_0 = 100
w_de = -1
zeff = 0
beta = 0
fgrowth = 0
b_1 = 2
gamma = 0.55
Lx = 3500 Ly = 3500 Lz = 3500
nx = 700 ny = 700 nz = 700
xoffset = 857.220397 yoffset = 15.9954215 zoffset = 262.898189
bins = 400 dk = 0.001
kx_ny = 0.628318531 ky_ny = 0.628318531 kz_ny = 0.628318531
############################
A(data) = 3.06363545 (not used)
A(ran) = 3.06341604 (used)
Ngal = 187666
weighted Ngal = 0
Nran = 9360983
weighted Nran = 0
SN(data) = 3447.5406
SN(ran) = 68.7928115
SN(data+ran) = 3516.33341
############################
13 columns: k_central k_mean P_0(k) sigma^{lin}_{P_0(k)} P^img_1(k) sigma^{lin}_{P_1(k)} P_2(k) sigma^{lin}_{P_2(k)} P^img_3(k) sigma^{lin}_{P_3(k)} P_4(k) sigma^{lin}_{P_4(k)} N_modes
### header ###
0.00050000 0 0 0 0 0 0 0 0 0 0 0 0
0.00150000 0.00179520 61551.55527276 0 -84123.79359916 0 -89943.07848259 0 174405.44048177 0 -13193.82620201 0 3
0.00250000 0.00253879 112414.37576542 0 -91089.17523112 0 -34965.39297684 0 -87849.84450347 0 -2022.11438195 0 6
0.00350000 0.00331552 151656.61153239 0 -72628.76694212 0 -101348.17993378 0 -26165.08751954 0 60211.22007960 0 7
0.00450000 0.00420575 177750.65813931 0 -32780.88491377 0 -87109.53524632 0 -77725.27798356 0 20257.11390184 0 24
0.00550000 0.00557378 172134.82903411 0 3378.15276418 0 -116956.72272582 0 -50569.55191509 0 57778.85566792 0 45
0.00650000 0.00659388 131577.43713162 0 23961.35794373 0 -48606.82189095 0 -20237.89238909 0 1346.91097384 0 40
0.00750000 0.00754703 129345.04389644 0 7111.77986709 0 -126065.02201314 0 9562.50026141 0 54346.63537372 0 57
0.00850000 0.00846663 112570.62081058 0 -5685.90332186 0 -82078.10757262 0 895.70450911 0 17293.96596264 0 75
0.00950000 0.00948925 117859.34697952 0 -776.35914810 0 -108383.92803932 0 -24129.51807867 0 52969.76806568 0 112
0.01050000 0.01054430 112589.72991683 0 -4455.32184243 0 -77428.52480426 0 -39830.45901972 0 23310.97389244 0 105
0.01150000 0.01145670 106475.82757773 0 10983.59953007 0 -59007.23397980 0 -48644.92769693 0 33173.85806333 0 144
0.01250000 0.01249090 97550.52608431 0 14501.11388202 0 -33464.54129123 0 -36622.37730109 0 39842.37410949 0 169
0.01350000 0.01339930 78354.86683100 0 19255.45951520 0 -5136.04441005 0 -32844.50699691 0 27740.35231298 0 180
0.01450000 0.01448870 71540.10991883 0 7885.53006015 0 226.92850509 0 2093.97586207 0 31898.60623790 0 267
0.01550000 0.01550050 62262.75124451 0 8008.08687507 0 18836.74527547 0 9560.90408901 0 7126.24658458 0 238
0.01650000 0.01653350 63870.16429904 0 793.79676958 0 9554.15969857 0 4858.82748172 0 24613.31568613 0 315
0.01750000 0.01747870 61603.93670517 0 -1774.85378782 0 21741.44183087 0 294.31508215 0 5671.87498975 0 297
0.01850000 0.01844180 63748.76527115 0 -859.54221164 0 11103.80704899 0 -521.14579358 0 27200.23904536 0 388
0.01950000 0.01947590 66972.35908778 0 -646.43521069 0 11419.93911015 0 -1407.59924714 0 5899.84662722 0 399
0.02050000 0.02045430 61645.86433239 0 -999.13985307 0 7535.65356550 0 2141.97344069 0 -8195.62589187 0 462
0.02150000 0.02154770 67455.48225620 0 1350.90140485 0 11319.33528611 0 -8883.10409058 0 -10422.80346511 0 571
0.02250000 0.02255340 61485.23543345 0 -3549.62889109 0 -7723.21506360 0 -2828.13648327 0 -25900.37019483 0 510
0.02350000 0.02348930 69468.57039561 0 234.53842563 0 8029.84877489 0 -10582.37574288 0 -15039.42864553 0 555
0.02450000 0.02439640 66913.90770398 0 -705.83418135 0 364.11502693 0 -10539.89732377 0 -35061.72535360 0 592
0.02550000 0.02547300 71261.56659371 0 227.51077080 0 16325.24668265 0 -5008.22697059 0 -17382.65469691 0 837
0.02650000 0.02652900 71842.93304952 0 2771.96695156 0 16809.38150963 0 -7253.18725328 0 -25636.88934169 0 723
0.02750000 0.02749970 69867.38868355 0 3378.15276418 0 30633.58340463 0 -975.45805011 0 -8444.01055107 0 826
0.02850000 0.02848090 66426.17586876 0 3712.88810230 0 35073.07841084 0 4462.57206216 0 -11870.46439145 0 831
0.02950000 0.02946900 64138.02900596 0 4005.63960994 0 34989.22315639 0 8130.47508023 0 4059.22379198 0 996
0.03050000 0.03053250 59724.72471596 0 3923.63906286 0 38215.06510317 0 8046.91208270 0 5356.00146356 0 1041
0.03150000 0.03150510 56978.97096190 0 3592.00614434 0 31516.76133257 0 6640.84156406 0 4630.11396130 0 1036
0.03250000 0.03246190 53701.75924128 0 599.01202932 0 33312.56769335 0 6008.35262873 0 11847.08383793 0 1059
0.03350000 0.03345080 54989.26337601 0 -1186.65301637 0 21467.50717255 0 2916.46551671 0 2228.91987410 0 1302
0.03450000 0.03451200 55465.08012145 0 -1069.35570193 0 26067.51867120 0 -41.27746799 0 3569.96322826 0 1339
0.03550000 0.03553350 56684.24109973 0 222.88973928 0 21865.98824097 0 -4157.23102570 0 -4221.60623244 0 1365
0.03650000 0.03647120 56718.30027145 0 2282.69514720 0 24670.86781787 0 -641.51517787 0 -1830.95587562 0 1308
0.03750000 0.03744890 54910.80363391 0 3008.00937626 0 20615.46584715 0 -2833.46455171 0 -4916.25596631 0 1579
0.03850000 0.03847530 53530.00209811 0 2398.94595706 0 25739.96610890 0 3323.65808944 0 -2910.84519135 0 1662
0.03950000 0.03950240 49387.37267771 0 1767.46868029 0 20678.75071076 0 3196.68369878 0 -6354.81196556 0 1683
0.04050000 0.04050350 51396.41418286 0 1087.22159220 0 21050.02940441 0 4794.87941972 0 -4730.81895120 0 1822
0.04150000 0.04152450 49783.26839646 0 1131.01179525 0 22954.87007728 0 -1372.13499408 0 -3372.24018190 0 1887
0.04250000 0.04250150 47670.70049807 0 3093.20226815 0 19827.38382440 0 922.64160452 0 -5140.23717277 0 1920
0.04350000 0.04349210 44285.12890441 0 2668.89018436 0 20965.49971091 0 -1068.44296109 0 -2185.90190375 0 2005
0.04450000 0.04448520 42880.38478256 0 2572.27679133 0 22578.75790382 0 753.49004419 0 -5764.81268999 0 2151
0.04550000 0.04548030 41797.01086510 0 1775.71931793 0 26134.85016908 0 4630.27133041 0 -4825.46523035 0 2274
0.04650000 0.04648670 41401.00273985 0 438.35502875 0 27287.24168202 0 -367.79858818 0 -4401.68145715 0 2311
0.04750000 0.04749250 40709.59031339 0 563.38253870 0 27125.26390498 0 -1616.13579950 0 -3254.47188419 0 2568
0.04850000 0.04851840 41232.84260491 0 -124.24628472 0 28595.54102060 0 -299.05638863 0 1089.40340251 0 2493
0.04950000 0.04949480 41374.24999111 0 742.19656240 0 29588.31529316 0 956.45348192 0 518.26031854 0 2644
0.05050000 0.05050630 41509.92464543 0 196.99802439 0 25756.26505246 0 5512.14534286 0 3167.37932233 0 2829
0.05150000 0.05149060 40143.17392305 0 430.49106950 0 25099.92345627 0 6954.90534548 0 1663.34653257 0 2784
0.05250000 0.05249300 40669.01156425 0 -102.22461347 0 17512.48421285 0 8109.97213330 0 800.31409888 0 3055
0.05350000 0.05348950 38289.36580450 0 -100.39058890 0 16157.08654771 0 5359.69963765 0 711.84455730 0 3009
0.05450000 0.05448610 39688.48960098 0 -667.34282105 0 12069.31150288 0 5549.41934068 0 3390.04537266 0 3336
0.05550000 0.05550870 39306.08266312 0 149.34440968 0 11344.73915676 0 1978.61306362 0 2825.28135798 0 3349
0.05650000 0.05647670 39599.01402116 0 -499.56599231 0 11563.93184601 0 1722.89950014 0 3171.81937937 0 3324
0.05750000 0.05747970 39159.27976457 0 413.01298168 0 7415.44604658 0 1501.66101245 0 3424.74526146 0 3639
0.05850000 0.05849280 38920.30353003 0 41.68156938 0 9107.20894420 0 2034.16435953 0 3488.08632833 0 3846
0.05950000 0.05951020 37550.29301893 0 1361.83855801 0 9789.64009073 0 593.53783242 0 7151.30199506 0 3787
0.06050000 0.06049470 38004.41530847 0 843.92782371 0 11293.03216340 0 2361.94173485 0 3557.55354985 0 3930
0.06150000 0.06148310 35690.63976200 0 1669.16918965 0 10359.84458036 0 131.95512300 0 4975.67404607 0 4083
0.06250000 0.06249100 35227.74976490 0 1211.38244798 0 12147.09680594 0 -2677.17454395 0 5051.42479135 0 4303
0.06350000 0.06350600 35079.71039477 0 796.76542544 0 14766.73045880 0 -1821.54745096 0 8310.77511796 0 4470
0.06450000 0.06451750 34801.72910219 0 581.14276686 0 15456.56919416 0 -1758.89206378 0 5920.84416279 0 4479
0.06550000 0.06550280 34176.07448251 0 941.48430734 0 16034.78826776 0 -434.86368263 0 5792.07126801 0 4636
0.06650000 0.06648880 34124.14267613 0 962.54928681 0 14892.62574698 0 713.22940547 0 4405.45831579 0 4653
0.06750000 0.06749660 32351.15483633 0 917.21124615 0 14533.59936263 0 2236.38366618 0 2535.98073012 0 5220
0.06850000 0.06852730 31751.35371332 0 812.69567566 0 11673.19097112 0 1503.70681089 0 1285.04243222 0 5029
0.06950000 0.06949320 30990.58647185 0 610.36958282 0 11481.53787616 0 1330.30853271 0 -705.45874362 0 5040
0.07050000 0.07048030 30170.69340753 0 1063.46897314 0 8687.17954834 0 339.44292264 0 -1409.64504557 0 5475
0.07150000 0.07148790 29333.37733458 0 1338.77274271 0 11591.13422078 0 -2190.25203558 0 -2854.82178810 0 5509
0.07250000 0.07249820 28619.25879364 0 1187.88948795 0 11276.73321984 0 -719.34094727 0 -1349.11414138 0 5916
0.07350000 0.07351270 27944.93215629 0 1086.78882715 0 13292.29430241 0 482.65668141 0 516.44832564 0 5721
0.07450000 0.07449140 27635.25222865 0 612.05792856 0 13445.16715235 0 1041.34062811 0 1249.44329135 0 6028
0.07550000 0.07549160 27004.87653566 0 242.60471660 0 12955.07478048 0 2743.79788083 0 2831.65480695 0 6183
0.07650000 0.07648840 27261.83781137 0 334.92530512 0 14124.66448904 0 993.16769534 0 2827.27095316 0 6330
0.07750000 0.07749960 26283.00194571 0 863.40112704 0 12956.87328460 0 1986.16678091 0 3651.27809565 0 6583
0.07850000 0.07848650 26094.49623295 0 1001.44643460 0 14001.35455052 0 -95.12411922 0 3827.74507147 0 6549
0.07950000 0.07947320 23942.36124400 0 1282.92918988 0 13093.89681701 0 -328.73845095 0 4786.90979835 0 6828
0.08050000 0.08048110 23644.48399963 0 555.85917117 0 14118.48213114 0 1325.34016509 0 3328.32295949 0 7147
0.08150000 0.08149960 23372.34784543 0 141.16234001 0 13283.75140786 0 217.85954808 0 3893.18814003 0 7386
0.08250000 0.08250610 23648.53063389 0 -329.32746105 0 11526.50047908 0 1910.82069906 0 2983.48227637 0 7227
0.08350000 0.08350160 23749.58408396 0 -652.49279737 0 12052.90015281 0 1474.81833851 0 4213.24318829 0 7798
0.08450000 0.08449610 24129.51807867 0 -651.20461880 0 10361.08105194 0 2099.12408011 0 3514.69294861 0 7371
0.08550000 0.08548940 24641.52971946 0 -204.81702103 0 8274.38913154 0 2399.49674894 0 1955.15382555 0 8256
0.08650000 0.08650700 24447.85330737 0 390.68680120 0 8264.30626784 0 1779.73223024 0 2844.87381221 0 8037
0.08750000 0.08749060 23380.21630094 0 949.03240431 0 6550.44425088 0 262.23651310 0 86.51468001 0 8155
0.08850000 0.08849210 22684.75724021 0 1124.81819670 0 6289.90844824 0 101.93280618 0 1246.53196281 0 8718
0.08950000 0.08949900 21933.09492583 0 865.76728402 0 6597.21659857 0 -803.32659327 0 216.19705583 0 8571
0.09050000 0.09049190 21015.40820015 0 623.16931181 0 5893.11347744 0 -172.71259848 0 96.18220167 0 8932
0.09150000 0.09150830 20916.15325420 0 198.40310573 0 7141.92729235 0 481.20101714 0 -273.11971114 0 9285
0.09250000 0.09250820 20507.33078711 0 43.20636365 0 5950.30590835 0 445.26915302 0 -437.30065571 0 9204
0.09350000 0.09350330 20815.09980413 0 -9.70387393 0 6128.30161268 0 1343.85351684 0 1007.82662796 0 9349
0.09450000 0.09448040 20566.11939044 0 161.58098206 0 5786.23737028 0 692.47579202 0 812.96432721 0 9564
0.09550000 0.09549270 20425.72366281 0 219.21292243 0 5930.15142159 0 702.42938824 0 1803.98955452 0 10155
0.09650000 0.09649430 20302.18891127 0 346.27723829 0 6101.07675661 0 400.67749157 0 1910.13501937 0 9913
0.09750000 0.09749140 19634.04463182 0 669.62692128 0 5732.86676061 0 37.14731569 0 1856.75316905 0 10476
0.09850000 0.09850240 19128.21534893 0 515.82334546 0 5768.75815840 0 -58.96081009 0 1476.16721660 0 10575
0.09950000 0.09950330 18732.43203669 0 676.21281854 0 5875.58930295 0 -379.55968104 0 1052.85105446 0 10882
0.10050000 0.10051200 18275.94921050 0 375.50180612 0 6594.82233997 0 -188.52594593 0 977.80284985 0 10875
0.10150000 0.10150300 17769.55789507 0 365.31215624 0 5657.01484948 0 -307.44528627 0 -191.88128017 0 11118
0.10250000 0.10250800 17696.94329135 0 225.25814439 0 6479.74055778 0 -224.05089850 0 -199.56538901 0 11575
0.10350000 0.10349800 17321.28074392 0 319.98872842 0 5609.27580583 0 55.59749499 0 -1137.17167185 0 11364
0.10450000 0.10450100 17066.23037883 0 252.76176860 0 5498.06080749 0 906.96651708 0 -1236.48282106 0 12093
0.10550000 0.10551000 16676.85423751 0 221.54198526 0 4989.72485949 0 247.68211853 0 -906.68999707 0 12067
0.10650000 0.10649700 16868.39492597 0 180.00103642 0 5149.55567223 0 566.16235163 0 -1274.13900101 0 12054
0.10750000 0.10749900 16680.22643273 0 -126.84849537 0 4750.33272087 0 812.04821417 0 -1302.37551564 0 12807
0.10850000 0.10850100 16658.19475730 0 -69.25578488 0 4624.41495138 0 -74.74493185 0 -661.30996381 0 12736
0.10950000 0.10950300 17069.93979358 0 184.12073491 0 5159.79590505 0 -583.70338709 0 -951.14115038 0 12933
0.11050000 0.11050200 16813.65295691 0 400.52574278 0 5840.48475071 0 -721.08324813 0 -668.71755264 0 13428
0.11150000 0.11150900 16597.94486938 0 539.12521442 0 7048.86594495 0 -1342.71821112 0 -101.14281324 0 13453
0.11250000 0.11250000 16611.77086978 0 353.78486891 0 7654.48972503 0 -782.36615185 0 -112.90671627 0 13668
0.11350000 0.11349100 16029.72997493 0 150.23242108 0 7676.27410615 0 -337.98613431 0 178.93429866 0 13791
0.11450000 0.11448600 16338.73546352 0 49.23090282 0 7906.42642986 0 917.19663331 0 30.58895802 0 14205
0.11550000 0.11549300 16020.73745435 0 -53.18839872 0 7232.05482991 0 1278.62402065 0 91.78306060 0 14776
0.11650000 0.11649800 15964.87142021 0 82.63789198 0 6234.55948404 0 1835.67694893 0 -391.69396350 0 14553
0.11750000 0.11747300 15642.26474423 0 243.38256963 0 5617.79621908 0 1226.46740126 0 -242.78456701 0 14568
0.11850000 0.11849100 15390.36176135 0 399.32524128 0 4555.67837216 0 562.59456909 0 -847.35284999 0 16015
0.11950000 0.11950300 14784.49068695 0 340.05891030 0 4934.39837659 0 -120.22775209 0 -622.00253226 0 15270
0.12050000 0.12050700 14519.21132970 0 230.93692114 0 4767.91309861 0 -631.99097450 0 -572.19633294 0 15999
0.12150000 0.12150000 14483.35365387 0 141.35905140 0 4791.78824076 0 -48.26656739 0 -1134.26034331 0 15670
0.12250000 0.12250700 14600.25642147 0 63.15851870 0 4715.77896052 0 -256.78030123 0 -388.47351707 0 16887
0.12350000 0.12352200 14350.93878826 0 177.01664365 0 4482.96260258 0 243.69618378 0 -952.45293432 0 16407
0.12450000 0.12449800 14309.79800658 0 219.07016616 0 4412.60736966 0 499.45358580 0 -785.21003649 0 16306
0.12550000 0.12549900 14030.01820989 0 398.65867070 0 3977.62790832 0 268.87973768 0 -1190.03645224 0 17523
0.12650000 0.12650100 13813.29846379 0 373.79435128 0 4164.18898850 0 241.46041835 0 -551.75745772 0 17154
0.12750000 0.12750600 13444.15549379 0 242.98689872 0 3912.54454059 0 200.37921213 0 -642.09069919 0 18007
0.12850000 0.12850300 13215.40825141 0 143.13057795 0 3957.50714351 0 368.07848038 0 -366.89821205 0 17496
0.12950000 0.12949900 13092.32312591 0 162.24867672 0 3942.00628615 0 98.87208939 0 -948.52432689 0 18405
0.13050000 0.13049000 13078.83434503 0 234.54067376 0 3852.29465267 0 95.99470762 0 -527.84184922 0 18100
0.13150000 0.13148800 12684.28750437 0 237.41266002 0 3582.64268228 0 113.19560099 0 -327.63237092 0 19059
0.13250000 0.13249300 12640.33656001 0 168.30064307 0 3264.26249098 0 448.84592808 0 -739.68315290 0 18957
0.13350000 0.13349100 12486.67686452 0 78.79460109 0 3578.53984477 0 154.73205357 0 -303.02658647 0 19468
0.13450000 0.13450700 12482.18060423 0 148.54744754 0 2762.21006673 0 439.68030147 0 -898.86875229 0 19953
0.13550000 0.13551000 12191.60978283 0 140.96787675 0 3304.04315392 0 -63.01677410 0 -589.30347929 0 19956
0.13650000 0.13649900 12194.30753901 0 306.81356170 0 2932.49468465 0 -209.66061743 0 -702.54966321 0 19723
0.13750000 0.13749600 11906.32206728 0 217.73365279 0 3577.03359757 0 -87.20114655 0 -643.41934410 0 20946
0.13850000 0.13851100 11855.85154550 0 178.35090889 0 3626.67231120 0 -70.89579582 0 67.54967891 0 20955
0.13950000 0.13949800 11826.51344709 0 89.33484687 0 4145.93417171 0 184.47481541 0 257.78971167 0 20506
0.14050000 0.14048300 11807.06712133 0 40.57537694 0 3841.18888975 0 562.20002225 0 1038.20561062 0 21447
0.14150000 0.14148400 11725.68481003 0 112.45933837 0 3783.99645883 0 453.30959048 0 645.28641619 0 21771
0.14250000 0.14249400 11654.53149091 0 172.76992580 0 3782.23167666 0 243.78273679 0 1620.72198500 0 22470
0.14350000 0.14350900 11460.40545278 0 217.29414335 0 3946.03043911 0 47.15610351 0 1326.56539602 0 22519
0.14450000 0.14449900 11374.52688120 0 164.46645711 0 4428.96251647 0 19.24073426 0 1818.62488177 0 22218
0.14550000 0.14550500 11326.52930258 0 91.92446799 0 4269.91854928 0 111.94024512 0 1832.32723501 0 23559
0.14650000 0.14650700 11153.59189108 0 101.46856730 0 4460.58246698 0 133.13089506 0 1866.66742299 0 23044
0.14750000 0.14750500 11170.22805416 0 29.41307355 0 4606.81209234 0 333.63825061 0 2181.85526949 0 23649
0.14850000 0.14849900 11102.67174327 0 73.59388921 0 4272.00931031 0 285.19217002 0 1719.86452444 0 23640
0.14950000 0.14949500 11124.29875527 0 140.20913283 0 4292.78203286 0 294.43535712 0 1991.37120220 0 24457
0.15050000 0.15050000 10909.79341738 0 257.91223476 0 3991.71244369 0 1.53498954 0 1593.65449804 0 24591
0.15150000 0.15149900 10631.64351504 0 322.39422768 0 3816.60558660 0 -130.84567077 0 1385.65749691 0 25020
0.15250000 0.15250500 10319.95151092 0 316.14779807 0 3865.70474899 0 -264.41944747 0 1128.87607161 0 25297
0.15350000 0.15350100 10137.03240157 0 263.49659005 0 3560.45363774 0 -48.11751636 0 466.11943606 0 25452
0.15450000 0.15450400 9950.63993115 0 217.59426872 0 3828.26214141 0 -82.22704619 0 545.54587412 0 26061
0.15550000 0.15549900 9764.93314042 0 165.85242934 0 3511.64673227 0 -46.62318426 0 50.20209504 0 26128
0.15650000 0.15649500 9679.09953144 0 151.61277299 0 3962.93637781 0 7.17524458 0 476.18206659 0 26331
0.15750000 0.15749700 9564.78211351 0 158.39762978 0 3743.72120726 0 87.77374530 0 120.32554575 0 27345
0.15850000 0.15849900 9529.72252388 0 107.63732402 0 3907.89091118 0 332.73000603 0 837.00358286 0 26980
0.15950000 0.15949700 9286.38491685 0 118.22242000 0 3863.28800908 0 227.39386803 0 628.79300937 0 27777
0.16050000 0.16050000 9418.46256294 0 111.21095170 0 3896.39172549 0 287.55383074 0 1217.18262375 0 28224
0.16150000 0.16150500 9267.14092280 0 55.95989357 0 3557.23881163 0 350.15526279 0 939.86790177 0 28075
0.16250000 0.16249700 9193.43597596 0 20.94965039 0 3358.23433109 0 391.17014918 0 1078.73490090 0 28590
0.16350000 0.16349900 9149.84473242 0 30.49914522 0 2995.95939868 0 365.65724421 0 857.55036833 0 29163
0.16450000 0.16449100 9102.72392456 0 82.94802153 0 2923.70449578 0 409.45531572 0 770.42858078 0 28996
0.16550000 0.16550500 8943.74740127 0 173.80518973 0 2607.31389966 0 252.53245932 0 915.73984497 0 30777
0.16650000 0.16650700 8787.81709433 0 148.81385096 0 2555.94412582 0 255.51797616 0 896.08107091 0 29211
0.16750000 0.16749900 8714.43812636 0 185.58876389 0 2517.99568895 0 107.63473867 0 1227.05191510 0 30922
0.16850000 0.16850800 8568.52323922 0 98.21383688 0 2792.04275377 0 74.58059354 0 1311.30059233 0 30867
0.16950000 0.16949900 8552.82005015 0 152.73571400 0 2694.73244039 0 31.47000023 0 1734.84831187 0 30852
0.17050000 0.17049200 8515.13014825 0 103.24751269 0 2902.75192282 0 -82.60338318 0 1455.67551031 0 31257
0.17150000 0.17149500 8390.81979181 0 158.71236800 0 3143.83015905 0 -176.19944834 0 1840.60035395 0 32608
0.17250000 0.17250900 8280.52652684 0 186.29917302 0 3263.52060803 0 -186.77465255 0 1692.26872690 0 32361
0.17350000 0.17350400 8252.42490001 0 101.16023625 0 3303.26754901 0 -1.95129828 0 1781.30592134 0 32508
0.17450000 0.17449800 8210.40734758 0 -25.18085614 0 3233.66543969 0 307.16089781 0 1958.58222402 0 32791
0.17550000 0.17549800 8291.32879219 0 -132.35753829 0 3052.39870600 0 504.43769033 0 1849.68279974 0 33633
0.17650000 0.17650100 8395.10247974 0 -86.11192749 0 3054.88288981 0 561.19623214 0 2019.83252985 0 33984
0.17750000 0.17750300 8457.84779212 0 -24.88758756 0 2611.54038433 0 353.18461816 0 1989.57269808 0 34069
