### header ###
fiducial parameters:
Omega_m = 0.31
Omega_nu = 0
Omega_de = 0.69
Omega_k = 0
H_0 = 100
w_de = -1
zeff = 0
beta = 0
fgrowth = 0
b_1 = 2
gamma = 0.55
Lx = 3500 Ly = 3500 Lz = 3500
nx = 700 ny = 700 nz = 700
xoffset = 857.220397 yoffset = 15.9954215 zoffset = 262.898189
bins = 400 dk = 0.001
kx_ny = 0.628318531 ky_ny = 0.628318531 kz_ny = 0.628318531
############################
A(data) = 3.08477404 (not used)
A(ran) = 3.08618728 (used)
Ngal = 188843
weighted Ngal = 0
Nran = 9360983
weighted Nran = 0
SN(data) = 3440.48539
SN(ran) = 69.3041679
SN(data+ran) = 3509.78956
############################
13 columns: k_central k_mean P_0(k) sigma^{lin}_{P_0(k)} P^img_1(k) sigma^{lin}_{P_1(k)} P_2(k) sigma^{lin}_{P_2(k)} P^img_3(k) sigma^{lin}_{P_3(k)} P_4(k) sigma^{lin}_{P_4(k)} N_modes
### header ###
0.00050000 0 0 0 0 0 0 0 0 0 0 0 0
0.00150000 0.00179520 5802.88477402 0 -14804.94867128 0 -11519.86849515 0 23239.70816680 0 28483.58413932 0 3
0.00250000 0.00253879 14255.50566355 0 -17285.76028761 0 -4287.03806034 0 -23668.98861822 0 -20066.58487195 0 6
0.00350000 0.00331552 26970.81736394 0 -18891.37483803 0 -14678.37894405 0 5054.65085811 0 7367.95429725 0 7
0.00450000 0.00420575 42711.88742810 0 -18426.57393030 0 -9056.50236875 0 -20800.59936468 0 -7901.54798745 0 24
0.00550000 0.00557378 59554.54126389 0 -6722.15643145 0 -6773.66109310 0 -29857.19165864 0 9118.52827949 0 45
0.00650000 0.00659388 70572.40229740 0 2020.67557866 0 10720.69195013 0 -21438.61870018 0 -27581.40951165 0 40
0.00750000 0.00754703 61750.73960371 0 9587.97157597 0 4261.57798643 0 -15992.07379498 0 1330.54458638 0 57
0.00850000 0.00846663 61518.05813358 0 9982.22615970 0 28428.28013772 0 -13560.27141584 0 -27443.03710115 0 75
0.00950000 0.00948925 49198.08011940 0 7251.04028899 0 28474.70402524 0 -7389.50262470 0 -11734.34011110 0 112
0.01050000 0.01054430 41721.81091171 0 7101.51715297 0 33146.31846904 0 14800.78963051 0 -18458.27256536 0 105
0.01150000 0.01145670 45976.39721339 0 -3036.47070391 0 36285.71981170 0 5325.22456185 0 -14923.42512999 0 144
0.01250000 0.01249090 51010.85986279 0 -8367.91134562 0 41173.26715604 0 7261.70766654 0 -694.07421256 0 169
0.01350000 0.01339930 58721.72145123 0 -8970.19665244 0 24469.88498280 0 8808.35376322 0 -9121.11362916 0 180
0.01450000 0.01448870 72878.30938835 0 -9741.17040478 0 45267.33696528 0 149.99187116 0 21520.90026353 0 267
0.01550000 0.01550050 85729.63296259 0 -6206.41289461 0 59986.51947149 0 964.67714199 0 -3038.62890886 0 238
0.01650000 0.01653350 98271.95104823 0 -5496.09369362 0 58867.17547169 0 6865.38480306 0 25706.80618924 0 315
0.01750000 0.01747870 96592.37301600 0 -1553.45793102 0 60605.87932676 0 279.16380903 0 -20521.04438100 0 297
0.01850000 0.01844180 106236.62653018 0 1167.01559954 0 54968.58057866 0 8939.11625317 0 6402.98939459 0 388
0.01950000 0.01947590 101566.13615145 0 4569.81911078 0 65800.18402955 0 -8640.53084780 0 -17874.54557290 0 399
0.02050000 0.02045430 99128.15141441 0 6512.24851970 0 68191.85728559 0 268.73023703 0 -19866.05166291 0 462
0.02150000 0.02154770 93641.81460562 0 7573.36594870 0 68206.24531852 0 -9575.71926667 0 -22204.33182797 0 571
0.02250000 0.02255340 84966.39277795 0 4980.04665921 0 55853.44460421 0 8328.23184854 0 -32682.64162639 0 510
0.02350000 0.02348930 79213.31532732 0 5395.81584845 0 58018.84356103 0 4699.89592104 0 -26892.47002835 0 555
0.02450000 0.02439640 79237.25791338 0 5467.21646189 0 61260.31001232 0 13950.09718319 0 -29364.06431108 0 592
0.02550000 0.02547300 72330.32766522 0 4893.52737053 0 54773.78010150 0 15342.25177622 0 -14468.96562093 0 837
0.02650000 0.02652900 69026.92522839 0 6303.92553970 0 51101.79672720 0 16956.07200167 0 -11210.61571224 0 723
0.02750000 0.02749970 60834.28934962 0 578.26740840 0 28114.77838883 0 12159.01189571 0 -64.67342120 0 826
0.02850000 0.02848090 63941.09280516 0 1135.40688969 0 40020.42601707 0 8759.18715692 0 9069.64268946 0 831
0.02950000 0.02946900 61344.50248630 0 -3.09960944 0 38286.78045483 0 11484.79766487 0 18468.38915102 0 996
0.03050000 0.03053250 63930.07696744 0 802.91181326 0 29719.71850020 0 3585.93619295 0 20509.01688472 0 1041
0.03150000 0.03150510 60622.85270937 0 580.15021740 0 29317.75283006 0 1976.09515786 0 11674.76466222 0 1036
0.03250000 0.03246190 64922.96364651 0 2479.54142280 0 33403.72937078 0 -884.35932033 0 22939.47038578 0 1059
0.03350000 0.03345080 59329.95306229 0 786.03510025 0 34696.17939183 0 1557.92046936 0 17294.30318217 0 1302
0.03450000 0.03451200 61195.00183157 0 -14.53449861 0 35777.19277263 0 3508.43190616 0 26727.79449514 0 1339
0.03550000 0.03553350 59506.20646575 0 276.19515318 0 29944.86873435 0 8603.63903210 0 16885.93034111 0 1365
0.03650000 0.03647120 62942.92302024 0 -23.24746422 0 30807.02664541 0 12644.27078777 0 26040.20388992 0 1308
0.03750000 0.03744890 58314.24786224 0 1972.94777565 0 24249.23100895 0 6000.72022688 0 18110.26201873 0 1579
0.03850000 0.03847530 59088.27907157 0 3185.90391473 0 25970.39944888 0 7267.74389598 0 26805.01776566 0 1662
0.03950000 0.03950240 53237.96999212 0 3149.96755435 0 23450.47036801 0 254.49170474 0 18028.76730093 0 1683
0.04050000 0.04050350 52714.04326155 0 3467.48221554 0 26987.56593353 0 197.45102261 0 25379.14122043 0 1822
0.04150000 0.04152450 49990.77080895 0 1769.98658605 0 26806.81626977 0 2590.26183250 0 20735.85321647 0 1887
0.04250000 0.04250150 49077.58034357 0 1630.58003569 0 28035.08217515 0 1939.79909665 0 17329.59882546 0 1920
0.04350000 0.04349210 47333.93060217 0 96.51616140 0 23236.22356508 0 3815.41407762 0 13689.53889924 0 2005
0.04450000 0.04448520 45292.40361641 0 1532.02201008 0 21342.84835595 0 4817.52933094 0 8367.33807244 0 2151
0.04550000 0.04548030 44504.32159366 0 825.23462155 0 16235.09666379 0 3533.75709225 0 7553.52620016 0 2274
0.04650000 0.04648670 42506.85795876 0 826.40702142 0 10978.26022098 0 3408.76105613 0 2128.78815739 0 2311
0.04750000 0.04749250 41364.58303148 0 7.63297512 0 10657.21599545 0 2493.41238580 0 726.75190830 0 2568
0.04850000 0.04851840 41418.42574848 0 33.08618099 0 7138.98224186 0 -802.33516788 0 -2386.15409652 0 2493
0.04950000 0.04949480 40772.53795748 0 1455.88908268 0 6451.84126267 0 -1524.58069930 0 -4858.79375977 0 2644
0.05050000 0.05050630 40215.78852677 0 2344.28267255 0 12173.06270913 0 -3462.49136662 0 -410.57038827 0 2829
0.05150000 0.05149060 36759.40083350 0 2534.31711381 0 11515.59704787 0 -2853.24809700 0 -3564.64640046 0 2784
0.05250000 0.05249300 37265.56733592 0 2277.32211615 0 15970.37933907 0 -1119.96673184 0 -1853.70695270 0 3055
0.05350000 0.05348950 36271.10696575 0 738.52648994 0 16456.98710921 0 1509.93413139 0 -2609.22481028 0 3009
0.05450000 0.05448610 35526.63866783 0 -149.53662480 0 15643.16399629 0 477.58040354 0 -3055.08522153 0 3336
0.05550000 0.05550870 35944.22884249 0 -729.38784089 0 14039.23554349 0 1020.88714004 0 -2567.96038145 0 3349
0.05650000 0.05647670 36222.54735459 0 -400.81462751 0 12005.23979371 0 1728.60975071 0 -3756.86152796 0 3324
0.05750000 0.05747970 37374.82646102 0 -371.84859464 0 10546.85528657 0 3200.38187287 0 -2027.45369105 0 3639
0.05850000 0.05849280 37019.95911745 0 -522.24063296 0 8986.45063340 0 2144.33397735 0 -806.09404148 0 3846
0.05950000 0.05951020 38411.55167794 0 -676.35107855 0 9888.71518627 0 3207.99179342 0 2829.77761827 0 3787
0.06050000 0.06049470 37660.78861562 0 -575.97319159 0 7451.13511266 0 1789.05072969 0 -1760.11729471 0 3930
0.06150000 0.06148310 38607.25140717 0 793.91704454 0 9277.81954100 0 -360.14258097 0 2653.10831073 0 4083
0.06250000 0.06249100 38259.80289307 0 1625.44305830 0 9175.30480633 0 -2373.65449291 0 100.43566391 0 4303
0.06350000 0.06350600 35447.50448669 0 2232.56184494 0 9410.15572205 0 -2489.50063934 0 -702.16186076 0 4470
0.06450000 0.06451750 33741.96055127 0 2031.73637898 0 11236.70526258 0 -1011.37530139 0 68.85943953 0 4479
0.06550000 0.06550280 31711.22459021 0 1383.79154889 0 8068.05574672 0 -24.07039226 0 -6118.87070672 0 4636
0.06650000 0.06648880 31436.84030587 0 963.01015349 0 10013.96975737 0 2085.16319190 0 -3461.46846740 0 4653
0.06750000 0.06749660 29908.89865201 0 774.38978609 0 9302.33540024 0 813.23972315 0 -4843.03436745 0 5220
0.06850000 0.06852730 29518.73566513 0 999.24326706 0 12087.40895056 0 -1116.14715872 0 -3242.01724318 0 5029
0.06950000 0.06949320 28957.15275461 0 722.02071840 0 11347.88653896 0 -765.17245249 0 -4887.95200777 0 5040
0.07050000 0.07048030 28183.57117131 0 724.06764090 0 12872.00637158 0 -1376.09170314 0 -2021.42870226 0 5475
0.07150000 0.07148790 28011.92643464 0 301.41018090 0 11843.37442319 0 -943.61890691 0 -4650.30217001 0 5509
0.07250000 0.07249820 27804.08680263 0 -228.69103912 0 12454.41619692 0 2461.37653122 0 -3659.02290400 0 5916
0.07350000 0.07351270 27338.49904935 0 256.37901000 0 7526.05404978 0 2692.90021432 0 -6626.02638640 0 5721
0.07450000 0.07449140 27198.32813474 0 47.81727858 0 5813.21493204 0 3177.28233562 0 -8306.00908205 0 6028
0.07550000 0.07549160 26054.02989032 0 794.54764505 0 3227.29199072 0 1280.86091015 0 -8165.10752514 0 6183
0.07650000 0.07648840 25273.25429055 0 930.98104330 0 2979.80658358 0 98.32747986 0 -8188.31946889 0 6330
0.07750000 0.07749960 24059.03919858 0 602.45391658 0 1879.71781849 0 258.02351720 0 -8125.85517278 0 6583
0.07850000 0.07848650 24296.44174202 0 477.05658922 0 3514.83907707 0 -900.18952875 0 -5271.50549201 0 6549
0.07950000 0.07947320 24084.55547574 0 305.95927225 0 4573.87698569 0 -1449.40322721 0 -5184.53657731 0 6828
0.08050000 0.08048110 24357.70328851 0 282.79004296 0 6434.59810445 0 -1152.98726743 0 -2603.73937272 0 7147
0.08150000 0.08149960 24140.75872940 0 208.63771822 0 7207.90991214 0 29.32449722 0 -838.63347722 0 7386
0.08250000 0.08250610 24545.42215571 0 250.58333049 0 8314.06862862 0 -970.82352981 0 -444.02481298 0 7227
0.08350000 0.08350160 24389.06470405 0 -34.75474318 0 8426.75615220 0 1360.10749780 0 723.49099552 0 7798
0.08450000 0.08449610 23872.89402248 0 452.76441892 0 7199.73795906 0 1374.16955186 0 -13.34579980 0 7371
0.08550000 0.08548940 23401.23631781 0 615.42000720 0 7441.27706196 0 1465.72465207 0 -159.02260996 0 8256
0.08650000 0.08650700 22896.98072601 0 528.74447347 0 6869.53260318 0 1595.19446719 0 -320.35966990 0 8037
0.08750000 0.08749060 22029.98933513 0 534.27936989 0 6137.45150237 0 1315.05496967 0 281.81772667 0 8155
0.08850000 0.08849210 21437.38222860 0 541.01251968 0 5066.21748771 0 801.67758981 0 -13.90344848 0 8718
0.08950000 0.08949900 20866.01995194 0 113.09780733 0 4195.16822192 0 1043.57302134 0 -1027.19764136 0 8571
0.09050000 0.09049190 21174.12618848 0 343.59746715 0 5094.81370317 0 -87.29534320 0 -93.70993295 0 8932
0.09150000 0.09150830 20773.17217690 0 268.00296692 0 3696.70156525 0 8.29839916 0 -965.16273811 0 9285
0.09250000 0.09250820 20714.83319961 0 332.04994666 0 5579.71289440 0 -300.63907226 0 -205.49708040 0 9204
0.09350000 0.09350330 20005.66054499 0 474.86016607 0 4586.34286735 0 -401.36991565 0 -700.19362281 0 9349
0.09450000 0.09448040 20230.92318564 0 492.80586496 0 5177.79218687 0 377.87245936 0 -326.93545058 0 9564
0.09550000 0.09549270 19576.26768706 0 451.01087741 0 5824.41062017 0 -280.22829866 0 258.18313444 0 10155
0.09650000 0.09649430 19098.20281148 0 474.96245599 0 5367.50064925 0 -221.39136054 0 -349.94618669 0 9913
0.09750000 0.09749140 18986.13352369 0 411.31676748 0 6659.35491581 0 -235.18701118 0 379.47537616 0 10476
0.09850000 0.09850240 18674.31787241 0 498.51723959 0 5915.78586996 0 -1047.81074667 0 -668.55343914 0 10575
0.09950000 0.09950330 18314.61704902 0 387.92160112 0 7050.57452386 0 -525.21603321 0 -1005.77183700 0 10882
0.10050000 0.10051200 17931.42326560 0 334.91968479 0 6995.30424421 0 -796.52262738 0 -1296.33928620 0 10875
0.10150000 0.10150300 17759.10408989 0 88.03464080 0 6946.71091110 0 101.16900396 0 -2355.71441434 0 11118
0.10250000 0.10250800 17957.95120132 0 -28.34813430 0 6770.68232065 0 570.82272542 0 -1650.38606228 0 11575
0.10350000 0.10349800 17558.34606784 0 76.71519311 0 6427.38160668 0 835.81994234 0 -2875.89800822 0 11364
0.10450000 0.10450100 17827.67205935 0 223.56979865 0 6289.41385961 0 889.05903640 0 -971.45637845 0 12093
0.10550000 0.10551000 17430.42746252 0 249.80210526 0 6428.07852702 0 923.87357984 0 -1048.41324555 0 12067
0.10650000 0.10649700 17039.81484962 0 437.17026416 0 5687.76926988 0 59.98528300 0 280.35869021 0 12054
0.10750000 0.10749900 17007.77899503 0 354.57733479 0 6561.11162843 0 566.62321831 0 856.96585449 0 12807
0.10850000 0.10850100 16326.48315423 0 282.08525416 0 5462.22561296 0 565.60031909 0 373.25929630 0 12736
0.10950000 0.10950300 16477.66990656 0 360.48879301 0 5837.10131484 0 895.26724780 0 1374.50677139 0 12933
0.11050000 0.11050200 15623.71767053 0 237.74987955 0 4634.29548337 0 752.69982644 0 476.06853602 0 13428
0.11150000 0.11150900 15715.66619351 0 317.06615923 0 4837.16674777 0 1095.29013129 0 1367.30151427 0 13453
0.11250000 0.11250000 14972.20955416 0 435.32117712 0 3401.85929658 0 887.50108221 0 -359.32426159 0 13668
0.11350000 0.11349100 14853.73309545 0 330.46276678 0 3304.04315392 0 77.22866603 0 497.93272576 0 13791
0.11450000 0.11448600 14315.75555147 0 194.35534740 0 3379.06325689 0 -587.38470021 0 -759.53076989 0 14205
0.11550000 0.11549300 14466.71749079 0 247.19090210 0 3461.22117309 0 -835.02747646 0 -300.92008852 0 14776
0.11650000 0.11649800 14232.79954907 0 -97.04368514 0 3924.12241084 0 -839.46416131 0 -1112.55352269 0 14553
0.11750000 0.11747300 14527.64181775 0 111.66080254 0 4088.19094891 0 -700.56681242 0 -1121.50332880 0 14568
0.11850000 0.11849100 14473.46188122 0 74.39006451 0 4273.62796402 0 -154.54545877 0 -887.11777602 0 16015
0.11950000 0.11950300 14399.38599291 0 174.04573966 0 4549.37236710 0 -223.63049816 0 -1739.87288275 0 15270
0.12050000 0.12050700 14407.36685493 0 271.93831874 0 4679.46041801 0 322.77753387 0 -621.26177338 0 15999
0.12150000 0.12150000 14096.78767523 0 317.62819177 0 4461.25690602 0 -14.00079252 0 -1644.84442147 0 15670
0.12250000 0.12250700 13810.93792714 0 292.65371398 0 4494.15829071 0 358.86114678 0 69.07233746 0 16887
0.12350000 0.12352200 13593.76855502 0 255.50448738 0 4922.74182178 0 -70.78822279 0 -360.23587837 0 16407
0.12450000 0.12449800 13760.24259234 0 123.61231202 0 4828.72501907 0 419.75624805 0 737.35633820 0 16306
0.12550000 0.12549900 13329.72566935 0 86.36169475 0 5044.24201553 0 557.87349578 0 579.52523722 0 17523
0.12650000 0.12650100 13514.29715435 0 -86.34550822 0 4342.19593348 0 905.36472435 0 1707.70214035 0 17154
0.12750000 0.12750600 13441.57014412 0 -21.61869392 0 4845.99065859 0 1225.87164677 0 1490.51028693 0 18007
0.12850000 0.12850300 13419.31365567 0 190.94605803 0 3853.77841857 0 787.84821721 0 1189.67675142 0 17496
0.12950000 0.12949900 13168.53473786 0 111.03818290 0 3871.39251826 0 313.07910042 0 1318.69694051 0 18405
0.13050000 0.13049000 12975.30795180 0 125.61089972 0 3718.28361465 0 -171.35360381 0 1229.63726476 0 18100
0.13150000 0.13148800 13212.71049524 0 -11.57112586 0 4212.31021428 0 -542.02417825 0 1168.26331177 0 19059
0.13250000 0.13249300 13216.41990998 0 -20.91424234 0 4275.71872505 0 -653.40666228 0 382.38895283 0 18957
0.13350000 0.13349100 13468.21048635 0 179.44574827 0 4781.19954778 0 -714.03086386 0 8.73897647 0 19468
0.13450000 0.13450700 13471.91990109 0 274.98228696 0 5270.10041067 0 -751.29474510 0 623.11648075 0 19953
0.13550000 0.13551000 13083.33060532 0 364.78721785 0 5195.20395485 0 -160.18152105 0 736.32894272 0 19956
0.13650000 0.13649900 12928.09721873 0 285.51702483 0 5558.06340110 0 313.19375506 0 621.80919307 0 19723
0.13750000 0.13749600 12556.81852508 0 391.81311440 0 5187.02076112 0 781.95024778 0 -45.59016845 0 20946
0.13850000 0.13851100 12154.74044844 0 457.71142931 0 4601.11308242 0 415.96477656 0 -109.16054460 0 20955
0.13950000 0.13949800 11502.55789302 0 368.60117064 0 4302.62884290 0 668.16226449 0 -707.25275147 0 20506
0.14050000 0.14048300 11289.21034215 0 232.68371826 0 3698.85977019 0 -21.20110375 0 -525.06540849 0 21447
0.14150000 0.14148400 11154.77215941 0 2.60443629 0 3386.92047175 0 492.44953633 0 -1194.30789952 0 21771
0.14250000 0.14249400 11159.61687987 0 -65.66001311 0 3095.95622758 0 283.17447322 0 -1179.75125682 0 22470
0.14350000 0.14350900 11015.39933099 0 44.78320214 0 2903.57249032 0 511.60697737 0 -1268.49619434 0 22519
0.14450000 0.14449900 11001.42720213 0 152.73908620 0 2804.37374762 0 271.62582865 0 -801.02338394 0 22218
0.14550000 0.14550500 10845.72170821 0 219.02295543 0 3261.35116244 0 164.02020327 0 -581.64297581 0 23559
0.14650000 0.14650700 10817.31658381 0 232.96136233 0 3089.96496074 0 -101.54736426 0 -114.25334623 0 23044
0.14750000 0.14750500 10452.11908221 0 170.97366981 0 3261.74458521 0 -129.72947415 0 127.20032774 0 23649
0.14850000 0.14849900 10431.75102309 0 61.06753285 0 3335.50573531 0 -26.60594584 0 -114.80188998 0 23640
0.14950000 0.14949500 10441.78892419 0 131.95287487 0 3246.05263679 0 -55.79285750 0 26.89831517 0 24457
0.15050000 0.15050000 10302.66339009 0 146.69274017 0 3058.00779072 0 19.14282819 0 -525.36778200 0 24591
0.15150000 0.15149900 10149.62193039 0 104.37776012 0 3060.45825257 0 155.91794222 0 -30.63751763 0 25020
0.15250000 0.15250500 10063.26001082 0 157.56806975 0 2784.54523973 0 -26.93226193 0 -683.89917551 0 25297
0.15350000 0.15350100 10047.12967703 0 122.23645637 0 2944.72451265 0 309.79570634 0 -472.50637380 0 25452
0.15450000 0.15450400 9967.60207310 0 90.22364512 0 2682.10918962 0 -138.11387553 0 -533.40821946 0 26061
0.15550000 0.15549900 9955.14743209 0 161.65067410 0 3030.14221755 0 48.95899148 0 -108.89088139 0 26128
0.15650000 0.15649500 9795.96857709 0 115.13236511 0 3034.14388921 0 114.37811745 0 -361.24304067 0 26331
0.15750000 0.15749700 9729.25531500 0 50.73883612 0 2910.32812141 0 344.72153223 0 50.21131238 0 27345
0.15850000 0.15849900 9711.25903318 0 -3.57468430 0 2912.44136375 0 538.66996807 0 198.33790995 0 26980
0.15950000 0.15949700 9721.51050665 0 23.39280583 0 2473.58387791 0 426.16229490 0 -42.95996859 0 27777
0.16050000 0.16050000 9655.78642183 0 60.21122008 0 2413.39019325 0 252.40319184 0 84.91120118 0 28224
0.16150000 0.16150500 9543.39115517 0 123.54149592 0 2261.19178235 0 -12.39618963 0 -157.17239885 0 28075
0.16250000 0.16249700 9456.34355591 0 218.85996599 0 2128.12495899 0 -374.30130463 0 -233.49416918 0 28590
0.16350000 0.16349900 9310.75464764 0 170.34306931 0 2272.72469000 0 -514.44636574 0 -708.21944744 0 29163
0.16450000 0.16449100 9216.81652948 0 200.49723896 0 2327.95000704 0 -463.97584396 0 -651.29566807 0 28996
0.16550000 0.16550500 9116.87590383 0 103.21019373 0 2407.34272315 0 -11.11123712 0 -889.24900339 0 30777
0.16650000 0.16650700 8996.58970036 0 131.99558934 0 2458.16170511 0 260.01198832 0 -730.22976563 0 29211
0.16750000 0.16749900 8831.23972810 0 151.01139818 0 2257.19011069 0 546.80707513 0 -755.70108019 0 30922
0.16850000 0.16850800 8672.13955766 0 206.46827263 0 2278.81712269 0 497.32348249 0 -619.96235416 0 30867
0.16950000 0.16949900 8463.80533701 0 226.76439159 0 2101.73191108 0 267.87369944 0 -68.66149167 0 30852
0.17050000 0.17049200 8327.83842577 0 199.21805291 0 2357.89510059 0 -71.46322387 0 9.94824567 0 31257
0.17150000 0.17149500 8223.91860976 0 98.91064482 0 2440.53636476 0 -73.95505132 0 483.64248648 0 32608
0.17250000 0.17250900 8216.61218678 0 -15.37102784 0 2609.02247857 0 -132.42723033 0 946.46054342 0 32361
0.17350000 0.17350400 8354.46752735 0 -22.78221368 0 2722.29451598 0 -101.11088980 0 652.01956598 0 32508
0.17450000 0.17449800 8411.85104933 0 -39.75908089 0 2691.92227771 0 87.55578908 0 737.54293300 0 32791
0.17550000 0.17549800 8424.80027897 0 75.90238165 0 2753.91446649 0 -116.40031051 0 243.56242004 0 33633
0.17650000 0.17650100 8428.55465632 0 24.63073869 0 2620.91508704 0 185.72589983 0 606.32182449 0 33984
0.17750000 0.17750300 8302.88418115 0 90.68068998 0 2549.95285898 0 180.97897303 0 567.85856582 0 34069
