### header ###
fiducial parameters:
Omega_m = 0.31
Omega_nu = 0
Omega_de = 0.69
Omega_k = 0
H_0 = 100
w_de = -1
zeff = 0
beta = 0
fgrowth = 0
b_1 = 2
gamma = 0.55
Lx = 3500 Ly = 3500 Lz = 3500
nx = 700 ny = 700 nz = 700
xoffset = 857.220397 yoffset = 15.9954215 zoffset = 262.898189
bins = 400 dk = 0.001
kx_ny = 0.628318531 ky_ny = 0.628318531 kz_ny = 0.628318531
############################
A(data) = 3.10872877 (not used)
A(ran) = 3.10948096 (used)
Ngal = 189724
weighted Ngal = 0
Nran = 9360983
weighted Nran = 0
SN(data) = 3438.27604
SN(ran) = 69.8272564
SN(data+ran) = 3508.1033
############################
13 columns: k_central k_mean P_0(k) sigma^{lin}_{P_0(k)} P^img_1(k) sigma^{lin}_{P_1(k)} P_2(k) sigma^{lin}_{P_2(k)} P^img_3(k) sigma^{lin}_{P_3(k)} P_4(k) sigma^{lin}_{P_4(k)} N_modes
### header ###
0.00050000 0 0 0 0 0 0 0 0 0 0 0 0
0.00150000 0.00179520 32739.18209956 0 -38218.77451791 0 -33564.58308274 0 88958.95951109 0 -31194.49187611 0 3
0.00250000 0.00253879 61722.97519641 0 -42036.43672567 0 11345.07637628 0 -57523.13086379 0 19669.78990115 0 6
0.00350000 0.00331552 81143.44746434 0 -27277.01268985 0 -24315.10122224 0 12270.40674446 0 28555.74911701 0 7
0.00450000 0.00420575 98085.35624609 0 -11119.48775676 0 634.18514953 0 -32542.47071177 0 11283.36520377 0 24
0.00550000 0.00557378 105216.53747634 0 1609.44761231 0 -5565.24617691 0 -18374.64212392 0 11990.73935427 0 45
0.00650000 0.00659388 98427.74646736 0 5610.72584977 0 41868.05177772 0 459.91909311 0 600.82177409 0 40
0.00750000 0.00754703 97260.85451497 0 5786.57458981 0 -3856.44245279 0 3716.90101461 0 -200.90302645 0 57
0.00850000 0.00846663 93754.44592595 0 5786.32729549 0 17440.65645468 0 3286.30540706 0 -13169.54639643 0 75
0.00950000 0.00948925 88699.30047921 0 5719.74892121 0 -976.25276412 0 -8798.59687838 0 -5926.82418898 0 112
0.01050000 0.01054430 78687.70249914 0 9754.59174175 0 7767.27841446 0 -6288.45840429 0 -26484.43440681 0 105
0.01150000 0.01145670 71141.51644391 0 8937.09293604 0 -6005.51998475 0 -5134.39203439 0 -22803.23369892 0 144
0.01250000 0.01249090 61202.42066106 0 5606.97147243 0 -1727.63181410 0 -7670.17043280 0 -22203.65738893 0 169
0.01350000 0.01339930 55204.29702449 0 6373.52764903 0 2813.93954139 0 -10831.17630616 0 -19535.35171840 0 180
0.01450000 0.01448870 56211.23451697 0 -5936.69348032 0 -907.09128830 0 6309.15244229 0 -10906.25261239 0 267
0.01550000 0.01550050 70130.53231716 0 -6552.45632736 0 -7570.40965756 0 -2879.86595793 0 -11658.80293818 0 238
0.01650000 0.01653350 73431.46181082 0 -6076.22367784 0 9382.94210663 0 490.87696929 0 7004.03822983 0 315
0.01750000 0.01747870 71074.29735254 0 794.84215010 0 25493.57104487 0 7291.04576494 0 13432.80243655 0 297
0.01850000 0.01844180 80615.36169300 0 3508.66795982 0 27546.90071390 0 -1877.33480054 0 23683.03943163 0 388
0.01950000 0.01947590 77608.71243547 0 7056.56579070 0 47374.50935131 0 4785.20121944 0 44042.55566163 0 399
0.02050000 0.02045430 74292.27084380 0 7263.60733651 0 52939.64312172 0 7493.44492201 0 44289.73757121 0 462
0.02150000 0.02154770 71254.82220327 0 -70.89647026 0 53246.06326065 0 19120.45929992 0 48155.50976410 0 571
0.02250000 0.02255340 70566.66956552 0 1607.84019926 0 50090.13816141 0 17256.53459571 0 43792.56358938 0 510
0.02350000 0.02348930 73630.42132876 0 -2672.07128852 0 39782.34903459 0 23267.80979363 0 36890.80404055 0 555
0.02450000 0.02439640 67865.09156884 0 530.11583286 0 38103.33303490 0 14281.69637975 0 31176.95646097 0 592
0.02550000 0.02547300 70554.08003670 0 4262.11753767 0 26708.79779540 0 4719.67946633 0 27285.89280393 0 837
0.02650000 0.02652900 64093.51602907 0 4120.81131733 0 21315.98320070 0 5668.77257015 0 24759.44414563 0 723
0.02750000 0.02749970 63307.68213646 0 6644.25872188 0 32266.40032982 0 -17.88151478 0 31173.80907877 0 826
0.02850000 0.02848090 57802.79825398 0 3867.57069701 0 27132.57032796 0 2871.21065687 0 17801.48134315 0 831
0.02950000 0.02946900 53868.57049813 0 3907.82346728 0 35395.12305428 0 1970.69964551 0 22622.25922215 0 996
0.03050000 0.03053250 54584.26273017 0 2577.79595084 0 36281.67317743 0 3893.21062133 0 17541.03546571 0 1041
0.03150000 0.03150510 49877.68986260 0 2381.45550452 0 38925.47422936 0 -1142.07259557 0 19243.76923844 0 1036
0.03250000 0.03246190 51566.14800890 0 2224.81703658 0 35381.52186690 0 5067.81366012 0 16635.93826885 0 1059
0.03350000 0.03345080 45819.14050967 0 -835.17248086 0 29269.98006446 0 6088.35233998 0 5427.27842984 0 1302
0.03450000 0.03451200 47518.95171321 0 399.75913040 0 22171.39672133 0 5242.87555460 0 4009.16917427 0 1339
0.03550000 0.03553350 46407.36376242 0 -458.37237957 0 15627.98911780 0 5655.46363968 0 -7033.97208273 0 1365
0.03650000 0.03647120 44374.71689073 0 197.82983254 0 8834.10609404 0 3084.43456058 0 -4500.34064861 0 1308
0.03750000 0.03744890 44035.36164517 0 631.97186540 0 7752.80045632 0 -1694.82035462 0 -10081.64971542 0 1579
0.03850000 0.03847530 44348.86339405 0 512.98170895 0 8353.77060700 0 -2034.87252053 0 -7592.11535412 0 1662
0.03950000 0.03950240 44879.19729554 0 -455.19015135 0 11539.87685345 0 -1321.58578774 0 -6484.09068962 0 1683
0.04050000 0.04050350 44585.36668543 0 -934.16889184 0 11451.75015172 0 1942.31700241 0 -2682.51385305 0 1822
0.04150000 0.04152450 45940.08991153 0 -407.15547858 0 14899.14532441 0 1635.32359030 0 4173.74354162 0 1887
0.04250000 0.04250150 45152.56992132 0 527.42706921 0 13337.14449883 0 5479.15403297 0 1227.40037527 0 1920
0.04350000 0.04349210 46116.34331499 0 1583.49294978 0 19061.89550961 0 4761.44972444 0 9602.53945931 0 2005
0.04450000 0.04448520 42695.92570406 0 2418.45972672 0 12618.41729109 0 4125.58859389 0 10356.25881278 0 2151
0.04550000 0.04548030 40442.40004551 0 2040.71765891 0 13448.53934757 0 4185.61366879 0 14345.09364988 0 2274
0.04650000 0.04648670 39306.64469565 0 1645.37273205 0 12350.10295814 0 1588.76481497 0 14021.02568930 0 2311
0.04750000 0.04749250 37566.36714948 0 1123.00170754 0 10568.71835224 0 255.15153094 0 14530.90160646 0 2568
0.04850000 0.04851840 38516.08972974 0 -253.65652440 0 12161.82205840 0 -887.55840952 0 13245.75800839 0 2493
0.04950000 0.04949480 37431.70415372 0 117.96500910 0 10833.78413713 0 473.06053788 0 11402.06647549 0 2644
0.05050000 0.05050630 38625.91088738 0 -309.36743755 0 10940.96374185 0 1997.28378449 0 11039.12834469 0 2829
0.05150000 0.05149060 36236.37335499 0 270.06450227 0 6858.41559961 0 20.78025379 0 9225.28073948 0 2784
0.05250000 0.05249300 38291.50152814 0 381.70102500 0 10140.21350573 0 1390.45725477 0 5558.81652470 0 3055
0.05350000 0.05348950 37007.70680815 0 -3.68530355 0 6302.54293966 0 -667.20568511 0 1689.43608292 0 3009
0.05450000 0.05448610 36783.00620004 0 597.20453269 0 8350.19608007 0 -622.12617942 0 3705.89641755 0 3336
0.05550000 0.05550870 36867.42348703 0 63.01767335 0 8440.81820627 0 -2632.67280771 0 2319.63192550 0 3349
0.05650000 0.05647670 36012.34718592 0 660.34101971 0 9859.90539845 0 -1269.17063339 0 3284.96776962 0 3324
0.05750000 0.05747970 35872.85071035 0 1458.17093478 0 10212.07498585 0 -280.40140468 0 2541.34252052 0 3639
0.05850000 0.05849280 35016.42553115 0 1573.01666329 0 13365.02131264 0 -40.25074695 0 3032.46903225 0 3846
0.05950000 0.05951020 34114.36330999 0 1211.02274715 0 13907.83233644 0 970.00745857 0 5390.31917024 0 3787
0.06050000 0.06049470 34149.99617281 0 694.59915095 0 13752.26173032 0 912.61494407 0 2725.19460387 0 3930
0.06150000 0.06148310 32563.26591562 0 425.91050433 0 11475.46792476 0 748.98591544 0 2876.88718549 0 4083
0.06250000 0.06249100 33171.27271366 0 376.46737802 0 13038.93003494 0 1066.53542266 0 4032.81950341 0 4303
0.06350000 0.06350600 32250.88823181 0 350.75663761 0 11690.61397975 0 108.73890779 0 1618.15911663 0 4470
0.06450000 0.06451750 32206.48766142 0 162.71965998 0 12559.06665523 0 -595.98492208 0 4062.01147336 0 4479
0.06550000 0.06550280 32639.14030806 0 127.32397490 0 11713.43250074 0 484.82612700 0 1281.50162724 0 4636
0.06650000 0.06648880 32192.21203499 0 592.01584831 0 12909.32533201 0 -121.15173358 0 939.99941738 0 4653
0.06750000 0.06749660 31951.54970284 0 693.99890020 0 11850.79325267 0 -42.07870157 0 605.88343912 0 5220
0.06850000 0.06852730 31001.82712258 0 942.62298526 0 13307.69399391 0 317.02344476 0 501.31391350 0 5029
0.06950000 0.06949320 30603.34605417 0 737.60363251 0 10293.86196057 0 803.68629409 0 -760.33560049 0 5040
0.07050000 0.07048030 29555.15537350 0 817.36054571 0 11772.67073009 0 1574.90509262 0 724.35202937 0 5475
0.07150000 0.07148790 28660.73679484 0 724.60831620 0 8978.67210309 0 654.18901157 0 222.95943131 0 5509
0.07250000 0.07249820 28475.82809031 0 589.08990692 0 10351.23424190 0 0.02238441 0 992.26956734 0 5916
0.07350000 0.07351270 28227.29730265 0 874.22474963 0 11767.50003075 0 -1068.90607590 0 1560.02247105 0 5721
0.07450000 0.07449140 27538.69503887 0 414.76539913 0 12582.33480224 0 -1787.70185161 0 1835.38469201 0 6028
0.07550000 0.07549160 27374.24431868 0 450.41849512 0 13428.75580229 0 -402.07582852 0 2239.32871668 0 6183
0.07650000 0.07648840 27350.07691960 0 56.01115093 0 14355.99708109 0 943.48514317 0 2157.21576309 0 6330
0.07750000 0.07749960 27274.42734018 0 -212.24933930 0 12802.98877609 0 2536.37415289 0 329.54328155 0 6583
0.07850000 0.07848650 27055.90908997 0 116.61275881 0 12746.67311593 0 2145.54796763 0 32.76402394 0 6549
0.07950000 0.07947320 26554.01403483 0 601.56253298 0 8562.74554474 0 1579.55872202 0 -991.39729285 0 6828
0.08050000 0.08048110 25203.44984951 0 778.73542167 0 9362.09069953 0 1148.63713560 0 -2261.27046690 0 7147
0.08150000 0.08149960 25035.51452759 0 1025.12598943 0 7296.13777973 0 484.82275481 0 -1613.73030024 0 7386
0.08250000 0.08250610 23980.01742395 0 385.45652641 0 7952.46813526 0 1384.80320746 0 -2061.50162211 0 7227
0.08350000 0.08350160 23736.54492911 0 315.98256050 0 6691.67178667 0 -743.76238505 0 -1868.76942468 0 7798
0.08450000 0.08449610 23748.23520587 0 329.69165814 0 8206.13590030 0 38.31195951 0 -564.55156638 0 7371
0.08550000 0.08548940 23766.66987307 0 452.25296932 0 8994.24040435 0 -1116.87330476 0 -1337.34518007 0 8256
0.08650000 0.08650700 23187.77636043 0 553.48289760 0 9717.43015043 0 -1680.60093144 0 -790.28294216 0 8037
0.08750000 0.08749060 23059.85775511 0 466.89616502 0 11794.70240552 0 -1659.97433735 0 -988.62310025 0 8155
0.08850000 0.08849210 23046.14416121 0 318.74326432 0 10856.70382397 0 -441.97789048 0 -1536.61943623 0 8718
0.08950000 0.08949900 22784.01218617 0 168.58053527 0 12366.73912122 0 86.00907554 0 -1707.30871758 0 8571
0.09050000 0.09049190 22485.23568974 0 211.78622449 0 11592.93272490 0 1305.38801004 0 -1514.59900145 0 8932
0.09150000 0.09150830 22276.27199265 0 279.47967132 0 10837.12261040 0 2143.06378382 0 -1242.65393831 0 9285
0.09250000 0.09250820 21697.04126048 0 577.79305294 0 9123.48540646 0 2058.54533097 0 -1830.62989675 0 9204
0.09350000 0.09350330 20997.64797200 0 549.14513049 0 8257.06728877 0 2712.76244416 0 -249.02874849 0 9349
0.09450000 0.09448040 20078.16274220 0 692.32291917 0 6784.47459910 0 1971.40780650 0 -64.61665591 0 9564
0.09550000 0.09549270 19745.66429358 0 439.46785317 0 6561.74110487 0 1781.72182542 0 1633.81734310 0 10155
0.09650000 0.09649430 19024.12692316 0 539.84911233 0 5270.53879605 0 1045.42548059 0 1936.05595995 0 9913
0.09750000 0.09749140 18702.08227972 0 581.70817159 0 5711.26222991 0 668.38258125 0 2358.69318679 0 10476
0.09850000 0.09850240 18019.21274781 0 460.96110144 0 4882.55649542 0 583.66741701 0 4015.65502974 0 10575
0.09950000 0.09950330 17649.62015177 0 291.71511964 0 5499.84807096 0 147.36155889 0 3405.97337474 0 10882
0.10050000 0.10051200 17529.23278244 0 208.39042390 0 4898.51821946 0 -46.20559408 0 2894.04041850 0 10875
0.10150000 0.10150300 17480.33595176 0 330.48524808 0 6052.42722025 0 -657.96137395 0 2537.79047489 0 11118
0.10250000 0.10250800 17153.79504803 0 382.64861186 0 5294.62751057 0 -652.63218144 0 2519.98528413 0 11575
0.10350000 0.10349800 16889.86456887 0 196.42812339 0 5546.99136013 0 -349.09864162 0 1599.66824618 0 11364
0.10450000 0.10450100 16780.49303725 0 141.60859384 0 5989.70438917 0 -439.09241544 0 1389.60296532 0 12093
0.10550000 0.10551000 17036.77987392 0 127.74437523 0 5598.47354047 0 349.09639349 0 446.76415956 0 12067
0.10650000 0.10649700 16901.21762610 0 4.24767330 0 6060.29567576 0 628.03426545 0 1006.02025538 0 12054
0.10750000 0.10749900 16875.58894244 0 -154.49937210 0 5353.03393176 0 437.15227912 0 623.31206807 0 12807
0.10850000 0.10850100 17150.53525932 0 -1.83010159 0 6425.61682451 0 300.44685713 0 1396.41479966 0 12736
0.10950000 0.10950300 17172.56693475 0 19.11899802 0 6198.71304886 0 258.63950486 0 787.09059736 0 12933
0.11050000 0.11050200 17189.65272386 0 298.66633805 0 7155.49475778 0 119.59265532 0 2360.31184049 0 13428
0.11150000 0.11150900 16876.26338148 0 508.52479094 0 6414.21880467 0 242.82503335 0 2170.42352769 0 13453
0.11250000 0.11250000 16572.65340524 0 258.62151982 0 6951.62307547 0 637.47191580 0 2470.06555423 0 13668
0.11350000 0.11349100 16022.87317798 0 278.64786317 0 6012.89385162 0 643.82737972 0 2021.64227462 0 13791
0.11450000 0.11448600 16114.25966843 0 115.01096608 0 6146.23045060 0 940.53334829 0 2103.94631927 0 14205
0.11550000 0.11549300 15701.16575406 0 125.74691160 0 5170.72181756 0 579.01266354 0 1191.44153358 0 14776
0.11650000 0.11649800 15791.54058594 0 228.20094675 0 4569.53809451 0 326.46334325 0 1291.07866166 0 14553
0.11750000 0.11747300 15168.92094195 0 72.61258041 0 4238.52341179 0 467.78305237 0 1598.87015998 0 14568
0.11850000 0.11849100 15402.61407065 0 214.20746066 0 3529.51936693 0 603.53526718 0 1103.03606371 0 16015
0.11950000 0.11950300 15172.40554368 0 177.31227276 0 2996.29661820 0 785.22240120 0 871.29318792 0 15270
0.12050000 0.12050700 14512.57934577 0 432.71334615 0 2583.68605182 0 108.12415660 0 596.25806990 0 15999
0.12150000 0.12150000 14305.07693327 0 501.41395529 0 2535.72219515 0 -156.80932583 0 633.53206772 0 15670
0.12250000 0.12250700 13833.30682209 0 422.24267999 0 2715.68501335 0 -260.79433761 0 941.74284231 0 16887
0.12350000 0.12352200 13501.14559299 0 280.40814907 0 2895.58038765 0 -431.59040514 0 511.24502842 0 16407
0.12450000 0.12449800 13347.14867798 0 11.53009749 0 3343.53155993 0 -412.71060817 0 718.56309424 0 16306
0.12550000 0.12549900 13530.25887839 0 49.71402599 0 3705.94138015 0 -487.69474107 0 452.98698381 0 17523
0.12650000 0.12650100 13504.51778821 0 200.16901196 0 3744.36192435 0 -102.51147488 0 580.40088391 0 17154
0.12750000 0.12750600 13285.43750547 0 262.94467409 0 3906.08116642 0 -154.00253534 0 742.31571330 0 18007
0.12850000 0.12850300 13246.43244743 0 245.40026643 0 3887.24183579 0 111.39372468 0 206.05574075 0 17496
0.12950000 0.12949900 12914.04640531 0 183.06074154 0 3860.20807078 0 174.12892047 0 -176.01622573 0 18405
0.13050000 0.13049000 12880.77407915 0 195.37599849 0 3467.58338140 0 -113.41816588 0 -576.98709828 0 18100
0.13150000 0.13148800 12653.03849534 0 102.14345597 0 3590.70222886 0 50.70994764 0 -398.64180972 0 19059
0.13250000 0.13249300 12621.22745377 0 109.22911257 0 3858.63437968 0 -96.27954571 0 -734.63834885 0 18957
0.13350000 0.13349100 12729.02529428 0 -2.27729963 0 3745.33986096 0 48.44720465 0 -875.73886528 0 19468
0.13450000 0.13450700 12630.21997436 0 27.16100917 0 3917.42298300 0 16.01039606 0 -236.86186814 0 19953
0.13550000 0.13551000 12754.87879096 0 67.89993759 0 3920.45795870 0 25.77616100 0 -4.96961534 0 19956
0.13650000 0.13649900 12617.06841300 0 184.10050174 0 4108.19930721 0 264.05075413 0 126.45057633 0 19723
0.13750000 0.13749600 12597.17246121 0 250.47766837 0 4102.64642575 0 195.55584890 0 137.54509860 0 20946
0.13850000 0.13851100 12319.19116863 0 226.44178491 0 3811.94071654 0 392.45607962 0 -163.01866129 0 20955
0.13950000 0.13949800 12114.83613834 0 162.73764502 0 4013.19332723 0 378.22541580 0 294.51066948 0 20506
0.14050000 0.14048300 11936.33460473 0 130.14875042 0 3381.85093828 0 701.07264170 0 229.27892516 0 21447
0.14150000 0.14148400 11941.05567804 0 -80.57882958 0 3074.11564321 0 671.77276151 0 92.38522226 0 21771
0.14250000 0.14249400 11862.48352943 0 -23.81624114 0 2399.80024651 0 597.83625726 0 13.60242386 0 22470
0.14350000 0.14350900 11972.19228056 0 52.87557141 0 2428.49762783 0 143.19577373 0 70.55722742 0 22519
0.14450000 0.14449900 11632.16259595 0 180.23933821 0 2052.94748691 0 -204.10548784 0 12.41619798 0 22218
0.14550000 0.14550500 11708.71142743 0 327.56829921 0 2580.88712979 0 -582.58044609 0 1.71797610 0 23559
0.14650000 0.14650700 11250.09287761 0 298.66296586 0 2539.58897900 0 -709.13106421 0 -493.74895555 0 23044
0.14750000 0.14750500 11370.14302741 0 292.18273071 0 3222.59339872 0 -595.07218124 0 -559.50563827 0 23649
0.14850000 0.14849900 10981.35139993 0 139.94385347 0 3280.44902803 0 -477.90863054 0 -840.69276443 0 23640
0.14950000 0.14949500 11131.91991647 0 216.58373422 0 3646.20856217 0 -307.86568661 0 -801.37521630 0 24457
0.15050000 0.15050000 11015.43305294 0 121.66093506 0 4031.89777005 0 138.29372594 0 -1009.62962833 0 24591
0.15150000 0.15149900 10727.50378447 0 147.89773793 0 4154.81428579 0 -5.05390898 0 -1085.40735117 0 25020
0.15250000 0.15250500 10916.27927285 0 81.71739509 0 4257.29529851 0 254.01847335 0 -771.15247868 0 25297
0.15350000 0.15350100 10698.73895925 0 22.39025219 0 4086.80834887 0 307.02376187 0 -639.16925406 0 25452
0.15450000 0.15450400 10811.07802266 0 -8.60915819 0 3873.44955734 0 380.44094806 0 -127.53529913 0 26061
0.15550000 0.15549900 10707.75396114 0 -18.84809833 0 3505.81283454 0 598.35445126 0 16.13078343 0 26128
0.15650000 0.15649500 10623.39287740 0 166.13456967 0 3285.23754524 0 471.53630564 0 -200.89066173 0 26331
0.15750000 0.15749700 10450.61283501 0 223.00889018 0 2812.35460964 0 337.21839786 0 -360.94066717 0 27345
0.15850000 0.15849900 10057.22378138 0 332.32421854 0 2895.45674049 0 147.90897858 0 -95.10883193 0 26980
0.15950000 0.15949700 9839.11019460 0 400.64152148 0 2680.72658958 0 -237.73077044 0 -148.01576476 0 27777
0.16050000 0.16050000 9343.28509085 0 376.56179949 0 2884.17112716 0 7.62777070 0 -103.64554413 0 28224
0.16150000 0.16150500 9168.75150695 0 339.89142461 0 3132.73563678 0 -313.29492091 0 32.25223711 0 28075
0.16250000 0.16249700 9004.54808108 0 164.98015484 0 3039.68553002 0 282.69899369 0 -6.51248457 0 28590
0.16350000 0.16349900 8941.26321746 0 -42.78798663 0 3259.23792010 0 36.38104053 0 377.83086896 0 29163
0.16450000 0.16449100 9084.03072239 0 -76.47037174 0 3158.81394647 0 313.24883425 0 91.07208944 0 28996
0.16550000 0.16550500 9146.32640875 0 -35.15434832 0 3162.14117909 0 122.52309297 0 222.80655846 0 30777
0.16650000 0.16650700 9159.63533921 0 142.19085955 0 3409.25564476 0 -159.90837323 0 277.81830314 0 29211
0.16750000 0.16749900 8956.12335773 0 274.90247834 0 3168.76192237 0 -124.00236260 0 596.25132550 0 30922
0.16850000 0.16850800 8812.24302837 0 219.78169935 0 3598.51448112 0 114.85247291 0 896.54530978 0 30867
0.16950000 0.16949900 8618.18443415 0 235.02177361 0 3399.90342335 0 173.38816159 0 970.38851663 0 30852
0.17050000 0.17049200 8467.06512572 0 96.76098278 0 3292.27419260 0 479.97466215 0 888.14741962 0 31257
0.17150000 0.17149500 8290.54194664 0 86.73735730 0 3030.26586471 0 477.50621525 0 650.45486739 0 32608
0.17250000 0.17250900 8225.37989435 0 49.92838520 0 2514.05022054 0 322.01204556 0 555.07344968 0 32361
0.17350000 0.17350400 8196.12048050 0 39.58541283 0 2506.10308047 0 55.73148354 0 136.17598735 0 32508
0.17450000 0.17449800 8142.50257652 0 81.22629106 0 2163.29695513 0 -190.21991200 0 -202.64869951 0 32791
0.17550000 0.17549800 8075.36216970 0 -13.75023841 0 2230.56100911 0 -82.87462008 0 -339.16190638 0 33633
0.17650000 0.17650100 8131.91388353 0 -35.04643807 0 2167.77073412 0 122.45227687 0 -129.25961495 0 33984
0.17750000 0.17750300 8293.03737110 0 7.96674376 0 2308.44747802 0 18.94701606 0 23.56950886 0 34069
0.17850000 0.17849800 8262.69885478 0 -7.52386212 0 2263.90077917 0 247.87995398 0 -80.11223017 0 34536
