### header ###
fiducial parameters:
Omega_m = 0.31
Omega_nu = 0
Omega_de = 0.69
Omega_k = 0
H_0 = 100
w_de = -1
zeff = 0
beta = 0
fgrowth = 0
b_1 = 2
gamma = 0.55
Lx = 3500 Ly = 3500 Lz = 3500
nx = 700 ny = 700 nz = 700
xoffset = 857.220397 yoffset = 15.9954215 zoffset = 262.898189
bins = 400 dk = 0.001
kx_ny = 0.628318531 ky_ny = 0.628318531 kz_ny = 0.628318531
############################
A(data) = 3.0478146 (not used)
A(ran) = 3.04887776 (used)
Ngal = 186173
weighted Ngal = 0
Nran = 9360983
weighted Nran = 0
SN(data) = 3435.33313
SN(ran) = 68.4663363
SN(data+ran) = 3503.79947
############################
13 columns: k_central k_mean P_0(k) sigma^{lin}_{P_0(k)} P^img_1(k) sigma^{lin}_{P_1(k)} P_2(k) sigma^{lin}_{P_2(k)} P^img_3(k) sigma^{lin}_{P_3(k)} P_4(k) sigma^{lin}_{P_4(k)} N_modes
### header ###
0.00050000 0 0 0 0 0 0 0 0 0 0 0 0
0.00150000 0.00179520 9697.37682953 0 -22581.23084698 0 -21315.87079419 0 31643.55587281 0 10258.48763272 0 3
0.00250000 0.00253879 18860.23823550 0 -24846.33437578 0 -16797.57882636 0 -21474.25156299 0 -3585.19431000 0 6
0.00350000 0.00331552 35722.33839706 0 -27922.11363530 0 -36911.93646392 0 419.17061015 0 -36391.04470905 0 7
0.00450000 0.00420575 51347.51735218 0 -28790.45390427 0 -42228.08982064 0 -15277.05600198 0 -5389.50984339 0 24
0.00550000 0.00557378 74480.66415005 0 -9667.72399290 0 -51648.65438527 0 -49968.28950749 0 -24865.66829504 0 45
0.00650000 0.00659388 82717.25097319 0 -8254.58310495 0 -26500.95816338 0 -70889.61346102 0 785.94967131 0 40
0.00750000 0.00754703 77109.06551048 0 10511.13249855 0 -21149.39675687 0 -70953.90998321 0 613.67433414 0 57
0.00850000 0.00846663 74673.66612311 0 6332.25197954 0 -17975.14939694 0 -45904.45704871 0 -5834.42603997 0 75
0.00950000 0.00948925 72543.90002910 0 -9603.49491463 0 -11893.73253846 0 -7556.95459864 0 -8858.40838092 0 112
0.01050000 0.01054430 85646.67696019 0 -8249.25503651 0 -2338.13403660 0 1008.20431382 0 -21430.75024466 0 105
0.01150000 0.01145670 93528.39643975 0 -7704.61178664 0 -14485.93900354 0 7360.14204499 0 -24906.13463767 0 144
0.01250000 0.01249090 87387.62894541 0 4492.43847115 0 -4127.40957931 0 -8600.32304014 0 -18711.29961332 0 169
0.01350000 0.01339930 86399.91296568 0 9245.83988967 0 -15364.39585816 0 -8682.93058236 0 -88.92456312 0 180
0.01450000 0.01448870 77301.73026401 0 9624.41376564 0 11007.53087548 0 -14767.40489784 0 10198.40635456 0 267
0.01550000 0.01550050 76239.15155041 0 3901.09031749 0 32709.05715560 0 -5849.21873633 0 25400.16123730 0 238
0.01650000 0.01653350 72415.53179776 0 931.98370934 0 41286.34810239 0 -3122.36051615 0 5777.33477491 0 315
0.01750000 0.01747870 79158.46095176 0 636.98294749 0 50516.94566967 0 -4260.45392136 0 6999.93539231 0 297
0.01850000 0.01844180 75636.76507774 0 552.21607627 0 56582.40080411 0 -8563.65603745 0 -2947.56839728 0 388
0.01950000 0.01947590 78786.28300605 0 766.19984797 0 53263.37386277 0 2976.81657049 0 -5584.10798884 0 399
0.02050000 0.02045430 75291.11506776 0 2009.36748402 0 53558.44094446 0 7622.09416962 0 -15228.49639082 0 462
0.02150000 0.02154770 76241.51208706 0 1955.43484181 0 42192.23214480 0 8189.46601527 0 -22489.95676305 0 571
0.02250000 0.02255340 72177.90444130 0 808.62093977 0 38687.17243387 0 10115.13561395 0 -30312.10079373 0 510
0.02350000 0.02348930 73578.93914841 0 2660.74071258 0 22783.33774712 0 6820.93927007 0 -23844.11795661 0 555
0.02450000 0.02439640 67788.43033085 0 2762.88450577 0 24605.44723062 0 6214.57360704 0 -17678.95825018 0 592
0.02550000 0.02547300 66546.33842508 0 2622.81475701 0 19292.32884960 0 2175.33569206 0 -13384.01801238 0 837
0.02650000 0.02652900 64318.89107622 0 4730.16699346 0 26033.68431250 0 3298.56895701 0 -14219.98520724 0 723
0.02750000 0.02749970 59868.94226484 0 9523.34907491 0 19011.76220735 0 -3938.22942751 0 -5513.51670225 0 826
0.02850000 0.02848090 52393.01027667 0 5411.75509118 0 22985.78186679 0 2464.58011667 0 -13035.22062019 0 831
0.02950000 0.02946900 49340.94879019 0 439.96019368 0 19447.78704921 0 239.07740040 0 -5299.61835949 0 996
0.03050000 0.03053250 51572.66758632 0 -1441.30995868 0 19878.97841125 0 2577.35756546 0 -12860.76572085 0 1041
0.03150000 0.03150510 53721.09316054 0 -3106.97206530 0 19327.73689940 0 1687.34532188 0 -14689.61959478 0 1036
0.03250000 0.03246190 55907.51213422 0 -747.19752791 0 22130.48075267 0 1997.84581702 0 1063.99615966 0 1059
0.03350000 0.03345080 58228.81891668 0 -1934.02140217 0 17073.31198880 0 2851.65192460 0 -4801.16294347 0 1302
0.03450000 0.03451200 61584.37797290 0 -3285.08017613 0 26168.57212127 0 8908.42927667 0 10033.28119532 0 1339
0.03550000 0.03553350 63853.64054247 0 -1840.58911330 0 20430.55714262 0 8238.77875003 0 5586.76078241 0 1365
0.03650000 0.03647120 66224.51859465 0 809.42801849 0 19197.45775743 0 1667.42688878 0 13625.80440960 0 1308
0.03750000 0.03744890 64070.13547555 0 3060.78423145 0 23106.95608167 0 3340.75511920 0 12279.51167155 0 1579
0.03850000 0.03847530 58685.86377540 0 3010.71837309 0 18792.34470509 0 2297.51032486 0 9077.47742302 0 1662
0.03950000 0.03950240 55672.24531442 0 3438.00922933 0 16059.40529286 0 1526.87379204 0 5092.86907059 0 1683
0.04050000 0.04050350 51830.52811409 0 1507.39374433 0 6745.64939148 0 7376.26113814 0 -3622.56947368 0 1822
0.04150000 0.04152450 49012.94660186 0 1911.40521290 0 8119.32435471 0 644.28824640 0 -1851.55998841 0 1887
0.04250000 0.04250150 47141.60306817 0 1644.74325561 0 1979.13013355 0 5032.41685096 0 -5308.77948984 0 1920
0.04350000 0.04349210 45302.85742159 0 2722.35071924 0 9121.51829258 0 537.63358007 0 2579.13358827 0 2005
0.04450000 0.04448520 42891.73783979 0 2949.49054856 0 3841.04276129 0 911.26269379 0 3263.86906820 0 2151
0.04550000 0.04548030 42194.92990098 0 2402.03713601 0 14162.32066899 0 -612.48394923 0 10386.13646242 0 2274
0.04650000 0.04648670 40076.51686422 0 1137.28407836 0 12069.76112891 0 -807.01465078 0 13431.34115195 0 2311
0.04750000 0.04749250 41009.49087489 0 840.79505435 0 16631.77922808 0 -20.33321311 0 16122.46534346 0 2568
0.04850000 0.04851840 40381.58812506 0 91.15335935 0 17378.04603011 0 892.52115682 0 10349.98652967 0 2493
0.04950000 0.04949480 40399.57316623 0 -119.59827565 0 18216.14894861 0 619.55431854 0 7736.68136317 0 2644
0.05050000 0.05050630 40238.38223474 0 169.69223563 0 15516.70667557 0 -575.81132622 0 2340.50581391 0 2829
0.05150000 0.05149060 39936.12113659 0 830.81560463 0 17418.62477925 0 -1180.87532189 0 3452.88061024 0 2784
0.05250000 0.05249300 38992.13128820 0 848.88832288 0 13922.33277588 0 -2518.08561415 0 808.56024025 0 3055
0.05350000 0.05348950 38667.83851461 0 850.64298846 0 16483.06541891 0 1050.02852706 0 -46.20559408 0 3009
0.05450000 0.05448610 38913.22192007 0 298.43140845 0 14066.21310524 0 121.69353294 0 992.61128313 0 3336
0.05550000 0.05550870 38532.72589282 0 387.08529670 0 14239.88115903 0 3699.33187752 0 -740.06196283 0 3349
0.05650000 0.05647670 38135.81851551 0 -255.17176411 0 13773.84377973 0 2154.18078739 0 -1851.71735752 0 3324
0.05750000 0.05747970 36936.77830204 0 -178.12272368 0 10039.50851583 0 3164.69280680 0 -4925.39461535 0 3639
0.05850000 0.05849280 36742.31504439 0 769.59002823 0 10087.22507818 0 1698.18130918 0 -6220.51991128 0 3846
0.05950000 0.05951020 35511.01416332 0 373.90900592 0 8400.68908316 0 351.88295081 0 -7177.15549174 0 3787
0.06050000 0.06049470 34738.10701906 0 1160.41733756 0 5673.08898003 0 449.04151540 0 -7956.54849147 0 3930
0.06150000 0.06148310 33599.42910001 0 1281.05200121 0 5352.02227320 0 251.70627149 0 -6467.85918996 0 4083
0.06250000 0.06249100 32500.76789756 0 920.44293324 0 5142.77755984 0 1573.25271696 0 -7179.19004952 0 4303
0.06350000 0.06350600 31093.43842604 0 577.29734024 0 4437.75270534 0 2237.36160280 0 -3802.61097644 0 4470
0.06450000 0.06451750 31706.50351691 0 282.04591188 0 4350.67138413 0 277.39340654 0 -4749.82689159 0 4479
0.06550000 0.06550280 31184.71250997 0 320.86437512 0 5643.57103121 0 -821.01488126 0 -1658.43436820 0 4636
0.06650000 0.06648880 30819.05414169 0 692.01942160 0 8505.44070732 0 -2856.81138328 0 1.08454632 0 4653
0.06750000 0.06749660 31155.03719204 0 744.80888963 0 10677.42668546 0 -2868.92880477 0 91.76687406 0 5220
0.06850000 0.06852730 30716.42700052 0 1102.98772891 0 13090.86184131 0 -3195.82940933 0 756.24175549 0 5029
0.06950000 0.06949320 30932.47230757 0 672.84624365 0 13300.83719697 0 -1651.76866232 0 -1071.31045109 0 5040
0.07050000 0.07048030 30208.01236796 0 356.74453225 0 14857.77972972 0 -259.11835659 0 -1688.09844548 0 5475
0.07150000 0.07148790 30623.69163199 0 277.91384867 0 13975.05142781 0 859.62988872 0 -4966.23189946 0 5509
0.07250000 0.07249820 29824.93099105 0 186.65325352 0 12212.85461271 0 1936.11216321 0 -5001.51630210 0 5916
0.07350000 0.07351270 29492.43254242 0 653.11103316 0 11435.56361467 0 3009.44817956 0 -3833.72509766 0 5721
0.07450000 0.07449140 28194.36219601 0 887.59213148 0 7657.53594138 0 3365.76556708 0 -3228.91064443 0 6028
0.07550000 0.07549160 27777.10924087 0 830.39070804 0 8210.48603214 0 2155.24864921 0 -678.92518757 0 6183
0.07650000 0.07648840 26280.75381556 0 1071.02381449 0 6540.46255303 0 2082.62280484 0 166.19302106 0 6330
0.07750000 0.07749960 25255.04443636 0 712.85396773 0 7174.95232419 0 2047.20351438 0 3283.69757609 0 6583
0.07850000 0.07848650 24806.54247220 0 803.25577717 0 6176.60268887 0 978.14344157 0 4815.20251624 0 6549
0.07950000 0.07947320 24690.53895665 0 235.10158223 0 6767.99580513 0 1200.82747694 0 5085.66381348 0 6828
0.08050000 0.08048110 23979.34298490 0 320.69464129 0 6484.56279695 0 543.14037487 0 4296.08678418 0 7147
0.08150000 0.08149960 24198.98530019 0 274.99689981 0 6634.51307770 0 -1004.18578118 0 3338.81048663 0 7386
0.08250000 0.08250610 23108.97939880 0 669.09636257 0 6285.42342860 0 -1126.59421951 0 2448.73079914 0 7227
0.08350000 0.08350160 23325.47433188 0 610.37070689 0 8072.19230619 0 -1811.54327181 0 2434.33152556 0 7798
0.08450000 0.08449610 22477.70445375 0 330.72242581 0 7051.01290923 0 -662.23619343 0 975.96387939 0 7371
0.08550000 0.08548940 23193.17187278 0 145.04036451 0 9636.39629931 0 -761.57432020 0 543.03246462 0 8256
0.08650000 0.08650700 22683.97039466 0 -83.88166998 0 7360.14204499 0 661.47295324 0 332.03420975 0 8037
0.08750000 0.08749060 23103.35907344 0 129.69575220 0 9167.14409390 0 366.61157546 0 -158.70674767 0 8155
0.08850000 0.08849210 22153.52408667 0 448.77848417 0 6757.05865197 0 503.15962835 0 -296.58681767 0 8718
0.08950000 0.08949900 22199.94797419 0 608.12482487 0 7320.14780969 0 1066.62309973 0 -588.52000593 0 8571
0.09050000 0.09049190 21148.83472433 0 776.39174599 0 6337.47888213 0 514.07654834 0 -142.37857842 0 8932
0.09150000 0.09150830 20495.52810385 0 513.04465660 0 4959.94837570 0 1694.16839687 0 -616.47213210 0 9285
0.09250000 0.09250820 19611.67573687 0 315.68131106 0 4544.53888729 0 457.61026345 0 -1849.17697045 0 9204
0.09350000 0.09350330 19798.60775852 0 203.47151514 0 4380.26801750 0 565.92292577 0 -668.83445540 0 9349
0.09450000 0.09448040 19014.01033750 0 389.92018882 0 4815.24747884 0 -132.35079390 0 -819.61991651 0 9564
0.09550000 0.09549270 19239.72260418 0 212.32577572 0 5254.91429153 0 217.10642448 0 316.17927189 0 10155
0.09650000 0.09649430 18960.95446605 0 -0.38411889 0 5571.56342262 0 629.88447656 0 709.60991593 0 9913
0.09750000 0.09749140 19123.15705610 0 360.24599495 0 6274.35138763 0 -4.50999637 0 1878.50382821 0 10476
0.09850000 0.09850240 18790.09657494 0 354.39860844 0 5741.24104541 0 974.31375187 0 2285.62895704 0 10575
0.09950000 0.09950330 18571.24110521 0 79.35775769 0 5370.62555016 0 828.98787482 0 2930.78610574 0 10882
0.10050000 0.10051200 18397.91027094 0 34.84489320 0 3999.27740163 0 1151.12131941 0 1852.88638520 0 10875
0.10150000 0.10150300 18223.68018460 0 209.47964296 0 4038.74332634 0 914.38647062 0 1917.41896104 0 11118
0.10250000 0.10250800 17944.46242045 0 291.35317069 0 2958.86525127 0 387.56752062 0 757.55915975 0 11575
0.10350000 0.10349800 17485.05702507 0 523.98180976 0 2716.74163452 0 -582.18027892 0 -154.89391894 0 11364
0.10450000 0.10450100 17171.10565015 0 531.82216364 0 2800.14726295 0 -943.66611765 0 -10.49203463 0 12093
0.10550000 0.10551000 16600.97984508 0 307.70944157 0 3627.87506082 0 -612.88299233 0 -918.37128131 0 12067
0.10650000 0.10649700 16649.53945624 0 286.39491965 0 3508.40942486 0 -559.64389827 0 -701.97189376 0 12054
0.10750000 0.10749900 16725.86347470 0 77.51485300 0 4825.40902710 0 -797.27462692 0 -1288.97665997 0 12807
0.10850000 0.10850100 16572.76581174 0 378.44573255 0 4654.46121078 0 -504.53098774 0 -389.58858962 0 12736
0.10950000 0.10950300 16271.17915263 0 465.46185799 0 5433.38210319 0 -242.04942845 0 -309.17297429 0 12933
0.11050000 0.11050200 15900.79971105 0 386.52326417 0 5296.27988622 0 377.72857903 0 296.99372922 0 13428
0.11150000 0.11150900 15673.96337929 0 476.45971066 0 5594.85405094 0 325.07624695 0 832.07568158 0 13453
0.11250000 0.11250000 15211.07338219 0 200.86368417 0 5482.08784281 0 612.19394044 0 140.45305495 0 13668
0.11350000 0.11349100 15208.71284554 0 199.11014266 0 5870.05890279 0 -417.84084117 0 778.61402264 0 13791
0.11450000 0.11448600 15224.44975656 0 173.57700452 0 5929.73551752 0 -72.19364135 0 196.20331038 0 14205
0.11550000 0.11549300 14888.91633224 0 -83.94090821 0 5875.26332407 0 69.87379585 0 957.15827072 0 14776
0.11650000 0.11649800 15183.64619441 0 -45.56959806 0 6104.19041686 0 126.09199957 0 665.44427514 0 14553
0.11750000 0.11747300 15210.84856918 0 -5.58491732 0 5979.96998563 0 648.86993564 0 685.88090224 0 14568
0.11850000 0.11849100 15096.30633823 0 126.69562252 0 5380.65221061 0 388.18800454 0 236.85962001 0 16015
0.11950000 0.11950300 14930.84395947 0 75.39205611 0 5254.16116793 0 448.07931570 0 28.74380520 0 15270
0.12050000 0.12050700 14903.19195867 0 85.24145150 0 4992.04043354 0 150.80457021 0 220.38644636 0 15999
0.12150000 0.12150000 14816.63894804 0 24.88432778 0 4413.79887863 0 816.90754748 0 -773.55123355 0 15670
0.12250000 0.12250700 14584.40710394 0 154.27568315 0 4179.72356781 0 629.88110436 0 297.62657786 0 16887
0.12350000 0.12352200 14362.29184549 0 329.77933521 0 3626.60486729 0 442.85016498 0 -875.74448561 0 16407
0.12450000 0.12449800 14183.56549887 0 391.37135683 0 3381.04161142 0 656.21570089 0 253.54636602 0 16306
0.12550000 0.12549900 13596.80353071 0 484.25172975 0 3053.48904912 0 22.94520312 0 -723.94174561 0 17523
0.12650000 0.12650100 13346.92386496 0 244.27395323 0 2699.79073322 0 -68.33955944 0 -125.77838542 0 17154
0.12750000 0.12750600 13167.07345327 0 173.38141720 0 3005.91861523 0 -470.54375618 0 -612.09389865 0 18007
0.12850000 0.12850300 13185.39571396 0 96.44242274 0 3130.67859769 0 -810.58917771 0 -1023.15887555 0 17496
0.12950000 0.12949900 12912.92234024 0 201.09411751 0 3060.96408186 0 -421.33106322 0 -1413.14088795 0 18405
0.13050000 0.13049000 12998.35128580 0 261.38671990 0 3812.15428891 0 -499.10287750 0 -1160.99061075 0 18100
0.13150000 0.13148800 12870.43268048 0 200.89290986 0 3802.20631301 0 147.29074279 0 -939.03384548 0 19059
0.13250000 0.13249300 12778.48415750 0 136.55367321 0 4225.57418214 0 423.40383921 0 -353.61176289 0 18957
0.13350000 0.13349100 12894.37526653 0 -48.53757948 0 3726.79278726 0 756.90270575 0 614.84560994 0 19468
0.13450000 0.13450700 12866.61085923 0 -10.83283992 0 4029.25621713 0 643.56772069 0 1007.80527072 0 19953
0.13550000 0.13551000 13056.91507610 0 -30.27388258 0 3942.78189105 0 725.64695233 0 1679.83656719 0 19956
0.13650000 0.13649900 12884.59590040 0 206.57843100 0 4273.61672337 0 92.31530541 0 2351.03830364 0 19723
0.13750000 0.13749600 12679.45402456 0 225.29411447 0 3701.62497027 0 272.20022591 0 2492.11971097 0 20946
0.13850000 0.13851100 12444.86164380 0 52.88164136 0 3927.42716215 0 254.43325336 0 2458.38651812 0 20955
0.13950000 0.13949800 12426.98900914 0 -21.60846493 0 3668.56621647 0 456.78295156 0 2036.54737749 0 20506
0.14050000 0.14048300 12357.97141365 0 171.17150527 0 3463.40185933 0 493.00707261 0 2073.77641271 0 21447
0.14150000 0.14148400 11933.29962903 0 436.97692497 0 3200.71909240 0 130.57589515 0 1412.75870582 0 21771
0.14250000 0.14249400 11634.74794562 0 558.74801841 0 3072.40706430 0 -41.16730961 0 2125.69697844 0 22470
0.14350000 0.14350900 11138.19219958 0 373.91125405 0 3085.01907442 0 -60.69411844 0 1405.00265682 0 22519
0.14450000 0.14449900 11134.13432466 0 111.53097302 0 3071.92371632 0 -47.91406059 0 1402.96809904 0 22218
0.14550000 0.14550500 10952.10322673 0 19.83682597 0 2924.58126654 0 -24.14199520 0 848.54885523 0 23559
0.14650000 0.14650700 11013.88184314 0 10.37333336 0 2947.43350947 0 -99.07003725 0 695.74569732 0 23044
0.14750000 0.14750500 10909.06277508 0 78.74840201 0 2768.84205066 0 -159.69817307 0 492.34724641 0 23649
0.14850000 0.14849900 10864.22381931 0 105.31230782 0 2707.27700661 0 170.78819908 0 -82.90260930 0 23640
0.14950000 0.14949500 10773.84898743 0 138.67815620 0 2532.26007473 0 231.67655596 0 -341.52918742 0 24457
0.15050000 0.15050000 10648.08858706 0 167.84652078 0 1951.25331974 0 117.59294356 0 -683.39784249 0 24591
0.15150000 0.15149900 10427.82803598 0 175.55535905 0 2334.46958446 0 -16.28095852 0 -443.92814338 0 25020
0.15250000 0.15250500 10372.17557421 0 72.11967787 0 1858.02336258 0 146.45781057 0 -596.52672145 0 25297
0.15350000 0.15350100 10258.43142947 0 53.50100122 0 2041.54946706 0 342.07435898 0 -677.06710800 0 25452
0.15450000 0.15450400 10238.13081425 0 140.25297137 0 1545.30845924 0 282.07626164 0 -807.20798997 0 26061
0.15550000 0.15549900 10022.60257713 0 122.54669833 0 1645.73243287 0 46.73008284 0 -621.05719354 0 26128
0.15650000 0.15649500 9982.59710118 0 210.65429096 0 1612.80856688 0 -58.58885696 0 -479.17657595 0 26331
0.15750000 0.15749700 9845.61853137 0 156.95208209 0 2022.88998685 0 -145.16850793 0 -191.50247024 0 27345
0.15850000 0.15849900 9815.96569474 0 165.95134707 0 2119.26732622 0 -210.84200983 0 187.81778493 0 26980
0.15950000 0.15949700 9675.30019149 0 241.91454064 0 2306.28927308 0 -114.45455387 0 50.60642125 0 27777
0.16050000 0.16050000 9607.00199765 0 193.08740200 0 2891.93841682 0 -34.26363915 0 760.26028813 0 28224
0.16150000 0.16150500 9434.79522845 0 204.69449794 0 2559.68726251 0 254.36243726 0 587.15763906 0 28075
0.16250000 0.16249700 9269.96232614 0 290.65400221 0 3100.71102284 0 102.10939680 0 967.76270062 0 28590
0.16350000 0.16349900 9093.65271942 0 149.00943829 0 2843.55865607 0 110.47086725 0 831.78679686 0 29163
0.16450000 0.16449100 8907.33893355 0 118.39102976 0 2972.84862078 0 13.19562471 0 902.77150622 0 28996
0.16550000 0.16550500 8927.39225446 0 45.28408553 0 2813.09649259 0 -103.01629250 0 890.32585773 0 30777
0.16650000 0.16650700 8787.97446344 0 67.61375062 0 2764.39075297 0 -242.26637301 0 410.36580843 0 29211
0.16750000 0.16749900 8800.18181013 0 89.92621751 0 2629.54790680 0 -26.94440183 0 230.96277463 0 30922
0.16850000 0.16850800 8740.44899215 0 112.73923057 0 2650.41055456 0 -52.62186993 0 279.52800612 0 30867
0.16950000 0.16949900 8490.01853451 0 73.03545369 0 2448.79824305 0 447.97252952 0 197.75114798 0 30852
0.17050000 0.17049200 8507.27293339 0 -11.93397407 0 1907.71827946 0 661.50442706 0 -113.20009725 0 31257
0.17150000 0.17149500 8444.71871207 0 -8.03446868 0 1524.51325539 0 824.02849972 0 -120.68075031 0 32608
0.17250000 0.17250900 8413.94181037 0 22.49906169 0 1085.50626890 0 598.67593387 0 -6.72664145 0 32361
0.17350000 0.17350400 8364.70776017 0 95.33308291 0 955.37662758 0 169.51350928 0 222.78182903 0 32508
0.17450000 0.17449800 8286.13561156 0 133.31636580 0 818.53294558 0 108.48396983 0 346.51441602 0 32791
0.17550000 0.17549800 8195.42356016 0 164.43048702 0 1167.56639143 0 -207.52714193 0 770.26559134 0 33633
0.17650000 0.17650100 8135.16243159 0 106.93039949 0 1339.37973785 0 -93.64709771 0 969.43306132 0 33984
0.17750000 0.17750300 8050.81258850 0 100.92969051 0 1686.40110722 0 65.52759825 0 1351.66576910 0 34069
0.17850000 0.17849800 8039.16727435 0 197.01151317 0 1667.32572293 0 30.76757196 0 1254.61399069 0 34536
