### header ###
fiducial parameters:
Omega_m = 0.31
Omega_nu = 0
Omega_de = 0.69
Omega_k = 0
H_0 = 100
w_de = -1
zeff = 0
beta = 0
fgrowth = 0
b_1 = 2
gamma = 0.55
Lx = 3500 Ly = 3500 Lz = 3500
nx = 700 ny = 700 nz = 700
xoffset = 857.220397 yoffset = 15.9954215 zoffset = 262.898189
bins = 400 dk = 0.001
kx_ny = 0.628318531 ky_ny = 0.628318531 kz_ny = 0.628318531
############################
A(data) = 3.07121973 (not used)
A(ran) = 3.06440688 (used)
Ngal = 187117
weighted Ngal = 0
Nran = 9360983
weighted Nran = 0
SN(data) = 3467.78492
SN(ran) = 68.8150619
SN(data+ran) = 3536.59998
############################
13 columns: k_central k_mean P_0(k) sigma^{lin}_{P_0(k)} P^img_1(k) sigma^{lin}_{P_1(k)} P_2(k) sigma^{lin}_{P_2(k)} P^img_3(k) sigma^{lin}_{P_3(k)} P_4(k) sigma^{lin}_{P_4(k)} N_modes
### header ###
0.00050000 0 0 0 0 0 0 0 0 0 0 0 0
0.00150000 0.00179520 54002.89627436 0 -63562.84490806 0 -39913.19020910 0 117880.70421590 0 -45250.25117617 0 3
0.00250000 0.00253879 88788.88846553 0 -58473.75269611 0 3256.73125499 0 -74836.43074569 0 13925.92978412 0 6
0.00350000 0.00331552 118967.67514159 0 -32266.96236235 0 -3146.14573310 0 -42897.80779119 0 36263.46332325 0 7
0.00450000 0.00420575 133913.24435352 0 2640.22652500 0 17445.60234101 0 -59599.84108634 0 28750.32478116 0 24
0.00550000 0.00557378 126316.81258951 0 38965.26613295 0 77361.41811939 0 -40170.37629782 0 75433.64651903 0 45
0.00650000 0.00659388 88966.49074708 0 42941.19670301 0 78520.77883579 0 39628.01490005 0 -12778.03453147 0 40
0.00750000 0.00754703 87977.53829577 0 26786.80791147 0 160632.27114108 0 37727.33326795 0 67853.06407255 0 57
0.00850000 0.00846663 70630.29164866 0 10311.38613506 0 110142.86506570 0 100743.54533096 0 -4456.33350100 0 75
0.00950000 0.00948925 83165.07849831 0 775.00802188 0 139015.37572031 0 105832.52513640 0 50883.39088350 0 112
0.01050000 0.01054430 68717.13289425 0 -6666.72878269 0 73487.55265797 0 74645.33968326 0 10595.40365708 0 105
0.01150000 0.01145670 80021.29330187 0 -3294.58976665 0 39636.67020111 0 71448.72342838 0 19293.90254070 0 144
0.01250000 0.01249090 73519.81332557 0 -3181.98092763 0 4923.83216490 0 38924.79979032 0 20192.59256665 0 169
0.01350000 0.01339930 70490.34554706 0 1956.63759144 0 -34961.68356209 0 26473.30616259 0 10942.29013864 0 180
0.01450000 0.01448870 68805.82162851 0 -1281.28805487 0 -39123.53449524 0 7799.40419425 0 18568.09372300 0 267
0.01550000 0.01550050 59161.79292735 0 4552.68835907 0 -40348.31579889 0 -9499.37276690 0 -9419.90136624 0 238
0.01650000 0.01653350 63299.02683540 0 796.91605016 0 -37774.20678150 0 -6232.41251975 0 18211.98990784 0 315
0.01750000 0.01747870 54676.54847267 0 1387.16374411 0 -17632.53436266 0 -19287.72018280 0 3801.40822681 0 297
0.01850000 0.01844180 64977.81802207 0 3103.91460830 0 -15308.75463704 0 -13753.72301492 0 26165.53714557 0 388
0.01950000 0.01947590 56616.45997583 0 499.59184580 0 3271.79372697 0 -8725.25163236 0 23257.58080146 0 399
0.02050000 0.02045430 58525.01006344 0 38.01464430 0 5470.21771563 0 -7438.07347651 0 17450.88544685 0 462
0.02150000 0.02154770 67062.50910664 0 -3887.37672360 0 12458.68764420 0 1348.52962755 0 33198.36268192 0 571
0.02250000 0.02255340 61694.31153704 0 -2632.29062558 0 3556.19343111 0 832.39491606 0 4515.26823278 0 510
0.02350000 0.02348930 73329.95873472 0 -3085.08651833 0 17862.63048313 0 -2471.35822906 0 14009.22300603 0 555
0.02450000 0.02439640 70332.75162381 0 -3527.42860589 0 7193.76917352 0 -5283.96013302 0 -4561.44482599 0 592
0.02550000 0.02547300 76344.58885427 0 2356.09659647 0 21295.97484240 0 -5954.74596539 0 4674.40212518 0 837
0.02650000 0.02652900 73396.50338705 0 2385.06375340 0 21177.49838369 0 -6141.11595451 0 -10845.29456348 0 723
0.02750000 0.02749970 73364.24271945 0 3496.78659200 0 32200.53011653 0 -5084.66339556 0 -6326.17078750 0 826
0.02850000 0.02848090 69256.90894235 0 4104.61353963 0 31796.99075529 0 -3564.32042159 0 -17666.48112787 0 831
0.02950000 0.02946900 68640.35924975 0 3197.58295084 0 38805.19926654 0 -183.13492984 0 -9712.99009340 0 996
0.03050000 0.03053250 63878.59478709 0 2428.00303920 0 37571.65025532 0 3398.45337940 0 -17751.46044740 0 1041
0.03150000 0.03150510 65016.71067360 0 1970.89073657 0 36556.50708781 0 2196.91774147 0 -22466.80102254 0 1036
0.03250000 0.03246190 61392.05043889 0 1026.13202767 0 34684.93874110 0 6362.97267799 0 -11729.61903779 0 1059
0.03350000 0.03345080 58561.42977181 0 2031.12938384 0 32740.30616464 0 8667.53089086 0 -8990.44106441 0 1302
0.03450000 0.03451200 60372.97304362 0 892.60433764 0 31635.91223032 0 12002.42963103 0 3923.83015392 0 1339
0.03550000 0.03553350 56552.50067317 0 1542.61070307 0 26159.69200719 0 11559.09836620 0 4230.86852864 0 1365
0.03650000 0.03647120 55616.71649981 0 3403.93881696 0 23184.62897822 0 14084.08573990 0 13805.09278876 0 1308
0.03750000 0.03744890 50955.10623516 0 4204.67781243 0 18919.92609088 0 8246.19757951 0 18052.26026096 0 1579
0.03850000 0.03847530 45562.29164046 0 4010.05718568 0 14898.80810488 0 6673.28208207 0 16160.79596245 0 1662
0.03950000 0.03950240 42700.19715134 0 2631.34641092 0 11972.07987406 0 4671.71560966 0 19595.15198029 0 1683
0.04050000 0.04050350 39654.54283578 0 502.07827775 0 7604.76108620 0 3684.52794051 0 8069.75308498 0 1822
0.04150000 0.04152450 41384.70379629 0 -1627.89352016 0 3691.00255533 0 -2637.56249077 0 6542.32850105 0 1887
0.04250000 0.04250150 42153.33949328 0 -2035.13105550 0 2960.22537001 0 -3860.27551469 0 -2020.77674451 0 1920
0.04350000 0.04349210 44186.88561702 0 -253.43957984 0 4681.71978881 0 -5355.67548469 0 223.95198077 0 2005
0.04450000 0.04448520 44135.51584318 0 673.09691016 0 7652.05050382 0 -5310.26325573 0 -5683.59898846 0 2151
0.04550000 0.04548030 43000.54733887 0 1568.59908756 0 8757.54602191 0 -5074.88402942 0 -4981.67655356 0 2274
0.04650000 0.04648670 43228.05810967 0 2104.66572092 0 12280.74814313 0 -2518.19802066 0 -4517.77489790 0 2311
0.04750000 0.04749250 40890.78960317 0 1117.62193210 0 12826.93136215 0 2865.55660955 0 -5983.07240524 0 2568
0.04850000 0.04851840 39836.41656460 0 1322.49628045 0 11983.43293130 0 1582.60493837 0 -1095.72402041 0 2493
0.04950000 0.04949480 39667.01995809 0 280.74986485 0 12107.75452838 0 2284.80838953 0 -1064.18050633 0 2644
0.05050000 0.05050630 38931.09455473 0 1308.35554183 0 14554.28215998 0 155.50765847 0 1418.71625071 0 2829
0.05150000 0.05149060 39142.86841450 0 1181.66216744 0 15662.38550904 0 -807.04724866 0 1697.28205713 0 2784
0.05250000 0.05249300 38636.58950558 0 -172.68224872 0 18514.81303854 0 711.07906898 0 7041.81805694 0 3055
0.05350000 0.05348950 40018.51510645 0 -644.89524154 0 18725.01320721 0 -57.81156596 0 3653.82972336 0 3009
0.05450000 0.05448610 41138.19632576 0 -420.36886352 0 21109.26763376 0 918.95354702 0 5569.70871525 0 3336
0.05550000 0.05550870 40281.88355307 0 1682.88278354 0 21955.91344682 0 -1002.49968357 0 2337.66192927 0 3349
0.05650000 0.05647670 39465.47509048 0 2243.07185337 0 22687.45499639 0 -1049.64297274 0 1714.06434867 0 3324
0.05750000 0.05747970 37191.04182157 0 2555.19100222 0 19690.58510500 0 -88.40063639 0 -1586.78646044 0 3639
0.05850000 0.05849280 35315.98887314 0 786.77361100 0 16294.44729964 0 2985.59551871 0 -4395.91500332 0 3846
0.05950000 0.05951020 34330.07139752 0 -615.13561873 0 13512.04902420 0 5255.89222815 0 -6014.10784190 0 3787
0.06050000 0.06049470 33908.88421463 0 -999.57823845 0 8818.52655213 0 4295.08636626 0 -10311.01519359 0 3930
0.06150000 0.06148310 34088.84703283 0 -121.12363195 0 6557.91928362 0 3108.65816291 0 -11299.43933431 0 4083
0.06250000 0.06249100 33190.49422641 0 664.93732180 0 3789.16715816 0 182.32785112 0 -11307.64500935 0 4303
0.06350000 0.06350600 31993.70214308 0 1703.52061828 0 3297.17511632 0 -1406.89108614 0 -8661.16868254 0 4470
0.06450000 0.06451750 30713.84165085 0 883.59608014 0 4777.92851841 0 118.78332847 0 -6847.18618953 0 4479
0.06550000 0.06550280 30671.91402363 0 613.21234339 0 5907.74880469 0 -986.98533743 0 -4987.11702852 0 4636
0.06650000 0.06648880 30026.36345215 0 6.89897187 0 5775.69363990 0 939.67905883 0 -5012.47593657 0 4653
0.06750000 0.06749660 30495.88543318 0 278.39607259 0 6608.53593386 0 470.49429732 0 -3288.76710957 0 5220
0.06850000 0.06852730 30258.14567022 0 670.10352487 0 6666.43652578 0 -1889.19368706 0 -2547.71596948 0 5029
0.06950000 0.06949320 30463.73717209 0 701.85386693 0 7673.67751583 0 1235.52736575 0 865.00516790 0 5040
0.07050000 0.07048030 29245.13822634 0 450.11274942 0 7775.03446347 0 589.62383783 0 -233.56048902 0 5475
0.07150000 0.07148790 29287.51547960 0 115.43811081 0 6997.90083453 0 1034.81767849 0 -870.77611798 0 5509
0.07250000 0.07249820 28120.51112071 0 345.17902671 0 7429.72167301 0 2194.11881944 0 -2609.38217939 0 5916
0.07350000 0.07351270 27539.81910394 0 528.60059315 0 7392.47015649 0 417.80599515 0 -1866.12787176 0 5721
0.07450000 0.07449140 27146.05910884 0 1241.01280330 0 6842.35270972 0 418.29721159 0 -1865.03752864 0 6028
0.07550000 0.07549160 26407.66076232 0 1073.38884741 0 8077.66650310 0 -1064.13441966 0 190.14909590 0 6183
0.07650000 0.07648840 25402.40936744 0 1012.86243948 0 8375.13908404 0 -579.87819365 0 262.86711360 0 6330
0.07750000 0.07749960 25832.92629044 0 383.86485027 0 9801.56642116 0 -488.76597508 0 4332.42780799 0 6583
0.07850000 0.07848650 25665.89022058 0 227.51077080 0 10748.18658182 0 975.47715922 0 5506.64866465 0 6549
0.07950000 0.07947320 26045.82421529 0 -241.20862778 0 10321.46899877 0 1737.91700952 0 6532.67278208 0 6828
0.08050000 0.08048110 25705.34490465 0 3.22475160 0 11934.76091363 0 235.23309785 0 4977.46130954 0 7147
0.08150000 0.08149960 26243.21004212 0 562.52375299 0 10996.49255646 0 363.07976300 0 5504.25440605 0 7386
0.08250000 0.08250610 25052.82512971 0 766.88665173 0 11706.80051681 0 -663.16579524 0 4215.91846317 0 7227
0.08350000 0.08350160 24715.38079477 0 683.90367177 0 10090.66471731 0 69.27590564 0 3528.62011487 0 7798
0.08450000 0.08449610 23635.71629206 0 476.96104369 0 10427.40089125 0 686.42157754 0 2044.57320211 0 7371
0.08550000 0.08548940 23195.19518991 0 339.94875193 0 8053.72391704 0 1415.67003436 0 507.53673774 0 8256
0.08650000 0.08650700 22770.07377926 0 261.35861828 0 7594.07122735 0 2335.03161700 0 -736.60209053 0 8037
0.08750000 0.08749060 22359.34040155 0 277.89249144 0 5121.06062263 0 1502.61646777 0 -1317.40426567 0 8155
0.08850000 0.08849210 21783.14464508 0 304.29340781 0 5518.10288775 0 1261.20101202 0 -370.77511249 0 8718
0.08950000 0.08949900 21341.83669738 0 308.50977590 0 3536.15135086 0 68.02954229 0 -854.64128792 0 8571
0.09050000 0.09049190 21051.82790852 0 37.72486032 0 4405.10985562 0 105.03994685 0 369.18905667 0 8932
0.09150000 0.09150830 21237.86067812 0 69.89683919 0 3505.45313371 0 -480.04885044 0 -697.27554988 0 9285
0.09250000 0.09250820 20937.62289710 0 7.23746158 0 3944.87265209 0 -292.80883496 0 -1080.24002403 0 9204
0.09350000 0.09350330 21322.83999765 0 125.97734494 0 4331.74212830 0 -682.82569337 0 -682.28052181 0 9349
0.09450000 0.09448040 20783.28876256 0 439.55553025 0 4474.83561210 0 -388.92089497 0 -2345.67651324 0 9564
0.09550000 0.09549270 20420.32815046 0 826.87126029 0 4819.47396352 0 -481.79227537 0 -1899.72617679 0 10155
0.09650000 0.09649430 19647.64581921 0 806.95395126 0 4906.56652538 0 377.47004407 0 -1953.52393119 0 9913
0.09750000 0.09749140 18992.65310111 0 510.35139668 0 5006.43970712 0 1011.97892434 0 -1113.12229961 0 10476
0.09850000 0.09850240 18812.69028291 0 263.26728077 0 5171.86836393 0 880.72409388 0 -1133.48473841 0 10575
0.09950000 0.09950330 18342.26904982 0 156.79471298 0 3980.61792141 0 1314.17819891 0 -616.30127421 0 10882
0.10050000 0.10051200 18129.48353148 0 356.03299906 0 4713.47462712 0 430.02121030 0 -336.41244321 0 10875
0.10150000 0.10150300 17812.49718087 0 582.14206071 0 3743.15917472 0 -47.13440905 0 483.72229510 0 11118
0.10250000 0.10250800 17507.20110701 0 608.85321904 0 4675.07656423 0 -25.86721028 0 740.14514364 0 11575
0.10350000 0.10349800 17101.52602213 0 384.56177061 0 4564.21002607 0 -89.87923159 0 945.79509690 0 11364
0.10450000 0.10450100 16888.62809728 0 161.10662660 0 4474.72320560 0 220.40218327 0 661.88998138 0 12093
0.10550000 0.10551000 16731.59620657 0 16.33761140 0 4171.88883425 0 189.55558954 0 471.36095149 0 12067
0.10650000 0.10649700 16426.63735224 0 252.36384956 0 4225.66410735 0 -59.97662770 0 218.92853396 0 12054
0.10750000 0.10749900 16607.94904853 0 391.53322220 0 4776.86065659 0 -477.02736353 0 -66.25745370 0 12807
0.10850000 0.10850100 15853.25175845 0 542.71323014 0 5118.81249248 0 -1391.17665642 0 14.80820846 0 12736
0.10950000 0.10950300 15695.88264822 0 495.20012356 0 5337.10592968 0 -623.55823833 0 -104.97227814 0 12933
0.11050000 0.11050200 15228.27157781 0 361.19695400 0 5494.81225943 0 -337.20828128 0 -538.75427295 0 13428
0.11150000 0.11150900 15302.34746613 0 18.75300243 0 5756.43840520 0 45.33826547 0 -746.38707699 0 13453
0.11250000 0.11250000 15244.79533438 0 -79.54525174 0 5482.13280541 0 646.86235542 0 -1684.09677382 0 13668
0.11350000 0.11349100 15362.70976055 0 -126.71473163 0 5410.72095131 0 404.47458338 0 -1405.65461456 0 13791
0.11450000 0.11448600 15617.42290612 0 -225.93595563 0 4453.79311393 0 584.90613672 0 -1698.27123439 0 14205
0.11550000 0.11549300 15652.15651688 0 -66.01004698 0 4574.87740361 0 519.08538230 0 -1281.09696381 0 14776
0.11650000 0.11649800 15652.49373640 0 224.69835998 0 4080.88452593 0 363.29895569 0 -1745.51568941 0 14553
0.11750000 0.11747300 15662.72272856 0 212.52473524 0 4499.34023070 0 -100.45274970 0 -537.66168170 0 14568
0.11850000 0.11849100 15304.48318977 0 290.36286936 0 4194.87596500 0 -33.63584881 0 -526.50870804 0 16015
0.11950000 0.11950300 15233.66709016 0 295.91125456 0 4731.39222439 0 -45.38615064 0 -1.48022509 0 15270
0.12050000 0.12050700 14766.61805229 0 230.93804520 0 4651.67352940 0 338.55266311 0 273.58057782 0 15999
0.12150000 0.12150000 14784.26587394 0 436.78246171 0 4841.84285847 0 165.80297048 0 -125.70419712 0 15670
0.12250000 0.12250700 14220.77205279 0 381.37054987 0 4227.11415129 0 217.47624189 0 89.18017552 0 16887
0.12350000 0.12352200 13833.30682209 0 386.29170676 0 4627.24759536 0 -262.99413296 0 -232.01714767 0 16407
0.12450000 0.12449800 13639.74281651 0 216.89060398 0 4337.75587644 0 -49.96795229 0 -93.86629040 0 16306
0.12550000 0.12549900 13494.28879605 0 45.59275380 0 4414.59696484 0 3.96125028 0 -479.30134717 0 17523
0.12650000 0.12650100 13515.98325196 0 -150.24703393 0 3936.82434617 0 269.59689120 0 -432.44694273 0 17154
0.12750000 0.12750600 13736.30000629 0 -190.68415087 0 4549.32740450 0 537.55152332 0 -421.57610941 0 18007
0.12850000 0.12850300 13762.94034852 0 -32.66476899 0 3409.41301387 0 855.17521883 0 -996.40500275 0 17496
0.12950000 0.12949900 13774.29340576 0 179.07143460 0 4160.96292174 0 168.20734567 0 -252.48974485 0 18405
0.13050000 0.13049000 13547.79429353 0 219.23989999 0 3251.61675891 0 82.96420807 0 -295.53581682 0 18100
0.13150000 0.13148800 13503.50612965 0 240.56791068 0 4251.32651297 0 -49.26709771 0 823.37879011 0 19059
0.13250000 0.13249300 13216.08269046 0 171.48961568 0 3523.85407896 0 118.34606716 0 181.48480231 0 18957
0.13350000 0.13349100 13142.56883467 0 162.40716989 0 3658.69692513 0 366.50029302 0 202.34182974 0 19468
0.13450000 0.13450700 12964.29211408 0 179.19620582 0 3223.48141013 0 347.56654093 0 77.80193922 0 19953
0.13550000 0.13551000 12793.09700345 0 65.69182416 0 2909.53003521 0 433.34619479 0 -608.55421773 0 19956
0.13650000 0.13649900 12784.32929588 0 -11.58641315 0 2334.80680398 0 506.91063349 0 -1189.96900833 0 19723
0.13750000 0.13749600 12565.02420012 0 141.54452213 0 1792.01826149 0 256.49141651 0 -1830.18027072 0 20946
0.13850000 0.13851100 12481.61857169 0 115.19194056 0 1579.58120332 0 53.93376627 0 -1829.75312599 0 20955
0.13950000 0.13949800 12341.33525057 0 223.70243833 0 1534.40502803 0 -194.33736236 0 -1854.42635435 0 20506
0.14050000 0.14048300 12119.44480514 0 262.53663847 0 1852.92010715 0 -309.71589772 0 -1754.08106527 0 21447
0.14150000 0.14148400 12005.46460673 0 301.77887424 0 2148.67286853 0 -257.16473149 0 -1664.25702528 0 21771
0.14250000 0.14249400 11990.17732173 0 301.95535246 0 3141.71691671 0 -300.23778102 0 -618.02559004 0 22470
0.14350000 0.14350900 11697.47077670 0 304.85544035 0 3523.10095536 0 -217.42903115 0 -632.78231632 0 22519
0.14450000 0.14449900 11651.49651521 0 201.53924728 0 4024.31033081 0 -90.57705118 0 481.90917814 0 22218
0.14550000 0.14550500 11409.14808545 0 142.51796249 0 3484.64668921 0 407.56576233 0 574.89858538 0 23559
0.14650000 0.14650700 11486.37135597 0 -6.08456424 0 3821.16929079 0 583.21891505 0 705.90162526 0 23044
0.14750000 0.14750500 11524.92678798 0 -2.36050293 0 3219.73827343 0 492.34275015 0 564.62687874 0 23649
0.14850000 0.14849900 11412.74509368 0 77.85915413 0 2742.33659624 0 244.73257178 0 319.67848646 0 23640
0.14950000 0.14949500 11076.54847097 0 243.56916443 0 2372.51918719 0 -37.40899804 0 169.19652293 0 24457
0.15050000 0.15050000 11020.73864009 0 181.97377062 0 2380.16282968 0 37.27141247 0 302.23187246 0 24591
0.15150000 0.15149900 10690.38715576 0 251.23753636 0 2576.22225973 0 5.73487884 0 339.50362216 0 25020
0.15250000 0.15250500 10603.50816626 0 175.61830670 0 2412.04131516 0 445.05220846 0 409.72509134 0 25297
0.15350000 0.15350100 10373.94035638 0 178.09237392 0 2612.34971118 0 340.64117601 0 1019.75745464 0 25452
0.15450000 0.15450400 10188.97544860 0 218.46879135 0 2240.07059962 0 389.67289450 0 1266.60776502 0 26061
0.15550000 0.15549900 10185.67069728 0 134.25271201 0 2436.01762317 0 520.25328591 0 1389.72661248 0 26128
0.15650000 0.15649500 9912.84886339 0 190.57399249 0 2141.36644556 0 -5.36922047 0 1488.52069175 0 26331
0.15750000 0.15749700 9823.73298440 0 204.36402281 0 2048.40626401 0 -159.50258574 0 981.34253077 0 27345
0.15850000 0.15849900 9645.34385730 0 147.38066799 0 2146.61582945 0 -134.40783299 0 1427.43899568 0 26980
0.15950000 0.15949700 9443.87767425 0 172.56759409 0 2095.58327513 0 -174.50435821 0 644.11738851 0 27777
0.16050000 0.16050000 9570.02025675 0 -21.57058394 0 1907.43726319 0 105.69932343 0 1296.53037726 0 28224
0.16150000 0.16150500 9454.35396073 0 26.11484181 0 2223.81661867 0 219.65692813 0 752.61776969 0 28075
0.16250000 0.16249700 9585.19513524 0 -64.92880878 0 2029.18475126 0 346.07265845 0 1250.47743122 0 28590
0.16350000 0.16349900 9539.49064936 0 -108.03580509 0 2010.44658649 0 414.70582368 0 1270.38462366 0 29163
0.16450000 0.16449100 9752.63586852 0 -44.65685722 0 1843.68029225 0 114.34889176 0 1432.90195193 0 28996
0.16550000 0.16550500 9788.90944843 0 19.75240868 0 1781.46329045 0 -84.18044648 0 1215.82250502 0 30777
0.16650000 0.16650700 9819.47277777 0 50.18916829 0 1799.40336902 0 -190.96629120 0 918.00146390 0 29211
0.16750000 0.16749900 9652.05452578 0 172.31018319 0 1874.34478744 0 -232.27006231 0 913.77610329 0 30922
0.16850000 0.16850800 9601.55028205 0 144.49968921 0 1690.91984881 0 -88.67940453 0 207.84862454 0 30867
0.16950000 0.16949900 9333.21346780 0 198.34353028 0 1653.00513390 0 -138.52977961 0 -106.36915380 0 30852
0.17050000 0.17049200 9291.33080317 0 185.91361870 0 1673.51932148 0 -11.16531589 0 -409.87009573 0 31257
0.17150000 0.17149500 9118.89922096 0 108.78544408 0 1525.74972697 0 153.91935452 0 -603.29471725 0 32608
0.17250000 0.17250900 8973.81614198 0 163.00292438 0 1665.44853426 0 166.20538577 0 -271.47857613 0 32361
0.17350000 0.17350400 8897.96423084 0 144.76834076 0 1560.57326294 0 107.68003849 0 -559.73607161 0 32508
0.17450000 0.17449800 8689.13542156 0 275.42292047 0 1570.67860794 0 133.04659018 0 62.06469098 0 32791
0.17550000 0.17549800 8486.79246775 0 275.69719235 0 1493.41037482 0 -2.03752531 0 -165.43764933 0 33633
0.17650000 0.17650100 8286.24801806 0 232.35773939 0 1523.59152203 0 33.69160244 0 185.68655756 0 33984
0.17750000 0.17750300 8160.31900792 0 144.35131262 0 1621.64371836 0 25.83584886 0 -66.58073482 0 34069
