### header ###
fiducial parameters:
Omega_m = 0.31
Omega_nu = 0
Omega_de = 0.69
Omega_k = 0
H_0 = 100
w_de = -1
zeff = 0
beta = 0
fgrowth = 0
b_1 = 2
gamma = 0.55
Lx = 3500 Ly = 3500 Lz = 3500
nx = 700 ny = 700 nz = 700
xoffset = 857.220397 yoffset = 15.9954215 zoffset = 262.898189
bins = 400 dk = 0.001
kx_ny = 0.628318531 ky_ny = 0.628318531 kz_ny = 0.628318531
############################
A(data) = 3.08487641 (not used)
A(ran) = 3.08566484 (used)
Ngal = 188125
weighted Ngal = 0
Nran = 9360983
weighted Nran = 0
SN(data) = 3439.67036
SN(ran) = 69.2924358
SN(data+ran) = 3508.96279
############################
13 columns: k_central k_mean P_0(k) sigma^{lin}_{P_0(k)} P^img_1(k) sigma^{lin}_{P_1(k)} P_2(k) sigma^{lin}_{P_2(k)} P^img_3(k) sigma^{lin}_{P_3(k)} P_4(k) sigma^{lin}_{P_4(k)} N_modes
### header ###
0.00050000 0 0 0 0 0 0 0 0 0 0 0 0
0.00150000 0.00179520 1957.08721747 0 -9506.94896550 0 -11765.25190061 0 24377.93645982 0 3568.58062822 0 3
0.00250000 0.00253879 10220.05584787 0 -19849.30309332 0 -13003.40957863 0 11745.80557484 0 36741.19097932 0 6
0.00350000 0.00331552 17829.69537648 0 -20958.53050745 0 -12266.47251670 0 -12595.14914408 0 -53110.27619982 0 7
0.00450000 0.00420575 34342.54851983 0 -24933.89904498 0 -30284.89841896 0 12461.61021339 0 7695.87780102 0 24
0.00550000 0.00557378 48450.80165881 0 -20287.68847183 0 -42434.91779409 0 13051.63197026 0 19725.76834179 0 45
0.00650000 0.00659388 72380.68578049 0 -16231.16243603 0 -52834.09341136 0 -9379.74976182 0 17989.87464940 0 40
0.00750000 0.00754703 65911.69128481 0 -7242.49739444 0 -35447.05486066 0 -10172.14819446 0 10914.61565654 0 57
0.00850000 0.00846663 79727.01306573 0 -8164.47804869 0 -31755.28794108 0 -27261.72540486 0 9219.80654257 0 75
0.00950000 0.00948925 72649.78695899 0 -904.17209130 0 -18024.04622762 0 -27241.82945306 0 6913.85448902 0 112
0.01050000 0.01054430 85735.36569446 0 -8045.50700136 0 13622.31980787 0 -31911.53298624 0 715.59443838 0 105
0.01150000 0.01145670 86235.79946500 0 -2452.31656673 0 15974.31356683 0 -17183.35795945 0 -22782.55090157 0 144
0.01250000 0.01249090 90081.67570610 0 1060.90947697 0 13837.46586286 0 -4330.02230874 0 -18565.84559286 0 169
0.01350000 0.01339930 83757.34838533 0 3852.08108030 0 4812.23498444 0 2435.42186868 0 -39034.50854145 0 180
0.01450000 0.01448870 83894.70913726 0 10377.11021988 0 -1002.32208129 0 -9962.33020791 0 -25902.95554450 0 267
0.01550000 0.01550050 77563.97464557 0 7109.01466701 0 -8121.87598242 0 13315.78726244 0 -44599.75471837 0 238
0.01650000 0.01653350 69025.46394380 0 9007.24583725 0 -250.11347129 0 -18996.81214188 0 -2822.52739855 0 315
0.01750000 0.01747870 67921.29482249 0 6259.99707664 0 -13332.53583203 0 -306.26614201 0 -18314.39223600 0 297
0.01850000 0.01844180 67182.44684994 0 3775.06014150 0 26991.38775478 0 -5572.93478201 0 30154.16965096 0 388
0.01950000 0.01947590 64507.17197597 0 5750.80683918 0 19240.95907576 0 -1865.44219206 0 7045.87593185 0 399
0.02050000 0.02045430 62809.49649607 0 7357.73654573 0 46283.26697835 0 -3252.92067439 0 26876.39589780 0 462
0.02150000 0.02154770 58233.76480300 0 8863.26434204 0 55059.06781705 0 2695.27199163 0 37576.48373514 0 571
0.02250000 0.02255340 52697.40709847 0 5073.44522613 0 53752.67938909 0 9189.85020838 0 10411.27055746 0 510
0.02350000 0.02348930 51731.49798115 0 685.99443281 0 55150.11708797 0 11471.98332303 0 30069.19033143 0 555
0.02450000 0.02439640 47924.28957857 0 -950.29023312 0 43734.67423811 0 9918.09824728 0 133.42315198 0 592
0.02550000 0.02547300 52836.79116753 0 -4319.79331657 0 38585.33213824 0 13148.86359908 0 4845.99065859 0 837
0.02650000 0.02652900 51444.52416799 0 -3636.17066106 0 29777.38303845 0 10103.83875996 0 -10794.04843680 0 723
0.02750000 0.02749970 56718.86230399 0 892.91233147 0 17591.95561352 0 2407.69118332 0 -18066.98551341 0 826
0.02850000 0.02848090 53351.05093847 0 -1068.28446791 0 15585.83667756 0 2015.24634435 0 -20118.74149134 0 831
0.02950000 0.02946900 52885.01355917 0 2443.41397135 0 11224.25062157 0 -3856.36376823 0 -12504.88671871 0 996
0.03050000 0.03053250 54311.67694994 0 -1713.45735353 0 9073.56567656 0 -1112.22417162 0 -17946.14851806 0 1041
0.03150000 0.03150510 55095.37511891 0 -1151.90816496 0 12302.10537952 0 -1094.69550087 0 -17823.51301858 0 1036
0.03250000 0.03246190 54064.27022736 0 2493.64843946 0 7249.38791334 0 -1725.59725632 0 -17607.13049201 0 1059
0.03350000 0.03345080 55013.09355556 0 2926.23364220 0 17751.68526041 0 -896.93536036 0 -14776.39741842 0 1302
0.03450000 0.03451200 49771.24090018 0 3466.70661064 0 19242.98239289 0 -2238.63179633 0 -6597.61002135 0 1339
0.03550000 0.03553350 49097.70110837 0 3528.14800754 0 21593.17764773 0 1828.20191619 0 -5400.93034453 0 1365
0.03650000 0.03647120 47567.51132436 0 1965.73127788 0 27337.37498428 0 4116.80964567 0 686.51487494 0 1308
0.03750000 0.03744890 44341.33215806 0 546.15286926 0 21268.88487414 0 4459.67197427 0 746.26342984 0 1579
0.03850000 0.03847530 46179.62817861 0 -418.73334884 0 24671.76706993 0 3259.77747134 0 -163.66724684 0 1662
0.03950000 0.03950240 47056.84856166 0 -1236.37041455 0 17780.57373279 0 2553.10024118 0 -2399.99133757 0 1683
0.04050000 0.04050350 48240.15186411 0 -1703.88031911 0 17443.46661737 0 1733.25213947 0 -3505.74539063 0 1822
0.04150000 0.04152450 48247.12106756 0 -404.06879589 0 13052.98084835 0 975.97287191 0 -5557.33275880 0 1887
0.04250000 0.04250150 48721.36412190 0 -84.26846077 0 12566.48548471 0 1005.37391797 0 -5663.97281228 0 1920
0.04350000 0.04349210 47979.81839318 0 1561.88841907 0 16376.50404998 0 -278.58491552 0 -6167.20550486 0 2005
0.04450000 0.04448520 48410.56012919 0 2275.90579415 0 14256.06769609 0 793.34377136 0 -3828.27338206 0 2151
0.04550000 0.04548030 46578.22165353 0 2355.62448914 0 21123.20604066 0 -1611.78566767 0 2308.66105038 0 2274
0.04650000 0.04648670 45620.85543077 0 1861.03585698 0 20240.14051924 0 -1033.98811847 0 4478.93844962 0 2311
0.04750000 0.04749250 45555.99687605 0 976.60234835 0 25410.61504248 0 1239.27050244 0 7992.34996405 0 2568
0.04850000 0.04851840 45150.20938466 0 423.41395580 0 22908.33378325 0 1304.63488644 0 6090.08340019 0 2493
0.04950000 0.04949480 43892.94260040 0 794.21042553 0 21772.69083990 0 4342.52191235 0 5311.25243300 0 2644
0.05050000 0.05050630 41848.26823244 0 1358.92722947 0 19888.75777739 0 4239.54631100 0 4958.11614963 0 2829
0.05150000 0.05149060 39540.56263736 0 2293.32880279 0 14923.08791046 0 4884.56857190 0 3016.34993911 0 2784
0.05250000 0.05249300 37906.28442758 0 2402.17202382 0 13389.75074425 0 4495.70950051 0 2017.21345823 0 3055
0.05350000 0.05348950 33313.35453890 0 3049.92576284 0 9440.08957495 0 2433.79197432 0 -2036.03030756 0 3009
0.05450000 0.05448610 31829.02660987 0 2292.35086617 0 10272.83070305 0 -714.65696811 0 3045.45198385 0 3336
0.05550000 0.05550870 29868.76952890 0 600.43734384 0 8304.64896331 0 -1543.29638276 0 1119.35973670 0 3349
0.05650000 0.05647670 29946.89205148 0 -436.25639926 0 9915.80515454 0 -142.89340022 0 2671.58794054 0 3324
0.05750000 0.05747970 32307.76592451 0 -1757.88040522 0 9568.21051198 0 1746.05524065 0 4600.28127426 0 3639
0.05850000 0.05849280 33621.57318195 0 -1176.55891201 0 11592.59550538 0 1103.48456568 0 2129.01297040 0 3846
0.05950000 0.05951020 34732.82391321 0 -289.09492396 0 11835.16874815 0 1731.75713292 0 5590.81865733 0 3787
0.06050000 0.06049470 34379.08063471 0 531.62994852 0 13450.11303867 0 556.43581655 0 4782.64959172 0 3930
0.06150000 0.06148310 33985.65785912 0 1385.08422372 0 14442.43768521 0 -751.18121453 0 8249.88451295 0 4083
0.06250000 0.06249100 34197.09449937 0 909.17642901 0 18768.40211903 0 812.38318557 0 11773.12035612 0 4303
0.06350000 0.06350600 33036.49731140 0 327.12204538 0 17133.56187671 0 1982.24379381 0 10108.43618611 0 4470
0.06450000 0.06451750 33336.84749893 0 -227.20165290 0 17975.59902297 0 1339.32353460 0 10272.86442500 0 4479
0.06550000 0.06550280 32793.58684910 0 183.45641245 0 15735.33733229 0 1382.06048868 0 8447.73120646 0 4636
0.06650000 0.06648880 33593.47155512 0 -102.92805339 0 17031.83398760 0 -602.43593154 0 8354.53497125 0 4653
0.06750000 0.06749660 32871.14733914 0 491.48846069 0 15201.74364209 0 482.66230174 0 6943.37243783 0 5220
0.06850000 0.06852730 33471.73530770 0 363.63280302 0 14883.74563291 0 594.29882447 0 6520.67900775 0 5029
0.06950000 0.06949320 32067.66562489 0 781.15890596 0 13856.35015609 0 1365.61541666 0 5943.17933579 0 5040
0.07050000 0.07048030 32249.98897975 0 9.86399700 0 14446.03469344 0 2655.31147828 0 8097.19151342 0 5475
0.07150000 0.07148790 32231.89153207 0 460.53058451 0 12544.79102880 0 3403.84889176 0 7761.28714762 0 5509
0.07250000 0.07249820 31396.48636975 0 234.96219816 0 11259.98465025 0 2694.21537046 0 7784.09442796 0 5916
0.07350000 0.07351270 31456.28663163 0 639.19623162 0 12118.32074007 0 3.80685994 0 8072.02369643 0 5721
0.07450000 0.07449140 30801.74353957 0 774.04357405 0 11732.76641999 0 545.14683102 0 7885.20408128 0 6028
0.07550000 0.07549160 29631.25457895 0 1221.81377186 0 10580.26250055 0 -37.35863992 0 7583.52749696 0 6183
0.07650000 0.07648840 28611.83996416 0 744.08611579 0 9257.99103311 0 -89.68488074 0 5863.35947495 0 6330
0.07750000 0.07749960 27984.49924686 0 475.39522104 0 10218.24610310 0 1449.87533454 0 3817.51607931 0 6583
0.07850000 0.07848650 27375.93041629 0 149.88845717 0 8230.73044410 0 1540.72227374 0 2469.08761762 0 6549
0.07950000 0.07947320 26883.58991427 0 169.71921319 0 6833.52879889 0 997.81008409 0 2066.46998973 0 6828
0.08050000 0.08048110 26563.90580748 0 730.95591167 0 7145.27700626 0 602.75066976 0 1857.65242111 0 7147
0.08150000 0.08149960 25960.17045672 0 840.68377191 0 7260.28010389 0 11.88282911 0 2938.63207995 0 7386
0.08250000 0.08250610 25179.05763742 0 827.63674861 0 7798.30261048 0 -174.53583203 0 2990.28287006 0 7227
0.08350000 0.08350160 25530.21556626 0 420.24971262 0 8273.18638191 0 -31.72403893 0 4710.28228231 0 7798
0.08450000 0.08449610 24853.86561177 0 360.55174065 0 8687.06714183 0 420.11145262 0 3388.16818399 0 7371
0.08550000 0.08548940 24940.86824843 0 560.96917099 0 9523.65257248 0 55.85535551 0 4258.11586601 0 8256
0.08650000 0.08650700 23952.70264267 0 395.14484328 0 8561.28426015 0 1712.56934212 0 4065.29374337 0 8037
0.08750000 0.08749060 23643.35993455 0 402.31525438 0 8743.67505891 0 1669.28159616 0 3759.87402236 0 8155
0.08850000 0.08849210 23272.75567995 0 352.80805636 0 7085.21820941 0 915.96915425 0 1293.34927311 0 8718
0.08950000 0.08949900 22496.70115348 0 532.71017505 0 6580.42306638 0 270.60967383 0 708.89501055 0 8571
0.09050000 0.09049190 21849.68929741 0 853.07658934 0 6298.97965338 0 -451.36833010 0 695.77492301 0 8932
0.09150000 0.09150830 20863.88422830 0 744.55709905 0 5619.76333296 0 -86.49860588 0 373.38743972 0 9285
0.09250000 0.09250820 20093.22521418 0 776.55136323 0 5345.33408601 0 440.44916198 0 -187.75596135 0 9204
0.09350000 0.09350330 19851.32641045 0 385.55319601 0 5457.40337380 0 834.79929125 0 -297.67154046 0 9349
0.09450000 0.09448040 18977.81544215 0 773.23761939 0 5128.72674643 0 213.77132341 0 -647.22880063 0 9564
0.09550000 0.09549270 18658.80577440 0 761.12919043 0 5393.06188902 0 -75.41453741 0 114.50401274 0 10155
0.09650000 0.09649430 18040.90720372 0 574.06228096 0 6403.87740600 0 -448.96395491 0 1848.49129076 0 9913
0.09750000 0.09749140 17644.89907847 0 475.77740317 0 6230.62525628 0 -525.38239484 0 2006.34374897 0 10476
0.09850000 0.09850240 17401.98861617 0 123.71572601 0 6415.50023886 0 355.00672765 0 1744.75132516 0 10575
0.09950000 0.09950330 17444.14105641 0 359.83121494 0 6873.34318378 0 -222.59973049 0 1416.01849454 0 10882
0.10050000 0.10051200 17073.53680181 0 4.15418481 0 5564.43685006 0 491.00286458 0 168.35797039 0 10875
0.10150000 0.10150300 16880.87204828 0 334.29920087 0 6447.28879912 0 171.17487746 0 108.77892451 0 11118
0.10250000 0.10250800 16771.72532968 0 18.02056163 0 4565.96356758 0 -661.06266949 0 -638.10588850 0 11575
0.10350000 0.10349800 16601.99150364 0 70.38221049 0 5679.06900622 0 -184.08139263 0 -1015.11956215 0 11364
0.10450000 0.10450100 16865.13513726 0 224.58258128 0 5906.92823718 0 -662.48798400 0 -897.65813421 0 12093
0.10550000 0.10551000 16752.05419090 0 200.59278449 0 6132.98896403 0 397.46716172 0 -860.36165508 0 12067
0.10650000 0.10649700 16728.89845040 0 130.80408036 0 6927.07349427 0 36.33416702 0 1081.20559593 0 12054
0.10750000 0.10749900 16692.59114854 0 -87.86693029 0 6453.56108223 0 777.10103105 0 629.93505949 0 12807
0.10850000 0.10850100 16991.81727100 0 -236.47294162 0 6952.89326900 0 1017.19233814 0 1531.60610600 0 12736
0.10950000 0.10950300 17143.79086888 0 -196.46634161 0 5894.81081570 0 1234.43702263 0 684.92657099 0 12933
0.11050000 0.11050200 17048.47015068 0 128.42331054 0 5765.20611277 0 530.51600003 0 664.45622195 0 13428
0.11150000 0.11150900 16774.08586634 0 596.76951950 0 5099.34368542 0 -22.31718796 0 1236.40413650 0 13453
0.11250000 0.11250000 16078.85161862 0 817.18181936 0 5769.60120720 0 -652.67377185 0 339.52497939 0 13668
0.11350000 0.11349100 15512.77244781 0 617.69623897 0 5735.40714768 0 -739.17619955 0 856.41731074 0 13791
0.11450000 0.11448600 15192.86352801 0 485.05318815 0 6720.09939237 0 -476.79917832 0 -190.14347557 0 14205
0.11550000 0.11549300 15036.61848285 0 172.34390514 0 6947.07061193 0 -320.06516485 0 196.92945642 0 14776
0.11650000 0.11649800 14927.80898377 0 82.19647162 0 7093.01922102 0 61.09743298 0 332.79969806 0 14553
0.11750000 0.11747300 14716.70956304 0 162.62861071 0 6619.41688377 0 704.04466975 0 -87.34300356 0 14568
0.11850000 0.11849100 14739.19086450 0 52.10154020 0 6444.99570637 0 1028.11825065 0 342.32052923 0 16015
0.11950000 0.11950300 14323.96122650 0 145.09769183 0 5252.00296299 0 1321.97921052 0 -496.22639498 0 15270
0.12050000 0.12050700 14209.30658905 0 255.56069063 0 4920.38128513 0 827.38608210 0 -35.60903264 0 15999
0.12150000 0.12150000 13936.60840231 0 91.13559912 0 4272.86359977 0 740.92299667 0 -263.77535818 0 15670
0.12250000 0.12250700 13763.61478756 0 199.60922755 0 4401.16438721 0 208.72764342 0 184.90645639 0 16887
0.12350000 0.12352200 13827.34927721 0 -21.65702454 0 4391.66603734 0 -219.50517934 0 262.16906919 0 16407
0.12450000 0.12449800 13991.91240391 0 -25.54954949 0 4854.94945722 0 -11.90553522 0 556.06037882 0 16306
0.12550000 0.12549900 14080.71354468 0 49.50494988 0 4972.20068500 0 -291.03056401 0 869.22603225 0 17523
0.12650000 0.12650100 14111.62533419 0 239.36853325 0 5152.51196337 0 46.55113169 0 1002.44572845 0 17154
0.12750000 0.12750600 13980.22212715 0 173.67255005 0 5277.08085477 0 -91.06422099 0 918.05429496 0 18007
0.12850000 0.12850300 13885.68825450 0 97.45070911 0 5123.71341620 0 210.56998608 0 597.44171042 0 17496
0.12950000 0.12949900 13826.89965118 0 -28.96592046 0 4936.38797177 0 504.20163667 0 723.99457667 0 18405
0.13050000 0.13049000 13779.01447906 0 -69.74756335 0 4692.15111269 0 515.48387781 0 245.46771034 0 18100
0.13150000 0.13148800 13715.95442846 0 -74.77056053 0 4589.72630322 0 -0.01314594 0 287.18626146 0 19059
0.13250000 0.13249300 14062.72850351 0 -18.19321802 0 5018.05129933 0 -129.10786617 0 -183.81611327 0 18957
0.13350000 0.13349100 13746.64140496 0 296.62953214 0 4415.02410956 0 -79.68519785 0 -211.24217699 0 19468
0.13450000 0.13450700 13501.82003204 0 314.56286632 0 4362.53027065 0 -40.21904832 0 5.67890040 0 19953
0.13550000 0.13551000 13310.05453057 0 295.65047146 0 4501.95930232 0 198.92467192 0 99.04946686 0 19956
0.13650000 0.13649900 13118.17662259 0 193.47520445 0 3864.36711155 0 541.10244489 0 17.20033134 0 19723
0.13750000 0.13749600 12922.13967384 0 150.66743427 0 4058.31329927 0 381.21992515 0 -563.69615286 0 20946
0.13850000 0.13851100 12824.90804502 0 287.81124164 0 3607.39459519 0 422.22469495 0 -75.98129102 0 20955
0.13950000 0.13949800 12394.50352853 0 420.07211034 0 3659.51749263 0 -6.93439116 0 -16.80780782 0 20506
0.14050000 0.14048300 12116.18501643 0 373.53019599 0 3903.90048017 0 81.71132514 0 700.74666283 0 21447
0.14150000 0.14148400 11811.90060114 0 262.76032742 0 3772.63216094 0 141.97503906 0 144.99315378 0 21771
0.14250000 0.14249400 11842.81239065 0 121.73512335 0 4016.79033547 0 569.78296523 0 1084.87117213 0 22470
0.14350000 0.14350900 11639.01939290 0 60.72469300 0 3451.00342157 0 319.17040905 0 786.31948872 0 22519
0.14450000 0.14449900 11437.81174481 0 88.27597757 0 3230.00098755 0 625.81648506 0 699.08866685 0 22218
0.14550000 0.14550500 11384.75587336 0 131.05025061 0 2829.36171420 0 259.64891530 0 815.01237377 0 23559
0.14650000 0.14650700 11152.18680974 0 124.97018263 0 2523.61601431 0 141.84689564 0 -4.23312790 0 23044
0.14750000 0.14750500 11131.96487907 0 203.17813416 0 2603.51455971 0 110.05788575 0 654.97810525 0 23649
0.14850000 0.14849900 10871.48527968 0 175.49241141 0 2378.51045403 0 26.14429232 0 88.46392125 0 23640
0.14950000 0.14949500 10853.96110519 0 176.88063177 0 2545.25426697 0 257.99653964 0 955.05739310 0 24457
0.15050000 0.15050000 10675.20103662 0 293.90367434 0 2851.16857661 0 -55.35683265 0 1024.81462340 0 24591
0.15150000 0.15149900 10517.43850361 0 281.51310504 0 2915.33021099 0 33.34595243 0 1239.74260977 0 25020
0.15250000 0.15250500 10323.62720371 0 224.02729313 0 3435.62621137 0 -133.59288581 0 2012.21136866 0 25297
0.15350000 0.15350100 10266.33360693 0 156.03372093 0 3610.00242616 0 19.73498568 0 1620.98051996 0 25452
0.15450000 0.15450400 10059.80913105 0 111.98981639 0 3411.03166757 0 -40.63708812 0 1891.75655542 0 26061
0.15550000 0.15549900 9971.62622607 0 115.67978480 0 3252.43732641 0 214.55030050 0 1012.24195556 0 26128
0.15650000 0.15649500 9903.66525175 0 52.90670802 0 3224.88649147 0 0.67702889 0 1303.06119534 0 26331
0.15750000 0.15749700 9815.87576954 0 109.43425444 0 2929.61707807 0 120.71447227 0 346.50317537 0 27345
0.15850000 0.15849900 9763.08967370 0 44.17778069 0 2931.59543259 0 51.57536534 0 725.92796860 0 26980
0.15950000 0.15949700 9523.48396272 0 232.90403502 0 2732.05140082 0 -42.56665822 0 281.23995722 0 27777
0.16050000 0.16050000 9500.53055393 0 308.04778515 0 3168.37974024 0 -19.82434885 0 772.90264800 0 28224
0.16150000 0.16150500 9268.79329846 0 243.39043808 0 3180.09249830 0 -162.94784519 0 895.87536700 0 28075
0.16250000 0.16249700 9321.01736176 0 102.24147445 0 3385.42546521 0 154.46677422 0 1409.55512036 0 28590
0.16350000 0.16349900 9234.95893976 0 -106.99649452 0 3454.60042981 0 225.61447302 0 1453.35993626 0 29163
0.16450000 0.16449100 9355.87461967 0 -160.04101291 0 3236.92522840 0 118.61921497 0 869.95442641 0 28996
0.16550000 0.16550500 9508.20791838 0 -104.57368466 0 3311.50694600 0 118.36742439 0 785.78668187 0 30777
0.16650000 0.16650700 9384.02120910 0 23.83366415 0 2700.21787795 0 -28.94838505 0 -21.38522561 0 29211
0.16750000 0.16749900 9414.14615306 0 96.73411762 0 2754.45401772 0 52.37491283 0 95.69615593 0 30922
0.16850000 0.16850800 9291.79166985 0 74.34038083 0 2218.15133070 0 187.15908280 0 -417.77002507 0 30867
0.16950000 0.16949900 9150.08078609 0 115.73936025 0 2077.39590225 0 452.12370183 0 -156.36082386 0 30852
0.17050000 0.17049200 9087.58276802 0 60.83170400 0 2046.96746072 0 431.89165458 0 -381.36942581 0 31257
0.17150000 0.17149500 9054.63642073 0 83.99576259 0 1970.57599835 0 346.92132758 0 252.79211835 0 32608
0.17250000 0.17250900 8963.17124573 0 181.78605175 0 1718.54936831 0 158.02893643 0 335.74587262 0 32361
0.17350000 0.17350400 8904.57373347 0 171.18499405 0 2005.00611154 0 207.11685817 0 705.47672866 0 32508
0.17450000 0.17449800 8548.22262400 0 211.24105293 0 1795.89628599 0 -58.47914821 0 749.36360131 0 32791
0.17550000 0.17549800 8584.49620391 0 199.25964331 0 2111.37638940 0 -87.83309593 0 811.51540733 0 33633
0.17650000 0.17650100 8341.39465055 0 169.93278556 0 2000.72342361 0 -27.92278807 0 603.90508459 0 33984
0.17750000 0.17750300 8223.80620325 0 132.73185196 0 2108.98213080 0 -58.98295417 0 899.52745442 0 34069
0.17850000 0.17849800 8151.31524669 0 90.84682680 0 1827.78601211 0 146.74894342 0 437.51760027 0 34536
