### header ###
fiducial parameters:
Omega_m = 0.31
Omega_nu = 0
Omega_de = 0.69
Omega_k = 0
H_0 = 100
w_de = -1
zeff = 0
beta = 0
fgrowth = 0
b_1 = 2
gamma = 0.55
Lx = 3500 Ly = 3500 Lz = 3500
nx = 700 ny = 700 nz = 700
xoffset = 857.220397 yoffset = 15.9954215 zoffset = 262.898189
bins = 400 dk = 0.001
kx_ny = 0.628318531 ky_ny = 0.628318531 kz_ny = 0.628318531
############################
A(data) = 3.11388525 (not used)
A(ran) = 3.11537194 (used)
Ngal = 189827
weighted Ngal = 0
Nran = 9360983
weighted Nran = 0
SN(data) = 3438.77204
SN(ran) = 69.9595456
SN(data+ran) = 3508.73158
############################
13 columns: k_central k_mean P_0(k) sigma^{lin}_{P_0(k)} P^img_1(k) sigma^{lin}_{P_1(k)} P_2(k) sigma^{lin}_{P_2(k)} P^img_3(k) sigma^{lin}_{P_3(k)} P_4(k) sigma^{lin}_{P_4(k)} N_modes
### header ###
0.00050000 0 0 0 0 0 0 0 0 0 0 0 0
0.00150000 0.00179520 11636.43404323 0 -24068.93097123 0 -4727.10953646 0 -30534.77808471 0 29393.96444202 0 3
0.00250000 0.00253879 29357.09510762 0 -38547.67595830 0 -47102.26079061 0 25650.37812257 0 6977.91495753 0 6
0.00350000 0.00331552 51676.98082511 0 -43907.66785286 0 -41386.05267438 0 -41890.08345316 0 -40718.35802096 0 7
0.00450000 0.00420575 81688.61902480 0 -41079.07050291 0 -77962.79293350 0 -8794.93242624 0 -3783.42318564 0 24
0.00550000 0.00557378 102657.82815044 0 -20734.61674489 0 -81741.89970926 0 -39181.87347254 0 11319.44769262 0 45
0.00650000 0.00659388 114252.22215994 0 1765.74886073 0 -107713.98525575 0 -38901.30683029 0 4638.27467373 0 40
0.00750000 0.00754703 111547.38437454 0 -9176.88973808 0 -88715.26220325 0 -8471.77495838 0 43227.15885761 0 57
0.00850000 0.00846663 96074.51623683 0 4156.32053299 0 -71341.03799438 0 -27569.26960886 0 20171.12292375 0 75
0.00950000 0.00948925 95252.26263585 0 8944.39935901 0 -60136.13253271 0 -24538.11573274 0 27703.93260462 0 112
0.01050000 0.01054430 81114.44658546 0 15112.60528179 0 -39052.94320865 0 -19226.23382330 0 47396.54102675 0 105
0.01150000 0.01145670 65576.38267350 0 14537.87080991 0 -20391.43967808 0 -16257.69037175 0 44050.42411714 0 144
0.01250000 0.01249090 61462.64172548 0 7613.32646205 0 11034.28362422 0 -18339.57129364 0 56403.67445749 0 169
0.01350000 0.01339930 62211.94350321 0 -6435.93574189 0 12962.94323599 0 -2353.34263704 0 30541.07284912 0 180
0.01450000 0.01448870 72038.96999827 0 -6174.66929695 0 37016.13729620 0 -8010.78463125 0 35203.91958535 0 267
0.01550000 0.01550050 77763.83341556 0 -4209.30896054 0 38321.96369162 0 -7036.14152832 0 11335.74663618 0 238
0.01650000 0.01653350 85546.97238821 0 -1500.03111810 0 49108.94175911 0 2331.14235185 0 27038.59848785 0 315
0.01750000 0.01747870 84217.54062625 0 1673.14838001 0 27287.24168202 0 13770.35917800 0 -3354.64856351 0 297
0.01850000 0.01844180 83355.27030868 0 179.55478258 0 23511.16988196 0 29023.47259393 0 4318.05101571 0 388
0.01950000 0.01947590 76950.68474168 0 3728.59129137 0 14315.41833195 0 23228.80473559 0 -9078.00573360 0 399
0.02050000 0.02045430 70770.79978280 0 3704.59250206 0 -4941.68231826 0 13028.25141674 0 -9202.99052908 0 462
0.02150000 0.02154770 64584.28283998 0 6545.07121983 0 -6611.85192583 0 -2796.58397666 0 1061.03986852 0 571
0.02250000 0.02255340 58112.59058812 0 5791.35186637 0 1368.29069153 0 -14819.33670422 0 6177.28836857 0 510
0.02350000 0.02348930 57060.01605367 0 3693.89140257 0 6427.94363922 0 -12834.01297211 0 21494.48473431 0 555
0.02450000 0.02439640 59869.72911039 0 -284.64362627 0 28138.94578790 0 -13957.85323219 0 21292.26542766 0 592
0.02550000 0.02547300 65158.90490535 0 -1068.14620791 0 39705.35057708 0 -6413.98275101 0 32215.03055598 0 837
0.02650000 0.02652900 68307.63598812 0 -942.71066234 0 55040.85796286 0 -87.14606736 0 19419.01098334 0 723
0.02750000 0.02749970 69961.36052366 0 1290.01079984 0 56403.78686400 0 -268.88535801 0 35157.15847831 0 826
0.02850000 0.02848090 70341.96895741 0 2246.72506486 0 62173.61288421 0 8608.65236233 0 21791.35032011 0 831
0.02950000 0.02946900 71088.23575944 0 3917.73772122 0 56181.89641857 0 13024.65440851 0 32078.56905610 0 996
0.03050000 0.03053250 63595.89242121 0 3102.56573021 0 53008.77312372 0 16279.38482767 0 24549.24397696 0 1041
0.03150000 0.03150510 60378.14374295 0 2762.24378868 0 37320.53411799 0 17161.10147100 0 15479.38771514 0 1036
0.03250000 0.03246190 61243.78625575 0 1539.93542819 0 44503.08512208 0 13757.54483617 0 27252.28325824 0 1059
0.03350000 0.03345080 54032.79640531 0 1507.71972320 0 25585.74438087 0 9242.27660338 0 7037.10822428 0 1302
0.03450000 0.03451200 55291.07484814 0 51.71890845 0 27103.79426209 0 7077.60828886 0 18624.63419618 0 1339
0.03550000 0.03553350 52334.33407986 0 706.40071015 0 20791.94406362 0 3492.30157236 0 3759.14338006 0 1365
0.03650000 0.03647120 53907.57555617 0 485.27462897 0 19186.89154574 0 2446.69624136 0 8111.61326831 0 1308
0.03750000 0.03744890 50983.88230103 0 1102.58418955 0 18306.07415446 0 -79.54210436 0 2877.26936761 0 1579
0.03850000 0.03847530 50656.89177127 0 1799.44833162 0 16151.01659632 0 -790.73818852 0 285.61032223 0 1662
0.03950000 0.03950240 49773.37662381 0 2528.86539820 0 19887.18408628 0 -3.27715552 0 1214.14764806 0 1683
0.04050000 0.04050350 47113.83866086 0 3321.26383084 0 17686.93911220 0 -140.14056486 0 4142.14607242 0 1822
0.04150000 0.04152450 43853.82513586 0 2736.87363998 0 19987.11347128 0 4550.30534111 0 8977.73912908 0 1887
0.04250000 0.04250150 43802.90498805 0 1727.63181410 0 22387.77924790 0 4051.52394622 0 8393.39390083 0 1920
0.04350000 0.04349210 41558.25944358 0 2215.83575665 0 21525.50893033 0 4808.24455344 0 8180.60838249 0 2005
0.04450000 0.04448520 40480.84307101 0 1091.15694402 0 21027.21088342 0 689.61954267 0 6500.49079903 0 2151
0.04550000 0.04548030 38257.55476293 0 1216.74423838 0 17908.37993160 0 -2338.41505287 0 2811.66892995 0 2274
0.04650000 0.04648670 37102.57790032 0 1362.05213038 0 17230.34387951 0 -1489.08272429 0 -3473.85566451 0 2311
0.04750000 0.04749250 37025.12981678 0 -625.83109790 0 15150.59868126 0 -3762.70666634 0 -9576.32626181 0 2568
0.04850000 0.04851840 37079.42215981 0 87.31715007 0 13427.51933071 0 -147.89211760 0 -13441.45773761 0 2493
0.04950000 0.04949480 37167.77367456 0 78.03934176 0 10960.44378957 0 1897.37688079 0 -17661.87246107 0 2644
0.05050000 0.05050630 35800.91054567 0 -87.34884870 0 8724.46478681 0 1302.61156931 0 -16836.24666488 0 2829
0.05150000 0.05149060 37281.64146646 0 -6.51266442 0 6633.63630694 0 1724.32706278 0 -14055.75930006 0 2784
0.05250000 0.05249300 36633.50554531 0 118.89348685 0 9914.06285367 0 2528.79795430 0 -9142.20108993 0 3055
0.05350000 0.05348950 37564.45623886 0 -280.81056437 0 10613.15264458 0 1454.75377695 0 -3195.79568738 0 3009
0.05450000 0.05448610 38080.06488789 0 -590.06784354 0 11553.36563433 0 1302.08325873 0 1589.97880525 0 3336
0.05550000 0.05550870 38587.69267490 0 123.40660812 0 11929.36540128 0 2031.72513833 0 4410.29179561 0 3349
0.05650000 0.05647670 38451.79320756 0 825.82025945 0 13462.59016099 0 2844.22185446 0 8095.83139468 0 3324
0.05750000 0.05747970 37242.29918891 0 1513.16019815 0 12834.79981766 0 2603.82929793 0 8324.92709723 0 3639
0.05850000 0.05849280 36800.87883470 0 1840.20693117 0 12965.41617915 0 2876.74105703 0 10671.96372921 0 3846
0.05950000 0.05951020 33898.88003548 0 1499.91871159 0 14068.23642237 0 604.80433665 0 9890.13150827 0 3787
0.06050000 0.06049470 34387.51112276 0 899.48136775 0 12333.46679506 0 2150.33648484 0 10944.78556310 0 3930
0.06150000 0.06148310 32652.62908893 0 260.03896588 0 12904.82907171 0 -204.85861144 0 10124.79133293 0 4083
0.06250000 0.06249100 33589.53732736 0 -157.75466455 0 11022.64955071 0 833.47514260 0 9576.98946020 0 4303
0.06350000 0.06350600 33511.41480478 0 -122.82209428 0 14313.61982783 0 908.14903353 0 9278.55018329 0 4470
0.06450000 0.06451750 33696.09869629 0 949.15717553 0 13519.35544718 0 -101.52016189 0 7395.50513219 0 4479
0.06550000 0.06550280 32904.19485229 0 983.01851179 0 14641.62201616 0 -300.51542510 0 8460.64671415 0 4636
0.06650000 0.06648880 32124.31850458 0 1214.60851474 0 16124.26384758 0 582.90192870 0 7599.18572343 0 4653
0.06750000 0.06749660 31051.84801833 0 535.64173676 0 13958.64007774 0 726.20786080 0 5853.43398035 0 5220
0.06850000 0.06852730 31138.51343547 0 244.08848249 0 14585.53116901 0 2120.09913437 0 7394.62836143 0 5029
0.06950000 0.06949320 31054.32096149 0 -501.83435562 0 11506.60452729 0 1172.63592491 0 5090.48605264 0 5040
0.07050000 0.07048030 30863.00508605 0 24.88016873 0 12054.92346994 0 1888.01341873 0 3685.21362020 0 5475
0.07150000 0.07148790 30554.78644301 0 69.90347117 0 10801.90565166 0 1604.25443168 0 3792.26957777 0 5509
0.07250000 0.07249820 29751.86676129 0 777.49670196 0 8448.78782763 0 2254.96446184 0 4008.00014659 0 5916
0.07350000 0.07351270 29173.53528119 0 944.68452060 0 8215.74665668 0 1651.62253386 0 5044.82652937 0 5721
0.07450000 0.07449140 28476.50252936 0 1179.25666819 0 8334.30179994 0 1608.49215700 0 6511.22562048 0 6028
0.07550000 0.07549160 27360.98035081 0 792.00838205 0 8113.17571876 0 552.10591789 0 7307.28850525 0 6183
0.07650000 0.07648840 27832.52564898 0 563.95693595 0 11009.75652433 0 -634.38972937 0 9196.72948662 0 6330
0.07750000 0.07749960 26923.15700484 0 718.29331862 0 12671.81038206 0 -2139.00590890 0 9479.12835494 0 6583
0.07850000 0.07848650 27301.62971495 0 749.17251024 0 14046.31715345 0 -1025.71050327 0 10423.29805374 0 6549
0.07950000 0.07947320 26376.97378582 0 1069.05557655 0 17024.63997113 0 -805.78717172 0 11794.70240552 0 6828
0.08050000 0.08048110 25693.42981487 0 672.14145485 0 14510.10640261 0 1064.30864975 0 9230.10297864 0 7147
0.08150000 0.08149960 25726.92695405 0 4.17021398 0 14987.83405867 0 3085.96328908 0 9984.76654677 0 7386
0.08250000 0.08250610 25084.29895176 0 -105.34715384 0 11813.92391827 0 2878.88802132 0 5894.09141405 0 7227
0.08350000 0.08350160 25171.75121444 0 224.83999218 0 10730.10037479 0 1554.21105462 0 4454.46755298 0 7798
0.08450000 0.08449610 23928.53524360 0 741.37037457 0 9169.24609559 0 177.86980904 0 3837.76049127 0 7371
0.08550000 0.08548940 23403.59685446 0 904.75548108 0 7771.80839671 0 -1344.13453311 0 1693.22418221 0 8256
0.08650000 0.08650700 22602.13845734 0 355.48333124 0 9007.27955920 0 -792.81208858 0 1388.84984172 0 8037
0.08750000 0.08749060 22327.97898601 0 331.93866422 0 8601.41338326 0 -285.21465132 0 -822.34914650 0 8155
0.08850000 0.08849210 22685.54408576 0 326.95793188 0 10020.47809414 0 -385.42730072 0 423.82648768 0 8718
0.08950000 0.08949900 21768.41939262 0 562.82612649 0 8628.78436779 0 754.13076128 0 -540.93608326 0 8571
0.09050000 0.09049190 21665.34262542 0 577.05566625 0 9947.80728717 0 870.35234545 0 782.07501900 0 8932
0.09150000 0.09150830 21220.77488901 0 404.86350990 0 7797.14482346 0 2225.68256669 0 722.86938753 0 9285
0.09250000 0.09250820 20954.25906018 0 176.19382801 0 8114.83933507 0 2034.65894817 0 1270.78928709 0 9204
0.09350000 0.09350330 20811.72760891 0 41.48789297 0 6716.00779550 0 1295.02413007 0 2308.63856908 0 9349
0.09450000 0.09448040 20773.05977039 0 60.99154605 0 6576.10665650 0 1048.90446199 0 1481.22550943 0 9564
0.09550000 0.09549270 20497.55142098 0 344.97219874 0 6532.08826824 0 -123.66401902 0 3432.99589910 0 10155
0.09650000 0.09649430 20017.68804127 0 520.95020626 0 6272.45171765 0 -201.34703215 0 2197.19875774 0 9913
0.09750000 0.09749140 19377.30816913 0 720.16488697 0 7372.16954127 0 -528.60059315 0 3639.38548717 0 10476
0.09850000 0.09850240 19075.60910351 0 572.45149571 0 7466.11890008 0 -532.31000789 0 2812.24220313 0 10575
0.09950000 0.09950330 18699.72174306 0 219.73673675 0 8155.32815900 0 261.03151534 0 3594.13062733 0 10882
0.10050000 0.10051200 18674.09305940 0 -1.72799151 0 7623.24071600 0 -215.45067663 0 1550.77141550 0 10875
0.10150000 0.10150300 18652.73582301 0 70.19606531 0 7227.28879400 0 -66.47338660 0 2067.59405481 0 11118
0.10250000 0.10250800 18586.41598369 0 224.76130763 0 7939.97977230 0 -343.87848342 0 1400.45019327 0 11575
0.10350000 0.10349800 18365.53719683 0 486.32562981 0 6906.79536036 0 -102.06926768 0 274.68216159 0 11364
0.10450000 0.10450100 18023.70900810 0 305.36913808 0 7116.90560382 0 624.95994747 0 558.60188995 0 12093
0.10550000 0.10551000 17366.58056637 0 411.01439398 0 6270.49584443 0 635.24963915 0 50.33372306 0 12067
0.10650000 0.10649700 17564.30361272 0 202.42163836 0 6113.90233909 0 1602.26483650 0 906.83724959 0 12054
0.10750000 0.10749900 16720.13074283 0 436.44973845 0 6026.67488942 0 528.76358258 0 894.71533184 0 12807
0.10850000 0.10850100 16698.43628692 0 406.22700083 0 5703.19144268 0 1084.20235341 0 2063.97456527 0 12736
0.10950000 0.10950300 16194.96754068 0 342.88256177 0 5624.61929407 0 336.33825491 0 1867.17325227 0 12933
0.11050000 0.11050200 15988.58919325 0 269.01912175 0 5714.30844626 0 55.88323233 0 2332.18773236 0 13428
0.11150000 0.11150900 15825.93697718 0 133.74351053 0 5850.51141116 0 -295.38519210 0 2214.43067531 0 13453
0.11250000 0.11250000 15952.39429790 0 30.40135156 0 6173.94989530 0 -416.98317952 0 2060.74849851 0 13668
0.11350000 0.11349100 15678.12242006 0 84.05320231 0 6268.87719072 0 -241.13443948 0 1957.52560285 0 13791
0.11450000 0.11448600 15761.30323547 0 133.24442564 0 6111.17086097 0 -35.19177968 0 1759.13935810 0 14205
0.11550000 0.11549300 15541.09888765 0 242.99589124 0 5435.90000895 0 756.34854167 0 1331.41011648 0 14776
0.11650000 0.11649800 15365.96954926 0 304.60927009 0 5263.19865112 0 713.73073849 0 1122.36885890 0 14553
0.11750000 0.11747300 15094.05820808 0 121.46984399 0 4445.64364215 0 1018.98072568 0 877.93641250 0 14568
0.11850000 0.11849100 14889.14114526 0 158.90121093 0 4528.29614698 0 568.63192259 0 521.12893260 0 16015
0.11950000 0.11950300 14752.11761285 0 237.09342554 0 3528.28289535 0 115.76521375 0 -274.60122890 0 15270
0.12050000 0.12050700 14457.72497020 0 274.84964728 0 4027.35654715 0 -30.06278316 0 37.05233219 0 15999
0.12150000 0.12150000 14250.44737072 0 256.73983489 0 3456.27528677 0 -432.55148078 0 -135.50042424 0 15670
0.12250000 0.12250700 14287.54151813 0 -126.57759569 0 4080.69343487 0 349.61795969 0 424.82128527 0 16887
0.12350000 0.12352200 14288.32836368 0 -136.50196622 0 3343.83505750 0 522.26873459 0 -50.88260404 0 16407
0.12450000 0.12449800 14618.24146264 0 -183.33276529 0 3312.83334279 0 701.22663862 0 220.11105042 0 16306
0.12550000 0.12549900 14605.76434033 0 -47.96318223 0 3179.17076494 0 437.42767507 0 470.17393878 0 17523
0.12650000 0.12650100 14565.74762373 0 86.60572928 0 2937.73282789 0 461.06226729 0 692.84223724 0 17154
0.12750000 0.12750600 14545.96407844 0 191.06071267 0 3119.48290956 0 148.72504982 0 914.04925110 0 18007
0.12850000 0.12850300 14331.15524297 0 222.45585016 0 3001.34367038 0 116.00801180 0 617.30843652 0 17496
0.12950000 0.12949900 14196.49224721 0 249.30189630 0 3442.17951075 0 -260.25815857 0 767.47903402 0 18405
0.13050000 0.13049000 13956.72916712 0 261.12930900 0 3189.27610995 0 -420.64650759 0 607.72016145 0 18100
0.13150000 0.13148800 13831.28350496 0 147.21992669 0 3855.38583162 0 -519.86660753 0 1019.03917706 0 19059
0.13250000 0.13249300 13833.19441559 0 112.97753237 0 3876.69810541 0 -214.36033351 0 170.25314410 0 18957
0.13350000 0.13349100 13741.80792514 0 135.65891741 0 4098.83584515 0 -15.98566662 0 498.54196903 0 19468
0.13450000 0.13450700 13419.87568821 0 204.86085957 0 3927.60701257 0 157.30728665 0 496.32531270 0 19953
0.13550000 0.13551000 13442.13217666 0 395.44272052 0 4137.09902024 0 105.77036434 0 666.65714136 0 19956
0.13650000 0.13649900 13122.67288288 0 485.69840150 0 4170.62988137 0 284.71331830 0 1283.42377851 0 19723
0.13750000 0.13749600 12539.73273597 0 487.97912953 0 3913.26394223 0 152.77168408 0 936.95432510 0 20946
0.13850000 0.13851100 12286.14365548 0 415.02730629 0 4165.39173813 0 143.45768089 0 1414.47852539 0 20955
0.13950000 0.13949800 11943.52862120 0 291.24863264 0 4004.76283918 0 41.64076582 0 1105.25047191 0 20506
0.14050000 0.14048300 11748.27851800 0 136.57390638 0 4396.37587000 0 -160.41757471 0 1173.93984039 0 21447
0.14150000 0.14148400 11744.79391628 0 9.62262650 0 4439.87718833 0 -201.15144483 0 666.82912331 0 21771
0.14250000 0.14249400 11755.02290844 0 0.46394325 0 4372.63561566 0 141.26912619 0 384.14024621 0 22470
0.14350000 0.14350900 11710.62233805 0 184.73672257 0 4261.20704496 0 75.73062451 0 248.92533450 0 22519
0.14450000 0.14449900 11513.34891772 0 285.88684224 0 4313.49855216 0 -78.53527928 0 438.77318096 0 22218
0.14550000 0.14550500 11318.88566008 0 315.98930489 0 4312.68922531 0 271.92033370 0 477.03748011 0 23559
0.14650000 0.14650700 10927.37379512 0 292.79871837 0 4163.48082751 0 437.51760027 0 383.21514066 0 23044
0.14750000 0.14750500 10734.59663508 0 173.20044272 0 3962.74528675 0 541.61951482 0 461.71197691 0 23649
0.14850000 0.14849900 10692.81513631 0 76.20689088 0 3911.56660397 0 511.41925850 0 635.50367786 0 23640
0.14950000 0.14949500 10536.72746026 0 43.40521077 0 3635.37257486 0 382.95323349 0 885.38109548 0 24457
0.15050000 0.15050000 10541.15627665 0 -11.28359002 0 3689.63119594 0 219.27137381 0 914.08297305 0 24591
0.15150000 0.15149900 10583.47732665 0 32.66926525 0 3747.66667566 0 -452.85546819 0 953.39490086 0 25020
0.15250000 0.15250500 10644.19932190 0 47.08045393 0 3818.78627284 0 -119.87029940 0 1110.41892311 0 25297
0.15350000 0.15350100 10625.16890022 0 105.34569255 0 4283.95812204 0 -50.96600967 0 1231.04234611 0 25452
0.15450000 0.15450400 10625.31502868 0 115.79106725 0 3407.97421057 0 242.30009496 0 1599.11745429 0 26061
0.15550000 0.15549900 10408.87629885 0 123.20989673 0 3835.93950586 0 506.90613723 0 1110.78761646 0 26128
0.15650000 0.15649500 10403.58195236 0 211.43326805 0 3183.10499270 0 304.97459124 0 1295.67608781 0 26331
0.15750000 0.15749700 10031.41524730 0 192.47029027 0 3361.38171329 0 161.49218092 0 705.73863582 0 27345
0.15850000 0.15849900 9990.18454042 0 239.20441975 0 2996.67880033 0 -66.37469369 0 1038.06285436 0 26980
0.15950000 0.15949700 9716.39601057 0 202.45086406 0 3236.37443651 0 -61.82065645 0 1044.56894300 0 27777
0.16050000 0.16050000 9595.52529326 0 163.07823674 0 3330.18890752 0 -90.21982330 0 1221.86997511 0 28224
0.16150000 0.16150500 9493.80864479 0 119.84894216 0 3395.37344110 0 158.71798832 0 1036.26322617 0 28075
0.16250000 0.16249700 9355.02033022 0 200.88728954 0 3363.28138327 0 183.36873537 0 820.23365604 0 28590
0.16350000 0.16349900 9282.48441105 0 170.87700022 0 3555.49651077 0 27.49924035 0 1071.48580524 0 29163
0.16450000 0.16449100 9091.75304945 0 135.95679466 0 3549.28043091 0 110.21716577 0 897.04214655 0 28996
0.16550000 0.16550500 9061.65058679 0 65.84368535 0 3418.83267918 0 -11.68521847 0 596.31427315 0 30777
0.16650000 0.16650700 8924.80690479 0 31.61107039 0 3382.71646838 0 342.93764096 0 660.69734834 0 29211
0.16750000 0.16749900 8958.30404397 0 2.97677161 0 3010.05517470 0 310.15203497 0 896.43065515 0 30922
0.16850000 0.16850800 9008.88697226 0 -18.99085460 0 2915.34145164 0 349.21217219 0 758.08522221 0 30867
0.16950000 0.16949900 9069.72137401 0 43.44668877 0 2739.41402705 0 576.78589063 0 1041.97797301 0 30852
0.17050000 0.17049200 8928.71865124 0 169.78778116 0 2546.17600033 0 261.31140754 0 872.56450551 0 31257
0.17150000 0.17149500 8762.50314888 0 175.88133792 0 2227.75084642 0 251.23978449 0 974.82857367 0 32608
0.17250000 0.17250900 8590.93709678 0 205.14187584 0 2583.41627620 0 -106.35600224 0 1300.86926845 0 32361
0.17350000 0.17350400 8517.26587189 0 182.60774332 0 2145.57044893 0 -57.56303517 0 611.19577065 0 32508
0.17450000 0.17449800 8270.09520296 0 175.53624995 0 2402.55420594 0 -128.20636598 0 828.32355237 0 32791
0.17550000 0.17549800 8209.98020285 0 130.11053221 0 2205.59552383 0 -200.63325083 0 667.12025617 0 33633
0.17650000 0.17650100 8133.56625918 0 69.49847053 0 2383.62495011 0 211.61087034 0 761.62040686 0 33984
0.17750000 0.17750300 8070.04534190 0 85.83630674 0 2193.37693649 0 134.15941460 0 678.10462006 0 34069
