### header ###
fiducial parameters:
Omega_m = 0.31
Omega_nu = 0
Omega_de = 0.69
Omega_k = 0
H_0 = 100
w_de = -1
zeff = 0
beta = 0
fgrowth = 0
b_1 = 2
gamma = 0.55
Lx = 3500 Ly = 3500 Lz = 3500
nx = 700 ny = 700 nz = 700
xoffset = 857.220397 yoffset = 15.9954215 zoffset = 262.898189
bins = 400 dk = 0.001
kx_ny = 0.628318531 ky_ny = 0.628318531 kz_ny = 0.628318531
############################
A(data) = 3.12896337 (not used)
A(ran) = 3.13113525 (used)
Ngal = 191182
weighted Ngal = 0
Nran = 9360983
weighted Nran = 0
SN(data) = 3436.61214
SN(ran) = 70.3135304
SN(data+ran) = 3506.92567
############################
13 columns: k_central k_mean P_0(k) sigma^{lin}_{P_0(k)} P^img_1(k) sigma^{lin}_{P_1(k)} P_2(k) sigma^{lin}_{P_2(k)} P^img_3(k) sigma^{lin}_{P_3(k)} P_4(k) sigma^{lin}_{P_4(k)} N_modes
### header ###
0.00050000 0 0 0 0 0 0 0 0 0 0 0 0
0.00150000 0.00179520 775.35760612 0 -3122.55160721 0 -3641.31887910 0 11855.51432598 0 5659.93741867 0 3
0.00250000 0.00253879 4890.82961436 0 -4581.31829648 0 4425.41047084 0 -2594.98290580 0 1936.71915835 0 6
0.00350000 0.00331552 9701.63703616 0 -4326.02063708 0 1556.97625470 0 -245.67453831 0 -14208.07011747 0 7
0.00450000 0.00420575 16670.33466009 0 -4486.30107585 0 5556.10752787 0 -9156.30810659 0 -9907.89173642 0 24
0.00550000 0.00557378 23014.89515218 0 -707.96990499 0 7438.05099520 0 -19162.16211414 0 -10316.36574333 0 45
0.00650000 0.00659388 32079.58071467 0 -1336.19863369 0 21620.26761599 0 -30004.10696370 0 -31417.95601264 0 40
0.00750000 0.00754703 28351.73130624 0 193.26163208 0 18548.64739724 0 -19950.46894990 0 -16452.26603591 0 57
0.00850000 0.00846663 33648.77555671 0 -2932.31483424 0 21999.63957816 0 -3813.60433285 0 -14453.34111642 0 75
0.00950000 0.00948925 35945.57772058 0 -8771.18093125 0 14391.40513089 0 14847.66314406 0 3421.83393293 0 112
0.01050000 0.01054430 45564.09014458 0 -12992.28133440 0 3046.38495786 0 36103.84608287 0 3915.23105611 0 105
0.01150000 0.01145670 53988.62064794 0 -14632.40468256 0 -14817.42579359 0 35558.56211591 0 19391.58379555 0 144
0.01250000 0.01249090 68220.52094495 0 -13605.23401876 0 -20817.23552777 0 27443.37432067 0 30123.93230049 0 169
0.01350000 0.01339930 76242.86096515 0 -9127.70065048 0 -19324.58951720 0 9355.79593512 0 50539.98900367 0 180
0.01450000 0.01448870 81439.07657857 0 2481.08139195 0 -8468.77370463 0 -11651.38410870 0 53832.82522880 0 267
0.01550000 0.01550050 83912.58177192 0 2785.74798936 0 21414.90092713 0 -12987.11063507 0 62742.05259168 0 238
0.01650000 0.01653350 80630.53657149 0 5750.84056113 0 29767.82848533 0 -7051.32764746 0 58612.79954565 0 315
0.01750000 0.01747870 82621.59303547 0 1288.95417867 0 26274.90867718 0 6728.82213733 0 54212.19719098 0 297
0.01850000 0.01844180 83832.43593221 0 -671.55581695 0 25852.14780319 0 17457.51743078 0 32791.45112546 0 388
0.01950000 0.01947590 85236.84283454 0 -2082.37551052 0 21963.55708931 0 10753.63829742 0 4876.55398793 0 399
0.02050000 0.02045430 86380.12942039 0 -152.67726262 0 3851.83378599 0 -616.21696933 0 -3979.06671161 0 462
0.02150000 0.02154770 82105.64716692 0 2360.05330553 0 915.90957880 0 -11965.44789013 0 -20645.81560412 0 571
0.02250000 0.02255340 82645.76043454 0 4690.92588176 0 7450.22461995 0 -17761.35222004 0 -19827.04660487 0 510
0.02350000 0.02348930 75177.92171490 0 7883.78775929 0 8799.66474020 0 -13940.99225610 0 -26873.02370258 0 555
0.02450000 0.02439640 70091.75207214 0 5572.73245030 0 20549.37082085 0 -9012.34909268 0 -29974.09442625 0 592
0.02550000 0.02547300 66890.30233745 0 3055.46740365 0 21684.00210563 0 -729.52048057 0 -18732.88166272 0 837
0.02650000 0.02652900 69985.07829670 0 -346.52453260 0 30270.96001205 0 8555.63021283 0 -15907.54410148 0 723
0.02750000 0.02749970 66619.06543531 0 -2202.89776766 0 28495.61163560 0 9308.79877441 0 -7178.78538609 0 826
0.02850000 0.02848090 69836.25208102 0 -1564.51873134 0 29695.10147510 0 10324.20047689 0 -9290.24046005 0 831
0.02950000 0.02946900 69780.61085991 0 1171.35449072 0 24513.04908161 0 2149.79693360 0 -2542.60147340 0 996
0.03050000 0.03053250 66535.43499387 0 3976.93098797 0 24715.38079477 0 2514.84830674 0 2025.66642758 0 1041
0.03150000 0.03150510 64448.83299867 0 5204.84843318 0 23744.86301065 0 -665.81409255 0 5554.92725954 0 1036
0.03250000 0.03246190 57448.83016246 0 6073.59336557 0 24769.89795081 0 3045.18220823 0 7705.01645007 0 1059
0.03350000 0.03345080 53583.39518908 0 5248.82185884 0 23019.84103850 0 3975.77320095 0 7689.33574230 0 1302
0.03450000 0.03451200 46529.54963586 0 3804.29707405 0 21849.80170392 0 7842.07370443 0 8120.32477262 0 1339
0.03550000 0.03553350 44905.05079222 0 1978.77043273 0 16643.01987881 0 5142.36165576 0 8157.92474932 0 1365
0.03650000 0.03647120 44232.41025248 0 -481.10771974 0 15740.50803162 0 6287.55915224 0 5298.49429442 0 1308
0.03750000 0.03744890 44689.45511120 0 -1747.80878216 0 11414.76841081 0 5523.02629277 0 3780.87155792 0 1579
0.03850000 0.03847530 45189.88888175 0 -1763.48948993 0 8459.76994340 0 4552.93565338 0 2848.93168712 0 1662
0.03950000 0.03950240 45575.33079531 0 -669.79215885 0 5151.91620888 0 925.58215875 0 -560.92196026 0 1683
0.04050000 0.04050350 45405.48456277 0 1816.19690121 0 6088.38606193 0 -121.52379912 0 -655.58397632 0 1822
0.04150000 0.04152450 42843.51544816 0 2467.40152001 0 4839.78581939 0 -572.64483490 0 15.45252256 0 1887
0.04250000 0.04250150 40636.30127062 0 2718.94480207 0 7010.86130482 0 161.44497019 0 1144.26452246 0 1920
0.04350000 0.04349210 38615.11986268 0 1965.52894617 0 6757.65440646 0 854.55023865 0 1018.27031655 0 2005
0.04450000 0.04448520 37294.45580830 0 1395.07716222 0 7850.66156159 0 -204.20215744 0 3221.28948323 0 2151
0.04550000 0.04548030 36860.67909659 0 440.60091077 0 7696.29370510 0 -1382.85857488 0 3962.84645261 0 2274
0.04650000 0.04648670 37275.45910856 0 -99.33115757 0 10503.87103818 0 -624.05844728 0 5508.73942569 0 2311
0.04750000 0.04749250 37427.09548692 0 -707.80129523 0 10323.06517117 0 -2072.79847610 0 4687.87966541 0 2568
0.04850000 0.04851840 39162.31474027 0 -1566.95795255 0 12098.31238177 0 -1160.68711318 0 5355.93401965 0 2493
0.04950000 0.04949480 40595.72252148 0 -1623.74572004 0 10667.61359738 0 790.44255940 0 1778.30466759 0 2644
0.05050000 0.05050630 42172.67341253 0 -1099.55483418 0 10690.75809723 0 -78.71119546 0 262.49279994 0 2829
0.05150000 0.05149060 42055.20861239 0 -82.84325867 0 10450.95005454 0 589.03819993 0 -4654.31508232 0 2784
0.05250000 0.05249300 41520.04123109 0 1562.96752154 0 8655.87433605 0 -813.37910722 0 -1644.22618568 0 3055
0.05350000 0.05348950 40137.32878467 0 2268.25091101 0 8091.02039617 0 612.96280095 0 -5217.64029371 0 3009
0.05450000 0.05448610 39193.90096882 0 1717.26793413 0 10228.83479609 0 -321.24318505 0 259.62530993 0 3336
0.05550000 0.05550870 37373.36517643 0 1837.13823352 0 10387.04695513 0 956.55352371 0 515.04774056 0 3349
0.05650000 0.05647670 36749.50906086 0 1090.15427797 0 14288.21595718 0 1616.59666618 0 3533.77957356 0 3324
0.05750000 0.05747970 36354.62500068 0 1440.61303833 0 15863.93037665 0 39.08509147 0 5851.60175429 0 3639
0.05850000 0.05849280 34846.91651813 0 1157.05638299 0 18430.62056456 0 -141.11962554 0 6178.13141737 0 3846
0.05950000 0.05951020 34914.24801601 0 212.93951525 0 18358.68039988 0 -235.97048454 0 7983.31248086 0 3787
0.06050000 0.06049470 34329.73417800 0 -389.77855662 0 16813.31573739 0 287.82697855 0 8000.12849436 0 3930
0.06150000 0.06148310 36021.11489349 0 -1342.30230704 0 13967.07056579 0 728.65944673 0 798.88203997 0 4083
0.06250000 0.06249100 35628.36655695 0 -647.82005886 0 12534.56203664 0 894.14093459 0 -744.55822312 0 4303
0.06350000 0.06350600 36346.53173215 0 898.73161635 0 11877.43359490 0 -826.78583135 0 -5392.67970689 0 4470
0.06450000 0.06451750 35408.83664817 0 1614.21364822 0 11828.42435771 0 -2502.30374053 0 -5306.32902798 0 4479
0.06550000 0.06550280 34147.07360362 0 1925.08508484 0 13919.18539368 0 -2099.77603785 0 -6635.82823383 0 4636
0.06650000 0.06648880 33678.78809417 0 915.39138480 0 15930.81224850 0 38.72179364 0 -3844.57232562 0 4653
0.06750000 0.06749660 33401.93086666 0 -239.32357065 0 16738.45300352 0 2481.75583099 0 -3250.22291822 0 5220
0.06850000 0.06852730 33903.03907625 0 -257.58513183 0 16612.55771533 0 3921.06495384 0 -2051.84590313 0 5029
0.06950000 0.06949320 33698.79645247 0 478.48415186 0 15467.58503187 0 1772.24595685 0 -345.67136721 0 5040
0.07050000 0.07048030 32249.98897975 0 1800.93209752 0 14519.09892319 0 1528.81842462 0 1465.83705857 0 5475
0.07150000 0.07148790 30936.40653533 0 1606.73861549 0 14364.87719516 0 -7.95822335 0 -1623.65579484 0 5509
0.07250000 0.07249820 29129.47193032 0 1281.97373457 0 12998.01406627 0 -155.33455245 0 0.20857365 0 5916
0.07350000 0.07351270 28733.91343110 0 617.75581442 0 13744.39327481 0 -1226.23134759 0 -4079.24339093 0 5721
0.07450000 0.07449140 28329.36241129 0 328.27983240 0 14070.48455252 0 -787.90666860 0 -3401.83681527 0 6028
0.07550000 0.07549160 27485.41435440 0 351.56259226 0 15078.32129706 0 -610.27853355 0 -3883.61110561 0 6183
0.07650000 0.07648840 27576.01399930 0 259.36677497 0 13473.38118569 0 2027.58857886 0 -2446.22413403 0 6330
0.07750000 0.07749960 27115.93416488 0 -300.15122801 0 13323.20609192 0 3830.04940487 0 -1589.86639874 0 6583
0.07850000 0.07848650 27336.58813873 0 138.18581570 0 11081.49435729 0 4428.61405630 0 -1989.34788507 0 6549
0.07950000 0.07947320 27046.69175637 0 291.61058159 0 10471.97007140 0 3088.67228591 0 -366.93867840 0 6828
0.08050000 0.08048110 25863.50086043 0 1157.79826594 0 8863.30930464 0 1270.18229195 0 1236.92120644 0 7147
0.08150000 0.08149960 25188.16256451 0 1321.45089994 0 9379.00787888 0 -31.17290983 0 4529.31904620 0 7386
0.08250000 0.08250610 24031.38719779 0 1207.69551454 0 9063.10063073 0 -113.72391158 0 5043.64626104 0 7227
0.08350000 0.08350160 23213.85467012 0 1083.14798037 0 10727.79604139 0 -46.76032020 0 6466.33046146 0 7798
0.08450000 0.08449610 22704.09115947 0 497.74275876 0 9854.15018528 0 1177.07598195 0 6911.67380277 0 7371
0.08550000 0.08548940 22484.78606371 0 256.81627132 0 9745.73410898 0 954.93936627 0 7004.27428350 0 8256
0.08650000 0.08650700 22336.63428707 0 -55.00185290 0 8738.06597420 0 1590.93426056 0 7208.85412680 0 8037
0.08750000 0.08749060 22220.18114550 0 -317.56074787 0 8066.95416295 0 1204.43572583 0 6445.50153566 0 8155
0.08850000 0.08849210 22623.27088071 0 -282.80802800 0 6687.65887436 0 1308.32181988 0 5485.28018761 0 8718
0.08950000 0.08949900 22217.93301536 0 131.28293208 0 5447.14065968 0 446.70683224 0 3500.08010266 0 8571
0.09050000 0.09049190 22185.22272173 0 281.81660261 0 5565.86441270 0 113.24281172 0 3360.58362709 0 8932
0.09150000 0.09150830 21578.11517575 0 643.76218395 0 4809.64963478 0 -303.13224859 0 743.75339253 0 9285
0.09250000 0.09250820 21011.36156589 0 612.25576402 0 5174.81341442 0 -114.43881696 0 826.17096775 0 9204
0.09350000 0.09350330 20132.34267873 0 626.77643663 0 5351.94358864 0 -829.47459500 0 1207.34705437 0 9349
0.09450000 0.09448040 20175.16955801 0 578.03472693 0 6230.19811156 0 -319.68523085 0 486.71568039 0 9564
0.09550000 0.09549270 19524.22347418 0 634.18852172 0 6411.29623548 0 -676.35782294 0 472.39284323 0 10155
0.09650000 0.09649430 19019.29344334 0 585.51425593 0 6910.08887102 0 -91.40054126 0 1416.59176772 0 9913
0.09750000 0.09749140 18894.29740722 0 424.57623909 0 7140.63461751 0 141.50293173 0 1536.40586386 0 10476
0.09850000 0.09850240 18724.22636166 0 471.15749571 0 7831.70982445 0 -345.42294883 0 1551.38965129 0 10575
0.09950000 0.09950330 18512.22768887 0 219.72999236 0 8593.37631799 0 118.34719122 0 2163.43184294 0 10882
0.10050000 0.10051200 18228.51366442 0 192.65126475 0 8507.05936102 0 229.59703557 0 2232.77541730 0 10875
0.10150000 0.10150300 18136.56514144 0 51.67529473 0 8186.01513550 0 1076.94314117 0 1557.17858641 0 11118
0.10250000 0.10250800 18224.46703016 0 17.33971541 0 7789.63606877 0 1164.32908402 0 2231.49398312 0 11575
0.10350000 0.10349800 17829.80778299 0 57.51312668 0 6948.34080546 0 1309.26603454 0 335.95719685 0 11364
0.10450000 0.10450100 17594.87818271 0 224.51288925 0 5558.17580760 0 986.84033304 0 506.67570389 0 12093
0.10550000 0.10551000 16997.99962890 0 289.55466657 0 4525.39605909 0 521.63476189 0 -1022.18431113 0 12067
0.10650000 0.10649700 16996.87556382 0 390.88463665 0 4084.98736345 0 345.86807860 0 33.10349159 0 12054
0.10750000 0.10749900 16131.34545754 0 326.49032081 0 3898.63985563 0 61.52750028 0 -778.79499712 0 12807
0.10850000 0.10850100 16461.59577601 0 385.37671779 0 3661.19234959 0 75.15476597 0 -18.85113331 0 12736
0.10950000 0.10950300 15754.55884504 0 262.63668026 0 3805.78083994 0 -21.15344339 0 -565.81726365 0 12933
0.11050000 0.11050200 15939.13033004 0 224.55335559 0 4493.91099639 0 93.84257263 0 -335.52667993 0 13428
0.11150000 0.11150900 15618.77178420 0 310.93438426 0 4167.30264875 0 -189.57694677 0 -458.47916576 0 13453
0.11250000 0.11250000 15614.94996296 0 370.03547767 0 4575.56308330 0 -328.47654379 0 -710.46757758 0 13668
0.11350000 0.11349100 15246.14421247 0 236.77643919 0 4433.95336539 0 -73.45124536 0 -8.44190855 0 13791
0.11450000 0.11448600 15002.22209161 0 144.20518416 0 4294.43440852 0 591.49765431 0 -710.66204084 0 14205
0.11550000 0.11549300 15073.71263026 0 -84.85488552 0 4082.78419591 0 468.62048084 0 -863.98114462 0 14776
0.11650000 0.11649800 14955.68579758 0 -53.41141323 0 3596.16518511 0 621.97105844 0 -1218.91368397 0 14553
0.11750000 0.11747300 14991.43106691 0 204.08075841 0 3622.17605090 0 44.20543269 0 -589.20456156 0 14568
0.11850000 0.11849100 15008.62926253 0 109.07410399 0 3839.43534823 0 -20.88614072 0 -290.10321033 0 16015
0.11950000 0.11950300 14898.69569838 0 201.75843997 0 3741.36067060 0 -12.02581018 0 -470.91919392 0 15270
0.12050000 0.12050700 14771.67634512 0 200.25444090 0 3899.79764266 0 39.24965460 0 24.08522991 0 15999
0.12150000 0.12150000 14507.52105294 0 218.65988241 0 4461.80769791 0 89.29381850 0 -641.11388664 0 15670
0.12250000 0.12250700 14420.63082279 0 188.47311487 0 3971.60291953 0 -169.45843010 0 -233.38963113 0 16887
0.12350000 0.12352200 14127.58705823 0 153.31685565 0 4074.14013550 0 158.23688847 0 -962.95957056 0 16407
0.12450000 0.12449800 14232.12511003 0 249.38620118 0 4316.18506769 0 -589.68004109 0 -550.55470809 0 16306
0.12550000 0.12549900 13985.95485902 0 95.02036801 0 4362.50778935 0 11.43151698 0 -933.74849151 0 17523
0.12650000 0.12650100 14078.80263406 0 -4.74979317 0 4630.50738408 0 -35.46301658 0 -440.90553240 0 17154
0.12750000 0.12750600 14048.90250311 0 -21.59261562 0 4460.62742958 0 42.75876094 0 -617.13308237 0 18007
0.12850000 0.12850300 14140.96343260 0 68.93981019 0 4734.92178872 0 239.65179765 0 -425.84306042 0 17496
0.12950000 0.12949900 14177.94517351 0 111.58144355 0 4751.38934204 0 382.21921900 0 -185.99117919 0 18405
0.13050000 0.13049000 14053.84838944 0 168.80085203 0 4273.09965343 0 385.90952464 0 232.00815515 0 18100
0.13150000 0.13148800 13909.85565357 0 1.29476560 0 4081.67137149 0 609.71537695 0 874.37425028 0 19059
0.13250000 0.13249300 13947.17461400 0 144.41088807 0 4179.07161007 0 642.16151529 0 393.61611478 0 18957
0.13350000 0.13349100 13629.62623085 0 180.12243544 0 3534.38656869 0 419.75399992 0 1057.04044499 0 19468
0.13450000 0.13450700 13545.99578941 0 391.04650202 0 3974.88518954 0 242.74522473 0 947.78806427 0 19953
0.13550000 0.13551000 13175.39153481 0 344.84742752 0 3712.17994131 0 74.36005197 0 1467.65804399 0 19956
0.13650000 0.13649900 12906.17794980 0 257.39853702 0 3905.06950785 0 33.01424082 0 982.26988445 0 19723
0.13750000 0.13749600 12647.41816997 0 211.18709780 0 3751.84819774 0 -112.21249368 0 1209.67386907 0 20946
0.13850000 0.13851100 12625.72371406 0 50.03202400 0 3507.63381996 0 351.14893632 0 1139.57717111 0 20955
0.13950000 0.13949800 12442.72592016 0 -16.88143408 0 3467.49345619 0 301.67883245 0 1003.21571303 0 20506
0.14050000 0.14048300 12597.50968073 0 184.96153558 0 3060.73926884 0 409.27996157 0 1287.26808106 0 21447
0.14150000 0.14148400 12092.91686941 0 184.15108467 0 2873.52623092 0 494.64820761 0 506.54081609 0 21771
0.14250000 0.14249400 12000.29390739 0 299.56221792 0 2796.29171975 0 69.85727210 0 543.28987552 0 22470
0.14350000 0.14350900 11757.27103859 0 113.62724198 0 2647.08332194 0 170.10813971 0 197.75901644 0 22519
0.14450000 0.14449900 11669.81877590 0 -46.35172254 0 2513.02732132 0 172.44394693 0 81.72301542 0 22218
0.14550000 0.14550500 11673.86541016 0 3.14919195 0 2435.74784755 0 -73.94853174 0 -143.64652382 0 23559
0.14650000 0.14650700 11609.11926195 0 151.95786097 0 2457.26245305 0 13.60422236 0 -574.79292326 0 23044
0.14750000 0.14750500 11484.68525836 0 475.92915195 0 2388.53711448 0 -96.30247663 0 192.22749222 0 23649
0.14850000 0.14849900 11127.07519601 0 363.83063847 0 2251.05271539 0 112.73473431 0 -208.13975739 0 23640
0.14950000 0.14949500 10756.38101620 0 203.32988294 0 2322.95915811 0 320.55975348 0 652.49279737 0 24457
0.15050000 0.15050000 10785.66291135 0 -60.82979309 0 1845.95090369 0 700.63313226 0 529.45263447 0 24591
0.15150000 0.15149900 10864.15637541 0 -18.29202334 0 1873.15327846 0 444.85774520 0 876.33574383 0 25020
0.15250000 0.15250500 10910.89500115 0 35.20077220 0 1725.46236851 0 -20.66571156 0 790.08061045 0 25297
0.15350000 0.15350100 10874.55397733 0 202.74199691 0 1887.66495856 0 -346.39751325 0 694.67446331 0 25452
0.15450000 0.15450400 10612.78170311 0 302.63316370 0 1857.68614306 0 -310.01377497 0 901.66205400 0 26061
0.15550000 0.15549900 10383.67475991 0 278.79511569 0 2295.84670855 0 -301.47088041 0 545.56161103 0 26128
0.15650000 0.15649500 10171.37258955 0 245.76558758 0 2251.14264059 0 89.80088425 0 486.30427257 0 26331
0.15750000 0.15749700 10036.32741167 0 190.99776503 0 2207.65256292 0 386.83687832 0 420.82635800 0 27345
0.15850000 0.15849900 9781.70419131 0 199.26076738 0 2031.20806839 0 360.96876879 0 558.58165678 0 26980
0.15950000 0.15949700 9700.42304588 0 154.99508480 0 2026.14977556 0 344.10104831 0 549.66220042 0 27777
0.16050000 0.16050000 9477.30736952 0 179.12876192 0 1559.50540112 0 114.13307126 0 731.87539690 0 28224
0.16150000 0.16150500 9370.17272740 0 94.07941314 0 1635.25614639 0 49.77989620 0 665.57916295 0 28075
0.16250000 0.16249700 9278.77499631 0 136.88864460 0 1643.42809947 0 47.45589166 0 729.47889016 0 28590
0.16350000 0.16349900 9132.93879372 0 130.73438833 0 1669.49516852 0 -27.01443109 0 918.40050700 0 29163
0.16450000 0.16449100 9116.83094123 0 143.43295146 0 1739.94032665 0 50.75895688 0 591.03903576 0 28996
0.16550000 0.16550500 8911.03710764 0 187.44347126 0 1766.59190953 0 9.98345139 0 918.35779253 0 30777
0.16650000 0.16650700 8784.55730562 0 176.02297012 0 1810.89131406 0 42.12973413 0 472.54796421 0 29211
0.16750000 0.16749900 8705.46808708 0 125.25906736 0 1881.31399089 0 78.07115281 0 1035.32687997 0 30922
0.16850000 0.16850800 8670.27360964 0 97.38854831 0 2009.65974094 0 33.10450325 0 1030.39448243 0 30867
0.16950000 0.16949900 8563.84712852 0 96.07923731 0 1832.36095696 0 134.68547706 0 1161.42899613 0 30852
0.17050000 0.17049200 8538.90412454 0 44.17272240 0 2242.01523220 0 -133.81769882 0 1228.70429075 0 31257
0.17150000 0.17149500 8516.61391414 0 79.26637120 0 2131.03628753 0 -54.87157376 0 1200.14179725 0 32608
0.17250000 0.17250900 8461.66961337 0 179.97518292 0 2498.53812253 0 -243.74564265 0 1364.04172556 0 32361
0.17350000 0.17350400 8416.89810151 0 140.09447819 0 2590.86882764 0 -255.45165632 0 1449.04352638 0 32508
0.17450000 0.17449800 8243.44362008 0 158.56286734 0 2703.35401950 0 -71.32192889 0 1446.72795233 0 32791
0.17550000 0.17549800 8292.22804425 0 86.41306453 0 2801.56358494 0 197.13740846 0 1178.22252832 0 33633
0.17650000 0.17650100 8140.49050003 0 65.41418008 0 2527.11185669 0 118.94519384 0 1173.11927289 0 33984
0.17750000 0.17750300 7989.02273143 0 89.14229452 0 2512.60017660 0 184.39613085 0 672.91481162 0 34069
0.17850000 0.17849800 8017.63018754 0 126.20103389 0 2017.79797207 0 -7.78363356 0 785.74733959 0 34536
