### header ###
fiducial parameters:
Omega_m = 0.31
Omega_nu = 0
Omega_de = 0.69
Omega_k = 0
H_0 = 100
w_de = -1
zeff = 0
beta = 0
fgrowth = 0
b_1 = 2
gamma = 0.55
Lx = 3500 Ly = 3500 Lz = 3500
nx = 700 ny = 700 nz = 700
xoffset = 857.220397 yoffset = 15.9954215 zoffset = 262.898189
bins = 400 dk = 0.001
kx_ny = 0.628318531 ky_ny = 0.628318531 kz_ny = 0.628318531
############################
A(data) = 3.09634079 (not used)
A(ran) = 3.09933839 (used)
Ngal = 189139
weighted Ngal = 0
Nran = 9360983
weighted Nran = 0
SN(data) = 3433.7942
SN(ran) = 69.5994924
SN(data+ran) = 3503.3937
############################
13 columns: k_central k_mean P_0(k) sigma^{lin}_{P_0(k)} P^img_1(k) sigma^{lin}_{P_1(k)} P_2(k) sigma^{lin}_{P_2(k)} P^img_3(k) sigma^{lin}_{P_3(k)} P_4(k) sigma^{lin}_{P_4(k)} N_modes
### header ###
0.00050000 0 0 0 0 0 0 0 0 0 0 0 0
0.00150000 0.00179520 9331.77466450 0 -17324.31571962 0 -17560.36938497 0 35312.95389744 0 25846.30266481 0 3
0.00250000 0.00253879 18881.25825237 0 -20311.96827741 0 -11563.48221999 0 -19818.16649080 0 -23974.50950509 0 6
0.00350000 0.00331552 32737.38359545 0 -21603.63145291 0 -28513.70908328 0 2951.88480716 0 8082.43253901 0 7
0.00450000 0.00420575 48308.27020754 0 -22456.12240434 0 -35465.93915389 0 -11009.17201049 0 364.38143036 0 24
0.00550000 0.00557378 63661.08819545 0 -12100.44810540 0 -48352.22115189 0 -26376.63656630 0 11125.25421059 0 45
0.00650000 0.00659388 79200.16376597 0 -12438.79169241 0 -42728.97321721 0 -25134.20744100 0 -1266.39419265 0 40
0.00750000 0.00754703 73887.04538495 0 -6844.76944962 0 -45377.94496847 0 -19618.08290778 0 21137.59407360 0 57
0.00850000 0.00846663 78552.81469037 0 -3835.80461805 0 -33095.51072774 0 -18931.72877415 0 23597.27326656 0 75
0.00950000 0.00948925 81991.66696850 0 -9040.87786424 0 -21135.57075647 0 -12777.36009242 0 28099.26629082 0 112
0.01050000 0.01054430 88374.89529911 0 -2556.59608356 0 -4757.88643816 0 -9781.09719617 0 22907.65934421 0 105
0.01150000 0.01145670 89599.90141577 0 -650.61560870 0 17668.27963199 0 -13484.73424293 0 38562.06399123 0 144
0.01250000 0.01249090 91060.62397827 0 4241.91808831 0 29379.80122210 0 -7006.57861690 0 32232.00393858 0 169
0.01350000 0.01339930 92257.19124858 0 7208.53938858 0 39314.73796418 0 1693.20170091 0 29532.33685252 0 180
0.01450000 0.01448870 87553.54095020 0 6308.83770407 0 43058.21187712 0 6024.47172188 0 44768.47688584 0 267
0.01550000 0.01550050 79129.23525986 0 2493.17633213 0 34920.31796740 0 28700.97832445 0 -12714.52485484 0 238
0.01650000 0.01653350 83978.90161123 0 -3628.13359579 0 20335.79845696 0 17423.12103954 0 17541.48509174 0 315
0.01750000 0.01747870 86955.53833131 0 -9400.51124372 0 -9869.94329955 0 23092.11842270 0 -31715.60844400 0 297
0.01850000 0.01844180 93035.49390519 0 -691.66534110 0 -10250.37188289 0 -9817.16844437 0 -16840.85533168 0 388
0.01950000 0.01947590 89470.97115189 0 1535.36048335 0 -9818.46111920 0 -16695.85093725 0 -40485.11451829 0 399
0.02050000 0.02045430 86872.24510939 0 10151.71269143 0 -9145.31475018 0 -31003.62562670 0 -37063.34802927 0 462
0.02150000 0.02154770 77394.46563254 0 12448.00902601 0 5538.40350297 0 -29734.33134615 0 -36250.76138792 0 571
0.02250000 0.02255340 69178.11198072 0 10747.77067774 0 17197.85839889 0 -17818.79194527 0 -33726.89807930 0 510
0.02350000 0.02348930 66743.49943890 0 3357.13274732 0 19326.38802131 0 2300.33172819 0 -27985.96053146 0 555
0.02450000 0.02439640 59888.27618410 0 882.58779377 0 34323.43941359 0 10898.24926907 0 -29692.17890591 0 592
0.02550000 0.02547300 63607.69510447 0 -2377.43135156 0 18433.88035327 0 19165.08468333 0 -28929.83797334 0 837
0.02650000 0.02652900 58177.22432983 0 878.35906097 0 19563.00371920 0 17372.98773728 0 -21129.16358555 0 723
0.02750000 0.02749970 56291.60516970 0 8396.69865215 0 7005.21849816 0 5367.86035008 0 -4845.32746020 0 826
0.02850000 0.02848090 48415.05638948 0 3427.89264367 0 6388.03932912 0 3035.42532340 0 -5903.57852327 0 831
0.02950000 0.02946900 47305.49175583 0 2136.99383242 0 4263.69122877 0 6984.09731543 0 2287.89956848 0 996
0.03050000 0.03053250 48123.13669000 0 -2772.27044913 0 3630.67398286 0 3752.48891483 0 2607.84221024 0 1041
0.03150000 0.03150510 49522.71011251 0 -2896.18738279 0 4592.51398461 0 -147.34020165 0 313.42306433 0 1036
0.03250000 0.03246190 51655.96080824 0 -2135.86976735 0 1256.98576799 0 -3862.55736679 0 4282.49683745 0 1059
0.03350000 0.03345080 56693.68324635 0 250.02579421 0 17050.83068733 0 -10068.34078495 0 4006.21288313 0 1302
0.03450000 0.03451200 56932.65948089 0 1534.12401177 0 19588.18277684 0 -9039.06811947 0 1947.53266435 0 1339
0.03550000 0.03553350 55883.11992214 0 1465.55604231 0 22889.33708352 0 -1766.60315018 0 2012.87456705 0 1365
0.03650000 0.03647120 54125.19455432 0 1513.28384531 0 26272.99776656 0 204.20440557 0 1631.29943734 0 1308
0.03750000 0.03744890 54359.67452857 0 244.67524446 0 23976.08319619 0 6814.81311542 0 -1784.72307916 0 1579
0.03850000 0.03847530 52392.89787016 0 1594.03668016 0 17635.90655788 0 6984.02987153 0 -4866.26879251 0 1662
0.03950000 0.03950240 49641.86101026 0 2333.19939093 0 12470.93995350 0 4502.81359177 0 -3961.43013062 0 1683
0.04050000 0.04050350 46660.61562339 0 1928.59216787 0 9087.43663957 0 4167.38133331 0 -2151.13457104 0 1822
0.04150000 0.04152450 44519.38406564 0 1908.84234453 0 7035.11862910 0 4448.29643573 0 872.54202421 0 1887
0.04250000 0.04250150 43572.69646108 0 169.76417579 0 5618.76291504 0 2797.50571002 0 198.40872605 0 1920
0.04350000 0.04349210 41284.32478526 0 1021.45479290 0 6356.85776399 0 596.27380681 0 3321.67973491 0 2005
0.04450000 0.04448520 42479.88039701 0 391.47027455 0 7298.81305460 0 -119.52858361 0 2240.72255737 0 2151
0.04550000 0.04548030 42068.36017375 0 229.32838402 0 7924.35526778 0 -1107.60201604 0 6432.03523608 0 2274
0.04650000 0.04648670 43162.97474193 0 435.80902136 0 8685.04382470 0 -2600.86176614 0 4754.45803969 0 2311
0.04750000 0.04749250 42596.22113208 0 569.00960846 0 9111.78388905 0 -329.62646236 0 3785.06432065 0 2568
0.04850000 0.04851840 42994.36498097 0 1227.29920941 0 9728.36730360 0 167.86338176 0 1962.83118999 0 2493
0.04950000 0.04949480 41011.73900504 0 936.13825385 0 11484.46044535 0 -1181.41487313 0 -793.50451266 0 2644
0.05050000 0.05050630 40308.52389530 0 2817.82880655 0 12346.95557594 0 -2350.81349063 0 953.75909794 0 2829
0.05150000 0.05149060 38743.26328101 0 2017.12353303 0 11674.42744270 0 165.21733257 0 -4797.31864092 0 2784
0.05250000 0.05249300 37094.59703830 0 1648.80113052 0 15064.38289015 0 2678.53466269 0 3422.17115245 0 3055
0.05350000 0.05348950 35827.55088790 0 895.71125350 0 14433.22035161 0 1236.50530236 0 1701.11511903 0 3009
0.05450000 0.05448610 35877.00975112 0 199.52379861 0 13010.60359509 0 4577.55267848 0 4281.95728621 0 3336
0.05550000 0.05550870 35382.87074498 0 50.36081303 0 12760.04949030 0 2899.84059428 0 4863.21133551 0 3349
0.05650000 0.05647670 35737.28846253 0 133.31973799 0 10677.89879279 0 159.25191923 0 3743.14793407 0 3324
0.05750000 0.05747970 34421.00826193 0 507.05676195 0 11168.03612727 0 588.52113000 0 2191.70207953 0 3639
0.05850000 0.05849280 35403.44113582 0 1087.98033612 0 15319.99528778 0 -3102.19478874 0 2565.26262527 0 3846
0.05950000 0.05951020 32862.49203808 0 1324.66572604 0 12546.36471990 0 -1541.73393231 0 1368.22324763 0 3787
0.06050000 0.06049470 33222.53008100 0 472.26245168 0 16568.15714494 0 -338.77073173 0 1465.30874799 0 3930
0.06150000 0.06148310 32592.15438800 0 -181.06102978 0 14837.77137142 0 277.76322395 0 136.58065077 0 4083
0.06250000 0.06249100 33539.85365113 0 -641.00148013 0 17437.05944645 0 1113.29090937 0 -715.54497952 0 4303
0.06350000 0.06350600 33942.26894730 0 -315.95108668 0 18069.45845658 0 -183.36648724 0 2196.35570893 0 4470
0.06450000 0.06451750 34013.19745341 0 426.85584305 0 18135.66588938 0 -153.50794671 0 892.88535391 0 4479
0.06550000 0.06550280 34258.58085887 0 459.07492024 0 18441.97362180 0 -466.06323280 0 2034.53530101 0 4636
0.06650000 0.06648880 33632.58901966 0 192.54447857 0 18209.74177770 0 784.60641354 0 1077.03081825 0 4653
0.06750000 0.06749660 33579.98277424 0 873.30076814 0 17455.26930063 0 735.08909894 0 1289.86467138 0 5220
0.06850000 0.06852730 33202.07209667 0 786.33185343 0 18244.36298195 0 2197.15379513 0 1460.89117225 0 5029
0.06950000 0.06949320 31302.96415566 0 1272.53158795 0 15724.32149457 0 1436.31910976 0 -573.79362941 0 5040
0.07050000 0.07048030 31220.12055978 0 1228.50195904 0 15907.99372751 0 2268.88038745 0 1482.72051597 0 5475
0.07150000 0.07148790 29066.52428623 0 1202.44613065 0 14709.17832705 0 2362.71733975 0 566.51868026 0 5509
0.07250000 0.07249820 28599.02562232 0 941.58097694 0 14546.86333050 0 1797.08779497 0 2681.86189530 0 5916
0.07350000 0.07351270 28003.49594660 0 727.25886164 0 14272.02942012 0 -455.74656356 0 212.85633444 0 5721
0.07450000 0.07449140 27687.74606756 0 138.50280205 0 14595.87256768 0 55.36346464 0 2573.69311332 0 6028
0.07550000 0.07549160 27331.19262638 0 393.88364226 0 14586.65523409 0 -350.36995922 0 3193.95222066 0 6183
0.07650000 0.07648840 28216.73109096 0 -39.43905956 0 15545.48274144 0 -794.34980960 0 4731.09996747 0 6330
0.07750000 0.07749960 27284.88114536 0 327.41767449 0 15244.57052137 0 1017.99829280 0 3862.80466110 0 6583
0.07850000 0.07848650 27570.16886092 0 843.13535783 0 16983.72400247 0 199.55077617 0 3458.64706407 0 6549
0.07950000 0.07947320 26290.42077519 0 715.78665351 0 16616.26713007 0 43.91812166 0 4651.32506923 0 6828
0.08050000 0.08048110 25993.10556336 0 544.85345004 0 16897.50821136 0 447.33068836 0 4015.12671916 0 7147
0.08150000 0.08149960 25687.80948950 0 137.47091031 0 16733.84433672 0 1733.19593621 0 4035.61842544 0 7386
0.08250000 0.08250610 25290.45248616 0 -602.57868780 0 14007.64931493 0 2327.35425255 0 1558.58366776 0 7227
0.08350000 0.08350160 25868.89637278 0 -454.42466304 0 13199.89615340 0 2003.52234564 0 1071.47568865 0 7798
0.08450000 0.08449610 25989.05892910 0 -14.56653447 0 9093.46162836 0 1966.40571693 0 -1714.81747227 0 7371
0.08550000 0.08548940 25431.07302681 0 426.92778322 0 8321.57738331 0 651.62614320 0 -4358.20262012 0 8256
0.08650000 0.08650700 24576.10913221 0 1364.51383289 0 5674.04443534 0 -724.30257050 0 -5177.84839012 0 8037
0.08750000 0.08749060 23407.75589523 0 1144.84903630 0 6903.32199928 0 -27.76867875 0 -5408.86624394 0 8155
0.08850000 0.08849210 22114.29421562 0 1318.02250146 0 6079.67455762 0 -1373.25905915 0 -4419.86883003 0 8718
0.08950000 0.08949900 21877.11648519 0 880.47904769 0 8467.73956477 0 283.43076005 0 -5744.32098371 0 8571
0.09050000 0.09049190 20667.51006003 0 836.10433080 0 8544.83918813 0 41.24666861 0 -4399.83799043 0 8932
0.09150000 0.09150830 20268.12973956 0 821.12054338 0 9168.58289719 0 94.15607438 0 -3620.46747199 0 9285
0.09250000 0.09250820 19629.43596502 0 468.79583500 0 10055.04309514 0 366.92181742 0 -3232.08050794 0 9204
0.09350000 0.09350330 19319.19400485 0 284.56718984 0 9173.59622742 0 704.12110618 0 -2525.62809079 0 9349
0.09450000 0.09448040 19253.99823061 0 64.51515284 0 9249.25704749 0 1115.65594229 0 -3032.59267941 0 9564
0.09550000 0.09549270 18682.18632792 0 186.95225483 0 7409.27492933 0 1259.97578109 0 -3567.36663794 0 10155
0.09650000 0.09649430 18593.49759365 0 50.68904003 0 6680.55478309 0 1406.37401621 0 -3533.92570201 0 9913
0.09750000 0.09749140 18084.63333506 0 9.80038615 0 5111.16884998 0 1281.98497522 0 -3704.36768905 0 10476
0.09850000 0.09850240 18163.20548367 0 -138.56012937 0 4672.58113976 0 1527.81800671 0 -4215.45759649 0 10575
0.09950000 0.09950330 17996.28182032 0 188.33260674 0 3600.85253647 0 148.86668202 0 -3506.15005406 0 10882
0.10050000 0.10051200 18022.13531700 0 406.00893221 0 3695.42013107 0 492.81710561 0 -3233.35070147 0 10875
0.10150000 0.10150300 17572.73410077 0 521.57631050 0 3966.99425273 0 227.26572461 0 -890.58102051 0 11118
0.10250000 0.10250800 17217.19231815 0 525.70724965 0 4356.99987049 0 478.84497675 0 -82.85101472 0 11575
0.10350000 0.10349800 16774.31067935 0 412.40823467 0 4791.70955621 0 306.17846494 0 47.80738681 0 11364
0.10450000 0.10450100 16984.96047405 0 277.18095825 0 5284.13998343 0 -54.22838373 0 1225.56814920 0 12093
0.10550000 0.10551000 16619.18969926 0 52.57319791 0 5210.62612765 0 267.42519748 0 1209.87620078 0 12067
0.10650000 0.10649700 16714.39801095 0 246.26242434 0 6513.85593275 0 -997.74039205 0 2248.71466004 0 12054
0.10750000 0.10749900 16847.48731561 0 47.55154960 0 6294.19113617 0 -185.55953820 0 1233.94243399 0 12807
0.10850000 0.10850100 16547.24953458 0 282.62030913 0 6580.54671354 0 -86.40148666 0 967.85824615 0 12736
0.10950000 0.10950300 16127.97326232 0 360.82713659 0 5865.76497421 0 3.44859792 0 -169.25385025 0 12933
0.11050000 0.11050200 15900.79971105 0 373.11091971 0 5735.03620621 0 152.55586359 0 -435.57184363 0 13428
0.11150000 0.11150900 15327.86374329 0 304.35185919 0 5419.03903286 0 -252.81572372 0 -1895.57837667 0 13453
0.11250000 0.11250000 15273.34658724 0 313.16003311 0 4494.24821592 0 -163.60542326 0 -2604.62738413 0 13668
0.11350000 0.11349100 14991.65587992 0 -19.00760317 0 4632.55318251 0 -280.47784110 0 -2910.95759785 0 13791
0.11450000 0.11448600 15003.57096970 0 88.31363375 0 4047.89321604 0 -406.91942492 0 -4006.96600673 0 14205
0.11550000 0.11549300 14964.79072468 0 185.33135299 0 4811.77411776 0 152.78742100 0 -3324.20888133 0 14776
0.11650000 0.11649800 14823.15852547 0 302.61068239 0 4881.37622709 0 -377.63640570 0 -3682.09995995 0 14553
0.11750000 0.11747300 14663.42887858 0 308.37376402 0 4974.98836638 0 394.30404260 0 -2353.92715088 0 14568
0.11850000 0.11849100 14586.88004710 0 211.47261033 0 5702.37087518 0 412.69824346 0 -1367.72865899 0 16015
0.11950000 0.11950300 14345.31846289 0 83.75307694 0 5390.20676373 0 808.36577699 0 -1115.15798146 0 15270
0.12050000 0.12050700 14552.25884285 0 180.41019610 0 6017.17653955 0 464.92905114 0 -249.18049727 0 15999
0.12150000 0.12150000 14010.68429063 0 383.96938832 0 5578.83612365 0 68.15420111 0 -824.31401225 0 15670
0.12250000 0.12250700 13866.12952223 0 561.49523344 0 6423.34621307 0 -155.17493521 0 38.32645995 0 16887
0.12350000 0.12352200 13273.41000918 0 358.70490174 0 5980.39713036 0 -445.61199286 0 -874.27982882 0 16407
0.12450000 0.12449800 13177.41485194 0 216.18806331 0 6086.26157895 0 -100.27177522 0 -796.21463355 0 16306
0.12550000 0.12549900 13084.90429642 0 -84.97988156 0 6014.63615249 0 -206.40644905 0 -1191.38533033 0 17523
0.12650000 0.12650100 13281.72809072 0 -252.72017819 0 5936.42370470 0 268.20754677 0 -948.12303566 0 17154
0.12750000 0.12750600 13393.46015899 0 -201.70111265 0 5613.76082547 0 362.76277665 0 -1428.09095342 0 18007
0.12850000 0.12850300 13788.45662568 0 12.38000309 0 5705.51825739 0 393.60487413 0 -1186.52936921 0 17496
0.12950000 0.12949900 13499.57190189 0 147.83141809 0 5192.34882956 0 581.79809679 0 -1135.74410921 0 18405
0.13050000 0.13049000 13486.42034054 0 289.58276820 0 5691.52364723 0 590.86143348 0 -532.90913457 0 18100
0.13150000 0.13148800 13120.08753321 0 353.35997231 0 5366.68008175 0 303.71451430 0 -108.11493927 0 19059
0.13250000 0.13249300 13025.21644104 0 149.10385975 0 5417.06067833 0 455.89381609 0 -320.82053658 0 18957
0.13350000 0.13349100 12872.79321713 0 6.26554996 0 5121.93739338 0 505.04918173 0 65.91888530 0 19468
0.13450000 0.13450700 12838.05960637 0 15.61303905 0 4737.52961969 0 392.30208271 0 -113.59801629 0 19953
0.13550000 0.13551000 12808.72150796 0 164.81379321 0 4775.37689070 0 162.21495476 0 162.67357331 0 19956
0.13650000 0.13649900 12520.96084925 0 260.16710930 0 4682.69772542 0 -101.83242717 0 181.57360345 0 19723
0.13750000 0.13749600 12516.57699547 0 221.96350966 0 4624.20137902 0 111.59043607 0 -509.63986349 0 20946
0.13850000 0.13851100 12128.88695175 0 201.71460143 0 4462.77439387 0 71.01775688 0 -283.46335794 0 20955
0.13950000 0.13949800 12076.61792585 0 201.15256890 0 4268.45726468 0 136.65596313 0 -622.24982658 0 20506
0.14050000 0.14048300 12011.42215162 0 47.87550515 0 4108.79506170 0 -9.23504886 0 -1009.68470752 0 21447
0.14150000 0.14148400 11747.15445293 0 150.78546110 0 4515.85274662 0 -196.76983918 0 -947.03494067 0 21771
0.14250000 0.14249400 11965.78510965 0 11.43837378 0 4305.93359422 0 -295.49984674 0 -860.37964012 0 22470
0.14350000 0.14350900 11894.40697751 0 5.78920490 0 4485.57043355 0 -40.72454038 0 -890.27977107 0 22519
0.14450000 0.14449900 11948.69932054 0 119.83994964 0 4374.56900758 0 13.64603758 0 -790.23685549 0 22218
0.14550000 0.14550500 11810.66412956 0 147.10189986 0 4439.40508100 0 129.50466114 0 -872.36442193 0 23559
0.14650000 0.14650700 11696.45911813 0 112.64705724 0 4368.01570821 0 245.22828448 0 -1057.43499183 0 23044
0.14750000 0.14750500 11518.51961706 0 120.49752771 0 3945.80562610 0 433.32933381 0 -1090.04299553 0 23649
0.14850000 0.14849900 11407.34958133 0 111.84964547 0 3775.48728622 0 642.28179025 0 -1297.28350086 0 23640
0.14950000 0.14949500 11232.46753726 0 174.09407446 0 3108.06240842 0 250.48890902 0 -1362.60292226 0 24457
0.15050000 0.15050000 11071.56886270 0 374.06187877 0 3243.90567250 0 129.92056521 0 -1325.44133094 0 24591
0.15150000 0.15149900 10637.56733797 0 452.87457730 0 2941.13874507 0 142.86417453 0 -697.02488337 0 25020
0.15250000 0.15250500 10210.66990451 0 309.88450748 0 2752.50938515 0 522.95104209 0 -471.89038614 0 25297
0.15350000 0.15350100 10076.16427786 0 201.59432647 0 2985.88777563 0 525.35766541 0 49.07521981 0 25452
0.15450000 0.15450400 9976.96553516 0 78.65656590 0 2687.17872310 0 482.25876238 0 -126.27859438 0 26061
0.15550000 0.15549900 9778.46688390 0 31.29082425 0 2734.81660090 0 302.68037443 0 124.34520245 0 26128
0.15650000 0.15649500 9800.58848454 0 115.06941747 0 2302.77094940 0 -30.13899477 0 495.62052390 0 26331
0.15750000 0.15749700 9702.96343294 0 93.44982429 0 2391.43720237 0 -89.06349756 0 270.32978162 0 27345
0.15850000 0.15849900 9642.81471088 0 90.74060265 0 2242.63346799 0 -30.24982759 0 287.45491301 0 26980
0.15950000 0.15949700 9647.70439395 0 47.84290727 0 2343.14736683 0 43.28493580 0 9.69503877 0 27777
0.16050000 0.16050000 9423.74566879 0 180.97110457 0 1997.77837312 0 -24.56902752 0 -36.15319254 0 28224
0.16150000 0.16150500 9424.29646067 0 136.47723679 0 2386.27774368 0 -140.98586179 0 -159.21257695 0 28075
0.16250000 0.16249700 9310.08020859 0 150.79332956 0 2108.04915679 0 -58.29749929 0 -266.79122477 0 28590
0.16350000 0.16349900 9227.89981110 0 106.03485685 0 2630.02001413 0 201.18067052 0 408.47400691 0 29163
0.16450000 0.16449100 9160.77064493 0 62.62818480 0 2181.30447760 0 246.85480664 0 -58.24511786 0 28996
0.16550000 0.16550500 9082.88417602 0 161.56299702 0 2267.82376628 0 267.21949357 0 -95.09410668 0 30777
0.16650000 0.16650700 8890.60160462 0 232.82647453 0 2307.98661134 0 194.11142528 0 -24.94615135 0 29211
0.16750000 0.16749900 8690.68663136 0 251.48370661 0 2204.70751242 0 47.54828981 0 273.77166888 0 30922
0.16850000 0.16850800 8538.73551478 0 240.94447248 0 2226.10971142 0 69.21790388 0 11.63991864 0 30867
0.16950000 0.16949900 8332.93044055 0 147.04120034 0 2028.58899677 0 -38.20213835 0 552.42627643 0 30852
0.17050000 0.17049200 8279.06524225 0 4.57355101 0 2180.23661578 0 78.54011276 0 135.67690245 0 31257
0.17150000 0.17149500 8408.02922808 0 -23.78802711 0 2063.06407256 0 80.57320925 0 527.82049198 0 32608
0.17250000 0.17250900 8295.85877444 0 -36.08833398 0 1956.12052151 0 267.61966073 0 99.87273212 0 32361
0.17350000 0.17350400 8469.61675344 0 -9.73667414 0 2048.56363312 0 -62.46440852 0 152.52101757 0 32508
0.17450000 0.17449800 8354.07410457 0 84.96538112 0 1815.28640850 0 17.91523673 0 -273.36588139 0 32791
0.17550000 0.17549800 8360.05413076 0 154.15990445 0 2085.75894639 0 -161.73273085 0 52.28959629 0 33633
0.17650000 0.17650100 8122.89888164 0 149.64565912 0 2044.44955495 0 -24.31319031 0 -15.11687673 0 33984
0.17750000 0.17750300 8151.59626296 0 139.97083103 0 2145.21074811 0 84.89535187 0 199.43949372 0 34069
