### header ###
fiducial parameters:
Omega_m = 0.31
Omega_nu = 0
Omega_de = 0.69
Omega_k = 0
H_0 = 100
w_de = -1
zeff = 0
beta = 0
fgrowth = 0
b_1 = 2
gamma = 0.55
Lx = 3500 Ly = 3500 Lz = 3500
nx = 700 ny = 700 nz = 700
xoffset = 857.220397 yoffset = 15.9954215 zoffset = 262.898189
bins = 400 dk = 0.001
kx_ny = 0.628318531 ky_ny = 0.628318531 kz_ny = 0.628318531
############################
A(data) = 3.1053948 (not used)
A(ran) = 3.1025451 (used)
Ngal = 189187
weighted Ngal = 0
Nran = 9360983
weighted Nran = 0
SN(data) = 3456.31036
SN(ran) = 69.671503
SN(data+ran) = 3525.98186
############################
13 columns: k_central k_mean P_0(k) sigma^{lin}_{P_0(k)} P^img_1(k) sigma^{lin}_{P_1(k)} P_2(k) sigma^{lin}_{P_2(k)} P^img_3(k) sigma^{lin}_{P_3(k)} P_4(k) sigma^{lin}_{P_4(k)} N_modes
### header ###
0.00050000 0 0 0 0 0 0 0 0 0 0 0 0
0.00150000 0.00179520 12395.96481312 0 -6170.82499440 0 13225.07521104 0 34788.91476036 0 -40285.70537432 0 3
0.00250000 0.00253879 24781.36341456 0 -7694.63008879 0 23129.77460265 0 3733.14375492 0 30400.22749546 0 6
0.00350000 0.00331552 31982.91111838 0 -9329.22303679 0 12319.19116863 0 32197.15792131 0 7581.22316356 0 7
0.00450000 0.00420575 42715.25962332 0 -14948.94140715 0 9670.68028404 0 41300.28650930 0 5882.61470965 0 24
0.00550000 0.00557378 74667.48376520 0 -26326.72807705 0 -24008.11905077 0 53251.12155348 0 -13201.58225101 0 45
0.00650000 0.00659388 88656.92322595 0 -21579.91367986 0 -22862.58433478 0 29360.35489633 0 -2771.20258731 0 40
0.00750000 0.00754703 96478.05559807 0 4758.31358289 0 -43297.41292468 0 -13678.86028105 0 -20958.53050745 0 57
0.00850000 0.00846663 89437.47401271 0 11832.13377246 0 -36123.18000213 0 -18392.85197811 0 16774.42308586 0 75
0.00950000 0.00948925 75543.91730270 0 4499.46387785 0 -24386.70416739 0 -33149.91547727 0 -2844.84009025 0 112
0.01050000 0.01054430 88853.74702025 0 -5610.43359285 0 1614.97801247 0 -19639.44014417 0 10290.07386127 0 105
0.01150000 0.01145670 91371.87759701 0 -7381.40935617 0 17389.62390037 0 -16918.52822823 0 -2994.16089456 0 144
0.01250000 0.01249090 106439.63268238 0 -1203.48027051 0 33988.91764783 0 -18286.96504822 0 5081.44856945 0 169
0.01350000 0.01339930 111809.51634959 0 -6777.59532085 0 45416.95002651 0 -8340.86633997 0 4936.71395064 0 180
0.01450000 0.01448870 111405.97698835 0 6599.35232221 0 37051.20812648 0 13853.98961944 0 -5852.71457871 0 267
0.01550000 0.01550050 109937.27356383 0 -1648.69996467 0 34886.03398267 0 35533.60787129 0 -24032.96088889 0 238
0.01650000 0.01653350 104819.74250554 0 4635.85793382 0 12104.71955268 0 11458.15732264 0 -32947.13413809 0 315
0.01750000 0.01747870 105242.39097302 0 5255.54376797 0 7826.84262269 0 -3739.43851933 0 -29323.82278146 0 297
0.01850000 0.01844180 92022.14924180 0 6810.22692993 0 -2452.19291957 0 -2865.56785020 0 -34059.28412141 0 388
0.01950000 0.01947590 82527.28397583 0 5936.83960878 0 1706.31954031 0 -14119.26897669 0 -49684.68788955 0 399
0.02050000 0.02045430 78226.61100616 0 3026.59017192 0 -1127.11128945 0 -6014.25397036 0 -40103.38201946 0 462
0.02150000 0.02154770 75047.41775991 0 305.07688116 0 6500.31094862 0 -7623.92639569 0 -35895.21960530 0 571
0.02250000 0.02255340 78061.14862740 0 420.43405929 0 1897.90519137 0 -4834.81745176 0 -29167.24051678 0 510
0.02350000 0.02348930 77483.37917982 0 862.54796165 0 10622.44866274 0 4933.20686761 0 -23497.11906854 0 555
0.02450000 0.02439640 75215.69030135 0 2878.33722943 0 5708.29469812 0 4881.78089052 0 -17981.10694183 0 592
0.02550000 0.02547300 71003.59365944 0 4746.72447198 0 7617.38433697 0 612.97853786 0 -10417.07073323 0 837
0.02650000 0.02652900 69254.43599919 0 4935.39879450 0 8398.86809774 0 -1692.78579683 0 -4936.50037828 0 723
0.02750000 0.02749970 65946.53730207 0 2513.87037013 0 12023.78686742 0 -2324.06074189 0 -2163.22951123 0 826
0.02850000 0.02848090 64661.50611050 0 2273.18555668 0 14038.33629143 0 -1950.83741566 0 763.97419913 0 831
0.02950000 0.02946900 62316.59396151 0 -799.05627006 0 14500.88906901 0 789.88165093 0 2386.24402173 0 996
0.03050000 0.03053250 62463.50926657 0 2308.91958535 0 15559.42114835 0 791.07765617 0 -4515.20078888 0 1041
0.03150000 0.03150510 62224.53303203 0 3194.98636052 0 15907.20688196 0 -105.17629595 0 -10466.02376717 0 1036
0.03250000 0.03246190 56317.12144686 0 3918.34471636 0 17030.48510951 0 -1774.97743498 0 -4926.00161049 0 1059
0.03350000 0.03345080 55522.29503367 0 3385.62779692 0 15601.57358859 0 1570.25146322 0 -12325.93555907 0 1302
0.03450000 0.03451200 50850.45577686 0 849.48744956 0 13576.45795289 0 3470.22493432 0 -8886.29643539 0 1339
0.03550000 0.03553350 49139.85354862 0 2431.11669945 0 10188.77311689 0 340.46357373 0 -12971.14891103 0 1365
0.03650000 0.03647120 50974.88978045 0 1686.14257225 0 15795.25000068 0 1602.14118934 0 -2634.16781425 0 1308
0.03750000 0.03744890 46381.28545272 0 3077.88126121 0 14455.70165307 0 2869.38967145 0 -1733.97154111 0 1579
0.03850000 0.03847530 45500.35565494 0 3147.39344533 0 15908.66816656 0 -1824.21148518 0 2718.33780693 0 1662
0.03950000 0.03950240 45472.02921509 0 -7.33494051 0 20876.02413109 0 2287.38249855 0 4997.12120767 0 1683
0.04050000 0.04050350 43819.20393161 0 993.43859502 0 22005.48471654 0 509.17337649 0 9968.65869427 0 1822
0.04150000 0.04152450 45682.79141630 0 -1532.98870604 0 19269.51032862 0 4297.53682812 0 6250.35259832 0 1887
0.04250000 0.04250150 43696.90565165 0 -1503.33586941 0 21055.08769723 0 1958.04267278 0 5328.75412618 0 1920
0.04350000 0.04349210 47721.95786541 0 -667.23715894 0 12403.60845562 0 1475.29044584 0 1567.82348266 0 2005
0.04450000 0.04448520 45340.17638202 0 -470.87085912 0 13385.59170348 0 -141.10388863 0 -556.86970567 0 2151
0.04550000 0.04548030 46762.68073203 0 1055.51396462 0 10743.98257844 0 -1536.67563948 0 -1574.81516741 0 2274
0.04650000 0.04648670 46141.97199866 0 988.54104350 0 12801.07786547 0 1260.15563150 0 -2914.22862722 0 2311
0.04750000 0.04749250 44808.71841546 0 1312.63822976 0 11106.17882630 0 -761.46528588 0 -4012.48516624 0 2568
0.04850000 0.04851840 44973.95598120 0 2897.45757632 0 15144.97835589 0 -201.58870614 0 -4112.68432685 0 2493
0.04950000 0.04949480 41884.80034731 0 2986.77578703 0 14374.43174828 0 -190.53914648 0 -5491.04664144 0 2644
0.05050000 0.05050630 39848.55646739 0 2801.45117843 0 16352.11183789 0 250.35177308 0 -1360.62456773 0 2829
0.05150000 0.05149060 37602.89926436 0 941.55287531 0 14556.08066410 0 473.75745823 0 -2898.27814383 0 2784
0.05250000 0.05249300 37016.47451572 0 152.32992651 0 16680.45124575 0 2802.69889066 0 -4410.43792407 0 3055
0.05350000 0.05348950 37921.90893210 0 -379.77774966 0 13752.71135635 0 2328.09613550 0 -6355.02553792 0 3009
0.05450000 0.05448610 37216.67050524 0 -283.70278380 0 15260.75705842 0 1269.63150007 0 -4168.46043578 0 3336
0.05550000 0.05550870 38011.83413795 0 53.68590992 0 14842.60485123 0 106.30924113 0 -1057.74860598 0 3349
0.05650000 0.05647670 37891.33436211 0 296.92516125 0 15315.83624700 0 1944.56513256 0 -345.97149259 0 3324
0.05750000 0.05747970 37550.06820592 0 399.07345071 0 14675.90600089 0 919.52794427 0 -579.10146468 0 3639
0.05850000 0.05849280 37201.83284627 0 472.96274422 0 15759.27991834 0 747.80564712 0 -2250.96279018 0 3846
0.05950000 0.05951020 36771.42832978 0 515.03649991 0 12009.73605401 0 2612.33847053 0 -2341.14653100 0 3787
0.06050000 0.06049470 34650.42994335 0 912.89146408 0 10905.34211969 0 -435.38749696 0 -6698.09019823 0 3930
0.06150000 0.06148310 35339.70664618 0 728.24017045 0 8215.98271034 0 178.77917768 0 -7078.53002222 0 4083
0.06250000 0.06249100 33034.36158776 0 927.56500954 0 9630.02285035 0 -1031.55788978 0 -9379.67107727 0 4303
0.06350000 0.06350600 33816.82328514 0 653.00087479 0 7743.86413899 0 -1284.84010050 0 -8571.87295314 0 4470
0.06450000 0.06451750 32714.56507446 0 522.99375656 0 8411.73864282 0 -214.54580424 0 -9742.31695115 0 4479
0.06550000 0.06550280 32584.06111948 0 899.87591459 0 10928.70019190 0 1233.41412341 0 -6284.62534240 0 4636
0.06650000 0.06648880 32498.07014138 0 193.02333029 0 10024.99683574 0 1033.20352105 0 -7116.59086560 0 4653
0.06750000 0.06749660 31967.06180085 0 487.49128529 0 11349.57263657 0 1388.37773439 0 -3889.40004073 0 5220
0.06850000 0.06852730 31935.13835278 0 324.89639653 0 9675.88470533 0 907.97367938 0 -3481.01595902 0 5029
0.06950000 0.06949320 31521.36999937 0 406.44282133 0 11514.58538931 0 121.38553911 0 -4148.63192789 0 5040
0.07050000 0.07048030 31167.51431436 0 422.88227302 0 8493.63802405 0 -110.24886440 0 -2178.13461410 0 5475
0.07150000 0.07148790 30391.90941392 0 522.60932631 0 8962.37315953 0 563.44661041 0 -3886.35382438 0 5509
0.07250000 0.07249820 30643.69999029 0 460.26642922 0 6160.73089004 0 1626.98302745 0 -2765.78459366 0 5916
0.07350000 0.07351270 28787.08170905 0 765.46808161 0 6753.69769740 0 2556.51739900 0 -2348.80141414 0 5721
0.07450000 0.07449140 28949.62151862 0 724.08899814 0 5781.42637177 0 1998.19427719 0 -2419.19036902 0 6028
0.07550000 0.07549160 27604.45284565 0 1110.27279465 0 6855.35814261 0 910.71639816 0 312.68680171 0 6183
0.07650000 0.07648840 27331.97947193 0 1095.71952415 0 6781.13612583 0 38.81014515 0 1936.02223800 0 6330
0.07750000 0.07749960 26034.69597106 0 795.59302557 0 8163.92725681 0 -1010.54574137 0 3318.31878034 0 6583
0.07850000 0.07848650 26079.88338700 0 893.66433100 0 10247.95514299 0 -722.89524103 0 2831.08153376 0 6549
0.07950000 0.07947320 24983.47031470 0 857.74258346 0 10021.11881123 0 -785.54838008 0 3835.46739852 0 6828
0.08050000 0.08048110 24363.54842689 0 899.64997752 0 10890.95408675 0 122.60290159 0 2738.37988718 0 7147
0.08150000 0.08149960 23545.22905367 0 615.83928347 0 10358.92284700 0 835.81657014 0 2451.18126100 0 7386
0.08250000 0.08250610 23313.67164861 0 420.28118644 0 10037.84489952 0 1535.63025896 0 1373.20285590 0 7227
0.08350000 0.08350160 22776.59335669 0 -163.68523188 0 7767.25593316 0 1727.98027427 0 -132.98476660 0 7798
0.08450000 0.08449610 22618.99943344 0 -191.25742406 0 7249.59024505 0 958.36439254 0 264.29804844 0 7371
0.08550000 0.08548940 23076.38151168 0 -261.16865128 0 6249.05992348 0 993.85337503 0 -965.15711778 0 8256
0.08650000 0.08650700 23018.26734740 0 -93.66564479 0 5200.83552087 0 1131.92228796 0 518.10407349 0 8037
0.08750000 0.08749060 23052.66373864 0 317.49780022 0 4376.13145803 0 1116.46864134 0 -1436.04933414 0 8155
0.08850000 0.08849210 22546.38482971 0 454.82258207 0 4473.68906573 0 464.33779292 0 423.47240718 0 8718
0.08950000 0.08949900 22015.03926966 0 604.59863274 0 4863.91949651 0 -1003.72266637 0 -301.00102121 0 8571
0.09050000 0.09049190 21335.65433948 0 898.98340693 0 5164.19099948 0 -1251.73638410 0 -843.99414355 0 8932
0.09150000 0.09150830 20495.52810385 0 828.86984799 0 5982.83635157 0 -1193.50981332 0 -641.77820910 0 9285
0.09250000 0.09250820 20027.13018788 0 667.24277926 0 6687.81624347 0 -1284.01953300 0 -1583.76272539 0 9204
0.09350000 0.09350330 19670.80155971 0 329.90523050 0 6642.12299824 0 219.47482959 0 -1014.99479093 0 9349
0.09450000 0.09448040 19346.73359914 0 351.53449064 0 7017.31343834 0 132.76782204 0 -2246.39908599 0 9564
0.09550000 0.09549270 19218.59018080 0 -54.68677746 0 6221.83506741 0 832.68380079 0 -1575.09618368 0 10155
0.09650000 0.09649430 19263.55278373 0 146.76805253 0 7206.57227470 0 -34.40841873 0 -1454.34911353 0 9913
0.09750000 0.09749140 19392.59545412 0 259.29708293 0 7057.00417607 0 299.80838817 0 -838.87065495 0 10476
0.09850000 0.09850240 19080.33017681 0 243.10829775 0 8198.72831147 0 -529.25030276 0 -304.60140164 0 10575
0.09950000 0.09950330 19123.26946261 0 300.07254346 0 8115.23275784 0 213.50716811 0 1142.11755817 0 10882
0.10050000 0.10051200 19043.91046845 0 312.54067325 0 8565.84796435 0 512.85131741 0 853.14965357 0 10875
0.10150000 0.10150300 18750.07985834 0 383.42646489 0 8104.49793639 0 757.15449633 0 1795.12068109 0 11118
0.10250000 0.10250800 18293.25981263 0 181.49267077 0 8875.24687572 0 817.63144539 0 2131.59832007 0 11575
0.10350000 0.10349800 17969.41666507 0 381.47846012 0 6418.20923568 0 1440.64676029 0 1189.47441970 0 11364
0.10450000 0.10450100 17892.98024010 0 382.59016048 0 7777.52988793 0 1118.59874465 0 1958.48105816 0 12093
0.10550000 0.10551000 17330.83529704 0 398.84076924 0 6202.64727661 0 400.69884880 0 2068.81928574 0 12067
0.10650000 0.10649700 17064.20706170 0 351.65026934 0 7142.06218016 0 787.07261231 0 2741.89821086 0 12054
0.10750000 0.10749900 16647.29132609 0 274.40676564 0 5576.13836747 0 -234.72164824 0 1053.24784943 0 12807
0.10850000 0.10850100 16673.81926182 0 -43.49288784 0 6622.73287573 0 -441.10449192 0 1672.39525641 0 12736
0.10950000 0.10950300 16758.34895531 0 0.38685711 0 6745.60442887 0 -905.51647313 0 545.47730615 0 12933
0.11050000 0.11050200 17024.30275161 0 -58.30975160 0 7031.20688265 0 -1003.41579661 0 247.58882113 0 13428
0.11150000 0.11150900 16717.77020617 0 110.41927267 0 6735.45412126 0 -248.81630019 0 -69.20441510 0 13453
0.11250000 0.11250000 16732.27064562 0 112.59759837 0 6814.17239833 0 148.23720558 0 -1361.65870760 0 13668
0.11350000 0.11349100 16601.09225159 0 244.79214723 0 6308.86018537 0 668.29715230 0 -986.72455434 0 13791
0.11450000 0.11448600 16117.29464412 0 517.41839380 0 5798.82689910 0 906.90469350 0 -1543.52119578 0 14205
0.11550000 0.11549300 15597.07732829 0 669.93941137 0 5755.88761331 0 591.23462308 0 -1532.25806374 0 14776
0.11650000 0.11649800 14846.42667248 0 430.11338364 0 5281.40850531 0 533.60942711 0 -625.38147187 0 14553
0.11750000 0.11747300 14556.41788362 0 292.20746014 0 5651.40576477 0 499.41649165 0 478.64714130 0 14568
0.11850000 0.11849100 14577.99993302 0 102.97425247 0 5436.50700409 0 902.04311206 0 1153.25704305 0 16015
0.11950000 0.11950300 14358.24521123 0 52.63850609 0 5391.09477514 0 879.06160164 0 1502.35793280 0 15270
0.12050000 0.12050700 14596.88422625 0 228.77309587 0 5304.66541167 0 428.10467935 0 2848.81928061 0 15999
0.12150000 0.12150000 14189.41063725 0 271.28973320 0 5498.67904328 0 191.35296959 0 3000.27580856 0 15670
0.12250000 0.12250700 14135.11829422 0 364.48372028 0 5311.72454033 0 56.27834120 0 3376.63527634 0 16887
0.12350000 0.12352200 13822.85301691 0 207.56423607 0 5739.61115105 0 -602.49213479 0 2477.64175282 0 16407
0.12450000 0.12449800 13822.17857787 0 103.63756327 0 5262.65909989 0 -322.56283744 0 2202.81908310 0 16306
0.12550000 0.12549900 13678.74787454 0 105.27341517 0 5670.24509539 0 -654.33176783 0 1463.57768778 0 17523
0.12650000 0.12650100 13581.51624572 0 26.33987964 0 5184.60402121 0 -145.80135657 0 976.67428852 0 17154
0.12750000 0.12750600 13789.80550377 0 13.93402305 0 5856.95230403 0 -385.82971602 0 -95.48876593 0 18007
0.12850000 0.12850300 13771.14602355 0 108.76217594 0 5846.06011348 0 96.60102832 0 -48.16405266 0 17496
0.12950000 0.12949900 13638.61875143 0 298.14926812 0 5803.45804720 0 -35.97255528 0 -29.52941428 0 18405
0.13050000 0.13049000 13339.84225500 0 333.00202978 0 5804.95305375 0 295.41441780 0 -568.28121429 0 18100
0.13150000 0.13148800 13176.40319338 0 261.31253161 0 5616.11012147 0 622.71968578 0 374.73856594 0 19059
0.13250000 0.13249300 12778.48415750 0 193.94281552 0 5396.56897204 0 391.11057373 0 -1041.34400030 0 18957
0.13350000 0.13349100 12705.08270822 0 171.09506884 0 5117.71090871 0 456.17708049 0 -402.80647081 0 19468
0.13450000 0.13450700 12514.44127183 0 110.77425242 0 4721.37680459 0 173.22067589 0 -1086.98441447 0 19953
0.13550000 0.13551000 12493.30884845 0 71.95455271 0 4507.23116751 0 347.54293556 0 -610.00650980 0 19956
0.13650000 0.13649900 12344.25781976 0 145.81372128 0 4351.30086057 0 392.52464759 0 -360.96090034 0 19723
0.13750000 0.13749600 12279.51167155 0 64.06811216 0 3957.30481180 0 749.12979577 0 -95.44593905 0 20946
0.13850000 0.13851100 12287.26772055 0 14.18761213 0 3802.63345774 0 771.56838276 0 543.00885925 0 20955
0.13950000 0.13949800 12497.91751525 0 65.14283077 0 4040.19337029 0 505.83377915 0 1387.01761565 0 20506
0.14050000 0.14048300 12261.86384990 0 33.13260488 0 3761.82989559 0 188.60013422 0 1210.43823332 0 21447
0.14150000 0.14148400 12297.60911923 0 165.07345224 0 3960.40723140 0 42.14311050 0 1784.82424502 0 21771
0.14250000 0.14249400 12129.44898429 0 354.20189705 0 4298.37987693 0 -525.10362670 0 1812.42004256 0 22470
0.14350000 0.14350900 11905.42281522 0 419.47410772 0 4482.69282696 0 -577.00058706 0 1531.99952878 0 22519
0.14450000 0.14449900 11548.75696753 0 292.06807607 0 4706.48294237 0 -177.46177342 0 1471.04147986 0 22218
0.14550000 0.14550500 11301.46265145 0 206.29853880 0 4571.85366856 0 81.95861946 0 1052.31150322 0 23559
0.14650000 0.14650700 11181.83964637 0 93.93305987 0 4423.20730330 0 381.15023312 0 526.19621795 0 23044
0.14750000 0.14750500 11061.57592420 0 -0.52566004 0 4450.79186019 0 553.66274802 0 270.68273806 0 23649
0.14850000 0.14849900 10946.80888023 0 103.44613499 0 3720.72283586 0 226.78799695 0 -136.42665386 0 23640
0.14950000 0.14949500 10968.62698330 0 110.64442290 0 3665.37387166 0 304.83408311 0 153.56864622 0 24457
0.15050000 0.15050000 10739.14909863 0 123.45943917 0 3091.24639493 0 218.23723394 0 122.44328435 0 24591
0.15150000 0.15149900 10711.02499050 0 -66.05219942 0 3301.35663839 0 390.18209598 0 -18.82438056 0 25020
0.15250000 0.15250500 10864.68468599 0 -89.17084578 0 2727.02682994 0 425.80709034 0 -171.93474545 0 25297
0.15350000 0.15350100 10764.51924733 0 24.24473475 0 2824.79801000 0 296.71046483 0 -542.20402866 0 25452
0.15450000 0.15450400 10844.09181385 0 189.86358337 0 2241.80165984 0 -11.48086344 0 -356.90077729 0 26061
0.15550000 0.15549900 10494.96844280 0 260.27052329 0 2891.63491925 0 -287.36723594 0 -522.80266550 0 26128
0.15650000 0.15649500 10395.62357164 0 279.80452613 0 2686.77405967 0 -174.09182633 0 67.44783861 0 26331
0.15750000 0.15749700 10306.19295442 0 68.58966391 0 3020.61014573 0 248.05306001 0 -23.29366329 0 27345
0.15850000 0.15849900 10212.22111431 0 23.36065757 0 2810.39873641 0 305.67038752 0 347.42715686 0 26980
0.15950000 0.15949700 10343.66928396 0 -22.83425789 0 2813.27634300 0 413.80207536 0 78.35351795 0 27777
0.16050000 0.16050000 10186.26645177 0 229.33850060 0 2886.81268008 0 55.14505880 0 677.12331125 0 28224
0.16150000 0.16150500 9911.89340808 0 397.60092546 0 2695.06965991 0 -126.80353277 0 439.84441497 0 28075
0.16250000 0.16249700 9729.09794589 0 337.01831428 0 3018.33953429 0 -66.01128345 0 944.11686774 0 28590
0.16350000 0.16349900 9413.88761809 0 159.89488445 0 2809.90414778 0 156.79471298 0 995.44167898 0 29163
0.16450000 0.16449100 9424.48755173 0 6.99555154 0 3044.54149114 0 300.56713209 0 759.43297623 0 28996
0.16550000 0.16550500 9370.09404285 0 -66.93874954 0 2607.98833870 0 295.65159553 0 681.86349367 0 30777
0.16650000 0.16650700 9420.09245730 0 39.92319439 0 2729.44356985 0 129.36640113 0 671.63450150 0 29211
0.16750000 0.16749900 9336.11355569 0 93.10507353 0 2584.01203069 0 38.53103980 0 846.10626182 0 30922
0.16850000 0.16850800 9292.17385198 0 104.64809777 0 2695.21578837 0 98.48844598 0 930.01322327 0 30867
0.16950000 0.16949900 9201.58544774 0 200.28254253 0 2645.09372676 0 -58.10191197 0 965.77085731 0 30852
0.17050000 0.17049200 9109.38963044 0 173.77483998 0 3004.29996152 0 -211.09042821 0 588.80102220 0 31257
0.17150000 0.17149500 8846.98787978 0 272.01250704 0 2883.98003610 0 -502.75384085 0 303.08166566 0 32608
0.17250000 0.17250900 8718.12505980 0 241.28056794 0 3237.08259751 0 -318.67357229 0 418.58272412 0 32361
0.17350000 0.17350400 8534.53151141 0 129.12922340 0 3285.73213387 0 -180.41806456 0 -128.51098761 0 32508
0.17450000 0.17449800 8499.21338681 0 -15.20039476 0 3156.58829763 0 235.97273267 0 -247.34714714 0 32791
0.17550000 0.17549800 8485.85949374 0 -55.93010584 0 2756.71338852 0 329.08915926 0 -441.71373519 0 33633
0.17650000 0.17650100 8518.12016134 0 30.03973983 0 2548.84003455 0 470.59883537 0 -354.19065640 0 33984
0.17750000 0.17750300 8486.08430676 0 96.32192296 0 2325.64567364 0 356.94124364 0 -323.39127340 0 34069
