### header ###
fiducial parameters:
Omega_m = 0.31
Omega_nu = 0
Omega_de = 0.69
Omega_k = 0
H_0 = 100
w_de = -1
zeff = 0
beta = 0
fgrowth = 0
b_1 = 2
gamma = 0.55
Lx = 3500 Ly = 3500 Lz = 3500
nx = 700 ny = 700 nz = 700
xoffset = 857.220397 yoffset = 15.9954215 zoffset = 262.898189
bins = 400 dk = 0.001
kx_ny = 0.628318531 ky_ny = 0.628318531 kz_ny = 0.628318531
############################
A(data) = 3.10125293 (not used)
A(ran) = 3.10312159 (used)
Ngal = 189444
weighted Ngal = 0
Nran = 9360983
weighted Nran = 0
SN(data) = 3440.47915
SN(ran) = 69.6844488
SN(data+ran) = 3510.1636
############################
13 columns: k_central k_mean P_0(k) sigma^{lin}_{P_0(k)} P^img_1(k) sigma^{lin}_{P_1(k)} P_2(k) sigma^{lin}_{P_2(k)} P^img_3(k) sigma^{lin}_{P_3(k)} P_4(k) sigma^{lin}_{P_4(k)} N_modes
### header ###
0.00050000 0 0 0 0 0 0 0 0 0 0 0 0
0.00150000 0.00179520 20209.56594925 0 -28982.55662527 0 -31160.20789138 0 48890.19869588 0 21703.78565092 0 3
0.00250000 0.00253879 39488.63083099 0 -32553.93617552 0 -1784.36337834 0 -32659.93551191 0 -3355.70518467 0 6
0.00350000 0.00331552 55986.64631537 0 -24555.31392836 0 -24543.17402557 0 -23024.78692483 0 -5585.89525231 0 7
0.00450000 0.00420575 71565.40138297 0 -13003.29717212 0 -11124.97319432 0 -37598.06578454 0 10494.97968345 0 24
0.00550000 0.00557378 71502.45373888 0 8204.49476530 0 -6394.70503500 0 -47214.21767189 0 6039.34310279 0 45
0.00650000 0.00659388 70847.34861428 0 11292.35772435 0 27218.44889954 0 -3834.41077736 0 17851.95186493 0 40
0.00750000 0.00754703 50535.49274338 0 14998.40027036 0 11256.16282900 0 2590.82386503 0 -427.87537008 0 57
0.00850000 0.00846663 45119.29759515 0 7334.96298735 0 16904.25260180 0 23306.02800612 0 24236.30426061 0 75
0.00950000 0.00948925 38880.51162644 0 -7782.82423443 0 -6154.46984758 0 51213.97842150 0 23600.53305527 0 112
0.01050000 0.01054430 46053.05845138 0 -15358.21350026 0 -34805.55092344 0 60916.12128694 0 31010.37001714 0 105
0.01150000 0.01145670 60125.56632103 0 -27024.09804841 0 -55786.56273236 0 40353.14927871 0 24191.79128372 0 144
0.01250000 0.01249090 77230.12731885 0 -19706.09720301 0 -64544.26612338 0 10547.78826058 0 31553.96788649 0 169
0.01350000 0.01339930 90802.76345050 0 -4190.77312748 0 -58146.08772730 0 -35067.57049198 0 14701.64709106 0 180
0.01450000 0.01448870 90722.73001729 0 9825.96987389 0 -33234.44517077 0 -64361.83036202 0 26739.70958491 0 267
0.01550000 0.01550050 83455.64931971 0 13892.20783192 0 12553.89595589 0 -41512.84721462 0 22114.96865466 0 238
0.01650000 0.01653350 72344.82810466 0 10884.69304429 0 21163.22275727 0 -24494.83922742 0 16150.67937680 0 315
0.01750000 0.01747870 68474.11002544 0 355.44061676 0 36132.73455525 0 12359.54510475 0 -2064.53659781 0 297
0.01850000 0.01844180 70256.09038583 0 -4599.26961570 0 33414.52039548 0 10857.95153620 0 -6494.56697610 0 388
0.01950000 0.01947590 71881.26366851 0 -3246.86196365 0 5915.81959191 0 19562.55409317 0 -20549.03360132 0 399
0.02050000 0.02045430 72216.79709283 0 -276.50651920 0 650.09179438 0 3992.34192013 0 -10178.20690520 0 462
0.02150000 0.02154770 68431.62036568 0 2522.73924356 0 -4717.40885488 0 -9779.90568720 0 -8747.05849478 0 571
0.02250000 0.02255340 64572.81737624 0 4815.14631298 0 -6248.14943077 0 -10804.23246636 0 -12990.48283028 0 510
0.02350000 0.02348930 63888.03693371 0 3287.86785751 0 65.09595726 0 -14311.70891721 0 -15672.38968819 0 555
0.02450000 0.02439640 61255.13931299 0 3051.76922956 0 12318.96635562 0 -17025.76403620 0 -17012.16284882 0 592
0.02550000 0.02547300 62592.10231093 0 48.96247608 0 18372.84361981 0 -11968.14564630 0 -11723.88630592 0 837
0.02650000 0.02652900 63810.58885017 0 -1264.73057635 0 27482.94141124 0 -5341.98437209 0 -16094.13890362 0 723
0.02750000 0.02749970 64356.32244316 0 2382.61329154 0 20027.80462693 0 -8872.33554718 0 -17581.72662136 0 826
0.02850000 0.02848090 65411.48232728 0 1196.79208333 0 34272.51926578 0 -2200.17753018 0 -19665.63086038 0 831
0.02950000 0.02946900 62892.56490497 0 3939.12867957 0 33252.87983797 0 -187.23214703 0 -8856.73352396 0 996
0.03050000 0.03053250 60002.81841505 0 3289.99234050 0 24144.69295715 0 4428.41172458 0 -14146.02172543 0 1041
0.03150000 0.03150510 59777.10614837 0 1019.15383170 0 29764.45629011 0 6170.21799926 0 -16079.97568370 0 1036
0.03250000 0.03246190 58690.02281617 0 529.48860455 0 24580.60539250 0 6886.89940856 0 -6652.21710260 0 1059
0.03350000 0.03345080 58044.58465120 0 2249.32165518 0 25437.92982375 0 7209.97819187 0 -5339.47770698 0 1302
0.03450000 0.03451200 55076.37841917 0 2385.89556156 0 21411.30391890 0 3907.38508190 0 -1491.28589183 0 1339
0.03550000 0.03553350 52672.90247987 0 2219.34283968 0 21267.53599605 0 6131.13425666 0 -4028.93023826 0 1365
0.03650000 0.03647120 51503.98721036 0 1619.89017684 0 22696.89714300 0 4099.53276550 0 -985.46335333 0 1308
0.03750000 0.03744890 48602.43803717 0 2053.19478122 0 20796.77754344 0 2286.46076519 0 -2769.76378402 0 1579
0.03850000 0.03847530 48094.24821762 0 1915.62045692 0 20655.81978327 0 -1142.31988989 0 795.85268460 0 1662
0.03950000 0.03950240 46876.54852393 0 2060.40003834 0 21195.82064439 0 -2768.57227504 0 -590.30164907 0 1683
0.04050000 0.04050350 46002.36311658 0 2077.62071526 0 23247.01458978 0 1297.42962932 0 1940.15879747 0 1822
0.04150000 0.04152450 43520.76465470 0 1069.94808422 0 26658.32727362 0 1251.98367842 0 1322.29394874 0 1887
0.04250000 0.04250150 43749.39949057 0 741.54010840 0 23994.06823736 0 3873.85422077 0 840.97827696 0 1920
0.04350000 0.04349210 43601.69733996 0 122.27917085 0 25924.65000041 0 3586.74551980 0 1555.41380425 0 2005
0.04450000 0.04448520 43358.67447116 0 72.46060681 0 21445.13827760 0 4400.24265385 0 1051.74160223 0 2151
0.04550000 0.04548030 42637.02469423 0 -452.30467631 0 20717.86817530 0 1382.17289518 0 -766.77312116 0 2274
0.04650000 0.04648670 43597.65070570 0 -650.32897211 0 16061.87823602 0 2147.05421483 0 -3012.05601053 0 2311
0.04750000 0.04749250 43736.92236826 0 -49.51888829 0 17210.22311470 0 3123.02371454 0 -2637.28147451 0 2568
0.04850000 0.04851840 43028.31174618 0 316.72331939 0 13514.18474784 0 1361.62498565 0 -4181.37594347 0 2493
0.04950000 0.04949480 42166.04142860 0 1050.02852706 0 11329.33946526 0 1822.67151603 0 -7273.12816768 0 2644
0.05050000 0.05050630 41546.00713428 0 1402.21497544 0 11659.25256421 0 1020.35658132 0 -4264.55675888 0 2829
0.05150000 0.05149060 39871.82461441 0 1665.97684484 0 11675.66391428 0 2918.09541107 0 -4290.45521816 0 2784
0.05250000 0.05249300 38702.57212537 0 1090.58816709 0 10417.84633813 0 1816.42171422 0 -1020.19021969 0 3055
0.05350000 0.05348950 38262.61305576 0 1177.60429253 0 9935.81351284 0 1542.84675673 0 -2042.65105084 0 3009
0.05450000 0.05448610 36442.52688940 0 1430.71002504 0 9744.37399024 0 1008.07729447 0 -2188.83571359 0 3336
0.05550000 0.05550870 35856.43936028 0 1325.46381225 0 9483.47848677 0 -1113.59665507 0 -1551.07491307 0 3349
0.05650000 0.05647670 33926.75684929 0 1209.74131297 0 9161.43384333 0 -2173.59339120 0 -2258.13432535 0 3324
0.05750000 0.05747970 33632.02698713 0 1009.89041143 0 11425.78424853 0 -421.45471038 0 -864.64659114 0 3639
0.05850000 0.05849280 33488.14665777 0 490.64316376 0 11884.96483089 0 -1333.08497344 0 -2620.04955693 0 3846
0.05950000 0.05951020 33320.21133585 0 313.10270579 0 14230.88863845 0 580.77969384 0 3008.49272425 0 3787
0.06050000 0.06049470 33181.61411233 0 274.29323507 0 11836.06800021 0 1209.70759102 0 729.39570935 0 3930
0.06150000 0.06148310 32292.02901348 0 812.71028850 0 15196.46053624 0 2722.99143633 0 5612.52435389 0 4083
0.06250000 0.06249100 31958.06928027 0 346.62120220 0 10994.80645885 0 3576.23551137 0 3482.62337208 0 4303
0.06350000 0.06350600 31391.54048342 0 -70.37917551 0 10816.22624069 0 3341.80049972 0 3236.02597634 0 4470
0.06450000 0.06451750 31118.95470320 0 -7.20679709 0 6039.54543451 0 1160.92316685 0 -578.22806612 0 4479
0.06550000 0.06550280 31121.98967890 0 405.00739023 0 7522.86170497 0 619.06085397 0 -73.56612481 0 4636
0.06650000 0.06648880 29483.88964787 0 797.52978969 0 4538.08675377 0 -768.44123373 0 -2290.36127099 0 4653
0.06750000 0.06749660 29493.66901400 0 1029.26367296 0 5880.89489009 0 -1529.20060675 0 -2400.46344490 0 5220
0.06850000 0.06852730 28490.32852976 0 774.97654806 0 5029.65165088 0 -1370.52758103 0 -2695.30571358 0 5029
0.06950000 0.06949320 28573.62175167 0 574.72547935 0 7610.95468475 0 -1110.91463581 0 -3836.93992377 0 5040
0.07050000 0.07048030 28086.45194899 0 198.38736882 0 7638.12333757 0 -1494.51195859 0 -2573.82800113 0 5475
0.07150000 0.07148790 28130.06567383 0 409.94540809 0 9125.39631708 0 -782.68651040 0 -4134.55863317 0 5509
0.07250000 0.07249820 28240.33645750 0 584.14514467 0 10441.11448515 0 -1382.22909844 0 -1407.44187803 0 5916
0.07350000 0.07351270 27473.61167114 0 227.79628332 0 10795.39731489 0 20.19708883 0 -1509.00115738 0 5721
0.07450000 0.07449140 27790.37320874 0 664.45060162 0 11210.50330573 0 1.74578547 0 -1119.98584095 0 6028
0.07550000 0.07549160 27577.25047088 0 292.93585431 0 12760.04949030 0 -212.76753330 0 -57.78604968 0 6183
0.07650000 0.07648840 27285.78039742 0 398.38777101 0 12788.15111713 0 1081.54955984 0 1205.41366244 0 6330
0.07750000 0.07749960 27238.79447737 0 554.28210787 0 13828.24852927 0 518.95161856 0 2676.45514230 0 6583
0.07850000 0.07848650 27101.54613194 0 -125.17588654 0 12901.79409602 0 2249.62515275 0 3501.65379377 0 6549
0.07950000 0.07947320 27089.63104217 0 82.29752507 0 13629.85104386 0 2304.76054458 0 4931.01494072 0 6828
0.08050000 0.08048110 26766.01270762 0 289.86940479 0 11356.76665304 0 3512.98436970 0 3718.04756099 0 7147
0.08150000 0.08149960 25953.98809881 0 571.16444120 0 10308.58721303 0 2573.55822551 0 3378.35509590 0 7386
0.08250000 0.08250610 25216.26419134 0 774.90685603 0 7173.29994854 0 1825.41423481 0 1242.00198057 0 7227
0.08350000 0.08350160 24148.17755888 0 503.24393323 0 6347.15708241 0 687.74460213 0 76.28152880 0 7798
0.08450000 0.08449610 23686.97365939 0 293.83623043 0 4828.99479468 0 -1042.42759904 0 -285.54400239 0 7371
0.08550000 0.08548940 23631.33243827 0 230.44682877 0 4592.73879762 0 -524.27631481 0 -3223.89731420 0 8256
0.08650000 0.08650700 23240.71982537 0 220.94960296 0 5052.71746618 0 -1090.13179667 0 -2603.08741498 0 8037
0.08750000 0.08749060 23075.48225962 0 628.17926984 0 5709.53116970 0 -895.15371722 0 -2586.65358361 0 8155
0.08850000 0.08849210 22424.31136278 0 1058.87604325 0 7482.92367292 0 -184.10612206 0 -1107.91000987 0 8718
0.08950000 0.08949900 22031.67543274 0 1277.18521736 0 7800.42709347 0 -756.73634412 0 -1112.85364806 0 8571
0.09050000 0.09049190 21098.58901556 0 887.53592822 0 8726.78036086 0 898.41238187 0 1557.39215878 0 8932
0.09150000 0.09150830 20678.63830425 0 371.93851984 0 8380.71444681 0 1402.63087951 0 1670.79908400 0 9285
0.09250000 0.09250820 20418.75445935 0 -398.81154355 0 7108.67744748 0 2830.64314838 0 2222.33285277 0 9204
0.09350000 0.09350330 20559.59981301 0 -463.70044802 0 5877.43276967 0 2461.30908731 0 1423.56097118 0 9349
0.09450000 0.09448040 20722.47684210 0 -245.06529504 0 4620.00861629 0 1337.90721261 0 365.13005769 0 9564
0.09550000 0.09549270 20313.20474899 0 332.74012261 0 3192.36728890 0 389.19067058 0 -453.90646904 0 10155
0.09650000 0.09649430 19995.88117885 0 662.35084806 0 3800.09307067 0 -1407.34071217 0 -794.24414748 0 9913
0.09750000 0.09749140 19169.35613060 0 867.89064294 0 3472.34941731 0 -1010.91893097 0 -1109.67591610 0 10476
0.09850000 0.09850240 18644.64255448 0 574.79741952 0 4769.25073605 0 -1256.82839888 0 -1326.34058300 0 10575
0.09950000 0.09950330 18070.69492816 0 615.83591127 0 5243.76356601 0 -683.28656005 0 -1519.79218208 0 10882
0.10050000 0.10051200 18095.53676627 0 276.94940084 0 5707.35048345 0 29.36676207 0 -1782.54239292 0 10875
0.10150000 0.10150300 17988.63817782 0 98.99281398 0 5972.47247160 0 383.97163645 0 -1168.89278821 0 11118
0.10250000 0.10250800 17917.59726520 0 64.47940757 0 5630.58807961 0 642.10531203 0 -176.02634232 0 11575
0.10350000 0.10349800 17996.28182032 0 128.65711607 0 5024.40226699 0 959.64919892 0 -606.82315752 0 11364
0.10450000 0.10450100 17609.04140263 0 195.03653083 0 4910.34338402 0 721.32042586 0 51.68878351 0 12093
0.10550000 0.10551000 17548.00466916 0 443.64263086 0 4560.83783085 0 653.48422277 0 234.21132270 0 12067
0.10650000 0.10649700 16933.81551322 0 384.13012963 0 4334.49608773 0 1080.11412874 0 1179.48148120 0 12054
0.10750000 0.10749900 16550.28451028 0 294.38027793 0 3195.11000768 0 622.46789520 0 200.04199260 0 12807
0.10850000 0.10850100 16472.72402024 0 68.71353589 0 3304.41409539 0 601.55466452 0 289.29275941 0 12736
0.10950000 0.10950300 16042.20709724 0 254.46135499 0 2908.75443031 0 150.47971540 0 -620.47267970 0 12933
0.11050000 0.11050200 16113.47282288 0 419.58426610 0 3194.37936538 0 -797.68266254 0 -321.84905612 0 13428
0.11150000 0.11150900 15460.39101541 0 705.14512946 0 3110.29929792 0 -792.53669263 0 -473.91257921 0 13453
0.11250000 0.11250000 15400.36594050 0 329.61072545 0 3859.36502198 0 -453.82666042 0 -55.48654976 0 13668
0.11350000 0.11349100 14911.17282069 0 21.30811475 0 3592.59065818 0 509.96584236 0 -147.93708021 0 13791
0.11450000 0.11448600 15260.08261938 0 -272.71392364 0 3587.15018323 0 569.79645401 0 -327.12316944 0 14205
0.11550000 0.11549300 15363.38419960 0 -317.99688511 0 3069.37208860 0 815.98131786 0 -352.93057946 0 14776
0.11650000 0.11649800 15614.38793042 0 -46.03473619 0 3300.04148226 0 248.90959759 0 -637.63490524 0 14553
0.11750000 0.11747300 15424.08371354 0 72.72588616 0 3068.40539264 0 24.12963049 0 -159.92298608 0 14568
0.11850000 0.11849100 15301.44821407 0 110.66296998 0 2976.81657049 0 -157.74117577 0 210.90832967 0 16015
0.11950000 0.11950300 15317.29753160 0 111.42991957 0 2710.97518070 0 453.31521081 0 75.18826311 0 15270
0.12050000 0.12050700 14859.91545336 0 143.59256870 0 2458.80242220 0 813.32627616 0 110.49784482 0 15999
0.12150000 0.12150000 14884.53247846 0 193.77645389 0 2286.88790992 0 732.71619757 0 -235.92552193 0 15670
0.12250000 0.12250700 14517.63763860 0 426.57257866 0 1788.14023698 0 282.60569629 0 209.85283256 0 16887
0.12350000 0.12352200 14154.11499396 0 505.43361199 0 1882.56170312 0 -25.37880400 0 -291.06541003 0 16407
0.12450000 0.12449800 13796.10026817 0 380.56234708 0 1799.43709097 0 -207.90033153 0 407.99627926 0 16306
0.12550000 0.12549900 13625.01756405 0 209.28742783 0 1859.28231546 0 -605.19326316 0 -721.07987594 0 17523
0.12650000 0.12650100 13504.51778821 0 341.02335814 0 2206.22500027 0 -570.62488997 0 -84.25834419 0 17154
0.12750000 0.12750600 13244.29672379 0 233.31769096 0 2298.89292490 0 -441.05166086 0 -724.86123084 0 18007
0.12850000 0.12850300 13214.95862538 0 220.01213269 0 2941.32983613 0 -472.83797300 0 -282.27184896 0 17496
0.12950000 0.12949900 12960.02066680 0 274.13923816 0 2810.11772014 0 11.71635507 0 -270.00155462 0 18405
0.13050000 0.13049000 13018.13483108 0 151.11593623 0 3470.15749042 0 223.37645946 0 293.87332458 0 18100
0.13150000 0.13148800 12903.81741315 0 98.54577330 0 3612.28427826 0 345.13069191 0 496.80304036 0 19059
0.13250000 0.13249300 12992.16892789 0 -6.65986075 0 3758.51390362 0 556.34364321 0 1059.23124781 0 18957
0.13350000 0.13349100 12958.10975618 0 45.82655934 0 3873.25846628 0 169.52362587 0 985.48695869 0 19468
0.13450000 0.13450700 12909.32533201 0 201.04353458 0 3804.61181227 0 -306.12113762 0 1050.56583016 0 19953
0.13550000 0.13551000 12731.04861141 0 310.32626506 0 4024.14172104 0 -349.98328083 0 1072.55928738 0 19956
0.13650000 0.13649900 12502.07655602 0 449.77103363 0 4021.32031771 0 -637.70122508 0 737.08094225 0 19723
0.13750000 0.13749600 12140.35241550 0 299.21712994 0 3942.93926016 0 -94.58524242 0 494.99217152 0 20946
0.13850000 0.13851100 11961.62606888 0 99.81473036 0 3981.40476696 0 215.75642233 0 50.87282467 0 20955
0.13950000 0.13949800 11930.60187286 0 14.68163873 0 3720.32941309 0 441.04491647 0 -133.52206971 0 20506
0.14050000 0.14048300 11862.48352943 0 -50.08552949 0 3947.60413022 0 332.51306147 0 -286.93334682 0 21447
0.14150000 0.14148400 11860.46021230 0 66.36210416 0 3653.85220466 0 36.34192307 0 -208.05657658 0 21771
0.14250000 0.14249400 11747.71648547 0 259.29820700 0 4006.51638070 0 -18.06406294 0 385.77238870 0 22470
0.14350000 0.14350900 11585.73870843 0 346.06928625 0 3977.97636849 0 -224.19702696 0 311.54250346 0 22519
0.14450000 0.14449900 11440.05987496 0 278.02513112 0 4420.18356825 0 101.03085636 0 1071.14408946 0 22218
0.14550000 0.14550500 11214.99956602 0 226.25519011 0 4098.01527765 0 504.44668285 0 892.77182333 0 23559
0.14650000 0.14650700 11037.29611862 0 88.48325517 0 3780.34324734 0 821.38357461 0 987.02243158 0 23044
0.14750000 0.14750500 10888.94201027 0 -34.46169942 0 3409.88512120 0 876.91238922 0 1111.50139778 0 23649
0.14850000 0.14849900 11008.77858771 0 66.01892709 0 2955.76283167 0 528.33306566 0 874.99473420 0 23640
0.14950000 0.14949500 10671.15440236 0 132.58909570 0 2619.13906423 0 132.91395050 0 729.77676741 0 24457
0.15050000 0.15050000 10650.74138063 0 266.98456397 0 2602.30056943 0 -450.14309917 0 765.98964780 0 24591
0.15150000 0.15149900 10372.16433356 0 228.38192123 0 2642.76691206 0 -455.69822876 0 711.23981029 0 25020
0.15250000 0.15250500 10392.07152601 0 161.38764287 0 2937.51925553 0 -172.24611148 0 766.19647578 0 25297
0.15350000 0.15350100 10122.70057189 0 100.37889862 0 2757.12929260 0 177.87767749 0 474.35658491 0 25452
0.15450000 0.15450400 10188.94172665 0 -48.94168088 0 2711.07634655 0 421.57386128 0 209.50324832 0 26061
0.15550000 0.15549900 10013.62129720 0 87.46395296 0 2406.64580281 0 430.84290187 0 -258.55295185 0 26128
0.15650000 0.15649500 9899.91087440 0 144.76721670 0 2038.72806373 0 106.15940326 0 -247.50226812 0 26331
0.15750000 0.15749700 9832.81543019 0 149.58271147 0 2143.20991228 0 -112.20563688 0 -165.46687502 0 27345
0.15850000 0.15849900 9702.26651260 0 67.68344265 0 2024.19390234 0 -78.58338926 0 -56.23922374 0 26980
0.15950000 0.15949700 9516.89694139 0 142.09531402 0 2092.86303765 0 -102.55317769 0 -207.12135443 0 27777
0.16050000 0.16050000 9703.70531589 0 75.90373053 0 2228.40280417 0 129.28097219 0 87.97315444 0 28224
0.16150000 0.16150500 9408.09868297 0 130.91086654 0 2140.02880812 0 289.43439161 0 188.29101633 0 28075
0.16250000 0.16249700 9535.29788664 0 125.15115711 0 2300.61274446 0 435.03116833 0 778.93325712 0 28590
0.16350000 0.16349900 9149.77728852 0 88.26822152 0 2050.33965594 0 485.37354669 0 1029.76500599 0 29163
0.16450000 0.16449100 9260.74499254 0 126.45170040 0 1971.64386017 0 328.15393712 0 1302.29683109 0 28996
0.16550000 0.16550500 9078.43287833 0 141.16683627 0 1713.15385596 0 217.28065456 0 1372.84315508 0 30777
0.16650000 0.16650700 8930.74196838 0 160.13431031 0 1784.82424502 0 -35.69850822 0 1018.27818500 0 29211
0.16750000 0.16749900 8813.85044142 0 193.48756916 0 1741.33416734 0 -206.86956386 0 982.87350740 0 30922
0.16850000 0.16850800 8708.17708390 0 135.79492929 0 1764.02904117 0 -351.73794641 0 713.73523475 0 30867
0.16950000 0.16949900 8566.38751558 0 140.62054064 0 2003.83708386 0 -200.88391734 0 981.56959191 0 30852
0.17050000 0.17049200 8646.20737642 0 104.11933756 0 1955.87322719 0 130.72651987 0 692.17341852 0 31257
0.17150000 0.17149500 8575.62733048 0 -9.83608646 0 1899.82734265 0 341.41902904 0 739.11100378 0 32608
0.17250000 0.17250900 8606.15693787 0 5.70971102 0 1643.14708321 0 487.68912074 0 910.87039507 0 32361
0.17350000 0.17350400 8574.63815322 0 20.88703997 0 1700.26082957 0 278.70069422 0 533.32054239 0 32508
0.17450000 0.17449800 8571.22099540 0 69.96619400 0 1250.26385886 0 -16.60109225 0 540.80569171 0 32791
0.17550000 0.17549800 8394.92262933 0 157.78051805 0 1496.47907247 0 -228.31110513 0 281.04774210 0 33633
0.17650000 0.17650100 8234.18132388 0 214.42103302 0 1213.85539114 0 -407.35668623 0 56.35545207 0 33984
0.17750000 0.17750300 8085.73729032 0 210.10911940 0 1391.88481742 0 -294.11949483 0 -312.03371990 0 34069
