### header ###
fiducial parameters:
Omega_m = 0.31
Omega_nu = 0
Omega_de = 0.69
Omega_k = 0
H_0 = 100
w_de = -1
zeff = 0
beta = 0
fgrowth = 0
b_1 = 2
gamma = 0.55
Lx = 3500 Ly = 3500 Lz = 3500
nx = 700 ny = 700 nz = 700
xoffset = 857.220397 yoffset = 15.9954215 zoffset = 262.898189
bins = 400 dk = 0.001
kx_ny = 0.628318531 ky_ny = 0.628318531 kz_ny = 0.628318531
############################
A(data) = 3.06654466 (not used)
A(ran) = 3.06575802 (used)
Ngal = 187354
weighted Ngal = 0
Nran = 9360983
weighted Nran = 0
SN(data) = 3446.60415
SN(ran) = 68.8454035
SN(data+ran) = 3515.44956
############################
13 columns: k_central k_mean P_0(k) sigma^{lin}_{P_0(k)} P^img_1(k) sigma^{lin}_{P_1(k)} P_2(k) sigma^{lin}_{P_2(k)} P^img_3(k) sigma^{lin}_{P_3(k)} P_4(k) sigma^{lin}_{P_4(k)} N_modes
### header ###
0.00050000 0 0 0 0 0 0 0 0 0 0 0 0
0.00150000 0.00179520 33235.90645537 0 -52164.03822128 0 -43503.11683305 0 72094.72362589 0 73259.14263512 0 3
0.00250000 0.00253879 56156.38014141 0 -47439.70512555 0 -14193.56967802 0 -79918.10412816 0 -66729.56103199 0 6
0.00350000 0.00331552 94124.26333500 0 -49037.67603347 0 -61610.45628259 0 19817.15483223 0 22999.72027370 0 7
0.00450000 0.00420575 119573.54621599 0 -35703.90372986 0 -40507.03378721 0 -57554.49227933 0 -13002.17310704 0 24
0.00550000 0.00557378 141901.97482803 0 2068.32469711 0 -44427.21072965 0 -87030.06384565 0 -5910.90742754 0 45
0.00650000 0.00659388 127312.73424428 0 10512.38021078 0 17153.23301549 0 -71019.55538348 0 -37273.43579143 0 40
0.00750000 0.00754703 109339.15853844 0 28085.77750995 0 -10137.16728938 0 -64507.28438248 0 -20486.76039628 0 57
0.00850000 0.00846663 99520.00049889 0 11188.85381242 0 4300.13341844 0 -19993.74545521 0 -39635.09651001 0 75
0.00950000 0.00948925 83049.86182832 0 1402.51847301 0 3220.03053035 0 -13124.35898049 0 -37554.67687272 0 112
0.01050000 0.01054430 96162.86775157 0 -10655.19267832 0 579.51736876 0 13593.54374200 0 -52439.54657070 0 105
0.01150000 0.01145670 102208.87656025 0 -12804.56246719 0 -6335.79278452 0 6201.18599202 0 -47249.17609566 0 144
0.01250000 0.01249090 110636.55444581 0 -6778.08990949 0 -3999.01886666 0 -4351.06480690 0 -27512.16710314 0 169
0.01350000 0.01339930 113078.69822362 0 226.92962915 0 8941.24073616 0 -10811.97727471 0 -3750.25202533 0 180
0.01450000 0.01448870 107815.03870582 0 8577.57196306 0 13583.65196936 0 -13235.41660971 0 786.72077995 0 267
0.01550000 0.01550050 105435.39294607 0 13384.24282539 0 8717.50682401 0 -4098.52110693 0 -9724.19702217 0 238
0.01650000 0.01653350 90962.15587786 0 8996.67962556 0 34322.87738105 0 -7843.50126707 0 10452.09660091 0 315
0.01750000 0.01747870 83088.97929286 0 7509.66518101 0 47295.71238969 0 -885.88580070 0 -1705.82495168 0 297
0.01850000 0.01844180 80991.36145995 0 2553.42622005 0 46394.88664011 0 841.26716168 0 5656.44157629 0 388
0.01950000 0.01947590 78062.72231850 0 3075.41955870 0 39553.26457269 0 2432.74659380 0 843.21629052 0 399
0.02050000 0.02045430 75172.41379604 0 1646.98014510 0 42802.93669902 0 8714.97767759 0 6828.67283778 0 462
0.02150000 0.02154770 74680.74773307 0 2659.31314994 0 37342.11616740 0 17090.39777791 0 20941.78193787 0 571
0.02250000 0.02255340 76651.00899319 0 750.80352867 0 39600.70011877 0 18129.59593799 0 24152.33659965 0 510
0.02350000 0.02348930 71608.45307527 0 2088.38925866 0 28715.47876390 0 20728.99641953 0 34586.47064069 0 555
0.02450000 0.02439640 71922.17963717 0 1620.38476548 0 25000.33129080 0 16281.29573829 0 30939.44151102 0 592
0.02550000 0.02547300 67166.93475194 0 3726.71410270 0 20941.33231184 0 15344.16268685 0 43198.72001126 0 837
0.02650000 0.02652900 66224.63100116 0 4423.58948542 0 24572.06249795 0 9459.10875599 0 34027.47307984 0 723
0.02750000 0.02749970 62660.33306087 0 5298.88771719 0 20411.89766241 0 3357.71726116 0 45971.45132707 0 826
0.02850000 0.02848090 56572.50903147 0 3898.08906375 0 22775.91891764 0 2729.57845766 0 26701.37896592 0 831
0.02950000 0.02946900 55003.87622196 0 2326.43251919 0 20525.87786082 0 1348.18116737 0 34912.67432491 0 996
0.03050000 0.03053250 52410.09606578 0 -942.41840542 0 19603.91968786 0 6962.72883839 0 22643.39164552 0 1041
0.03150000 0.03150510 54745.11644213 0 -1309.64821667 0 13399.08048436 0 5881.61429174 0 15230.18248843 0 1036
0.03250000 0.03246190 55334.23894694 0 -1690.11052196 0 8573.04198081 0 8604.05493618 0 15524.68753759 0 1059
0.03350000 0.03345080 55160.12126712 0 -933.55740045 0 8512.75837094 0 -2225.15425610 0 -2070.22436708 0 1302
0.03450000 0.03451200 55473.62301601 0 832.25440793 0 2659.66161011 0 -4439.14654603 0 4254.95724315 0 1339
0.03550000 0.03553350 55202.49852038 0 2513.01608067 0 9936.10576976 0 -6970.39496219 0 -3948.30105056 0 1365
0.03650000 0.03647120 52081.08221889 0 2257.94323429 0 10644.55902273 0 -10156.00662001 0 -1360.38851407 0 1308
0.03750000 0.03744890 50767.38736796 0 1961.99938184 0 17902.19757370 0 -922.20209508 0 -117.71659072 0 1579
0.03850000 0.03847530 49643.65951438 0 776.83687576 0 21776.84988067 0 2546.06359382 0 -876.23232985 0 1662
0.03950000 0.03950240 49734.93359831 0 -53.90712593 0 17725.38213770 0 6358.18416078 0 722.45011126 0 1683
0.04050000 0.04050350 48693.37490158 0 445.88064442 0 20754.17547717 0 1922.35360671 0 3337.10190772 0 1822
0.04150000 0.04152450 50083.95580351 0 417.62164848 0 17040.93891469 0 5655.51984293 0 6054.05711460 0 1887
0.04250000 0.04250150 47098.21415635 0 -352.35618220 0 19006.92872754 0 1219.90286123 0 5813.20369139 0 1920
0.04350000 0.04349210 48824.21607609 0 931.81847178 0 14295.85959967 0 -1827.59492105 0 3547.88659022 0 2005
0.04450000 0.04448520 47956.43783966 0 187.91220640 0 15069.66599600 0 2256.42574644 0 4088.41576192 0 2151
0.04550000 0.04548030 45992.13412442 0 1979.18633681 0 12250.51079266 0 1530.57196613 0 1695.83201318 0 2274
0.04650000 0.04648670 45002.50723406 0 1868.53337101 0 13887.26194560 0 -165.20384379 0 2276.00696001 0 2311
0.04750000 0.04749250 43189.27786464 0 2335.99831296 0 11812.12541415 0 -1030.48553170 0 -587.07333418 0 2568
0.04850000 0.04851840 41810.38723947 0 1891.14956028 0 15469.72075551 0 -923.70047382 0 425.79247749 0 2493
0.04950000 0.04949480 39416.57825980 0 2183.88982727 0 13565.44211517 0 -2661.33646707 0 -24.19066722 0 2644
0.05050000 0.05050630 39155.00831729 0 1606.89598460 0 19896.51382639 0 -629.60346029 0 3271.40030419 0 2829
0.05150000 0.05149060 37341.66654137 0 1665.30240580 0 16571.41693366 0 -94.94404399 0 -2578.83009070 0 2784
0.05250000 0.05249300 36660.48310707 0 801.51572444 0 20163.25446824 0 723.94511781 0 3237.23996662 0 3055
0.05350000 0.05348950 37740.70964232 0 -64.33530243 0 17481.12279732 0 3192.51341736 0 -240.46337263 0 3009
0.05450000 0.05448610 37055.70438677 0 -316.39396832 0 17671.20220118 0 3093.01117709 0 1130.13502449 0 3336
0.05550000 0.05550870 38480.00724089 0 -312.49795878 0 16332.89032514 0 2880.99002300 0 -62.72170701 0 3349
0.05650000 0.05647670 36073.49632590 0 -120.49752771 0 13821.72895184 0 2784.33166737 0 -1454.16926312 0 3324
0.05750000 0.05747970 36751.98200402 0 635.72849087 0 11557.07504907 0 2069.81970365 0 341.86078662 0 3639
0.05850000 0.05849280 35344.20290647 0 1164.84615395 0 8106.38636572 0 1861.64285211 0 -4025.09717636 0 3846
0.05950000 0.05951020 34409.31798517 0 1120.95253691 0 8098.47294760 0 1089.85977292 0 -2093.47003279 0 3787
0.06050000 0.06049470 32549.55232173 0 1263.66271453 0 5804.04256104 0 -584.18223881 0 -5484.48210141 0 3930
0.06150000 0.06148310 31930.19246645 0 577.20179471 0 5082.12300850 0 -361.75898654 0 -2902.12244638 0 4083
0.06250000 0.06249100 31297.79345633 0 426.48827377 0 6672.15801700 0 -1274.43125793 0 -4571.44900514 0 4303
0.06350000 0.06350600 31373.66784876 0 440.75265955 0 7347.46259096 0 -1726.84496855 0 -4179.09409137 0 4470
0.06450000 0.06451750 31290.14981383 0 380.62866692 0 10421.69064068 0 -906.25161169 0 -3108.46707185 0 4479
0.06550000 0.06550280 31790.13395835 0 739.00421759 0 11626.42986408 0 -408.78087668 0 -657.21724287 0 4636
0.06650000 0.06648880 30773.30469322 0 1087.63300001 0 12694.06687051 0 -194.05184983 0 -10.11243786 0 4653
0.06750000 0.06749660 30113.25368230 0 1219.62184496 0 13807.11610589 0 1550.51288053 0 930.11438913 0 5220
0.06850000 0.06852730 29196.12898915 0 1653.43227862 0 14918.59165017 0 863.58322558 0 3319.29671696 0 5029
0.06950000 0.06949320 27810.38156704 0 1031.66355190 0 13172.13174610 0 1564.76602566 0 1600.36516652 0 5040
0.07050000 0.07048030 27791.60968032 0 640.74406923 0 14643.42052028 0 990.31481818 0 5716.48913250 0 5475
0.07150000 0.07148790 26928.21529767 0 -158.44484051 0 12807.70984940 0 1035.75177657 0 2585.81053481 0 5509
0.07250000 0.07249820 27272.29161655 0 -489.82484438 0 12022.43798933 0 1523.08569275 0 3491.53720811 0 5916
0.07350000 0.07351270 27331.86706542 0 -403.19202513 0 11499.74773034 0 951.48623836 0 1118.36493911 0 5721
0.07450000 0.07449140 27694.71527102 0 -51.45340428 0 10202.38554492 0 1135.44061164 0 517.33296485 0 6028
0.07550000 0.07549160 27232.49971296 0 236.68538992 0 9333.15726454 0 1090.37009847 0 -861.44300568 0 6183
0.07650000 0.07648840 27036.23795119 0 566.58837229 0 8019.94576160 0 926.71072008 0 -652.58834290 0 6330
0.07750000 0.07749960 26411.93220960 0 466.74441624 0 7396.77532572 0 1595.23942979 0 -819.09385405 0 6583
0.07850000 0.07848650 25477.27210131 0 870.87391164 0 6685.39950356 0 1675.64380447 0 -271.57974199 0 6549
0.07950000 0.07947320 25281.23515256 0 0.29668124 0 6370.73996765 0 947.07653108 0 469.61865063 0 6828
0.08050000 0.08048110 25626.09831699 0 35.05419412 0 6035.15034007 0 1836.09285300 0 1199.41115495 0 7147
0.08150000 0.08149960 25523.80839534 0 139.82470257 0 7125.98804961 0 531.31633436 0 4031.92025135 0 7386
0.08250000 0.08250610 25968.26372524 0 102.91591349 0 6477.09900486 0 375.75809296 0 5073.41150418 0 7227
0.08350000 0.08350160 25464.45775948 0 408.49761228 0 6998.62023618 0 1012.66347996 0 5713.73517307 0 7798
0.08450000 0.08449610 25597.54706413 0 522.05628629 0 7350.00297803 0 439.46448098 0 9179.13786823 0 7371
0.08550000 0.08548940 24555.08911534 0 827.09494924 0 8165.48970726 0 61.30920684 0 5523.10497732 0 8256
0.08650000 0.08650700 24104.67624055 0 914.28080851 0 8245.29832745 0 -239.95417115 0 8524.10018753 0 8037
0.08750000 0.08749060 22722.07620064 0 719.09140482 0 9285.00231681 0 -380.62192253 0 5288.36646811 0 8155
0.08850000 0.08849210 22856.17716386 0 527.14043262 0 7962.71960872 0 -484.54061448 0 6138.36199508 0 8718
0.08950000 0.08949900 22263.34524431 0 374.74418627 0 10279.76618455 0 -87.80544393 0 4088.93283186 0 8571
0.09050000 0.09049190 21611.27509540 0 540.49769788 0 8305.36836496 0 181.82989029 0 3241.19667568 0 8932
0.09150000 0.09150830 21209.98386431 0 703.97385366 0 8541.91661894 0 696.48420807 0 2992.08137418 0 9285
0.09250000 0.09250820 20583.65480558 0 540.96193675 0 7647.04841425 0 -168.81321674 0 2389.42512589 0 9204
0.09350000 0.09350330 20272.06396731 0 654.89267630 0 8239.10472890 0 734.62373600 0 2480.20462119 0 9349
0.09450000 0.09448040 19929.22412002 0 362.99320999 0 8319.43041902 0 -245.16196464 0 1483.96822820 0 9564
0.09550000 0.09549270 19210.27209926 0 602.69783870 0 7318.81017225 0 137.38098510 0 939.61161493 0 10155
0.09650000 0.09649430 19051.32929793 0 334.84774463 0 7869.57957677 0 -224.36563672 0 308.34229020 0 9913
0.09750000 0.09749140 18520.77058342 0 7.26007777 0 6761.90337243 0 409.73183573 0 -134.21786599 0 10476
0.09850000 0.09850240 18591.24946351 0 104.69002540 0 7128.46099277 0 296.18889863 0 -1355.39766514 0 10575
0.09950000 0.09950330 18159.60847544 0 262.30620513 0 6026.21402274 0 509.53195325 0 -1902.62626468 0 10882
0.10050000 0.10051200 17884.66215856 0 423.35775255 0 5564.93143869 0 1000.45388514 0 -2260.89952543 0 10875
0.10150000 0.10150300 17205.95166742 0 445.59175969 0 5395.57979478 0 320.69014503 0 -1170.72501428 0 11118
0.10250000 0.10250800 16963.94045718 0 258.79125365 0 4973.76313545 0 1399.93312334 0 -1243.55319037 0 11575
0.10350000 0.10349800 16610.30958519 0 304.11018520 0 4744.40889793 0 886.53551031 0 -1970.19381622 0 11364
0.10450000 0.10450100 16438.32762900 0 145.72941640 0 4581.83536641 0 480.34897582 0 -483.11080370 0 12093
0.10550000 0.10551000 16196.42882527 0 261.07198168 0 3908.21689006 0 321.51296066 0 -876.21884107 0 12067
0.10650000 0.10649700 16264.43476219 0 19.49870720 0 4457.39012217 0 377.30480650 0 38.40784226 0 12054
0.10750000 0.10749900 16019.38857626 0 -61.24940658 0 3441.11164893 0 305.51863874 0 -805.31281626 0 12807
0.10850000 0.10850100 16426.41253923 0 177.00989926 0 4926.81093735 0 -342.62290274 0 -354.61555300 0 12736
0.10950000 0.10950300 16144.38461239 0 240.55104971 0 4466.83226878 0 -224.12621086 0 -1113.57529784 0 12933
0.11050000 0.11050200 16103.24383071 0 426.16679116 0 5707.14815174 0 -806.93259403 0 634.98660792 0 13428
0.11150000 0.11150900 15750.39980426 0 512.01838519 0 5406.17972842 0 -752.82909393 0 363.80928123 0 13453
0.11250000 0.11250000 15413.62990836 0 528.06553817 0 6293.23568086 0 -653.08405560 0 -9.75443437 0 13668
0.11350000 0.11349100 15128.56700583 0 374.01466803 0 6204.98533197 0 -306.06043810 0 704.42235562 0 13791
0.11450000 0.11448600 14979.85319666 0 308.31980890 0 6896.44272103 0 153.28650589 0 -80.54668132 0 14205
0.11550000 0.11549300 14779.65720714 0 215.37873646 0 6076.72950713 0 552.70954083 0 -287.89329839 0 14776
0.11650000 0.11649800 14325.42251110 0 201.62692436 0 5721.72727574 0 383.22525724 0 -1223.43242556 0 14553
0.11750000 0.11747300 14066.55032476 0 205.09016885 0 5364.78041178 0 370.77623656 0 -1353.55419842 0 14568
0.11850000 0.11849100 14332.16690154 0 -0.42861725 0 5139.92243455 0 414.30790464 0 -941.22914457 0 16015
0.11950000 0.11950300 14025.29713658 0 -246.25905215 0 5564.27948095 0 392.16944303 0 -1431.23833562 0 15270
0.12050000 0.12050700 14527.07978521 0 -111.85785115 0 5634.27501305 0 355.73174962 0 -61.35360741 0 15999
0.12150000 0.12150000 14492.68339397 0 29.83752052 0 5952.99242388 0 211.75137847 0 -521.43692643 0 15670
0.12250000 0.12250700 14508.19549198 0 410.72550925 0 6355.68873632 0 -188.85080074 0 1258.63814365 0 16887
0.12350000 0.12352200 14367.12532531 0 430.18757193 0 6780.33803963 0 331.67450892 0 1833.19276511 0 16407
0.12450000 0.12449800 13845.78394441 0 302.00481132 0 6830.77483946 0 274.00547441 0 2185.20498341 0 16306
0.12550000 0.12549900 13851.85389580 0 219.34556210 0 6392.80536503 0 789.75350751 0 1980.98484093 0 17523
0.12650000 0.12650100 13522.16560986 0 32.66510621 0 5732.82179801 0 489.51235429 0 1760.44327358 0 17154
0.12750000 0.12750600 13518.90582115 0 84.62951048 0 5510.41428265 0 457.87329468 0 1850.94175262 0 18007
0.12850000 0.12850300 13404.81321623 0 51.68900832 0 4733.86516755 0 268.46495767 0 1374.90019416 0 17496
0.12950000 0.12949900 13365.58334518 0 99.07273501 0 4780.76116240 0 273.47828789 0 1380.67788864 0 18405
0.13050000 0.13049000 13147.85194052 0 193.70226559 0 4345.46696284 0 254.89636817 0 831.24274936 0 18100
0.13150000 0.13148800 13077.93509297 0 -9.07180089 0 3968.33189016 0 795.67058606 0 1326.26189845 0 19059
0.13250000 0.13249300 12945.29541435 0 -160.94026497 0 3375.00538198 0 1007.75918405 0 883.08912679 0 18957
0.13350000 0.13349100 13127.61876920 0 -120.47954266 0 2851.62944329 0 877.05626955 0 971.54630366 0 19468
0.13450000 0.13450700 13063.43465353 0 26.48465922 0 2529.94450067 0 527.71482987 0 259.12959724 0 19953
0.13550000 0.13551000 12891.00307132 0 409.75094484 0 2345.06951810 0 -276.89544572 0 307.36884985 0 19956
0.13650000 0.13649900 12665.96524368 0 464.41872560 0 2128.63078828 0 -569.51431368 0 615.95281404 0 19723
0.13750000 0.13749600 12176.88453038 0 366.35753675 0 2375.93634501 0 -502.39189190 0 475.31878462 0 20946
0.13850000 0.13851100 12153.72878987 0 272.16762802 0 2635.12326956 0 -89.48041330 0 670.24515707 0 20955
0.13950000 0.13949800 11849.66918760 0 154.74666642 0 2886.22816624 0 131.39533859 0 112.80330228 0 20506
0.14050000 0.14048300 11920.93491323 0 248.26213611 0 3123.74311619 0 127.32734709 0 518.50199253 0 21447
0.14150000 0.14148400 11610.24332703 0 134.05712468 0 2907.99006606 0 122.98283558 0 130.58263954 0 21771
0.14250000 0.14249400 11482.09990869 0 77.45111851 0 3343.88002011 0 -296.32828270 0 522.95329022 0 22470
0.14350000 0.14350900 11460.63026580 0 105.68695871 0 3436.64911059 0 -159.12377581 0 179.93246845 0 22519
0.14450000 0.14449900 11534.48134110 0 44.55321842 0 3505.85779714 0 -173.00710353 0 117.42096160 0 22218
0.14550000 0.14550500 11260.54668278 0 170.14973012 0 3733.89687852 0 -145.98570324 0 247.63378373 0 23559
0.14650000 0.14650700 11179.10816824 0 208.26452861 0 3716.61999835 0 225.21655398 0 40.95474891 0 23044
0.14750000 0.14750500 10949.77641203 0 283.43975257 0 4016.38567204 0 113.65646767 0 658.66166649 0 23649
0.14850000 0.14849900 10870.84456259 0 321.27803106 0 3953.10080842 0 170.18457613 0 583.03456838 0 23640
0.14950000 0.14949500 10513.50427585 0 268.63131930 0 4356.92118594 0 190.37053671 0 1272.45290340 0 24457
0.15050000 0.15050000 10412.40586318 0 197.00364471 0 4169.68566671 0 -26.20825162 0 1615.64121087 0 24591
0.15150000 0.15149900 10426.02953187 0 63.03093732 0 4408.97663947 0 473.36965578 0 2130.95760298 0 25020
0.15250000 0.15250500 10208.68030933 0 149.21851439 0 4225.47301629 0 365.81011706 0 2027.07150892 0 25297
0.15350000 0.15350100 10233.52214745 0 84.02903491 0 3777.19586513 0 670.02371625 0 1893.84731646 0 25452
0.15450000 0.15450400 9968.69241622 0 137.73169341 0 3777.71293507 0 531.11962297 0 2134.37476080 0 26061
0.15550000 0.15549900 9889.47955052 0 113.17536782 0 2893.93925265 0 325.42583118 0 1959.35782892 0 26128
0.15650000 0.15649500 9727.41184828 0 166.22112268 0 3156.37472526 0 184.39613085 0 1689.05390079 0 26331
0.15750000 0.15749700 9641.58947995 0 74.18941889 0 2640.30520955 0 -89.09373491 0 1432.67713892 0 27345
0.15850000 0.15849900 9587.37582148 0 44.25477915 0 2839.43333725 0 -188.12353063 0 1308.07452557 0 26980
0.15950000 0.15949700 9609.26136845 0 7.71312096 0 2690.49471507 0 -282.54387271 0 854.43558401 0 27777
0.16050000 0.16050000 9552.70965462 0 101.99429254 0 2857.35093452 0 -389.23788132 0 553.70995875 0 28224
0.16150000 0.16150500 9580.53026518 0 104.00378367 0 2953.91936495 0 -125.31189841 0 71.48963940 0 28075
0.16250000 0.16249700 9441.58458150 0 72.01929886 0 2679.47887735 0 93.27952843 0 -85.10116818 0 28590
0.16350000 0.16349900 9415.83225067 0 54.13407467 0 2636.98921759 0 210.53176787 0 -165.40280331 0 29163
0.16450000 0.16449100 9329.25675874 0 88.01586891 0 2429.35191728 0 415.11498337 0 -528.61295786 0 28996
0.16550000 0.16550500 9158.24149852 0 103.82168513 0 2151.51675317 0 463.77238818 0 -322.01654182 0 30777
0.16650000 0.16650700 8967.83611579 0 118.81817449 0 1915.03594309 0 472.11295103 0 -270.24210455 0 29211
0.16750000 0.16749900 8880.97960759 0 83.77027513 0 1725.24879614 0 359.37821672 0 -87.33569714 0 30922
0.16850000 0.16850800 8929.49425614 0 94.11965467 0 1752.82211239 0 232.90178689 0 222.42887260 0 30867
0.16950000 0.16949900 8851.67523113 0 115.80568009 0 1747.87622607 0 -148.93637406 0 599.12106364 0 30852
0.17050000 0.17049200 8825.02364825 0 129.62943236 0 2036.14271406 0 26.04975844 0 931.47001160 0 31257
0.17150000 0.17149500 8619.43214638 0 160.89642643 0 2011.84042718 0 -188.83731196 0 955.56322238 0 32608
0.17250000 0.17250900 8619.89301306 0 131.70445648 0 2415.02008760 0 19.27344456 0 1390.01886939 0 32361
0.17350000 0.17350400 8517.86162638 0 236.13684617 0 2429.45308314 0 -9.88826556 0 1226.50112321 0 32508
0.17450000 0.17449800 8379.30936547 0 257.07143409 0 2596.16317413 0 84.96347021 0 1631.67037881 0 32791
0.17550000 0.17549800 8052.52116741 0 127.68255165 0 2520.98570204 0 -25.68972040 0 1167.47646622 0 33633
0.17650000 0.17650100 8165.26489425 0 69.66786713 0 2217.03850628 0 -52.43673641 0 1229.80587453 0 33984
0.17750000 0.17750300 8038.77385157 0 5.29252551 0 2349.79059141 0 -74.54080163 0 670.46434976 0 34069
0.17850000 0.17849800 8013.66223784 0 73.81960148 0 2091.21066199 0 -207.75982340 0 315.37219317 0 34536
