### header ###
fiducial parameters:
Omega_m = 0.31
Omega_nu = 0
Omega_de = 0.69
Omega_k = 0
H_0 = 100
w_de = -1
zeff = 0
beta = 0
fgrowth = 0
b_1 = 2
gamma = 0.55
Lx = 3500 Ly = 3500 Lz = 3500
nx = 700 ny = 700 nz = 700
xoffset = 857.220397 yoffset = 15.9954215 zoffset = 262.898189
bins = 400 dk = 0.001
kx_ny = 0.628318531 ky_ny = 0.628318531 kz_ny = 0.628318531
############################
A(data) = 3.13015757 (not used)
A(ran) = 3.13025251 (used)
Ngal = 190897
weighted Ngal = 0
Nran = 9360983
weighted Nran = 0
SN(data) = 3440.82072
SN(ran) = 70.2937073
SN(data+ran) = 3511.11443
############################
13 columns: k_central k_mean P_0(k) sigma^{lin}_{P_0(k)} P^img_1(k) sigma^{lin}_{P_1(k)} P_2(k) sigma^{lin}_{P_2(k)} P^img_3(k) sigma^{lin}_{P_3(k)} P_4(k) sigma^{lin}_{P_4(k)} N_modes
### header ###
0.00050000 0 0 0 0 0 0 0 0 0 0 0 0
0.00150000 0.00179520 1158.95605297 0 -7526.35754735 0 -6393.91818945 0 6679.22838631 0 1042.83788279 0 3
0.00250000 0.00253879 7023.02368891 0 -10322.27832562 0 -5131.22217089 0 -5005.33812335 0 -5310.58923460 0 6
0.00350000 0.00331552 14439.29030300 0 -12509.38297900 0 -6182.63891831 0 -7231.97614535 0 13393.90978502 0 7
0.00450000 0.00420575 23169.00447370 0 -10772.03924267 0 -8166.69245689 0 -15697.90596535 0 -4445.78977061 0 24
0.00550000 0.00557378 37559.95997856 0 -9434.78398780 0 -5087.14757937 0 -20321.18561101 0 -596.79649707 0 45
0.00650000 0.00659388 39653.98080324 0 -6363.98433656 0 -3283.11306225 0 -17478.31263463 0 -11018.45678799 0 40
0.00750000 0.00754703 56416.26398631 0 -12586.94346904 0 2321.61028003 0 -15786.03266708 0 8305.97536010 0 57
0.00850000 0.00846663 65187.00653218 0 -10887.03109964 0 -5581.35402941 0 -2599.35551894 0 -24627.70371907 0 75
0.00950000 0.00948925 81599.70547751 0 -9986.72242000 0 -2615.78935031 0 -9621.83965662 0 -7481.88953306 0 112
0.01050000 0.01054430 81053.63466500 0 -666.27608330 0 -2574.98578815 0 -6281.19694392 0 -11336.53348173 0 105
0.01150000 0.01145670 82440.05652616 0 6283.04041064 0 3741.76533403 0 -4845.81080818 0 -15511.87319575 0 144
0.01250000 0.01249090 70263.39680880 0 10877.03816115 0 4377.03071009 0 -5646.15638088 0 -7332.43384094 0 169
0.01350000 0.01339930 66744.51109746 0 7884.87810241 0 7273.55531241 0 6440.81418430 0 -8635.89969970 0 180
0.01450000 0.01448870 59783.06369325 0 -1500.15476526 0 -3971.49051302 0 19090.67157549 0 377.69598115 0 267
0.01550000 0.01550050 61195.00183157 0 -5232.66904374 0 -8410.44596799 0 16167.54035289 0 -12384.16212985 0 238
0.01650000 0.01653350 69322.66674912 0 -8315.78844818 0 -18336.08669191 0 3770.57512185 0 -9728.05256538 0 315
0.01750000 0.01747870 73645.37139423 0 -6067.59085808 0 -23425.85334291 0 -6449.85166749 0 -13750.80044573 0 297
0.01850000 0.01844180 75715.78685238 0 103.08294956 0 -15921.48250839 0 -20866.24476495 0 -18714.89662155 0 388
0.01950000 0.01947590 74609.70682045 0 1339.57082891 0 -700.48363160 0 -20795.31625884 0 -20904.91260347 0 399
0.02050000 0.02045430 73921.32936968 0 -599.10645079 0 -2039.79592555 0 -10166.22437152 0 -17513.27105841 0 462
0.02150000 0.02154770 75789.07589514 0 1663.32405127 0 7391.41353532 0 -2710.96394005 0 -25987.71005101 0 571
0.02250000 0.02255340 71210.30922638 0 617.60631376 0 652.36240582 0 -2714.45978242 0 -27239.01929038 0 510
0.02350000 0.02348930 68820.43447446 0 3425.99297370 0 10643.44619830 0 2902.09996508 0 -17728.75433292 0 555
0.02450000 0.02439640 69666.74306800 0 662.41379571 0 4776.69204683 0 4687.67733369 0 -9098.34007077 0 592
0.02550000 0.02547300 68331.69098068 0 -1984.88534673 0 3715.47345197 0 8139.26526910 0 5536.98718098 0 837
0.02650000 0.02652900 69846.48107319 0 -1361.86103931 0 -1911.50637876 0 12001.53037897 0 1218.66638965 0 723
0.02750000 0.02749970 71450.97155853 0 2097.73023942 0 -130.53992507 0 1632.07504224 0 23208.79637729 0 826
0.02850000 0.02848090 67368.36721303 0 6785.45253571 0 2251.10891864 0 -277.72950200 0 13785.08443046 0 831
0.02950000 0.02946900 63936.25932534 0 8473.11259582 0 19896.17660687 0 -10611.09560550 0 31957.95687376 0 996
0.03050000 0.03053250 55185.52513777 0 7782.74554987 0 26007.83081582 0 -6094.88315806 0 34073.78456085 0 1041
0.03150000 0.03150510 53245.72604112 0 5736.32888104 0 29651.60015677 0 1392.78406947 0 30811.63531221 0 1036
0.03250000 0.03246190 50340.69226621 0 1597.95966727 0 41544.88306921 0 5846.29616714 0 43854.49957490 0 1059
0.03350000 0.03345080 48010.73018269 0 -65.67867260 0 28718.62614610 0 13245.53319537 0 24145.25498969 0 1302
0.03450000 0.03451200 51362.01779163 0 -2524.83000459 0 33483.65039748 0 14729.97353091 0 35637.92111007 0 1339
0.03550000 0.03553350 51724.75359071 0 -1992.77628354 0 19018.39419129 0 8910.62120357 0 23703.72222898 0 1365
0.03650000 0.03647120 52334.10926684 0 704.56736001 0 22246.14704869 0 4189.88511607 0 27070.74674894 0 1308
0.03750000 0.03744890 51039.41111565 0 3242.62423832 0 18888.67708185 0 -1592.19321344 0 16694.83927868 0 1579
0.03850000 0.03847530 46130.73134793 0 5547.59835527 0 18988.60646685 0 -3950.11079533 0 14285.63060751 0 1662
0.03950000 0.03950240 42379.61379249 0 3949.12161807 0 20390.87764554 0 -2518.15305806 0 14479.98145865 0 1683
0.04050000 0.04050350 40923.05027077 0 -38.54306729 0 20679.42514980 0 2604.27892396 0 7401.96850636 0 1822
0.04150000 0.04152450 41350.08259204 0 -1510.61981109 0 17767.64698445 0 6632.91690530 0 7603.77190893 0 1887
0.04250000 0.04250150 43631.48506440 0 -918.72536181 0 14452.32945785 0 6592.11334314 0 -228.09303650 0 1920
0.04350000 0.04349210 42906.80031177 0 232.64887224 0 11764.91468108 0 5233.02874456 0 9760.39191753 0 2005
0.04450000 0.04448520 42590.37599370 0 816.66250130 0 7380.39769760 0 3518.40236336 0 3667.48711400 0 2151
0.04550000 0.04548030 43234.46528058 0 875.17233648 0 7615.97925563 0 1686.50227307 0 11096.20836910 0 2274
0.04650000 0.04648670 40633.37870143 0 1300.72313999 0 5904.80375420 0 -328.89244787 0 6315.79566687 0 2311
0.04750000 0.04749250 40178.69437936 0 2668.55296484 0 11634.97275863 0 -2693.51845011 0 9667.39801403 0 2568
0.04850000 0.04851840 38144.13659705 0 2640.96840794 0 14458.84903527 0 -2821.83047821 0 11665.54732862 0 2493
0.04950000 0.04949480 36592.02754412 0 1732.90367929 0 14538.09562293 0 686.29118599 0 13738.88535595 0 2644
0.05050000 0.05050630 35801.47257821 0 256.86797831 0 17423.79547859 0 3430.98382262 0 16565.90901480 0 2829
0.05150000 0.05149060 36609.78777227 0 -1770.08775191 0 17216.06825308 0 4976.47213228 0 12469.14144938 0 2784
0.05250000 0.05249300 38289.59061751 0 -1875.65994358 0 14206.04680033 0 4213.02961593 0 12153.05435083 0 3055
0.05350000 0.05348950 38902.09367584 0 -564.94723728 0 15532.10636707 0 -556.82586713 0 9822.83373234 0 3009
0.05450000 0.05448610 38730.44893918 0 1310.68235654 0 14529.88994789 0 -826.47334126 0 7483.20468919 0 3336
0.05550000 0.05550870 38043.86999253 0 2455.02556355 0 16317.82785317 0 -6522.35386471 0 2991.63174815 0 3349
0.05650000 0.05647670 35105.33907844 0 2220.36573889 0 15284.92445749 0 -2657.70573688 0 -479.95218085 0 3324
0.05750000 0.05747970 34708.54410763 0 2083.36468778 0 19368.54046156 0 -3721.43099686 0 -2948.40020544 0 3639
0.05850000 0.05849280 33012.89194486 0 1395.31321589 0 17566.32692986 0 -1853.98796897 0 -6369.58218062 0 3846
0.05950000 0.05951020 32231.21709303 0 -39.72637059 0 19177.89902516 0 515.98521083 0 -7684.83948200 0 3787
0.06050000 0.06049470 32418.37392770 0 -1156.07844638 0 14776.73463795 0 2634.23525816 0 -11955.33130447 0 3930
0.06150000 0.06148310 34124.14267613 0 -1341.63910865 0 15945.64990746 0 4605.39577034 0 -10017.00473307 0 4083
0.06250000 0.06249100 33117.87962269 0 -261.50699487 0 10392.54363334 0 2432.47681819 0 -13326.69069365 0 4303
0.06350000 0.06350600 33476.11916149 0 638.06991842 0 11789.08208016 0 3437.12121792 0 -8550.52695740 0 4470
0.06450000 0.06451750 32318.44454270 0 1583.75148474 0 10159.51370303 0 946.40546423 0 -8373.16072952 0 4479
0.06550000 0.06550280 31109.73736960 0 909.95765424 0 8794.69637258 0 1431.63175840 0 -4735.66367167 0 4636
0.06650000 0.06648880 30793.08823851 0 254.80307077 0 10217.88640228 0 2178.73036859 0 -1805.99039035 0 4653
0.06750000 0.06749660 30247.24223901 0 107.44241113 0 8275.02984863 0 2030.16268787 0 -303.23004225 0 5220
0.06850000 0.06852730 30095.26864113 0 601.84017705 0 8440.04260136 0 3304.53774255 0 1569.55454287 0 5029
0.06950000 0.06949320 28938.83049392 0 986.20973253 0 6125.39028414 0 2159.40768998 0 1236.97740969 0 5040
0.07050000 0.07048030 27956.06040051 0 1079.52287051 0 5997.46043817 0 2249.96237227 0 3674.16406053 0 5475
0.07150000 0.07148790 27545.32702280 0 514.80269437 0 5751.55996278 0 1654.71371281 0 3693.70031151 0 5509
0.07250000 0.07249820 26431.60334837 0 40.55716709 0 4406.25640199 0 1927.38941824 0 4529.75743157 0 5916
0.07350000 0.07351270 27597.70845521 0 -159.67569176 0 5674.86500284 0 -357.58870512 0 4288.30825387 0 5721
0.07450000 0.07449140 27276.78787684 0 -117.00955378 0 4577.76625085 0 -313.20499571 0 3923.40300919 0 6028
0.07550000 0.07549160 27878.61231697 0 45.47821157 0 7385.09628961 0 -1560.10115560 0 5433.76428531 0 6183
0.07650000 0.07648840 27348.50322850 0 107.97386910 0 7029.79056065 0 -1520.41041787 0 3825.37329417 0 6330
0.07750000 0.07749960 28052.05555775 0 502.50092621 0 8313.19185787 0 -909.78792041 0 4591.31123498 0 6583
0.07850000 0.07848650 27409.20274245 0 634.09972058 0 9193.68327027 0 -254.36131320 0 5152.88290485 0 6549
0.07950000 0.07947320 27125.93834403 0 987.57884379 0 8727.98311049 0 -131.31215777 0 5031.05673222 0 6828
0.08050000 0.08048110 26156.76943800 0 1185.03436266 0 9121.68690234 0 620.79079012 0 4399.19727333 0 7147
0.08150000 0.08149960 25220.53563862 0 1160.25996845 0 8914.16200855 0 -472.93913886 0 4508.84982122 0 7386
0.08250000 0.08250610 24141.88279447 0 922.57640875 0 8371.64324167 0 -577.06915503 0 1265.68603166 0 7227
0.08350000 0.08350160 23597.94770560 0 512.90077627 0 8907.41761811 0 586.52479043 0 2055.12817315 0 7798
0.08450000 0.08449610 23377.18132524 0 -218.96113185 0 7615.59707350 0 386.16131521 0 240.83543817 0 7371
0.08550000 0.08548940 23369.42527624 0 -589.10901603 0 7136.99264668 0 1692.62842772 0 -1501.05401732 0 8256
0.08650000 0.08650700 23908.63929180 0 -377.43407398 0 7252.49033294 0 1282.14234433 0 -780.83180303 0 8037
0.08750000 0.08749060 24028.80184812 0 -45.12143332 0 5541.24738760 0 255.17626037 0 -2363.68403571 0 8155
0.08850000 0.08849210 23817.47761438 0 780.24504106 0 5792.63330055 0 186.58693368 0 -97.23196604 0 8718
0.08950000 0.08949900 23303.66746946 0 966.00915911 0 5932.17473873 0 -219.63894309 0 -221.68698965 0 8571
0.09050000 0.09049190 22479.39055136 0 983.47038595 0 7545.02826821 0 95.78967815 0 2085.78142769 0 8932
0.09150000 0.09150830 22004.69787099 0 618.85515006 0 7935.65212176 0 912.54187984 0 3393.19275486 0 9285
0.09250000 0.09250820 21143.66402499 0 408.24132544 0 8452.56468628 0 1073.04600756 0 4121.64312548 0 9204
0.09350000 0.09350330 21056.09935580 0 401.70825924 0 8696.17206892 0 1476.81917434 0 4860.77211430 0 9349
0.09450000 0.09448040 20537.23091806 0 484.04265365 0 8868.92963001 0 588.77404464 0 4351.28961992 0 9564
0.09550000 0.09549270 19771.51779026 0 634.19301798 0 9059.86332332 0 -344.15949969 0 5074.60301316 0 10155
0.09650000 0.09649430 19561.43002810 0 489.83046471 0 9023.00522958 0 -1267.74307074 0 4315.97149532 0 9913
0.09750000 0.09749140 19160.70082954 0 243.27578345 0 9314.98113231 0 -581.95434184 0 4397.32008466 0 10476
0.09850000 0.09850240 19091.57082754 0 67.79506231 0 8118.11036443 0 -340.92781261 0 1801.38172355 0 10575
0.09950000 0.09950330 19020.30510191 0 107.91058424 0 8553.20223227 0 511.88911770 0 1595.13826393 0 10882
0.10050000 0.10051200 18456.47406124 0 263.85179461 0 6684.10682872 0 684.10263129 0 -545.76956307 0 10875
0.10150000 0.10150300 18271.22813720 0 620.51314604 0 6917.62010701 0 894.78502388 0 -1015.50399240 0 11118
0.10250000 0.10250800 17429.19099094 0 652.09263021 0 5547.67703982 0 661.04243632 0 -949.85184774 0 11575
0.10350000 0.10349800 17118.04977870 0 468.58788296 0 5429.39167218 0 991.57152293 0 -1045.16469749 0 11364
0.10450000 0.10450100 16656.50865969 0 219.31858454 0 4548.41691179 0 1084.81384481 0 -4.79166459 0 12093
0.10550000 0.10551000 16455.75063763 0 107.12778532 0 4260.27407095 0 991.99754360 0 -140.71721024 0 12067
0.10650000 0.10649700 16473.73567880 0 -1.45214595 0 4187.13115664 0 797.90747555 0 361.65782068 0 12054
0.10750000 0.10749900 16504.53506181 0 119.26442832 0 4128.87086390 0 191.97008131 0 502.27498913 0 12807
0.10850000 0.10850100 16317.94025967 0 206.12655684 0 4122.75594991 0 84.96021042 0 940.08259819 0 12736
0.10950000 0.10950300 16046.92817055 0 320.23152648 0 4012.54136949 0 -556.51450111 0 1006.73628483 0 12933
0.11050000 0.11050200 15991.39935594 0 289.95258561 0 4058.53811228 0 -298.76750391 0 479.23502733 0 13428
0.11150000 0.11150900 15633.38463016 0 330.69994451 0 4689.91422319 0 -386.89645377 0 1398.37067289 0 13453
0.11250000 0.11250000 15621.91916641 0 322.13232052 0 5090.44109004 0 -256.55548822 0 788.46195674 0 13668
0.11350000 0.11349100 15415.09119296 0 93.18387049 0 5223.36178493 0 68.44353546 0 1886.05754550 0 13791
0.11450000 0.11448600 15473.87979628 0 115.18294804 0 5754.05538724 0 72.20342072 0 1255.72681511 0 14205
0.11550000 0.11549300 15668.34305393 0 56.61556072 0 6106.55095352 0 -76.67349029 0 1955.07514099 0 14776
0.11650000 0.11649800 15359.00034581 0 264.75329480 0 6450.04275855 0 172.37875115 0 1592.17073214 0 14553
0.11750000 0.11747300 15351.91873585 0 143.46217715 0 6082.82193982 0 -109.61916315 0 1636.42517407 0 14568
0.11850000 0.11849100 15224.56216307 0 107.50097492 0 6204.95161001 0 422.06507771 0 1678.56637366 0 16015
0.11950000 0.11950300 15178.81271459 0 -4.73284227 0 5292.36813977 0 653.25716162 0 683.43156444 0 15270
0.12050000 0.12050700 15106.42292389 0 -79.80378671 0 5017.24197248 0 727.63317531 0 820.53490548 0 15999
0.12150000 0.12150000 15182.85934886 0 71.90340775 0 4082.07603491 0 760.41316098 0 -661.01096250 0 15670
0.12250000 0.12250700 14752.67964538 0 321.14089512 0 3979.66246610 0 69.70574813 0 -24.34207878 0 16887
0.12350000 0.12352200 14393.09122850 0 453.78507001 0 3521.45982035 0 -176.74799209 0 -803.17709262 0 16407
0.12450000 0.12449800 14047.77843804 0 464.72671943 0 4087.98861720 0 -337.19928876 0 -729.82510221 0 16306
0.12550000 0.12549900 13837.24104985 0 98.69156454 0 3668.49877257 0 -17.52743428 0 -1335.13077187 0 17523
0.12650000 0.12650100 13725.62138809 0 197.67583563 0 4423.78057648 0 -262.30058481 0 -841.88876967 0 17154
0.12750000 0.12750600 13795.42582913 0 17.19257529 0 3915.82681060 0 313.96486370 0 -1177.06474130 0 18007
0.12850000 0.12850300 13594.89262009 0 126.12347340 0 4407.58279878 0 389.76281971 0 -271.98890167 0 17496
0.12950000 0.12949900 13630.97510894 0 234.62048238 0 4016.75661351 0 406.54398718 0 -96.66408837 0 18405
0.13050000 0.13049000 13452.81079485 0 166.18964886 0 4123.20557594 0 229.89828501 0 92.05508435 0 18100
0.13150000 0.13148800 13192.14010440 0 351.59856234 0 4334.38368122 0 210.94205162 0 677.71456948 0 19059
0.13250000 0.13249300 12860.20368831 0 314.36278273 0 3809.28792297 0 121.97117702 0 253.23499999 0 18957
0.13350000 0.13349100 12719.69555417 0 256.57684546 0 4549.33864515 0 19.55592211 0 1061.89753017 0 19468
0.13450000 0.13450700 12432.94655403 0 107.20118677 0 3815.57144673 0 155.75607685 0 326.95680781 0 19953
0.13550000 0.13551000 12414.96151286 0 91.88962197 0 4025.33323002 0 256.42734480 0 405.13103739 0 19956
0.13650000 0.13649900 12328.07128271 0 13.21597028 0 3617.19644263 0 313.87943475 0 181.73546882 0 19723
0.13750000 0.13749600 12258.60406119 0 76.09223625 0 3486.34402747 0 284.83808952 0 -5.86235906 0 20946
0.13850000 0.13851100 12267.82139479 0 99.05980826 0 3419.00128894 0 360.41010845 0 295.26042088 0 20955
0.13950000 0.13949800 12106.06843077 0 153.92834705 0 3364.45041094 0 218.82174778 0 419.34484024 0 20506
0.14050000 0.14048300 12140.91444804 0 131.27955989 0 3151.12534137 0 218.97686876 0 607.80109413 0 21447
0.14150000 0.14148400 12027.72109518 0 108.12943971 0 3571.94158279 0 30.85873364 0 489.71131381 0 21771
0.14250000 0.14249400 11951.17226370 0 138.85238628 0 3235.17168689 0 -124.62509465 0 202.09116323 0 22470
0.14350000 0.14350900 11798.29941376 0 208.52643578 0 3799.87949831 0 -222.57500106 0 343.49517723 0 22519
0.14450000 0.14449900 11746.25520087 0 200.57367538 0 3724.01634653 0 -184.80304241 0 276.64140701 0 22218
0.14550000 0.14550500 11564.94350458 0 99.09780166 0 3738.16832580 0 135.67240619 0 512.42080048 0 23559
0.14650000 0.14650700 11462.09155039 0 125.23995825 0 3573.58271779 0 400.66400279 0 315.37668943 0 23044
0.14750000 0.14750500 11356.20462051 0 114.51750152 0 3823.32749573 0 520.29600039 0 1206.13306409 0 23649
0.14850000 0.14849900 11222.57576462 0 155.43909050 0 3298.18677488 0 283.23517273 0 530.45979678 0 23640
0.14950000 0.14949500 11113.77750619 0 256.53413098 0 3538.86034769 0 296.11358627 0 1512.59816562 0 24457
0.15050000 0.15050000 10914.62689719 0 152.54687107 0 3275.98648969 0 93.91968349 0 1354.02630575 0 24591
0.15150000 0.15149900 10747.30981106 0 215.63052704 0 3116.74019078 0 228.57975668 0 1599.10621364 0 25020
0.15250000 0.15250500 10588.42321298 0 188.81932691 0 2877.73023429 0 -4.53517543 0 1122.23959142 0 25297
0.15350000 0.15350100 10318.97357430 0 225.07829398 0 2853.56283522 0 -98.05568093 0 731.56403087 0 25452
0.15450000 0.15450400 10111.93202849 0 303.47508844 0 2958.10088702 0 -275.06434371 0 232.92314412 0 26061
0.15550000 0.15549900 9907.01496566 0 198.61442996 0 2763.09807814 0 -273.29956155 0 30.45957813 0 26128
0.15650000 0.15649500 9603.31506421 0 156.37656077 0 2928.95387967 0 -87.37211685 0 -379.19885615 0 26331
0.15750000 0.15749700 9630.23642271 0 123.07725705 0 2487.65717262 0 -31.47415927 0 -716.61171727 0 27345
0.15850000 0.15849900 9544.81871781 0 56.62758822 0 2647.63411383 0 117.73120356 0 -779.15244981 0 26980
0.15950000 0.15949700 9510.61341764 0 77.06410291 0 2219.12926731 0 387.99691348 0 -931.99045373 0 27777
0.16050000 0.16050000 9361.71975805 0 185.00874632 0 2412.23240622 0 180.38546667 0 -500.20108907 0 28224
0.16150000 0.16150500 9302.62765716 0 167.18557052 0 2142.20949436 0 321.68381855 0 -608.84984684 0 28075
0.16250000 0.16249700 9080.69224913 0 306.98554366 0 2851.28098312 0 -93.72465820 0 16.51926031 0 28590
0.16350000 0.16349900 8892.61368110 0 282.28533774 0 2643.69988607 0 64.15365351 0 634.78202808 0 29163
0.16450000 0.16449100 8689.50636304 0 209.85508069 0 3121.64111450 0 50.94364077 0 826.96118550 0 28996
0.16550000 0.16550500 8654.97508399 0 70.44122390 0 2992.78953517 0 172.50801864 0 1390.38981087 0 30777
0.16650000 0.16650700 8566.45495949 0 -5.54452966 0 2913.77900119 0 411.96872523 0 917.48326990 0 29211
0.16750000 0.16749900 8601.99789710 0 -25.05484845 0 2662.14579392 0 306.02221989 0 1196.39866055 0 30922
0.16850000 0.16850800 8537.61144971 0 4.03924916 0 2433.22994179 0 54.15082324 0 666.13894736 0 30867
0.16950000 0.16949900 8601.44710521 0 0.22130593 0 2100.68653056 0 10.60050691 0 579.62865120 0 30852
0.17050000 0.17049200 8524.20135339 0 112.17843451 0 2258.94365220 0 -406.54511125 0 260.49084004 0 31257
0.17150000 0.17149500 8508.66677408 0 153.01785434 0 2232.29206932 0 -319.73693785 0 15.94857248 0 32608
0.17250000 0.17250900 8418.97762189 0 179.09728810 0 2616.08160723 0 -299.22499839 0 526.30188007 0 32361
0.17350000 0.17350400 8389.78565195 0 152.27147513 0 2681.20993756 0 45.84499401 0 268.57399198 0 32508
0.17450000 0.17449800 8344.23853518 0 -8.58170852 0 2799.60771171 0 371.66649609 0 676.95020523 0 32791
0.17550000 0.17549800 8346.25061167 0 -5.01834356 0 2704.90522930 0 644.74911308 0 520.51406901 0 33633
0.17650000 0.17650100 8399.48633353 0 2.30526637 0 2225.03060895 0 530.65088784 0 623.38288417 0 33984
0.17750000 0.17750300 8226.31286837 0 95.62297930 0 2181.12462719 0 225.80106782 0 567.22684125 0 34069
0.17850000 0.17849800 8254.32456999 0 178.45319881 0 2079.90256736 0 25.16163463 0 609.22753271 0 34536
