### header ###
fiducial parameters:
Omega_m = 0.31
Omega_nu = 0
Omega_de = 0.69
Omega_k = 0
H_0 = 100
w_de = -1
zeff = 0
beta = 0
fgrowth = 0
b_1 = 2
gamma = 0.55
Lx = 3500 Ly = 3500 Lz = 3500
nx = 700 ny = 700 nz = 700
xoffset = 857.220397 yoffset = 15.9954215 zoffset = 262.898189
bins = 400 dk = 0.001
kx_ny = 0.628318531 ky_ny = 0.628318531 kz_ny = 0.628318531
############################
A(data) = 3.07698964 (not used)
A(ran) = 3.07716166 (used)
Ngal = 188037
weighted Ngal = 0
Nran = 9360983
weighted Nran = 0
SN(data) = 3441.81574
SN(ran) = 69.1014863
SN(data+ran) = 3510.91722
############################
13 columns: k_central k_mean P_0(k) sigma^{lin}_{P_0(k)} P^img_1(k) sigma^{lin}_{P_1(k)} P_2(k) sigma^{lin}_{P_2(k)} P^img_3(k) sigma^{lin}_{P_3(k)} P_4(k) sigma^{lin}_{P_4(k)} N_modes
### header ###
0.00050000 0 0 0 0 0 0 0 0 0 0 0 0
0.00150000 0.00179520 4987.08330657 0 -14115.33474893 0 -14836.64730634 0 20402.90514182 0 21543.83119102 0 3
0.00250000 0.00253879 12082.57547074 0 -15031.44778351 0 3583.80046931 0 -33328.97904342 0 -18721.30379247 0 6
0.00350000 0.00331552 23066.26492602 0 -17033.29527219 0 -16789.59796434 0 12227.35505216 0 4056.40238864 0 7
0.00450000 0.00420575 35409.06146119 0 -17398.95364047 0 -4394.20642441 0 -20814.98739762 0 2021.05776078 0 24
0.00550000 0.00557378 47314.59668292 0 -6447.51361214 0 -5953.16103364 0 -26667.76942023 0 2602.33429138 0 45
0.00650000 0.00659388 59334.33691607 0 -5833.95393264 0 2728.62300235 0 -13221.59060931 0 -1491.97157152 0 40
0.00750000 0.00754703 50375.20106395 0 2793.32418795 0 -6337.43391953 0 -21323.85165621 0 -14470.65171854 0 57
0.00850000 0.00846663 57430.73271478 0 925.06508882 0 -9818.12389968 0 -11374.63928770 0 -7926.90689549 0 75
0.00950000 0.00948925 51168.79100556 0 -637.70909353 0 -7073.47172940 0 -13110.08335406 0 -11112.57475656 0 112
0.01050000 0.01054430 57397.46038862 0 1167.36405971 0 697.99719966 0 -18272.91423481 0 -29643.05726222 0 105
0.01150000 0.01145670 55213.85157761 0 2545.25426697 0 4162.09822747 0 -14705.46891231 0 -17667.38037993 0 144
0.01250000 0.01249090 56209.32360635 0 534.34906193 0 19534.90209237 0 -13084.22985738 0 -19659.78572200 0 169
0.01350000 0.01339930 53531.80060223 0 554.00783599 0 22170.83468879 0 -8149.64038973 0 -22192.52914470 0 180
0.01450000 0.01448870 59626.03180254 0 -4770.06006290 0 23490.48708461 0 3991.53259327 0 -13137.84776137 0 267
0.01550000 0.01550050 63791.14252440 0 -3091.94331527 0 33360.00323944 0 10931.17313507 0 -42408.27745185 0 238
0.01650000 0.01653350 73299.15935172 0 -9289.45361450 0 8816.63812281 0 16395.27593670 0 -15835.49153030 0 315
0.01750000 0.01747870 71886.09714833 0 -9445.67617836 0 9569.80668438 0 15452.74737291 0 -28030.13628883 0 297
0.01850000 0.01844180 84592.86595416 0 -461.03416567 0 -7354.25194400 0 -2039.21141171 0 -10411.23683550 0 388
0.01950000 0.01947590 76038.39352836 0 801.29428362 0 -2307.97537069 0 8458.46602791 0 -10563.49144965 0 399
0.02050000 0.02045430 81492.80688906 0 2113.08496832 0 -6096.80530933 0 1445.91862548 0 11174.58942665 0 462
0.02150000 0.02154770 79691.04298339 0 1016.49316967 0 5991.19939571 0 -3463.25573087 0 14184.57715744 0 571
0.02250000 0.02255340 79187.46183064 0 2075.04660624 0 19679.90648680 0 -721.09561285 0 26595.94166206 0 510
0.02350000 0.02348930 77776.76016390 0 6123.78287109 0 26453.63502381 0 -3694.57708226 0 30953.15510492 0 555
0.02450000 0.02439640 76807.36644486 0 6355.29531354 0 26965.98388413 0 -8985.03431141 0 19898.19992400 0 592
0.02550000 0.02547300 74034.07309651 0 5985.37673864 0 46870.25375952 0 -2125.59581258 0 35364.66089080 0 837
0.02650000 0.02652900 67852.61444653 0 3785.69379709 0 39967.37014562 0 1767.14270142 0 15507.15212245 0 723
0.02750000 0.02749970 64489.18693480 0 2952.57048686 0 43999.50396933 0 12103.03345507 0 25554.04574581 0 826
0.02850000 0.02848090 60055.87428650 0 2232.22462541 0 32731.42605056 0 9099.12691633 0 4218.72862585 0 831
0.02950000 0.02946900 57943.08157510 0 2095.05496454 0 27407.85386436 0 15246.03180597 0 3526.78788880 0 996
0.03050000 0.03053250 56026.21340594 0 24.34702467 0 16656.17144017 0 8986.15837648 0 1299.47542776 0 1041
0.03150000 0.03150510 53360.38067858 0 655.70649942 0 10234.89350684 0 5500.43258480 0 -5739.79100146 0 1036
0.03250000 0.03246190 52932.56151176 0 1230.62644203 0 5269.29108382 0 -847.79573163 0 -732.58468196 0 1059
0.03350000 0.03345080 51359.76966148 0 462.38304375 0 8154.24905653 0 -740.40480267 0 -1652.39813876 0 1302
0.03450000 0.03451200 52075.68670654 0 -999.97615748 0 5436.06861871 0 12.05863288 0 -1436.01561219 0 1339
0.03550000 0.03553350 52998.99375758 0 -1484.20428187 0 9196.77444923 0 -1228.24342407 0 -6655.15091244 0 1365
0.03650000 0.03647120 53678.82831379 0 1634.07587807 0 12928.54684476 0 -5415.44202462 0 -936.64295907 0 1308
0.03750000 0.03744890 52970.44250472 0 2115.68155863 0 14909.26191006 0 -4579.98065904 0 -3317.13851202 0 1579
0.03850000 0.03847530 52224.85014174 0 3289.10432909 0 20840.16645526 0 -695.40173341 0 804.59791087 0 1662
0.03950000 0.03950240 48898.06715139 0 1392.27824019 0 20713.93394755 0 -516.15382059 0 1118.81568921 0 1683
0.04050000 0.04050350 49975.59593046 0 418.28259874 0 22780.86480396 0 4355.76339891 0 1975.82538224 0 1822
0.04150000 0.04152450 49434.92063030 0 702.44624922 0 19915.17330660 0 4572.88780843 0 4933.42043998 0 1887
0.04250000 0.04250150 47887.08302465 0 1774.20183008 0 15802.10679763 0 4534.05136015 0 5679.92329567 0 1920
0.04350000 0.04349210 45262.05385944 0 1429.29370305 0 12588.17994062 0 5915.36996588 0 5127.52399680 0 2005
0.04450000 0.04448520 43283.47451777 0 922.18073784 0 9705.41389480 0 3985.59752969 0 2970.53304673 0 2151
0.04550000 0.04548030 42969.41073635 0 331.71834746 0 6855.17829220 0 2648.37599678 0 4898.78799507 0 2274
0.04650000 0.04648670 41026.91388352 0 75.65160274 0 7200.54728591 0 -1251.80382801 0 1578.70443256 0 2311
0.04750000 0.04749250 42006.31178171 0 -70.34174414 0 7178.30203811 0 -1644.85566212 0 1105.88669274 0 2568
0.04850000 0.04851840 41830.17078476 0 1083.13673972 0 11197.56531674 0 -7490.66848128 0 848.92766516 0 2493
0.04950000 0.04949480 42246.86170736 0 1609.91971964 0 12018.27894856 0 -2992.93566363 0 2579.03242242 0 2644
0.05050000 0.05050630 42793.38214590 0 212.92265428 0 18726.92411783 0 -2198.22165695 0 3110.91753371 0 2829
0.05150000 0.05149060 42861.50048933 0 689.81850219 0 18687.01980774 0 -3183.18367726 0 1557.95419132 0 2784
0.05250000 0.05249300 42936.13841018 0 951.14002632 0 22204.33182797 0 1108.20901118 0 3911.09449664 0 3055
0.05350000 0.05348950 41688.76339856 0 956.11289020 0 22760.63163265 0 22.46342883 0 85.80842992 0 3009
0.05450000 0.05448610 41313.21325764 0 1280.04034264 0 20772.38533135 0 2949.14208839 0 2377.89221824 0 3336
0.05550000 0.05550870 40307.39983023 0 1708.97233389 0 20110.31100329 0 3994.30903400 0 -952.58220181 0 3349
0.05650000 0.05647670 38391.88053916 0 1514.96994292 0 16411.91209978 0 3330.18890752 0 -2209.23749467 0 3324
0.05750000 0.05747970 35490.66858549 0 1757.75675806 0 15121.26058285 0 4494.81024845 0 1026.38494231 0 3639
0.05850000 0.05849280 34228.56832142 0 1414.60217254 0 11920.37288069 0 4305.21419257 0 180.13817235 0 3846
0.05950000 0.05951020 32964.33233370 0 13.95436863 0 11360.81328731 0 3521.01019432 0 3793.76458431 0 3787
0.06050000 0.06049470 33144.29515191 0 -232.61739842 0 9619.74889558 0 2960.73119929 0 3665.37387166 0 3930
0.06150000 0.06148310 33215.44847103 0 -262.50291652 0 10345.58019458 0 -25.02416147 0 2703.35401950 0 4083
0.06250000 0.06249100 33456.56042921 0 278.09819535 0 9474.01385885 0 -1446.54810192 0 4946.76309239 0 4303
0.06350000 0.06350600 32862.71685110 0 857.14008458 0 12606.61460782 0 -2791.35707407 0 7851.47088844 0 4470
0.06450000 0.06451750 32527.85786582 0 1017.55316303 0 12677.99273996 0 -1370.44889647 0 6528.63738846 0 4479
0.06550000 0.06550280 32282.58686687 0 593.80423584 0 12784.32929588 0 3014.59639759 0 8354.89467208 0 4636
0.06650000 0.06648880 30486.66809958 0 941.27523124 0 14006.63765637 0 314.34030143 0 5016.15162936 0 4653
0.06750000 0.06749660 31484.05103894 0 355.12700261 0 11646.66303539 0 2414.37937051 0 4751.71532091 0 5220
0.06850000 0.06852730 30410.11926810 0 512.96934424 0 13400.09214292 0 637.96200817 0 5167.05736542 0 5029
0.06950000 0.06949320 30287.82098815 0 781.77714175 0 11854.83988693 0 -355.17084115 0 2103.84515342 0 5040
0.07050000 0.07048030 29526.60412065 0 668.61526272 0 12954.06312192 0 -359.42430338 0 3957.12496139 0 5475
0.07150000 0.07148790 27896.59735814 0 874.74069550 0 12389.67004871 0 673.96131620 0 3173.43803307 0 5509
0.07250000 0.07249820 28573.73415818 0 680.67198469 0 12625.94852708 0 2103.78895016 0 5065.37443891 0 5916
0.07350000 0.07351270 27655.48539996 0 88.63017048 0 12023.78686742 0 3292.45404301 0 4287.40900181 0 5721
0.07450000 0.07449140 28023.27949188 0 93.72769318 0 11704.77719967 0 2033.11897902 0 5497.47629366 0 6028
0.07550000 0.07549160 27444.27357273 0 410.60860649 0 10623.62893107 0 282.55848556 0 6539.43965382 0 6183
0.07650000 0.07648840 27663.69107500 0 516.18417035 0 12014.45712731 0 -1127.44850897 0 7060.67986886 0 6330
0.07750000 0.07749960 26822.44077429 0 1002.32882568 0 12011.30974511 0 -842.25071862 0 7208.83164550 0 6583
0.07850000 0.07848650 26592.79427986 0 833.06261071 0 12924.61261700 0 -514.42276038 0 5457.40337380 0 6549
0.07950000 0.07947320 25874.17947862 0 279.20989570 0 12367.63837328 0 313.76140792 0 5031.42767370 0 6828
0.08050000 0.08048110 25376.66827727 0 51.44564823 0 11766.37596568 0 1740.00777055 0 1014.74412441 0 7147
0.08150000 0.08149960 25540.21974541 0 78.73457601 0 11046.25491725 0 23.64886785 0 1040.22218336 0 7386
0.08250000 0.08250610 25056.08491842 0 514.66780656 0 9542.45818116 0 894.22299134 0 -1730.10475726 0 7227
0.08350000 0.08350160 24420.08890006 0 724.37563473 0 10255.66622939 0 -614.92092230 0 -1816.55660203 0 7798
0.08450000 0.08449610 23710.57902592 0 528.49830322 0 8910.38514990 0 170.73087176 0 -1110.12441806 0 7371
0.08550000 0.08548940 23253.08454117 0 473.83501872 0 8790.27879684 0 960.30115666 0 -2772.43905889 0 8256
0.08650000 0.08650700 22550.20665096 0 305.99524233 0 7981.09807267 0 1576.65863413 0 -959.26476867 0 8037
0.08750000 0.08749060 22389.01571948 0 362.82235210 0 7571.74729500 0 2042.45995977 0 -1529.56030757 0 8155
0.08850000 0.08849210 22127.55818348 0 600.34741863 0 7926.01888409 0 1077.56924542 0 868.44031076 0 8718
0.08950000 0.08949900 21415.68777268 0 574.55349740 0 7887.55337729 0 578.97894159 0 838.56153705 0 8571
0.09050000 0.09049190 21337.22803058 0 412.90169924 0 8723.29575913 0 -132.67340058 0 3319.58897388 0 8932
0.09150000 0.09150830 21119.27181291 0 243.00488376 0 9382.73977492 0 -515.81098074 0 2825.34880189 0 9285
0.09250000 0.09250820 21454.35561120 0 167.63294842 0 10914.49200938 0 -825.47067521 0 3489.30031861 0 9204
0.09350000 0.09350330 21381.85341398 0 163.53123496 0 9917.04162612 0 -1079.35313669 0 2666.86686723 0 9349
0.09450000 0.09448040 21364.31799884 0 386.87846873 0 11531.44636540 0 -634.33352612 0 2727.71250964 0 9564
0.09550000 0.09549270 21011.81119192 0 129.17531007 0 10030.92065867 0 648.67434832 0 1926.70373855 0 10155
0.09650000 0.09649430 20701.34441873 0 462.70677450 0 10105.44617302 0 655.33106168 0 1368.49302324 0 9913
0.09750000 0.09749140 20087.04285628 0 616.20235649 0 8821.69641563 0 1084.99481929 0 -168.05559688 0 10476
0.09850000 0.09850240 19665.29364085 0 513.25036051 0 9195.88643782 0 1369.62832897 0 786.54879799 0 10575
0.09950000 0.09950330 18583.83063403 0 626.48642784 0 7404.47517147 0 1007.57258925 0 -526.23780836 0 10882
0.10050000 0.10051200 18525.60406324 0 79.14980565 0 6957.68178622 0 1425.42691920 0 349.24139789 0 10875
0.10150000 0.10150300 18137.46439350 0 -70.91872675 0 6457.77632626 0 477.30163540 0 -559.83386527 0 11118
0.10250000 0.10250800 18594.95887825 0 72.81176474 0 6590.95555612 0 477.39156061 0 291.98826745 0 11575
0.10350000 0.10349800 18105.99057145 0 247.42695576 0 5888.03270330 0 391.99071668 0 -754.33309300 0 11364
0.10450000 0.10450100 17780.79854580 0 371.11570421 0 5832.88607082 0 -161.33368775 0 -338.48634327 0 12093
0.10550000 0.10551000 17589.70748338 0 410.03758143 0 5225.20525165 0 -36.74816018 0 -800.06568049 0 12067
0.10650000 0.10649700 17304.19495481 0 335.66493993 0 5306.28406537 0 361.41614669 0 -233.85724220 0 12054
0.10750000 0.10749900 16808.03263154 0 249.97071502 0 4987.37556348 0 334.13733550 0 -1211.66346425 0 12807
0.10850000 0.10850100 16770.71367112 0 245.17432935 0 5035.28321690 0 525.69038867 0 -433.40464617 0 12736
0.10950000 0.10950300 16468.67738598 0 306.89337032 0 4629.09106208 0 185.91249464 0 -420.39921327 0 12933
0.11050000 0.11050200 16243.75196485 0 481.19314869 0 4244.77321359 0 437.82671817 0 -836.00204088 0 13428
0.11150000 0.11150900 16099.87163549 0 264.92527675 0 4858.63639066 0 207.64629282 0 132.45758008 0 13453
0.11250000 0.11250000 15591.00737690 0 380.84336335 0 4497.05837860 0 -225.80106782 0 -720.63924243 0 13668
0.11350000 0.11349100 15659.12572033 0 158.38526506 0 5291.61501617 0 8.67774864 0 188.56866040 0 13791
0.11450000 0.11448600 15258.50892828 0 201.05589930 0 5288.22033965 0 -127.79383410 0 -1090.71406238 0 14205
0.11550000 0.11549300 15412.95546932 0 181.96815029 0 5999.30390489 0 -294.12511516 0 376.98219983 0 14776
0.11650000 0.11649800 15274.24583930 0 149.65465164 0 6148.64719050 0 -50.33934339 0 333.06497742 0 14553
0.11750000 0.11747300 15152.50959188 0 283.31048509 0 6221.89127067 0 115.59210773 0 778.64886866 0 14568
0.11850000 0.11849100 15251.65213133 0 244.30879925 0 7352.97050982 0 354.79652748 0 2359.87345512 0 16015
0.11950000 0.11950300 14832.26345256 0 194.55992724 0 6295.82103052 0 855.70577755 0 1826.57202183 0 15270
0.12050000 0.12050700 14844.62816836 0 104.60729421 0 6776.25768342 0 1043.01436100 0 3260.57555754 0 15999
0.12150000 0.12150000 14441.76324616 0 73.88816945 0 5725.27932137 0 382.36309933 0 1859.59705368 0 15670
0.12250000 0.12250700 14687.93349717 0 68.00762302 0 6546.91468655 0 387.38767021 0 2548.27800202 0 16887
0.12350000 0.12352200 14459.41106781 0 255.92713584 0 5382.84413750 0 -594.44607700 0 1793.32217697 0 16407
0.12450000 0.12449800 14015.06814441 0 322.60892411 0 5586.43480354 0 -115.19756089 0 1918.95893019 0 16306
0.12550000 0.12549900 13930.53845092 0 402.74015098 0 5695.12065546 0 -582.37474218 0 978.98986257 0 17523
0.12650000 0.12650100 13733.04021757 0 227.86035503 0 5635.51148463 0 257.90886257 0 1230.70512658 0 17154
0.12750000 0.12750600 13521.82839034 0 42.20291076 0 5449.19769877 0 558.58053271 0 368.46740690 0 18007
0.12850000 0.12850300 13554.87590349 0 34.71697460 0 4777.63626149 0 650.51444284 0 362.45141063 0 17496
0.12950000 0.12949900 13526.43705714 0 -54.21534457 0 4192.31309663 0 546.41028016 0 78.63644513 0 18405
0.13050000 0.13049000 13451.91154279 0 164.50804751 0 4109.07607797 0 555.02848708 0 123.27284437 0 18100
0.13150000 0.13148800 13204.16760068 0 313.54895962 0 3627.47039740 0 400.87420295 0 -60.02844710 0 19059
0.13250000 0.13249300 12840.75736255 0 387.57876127 0 3334.69640846 0 156.00224710 0 -566.38716464 0 18957
0.13350000 0.13349100 12357.40938112 0 377.93877920 0 3348.19642999 0 72.04515236 0 -594.72934140 0 19468
0.13450000 0.13450700 12138.44150488 0 173.94232567 0 3176.52921202 0 247.00093510 0 -793.96762747 0 19953
0.13550000 0.13551000 11921.72175878 0 94.89480994 0 3153.68820974 0 439.94782896 0 -534.01971086 0 19956
0.13650000 0.13649900 11941.16808455 0 -67.09240924 0 2776.31708340 0 612.05455637 0 -708.05083768 0 19723
0.13750000 0.13749600 11934.19888109 0 -177.57530399 0 2391.09998285 0 805.94229270 0 -366.19454732 0 20946
0.13850000 0.13851100 12099.21163382 0 -115.78319879 0 1989.94363956 0 556.65500924 0 -343.54126390 0 20955
0.13950000 0.13949800 12077.62958442 0 -15.51524539 0 1708.55642981 0 453.65243033 0 -493.22064497 0 20506
0.14050000 0.14048300 12145.63552134 0 108.56939878 0 1477.23507842 0 159.04846345 0 642.32900098 0 21447
0.14150000 0.14148400 11878.67006648 0 243.06445921 0 1498.97449693 0 -353.79948176 0 307.51722644 0 21771
0.14250000 0.14249400 11790.31855174 0 366.87348262 0 1944.68877972 0 -52.95684132 0 1077.40400785 0 22470
0.14350000 0.14350900 11546.73365040 0 507.34677074 0 2355.77061760 0 -612.46371605 0 1333.01752954 0 22519
0.14450000 0.14449900 11129.71674893 0 580.76395693 0 3250.62758164 0 -774.78995326 0 1507.70848255 0 22218
0.14550000 0.14550500 10847.64385948 0 437.22534335 0 3732.24450286 0 -424.33119290 0 2041.12232234 0 23559
0.14650000 0.14650700 10575.69879635 0 226.59915402 0 4291.17461981 0 -321.04759772 0 1908.34775590 0 23044
0.14750000 0.14750500 10467.74358673 0 -21.32059187 0 4270.17708424 0 271.71350573 0 2120.85225797 0 23649
0.14850000 0.14849900 10630.68805972 0 32.21424371 0 4247.22367545 0 585.62104211 0 1423.83074679 0 23640
0.14950000 0.14949500 10444.23938605 0 15.20432899 0 3489.04178365 0 604.58177176 0 1463.79126014 0 24457
0.15050000 0.15050000 10246.63998685 0 144.25351896 0 3105.47705875 0 526.58626853 0 1233.91995269 0 24591
0.15150000 0.15149900 10127.96119643 0 180.09770601 0 2576.68312641 0 570.27305760 0 1430.54141528 0 25020
0.15250000 0.15250500 9939.70277799 0 125.09720199 0 2357.81641603 0 592.77009597 0 975.79414557 0 25297
0.15350000 0.15350100 9845.04525818 0 189.18464806 0 2374.52002302 0 174.67634016 0 1518.26345358 0 25452
0.15450000 0.15450400 9687.78855446 0 182.27614412 0 2445.42604783 0 -48.85568990 0 1202.97444123 0 26061
0.15550000 0.15549900 9697.88265881 0 147.75160947 0 2870.08659179 0 -484.23486878 0 1625.47678026 0 26128
0.15650000 0.15649500 9547.05560730 0 153.28088556 0 3097.64232519 0 -407.94457226 0 1513.05903230 0 26331
0.15750000 0.15749700 9608.77802047 0 182.99442171 0 3584.34002054 0 -477.07682239 0 1632.20993004 0 27345
0.15850000 0.15849900 9505.62256871 0 90.60661410 0 3654.98751039 0 -206.58067913 0 1420.68336459 0 26980
0.15950000 0.15949700 9471.86689457 0 17.40277546 0 3689.61995529 0 -92.22740352 0 1441.82702861 0 27777
0.16050000 0.16050000 9514.03057546 0 -39.47649093 0 3556.60933519 0 107.36282733 0 997.84043385 0 28224
0.16150000 0.16150500 9589.71387683 0 -26.38394299 0 3538.71421923 0 242.07753008 0 742.28311541 0 28075
0.16250000 0.16249700 9546.12263329 0 82.17376551 0 3213.60087813 0 37.28658735 0 68.45713664 0 28590
0.16350000 0.16349900 9425.75774527 0 184.98514095 0 3340.68767530 0 65.92641654 0 652.33542826 0 29163
0.16450000 0.16449100 9073.66684242 0 228.06605894 0 3025.62347596 0 37.82973560 0 74.34779966 0 28996
0.16550000 0.16550500 8995.48811659 0 228.12338626 0 3049.43117421 0 168.63898666 0 482.14073554 0 30777
0.16650000 0.16650700 8830.40791995 0 175.33729043 0 2963.17042050 0 277.10339776 0 364.70516110 0 29211
0.16750000 0.16749900 8667.76694452 0 204.76531404 0 3076.93704655 0 186.49813254 0 897.19164720 0 30922
0.16850000 0.16850800 8552.37042412 0 62.70990433 0 2971.52222399 0 232.93326071 0 769.79910434 0 30867
0.16950000 0.16949900 8555.85502585 0 66.42381533 0 3003.51311597 0 21.18660331 0 1099.24122002 0 30852
0.17050000 0.17049200 8580.33716314 0 -71.99782922 0 2666.56336966 0 27.10222057 0 475.62115812 0 31257
0.17150000 0.17149500 8655.28982221 0 -96.92610794 0 2680.24324160 0 85.42815871 0 539.80077753 0 32608
0.17250000 0.17250900 8793.50486360 0 -63.46044258 0 2450.85528213 0 122.21285101 0 411.82034864 0 32361
0.17350000 0.17350400 8734.63757572 0 -28.40782215 0 2281.23386260 0 363.37426805 0 96.25796366 0 32508
0.17450000 0.17449800 8750.46441195 0 81.98143798 0 2187.22830054 0 260.84267241 0 232.51286037 0 32791
0.17550000 0.17549800 8612.41798032 0 125.14328865 0 2002.42076187 0 425.90938026 0 370.40641915 0 33633
0.17650000 0.17650100 8499.30331202 0 240.36333084 0 2099.37137442 0 338.94046556 0 1053.50188814 0 33984
0.17750000 0.17750300 8306.76220565 0 166.94164840 0 1935.11174529 0 415.84337753 0 1301.47626359 0 34069
0.17850000 0.17849800 8114.15365537 0 165.67482706 0 1953.41152468 0 242.84639059 0 1346.02296243 0 34536
