### header ###
fiducial parameters:
Omega_m = 0.31
Omega_nu = 0
Omega_de = 0.69
Omega_k = 0
H_0 = 100
w_de = -1
zeff = 0
beta = 0
fgrowth = 0
b_1 = 2
gamma = 0.55
Lx = 3500 Ly = 3500 Lz = 3500
nx = 700 ny = 700 nz = 700
xoffset = 857.220397 yoffset = 15.9954215 zoffset = 262.898189
bins = 400 dk = 0.001
kx_ny = 0.628318531 ky_ny = 0.628318531 kz_ny = 0.628318531
############################
A(data) = 3.0513682 (not used)
A(ran) = 3.05410218 (used)
Ngal = 186704
weighted Ngal = 0
Nran = 9360983
weighted Nran = 0
SN(data) = 3431.39312
SN(ran) = 68.583657
SN(data+ran) = 3499.97677
############################
13 columns: k_central k_mean P_0(k) sigma^{lin}_{P_0(k)} P^img_1(k) sigma^{lin}_{P_1(k)} P_2(k) sigma^{lin}_{P_2(k)} P^img_3(k) sigma^{lin}_{P_3(k)} P_4(k) sigma^{lin}_{P_4(k)} N_modes
### header ###
0.00050000 0 0 0 0 0 0 0 0 0 0 0 0
0.00150000 0.00179520 12070.32316145 0 -28884.65055740 0 -42425.70046049 0 58576.94186982 0 49607.35221252 0 3
0.00250000 0.00253879 20614.56659509 0 -28096.45612814 0 -14006.18803034 0 -39066.20717652 0 -48439.67341458 0 6
0.00350000 0.00331552 44240.61592751 0 -35034.29816582 0 -52230.35806059 0 17380.40656677 0 17065.66834630 0 7
0.00450000 0.00420575 64404.43242829 0 -35208.41584564 0 -46171.75972310 0 -19524.11106767 0 -536.79502753 0 24
0.00550000 0.00557378 86865.83793848 0 -7156.63006350 0 -50408.13617059 0 -51315.48149760 0 14124.10245650 0 45
0.00650000 0.00659388 96720.06680831 0 -1666.03304809 0 1464.07227641 0 -41451.13604211 0 10702.32472683 0 40
0.00750000 0.00754703 80945.94923100 0 15400.14112749 0 4851.91448153 0 -34865.91321787 0 27398.63653076 0 57
0.00850000 0.00846663 79033.91454166 0 15741.29487717 0 43961.62297637 0 -29617.54098506 0 28232.35559548 0 75
0.00950000 0.00948925 71678.25751631 0 6201.79298716 0 66440.33908868 0 -3850.22637293 0 26873.24851560 0 112
0.01050000 0.01054430 80247.45519457 0 8172.59379852 0 79864.26141116 0 33309.30790464 0 31357.59371822 0 105
0.01150000 0.01145670 77756.63939909 0 -978.26596466 0 75819.31324561 0 25575.29057569 0 14289.67724177 0 144
0.01250000 0.01249090 86713.63952758 0 -1157.38236187 0 77232.71266852 0 29073.60589619 0 17450.43582082 0 169
0.01350000 0.01339930 87119.08979944 0 1782.02532299 0 77343.88270425 0 21612.73638000 0 7381.12833990 0 180
0.01450000 0.01448870 91204.72912064 0 568.51277170 0 59534.64531210 0 12729.02529428 0 12032.89179451 0 267
0.01550000 0.01550050 84526.99574088 0 749.39282700 0 47196.68225675 0 6529.70525028 0 -27346.25509836 0 238
0.01650000 0.01653350 85865.86964945 0 -378.42325125 0 38265.42321844 0 18080.47429429 0 -1763.48948993 0 315
0.01750000 0.01747870 84267.44911550 0 -6167.77877805 0 29143.74755675 0 33960.36639498 0 -25796.84380160 0 297
0.01850000 0.01844180 85871.15275529 0 -4134.81716814 0 7554.21187986 0 20381.77271845 0 -13413.24370428 0 388
0.01950000 0.01947590 83140.12425369 0 2366.80893662 0 -2363.57162921 0 10590.82871223 0 -33962.72693163 0 399
0.02050000 0.02045430 80708.77150057 0 6319.02173363 0 -7081.45259141 0 -4533.91647235 0 -19170.48019568 0 462
0.02150000 0.02154770 69724.40760625 0 7503.73011743 0 -12183.96614034 0 -12928.20962523 0 -19858.85764644 0 571
0.02250000 0.02255340 67016.87206468 0 3269.08473014 0 -5061.18167618 0 -11697.47077670 0 -11276.05878079 0 510
0.02350000 0.02348930 64310.46058818 0 -1938.13548034 0 -6380.87903461 0 -10645.61564390 0 -21921.40464907 0 555
0.02450000 0.02439640 68050.44989939 0 -632.45970964 0 -6351.99056223 0 -10653.25928639 0 -28609.02980147 0 592
0.02550000 0.02547300 66787.78760278 0 289.11290900 0 -3412.62783998 0 -6857.88728903 0 -22072.70380791 0 837
0.02650000 0.02652900 65628.31447988 0 2435.08464916 0 -10009.75451334 0 -2521.10934920 0 -29629.56848134 0 723
0.02750000 0.02749970 61882.92965631 0 2408.89393295 0 -6765.27556765 0 -988.54441569 0 -20748.55515180 0 826
0.02850000 0.02848090 60909.37689650 0 1359.03963598 0 -11826.06382106 0 2491.33286541 0 -30334.58209519 0 831
0.02950000 0.02946900 57929.36798121 0 152.43783676 0 -10646.24512034 0 440.08833709 0 -26671.25402196 0 996
0.03050000 0.03053250 56184.81898776 0 2442.55968189 0 -10023.04096251 0 -6883.63961985 0 -19010.18851625 0 1041
0.03150000 0.03150510 54922.83113019 0 3122.18066574 0 -3190.14164006 0 -5785.21447107 0 -16615.92991055 0 1036
0.03250000 0.03246190 52268.12664705 0 2368.76480984 0 -1277.72476859 0 -3012.86533738 0 -6210.06610610 0 1059
0.03350000 0.03345080 53060.25530406 0 1109.82316862 0 3434.69323736 0 -2651.89432046 0 -9689.10371059 0 1302
0.03450000 0.03451200 52222.93923111 0 -110.83596359 0 6087.21703426 0 522.52502143 0 -4347.01817264 0 1339
0.03550000 0.03553350 52509.01379222 0 -1106.11937421 0 7479.56271835 0 4252.22576503 0 -7630.55837962 0 1365
0.03650000 0.03647120 52179.43791278 0 -780.52493326 0 4598.28043843 0 2605.29058252 0 -5.17105904 0 1308
0.03750000 0.03744890 53413.88617606 0 839.02015560 0 5312.94977126 0 590.92550519 0 1591.66490286 0 1579
0.03850000 0.03847530 51730.48632259 0 1820.91797452 0 2758.41072678 0 106.07004009 0 3171.38099399 0 1662
0.03950000 0.03950240 50509.86405971 0 3335.82047353 0 9230.59756728 0 149.77942286 0 10937.08571735 0 1683
0.04050000 0.04050350 48165.51394325 0 3953.60663771 0 7332.28771248 0 -3346.40916652 0 10709.41757744 0 1822
0.04150000 0.04152450 45207.87392291 0 3241.63506106 0 14173.78613274 0 2873.40258376 0 21127.14026842 0 1887
0.04250000 0.04250150 43555.04863943 0 1610.31314242 0 9520.39278377 0 2812.39957224 0 11149.25299990 0 1920
0.04350000 0.04349210 42491.79548679 0 1258.23348022 0 12032.66698150 0 3893.24434328 0 17611.06471977 0 2005
0.04450000 0.04448520 39915.43833924 0 752.48962628 0 7058.66779238 0 3096.16979995 0 5774.59205613 0 2151
0.04550000 0.04548030 38697.51383254 0 2506.49650325 0 7937.50682913 0 -1260.45912907 0 10472.04875596 0 2274
0.04650000 0.04648670 35712.22181140 0 3315.14891684 0 5858.43606993 0 -1991.25879569 0 5520.29481464 0 2311
0.04750000 0.04749250 33332.12642562 0 2827.51824748 0 8370.46297334 0 -3530.40737834 0 6183.34707931 0 2568
0.04850000 0.04851840 31281.60691928 0 1401.52929574 0 8192.33238121 0 -428.29577041 0 6064.48843848 0 2493
0.04950000 0.04949480 31048.25101010 0 63.03678245 0 11741.53412756 0 -157.96711285 0 4221.85352675 0 2644
0.05050000 0.05050630 32660.49754445 0 -727.20041026 0 10574.34991826 0 513.21663856 0 4359.23675999 0 2829
0.05150000 0.05149060 33787.37278023 0 -979.72837332 0 16294.44729964 0 12.09921163 0 3847.49489481 0 2784
0.05250000 0.05249300 33072.80461326 0 105.46315735 0 12347.51760847 0 -1316.06662824 0 1160.47354082 0 3055
0.05350000 0.05348950 34849.05224177 0 413.91560593 0 15073.71263026 0 219.95930163 0 2287.00031643 0 3009
0.05450000 0.05448610 33317.40117317 0 591.66289188 0 14841.14356663 0 -572.43351067 0 974.11366828 0 3336
0.05550000 0.05550870 33915.17897904 0 673.83317279 0 16023.99724306 0 1420.84073370 0 4550.68752324 0 3349
0.05650000 0.05647670 33034.58640077 0 472.67498356 0 15456.23197463 0 2327.90504444 0 604.47498558 0 3324
0.05750000 0.05747970 32232.22875160 0 704.91919238 0 15308.86704355 0 2028.30798050 0 2685.26781248 0 3639
0.05850000 0.05849280 33182.28855138 0 372.66916214 0 14153.44055491 0 2333.97499583 0 3106.82593684 0 3846
0.05950000 0.05951020 32430.85105001 0 -19.18441860 0 15046.84747501 0 88.18998659 0 7120.22159579 0 3787
0.06050000 0.06049470 33338.53359654 0 -241.11645444 0 13289.93376576 0 1930.86277932 0 4006.97724738 0 3930
0.06150000 0.06148310 32592.37920102 0 -47.85684567 0 13548.58113908 0 746.12516983 0 2562.42998129 0 4083
0.06250000 0.06249100 32411.62953726 0 494.49083850 0 10932.03866517 0 -705.95782851 0 -96.23390866 0 4303
0.06350000 0.06350600 32243.46940233 0 -160.64575992 0 11299.43933431 0 1494.15225777 0 -490.47680213 0 4470
0.06450000 0.06451750 31944.24327987 0 -521.08509407 0 8770.38284505 0 1486.93576000 0 -3893.34550914 0 4479
0.06550000 0.06550280 32207.83653951 0 -444.01582046 0 5967.54906658 0 1000.93723312 0 -3923.08827097 0 4636
0.06650000 0.06648880 32384.76438201 0 -248.51617482 0 5723.36841075 0 1385.85982862 0 -4379.91955733 0 4653
0.06750000 0.06749660 32153.65660299 0 555.95022044 0 5606.75790006 0 -339.00341320 0 -3609.75513185 0 5220
0.06850000 0.06852730 31552.16938237 0 1495.81587407 0 6378.22624103 0 -581.57215972 0 -2849.65108877 0 5029
0.06950000 0.06949320 30435.74795177 0 1569.66694938 0 6925.05017714 0 -2199.54805374 0 -1583.43674652 0 5040
0.07050000 0.07048030 28882.85205328 0 1127.50471222 0 8639.18196971 0 -263.67082013 0 -934.88604536 0 5475
0.07150000 0.07148790 29225.80430708 0 339.58118265 0 8703.08506912 0 -147.57850345 0 230.03879314 0 5509
0.07250000 0.07249820 27957.07205908 0 80.04017760 0 9629.97788775 0 978.89768923 0 -1363.44597107 0 5916
0.07350000 0.07351270 28561.25703587 0 164.22815531 0 9278.88740282 0 708.39480159 0 -350.41941808 0 5721
0.07450000 0.07449140 28072.17632256 0 249.97521128 0 8433.02843531 0 956.58949379 0 219.02295543 0 6028
0.07550000 0.07549160 28001.69744248 0 727.67701385 0 9856.75801625 0 390.61373697 0 917.72606796 0 6183
0.07650000 0.07648840 27712.81271869 0 234.00899098 0 8682.28986527 0 1485.42951280 0 1190.71089128 0 6330
0.07750000 0.07749960 27394.47748999 0 400.78090555 0 8386.97548926 0 2087.59117246 0 2247.43322585 0 6583
0.07850000 0.07848650 26679.45969699 0 592.72063711 0 7667.77617419 0 655.58959665 0 703.88280438 0 6549
0.07950000 0.07947320 26191.50304876 0 954.39869097 0 8325.27555740 0 670.02821251 0 2113.46715044 0 6828
0.08050000 0.08048110 25370.71073238 0 1379.95848699 0 8141.87310007 0 -150.82592744 0 1663.16668216 0 7147
0.08150000 0.08149960 23819.61333801 0 1010.87734056 0 6859.04507605 0 -91.25430039 0 1871.43345890 0 7386
0.08250000 0.08250610 23013.20905457 0 724.97925768 0 7420.17836054 0 215.00779499 0 655.67165340 0 7227
0.08350000 0.08350160 22705.10281804 0 128.19849752 0 6062.68993436 0 1308.60283615 0 913.19720978 0 7798
0.08450000 0.08449610 22059.21502703 0 279.52800612 0 6069.26571504 0 1221.04940761 0 623.85611557 0 7371
0.08550000 0.08548940 22505.58126756 0 172.66651181 0 5071.80409112 0 671.13654067 0 -342.10920500 0 8256
0.08650000 0.08650700 21785.28036872 0 269.46874778 0 5988.50163954 0 -87.50464412 0 657.39147296 0 8037
0.08750000 0.08749060 22082.14595452 0 602.09983608 0 5661.34250001 0 -213.63193934 0 457.71480151 0 8155
0.08850000 0.08849210 21234.15126338 0 445.14213366 0 6949.64472094 0 -635.95555202 0 619.66447691 0 8718
0.08950000 0.08949900 21291.14136258 0 175.01131156 0 6462.83461908 0 222.76946432 0 813.63089780 0 8571
0.09050000 0.09049190 20958.41810095 0 140.75880065 0 7133.37315714 0 16.07030872 0 670.40252618 0 8932
0.09150000 0.09150830 21158.50168396 0 -71.77740006 0 6314.88517416 0 733.78181126 0 485.46684410 0 9285
0.09250000 0.09250820 20897.49377399 0 429.45805370 0 7886.01340814 0 -527.37423815 0 82.07237484 0 9204
0.09350000 0.09350330 20719.89149244 0 520.69279536 0 6283.56872123 0 -158.61794653 0 -149.45794025 0 9349
0.09450000 0.09448040 20009.36995973 0 676.26902180 0 8304.76136982 0 -107.24142830 0 341.47523230 0 9564
0.09550000 0.09549270 19655.62668123 0 472.42768925 0 7005.39834857 0 405.94036424 0 1032.41442736 0 10155
0.09650000 0.09649430 19068.07786752 0 318.44089082 0 7792.99702334 0 879.14703058 0 230.93916927 0 9913
0.09750000 0.09749140 18803.36054280 0 409.47442483 0 6625.14961564 0 1085.34327946 0 556.53698241 0 10476
0.09850000 0.09850240 18154.43777610 0 714.15451102 0 7527.34672461 0 204.41010948 0 -386.05003277 0 10575
0.09950000 0.09950330 17658.38785934 0 664.45622195 0 6961.06522209 0 -391.03975763 0 719.68491118 0 10882
0.10050000 0.10051200 17439.41998310 0 385.84208073 0 7482.27171518 0 -391.24096528 0 443.28967442 0 10875
0.10150000 0.10150300 16986.53416515 0 -62.92696130 0 7372.12457867 0 -183.37885196 0 1236.53902431 0 11118
0.10250000 0.10250800 17776.30228551 0 -404.48469997 0 8246.01772910 0 748.80494097 0 2051.08153888 0 11575
0.10350000 0.10349800 17943.45076188 0 -294.57698932 0 7595.57747455 0 655.61882234 0 1505.66268411 0 11364
0.10450000 0.10450100 18149.82910930 0 202.29012275 0 7777.39500012 0 652.37814273 0 2729.06138772 0 12093
0.10550000 0.10551000 18011.68151182 0 443.53247248 0 8098.23689394 0 713.83527654 0 3246.94064820 0 12067
0.10650000 0.10649700 17569.58671857 0 757.03759356 0 7842.42216460 0 188.09655307 0 4860.00775005 0 12054
0.10750000 0.10749900 17024.63997113 0 443.73592826 0 8104.40801119 0 914.37635404 0 4400.07404409 0 12807
0.10850000 0.10850100 16418.09445769 0 266.56416363 0 7739.52524781 0 530.64751564 0 4499.21658354 0 12736
0.10950000 0.10950300 16593.44860909 0 179.21643899 0 7589.00169387 0 622.51960220 0 3690.76650166 0 12933
0.11050000 0.11050200 16026.13296670 0 199.26413957 0 7414.97393925 0 652.20616078 0 3917.00707893 0 13428
0.11150000 0.11150900 15977.79816855 0 370.68181509 0 6474.43497064 0 672.31568494 0 3607.12481958 0 13453
0.11250000 0.11250000 15478.93808911 0 139.33685833 0 6099.45810290 0 480.25343029 0 2073.43919319 0 13668
0.11350000 0.11349100 15310.77795418 0 194.95447408 0 5454.45832331 0 183.88243311 0 2441.93020545 0 13791
0.11450000 0.11448600 15139.13321751 0 15.61348868 0 5088.03559078 0 175.45868946 0 790.71458315 0 14205
0.11550000 0.11549300 15384.51662297 0 -44.87717398 0 5108.77459138 0 -82.30865332 0 1925.11880679 0 14776
0.11650000 0.11649800 15278.06766055 0 -32.53673798 0 4753.00799574 0 -14.90296715 0 1036.96239465 0 14553
0.11750000 0.11747300 15415.09119296 0 51.44969487 0 5506.04166951 0 478.51112942 0 1364.76112720 0 14568
0.11850000 0.11849100 15340.79049163 0 269.87903153 0 4924.92250802 0 555.73889621 0 1448.71754751 0 16015
0.11950000 0.11950300 14951.97638284 0 200.23645586 0 4734.93302937 0 740.35984007 0 1475.74007187 0 15270
0.12050000 0.12050700 14755.60221457 0 221.67462494 0 4645.58109671 0 309.06281591 0 1551.29972608 0 15999
0.12150000 0.12150000 14805.73551683 0 -105.28982652 0 4119.01281321 0 392.52914385 0 1097.43035119 0 15670
0.12250000 0.12250700 14516.73838654 0 112.35378866 0 4407.68396464 0 12.09235484 0 1834.80017817 0 16887
0.12350000 0.12352200 14698.94933489 0 101.38920831 0 3712.34855107 0 -278.86480772 0 760.17261105 0 16407
0.12450000 0.12449800 14295.07275412 0 185.84954699 0 3970.83855528 0 -526.73914138 0 506.57004178 0 16306
0.12550000 0.12549900 14539.66931403 0 317.47644299 0 3871.77470039 0 -503.47211844 0 407.07454590 0 17523
0.12650000 0.12650100 13978.31121652 0 306.24028852 0 4227.19283585 0 -391.59841797 0 216.63768934 0 17154
0.12750000 0.12750600 14135.34310724 0 268.64705621 0 4486.98675554 0 228.52355343 0 303.19294810 0 18007
0.12850000 0.12850300 13695.27163112 0 184.41636402 0 4248.33649987 0 76.14259436 0 565.22712949 0 17496
0.12950000 0.12949900 13775.86709686 0 269.74077153 0 4397.72474809 0 565.16867810 0 1243.23845215 0 18405
0.13050000 0.13049000 13522.84004890 0 290.74954774 0 4531.10630966 0 250.25173129 0 916.85266939 0 18100
0.13150000 0.13148800 13183.37239683 0 369.77357051 0 4786.74118859 0 206.68521719 0 1778.45079605 0 19059
0.13250000 0.13249300 12832.21446799 0 419.75512399 0 4902.74470413 0 -286.05657606 0 1415.72623762 0 18957
0.13350000 0.13349100 12778.25934448 0 313.00603619 0 5212.76185129 0 134.71582682 0 1790.02866631 0 19468
0.13450000 0.13450700 12349.99055163 0 330.40993572 0 5199.38547692 0 -37.05120813 0 1683.64714779 0 19953
0.13550000 0.13551000 12170.02773343 0 162.50945981 0 4861.69384766 0 666.30755712 0 1497.36708388 0 19956
0.13650000 0.13649900 11924.41951496 0 -19.18621711 0 4225.61914475 0 987.10898459 0 1276.67938807 0 19723
0.13750000 0.13749600 11897.89157923 0 -185.99679952 0 3157.20653342 0 1435.53226420 0 780.88013783 0 20946
0.13850000 0.13851100 11920.71010022 0 -120.94265748 0 2554.28050951 0 1052.82407690 0 888.76677948 0 20955
0.13950000 0.13949800 11970.39377645 0 2.69248431 0 1921.61172376 0 521.90566157 0 590.84906876 0 20506
0.14050000 0.14048300 11796.95053567 0 286.69167283 0 1477.02150605 0 -328.35739289 0 259.69612603 0 21447
0.14150000 0.14148400 11624.51895345 0 417.54183986 0 2172.93019281 0 -1072.62897942 0 229.20361280 0 21771
0.14250000 0.14249400 11325.63005052 0 375.75134857 0 2618.45338453 0 -962.22780420 0 552.57577709 0 22470
0.14350000 0.14350900 11177.96162186 0 210.61832088 0 3490.25577392 0 -736.37615345 0 788.08427088 0 22519
0.14450000 0.14449900 11150.20845521 0 74.60240040 0 3669.03832380 0 -27.84241742 0 533.03840205 0 22218
0.14550000 0.14550500 11204.39963238 0 -7.40773496 0 3943.91719678 0 100.31909836 0 292.22544518 0 23559
0.14650000 0.14650700 11215.34802620 0 73.40392222 0 3779.20794162 0 357.28633161 0 -49.50101566 0 23044
0.14750000 0.14750500 10977.84431690 0 242.48444163 0 3676.55831914 0 170.24977191 0 46.56057383 0 23649
0.14850000 0.14849900 10800.81530854 0 256.24075000 0 3335.95536134 0 -39.54708221 0 -411.45390342 0 23640
0.14950000 0.14949500 10593.04312043 0 315.12265072 0 3345.75720878 0 -180.50124537 0 -709.10183852 0 24457
0.15050000 0.15050000 10263.55716620 0 283.60274201 0 3371.57698351 0 -137.80363357 0 -721.89032686 0 24591
0.15150000 0.15149900 10003.48223024 0 296.11133814 0 3645.02829384 0 -298.31900194 0 -903.53924267 0 25020
0.15250000 0.15250500 9960.72279486 0 147.05131693 0 3663.56412690 0 -87.87895779 0 -1055.52745340 0 25297
0.15350000 0.15350100 9781.09719617 0 141.72437255 0 3708.45928591 0 15.72196096 0 -966.33851017 0 25452
0.15450000 0.15450400 9743.42977558 0 114.17128947 0 3635.54118462 0 161.29996579 0 -736.69313980 0 26061
0.15550000 0.15549900 9578.60811391 0 18.35452136 0 3587.74593771 0 350.65659581 0 -1114.37675623 0 26128
0.15650000 0.15649500 9691.48672855 0 117.75818112 0 3370.03701436 0 405.17375186 0 -715.98111677 0 26331
0.15750000 0.15749700 9347.78135115 0 85.44310878 0 2945.66872731 0 560.07553926 0 -1222.73550522 0 27345
0.15850000 0.15849900 9320.37664466 0 162.72977657 0 2722.46312574 0 449.71370632 0 -553.21874231 0 26980
0.15950000 0.15949700 9139.60449961 0 150.00760807 0 2667.32773391 0 350.25980084 0 -898.05942544 0 27777
0.16050000 0.16050000 9037.68551943 0 131.32564656 0 2600.64819377 0 311.74033892 0 -382.71043544 0 28224
0.16150000 0.16150500 8957.03385044 0 63.49281565 0 2605.50415489 0 26.86774060 0 -409.10348335 0 28075
0.16250000 0.16249700 8955.15666176 0 51.97744342 0 2676.06171953 0 108.30715439 0 -73.34299789 0 28590
0.16350000 0.16349900 8940.82483208 0 13.27633258 0 2604.18899875 0 120.28507941 0 277.33270703 0 29163
0.16450000 0.16449100 8986.01224802 0 35.64725085 0 2720.43980861 0 209.30653694 0 411.61576879 0 28996
0.16550000 0.16550500 8982.77494061 0 167.51829378 0 2552.60565255 0 101.07233436 0 572.25028806 0 30777
0.16650000 0.16650700 8862.24144282 0 218.34514419 0 2719.12465248 0 140.56546146 0 297.84015022 0 29211
0.16750000 0.16749900 8664.92305989 0 314.97989446 0 3017.94611151 0 -179.67168535 0 850.12479446 0 30922
0.16850000 0.16850800 8405.53380362 0 269.60813185 0 2886.13824104 0 -112.95392700 0 468.64408621 0 30867
0.16950000 0.16949900 8237.31746543 0 221.26883744 0 3158.58913346 0 -198.52113256 0 904.94432401 0 30852
0.17050000 0.17049200 8097.03414431 0 74.09780759 0 3121.14652587 0 52.49844758 0 237.35308458 0 31257
0.17150000 0.17149500 8133.26276161 0 -66.10379401 0 3148.45006650 0 237.96120378 0 641.98840926 0 32608
0.17250000 0.17250900 8169.62626673 0 -133.34559149 0 2897.46881698 0 63.12119974 0 542.77505372 0 32361
0.17350000 0.17350400 8313.29302372 0 -71.76200036 0 2814.36668612 0 262.49842026 0 253.52725691 0 32508
0.17450000 0.17449800 8312.96704485 0 123.87197106 0 2729.15131293 0 148.62950429 0 363.14271065 0 32791
0.17550000 0.17549800 8111.88304392 0 137.10783729 0 2457.99309535 0 197.02612601 0 84.82374892 0 33633
0.17650000 0.17650100 8061.64857581 0 115.34144122 0 2307.07611863 0 230.37488860 0 239.53601895 0 33984
0.17750000 0.17750300 7927.24411502 0 49.59914654 0 2122.61704014 0 176.88625210 0 -19.50106773 0 34069
0.17850000 0.17849800 7922.66917017 0 29.77535972 0 2054.83591623 0 151.62176552 0 -246.46925232 0 34536
