### header ###
fiducial parameters:
Omega_m = 0.31
Omega_nu = 0
Omega_de = 0.69
Omega_k = 0
H_0 = 100
w_de = -1
zeff = 0
beta = 0
fgrowth = 0
b_1 = 2
gamma = 0.55
Lx = 3500 Ly = 3500 Lz = 3500
nx = 700 ny = 700 nz = 700
xoffset = 857.220397 yoffset = 15.9954215 zoffset = 262.898189
bins = 400 dk = 0.001
kx_ny = 0.628318531 ky_ny = 0.628318531 kz_ny = 0.628318531
############################
A(data) = 3.07089146 (not used)
A(ran) = 3.06883862 (used)
Ngal = 187039
weighted Ngal = 0
Nran = 9360983
weighted Nran = 0
SN(data) = 3452.10241
SN(ran) = 68.9145823
SN(data+ran) = 3521.01699
############################
13 columns: k_central k_mean P_0(k) sigma^{lin}_{P_0(k)} P^img_1(k) sigma^{lin}_{P_1(k)} P_2(k) sigma^{lin}_{P_2(k)} P^img_3(k) sigma^{lin}_{P_3(k)} P_4(k) sigma^{lin}_{P_4(k)} N_modes
### header ###
0.00050000 0 0 0 0 0 0 0 0 0 0 0 0
0.00150000 0.00179520 13449.55100614 0 -15930.81224850 0 -17453.47079652 0 24341.29193844 0 -32566.41329783 0 3
0.00250000 0.00253879 28087.57601406 0 -18866.64540642 0 -9517.04306985 0 -9861.13062938 0 30782.97165285 0 6
0.00350000 0.00331552 37162.82778824 0 -17933.10936321 0 -24778.32843886 0 8506.57601304 0 -1672.40649706 0 7
0.00450000 0.00420575 44409.22568848 0 -10638.37666482 0 -19561.65484111 0 2139.38809103 0 18580.79565833 0 24
0.00550000 0.00557378 56360.84757820 0 -9673.02958005 0 -21073.74717745 0 18702.53190574 0 17838.91271008 0 45
0.00650000 0.00659388 45925.58947209 0 65.03907957 0 -6494.27471918 0 31572.96458622 0 38717.40978433 0 40
0.00750000 0.00754703 63096.13308971 0 -3492.27909106 0 -6288.85182707 0 12802.20193054 0 28520.45347371 0 57
0.00850000 0.00846663 55048.83882488 0 -471.86228452 0 2806.61063712 0 28044.74913478 0 59251.26850717 0 75
0.00950000 0.00948925 69259.83151154 0 -5384.15929364 0 16549.61007124 0 28063.74583451 0 56090.28511511 0 112
0.01050000 0.01054430 64785.60289457 0 -7571.32015027 0 5414.34044085 0 17768.20901698 0 50022.01981798 0 105
0.01150000 0.01145670 80475.86521743 0 -7897.87229466 0 15125.64443664 0 19217.46611573 0 46428.94581182 0 144
0.01250000 0.01249090 76266.12911217 0 -2747.65342403 0 -1042.85811596 0 11155.79505862 0 31654.90893005 0 169
0.01350000 0.01339930 84298.69812453 0 1544.38672588 0 -12791.41090584 0 15066.29380078 0 17379.95694074 0 180
0.01450000 0.01448870 76615.82575641 0 -281.53221414 0 -2854.30471817 0 -9838.68304987 0 21738.06963565 0 267
0.01550000 0.01550050 84260.70472506 0 801.66522509 0 -14981.31448125 0 -11202.44375916 0 -3538.38824036 0 238
0.01650000 0.01653350 78760.65432239 0 -709.11420323 0 4374.62521084 0 -9874.84422327 0 12452.73009931 0 315
0.01750000 0.01747870 88226.51870946 0 -1685.50185516 0 2475.65215764 0 2620.29685125 0 16069.63428502 0 297
0.01850000 0.01844180 85885.20356870 0 -5897.19383365 0 4947.29140298 0 -3855.31838772 0 1840.56663199 0 388
0.01950000 0.01947590 97701.03839760 0 -1718.51564636 0 18279.32140572 0 12456.43951406 0 18002.91380425 0 399
0.02050000 0.02045430 96870.01708906 0 2585.93418197 0 8545.43494262 0 14683.88686291 0 16676.85423751 0 462
0.02150000 0.02154770 89960.27667821 0 7278.35507027 0 12896.06136414 0 4347.60268648 0 15509.73747211 0 571
0.02250000 0.02255340 82014.59789599 0 10346.78294421 0 3857.15061378 0 -10384.59649327 0 6902.63631959 0 510
0.02350000 0.02348930 74138.72355482 0 6441.90452742 0 5441.57653757 0 5506.98588417 0 4073.55562166 0 555
0.02450000 0.02439640 66716.97150317 0 5354.21420009 0 6594.23782613 0 -9499.63130187 0 -3145.41509080 0 592
0.02550000 0.02547300 63909.73138962 0 1886.68702194 0 6758.59862112 0 -4929.53117482 0 -13608.94343350 0 837
0.02650000 0.02652900 59826.45260508 0 3259.96856240 0 10454.35597171 0 -9291.01606495 0 -19180.82159435 0 723
0.02750000 0.02749970 62191.48551888 0 2820.12189930 0 10242.31233632 0 -11788.07042159 0 -18196.36540333 0 826
0.02850000 0.02848090 61725.22332656 0 1260.88627380 0 19045.25934653 0 -5689.51157074 0 -11817.52092651 0 831
0.02950000 0.02946900 59621.08591622 0 1413.09592535 0 22892.03483969 0 1708.83744608 0 -3228.01139237 0 996
0.03050000 0.03053250 63063.08557656 0 494.53130484 0 26755.10927641 0 2464.80492969 0 -566.47933798 0 1041
0.03150000 0.03150510 60855.64658601 0 2461.96104505 0 29395.20091360 0 6056.14787564 0 -843.02969572 0 1036
0.03250000 0.03246190 59693.58811344 0 2766.39158880 0 27150.66777564 0 5151.83752433 0 6297.05750210 0 1059
0.03350000 0.03345080 55813.98992014 0 2476.32659669 0 26917.64908598 0 1401.34944533 0 325.44943655 0 1302
0.03450000 0.03451200 54665.19541543 0 1645.35025075 0 25987.59764450 0 3262.01436083 0 2934.11333836 0 1339
0.03550000 0.03553350 52524.75070324 0 1157.65213748 0 22341.01814086 0 2215.79079405 0 -3875.74265009 0 1365
0.03650000 0.03647120 50722.76198455 0 588.98536887 0 18873.72701638 0 5205.88257304 0 -1737.61351195 0 1308
0.03750000 0.03744890 51460.37348552 0 649.98051193 0 16117.74427015 0 4029.77328706 0 -5092.84658929 0 1579
0.03850000 0.03847530 50373.62737285 0 2013.74009716 0 14338.12444642 0 3407.88428537 0 -963.12818032 0 1662
0.03950000 0.03950240 47835.37603128 0 2029.38708297 0 13921.09630430 0 5157.62645946 0 3085.39001590 0 1683
0.04050000 0.04050350 47273.11868172 0 2304.27719660 0 14124.21486301 0 2702.98307803 0 5732.36093133 0 1822
0.04150000 0.04152450 44949.11414309 0 1843.72525485 0 13337.81893787 0 -521.51111473 0 8288.52987016 0 1887
0.04250000 0.04250150 45247.77823301 0 1877.46968834 0 16036.24955235 0 527.18876741 0 6869.73493490 0 1920
0.04350000 0.04349210 42430.53394030 0 348.02178728 0 13242.04859364 0 -845.43294684 0 5965.50326814 0 2005
0.04450000 0.04448520 43008.86542041 0 -359.02638435 0 15162.85099056 0 263.81582453 0 4790.22579031 0 2151
0.04550000 0.04548030 43267.51279373 0 -1608.27858464 0 12021.98836330 0 899.27004352 0 -2896.18738279 0 2274
0.04650000 0.04648670 44509.94191903 0 -1534.71976625 0 11354.96814893 0 1462.41990075 0 -7445.70587835 0 2311
0.04750000 0.04749250 44762.63174746 0 -809.55953410 0 8163.76988770 0 -211.37032041 0 -11174.02739411 0 2568
0.04850000 0.04851840 44324.80840149 0 507.06912667 0 7828.73105201 0 305.21963743 0 -12645.28244634 0 2493
0.04950000 0.04949480 42860.71364378 0 2373.78938072 0 8514.20841489 0 -465.29999262 0 -13728.31914427 0 2644
0.05050000 0.05050630 40046.84154629 0 3230.10215341 0 7241.48573587 0 -106.52225147 0 -10662.78011756 0 2829
0.05150000 0.05149060 37660.78861562 0 3220.97474501 0 9395.94753953 0 -250.29556983 0 -9343.70099493 0 2784
0.05250000 0.05249300 35449.86502334 0 2140.68076586 0 9532.60013046 0 1827.50499584 0 -3598.91914454 0 3055
0.05350000 0.05348950 34250.93721637 0 1466.26420330 0 10071.80290538 0 354.04452794 0 -905.83907981 0 3009
0.05450000 0.05448610 33457.12246175 0 539.80190160 0 14303.05361614 0 2055.63400243 0 5366.23045572 0 3336
0.05550000 0.05550870 35332.73744272 0 32.98006924 0 15810.76209869 0 1608.43595375 0 8931.23655701 0 3349
0.05650000 0.05647670 34896.48778785 0 -689.13731876 0 17961.88542908 0 1118.36718724 0 10907.60149048 0 3324
0.05750000 0.05747970 36236.71057451 0 -576.49026152 0 19273.89418240 0 2427.57589447 0 14457.72497020 0 3639
0.05850000 0.05849280 37038.39378465 0 -745.08203744 0 17700.65270609 0 1531.60610600 0 12284.34515136 0 3846
0.05950000 0.05951020 37370.44260724 0 -408.36160041 0 17679.52028272 0 3039.55064222 0 12809.17113399 0 3787
0.06050000 0.06049470 37789.60647300 0 754.69841414 0 13539.02658596 0 -1467.59060009 0 5957.74721914 0 3930
0.06150000 0.06148310 36451.85662950 0 1524.99660337 0 13610.17990508 0 -792.31412775 0 5350.13384387 0 4083
0.06250000 0.06249100 34525.88353325 0 2028.73512523 0 12961.93157743 0 -2843.85091299 0 3153.57580323 0 4303
0.06350000 0.06350600 33150.70232282 0 2039.46994668 0 12224.65729598 0 -635.81054762 0 1334.47881413 0 4470
0.06450000 0.06451750 31342.41883973 0 1200.60266393 0 14181.20496222 0 -74.69479855 0 2057.79220737 0 4479
0.06550000 0.06550280 30790.50288884 0 1263.53906737 0 12772.75142563 0 3249.71708893 0 -48.90593561 0 4636
0.06650000 0.06648880 30023.10366343 0 302.06213864 0 13939.75578452 0 2559.38376494 0 634.72919702 0 4653
0.06750000 0.06749660 29748.26975306 0 323.44298039 0 11194.30552803 0 1990.80916966 0 1420.75080849 0 5220
0.06850000 0.06852730 29202.64856658 0 237.68580784 0 13516.09565847 0 2509.89117977 0 4078.17552911 0 5029
0.06950000 0.06949320 29202.08653404 0 740.11254576 0 11188.34798314 0 -27.90592710 0 1333.86057834 0 5040
0.07050000 0.07048030 28500.33270891 0 562.66088893 0 11548.86937403 0 1587.29228972 0 5832.04302201 0 5475
0.07150000 0.07148790 27904.91543969 0 590.54219900 0 10814.61882764 0 135.57573660 0 3684.69655027 0 5509
0.07250000 0.07249820 27706.40554778 0 351.94814658 0 9634.92377407 0 928.11242923 0 5819.18371758 0 5916
0.07350000 0.07351270 27063.32791946 0 4.45386056 0 10267.17665574 0 2318.30552871 0 5264.43512270 0 5721
0.07450000 0.07449140 27386.38422146 0 489.24595087 0 9737.68580305 0 705.66894379 0 5682.84586486 0 6028
0.07550000 0.07549160 26717.11587694 0 616.89590464 0 9350.22057235 0 1661.08716177 0 6095.11921172 0 6183
0.07650000 0.07648840 26291.88205979 0 985.98941578 0 10906.52238801 0 804.75640404 0 6005.39633759 0 6330
0.07750000 0.07749960 25098.34976517 0 402.46025877 0 7988.38201434 0 -587.04298443 0 4307.45108207 0 6583
0.07850000 0.07848650 25710.17838446 0 -127.00923667 0 9917.44628954 0 589.20680969 0 3433.59165359 0 6549
0.07950000 0.07947320 25340.24856890 0 -602.71919594 0 6194.55400809 0 836.55620496 0 1135.36192708 0 6828
0.08050000 0.08048110 25561.91420132 0 -608.11470829 0 6015.82766147 0 1037.11526750 0 -1106.88823472 0 7147
0.08150000 0.08149960 26188.58047957 0 -250.82050822 0 4301.39237132 0 130.17910018 0 -657.05425344 0 7386
0.08250000 0.08250610 25452.31785669 0 421.52440241 0 5031.69744932 0 835.50520412 0 -2329.81595506 0 7227
0.08350000 0.08350160 25051.25143861 0 907.21718359 0 3706.30108097 0 -273.63902920 0 -1254.91748826 0 7798
0.08450000 0.08449610 24529.34802517 0 1321.96796987 0 5667.68222703 0 -817.02669838 0 -346.12886170 0 7371
0.08550000 0.08548940 23096.05265046 0 1331.78105796 0 5571.00139009 0 -558.55917547 0 -212.67873216 0 8256
0.08650000 0.08650700 22381.25967048 0 1000.14364318 0 7590.11451829 0 -818.33061387 0 1537.66481675 0 8037
0.08750000 0.08749060 21411.75354493 0 824.08357891 0 8304.23305923 0 -752.06248155 0 398.55862890 0 8155
0.08850000 0.08849210 21578.56480178 0 546.90711693 0 8640.12618438 0 226.20235905 0 1525.10900988 0 8718
0.08950000 0.08949900 20527.56395843 0 396.71516218 0 8488.73710033 0 -207.03592549 0 123.14357689 0 8571
0.09050000 0.09049190 20578.82132576 0 152.45132554 0 8120.54958564 0 487.66326725 0 684.27461325 0 8932
0.09150000 0.09150830 20186.41020874 0 146.22512910 0 7848.24482168 0 1368.51550455 0 504.26570838 0 9285
0.09250000 0.09250820 20452.25159853 0 418.08813548 0 6781.49582666 0 1032.53357826 0 -717.00176785 0 9204
0.09350000 0.09350330 19835.13987340 0 319.60879443 0 6409.62137852 0 826.79932013 0 -589.99140711 0 9349
0.09450000 0.09448040 19547.82884072 0 269.87903153 0 5689.43288619 0 180.83958896 0 -1969.50813653 0 9564
0.09550000 0.09549270 19450.93443141 0 175.01131156 0 6263.89758245 0 -5.90202731 0 -635.62395282 0 10155
0.09650000 0.09649430 19346.95841215 0 -217.01762334 0 5761.50793868 0 16.73080936 0 -2532.97947637 0 9913
0.09750000 0.09749140 19636.74238800 0 37.57018897 0 6296.18073135 0 -756.88022445 0 -1370.41517452 0 10476
0.09850000 0.09850240 19512.30838441 0 269.52382697 0 6022.85306817 0 293.23035936 0 -1845.40011181 0 10575
0.09950000 0.09950330 19092.13286008 0 584.29576939 0 6477.52614959 0 113.99705939 0 -757.92223277 0 10882
0.10050000 0.10051200 18733.78091478 0 611.02378870 0 6913.26997518 0 1016.12447632 0 301.83957375 0 10875
0.10150000 0.10150300 18111.38608380 0 513.30656376 0 6489.41875806 0 978.29181816 0 511.80818502 0 11118
0.10250000 0.10250800 17864.54139375 0 259.14645821 0 7048.39383761 0 1347.27067466 0 1559.07825639 0 11575
0.10350000 0.10349800 17781.02335882 0 231.11677155 0 7369.15704687 0 710.34393042 0 2330.99622339 0 11364
0.10450000 0.10450100 17385.57726610 0 294.99626559 0 6018.99752497 0 527.91940971 0 2396.78775212 0 12093
0.10550000 0.10551000 17436.49741391 0 442.23642545 0 6739.21973926 0 181.27235401 0 3240.39858948 0 12067
0.10650000 0.10649700 16781.39228931 0 336.48663150 0 5674.49406137 0 536.09136279 0 3177.67575840 0 12054
0.10750000 0.10749900 16702.70773419 0 306.20319437 0 5630.46443245 0 431.43191197 0 2917.06127120 0 12807
0.10850000 0.10850100 16076.04145594 0 306.50444381 0 5129.96321801 0 734.05720721 0 2468.43565987 0 12736
0.10950000 0.10950300 15959.81312738 0 299.33628084 0 5252.72236464 0 126.09649584 0 1604.56916990 0 12933
0.11050000 0.11050200 15585.72427106 0 154.48475926 0 4924.98995193 0 -350.38794426 0 1145.04012736 0 13428
0.11150000 0.11150900 15805.92861888 0 165.90863259 0 5616.81828247 0 -945.20383867 0 1620.24987767 0 13453
0.11250000 0.11250000 15617.42290612 0 -240.39817686 0 5335.64464508 0 -384.68204558 0 251.85239995 0 13668
0.11350000 0.11349100 16403.93123776 0 -383.75581596 0 6238.62859960 0 -497.29313273 0 1165.07096697 0 13791
0.11450000 0.11448600 16443.49832834 0 -134.17402745 0 5408.89996590 0 193.59547941 0 -119.56118150 0 14205
0.11550000 0.11549300 16636.94992742 0 239.63943293 0 5775.76108380 0 614.48141286 0 1238.31504713 0 14776
0.11650000 0.11649800 15976.11207094 0 499.69188760 0 4961.74687982 0 1283.15400289 0 304.12929431 0 14553
0.11750000 0.11747300 15594.82919815 0 474.39367906 0 4599.50566936 0 1632.52466826 0 1838.27353924 0 14568
0.11850000 0.11849100 15198.70866639 0 302.40947475 0 3788.45899717 0 1058.66022276 0 854.34228661 0 16015
0.11950000 0.11950300 14940.96054513 0 4.36031586 0 2992.18254003 0 771.83478618 0 581.39006117 0 15270
0.12050000 0.12050700 14727.72540076 0 118.37978911 0 2841.17563811 0 -192.11396164 0 500.31574371 0 15999
0.12150000 0.12150000 14816.07691550 0 124.96343824 0 2835.36422169 0 -981.99786071 0 -631.80550377 0 15670
0.12250000 0.12250700 14727.83780727 0 221.98037064 0 3802.63345774 0 -1009.88029484 0 -53.82416993 0 16887
0.12350000 0.12352200 14444.12378282 0 386.97738646 0 3674.97338739 0 -1084.81946514 0 -1590.66448494 0 16407
0.12450000 0.12449800 14306.65062438 0 446.76640769 0 5082.64007843 0 -725.30411248 0 -986.73804312 0 16306
0.12550000 0.12549900 13865.11786366 0 359.96497868 0 4692.81431108 0 -182.63359682 0 -1951.75914902 0 17523
0.12650000 0.12650100 13670.42979300 0 195.72108646 0 5015.26361795 0 363.32930545 0 -1034.08253993 0 17154
0.12750000 0.12750600 13493.95157653 0 -148.05398297 0 4077.27627705 0 806.95395126 0 -1894.80277177 0 18007
0.12850000 0.12850300 13504.51778821 0 -180.68559205 0 3902.21438257 0 936.94870477 0 -2062.17606116 0 17496
0.12950000 0.12949900 13752.71135635 0 -23.20283883 0 3040.64098534 0 848.15880465 0 -2584.20312175 0 18405
0.13050000 0.13049000 13245.98282140 0 251.42413116 0 2376.43093364 0 628.28830415 0 -2827.18102795 0 18100
0.13150000 0.13148800 13004.64605021 0 399.61974633 0 1696.42776767 0 173.76697152 0 -1736.60185338 0 19059
0.13250000 0.13249300 12700.13682190 0 446.59892200 0 2180.86609222 0 355.36080814 0 -2090.81723922 0 18957
0.13350000 0.13349100 12251.41004472 0 322.83823338 0 1766.20972741 0 206.24121148 0 -1485.33958759 0 19468
0.13450000 0.13450700 12181.15597765 0 156.60362192 0 2110.84807882 0 229.70944208 0 -531.01620899 0 19953
0.13550000 0.13551000 12208.58316544 0 -34.10357229 0 2237.00190197 0 29.66497653 0 -14.47458595 0 19956
0.13650000 0.13649900 12321.43929878 0 -101.00522768 0 2570.34339940 0 187.00171369 0 955.72508775 0 19723
0.13750000 0.13749600 12490.38627926 0 2.96703720 0 2982.20084219 0 -237.22269303 0 527.85758613 0 20946
0.13850000 0.13851100 12670.91113000 0 205.81294269 0 3324.74843256 0 -406.10784993 0 1408.80199677 0 20955
0.13950000 0.13949800 12176.54731085 0 468.20008051 0 3701.51256376 0 -565.80040267 0 1009.75552362 0 20506
0.14050000 0.14048300 11980.28554909 0 529.05471543 0 4214.69323224 0 -603.52290246 0 1521.19726343 0 21447
0.14150000 0.14148400 11514.47298280 0 361.71514800 0 4072.40907528 0 130.70291450 0 1290.84260799 0 21771
0.14250000 0.14249400 11267.06626021 0 219.28036633 0 4200.99087899 0 523.82106845 0 909.23488039 0 22470
0.14350000 0.14350900 11209.10946504 0 2.89658081 0 3422.51961262 0 725.46935005 0 1041.09333379 0 22519
0.14450000 0.14449900 11006.05835024 0 1.17601936 0 3428.97174614 0 694.00002426 0 494.63134664 0 22218
0.14550000 0.14550500 11171.83546722 0 44.16328025 0 3100.69978219 0 236.32344097 0 821.61625608 0 23559
0.14650000 0.14650700 10959.60074076 0 39.51695727 0 2996.66755968 0 162.59488876 0 623.04791278 0 23044
0.14750000 0.14750500 11106.69589623 0 53.88239650 0 3100.99203911 0 -21.91499748 0 1394.80738661 0 23649
0.14850000 0.14849900 10925.81134467 0 23.18136919 0 2884.72191905 0 1.83068610 0 926.82312659 0 23640
0.14950000 0.14949500 11058.18124767 0 114.20276330 0 2981.16670232 0 145.74515331 0 945.21845151 0 24457
0.15050000 0.15050000 10721.04041030 0 353.76351168 0 3194.00842391 0 -68.80919382 0 990.91506893 0 24591
0.15150000 0.15149900 10569.28038478 0 334.51389730 0 2957.16791301 0 -153.57876281 0 1074.08351962 0 25020
0.15250000 0.15250500 10338.58850983 0 364.30386987 0 3351.78219757 0 -89.03247337 0 1313.80725744 0 25297
0.15350000 0.15350100 10143.31592533 0 108.27725426 0 2924.78359825 0 46.87328874 0 1128.65125860 0 25452
0.15450000 0.15450400 10089.38328312 0 2.40799468 0 3164.90637917 0 390.53954867 0 1160.12508064 0 26061
0.15550000 0.15549900 10164.34718285 0 -106.10230075 0 2701.87025361 0 273.53898741 0 845.26995741 0 26128
0.15650000 0.15649500 10137.66187801 0 -17.79653546 0 2605.40298903 0 191.41366910 0 274.51579996 0 26331
0.15750000 0.15749700 10221.00006253 0 88.31419579 0 2566.78011312 0 -133.91436842 0 -95.06690431 0 27345
0.15850000 0.15849900 9945.08704969 0 291.56561899 0 2500.44903316 0 -351.67162657 0 -367.49171841 0 26980
0.15950000 0.15949700 9696.16283925 0 266.12802638 0 2536.94742608 0 -290.31228643 0 -710.25175709 0 27777
0.16050000 0.16050000 9518.53807640 0 200.42080253 0 2429.39687989 0 -87.06401061 0 -798.65048257 0 28224
0.16150000 0.16150500 9396.62197857 0 222.09052901 0 2420.82026338 0 15.70509998 0 -1338.17698822 0 28075
0.16250000 0.16249700 9226.35984195 0 50.58562605 0 2451.10257645 0 230.98975220 0 -938.61794140 0 28590
0.16350000 0.16349900 9173.89972499 0 139.17049670 0 2338.83095695 0 117.42433380 0 -559.55172493 0 29163
0.16450000 0.16449100 9169.87557203 0 129.12023088 0 2283.59439925 0 209.02439660 0 -308.25798532 0 28996
0.16550000 0.16550500 9003.45773795 0 126.63604707 0 2430.71203602 0 423.08910099 0 120.76617926 0 30777
0.16650000 0.16650700 8950.78404863 0 56.02756228 0 2373.78938072 0 338.01423594 0 340.53663796 0 29211
0.16750000 0.16749900 8991.23915061 0 70.92558354 0 2432.16207997 0 393.54642274 0 568.54087332 0 30922
0.16850000 0.16850800 8907.76607828 0 55.66909793 0 2318.92376450 0 234.07980708 0 595.53079979 0 30867
0.16950000 0.16949900 8943.45514435 0 44.35212318 0 2298.64563058 0 -103.48705095 0 978.56833817 0 30852
0.17050000 0.17049200 8879.28226933 0 93.52884607 0 2403.99300923 0 26.75342318 0 673.11377114 0 31257
0.17150000 0.17149500 8867.09740394 0 106.38871253 0 2470.84115913 0 -25.01483173 0 703.75803316 0 32608
0.17250000 0.17250900 8774.71049558 0 125.44566216 0 2339.46043339 0 148.29678103 0 944.07977359 0 32361
0.17350000 0.17350400 8604.63945002 0 150.90573606 0 2383.42261840 0 42.22752779 0 560.84664790 0 32508
0.17450000 0.17449800 8562.21723416 0 180.60128716 0 2396.27068218 0 98.74855464 0 1073.59117912 0 32791
0.17550000 0.17549800 8376.13950196 0 15.08866270 0 2224.37865120 0 348.12744940 0 898.22691113 0 33633
0.17650000 0.17650100 8439.75034445 0 31.94019665 0 2203.66213191 0 197.12054748 0 1206.24547059 0 33984
0.17750000 0.17750300 8493.97524357 0 -85.22841235 0 1945.00351794 0 273.41871245 0 884.62459968 0 34069
