### header ###
fiducial parameters:
Omega_m = 0.31
Omega_nu = 0
Omega_de = 0.69
Omega_k = 0
H_0 = 100
w_de = -1
zeff = 0
beta = 0
fgrowth = 0
b_1 = 2
gamma = 0.55
Lx = 3500 Ly = 3500 Lz = 3500
nx = 700 ny = 700 nz = 700
xoffset = 857.220397 yoffset = 15.9954215 zoffset = 262.898189
bins = 400 dk = 0.001
kx_ny = 0.628318531 ky_ny = 0.628318531 kz_ny = 0.628318531
############################
A(data) = 3.07816211 (not used)
A(ran) = 3.07764807 (used)
Ngal = 187832
weighted Ngal = 0
Nran = 9360983
weighted Nran = 0
SN(data) = 3449.44199
SN(ran) = 69.1124092
SN(data+ran) = 3518.5544
############################
13 columns: k_central k_mean P_0(k) sigma^{lin}_{P_0(k)} P^img_1(k) sigma^{lin}_{P_1(k)} P_2(k) sigma^{lin}_{P_2(k)} P^img_3(k) sigma^{lin}_{P_3(k)} P_4(k) sigma^{lin}_{P_4(k)} N_modes
### header ###
0.00050000 0 0 0 0 0 0 0 0 0 0 0 0
0.00150000 0.00179520 22906.64768564 0 -54112.60502550 0 -66661.10546904 0 70865.67087497 0 74559.79833120 0 3
0.00250000 0.00253879 36007.85092563 0 -49426.93976828 0 -26107.98501383 0 -64877.32660454 0 -84678.07008670 0 6
0.00350000 0.00331552 75323.48814186 0 -55921.45054113 0 -70135.25339047 0 8363.28019752 0 1828.84263328 0 7
0.00450000 0.00420575 101668.42607310 0 -47497.25725730 0 -66519.36086332 0 -37500.04731017 0 1097.31120029 0 24
0.00550000 0.00557378 122451.15280313 0 2883.90135154 0 -68568.30667857 0 -86519.28867644 0 14340.59738958 0 45
0.00650000 0.00659388 110274.94271179 0 12488.13814912 0 -40673.50782454 0 -26684.63039633 0 33662.60155711 0 40
0.00750000 0.00754703 93871.68591307 0 18556.62825926 0 -24751.57569012 0 -27931.66818843 0 54768.72180867 0 57
0.00850000 0.00846663 79928.22071381 0 5448.75931339 0 -35099.83115958 0 2247.42198520 0 18685.78333616 0 75
0.00950000 0.00948925 86837.39909213 0 -8333.49247309 0 -1501.68349376 0 9428.93884942 0 24989.09064007 0 112
0.01050000 0.01054430 90705.98144770 0 -4708.06787412 0 -1252.57943291 0 -1267.23724146 0 20384.24566161 0 105
0.01150000 0.01145670 93322.80493788 0 -127.28688075 0 -5123.57852839 0 -1980.47901164 0 24247.09528531 0 144
0.01250000 0.01249090 96033.71267467 0 2660.85311909 0 24825.65157844 0 -21700.97548824 0 40044.03138360 0 169
0.01350000 0.01339930 95793.49996855 0 7038.13112350 0 13633.11083258 0 6037.07249135 0 -2616.67736172 0 180
0.01450000 0.01448870 91707.18620831 0 8877.36011805 0 49856.89465875 0 -16295.90858424 0 23394.04230134 0 267
0.01550000 0.01550050 80624.57902660 0 11515.48464136 0 1259.30134204 0 4883.68056049 0 -13804.75556924 0 238
0.01650000 0.01653350 77802.38884757 0 7740.41325922 0 50724.11086264 0 -809.95857720 0 11807.74156037 0 315
0.01750000 0.01747870 67167.83400399 0 3790.96566228 0 16224.19323258 0 18927.00770084 0 -18849.78443032 0 297
0.01850000 0.01844180 70693.01447974 0 -299.14631384 0 35653.65802109 0 7789.95080699 0 -5207.78224302 0 388
0.01950000 0.01947590 67878.91756924 0 -1120.47593332 0 14371.84639862 0 1855.08955274 0 -19889.76943595 0 399
0.02050000 0.02045430 70974.03074801 0 -1310.95213215 0 20473.27161540 0 4819.53016677 0 -3251.95397843 0 462
0.02150000 0.02154770 70459.88338358 0 -1133.19248149 0 16460.58411745 0 -5182.40085367 0 -6781.18108844 0 571
0.02250000 0.02255340 73505.87491866 0 2454.65462208 0 15207.58878047 0 5180.95080972 0 -6444.04025106 0 510
0.02350000 0.02348930 71306.52919664 0 -747.03116628 0 24180.77544600 0 2125.15742720 0 4088.91035056 0 555
0.02450000 0.02439640 72708.91278184 0 3665.25022451 0 15742.08172272 0 11024.54922069 0 -2304.43456571 0 592
0.02550000 0.02547300 67909.60454573 0 2896.10869824 0 16429.55992143 0 7310.27851834 0 8136.65743814 0 837
0.02650000 0.02652900 64723.66690905 0 2719.29326224 0 16691.35467696 0 5138.71968493 0 -289.18035290 0 723
0.02750000 0.02749970 64980.51577825 0 419.28976105 0 15965.32104624 0 4999.63911343 0 10399.41167093 0 826
0.02850000 0.02848090 62253.98353694 0 532.87204042 0 9862.05236274 0 4759.92099594 0 -3337.02322316 0 831
0.02950000 0.02946900 59420.10308115 0 -728.09629012 0 2894.40011933 0 3029.59142567 0 2181.64169712 0 996
0.03050000 0.03053250 58282.09960115 0 1330.31977336 0 4748.14079398 0 -529.00300844 0 -5737.90257214 0 1041
0.03150000 0.03150510 57804.03472556 0 1716.43612597 0 1133.38357256 0 -2219.72502180 0 -8693.85649487 0 1036
0.03250000 0.03246190 54304.59533998 0 3132.29725140 0 -1519.71349753 0 -1824.76227707 0 -7193.84785807 0 1059
0.03350000 0.03345080 51035.58929440 0 3142.07661753 0 -1906.78530545 0 -3186.39850336 0 -9620.50201918 0 1302
0.03450000 0.03451200 49418.39687373 0 683.47315485 0 -3481.39814115 0 1506.84295244 0 -1338.21071018 0 1339
0.03550000 0.03553350 47539.74691706 0 -760.83693351 0 -184.36578109 0 2380.62369636 0 -6667.39198109 0 1365
0.03650000 0.03647120 49908.48924560 0 -1378.72201541 0 -3286.99108676 0 1699.11428320 0 -2184.31697200 0 1308
0.03750000 0.03744890 48908.40855006 0 -660.17915434 0 -612.93807151 0 2824.41582787 0 -3822.64181604 0 1579
0.03850000 0.03847530 51014.79409054 0 886.50853275 0 -4100.46573951 0 -1102.19301491 0 1742.33458526 0 1662
0.03950000 0.03950240 49181.55636283 0 578.28764157 0 -2998.21876948 0 -2315.97871401 0 -1878.44762496 0 1683
0.04050000 0.04050350 50994.44851272 0 545.82576633 0 -18.66060428 0 -5169.15936711 0 -1470.49068798 0 1822
0.04150000 0.04152450 49162.33485008 0 2132.74486644 0 4098.02651830 0 -7413.08550993 0 -2750.66591843 0 1887
0.04250000 0.04250150 49458.07637081 0 3589.36459142 0 5453.70519971 0 -5857.55929917 0 -4458.61535310 0 1920
0.04350000 0.04349210 45538.46146091 0 4178.63322469 0 15167.23484434 0 -8279.60479348 0 -3814.94197029 0 2005
0.04450000 0.04448520 44233.08469152 0 3855.92538285 0 14182.89105983 0 -4919.18977615 0 -5431.87585599 0 2151
0.04550000 0.04548030 40817.61296691 0 3034.45862743 0 21986.48801680 0 -1291.65193485 0 -3103.82468309 0 2274
0.04650000 0.04648670 40097.98650711 0 2264.23799870 0 21653.98956818 0 -32.68522698 0 -2966.63254092 0 2311
0.04750000 0.04749250 37442.15795890 0 1792.77138509 0 23310.52426641 0 2541.70222134 0 -4759.88727399 0 2568
0.04850000 0.04851840 38039.71095176 0 1493.65766913 0 24434.13971348 0 2861.47625333 0 202.85103122 0 2493
0.04950000 0.04949480 34845.68004655 0 670.76672327 0 19740.83081377 0 4451.26396752 0 -6180.94158005 0 2644
0.05050000 0.05050630 36526.49455036 0 314.71236697 0 20278.47113823 0 5265.33437476 0 962.51668892 0 2829
0.05150000 0.05149060 33462.74278712 0 313.63776076 0 14353.86135745 0 5346.79537061 0 -6316.38018071 0 2784
0.05250000 0.05249300 34545.55467203 0 234.91498743 0 14461.77160446 0 2747.97940290 0 -713.45646661 0 3055
0.05350000 0.05348950 33345.95242602 0 -829.55777582 0 11088.08137862 0 1431.74416491 0 -7884.81065851 0 3009
0.05450000 0.05448610 34661.67059408 0 -838.27152826 0 12559.06665523 0 669.51676290 0 -6331.83607547 0 3336
0.05550000 0.05550870 34185.40422261 0 -870.55580123 0 9634.84508951 0 -955.87796060 0 -8610.61947621 0 3349
0.05650000 0.05647670 35382.98315149 0 -694.39794330 0 9765.65254207 0 1207.43697957 0 -10412.54075099 0 3324
0.05750000 0.05747970 36028.64612948 0 -129.46981512 0 8610.60823556 0 -297.11175606 0 -10851.71297505 0 3639
0.05850000 0.05849280 36036.62699150 0 -140.95776017 0 7101.42722776 0 1448.26792148 0 -8255.08893424 0 3846
0.05950000 0.05951020 35694.46158325 0 292.66720276 0 9169.33602079 0 385.80386252 0 -6588.07794953 0 3787
0.06050000 0.06049470 37322.33262211 0 881.87401245 0 8148.50508401 0 79.15632523 0 -3019.31747090 0 3930
0.06150000 0.06148310 35341.28033728 0 1372.65206401 0 11514.47298280 0 -2274.98406079 0 -1288.65068110 0 4083
0.06250000 0.06249100 34759.23944243 0 1929.53638253 0 12709.69137502 0 -2378.85891420 0 2504.83288694 0 4303
0.06350000 0.06350600 33725.21198169 0 1024.13568810 0 15557.84745724 0 -943.11982202 0 3155.09329108 0 4470
0.06450000 0.06451750 33519.84529283 0 152.34791155 0 15671.71524915 0 1089.29324413 0 4787.22453657 0 4479
0.06550000 0.06550280 33368.43372748 0 -678.98026675 0 14207.50808493 0 3237.79075851 0 1825.79641693 0 4636
0.06650000 0.06648880 33751.85232392 0 -196.86313658 0 11665.43492212 0 4656.87795069 0 -914.10433029 0 4653
0.06750000 0.06749660 32389.82267484 0 781.76702517 0 10737.23818800 0 1279.08488733 0 -2335.50372433 0 5220
0.06850000 0.06852730 31076.24023042 0 1813.83636456 0 8540.97240428 0 -485.88162411 0 -1837.48669369 0 5029
0.06950000 0.06949320 29971.05945055 0 1898.59087107 0 10290.87194748 0 -1428.90028027 0 -3305.43699461 0 5040
0.07050000 0.07048030 28663.65936403 0 1273.88046604 0 9949.45966282 0 -2144.31149605 0 -2812.27592509 0 5475
0.07150000 0.07148790 27896.48495164 0 538.51709522 0 11918.23715706 0 -225.34694553 0 -3057.13101996 0 5509
0.07250000 0.07249820 27432.58329597 0 67.39849216 0 12301.76816000 0 815.21133329 0 -1908.33651525 0 5916
0.07350000 0.07351270 27416.17194590 0 193.95855243 0 11272.91139859 0 966.51836058 0 -3047.94740831 0 5721
0.07450000 0.07449140 27035.11388612 0 473.43822375 0 10926.04739833 0 1496.23177815 0 -2617.76770484 0 6028
0.07550000 0.07549160 26386.07871291 0 548.59096641 0 9988.22866719 0 1536.99037770 0 -1731.47611665 0 6183
0.07650000 0.07648840 25500.87746785 0 227.20390103 0 7283.54825091 0 2143.31107813 0 -1908.44892176 0 6330
0.07750000 0.07749960 25714.56223824 0 -179.40415786 0 8684.24573850 0 1441.83826926 0 -2093.36886693 0 6583
0.07850000 0.07848650 25842.93046959 0 -223.50460287 0 5889.44902530 0 92.50740813 0 -2544.09647995 0 6549
0.07950000 0.07947320 26051.21972764 0 183.42381456 0 8297.40998424 0 -282.20552912 0 -2578.31302077 0 6828
0.08050000 0.08048110 26073.36380958 0 595.18121556 0 7654.06258030 0 -1263.05571939 0 -1792.40044361 0 7147
0.08150000 0.08149960 25187.03849944 0 904.92971116 0 8261.21508889 0 -949.54385391 0 -1990.89909487 0 7386
0.08250000 0.08250610 24926.92984152 0 852.33021013 0 7773.25844065 0 -30.42810431 0 -2284.67350172 0 7227
0.08350000 0.08350160 23954.27633377 0 593.78063047 0 8316.08070510 0 693.00297854 0 -3117.97666237 0 7798
0.08450000 0.08449610 23404.49610652 0 549.23280756 0 5461.43876741 0 807.53958917 0 -3041.68636585 0 7371
0.08550000 0.08548940 22873.03813996 0 459.58749392 0 6235.49245805 0 640.10222807 0 -4887.44617849 0 8256
0.08650000 0.08650700 22348.32456383 0 476.49905294 0 4438.69692000 0 24.03172442 0 -4089.15764487 0 8037
0.08750000 0.08749060 22016.38814775 0 301.54506870 0 5709.81218596 0 1070.00541154 0 -3709.99925507 0 8155
0.08850000 0.08849210 21703.78565092 0 411.57193025 0 4762.64123342 0 1029.37495541 0 -1784.30717509 0 8718
0.08950000 0.08949900 21462.89850575 0 230.07813542 0 5024.64956131 0 457.47312751 0 -1502.88624338 0 8571
0.09050000 0.09049190 21412.42798397 0 320.35180144 0 5765.19487212 0 1857.91095607 0 1347.25943401 0 8932
0.09150000 0.09150830 20987.64379285 0 474.93885062 0 5592.17877607 0 1270.72184319 0 1191.08183276 0 9285
0.09250000 0.09250820 20784.97486017 0 622.62189212 0 5916.07812688 0 -241.98310861 0 2914.26234917 0 9204
0.09350000 0.09350330 19914.38646105 0 789.78722947 0 7346.36100719 0 -842.54634774 0 3496.47185378 0 9349
0.09450000 0.09448040 19575.81806104 0 721.09673691 0 6910.23499948 0 -736.16370515 0 2363.77396092 0 9564
0.09550000 0.09549270 19403.49888533 0 410.43774860 0 8068.11194998 0 -1585.40386040 0 3214.72494321 0 10155
0.09650000 0.09649430 19284.46039409 0 66.57399043 0 8183.45226713 0 -846.71438103 0 1361.15287832 0 9913
0.09750000 0.09749140 19367.30398998 0 -65.19206483 0 8835.76971035 0 -46.76830106 0 1472.07561973 0 10476
0.09850000 0.09850240 19131.81235716 0 -90.07594297 0 7912.01303328 0 491.26139955 0 -864.81857310 0 10575
0.09950000 0.09950330 19501.18014018 0 249.94148933 0 8683.29028318 0 633.05321600 0 -250.93516285 0 10882
0.10050000 0.10051200 18851.58293444 0 465.12126627 0 8369.81101560 0 331.38000387 0 -541.18674977 0 10875
0.10150000 0.10150300 18538.41840507 0 621.07405451 0 8313.73140910 0 393.34633916 0 -41.65099481 0 11118
0.10250000 0.10250800 18413.87199497 0 454.39993361 0 8636.31560378 0 304.87342539 0 1175.46856889 0 11575
0.10350000 0.10349800 17811.82274182 0 354.90668585 0 8815.45785448 0 427.20655136 0 1455.81039812 0 11364
0.10450000 0.10450100 18166.01564635 0 106.39073585 0 8358.18818274 0 731.57189933 0 2535.60978864 0 12093
0.10550000 0.10551000 17642.76335483 0 279.37513327 0 8926.95386908 0 643.78578932 0 1971.01438373 0 12067
0.10650000 0.10649700 17439.30757660 0 301.24157114 0 7694.86614246 0 808.22864105 0 2412.00759321 0 12054
0.10750000 0.10749900 17125.24379517 0 91.20484153 0 7216.40784409 0 1293.56284547 0 2130.01338832 0 12807
0.10850000 0.10850100 16715.74688904 0 272.60488933 0 5744.28726176 0 686.21362550 0 1093.98958800 0 12736
0.10950000 0.10950300 16606.60017044 0 11.69522265 0 5491.37262031 0 1270.76680579 0 364.80070663 0 12933
0.11050000 0.11050200 15785.13341502 0 111.46588966 0 3628.17855839 0 560.47907862 0 -486.82246657 0 13428
0.11150000 0.11150900 15954.30520852 0 141.45234880 0 3386.68441809 0 422.99580359 0 231.38991936 0 13453
0.11250000 0.11250000 15747.92686110 0 182.85840983 0 3002.56890131 0 148.20573176 0 -660.96037957 0 13668
0.11350000 0.11349100 15504.90399230 0 231.66081905 0 3101.07072367 0 7.65250013 0 -154.50948869 0 13791
0.11450000 0.11448600 15409.69568061 0 104.85852275 0 2868.10823727 0 135.10138114 0 -365.81011706 0 14205
0.11550000 0.11549300 15304.59559627 0 13.36311040 0 2997.98271581 0 766.55505253 0 129.47880764 0 14776
0.11650000 0.11649800 15212.42226028 0 146.57471334 0 2669.01383152 0 42.11793144 0 -288.48006036 0 14553
0.11750000 0.11747300 15179.59956015 0 350.48011760 0 2830.21600365 0 197.91413742 0 -207.65303721 0 14568
0.11850000 0.11849100 14694.22826158 0 407.17571175 0 2795.66224330 0 -544.81298369 0 -412.55885939 0 16015
0.11950000 0.11950300 14465.48101921 0 634.54147815 0 3257.29328753 0 -1110.04123725 0 -714.07470240 0 15270
0.12050000 0.12050700 14356.67152013 0 309.24716259 0 3810.73796692 0 -921.36579066 0 85.69062790 0 15999
0.12150000 0.12150000 14083.97333340 0 94.76902706 0 4213.98507124 0 -274.78107931 0 -744.04115319 0 15670
0.12250000 0.12250700 14130.73444044 0 -39.12701910 0 4300.09969649 0 117.18828013 0 263.33360061 0 16887
0.12350000 0.12352200 14198.74037736 0 -16.96371564 0 4461.00961170 0 672.15044737 0 -154.70620008 0 16407
0.12450000 0.12449800 14421.30526183 0 -53.91623086 0 4661.85755897 0 804.97222454 0 94.76228267 0 16306
0.12550000 0.12549900 14258.65304575 0 108.87964074 0 4489.69575237 0 397.59418107 0 178.01031717 0 17523
0.12650000 0.12650100 14179.63127112 0 214.15013334 0 4478.90472767 0 -18.40544151 0 733.64242719 0 17154
0.12750000 0.12750600 14057.10817815 0 294.18131841 0 4580.13802815 0 -299.74319239 0 873.89427450 0 18007
0.12850000 0.12850300 13851.51667628 0 320.42936193 0 5112.87742890 0 -327.12316944 0 1222.04982552 0 17496
0.12950000 0.12949900 13777.21597495 0 201.90007217 0 5377.92073248 0 -282.05265627 0 1012.33300483 0 18405
0.13050000 0.13049000 13765.52569819 0 108.00635458 0 5946.09066433 0 26.26097027 0 1228.51319969 0 18100
0.13150000 0.13148800 13764.51403962 0 97.55142534 0 5963.16521279 0 349.48419594 0 1878.42514366 0 19059
0.13250000 0.13249300 13425.38360707 0 270.59843318 0 5832.12170657 0 631.60654425 0 1459.20507464 0 18957
0.13350000 0.13349100 13260.14604132 0 326.57912195 0 5494.34015210 0 1004.44768835 0 1981.88409298 0 19468
0.13450000 0.13450700 12793.77144249 0 300.88973877 0 4909.24180025 0 966.92077588 0 1650.00388015 0 19953
0.13550000 0.13551000 12634.04179560 0 218.84984941 0 4626.33710266 0 897.01404492 0 1793.24349242 0 19956
0.13650000 0.13649900 12411.70172415 0 39.12578263 0 3420.68738655 0 404.67129477 0 1285.00871027 0 19723
0.13750000 0.13749600 12106.06843077 0 50.17039641 0 3367.72144031 0 254.99191370 0 651.77564386 0 20946
0.13850000 0.13851100 12132.48395999 0 182.60661926 0 2834.93707696 0 -348.91092276 0 150.81468679 0 20955
0.13950000 0.13949800 11988.94085015 0 185.98443480 0 3057.34459232 0 -599.38859112 0 -147.96518183 0 20506
0.14050000 0.14048300 11649.81041760 0 275.58028958 0 2952.67165272 0 -541.67122182 0 -487.67450790 0 21447
0.14150000 0.14148400 11512.11244614 0 223.42929051 0 3304.22300433 0 -283.23404866 0 -1098.11603089 0 21771
0.14250000 0.14249400 11404.76423166 0 209.18963417 0 3557.08144252 0 -126.54274967 0 -873.14339903 0 22470
0.14350000 0.14350900 11296.96639115 0 174.87417562 0 3419.05749219 0 73.60299414 0 -982.75548056 0 22519
0.14450000 0.14449900 11286.84980550 0 108.46913217 0 3749.49890173 0 357.62355114 0 -615.22891613 0 22218
0.14550000 0.14550500 11160.83087015 0 6.68635496 0 3213.69080334 0 710.43835189 0 -72.25962397 0 23559
0.14650000 0.14650700 11155.17682283 0 -155.83588547 0 3187.79234406 0 917.66761657 0 61.87202623 0 23044
0.14750000 0.14750500 11277.18284587 0 -211.48722318 0 2579.15606958 0 861.41377999 0 343.25462731 0 23649
0.14850000 0.14849900 11281.90391917 0 -75.66407986 0 2331.82803154 0 846.72000135 0 269.44289428 0 23640
0.14950000 0.14949500 11300.33858637 0 22.62338329 0 1948.16214079 0 151.47563706 0 382.88129333 0 24457
0.15050000 0.15050000 11319.78491214 0 187.74022444 0 1979.38866852 0 -387.02796938 0 262.01057602 0 24591
0.15150000 0.15149900 11126.22090655 0 188.61587114 0 2169.52427564 0 -447.61395276 0 714.06908208 0 25020
0.15250000 0.15250500 10979.82267143 0 313.93563801 0 2372.41802133 0 -764.44405833 0 216.43198543 0 25297
0.15350000 0.15350100 10864.74088925 0 255.59216445 0 2617.68902028 0 -429.20963532 0 636.34560260 0 25452
0.15450000 0.15450400 10674.33550651 0 349.45497025 0 2953.58214542 0 74.58081835 0 472.30853835 0 26061
0.15550000 0.15549900 10458.27895881 0 293.84522295 0 3026.30915565 0 248.87475157 0 889.44346665 0 26128
0.15650000 0.15649500 10126.70224355 0 269.36870599 0 2945.52259885 0 597.95878035 0 1137.09298730 0 26331
0.15750000 0.15749700 9993.74782670 0 214.76050067 0 2477.07972029 0 537.42787616 0 1195.72422151 0 27345
0.15850000 0.15849900 9717.39642848 0 191.49797398 0 2707.83903914 0 440.70320069 0 1377.37313732 0 26980
0.15950000 0.15949700 9532.35283615 0 170.30822329 0 2137.89308448 0 380.29706773 0 1357.52214813 0 27777
0.16050000 0.16050000 9321.78172601 0 158.59096897 0 2476.93359183 0 33.38203491 0 1265.83216012 0 28224
0.16150000 0.16150500 9228.31571518 0 135.81853465 0 2271.18472085 0 -151.12380469 0 875.67591764 0 28075
0.16250000 0.16249700 9170.26899480 0 57.35766849 0 2283.96534073 0 -47.68711185 0 667.98691034 0 28590
0.16350000 0.16349900 9154.19486426 0 53.66163012 0 2302.70350550 0 35.81091472 0 661.76521016 0 29163
0.16450000 0.16449100 9101.86963510 0 -11.86439444 0 1869.88224910 0 155.27497700 0 186.23622538 0 28996
0.16550000 0.16550500 9144.71899569 0 26.59998830 0 1946.48728383 0 12.18272967 0 71.68376544 0 30777
0.16650000 0.16650700 9096.72141707 0 135.36890862 0 1787.87046137 0 -74.00001392 0 -216.20717242 0 29211
0.16750000 0.16749900 9001.79412165 0 200.11955309 0 1977.14053838 0 -173.68041851 0 -40.33516424 0 30922
0.16850000 0.16850800 8787.19885854 0 183.43393115 0 1990.84289162 0 -197.30152196 0 -176.16685045 0 30867
0.16950000 0.16949900 8710.25660429 0 154.39933031 0 2326.91586717 0 -80.77048267 0 195.93128663 0 30852
0.17050000 0.17049200 8662.83229885 0 116.94548208 0 2277.42328200 0 18.67948857 0 -129.03705007 0 31257
0.17150000 0.17149500 8637.52959406 0 64.01685479 0 2450.85528213 0 11.77008538 0 194.17212479 0 32608
0.17250000 0.17250900 8626.64864415 0 123.97650911 0 2318.21560351 0 22.10710020 0 271.03906669 0 32361
0.17350000 0.17350400 8495.00938344 0 138.73885571 0 2471.29078516 0 163.66949497 0 268.30983669 0 32508
0.17450000 0.17449800 8275.94034134 0 202.92971578 0 2131.24985990 0 216.56462511 0 473.58660034 0 32791
0.17550000 0.17549800 8154.30525978 0 139.81458599 0 2082.75769264 0 334.54649519 0 303.65044259 0 33633
0.17650000 0.17650100 7969.23918615 0 144.96730028 0 1874.55835980 0 271.32120702 0 728.94383519 0 33984
0.17750000 0.17750300 7842.82682803 0 109.85229424 0 1866.86975470 0 338.64820864 0 233.32668348 0 34069
