### header ###
fiducial parameters:
Omega_m = 0.31
Omega_nu = 0
Omega_de = 0.69
Omega_k = 0
H_0 = 100
w_de = -1
zeff = 0
beta = 0
fgrowth = 0
b_1 = 2
gamma = 0.55
Lx = 3500 Ly = 3500 Lz = 3500
nx = 700 ny = 700 nz = 700
xoffset = 857.220397 yoffset = 15.9954215 zoffset = 262.898189
bins = 400 dk = 0.001
kx_ny = 0.628318531 ky_ny = 0.628318531 kz_ny = 0.628318531
############################
A(data) = 3.11282223 (not used)
A(ran) = 3.11315607 (used)
Ngal = 189456
weighted Ngal = 0
Nran = 9360983
weighted Nran = 0
SN(data) = 3443.15144
SN(ran) = 69.9097854
SN(data+ran) = 3513.06122
############################
13 columns: k_central k_mean P_0(k) sigma^{lin}_{P_0(k)} P^img_1(k) sigma^{lin}_{P_1(k)} P_2(k) sigma^{lin}_{P_2(k)} P^img_3(k) sigma^{lin}_{P_3(k)} P_4(k) sigma^{lin}_{P_4(k)} N_modes
### header ###
0.00050000 0 0 0 0 0 0 0 0 0 0 0 0
0.00150000 0.00179520 6053.59624792 0 -19434.86030087 0 -26511.97400110 0 28443.00539018 0 31322.63529444 0 3
0.00250000 0.00253879 10586.23128608 0 -18157.02312577 0 -8063.30095146 0 -39773.80614003 0 -34010.05007121 0 6
0.00350000 0.00331552 30919.32074622 0 -22878.32124580 0 -39842.93614203 0 10839.41570315 0 -19253.77341759 0 7
0.00450000 0.00420575 46313.39192231 0 -21821.25045106 0 -26078.08488288 0 -34565.00099780 0 -27709.77774300 0 24
0.00550000 0.00557378 65582.22781188 0 993.45208380 0 -24792.04203275 0 -74388.15359454 0 -31086.13200306 0 45
0.00650000 0.00659388 66839.83181566 0 131.06711159 0 25827.08115206 0 -79489.83533531 0 -40431.15939478 0 40
0.00750000 0.00754703 59644.69128276 0 7960.30286882 0 5666.25466438 0 -46499.42469191 0 -26824.23927841 0 57
0.00850000 0.00846663 60694.45565452 0 -1906.02094120 0 23592.43978674 0 -25273.25429055 0 -58372.69924604 0 75
0.00950000 0.00948925 59505.64443321 0 -5409.54068299 0 15507.71415498 0 -2523.11018503 0 -49413.00136138 0 112
0.01050000 0.01054430 58275.80483674 0 -2354.52290537 0 7449.13427682 0 12217.01365349 0 -57669.25932329 0 105
0.01150000 0.01145670 61876.18526587 0 -5525.29690422 0 -5885.00896826 0 5612.51311324 0 -42580.37181455 0 144
0.01250000 0.01249090 64009.43596160 0 -8821.51656522 0 -16323.22336552 0 1823.72813720 0 -36157.91361289 0 169
0.01350000 0.01339930 71320.58001005 0 -7322.41842113 0 -3214.09546677 0 -6639.23415101 0 -12279.39926504 0 180
0.01450000 0.01448870 77266.20980770 0 -6679.54312453 0 -16253.64373749 0 -16325.02186963 0 -7483.47446481 0 267
0.01550000 0.01550050 86864.26424737 0 -262.14321570 0 -1789.71392809 0 -14091.27975637 0 -5809.33690754 0 238
0.01650000 0.01653350 86155.76603180 0 -5053.71788410 0 -17986.61486069 0 13122.89769590 0 11234.79435196 0 315
0.01750000 0.01747870 89578.99380541 0 -6675.39532441 0 -15074.49947581 0 25355.19863437 0 7050.82181817 0 297
0.01850000 0.01844180 89292.01999225 0 -2184.36193460 0 -35324.08214166 0 12683.83787834 0 -1315.31350464 0 388
0.01950000 0.01947590 90001.64227290 0 -1143.84861839 0 -48935.16129880 0 -966.27781066 0 -36241.99368035 0 399
0.02050000 0.02045430 85463.22954026 0 8201.25745789 0 -47268.51001492 0 -28132.98824302 0 -20490.69462403 0 462
0.02150000 0.02154770 75290.66544173 0 12241.18105256 0 -31211.57766522 0 -37823.89045773 0 -22142.73306196 0 571
0.02250000 0.02255340 68838.86914166 0 4470.99130955 0 -9068.26008942 0 -21933.88177138 0 -5511.42594121 0 510
0.02350000 0.02348930 66692.46688458 0 1016.78430252 0 -3992.35316078 0 -8159.57712498 0 -12663.60470703 0 555
0.02450000 0.02439640 75551.78575821 0 -2387.33436485 0 10277.15835358 0 561.61663247 0 -10450.81516673 0 592
0.02550000 0.02547300 77292.73774343 0 -3194.72782556 0 15799.63385447 0 3436.14328131 0 -3615.99369300 0 837
0.02650000 0.02652900 83750.71640140 0 2351.40924511 0 34113.80127746 0 -9338.31672323 0 -3565.08478584 0 723
0.02750000 0.02749970 79106.64155189 0 4599.44946611 0 39062.72257479 0 -13011.84006667 0 18406.56557200 0 826
0.02850000 0.02848090 78042.26433417 0 7387.78280514 0 51840.64469975 0 -7176.13259252 0 1452.59557201 0 831
0.02950000 0.02946900 70150.54067546 0 5356.94567822 0 44111.57325712 0 3899.89880851 0 6662.88448014 0 996
0.03050000 0.03053250 66135.49264086 0 2419.17912837 0 44175.98218581 0 12779.72062908 0 -8124.25900038 0 1041
0.03150000 0.03150510 65217.80591518 0 1473.85164255 0 31957.73206074 0 13203.83038116 0 -16511.84148478 0 1036
0.03250000 0.03246190 60813.26933275 0 3888.09612525 0 25265.61064805 0 12822.09788233 0 -13312.75228674 0 1059
0.03350000 0.03345080 58362.24544086 0 2274.25341850 0 22531.77198376 0 6155.66135656 0 -13729.89283537 0 1302
0.03450000 0.03451200 55646.50422425 0 1762.17433380 0 21605.42995702 0 98.72135226 0 -349.56962489 0 1339
0.03550000 0.03553350 58083.36489622 0 -310.95236930 0 27118.29470153 0 -754.14087787 0 1416.28827015 0 1365
0.03650000 0.03647120 57728.94717867 0 -1402.32738194 0 27151.22980817 0 1051.61233475 0 7813.20771335 0 1308
0.03750000 0.03744890 58439.01908535 0 1061.38832869 0 31899.61789647 0 -872.52066698 0 9192.18826373 0 1579
0.03850000 0.03847530 58997.67942668 0 1808.57574001 0 35458.18310488 0 5106.91988401 0 7588.21484832 0 1662
0.03950000 0.03950240 57256.27781543 0 2184.36193460 0 33609.20846614 0 4061.37075627 0 8501.66384867 0 1683
0.04050000 0.04050350 52492.71484866 0 2858.93586627 0 26913.37763870 0 3045.22717083 0 -1442.64759612 0 1822
0.04150000 0.04152450 50671.16739770 0 1667.66294245 0 22819.86986200 0 1363.79443124 0 -3847.73094847 0 1887
0.04250000 0.04250150 48139.77285308 0 1643.75407835 0 16008.70995806 0 2298.16228260 0 -15289.98275032 0 1920
0.04350000 0.04349210 46199.29931739 0 1898.81568408 0 17190.10234989 0 1385.62377496 0 -12413.72504128 0 2005
0.04450000 0.04448520 45251.15042823 0 1360.35479212 0 14980.07800967 0 -2381.48922647 0 -15317.52234461 0 2151
0.04550000 0.04548030 44193.85482047 0 717.05347485 0 19355.05168068 0 -573.71944111 0 -8723.10466807 0 2274
0.04650000 0.04648670 45514.96850089 0 1599.75817138 0 19335.83016793 0 2773.74297438 0 -7030.08281757 0 2311
0.04750000 0.04749250 43411.95515562 0 1891.04839443 0 19984.75293463 0 2307.61566987 0 -2662.08959067 0 2568
0.04850000 0.04851840 42193.69342940 0 2421.25864876 0 19941.92605534 0 6369.75079038 0 667.84752627 0 2493
0.04950000 0.04949480 38937.72653866 0 1575.95047314 0 20377.38886466 0 5556.87189212 0 5347.27871859 0 2644
0.05050000 0.05050630 37959.56511205 0 470.28634528 0 14416.92140805 0 7136.10463527 0 7440.16423754 0 2829
0.05150000 0.05149060 37810.17686383 0 -568.64203918 0 12328.18368921 0 7924.16417672 0 5603.70044306 0 2784
0.05250000 0.05249300 37152.14917004 0 -76.51016364 0 5311.14002649 0 2838.24182827 0 3879.02492011 0 3055
0.05350000 0.05348950 37142.14499089 0 -631.64701059 0 7577.17652930 0 2583.10153798 0 3724.11751238 0 3009
0.05450000 0.05448610 36312.58496694 0 717.03886200 0 3930.76563542 0 -963.93188685 0 5722.18814242 0 3336
0.05550000 0.05550870 36191.07353254 0 -169.78665710 0 5649.89951757 0 865.38397783 0 5268.17825940 0 3349
0.05650000 0.05647670 36063.04252072 0 351.31529795 0 5785.84394751 0 -843.55013785 0 4982.67697148 0 3324
0.05750000 0.05747970 36133.85862032 0 1150.42439906 0 5522.52046349 0 1788.48869716 0 3586.44202223 0 3639
0.05850000 0.05849280 34982.36635944 0 695.43433129 0 7004.92624124 0 -1042.64566766 0 2645.97049752 0 3846
0.05950000 0.05951020 34220.25023988 0 1343.68490708 0 6890.60882330 0 -1960.14467447 0 2190.04970387 0 3787
0.06050000 0.06049470 33655.51994715 0 550.93014582 0 10008.59672632 0 -2714.83072390 0 840.57923386 0 3930
0.06150000 0.06148310 33499.94934104 0 974.85555123 0 11592.82031839 0 -3748.84694399 0 -2068.40338166 0 4083
0.06250000 0.06249100 33321.22299441 0 562.70023120 0 13088.95093069 0 -3166.27773856 0 -4234.22948321 0 4303
0.06350000 0.06350600 33186.89721818 0 968.95083740 0 14140.17658705 0 -1401.96768112 0 -2623.39927085 0 4470
0.06450000 0.06451750 32454.23160353 0 574.97277367 0 15570.88661209 0 -1155.02182521 0 -4246.05464778 0 4479
0.06550000 0.06550280 32501.55474311 0 1014.83629775 0 16211.60370376 0 2063.86215877 0 -513.66064426 0 4636
0.06650000 0.06648880 30760.71516440 0 1218.31792948 0 13966.84575278 0 2359.72732666 0 -1358.54504735 0 4653
0.06750000 0.06749660 29778.16988401 0 1008.61909383 0 14538.77006197 0 1408.62214635 0 -220.78773759 0 5220
0.06850000 0.06852730 28485.71986296 0 960.04374576 0 11851.69250473 0 1125.26782273 0 -1285.16607938 0 5029
0.06950000 0.06949320 28409.84547052 0 440.09957775 0 13385.81651649 0 840.79505435 0 -433.82279838 0 5040
0.07050000 0.07048030 27806.22252627 0 -30.06064744 0 11074.35654408 0 -90.86616072 0 -879.45727254 0 5475
0.07150000 0.07148790 28291.70623134 0 -497.46961095 0 11510.65116155 0 535.25730651 0 -1254.65895329 0 5509
0.07250000 0.07249820 29034.48843164 0 -224.20264729 0 10753.68326002 0 1011.44049717 0 -698.27709186 0 5916
0.07350000 0.07351270 29354.39735145 0 -103.18310376 0 11961.96328840 0 2404.85853934 0 326.48470048 0 5721
0.07450000 0.07449140 28666.80674623 0 520.66132153 0 8713.15669218 0 2139.45553493 0 -109.13131891 0 6028
0.07550000 0.07549160 28021.48098777 0 919.14913434 0 9222.60546461 0 2431.48764092 0 1155.51641384 0 6183
0.07650000 0.07648840 27294.09847896 0 769.68782189 0 6580.38934443 0 1205.96445433 0 -564.16488799 0 6330
0.07750000 0.07749960 26229.04682220 0 410.07579964 0 6913.84324836 0 1067.47289293 0 583.68090579 0 6583
0.07850000 0.07848650 26584.70101133 0 -256.01818511 0 5551.16164155 0 -882.91264858 0 -621.36855956 0 6549
0.07950000 0.07947320 26468.58508928 0 -317.10437745 0 5614.50270842 0 -280.29012224 0 -1446.80663689 0 6828
0.08050000 0.08048110 26638.43132182 0 333.69332980 0 4912.92873369 0 -674.42892727 0 -3505.77911258 0 7147
0.08150000 0.08149960 26622.58200429 0 480.04547825 0 5284.01633628 0 -560.72075261 0 -2533.49654631 0 7386
0.08250000 0.08250610 25690.73205869 0 485.00710148 0 5037.11544297 0 291.79043200 0 -2758.56809589 0 7227
0.08350000 0.08350160 25520.21138711 0 635.80155510 0 6143.01562449 0 1218.87996202 0 -2616.26145764 0 7798
0.08450000 0.08449610 25002.24220142 0 767.09123157 0 6585.86354134 0 593.15452623 0 -417.02814212 0 7371
0.08550000 0.08548940 24220.67975610 0 1088.25348394 0 6695.01025993 0 812.94296997 0 -3080.57901738 0 8256
0.08650000 0.08650700 22928.90417409 0 1458.85661447 0 7868.87141577 0 -267.81299993 0 1086.73374796 0 8037
0.08750000 0.08749060 21386.91170681 0 1277.06157020 0 6913.86572967 0 -451.77074540 0 -1597.82477946 0 8155
0.08850000 0.08849210 21120.28347147 0 791.00121974 0 8457.89275473 0 -303.28174924 0 1218.14931972 0 8718
0.08950000 0.08949900 20495.07847782 0 -82.92936205 0 7095.82938370 0 401.61046558 0 -1278.02826616 0 8571
0.09050000 0.09049190 20845.67437412 0 -323.51492056 0 8547.37957519 0 -572.88875703 0 -1097.80803706 0 8932
0.09150000 0.09150830 21399.05160960 0 -305.69736508 0 7072.16781391 0 -280.66331184 0 -1908.37023720 0 9285
0.09250000 0.09250820 21226.73243390 0 61.21253725 0 8521.16637769 0 331.37213542 0 -2244.80291358 0 9204
0.09350000 0.09350330 21579.23924082 0 217.46275311 0 6907.36863354 0 -17.85656053 0 -628.22985277 0 9349
0.09450000 0.09448040 21053.85122565 0 264.92415269 0 7828.97834633 0 1341.36933303 0 -960.06510300 0 9564
0.09550000 0.09549270 20792.84331568 0 375.40963279 0 7285.96499081 0 1165.45314909 0 578.55067280 0 10155
0.09650000 0.09649430 20439.21244368 0 326.55776471 0 6131.29162577 0 2223.42319589 0 -358.68129637 0 9913
0.09750000 0.09749140 19964.74457633 0 264.42057154 0 5254.59955331 0 1873.94012401 0 2005.56814407 0 10476
0.09850000 0.09850240 19587.62074430 0 221.72858006 0 4209.32020119 0 1363.90683775 0 1393.53719307 0 10575
0.09950000 0.09950330 18964.10184826 0 350.60488882 0 3326.47949277 0 744.94827370 0 1217.63224978 0 10882
0.10050000 0.10051200 18944.54311598 0 614.49939790 0 2955.84151622 0 -198.89207403 0 1791.90585498 0 10875
0.10150000 0.10150300 18223.11815207 0 627.06307322 0 2932.93307003 0 -817.25151140 0 1540.08155665 0 11118
0.10250000 0.10250800 17795.86101778 0 770.63653282 0 4713.48586777 0 -1262.69601856 0 2744.16882231 0 11575
0.10350000 0.10349800 17344.88611046 0 610.48873372 0 4478.08416016 0 -706.92115228 0 1526.80634814 0 11364
0.10450000 0.10450100 16852.99523447 0 517.83879414 0 5659.49903329 0 -302.75905898 0 2333.04202182 0 12093
0.10550000 0.10551000 16728.22401135 0 186.98934898 0 5347.07638688 0 348.39947315 0 1943.67712115 0 12067
0.10650000 0.10649700 16498.01548438 0 -24.52013069 0 5712.42001693 0 1286.30138510 0 2923.34479496 0 12054
0.10750000 0.10749900 16336.59973989 0 -103.35474850 0 4419.83510808 0 1186.20339034 0 1101.19709325 0 12807
0.10850000 0.10850100 16412.58653883 0 -8.11525524 0 3662.05787970 0 1108.03815329 0 1091.57172403 0 12736
0.10950000 0.10950300 16124.03903456 0 113.57216279 0 2886.49794186 0 691.12803800 0 207.74970681 0 12933
0.11050000 0.11050200 15830.54564398 0 307.76564482 0 2526.85332172 0 303.60210779 0 -92.18041760 0 13428
0.11150000 0.11150900 15584.26298646 0 265.06353676 0 1978.89407989 0 190.61783103 0 550.91553298 0 13453
0.11250000 0.11250000 15316.96031208 0 116.87466598 0 2304.55821287 0 146.96476392 0 -132.30358317 0 13668
0.11350000 0.11349100 15732.63957611 0 14.33767482 0 2228.14426920 0 255.76189828 0 1541.13817782 0 13791
0.11450000 0.11448600 15474.21701580 0 38.78148149 0 2989.14756434 0 63.94424019 0 853.68920481 0 14205
0.11550000 0.11549300 15790.86614690 0 248.59485937 0 2999.94982969 0 -650.82018854 0 2162.82484780 0 14776
0.11650000 0.11649800 15254.01266798 0 415.49379329 0 3944.97381795 0 -640.74182110 0 1740.26630552 0 14553
0.11750000 0.11747300 15332.36000358 0 485.92883484 0 4150.63276372 0 -1025.75996213 0 1998.21675850 0 14568
0.11850000 0.11849100 14936.46428483 0 248.29698213 0 4757.93140076 0 -496.53101661 0 2065.98664175 0 16015
0.11950000 0.11950300 14616.89258455 0 20.77721881 0 4826.56681413 0 447.82078073 0 1047.59605024 0 15270
0.12050000 0.12050700 14637.68778840 0 106.07723410 0 4250.89936824 0 737.55866991 0 1575.75938207 0 15999
0.12150000 0.12150000 14202.78701162 0 155.06028057 0 3707.87477208 0 1082.75680573 0 -72.11900343 0 15670
0.12250000 0.12250700 14291.36333938 0 326.50156146 0 3149.54040962 0 986.57168149 0 2189.12797051 0 16887
0.12350000 0.12352200 13666.49556525 0 380.78828416 0 3185.96011799 0 371.11458014 0 321.10380098 0 16407
0.12450000 0.12449800 13615.57541743 0 317.71137259 0 3104.99371077 0 -167.57224890 0 2320.74474992 0 16306
0.12550000 0.12549900 13240.92452857 0 103.22593064 0 3200.20202246 0 -185.87202829 0 1090.06435277 0 17523
0.12650000 0.12650100 13425.38360707 0 -60.05654873 0 3306.02150844 0 -681.82639952 0 1482.03483628 0 17154
0.12750000 0.12750600 13718.87699765 0 -73.96932695 0 3837.50195631 0 -215.54509809 0 1202.73838757 0 18007
0.12850000 0.12850300 13628.83938530 0 25.58675604 0 3858.48825122 0 -376.60563803 0 313.96598776 0 17496
0.12950000 0.12949900 13706.84950137 0 253.40248569 0 4382.41498179 0 -374.81050610 0 1001.50151379 0 18405
0.13050000 0.13049000 13500.92077998 0 251.21168286 0 4694.36552088 0 -162.61174973 0 994.28951228 0 18100
0.13150000 0.13148800 13342.98963721 0 220.22795319 0 4670.08571530 0 258.23259331 0 1196.39866055 0 19059
0.13250000 0.13249300 13113.90517531 0 263.32348402 0 4746.67950938 0 191.23943902 0 251.89848662 0 18957
0.13350000 0.13349100 12942.82247119 0 326.06317608 0 4640.97242991 0 -1.83845339 0 25.84450416 0 19468
0.13450000 0.13450700 12665.29080464 0 321.28027919 0 4791.40605864 0 -81.40771516 0 -471.29800385 0 19953
0.13550000 0.13551000 12307.38848536 0 288.08776165 0 4630.37249627 0 -382.05173331 0 -642.52796050 0 19956
0.13650000 0.13649900 12191.94700235 0 23.74441338 0 4266.78240772 0 -97.71081776 0 -1566.81182409 0 19723
0.13750000 0.13749600 12087.52135706 0 -77.74202655 0 3700.00631657 0 384.07055418 0 -2428.52010913 0 20946
0.13850000 0.13851100 12255.11945946 0 -76.35020918 0 3450.80108986 0 560.70389163 0 -2491.60264103 0 20955
0.13950000 0.13949800 12229.60318230 0 -69.37830797 0 2817.81756590 0 742.16284045 0 -2401.59875063 0 20506
0.14050000 0.14048300 12320.09042069 0 84.21855228 0 2394.58458457 0 596.59528942 0 -1996.18220071 0 21447
0.14150000 0.14148400 12143.27498469 0 268.39189344 0 2191.87068929 0 905.98858046 0 -1336.94051664 0 21771
0.14250000 0.14249400 11826.40104058 0 394.33664049 0 2053.48703814 0 499.54126288 0 -760.77735806 0 22470
0.14350000 0.14350900 11509.18987695 0 418.60857761 0 2156.73241510 0 507.43444782 0 490.69599482 0 22519
0.14450000 0.14449900 11357.89071812 0 385.83084008 0 2191.55595107 0 171.20410315 0 671.76489305 0 22218
0.14550000 0.14550500 11040.75823904 0 336.16627296 0 2791.62684969 0 -90.99171879 0 2043.89876307 0 23559
0.14650000 0.14650700 10896.92287229 0 120.82350658 0 2950.86190795 0 -177.24482886 0 1826.15611776 0 23044
0.14750000 0.14750500 10849.43112295 0 59.88040773 0 3293.70175524 0 -316.28830620 0 2524.44782247 0 23649
0.14850000 0.14849900 10912.90707763 0 -78.96658304 0 3464.37979594 0 -100.99331259 0 2032.70307494 0 23640
0.14950000 0.14949500 10898.85626421 0 62.87221933 0 3705.37934761 0 -169.54947937 0 1910.60712670 0 24457
0.15050000 0.15050000 10985.92634478 0 78.22357603 0 3747.66667566 0 -155.23900692 0 1388.20912463 0 24591
0.15150000 0.15149900 10677.35924156 0 215.03814474 0 3559.48694178 0 -44.55344324 0 1008.07954260 0 25020
0.15250000 0.15250500 10652.64105060 0 155.60320400 0 3493.65045045 0 175.49241141 0 645.01214431 0 25297
0.15350000 0.15350100 10387.84504133 0 134.16278680 0 3232.20415509 0 -84.33556746 0 268.35479929 0 25452
0.15450000 0.15450400 10417.28430560 0 103.58405777 0 3220.36774987 0 325.53374143 0 347.62386825 0 26061
0.15550000 0.15549900 10224.54086751 0 99.48099544 0 3089.85255424 0 135.47007448 0 71.51560530 0 26128
0.15650000 0.15649500 10178.25186780 0 107.96903562 0 2959.38232120 0 6.32660917 0 422.11566064 0 26331
0.15750000 0.15749700 10158.27723145 0 58.11933498 0 3177.57459254 0 246.77387395 0 292.95159122 0 27345
0.15850000 0.15849900 10036.34989297 0 223.64286288 0 3044.97987652 0 264.84771626 0 728.98767373 0 26980
0.15950000 0.15949700 9809.08641650 0 142.99119388 0 2783.64598767 0 408.15477243 0 708.69380290 0 27777
0.16050000 0.16050000 9616.91625160 0 159.24629891 0 2768.28001812 0 544.87817947 0 923.89606114 0 28224
0.16150000 0.16150500 9618.42249880 0 119.05422815 0 2608.05578260 0 480.37820151 0 928.01126337 0 28075
0.16250000 0.16249700 9476.66665243 0 109.28666470 0 2292.67684505 0 356.90302542 0 811.63568229 0 28590
0.16350000 0.16349900 9369.17230949 0 106.77134429 0 2277.04109988 0 -196.01671558 0 1123.16132478 0 29163
0.16450000 0.16449100 9313.11518429 0 267.23747861 0 2465.63673784 0 -216.56237698 0 1471.77212216 0 28996
0.16550000 0.16550500 9101.10527085 0 176.26914037 0 2902.83060737 0 -239.57086496 0 1653.76949815 0 30777
0.16650000 0.16650700 9176.88973808 0 213.79492877 0 3133.76977664 0 -309.95307545 0 1791.34382244 0 29211
0.16750000 0.16749900 9052.30960603 0 85.77875461 0 3395.29475655 0 -110.87103442 0 1776.21390656 0 30922
0.16850000 0.16850800 8970.74744433 0 141.42087498 0 3340.78884115 0 -170.07666589 0 1569.04871359 0 30867
0.16950000 0.16949900 8980.62797632 0 144.94144679 0 3559.85788325 0 -178.18005100 0 1275.69021081 0 30852
0.17050000 0.17049200 8820.89832943 0 137.41920332 0 3292.58893082 0 -130.07006587 0 757.40628690 0 31257
0.17150000 0.17149500 8667.89059168 0 161.01894953 0 3080.43288892 0 -164.51366784 0 237.64983775 0 32608
0.17250000 0.17250900 8517.19842798 0 100.73826223 0 3125.40673250 0 65.92911429 0 115.15035015 0 32361
0.17350000 0.17350400 8457.98267993 0 101.07615619 0 3083.23181096 0 -7.97696151 0 -116.32387409 0 32508
0.17450000 0.17449800 8285.59606032 0 72.55120645 0 2935.63082621 0 179.50757185 0 -269.08768972 0 32791
0.17550000 0.17549800 8334.09946823 0 110.67286175 0 3167.35684103 0 161.72935865 0 141.90534702 0 33633
0.17650000 0.17650100 8151.42765320 0 73.22553309 0 2971.29741098 0 329.87937700 0 452.63065518 0 33984
0.17750000 0.17750300 8222.42360321 0 104.30368423 0 3028.43363864 0 464.73233976 0 748.45760486 0 34069
