### header ###
fiducial parameters:
Omega_m = 0.31
Omega_nu = 0
Omega_de = 0.69
Omega_k = 0
H_0 = 100
w_de = -1
zeff = 0
beta = 0
fgrowth = 0
b_1 = 2
gamma = 0.55
Lx = 3500 Ly = 3500 Lz = 3500
nx = 700 ny = 700 nz = 700
xoffset = 857.220397 yoffset = 15.9954215 zoffset = 262.898189
bins = 400 dk = 0.001
kx_ny = 0.628318531 ky_ny = 0.628318531 kz_ny = 0.628318531
############################
A(data) = 3.06757728 (not used)
A(ran) = 3.06386642 (used)
Ngal = 187016
weighted Ngal = 0
Nran = 9360983
weighted Nran = 0
SN(data) = 3457.22531
SN(ran) = 68.8029253
SN(data+ran) = 3526.02823
############################
13 columns: k_central k_mean P_0(k) sigma^{lin}_{P_0(k)} P^img_1(k) sigma^{lin}_{P_1(k)} P_2(k) sigma^{lin}_{P_2(k)} P^img_3(k) sigma^{lin}_{P_3(k)} P_4(k) sigma^{lin}_{P_4(k)} N_modes
### header ###
0.00050000 0 0 0 0 0 0 0 0 0 0 0 0
0.00150000 0.00179520 2397.32730335 0 -8213.39736068 0 -10781.42518603 0 23007.02669667 0 -20116.94298723 0 3
0.00250000 0.00253879 5322.02097640 0 -10360.37289095 0 -9664.84638631 0 -3193.01924665 0 -8262.82250194 0 6
0.00350000 0.00331552 10437.41631106 0 -13244.29672379 0 -22470.84765680 0 25249.31170449 0 19351.34226594 0 7
0.00450000 0.00420575 16994.62743368 0 -18956.23339274 0 -31977.06598000 0 19927.31320939 0 -2878.15737902 0 24
0.00550000 0.00557378 34782.39518294 0 -25578.55036440 0 -51888.97949789 0 23683.48905766 0 6921.99272014 0 45
0.00650000 0.00659388 54649.68331743 0 -32582.03780234 0 -60994.69343555 0 3053.07314504 0 -2668.02465425 0 40
0.00750000 0.00754703 73296.23678253 0 -26944.17702171 0 -73178.43476287 0 -213.22839998 0 16443.16110882 0 57
0.00850000 0.00846663 90986.66049646 0 -21157.37761889 0 -60274.39253671 0 -30958.21339774 0 4595.96486438 0 75
0.00950000 0.00948925 103101.94626083 0 -8228.66216437 0 -53048.45262080 0 -47124.62968556 0 9148.93423971 0 112
0.01050000 0.01054430 110933.75725114 0 3277.24544257 0 -47318.64331718 0 -43476.47649082 0 -11383.29458877 0 105
0.01150000 0.01145670 107578.42300794 0 12674.84535776 0 -13458.20630720 0 -57136.34007214 0 -19912.58795694 0 144
0.01250000 0.01249090 100363.94855577 0 12935.51604821 0 -2753.02645508 0 -39388.58903948 0 -33442.05998977 0 169
0.01350000 0.01339930 90884.03335528 0 9019.16092703 0 33417.66777769 0 -39686.69109687 0 -28768.87185487 0 180
0.01450000 0.01448870 95228.43245630 0 1324.87929841 0 37224.20174123 0 -8303.32256652 0 -43964.99517159 0 267
0.01550000 0.01550050 91245.30786978 0 3690.99131468 0 59486.08570094 0 708.87365331 0 -40227.81602306 0 238
0.01650000 0.01653350 99957.37421883 0 4294.33324266 0 56868.36295871 0 4258.55425139 0 -41605.47017665 0 315
0.01750000 0.01747870 98428.98293894 0 4817.76538460 0 67816.86917720 0 8807.58939897 0 -24407.49937124 0 297
0.01850000 0.01844180 89510.31342945 0 14446.82153899 0 62956.86142715 0 11252.11619474 0 -3876.88919647 0 388
0.01950000 0.01947590 89019.09699250 0 2313.88795297 0 65401.59055463 0 22407.22557367 0 -4266.69248252 0 399
0.02050000 0.02045430 82300.11042456 0 -977.94673018 0 43881.70194967 0 30089.42350275 0 11405.88829674 0 462
0.02150000 0.02154770 87955.61902684 0 -6055.75445286 0 33759.04634039 0 31786.64935662 0 1948.02725298 0 571
0.02250000 0.02255340 84313.76059651 0 -5555.05090670 0 19610.43926529 0 11481.08825013 0 -891.37798264 0 510
0.02350000 0.02348930 87659.76509961 0 237.39017872 0 23679.21761038 0 6024.79770075 0 1515.58817871 0 555
0.02450000 0.02439640 91686.95303700 0 2930.94347485 0 7388.16498726 0 -2769.32539864 0 -1439.53393586 0 592
0.02550000 0.02547300 83682.26083844 0 5422.70348499 0 22315.05223767 0 -10996.22278085 0 2787.88371300 0 837
0.02650000 0.02652900 81380.40038175 0 7043.39174804 0 21828.66928054 0 -13037.35634383 0 -10083.35829433 0 723
0.02750000 0.02749970 70586.45311081 0 6546.40885727 0 26724.42229992 0 -1120.96827382 0 -9436.03170003 0 826
0.02850000 0.02848090 69464.63616786 0 5760.20402319 0 28873.52231317 0 -11532.79524349 0 -17449.98619479 0 831
0.02950000 0.02946900 66312.53288987 0 4813.64006579 0 28775.84105832 0 -5112.89991020 0 -19293.34050817 0 996
0.03050000 0.03053250 64523.80813905 0 2662.06710937 0 31465.50396523 0 -4489.54962391 0 -28125.11978751 0 1041
0.03150000 0.03150510 59122.90027582 0 2464.83865164 0 28915.00031437 0 -1928.43479876 0 -32187.94058772 0 1036
0.03250000 0.03246190 59654.58305540 0 1442.84992783 0 30259.38214180 0 -86.21298094 0 -25174.11175110 0 1059
0.03350000 0.03345080 60120.62043471 0 2153.22533208 0 31419.19248422 0 1808.82303433 0 -35318.01219027 0 1302
0.03450000 0.03451200 57305.84908516 0 1039.74445571 0 29177.69432196 0 7927.53637194 0 -24661.87529729 0 1339
0.03550000 0.03553350 57121.83963269 0 915.94330075 0 29776.93341242 0 8626.73856936 0 -19673.04968986 0 1365
0.03650000 0.03647120 54700.71587174 0 1323.93508375 0 27234.07340406 0 4768.96971978 0 -13861.52085543 0 1308
0.03750000 0.03744890 54024.14110425 0 1500.18848721 0 29160.15890682 0 8000.29710412 0 -6981.44452186 0 1579
0.03850000 0.03847530 51981.04042738 0 2296.47618499 0 27740.46471949 0 6378.24872233 0 -3344.02614857 0 1662
0.03950000 0.03950240 50699.04421151 0 1879.06586075 0 26310.76635302 0 1913.96808127 0 -1118.12551325 0 1683
0.04050000 0.04050350 48970.90656813 0 1464.36453333 0 27786.21416797 0 -789.81420703 0 -1742.60436087 0 1822
0.04150000 0.04152450 49005.41536587 0 1281.87256871 0 31454.15090800 0 -2521.04190530 0 499.12648286 0 1887
0.04250000 0.04250150 48160.79286995 0 865.76728402 0 29507.27020139 0 -945.56691169 0 -4089.86580587 0 1920
0.04350000 0.04349210 47331.57006552 0 1133.67582947 0 27383.01202625 0 2536.76757567 0 -20.24486159 0 2005
0.04450000 0.04448520 45576.79207991 0 1188.00189446 0 22141.49659038 0 4992.06291484 0 -8356.09742171 0 2151
0.04550000 0.04548030 44965.41308665 0 758.48988564 0 18966.79960443 0 8639.66531770 0 -1898.83816538 0 2274
0.04650000 0.04648670 42292.38634282 0 793.65850958 0 14088.01996766 0 6588.99968289 0 -7571.79225760 0 2311
0.04750000 0.04749250 42156.14965596 0 -120.57621226 0 7670.87859380 0 6764.25266844 0 -7193.91530198 0 2568
0.04850000 0.04851840 41278.81686640 0 -496.82214946 0 6109.01265603 0 3472.61919293 0 -5880.09680389 0 2493
0.04950000 0.04949480 41366.38153560 0 116.18224189 0 5371.98566890 0 1027.64164706 0 -3821.01192168 0 2644
0.05050000 0.05050630 40814.01595868 0 612.00959376 0 6861.95640459 0 1456.10265504 0 2265.22717596 0 2829
0.05150000 0.05149060 40857.74209002 0 1222.07230682 0 6910.35864664 0 524.53147758 0 4185.46754034 0 2784
0.05250000 0.05249300 40224.33142133 0 1296.84511549 0 9477.73451425 0 1664.33570983 0 7714.37991212 0 3055
0.05350000 0.05348950 39100.71597426 0 1636.51509927 0 9673.83890690 0 -154.68147064 0 8001.70218546 0 3009
0.05450000 0.05448610 37785.33502572 0 1116.35286263 0 9195.49301504 0 3243.11882695 0 8933.73198147 0 3336
0.05550000 0.05550870 37260.95866912 0 870.52432741 0 9390.32721416 0 672.21564314 0 7204.44779171 0 3349
0.05650000 0.05647670 36094.62874927 0 478.90567626 0 5728.96625481 0 285.57322808 0 1694.05599037 0 3324
0.05750000 0.05747970 35460.76845455 0 550.64800549 0 8491.38989390 0 -2680.81651479 0 47.32156589 0 3639
0.05850000 0.05849280 34821.40024097 0 376.22570403 0 4749.62455987 0 -1723.83247415 0 -4792.13670094 0 3846
0.05950000 0.05951020 35546.08499360 0 347.18098661 0 7587.87762880 0 -1358.99467338 0 -618.76634892 0 3787
0.06050000 0.06049470 34105.48319591 0 587.87928884 0 5856.61508451 0 -1374.33816162 0 -5860.57179357 0 3930
0.06150000 0.06148310 35341.39274379 0 -719.54327898 0 6813.99254792 0 1328.00419931 0 -1790.02866631 0 4083
0.06250000 0.06249100 35519.55705787 0 826.00010986 0 7856.12451784 0 -997.73814392 0 -3746.41896343 0 4303
0.06350000 0.06350600 34000.15829857 0 903.85398089 0 11044.84983591 0 -342.89829868 0 -1344.52795589 0 4470
0.06450000 0.06451750 33864.59605075 0 1535.93375653 0 11599.00267630 0 -2486.13968478 0 2418.30235761 0 4479
0.06550000 0.06550280 33465.55294980 0 526.81332968 0 14602.50455162 0 523.87614764 0 5406.15724712 0 4636
0.06650000 0.06648880 33239.61587011 0 695.42084251 0 14147.14579050 0 2000.58853580 0 4613.75881449 0 4653
0.06750000 0.06749660 32453.33235147 0 667.17870755 0 15741.85690971 0 1723.91115871 0 5514.66324862 0 5220
0.06850000 0.06852730 32279.43948467 0 614.67362799 0 13423.47269644 0 2636.92177368 0 6098.14294677 0 5029
0.06950000 0.06949320 30945.51146242 0 728.83030462 0 13885.68825450 0 1202.60349976 0 4057.50397241 0 5040
0.07050000 0.07048030 30874.80776932 0 470.05478788 0 12279.28685853 0 886.41073908 0 7178.27955681 0 5475
0.07150000 0.07148790 29931.26754696 0 -133.37818938 0 9804.78124727 0 3009.03227548 0 2206.04514986 0 5509
0.07250000 0.07249820 29959.36917379 0 392.36053409 0 10040.09302967 0 2282.71762850 0 5264.39016010 0 5916
0.07350000 0.07351270 29062.02802593 0 371.72607154 0 7558.48332714 0 1654.74743476 0 877.08774337 0 5721
0.07450000 0.07449140 28212.23483067 0 1212.47279110 0 8024.20596822 0 570.93962819 0 2766.49275466 0 6028
0.07550000 0.07549160 27438.76565387 0 1168.00477681 0 7707.84909405 0 -216.06441616 0 2671.73406900 0 6183
0.07650000 0.07648840 26327.62732911 0 602.21111852 0 7531.26971172 0 -546.31698276 0 2529.73092831 0 6330
0.07750000 0.07749960 25997.82663667 0 259.11948065 0 8614.29516900 0 -141.04880944 0 3082.93955404 0 6583
0.07850000 0.07848650 26030.19971077 0 181.74558541 0 7563.12571589 0 372.91196020 0 2576.67188576 0 6549
0.07950000 0.07947320 26396.64492460 0 303.67517202 0 8317.73308076 0 870.96383685 0 2920.30981926 0 6828
0.08050000 0.08048110 25635.54046361 0 437.45352856 0 8016.37123466 0 -151.88254861 0 1434.55432759 0 7147
0.08150000 0.08149960 25288.87879506 0 982.15410575 0 8299.20848836 0 -556.86745754 0 1949.29744651 0 7386
0.08250000 0.08250610 24501.24639834 0 774.62921195 0 7618.94678742 0 -467.52564146 0 140.52049885 0 7227
0.08350000 0.08350160 24067.91931266 0 518.10294943 0 8583.31593558 0 135.58023286 0 551.50566714 0 7798
0.08450000 0.08449610 23442.93913202 0 196.28087087 0 7504.92162640 0 819.54572821 0 561.38057881 0 7371
0.08550000 0.08548940 23504.20067850 0 -33.09067725 0 7526.54863841 0 1056.90892937 0 -867.35558797 0 8256
0.08650000 0.08650700 23047.94266533 0 43.70870833 0 6454.48281559 0 681.89946375 0 -787.41545216 0 8037
0.08750000 0.08749060 23178.44662032 0 619.27330227 0 6670.50564134 0 543.97555522 0 -499.85600110 0 8155
0.08850000 0.08849210 21867.78674508 0 774.05593877 0 5412.82295300 0 450.71412423 0 415.94004713 0 8718
0.08950000 0.08949900 21603.96867243 0 907.33521042 0 6662.27748500 0 145.74852551 0 -36.84955085 0 8571
0.09050000 0.09049190 20667.51006003 0 741.69185718 0 6022.22359173 0 189.53310824 0 872.39477169 0 8932
0.09150000 0.09150830 20345.57782309 0 355.80706198 0 6573.43138163 0 744.34240263 0 1579.03041144 0 9285
0.09250000 0.09250820 19974.74875548 0 266.02348833 0 5991.10947051 0 1006.21471864 0 1624.18410542 0 9204
0.09350000 0.09350330 19898.76195654 0 31.90321490 0 6179.99736539 0 1200.22048180 0 1958.68338988 0 9349
0.09450000 0.09448040 19614.48589955 0 105.14021346 0 6247.36258522 0 726.85981854 0 1412.05054483 0 9564
0.09550000 0.09549270 19541.08445028 0 281.13541917 0 5316.56926079 0 150.03683376 0 1319.91093079 0 10155
0.09650000 0.09649430 19129.45182051 0 238.83572641 0 5187.30177739 0 163.73581481 0 1417.78327670 0 9913
0.09750000 0.09749140 19045.93378558 0 221.78253518 0 5229.51042088 0 209.03676132 0 2829.44039875 0 10476
0.09850000 0.09850240 18695.78751531 0 178.22501360 0 4457.51376933 0 221.73644851 0 1757.37457593 0 10575
0.09950000 0.09950330 18858.77695091 0 382.92288374 0 4724.56914939 0 286.45899136 0 2356.54622250 0 10882
0.10050000 0.10051200 18450.29170334 0 567.81697542 0 5072.39984561 0 -216.37240999 0 2209.85573046 0 10875
0.10150000 0.10150300 17952.78050199 0 453.16683422 0 4830.16382236 0 579.61965868 0 1953.07430516 0 11118
0.10250000 0.10250800 17840.48640119 0 189.21387375 0 4880.93784171 0 156.28326337 0 3344.68934696 0 11575
0.10350000 0.10349800 17550.36520582 0 63.27249890 0 5540.46054205 0 151.63637836 0 2286.21347087 0 11364
0.10450000 0.10450100 17721.56031645 0 123.06489233 0 5100.88365457 0 336.92726501 0 3007.86324780 0 12093
0.10550000 0.10551000 17571.94725522 0 258.71481722 0 6055.40599269 0 -254.88175533 0 3246.19876525 0 12067
0.10650000 0.10649700 17333.64545972 0 322.01316962 0 5682.32879493 0 -198.59981712 0 3309.66347928 0 12054
0.10750000 0.10749900 17608.70418311 0 272.93199227 0 7166.49935484 0 -387.74399884 0 4037.54057672 0 12807
0.10850000 0.10850100 17325.66459771 0 98.74945389 0 7212.42865373 0 -285.50690824 0 2813.79341293 0 12736
0.10950000 0.10950300 17402.88786823 0 357.43470820 0 7134.73327588 0 -401.53740135 0 2439.25493058 0 12933
0.11050000 0.11050200 16799.60214350 0 521.19862464 0 7459.34078769 0 -196.82267023 0 1632.36729915 0 13428
0.11150000 0.11150900 16351.66221187 0 754.62984617 0 6783.49666249 0 -498.81848903 0 1264.39335682 0 13453
0.11250000 0.11250000 15764.45061768 0 412.15194783 0 7367.71824358 0 280.69928192 0 -0.45261155 0 13668
0.11350000 0.11349100 15494.33778061 0 253.10011218 0 6051.23571127 0 527.38772693 0 -57.84202813 0 13791
0.11450000 0.11448600 14985.69833504 0 180.28767301 0 5961.51283713 0 860.27847426 0 -735.31728415 0 14205
0.11550000 0.11549300 15073.60022375 0 40.39968557 0 5265.24444955 0 941.98451630 0 -510.86059816 0 14776
0.11650000 0.11649800 14731.65962852 0 152.29058423 0 4854.65720030 0 801.74952997 0 -635.82516047 0 14553
0.11750000 0.11747300 14896.44756823 0 -68.52244482 0 4332.95611858 0 757.29388040 0 -142.09306589 0 14568
0.11850000 0.11849100 14686.58461908 0 -186.46890685 0 3955.54002963 0 561.88078776 0 181.67364524 0 16015
0.11950000 0.11950300 15058.76256479 0 -184.67040273 0 3143.47045822 0 962.45823754 0 16.04985074 0 15270
0.12050000 0.12050700 14897.00960077 0 -20.81375093 0 3078.17351813 0 414.92501637 0 194.52058496 0 15999
0.12150000 0.12150000 14672.87102519 0 299.32616425 0 2713.57177102 0 184.20503979 0 -571.35103601 0 15670
0.12250000 0.12250700 14623.52456848 0 422.57427919 0 2939.50885071 0 122.49611541 0 175.66102117 0 16887
0.12350000 0.12352200 13874.11038425 0 398.18993556 0 2147.69493192 0 -179.83692291 0 -375.54789279 0 16407
0.12450000 0.12449800 13599.83850641 0 386.85486336 0 2279.54776499 0 234.65083214 0 -169.60905481 0 16306
0.12550000 0.12549900 13468.54770587 0 152.44008489 0 2071.05617523 0 184.73447444 0 -39.74682858 0 17523
0.12650000 0.12650100 13371.65329657 0 237.98143695 0 2461.35404991 0 12.12124331 0 38.98055342 0 17154
0.12750000 0.12750600 13270.48743999 0 182.13226379 0 2422.57380489 0 -167.05068271 0 286.22630989 0 18007
0.12850000 0.12850300 12999.36294436 0 295.36158674 0 2963.09173594 0 -472.27256827 0 230.03092469 0 17496
0.12950000 0.12949900 12925.17464954 0 166.72582790 0 3214.84859036 0 -132.12935308 0 269.59464307 0 18405
0.13050000 0.13049000 12840.42014303 0 84.59162948 0 3351.27636829 0 -270.55009838 0 65.30514577 0 18100
0.13150000 0.13148800 12821.64825631 0 52.45989215 0 3329.26717416 0 -43.66273407 0 -24.91535197 0 19059
0.13250000 0.13249300 12774.66233625 0 137.47315844 0 3536.39864518 0 -25.78762647 0 -334.84774463 0 18957
0.13350000 0.13349100 12755.44082350 0 71.93420713 0 3046.91326844 0 409.83862191 0 -307.07996512 0 19468
0.13450000 0.13450700 12436.20634274 0 131.03900996 0 2733.15298459 0 688.39431174 0 -552.69717612 0 19953
0.13550000 0.13551000 12497.69270224 0 2.96590190 0 2190.74662422 0 661.60784105 0 -646.46668452 0 19956
0.13650000 0.13649900 12284.12033835 0 64.26650964 0 2246.19675427 0 786.54205360 0 -313.34437978 0 19723
0.13750000 0.13749600 12305.58998125 0 81.53540896 0 1462.43114140 0 273.15792935 0 -959.95944088 0 20946
0.13850000 0.13851100 12143.72461072 0 84.28037586 0 1845.33266790 0 -117.95489251 0 116.90951199 0 20955
0.13950000 0.13949800 12131.58470793 0 204.63941875 0 1443.81662379 0 -268.79093654 0 -528.75571413 0 20506
0.14050000 0.14048300 12103.70789412 0 151.25532030 0 2066.67232145 0 -648.53496425 0 75.92722349 0 21447
0.14150000 0.14148400 11975.90169531 0 270.37811642 0 2304.89543239 0 -650.75274464 0 -478.33802340 0 21771
0.14250000 0.14249400 11690.05194722 0 375.75696890 0 2776.47445251 0 -576.89717308 0 -426.95026452 0 22470
0.14350000 0.14350900 11598.21583074 0 439.23067544 0 3319.93743405 0 -505.63481964 0 -465.58438108 0 22519
0.14450000 0.14449900 11206.13069260 0 387.68779558 0 3162.52336121 0 -338.15137188 0 -675.27310014 0 22218
0.14550000 0.14550500 10985.92634478 0 293.18090050 0 3706.50341269 0 208.30274683 0 -184.60520696 0 23559
0.14650000 0.14650700 10922.41666815 0 75.76367202 0 3713.32648768 0 220.51121759 0 80.13549831 0 23044
0.14750000 0.14750500 10670.71601698 0 38.15481522 0 3912.11739586 0 360.17630292 0 468.72501890 0 23649
0.14850000 0.14849900 10897.65351459 0 -21.78606721 0 3574.51569180 0 551.63493462 0 309.33708779 0 23640
0.14950000 0.14949500 10712.50875640 0 72.50141037 0 3628.32468685 0 429.66600574 0 998.53623013 0 24457
0.15050000 0.15050000 10629.65391986 0 183.93751230 0 3759.30074917 0 134.97998211 0 1178.48106329 0 24591
0.15150000 0.15149900 10532.48973494 0 223.40568515 0 3321.30879344 0 -15.87753156 0 698.16243723 0 25020
0.15250000 0.15250500 10316.18589292 0 240.37569556 0 3578.35999435 0 -77.52002370 0 1037.49744962 0 25297
0.15350000 0.15350100 10166.25809347 0 159.96120429 0 3020.77875549 0 59.54701003 0 519.97676590 0 25452
0.15450000 0.15450400 10055.21170490 0 27.50958175 0 3191.55796205 0 160.96387034 0 583.92932417 0 26061
0.15550000 0.15549900 9988.62208997 0 -16.78487689 0 2760.23171220 0 207.23151281 0 -173.40165037 0 26128
0.15650000 0.15649500 9847.06857532 0 102.93457297 0 2966.71122548 0 33.60493702 0 -230.20740291 0 26331
0.15750000 0.15749700 9773.19501871 0 199.35518884 0 2640.44009736 0 72.39541103 0 -695.42421471 0 27345
0.15850000 0.15849900 9579.36123751 0 240.02273912 0 2727.19543970 0 -50.99793311 0 -332.69516001 0 26980
0.15950000 0.15949700 9434.03086420 0 107.48388914 0 2386.64868516 0 197.98832572 0 -722.06118475 0 27777
0.16050000 0.16050000 9314.30669327 0 77.53081473 0 2546.83919872 0 335.40752903 0 -647.02871705 0 28224
0.16150000 0.16150500 9375.90545927 0 -43.55707196 0 2071.69689232 0 299.24073530 0 -1066.12064265 0 28075
0.16250000 0.16249700 9231.72163235 0 98.06669677 0 1886.61957804 0 201.94615884 0 -1204.84038925 0 28590
0.16350000 0.16349900 9293.33163900 0 80.14494046 0 1582.09910909 0 -56.56374132 0 -1039.93442270 0 29163
0.16450000 0.16449100 9091.44955188 0 72.67429158 0 1900.80527926 0 -26.23612843 0 -1231.15475261 0 28996
0.16550000 0.16550500 9130.12863104 0 100.26784099 0 1569.14987944 0 -164.73061240 0 -1243.81172534 0 30777
0.16650000 0.16650700 9051.34291007 0 5.80957296 0 2036.81715311 0 -140.00904924 0 -1447.26750357 0 29211
0.16750000 0.16749900 8992.11592137 0 135.42061562 0 1811.21729294 0 -280.59361981 0 -1226.59104842 0 30922
0.16850000 0.16850800 8962.51928799 0 143.14181860 0 2267.50902806 0 -31.03004116 0 -914.55170819 0 30867
0.16950000 0.16949900 8886.59993295 0 182.02660168 0 2186.11547612 0 142.38419874 0 -729.19562577 0 30852
0.17050000 0.17049200 8692.58630134 0 159.75774851 0 2158.01384929 0 392.06602904 0 -648.30565497 0 31257
0.17150000 0.17149500 8590.40878619 0 188.93735375 0 2258.24673186 0 425.45076171 0 -177.27855081 0 32608
0.17250000 0.17250900 8434.26490689 0 165.48598413 0 1929.08675650 0 301.73278757 0 159.82631648 0 32361
0.17350000 0.17350400 8363.58369509 0 167.78582127 0 2223.14217962 0 207.29783265 0 515.61314529 0 32508
0.17450000 0.17449800 8168.99679029 0 145.57429542 0 2172.99763671 0 40.35730832 0 816.97499139 0 32791
0.17550000 0.17549800 8179.09089464 0 87.55163004 0 2095.15613040 0 145.92050746 0 1006.54182158 0 33633
0.17650000 0.17650100 8181.72120692 0 29.18511315 0 2248.27627466 0 173.68941103 0 1266.93374389 0 33984
0.17750000 0.17750300 8174.80820672 0 19.93563129 0 1996.35081047 0 104.03862969 0 1076.01466342 0 34069
