### header ###
fiducial parameters:
Omega_m = 0.31
Omega_nu = 0
Omega_de = 0.69
Omega_k = 0
H_0 = 100
w_de = -1
zeff = 0
beta = 0
fgrowth = 0
b_1 = 2
gamma = 0.55
Lx = 3500 Ly = 3500 Lz = 3500
nx = 700 ny = 700 nz = 700
xoffset = 857.220397 yoffset = 15.9954215 zoffset = 262.898189
bins = 400 dk = 0.001
kx_ny = 0.628318531 ky_ny = 0.628318531 kz_ny = 0.628318531
############################
A(data) = 3.0594369 (not used)
A(ran) = 3.05662431 (used)
Ngal = 186782
weighted Ngal = 0
Nran = 9360983
weighted Nran = 0
SN(data) = 3451.60452
SN(ran) = 68.6402946
SN(data+ran) = 3520.24482
############################
13 columns: k_central k_mean P_0(k) sigma^{lin}_{P_0(k)} P^img_1(k) sigma^{lin}_{P_1(k)} P_2(k) sigma^{lin}_{P_2(k)} P^img_3(k) sigma^{lin}_{P_3(k)} P_4(k) sigma^{lin}_{P_4(k)} N_modes
### header ###
0.00050000 0 0 0 0 0 0 0 0 0 0 0 0
0.00150000 0.00179520 9952.00004989 0 -14595.31053515 0 -14110.05164309 0 18488.06028980 0 301.66309554 0 3
0.00250000 0.00253879 19838.17484910 0 -16925.16021216 0 -3939.93800642 0 -14286.64226608 0 6787.57701870 0 6
0.00350000 0.00331552 26528.94738370 0 -7583.70734738 0 -7869.91679629 0 -15399.24187543 0 -15045.38619042 0 7
0.00450000 0.00420575 36515.14149312 0 -4680.76433349 0 -11709.72308600 0 -18300.45382910 0 -2219.63509660 0 24
0.00550000 0.00557378 38654.68695325 0 -5870.49728816 0 -18301.57789417 0 -16753.29066248 0 670.42388342 0 45
0.00650000 0.00659388 60850.47588667 0 -11859.44855373 0 -17765.62366732 0 -23299.50842869 0 -4825.22917669 0 40
0.00750000 0.00754703 59873.10130561 0 -11362.61179142 0 -16626.04649621 0 -14382.74982983 0 -30915.61133147 0 57
0.00850000 0.00846663 70045.21577811 0 -7213.68760661 0 -16731.37139356 0 -22222.42927565 0 -14796.40577673 0 75
0.00950000 0.00948925 65723.07316554 0 2386.67116646 0 -15123.84593252 0 -16518.36106221 0 -19487.01692026 0 112
0.01050000 0.01054430 64609.23708461 0 3925.29143852 0 -5364.80289308 0 -10343.68052461 0 4143.30385944 0 105
0.01150000 0.01145670 59301.62662245 0 2472.36988763 0 2104.44090790 0 -4789.25909435 0 -7177.84117143 0 144
0.01250000 0.01249090 60000.12065887 0 3666.82391561 0 15615.06236946 0 -1587.59578729 0 6366.08633824 0 169
0.01350000 0.01339930 55482.50313008 0 5217.67401566 0 15889.67146682 0 4490.55004183 0 7596.76898353 0 180
0.01450000 0.01448870 52372.21507282 0 8742.24749627 0 39230.43308370 0 -3753.52305470 0 34238.46009406 0 267
0.01550000 0.01550050 50239.63881614 0 2727.02682994 0 40715.54785827 0 5438.03573259 0 6966.06731166 0 238
0.01650000 0.01653350 51576.93903360 0 753.89583168 0 57932.74017643 0 7726.18259539 0 31252.49363388 0 315
0.01750000 0.01747870 55965.40148549 0 -2954.06549341 0 38151.66783304 0 11438.37377735 0 -511.79919250 0 297
0.01850000 0.01844180 54107.88395219 0 -5138.79836948 0 45465.95926370 0 1512.90166319 0 9622.21059809 0 388
0.01950000 0.01947590 62893.91378306 0 -2506.91240733 0 32194.34775863 0 10255.40769442 0 -18080.02466826 0 399
0.02050000 0.02045430 59065.23573757 0 1693.93234321 0 17887.24750823 0 4784.57174300 0 -31289.36296828 0 462
0.02150000 0.02154770 54838.52624971 0 3892.13151886 0 8501.72005193 0 2321.41918896 0 -30843.33394727 0 571
0.02250000 0.02255340 49542.60606431 0 1009.73866264 0 606.09925961 0 3710.66245346 0 -32660.38513794 0 510
0.02350000 0.02348930 49846.89047959 0 -64.81999929 0 -4304.29245921 0 3959.98008667 0 -28889.37163071 0 555
0.02450000 0.02439640 51330.99359561 0 -1372.42725100 0 5257.97174853 0 7322.35097723 0 -30582.77566333 0 592
0.02550000 0.02547300 52115.92823615 0 -43.30190918 0 4351.93033701 0 -1910.92186492 0 -11627.21670963 0 837
0.02650000 0.02652900 52377.83539818 0 2546.90664263 0 9828.52150161 0 -3406.88386745 0 -8553.44952659 0 723
0.02750000 0.02749970 52846.68294017 0 2584.13567785 0 20378.96255576 0 -3190.51258153 0 11551.79194322 0 826
0.02850000 0.02848090 50824.15265415 0 2262.39453198 0 21107.80634916 0 -4615.79337227 0 5235.92883245 0 831
0.02950000 0.02946900 52124.13391119 0 -818.20247045 0 28237.07666879 0 -1263.24681045 0 10785.75283656 0 996
0.03050000 0.03053250 51698.45046800 0 -2426.98013998 0 26227.81035062 0 -2164.62335192 0 2413.28902739 0 1041
0.03150000 0.03150510 54822.56452567 0 -2465.05222400 0 24865.66829504 0 224.41397152 0 -4603.86704184 0 1036
0.03250000 0.03246190 57716.02043033 0 -1256.94080539 0 24019.02248198 0 174.05585624 0 -4919.11109159 0 1059
0.03350000 0.03345080 55936.62541962 0 141.45010067 0 24569.70196129 0 -332.74911513 0 -8478.33949841 0 1302
0.03450000 0.03451200 57820.78329515 0 2096.37012068 0 26801.87038345 0 -1267.28220406 0 123.75282016 0 1339
0.03550000 0.03553350 55710.68833992 0 2483.66674162 0 25962.30618036 0 5759.50710285 0 -90.34852875 0 1365
0.03650000 0.03647120 53368.58635361 0 3159.16240664 0 24591.05919768 0 2946.69162653 0 3042.99028134 0 1308
0.03750000 0.03744890 52200.57033616 0 1122.18900849 0 22600.11514021 0 10736.83352458 0 4737.65326684 0 1579
0.03850000 0.03847530 48790.83134342 0 469.50512006 0 15806.26583840 0 7480.23715740 0 1339.59331022 0 1662
0.03950000 0.03950240 49023.73762656 0 328.26297143 0 12984.41287889 0 7304.18608565 0 2493.92945573 0 1683
0.04050000 0.04050350 47386.76166061 0 80.69663160 0 9235.28491863 0 3852.47450308 0 1066.89175129 0 1822
0.04150000 0.04152450 46910.15806962 0 2122.24609866 0 8607.21355904 0 1031.53091222 0 7373.06879333 0 1887
0.04250000 0.04250150 45656.03866756 0 1465.97194638 0 12528.60449175 0 -463.43966492 0 6694.77420627 0 1920
0.04350000 0.04349210 44697.88559925 0 2634.22401751 0 13038.93003494 0 -936.49795468 0 9548.26959758 0 2005
0.04450000 0.04448520 44436.31565674 0 1715.22213569 0 19779.72346530 0 -1256.50242001 0 8903.10120823 0 2151
0.04550000 0.04548030 42076.79066180 0 1808.78931238 0 16134.71765276 0 -1694.49437574 0 9236.83612843 0 2274
0.04650000 0.04648670 41479.91210798 0 1241.77716755 0 18734.34294731 0 -384.70677501 0 5850.96103719 0 2311
0.04750000 0.04749250 41406.51065871 0 912.56323707 0 15817.05686310 0 -706.80087731 0 637.90580492 0 2568
0.04850000 0.04851840 39716.36641480 0 494.82805802 0 14699.17414790 0 1485.19345913 0 -3826.03649256 0 2493
0.04950000 0.04949480 39646.67438026 0 145.50010713 0 13644.46388981 0 169.66413400 0 -9280.03394919 0 2644
0.05050000 0.05050630 39186.36973283 0 83.21138998 0 9689.58705857 0 898.08640300 0 -8929.28068378 0 2829
0.05150000 0.05149060 39046.42363123 0 630.91074797 0 10884.76048820 0 44.46767707 0 -12308.06292441 0 2784
0.05250000 0.05249300 39152.98500016 0 -285.04042124 0 9564.53481919 0 803.62334645 0 -9152.96963333 0 3055
0.05350000 0.05348950 38855.22016230 0 660.16678963 0 10229.14953431 0 -500.01337021 0 -10377.85210283 0 3009
0.05450000 0.05448610 38708.30485724 0 409.29120222 0 10132.70475104 0 63.09118720 0 -8430.45432629 0 3336
0.05550000 0.05550870 37838.72811669 0 551.36178681 0 9267.14092280 0 -505.58311264 0 -9317.17305921 0 3349
0.05650000 0.05647670 38303.07939839 0 -149.91093847 0 9205.53091615 0 -727.49491531 0 -9455.24197213 0 3324
0.05750000 0.05747970 38165.94345947 0 -90.54332923 0 7982.60431987 0 370.96058323 0 -11391.38785729 0 3639
0.05850000 0.05849280 37562.65773474 0 29.29988020 0 7681.26495507 0 -611.09348073 0 -11663.29919848 0 3846
0.05950000 0.05951020 37878.40761377 0 1076.33052570 0 8324.02784517 0 -2046.75388835 0 -10516.68538001 0 3787
0.06050000 0.06049470 37149.67622688 0 1162.28328558 0 11907.33372585 0 -2295.68933944 0 -9993.41060718 0 3930
0.06150000 0.06148310 35810.91472482 0 2136.56668769 0 13508.78923549 0 -2115.91761230 0 -8616.25104222 0 4083
0.06250000 0.06249100 34911.10063380 0 1892.27362536 0 17789.00422084 0 -886.93230528 0 -5632.47650894 0 4303
0.06350000 0.06350600 33873.25135181 0 1498.41246439 0 17414.12851896 0 1320.25939096 0 -1518.04988122 0 4470
0.06450000 0.06451750 31831.49955304 0 905.61089460 0 17396.48069731 0 2810.51114292 0 -1331.35391323 0 4479
0.06550000 0.06550280 32790.77668642 0 327.59415271 0 16469.80145105 0 3964.88101039 0 210.79592316 0 4636
0.06650000 0.06648880 30934.27081169 0 187.89984168 0 14312.38335625 0 4509.52426026 0 -701.25249211 0 4653
0.06750000 0.06749660 30489.36585575 0 598.41627484 0 11150.14101131 0 2916.65660777 0 -1482.66431272 0 5220
0.06850000 0.06852730 29791.54625838 0 756.08326231 0 8512.80333355 0 1840.69027915 0 -2471.20085995 0 5029
0.06950000 0.06949320 28074.76167223 0 645.73042189 0 8384.58123066 0 181.50391142 0 -2161.45348841 0 5040
0.07050000 0.07048030 27809.25750196 0 977.75114286 0 6696.78628275 0 -45.50147972 0 -3475.00221088 0 5475
0.07150000 0.07148790 27690.78104326 0 186.59929839 0 6910.13383362 0 -1035.99794682 0 -4578.27208013 0 5509
0.07250000 0.07249820 27770.58966345 0 283.12389029 0 8116.82893025 0 -1340.15534275 0 -3328.05318388 0 5916
0.07350000 0.07351270 27452.47924776 0 30.79185177 0 8475.39444791 0 -1654.02803311 0 -4833.06391025 0 5721
0.07450000 0.07449140 28185.48208193 0 143.39360918 0 11144.43076073 0 -1369.53840376 0 -3544.78417062 0 6028
0.07550000 0.07549160 27854.22010489 0 150.79670175 0 10257.86939693 0 -321.23981285 0 -5337.17337358 0 6183
0.07650000 0.07648840 27459.11123169 0 457.91263696 0 11014.66868870 0 518.18725431 0 -3467.20119928 0 6330
0.07750000 0.07749960 27182.70363022 0 497.17510590 0 11084.87779316 0 1779.99076520 0 -4894.80880471 0 6583
0.07850000 0.07848650 26000.18717332 0 696.96980418 0 9661.50791305 0 1590.57455974 0 -3957.36101505 0 6549
0.07950000 0.07947320 26208.58883787 0 669.43583022 0 9734.32484848 0 2148.54922137 0 -3090.85297215 0 6828
0.08050000 0.08048110 24441.55854296 0 733.81328509 0 7399.60796970 0 1807.39547169 0 -2172.60421394 0 7147
0.08150000 0.08149960 24452.46197417 0 356.81310022 0 7346.82187387 0 1921.27450424 0 -930.16722018 0 7386
0.08250000 0.08250610 23637.73960919 0 301.67770838 0 6527.33347298 0 1442.37782050 0 -950.34980857 0 7227
0.08350000 0.08350160 23875.70418516 0 121.58000237 0 6538.45047655 0 846.32320638 0 167.72961801 0 7798
0.08450000 0.08449610 23449.34630294 0 212.90017298 0 5774.81686914 0 993.55886998 0 -518.38958602 0 7371
0.08550000 0.08548940 23680.67889498 0 535.44727351 0 5303.90104742 0 -168.57041869 0 41.90402186 0 8256
0.08650000 0.08650700 22954.75767077 0 399.13415022 0 5640.83955308 0 -356.52309143 0 -37.94292895 0 8037
0.08750000 0.08749060 22666.88460555 0 498.90504204 0 6031.96923592 0 -302.33641052 0 -373.76062933 0 8155
0.08850000 0.08849210 22411.04739491 0 622.71968578 0 5460.44959015 0 -493.28134448 0 -377.88482408 0 8718
0.08950000 0.08949900 21973.44886196 0 392.24587945 0 5873.08263783 0 -372.79730556 0 -642.79099173 0 8571
0.09050000 0.09049190 21458.85187149 0 675.22588941 0 7039.41255768 0 -189.68710515 0 377.41721301 0 8932
0.09150000 0.09150830 20981.46143495 0 666.65039697 0 6624.73371156 0 83.15305100 0 -822.43120325 0 9285
0.09250000 0.09250820 20683.13456455 0 585.70647105 0 7996.98111215 0 -402.03985844 0 -196.44723250 0 9204
0.09350000 0.09350330 20180.11544433 0 578.95870842 0 7851.26855673 0 69.70698460 0 936.18546459 0 9349
0.09450000 0.09448040 19916.63459120 0 534.93132764 0 8402.02672059 0 43.75187243 0 -87.30545979 0 9564
0.09550000 0.09549270 19246.80421414 0 430.22803827 0 8223.88488781 0 392.68426483 0 985.20257023 0 10155
0.09650000 0.09649430 18719.73010136 0 728.52343485 0 7666.70831237 0 970.23114752 0 125.22534540 0 9913
0.09750000 0.09749140 18083.50926999 0 362.82684836 0 6684.55645475 0 1280.71478169 0 670.98704002 0 10476
0.09850000 0.09850240 17546.76819758 0 419.39542316 0 5332.41857832 0 1054.36292198 0 -1092.58787886 0 10575
0.09950000 0.09950330 17362.19671258 0 -70.75776063 0 4603.41741581 0 1204.16595021 0 -1010.14107794 0 10882
0.10050000 0.10051200 17259.23235189 0 -8.98821542 0 4657.64231494 0 -345.75005177 0 -2044.17977934 0 10875
0.10150000 0.10150300 17582.28865389 0 -276.06251350 0 3830.61143741 0 -539.09036841 0 -2452.08051306 0 11118
0.10250000 0.10250800 17468.19604897 0 -138.20942106 0 4851.31872704 0 -1263.53906737 0 -2472.97688277 0 11575
0.10350000 0.10349800 18212.21472086 0 -104.24635691 0 5023.73906860 0 -1577.69277400 0 -3468.93225949 0 11364
0.10450000 0.10450100 18422.41488953 0 -212.28868158 0 6055.56336180 0 -89.23199492 0 -3147.35972338 0 12093
0.10550000 0.10551000 18413.75958847 0 180.61140375 0 6091.29739047 0 -99.97749498 0 -3222.52595481 0 12067
0.10650000 0.10649700 18377.67709962 0 249.39631777 0 6160.74213069 0 669.11209948 0 -2079.58782914 0 12054
0.10750000 0.10749900 17866.11508485 0 421.20629200 0 6031.75566355 0 825.55048383 0 -1980.62514010 0 12807
0.10850000 0.10850100 17705.37377940 0 349.72137367 0 5215.20107250 0 1280.07406459 0 -1376.04674054 0 12736
0.10950000 0.10950300 17028.23697936 0 561.04335929 0 5200.84676152 0 940.40295674 0 -1316.70734533 0 12933
0.11050000 0.11050200 16543.09049381 0 512.16451365 0 4468.93427047 0 213.60158958 0 -1081.45963463 0 13428
0.11150000 0.11150900 15885.84964557 0 547.31852474 0 4678.86466352 0 547.82322996 0 -540.72363496 0 13453
0.11250000 0.11250000 15561.78168500 0 419.92485781 0 4281.46269758 0 -94.42214058 0 -828.52026375 0 13668
0.11350000 0.11349100 15090.57360636 0 196.41688274 0 4541.26785792 0 492.14491469 0 -403.25272465 0 13791
0.11450000 0.11448600 15199.15829242 0 45.33264515 0 3913.28642354 0 50.65172107 0 -909.13146641 0 14205
0.11550000 0.11549300 14944.89477288 0 110.30742819 0 4172.23729442 0 329.12175714 0 -841.49534689 0 14776
0.11650000 0.11649800 15024.59098656 0 202.51381170 0 4127.40957931 0 -117.19952078 0 -782.12222973 0 14553
0.11750000 0.11747300 14858.67898178 0 224.69835998 0 3865.54737988 0 -177.90465505 0 -798.34473687 0 14568
0.11850000 0.11849100 14610.37300713 0 261.74080040 0 3820.71966477 0 -133.44113702 0 -840.63656118 0 16015
0.11950000 0.11950300 14357.45836568 0 428.00688569 0 4135.85130801 0 -127.82193572 0 -1222.72426457 0 15270
0.12050000 0.12050700 14008.66097350 0 220.73378247 0 3602.25761781 0 381.34469637 0 -1074.70625167 0 15999
0.12150000 0.12150000 13945.03889036 0 249.02874849 0 3909.64445270 0 290.17290236 0 -1038.10444476 0 15670
0.12250000 0.12250700 13627.26569420 0 95.75011106 0 3454.35313549 0 309.73950309 0 -710.24388863 0 16887
0.12350000 0.12352200 13704.37655821 0 49.85948001 0 4290.45521816 0 514.30248542 0 -521.37060660 0 16407
0.12450000 0.12449800 13771.70805609 0 -90.89347550 0 3721.28486840 0 114.09372898 0 -268.05354985 0 16306
0.12550000 0.12549900 13734.50150217 0 -24.62028489 0 3936.26231363 0 -167.63969281 0 -443.82360533 0 17523
0.12650000 0.12650100 13881.86643325 0 88.52079895 0 4273.97642419 0 -135.10924959 0 148.64973746 0 17154
0.12750000 0.12750600 13724.38491651 0 217.67744954 0 4174.24937091 0 -141.58049222 0 -298.81471464 0 18007
0.12850000 0.12850300 13462.25294146 0 417.55308051 0 4116.01155947 0 119.99844281 0 -789.75912784 0 17496
0.12950000 0.12949900 13091.53628036 0 431.23632464 0 3852.64311284 0 34.55780698 0 -630.81520244 0 18405
0.13050000 0.13049000 12783.20523081 0 327.15689140 0 3948.55958553 0 400.96188003 0 -612.80430777 0 18100
0.13150000 0.13148800 12393.26705695 0 193.41338087 0 3493.96518867 0 439.71739562 0 -526.98980790 0 19059
0.13250000 0.13249300 12516.57699547 0 18.77346041 0 3486.74869090 0 491.61660411 0 -675.85986211 0 18957
0.13350000 0.13349100 12486.00242548 0 53.08779490 0 3472.70911813 0 429.04664588 0 -243.44776540 0 19468
0.13450000 0.13450700 12307.72570488 0 95.31981895 0 2702.60089590 0 422.72040765 0 -171.14565177 0 19953
0.13550000 0.13551000 12273.77893968 0 144.34794043 0 3438.42513340 0 232.12393386 0 558.98069988 0 19956
0.13650000 0.13649900 12088.75782864 0 185.69779821 0 2395.89974071 0 487.85435831 0 85.92342178 0 19723
0.13750000 0.13749600 11968.14564630 0 111.05819125 0 2690.06757034 0 500.93959983 0 197.32962358 0 20946
0.13850000 0.13851100 11865.18128561 0 31.20955435 0 2363.90884873 0 81.44570856 0 574.82776928 0 20955
0.13950000 0.13949800 11787.39598255 0 176.07018086 0 2458.79118155 0 36.45196904 0 -46.75616115 0 20506
0.14050000 0.14048300 11642.72880764 0 281.40856699 0 2337.95418619 0 -195.98861395 0 395.80804167 0 21447
0.14150000 0.14148400 11332.14962794 0 297.53552859 0 2538.39747002 0 -314.45945233 0 214.87403124 0 21771
0.14250000 0.14249400 11228.49958755 0 316.65924768 0 2956.31362355 0 -102.58442670 0 474.09804995 0 22470
0.14350000 0.14350900 10819.98061803 0 249.75939079 0 3030.68176879 0 -55.13719034 0 203.89753580 0 22519
0.14450000 0.14449900 10824.78037590 0 150.21556011 0 3264.48730399 0 209.66511369 0 302.10710124 0 22218
0.14550000 0.14550500 10636.54443876 0 91.54352233 0 3232.31656160 0 9.58982628 0 107.38047515 0 23559
0.14650000 0.14650700 10567.83034084 0 37.72609680 0 2889.60036146 0 36.72489204 0 -371.01341429 0 23044
0.14750000 0.14750500 10538.84070260 0 12.07178445 0 2773.70925243 0 47.40171173 0 -34.39099572 0 23649
0.14850000 0.14849900 10489.10082312 0 52.58005470 0 2479.27164718 0 -185.26503315 0 -797.46909018 0 23640
0.14950000 0.14949500 10459.20069217 0 12.84266827 0 2292.20473771 0 193.71013405 0 -657.94788517 0 24457
0.15050000 0.15050000 10359.26006652 0 41.14415387 0 2490.57974181 0 -220.72591401 0 -1123.89983553 0 24591
0.15150000 0.15149900 10518.41644022 0 96.40982485 0 2190.69042096 0 -91.68189474 0 -1070.20437106 0 25020
0.15250000 0.15250500 10465.72026960 0 137.89580691 0 2738.49229369 0 -127.88263524 0 -1141.78033865 0 25297
0.15350000 0.15350100 10345.26545636 0 126.77205894 0 2639.16990383 0 -275.52633446 0 -1127.54967483 0 25452
0.15450000 0.15450400 10309.03683906 0 228.92259653 0 3058.76091431 0 -153.36406638 0 -771.81230488 0 26061
0.15550000 0.15549900 10153.36506708 0 330.59203426 0 3229.23662330 0 -288.62281662 0 -857.67626362 0 26128
0.15650000 0.15649500 9875.72099403 0 285.18992189 0 3238.29658779 0 21.93421899 0 -629.75183688 0 26331
0.15750000 0.15749700 9861.25427654 0 159.22494167 0 3354.50243505 0 74.80237157 0 -574.61082472 0 27345
0.15850000 0.15849900 9684.10162102 0 -85.39589804 0 3250.86363531 0 180.54620798 0 -470.89896075 0 26980
0.15950000 0.15949700 9815.61723457 0 -69.46137638 0 3127.80099110 0 101.54455410 0 -1088.74919663 0 27777
0.16050000 0.16050000 9907.09365022 0 -40.94541917 0 3063.92037300 0 -125.87955128 0 -953.18020443 0 28224
0.16150000 0.16150500 9826.27337146 0 111.85976206 0 2957.40396667 0 141.58611254 0 -1436.76873578 0 28075
0.16250000 0.16249700 9777.94981397 0 118.16284455 0 2848.33593263 0 -47.21792709 0 -1137.99223935 0 28590
0.16350000 0.16349900 9584.10479211 0 225.06480520 0 2915.83604027 0 278.24769600 0 -1020.14525709 0 29163
0.16450000 0.16449100 9573.75215279 0 160.30629227 0 2995.99312063 0 567.78774972 0 -951.00851071 0 28996
0.16550000 0.16550500 9207.86897150 0 188.79909374 0 2596.61280016 0 529.79322619 0 -543.00885925 0 30777
0.16650000 0.16650700 9159.66906116 0 144.57724970 0 2595.29764402 0 523.70191756 0 -251.82879459 0 29211
0.16750000 0.16749900 9039.32665444 0 47.83312790 0 2645.85809101 0 224.88945104 0 578.51470272 0 30922
0.16850000 0.16850800 9052.52317839 0 78.59238178 0 2418.08878525 0 248.43749026 0 524.01553171 0 30867
0.16950000 0.16949900 9012.72003416 0 38.00227958 0 2661.10041340 0 -30.68304227 0 999.44110251 0 30852
0.17050000 0.17049200 9037.85412919 0 59.12638488 0 2575.73891175 0 79.02514683 0 648.44841124 0 31257
0.17150000 0.17149500 9053.74840932 0 67.47920003 0 2835.84756967 0 126.23250771 0 1101.54218123 0 32608
0.17250000 0.17250900 8824.74263198 0 98.52610216 0 2492.22087682 0 102.80586752 0 1027.99235537 0 32361
0.17350000 0.17350400 8844.15523579 0 158.82140231 0 2556.88834048 0 288.16981840 0 1003.84743760 0 32508
0.17450000 0.17449800 8601.32345805 0 171.34236316 0 2345.37301567 0 296.01691668 0 1110.36271986 0 32791
0.17550000 0.17549800 8442.57174778 0 255.10207208 0 2291.95744340 0 200.74902953 0 1205.70591936 0 33633
0.17650000 0.17650100 8346.50914663 0 168.41529771 0 2322.81302965 0 175.39461775 0 1255.77177771 0 33984
0.17750000 0.17750300 8068.41544755 0 189.84110207 0 2049.51908843 0 -105.09581289 0 1215.93491152 0 34069
