### header ###
fiducial parameters:
Omega_m = 0.31
Omega_nu = 0
Omega_de = 0.69
Omega_k = 0
H_0 = 100
w_de = -1
zeff = 0
beta = 0
fgrowth = 0
b_1 = 2
gamma = 0.55
Lx = 3500 Ly = 3500 Lz = 3500
nx = 700 ny = 700 nz = 700
xoffset = 857.220397 yoffset = 15.9954215 zoffset = 262.898189
bins = 400 dk = 0.001
kx_ny = 0.628318531 ky_ny = 0.628318531 kz_ny = 0.628318531
############################
A(data) = 3.09518848 (not used)
A(ran) = 3.09234849 (used)
Ngal = 188505
weighted Ngal = 0
Nran = 9360983
weighted Nran = 0
SN(data) = 3454.46933
SN(ran) = 69.4425254
SN(data+ran) = 3523.91185
############################
13 columns: k_central k_mean P_0(k) sigma^{lin}_{P_0(k)} P^img_1(k) sigma^{lin}_{P_1(k)} P_2(k) sigma^{lin}_{P_2(k)} P^img_3(k) sigma^{lin}_{P_3(k)} P_4(k) sigma^{lin}_{P_4(k)} N_modes
### header ###
0.00050000 0 0 0 0 0 0 0 0 0 0 0 0
0.00150000 0.00179520 -64.00640099 0 -1137.28407836 0 441.43721518 0 1901.09753618 0 -1373.10169004 0 3
0.00250000 0.00253879 1529.05447829 0 -639.67171115 0 4173.08034323 0 -389.06477530 0 -13581.51624572 0 6
0.00350000 0.00331552 4751.92889327 0 -1612.10040589 0 -1796.17730226 0 7613.25901815 0 17020.70574337 0 7
0.00450000 0.00420575 8549.02071020 0 -4462.48213695 0 5.28520785 0 9023.26376454 0 -2096.16778897 0 24
0.00550000 0.00557378 19382.36646196 0 -8337.05575937 0 -8043.13522405 0 5844.52014433 0 -5751.45879692 0 45
0.00650000 0.00659388 29058.76823722 0 -12817.03958951 0 2371.14782780 0 -6281.18570327 0 -11609.34407497 0 40
0.00750000 0.00754703 36501.65271224 0 -6314.30066033 0 -8848.77514324 0 -16278.82279513 0 -7242.81213266 0 57
0.00850000 0.00846663 43925.65289403 0 -5609.10719607 0 -1398.24702573 0 -16979.22774218 0 -12286.81809452 0 75
0.00950000 0.00948925 47089.55885528 0 -2267.48654676 0 4101.36499157 0 -27736.75530475 0 -22259.97304909 0 112
0.01050000 0.01054430 49342.18526177 0 -4528.97058602 0 9184.63454644 0 -13620.85852328 0 -23766.10784053 0 105
0.01150000 0.01145670 55519.03524496 0 -8076.95834210 0 10849.70089857 0 -19054.47668013 0 -45290.04307976 0 144
0.01250000 0.01249090 63539.12713502 0 -7126.56132280 0 12997.11481422 0 -28508.42597743 0 -65196.33627229 0 169
0.01350000 0.01339930 78815.95832398 0 -5452.44624683 0 19598.86139503 0 -27264.53556754 0 -88582.84733763 0 180
0.01450000 0.01448870 75263.68787998 0 -2652.07417087 0 20493.50478671 0 -30294.00334605 0 -71968.26630517 0 267
0.01550000 0.01550050 80157.64239523 0 -2832.48661510 0 16347.72798411 0 -25585.85678737 0 -84801.71724474 0 238
0.01650000 0.01653350 87200.13489121 0 -8002.73632533 0 16068.28540694 0 2674.45430647 0 -76516.34599744 0 315
0.01750000 0.01747870 84586.12156372 0 -1079.63078076 0 11834.04468308 0 7961.89904122 0 -75206.13574823 0 297
0.01850000 0.01844180 87618.96153745 0 8135.21863484 0 -1221.28546127 0 7974.52229199 0 -76255.11327445 0 388
0.01950000 0.01947590 75591.57766180 0 8565.42081962 0 6251.49914469 0 -1173.55765827 0 -45347.59521150 0 399
0.02050000 0.02045430 66095.02629823 0 11971.40543501 0 -3270.80454970 0 -4788.47224880 0 -29661.15470990 0 462
0.02150000 0.02154770 61004.69761470 0 4180.06078733 0 4915.17686384 0 267.58931098 0 -16679.66440020 0 571
0.02250000 0.02255340 59472.14729404 0 -1682.71417378 0 7189.76750186 0 -2725.18336322 0 -20176.74324911 0 510
0.02350000 0.02348930 63031.16212848 0 -2204.08927663 0 14777.40907699 0 -4758.05504792 0 -11168.38458744 0 555
0.02450000 0.02439640 67553.72554359 0 -2873.73980328 0 7660.12129105 0 -4410.99995660 0 -20220.24456744 0 592
0.02550000 0.02547300 68577.97363820 0 -955.56322238 0 17507.65073304 0 -6382.62133547 0 -11823.36606489 0 837
0.02650000 0.02652900 70441.56112289 0 237.84205288 0 19170.70500869 0 -9533.65675163 0 -28593.96732950 0 723
0.02750000 0.02749970 65154.29623855 0 3132.26352944 0 22235.24361748 0 -5281.44222726 0 -28395.34503108 0 826
0.02850000 0.02848090 65832.21988414 0 4868.04481532 0 18324.28400865 0 -6428.24713679 0 -41050.40684355 0 831
0.02950000 0.02946900 57994.11412942 0 4871.04606907 0 17157.16724325 0 -8058.88337573 0 -36164.88281634 0 996
0.03050000 0.03053250 55931.34231377 0 2574.74973449 0 12159.68633476 0 2095.51583122 0 -38783.05518460 0 1041
0.03150000 0.03150510 54349.44553640 0 483.91675836 0 13495.52526763 0 3198.50468420 0 -36578.20154372 0 1036
0.03250000 0.03246190 52861.52059914 0 -738.88619076 0 8632.38137602 0 7601.43385358 0 -26051.89416668 0 1059
0.03350000 0.03345080 53863.51220530 0 945.80633755 0 11485.02247788 0 4856.89408980 0 -24915.91400381 0 1302
0.03450000 0.03451200 54938.56804121 0 1796.59320633 0 8121.66241006 0 852.17396509 0 -13002.39792006 0 1339
0.03550000 0.03553350 52684.36794362 0 2338.78599434 0 17756.29392721 0 2530.46157061 0 -3519.05432110 0 1365
0.03650000 0.03647120 52201.80680774 0 1697.95649617 0 19241.97073433 0 -236.27847837 0 2350.15029223 0 1308
0.03750000 0.03744890 50844.38582546 0 553.89093323 0 22332.13802678 0 2418.87563080 0 7991.92281932 0 1579
0.03850000 0.03847530 51411.47665484 0 526.03435258 0 23637.17757665 0 3336.00032394 0 11492.55371387 0 1662
0.03950000 0.03950240 50192.99011560 0 1122.41831777 0 21350.49199844 0 5438.41791472 0 7555.87549617 0 1683
0.04050000 0.04050350 49336.22771689 0 1536.32717931 0 17838.12586453 0 4468.00129646 0 8571.95163769 0 1822
0.04150000 0.04152450 45585.55978748 0 1281.79388416 0 13809.02701652 0 2760.62513498 0 5930.12894029 0 1887
0.04250000 0.04250150 45105.92122078 0 1549.96208865 0 12654.27496692 0 1043.15711727 0 1254.34421507 0 1920
0.04350000 0.04349210 44676.86558238 0 -474.47011549 0 8611.37259981 0 482.95793085 0 626.64042476 0 2005
0.04450000 0.04448520 44558.16431066 0 632.21353939 0 9735.23534119 0 -1939.55180233 0 -2301.00616724 0 2151
0.04550000 0.04548030 43977.58470041 0 180.97784896 0 8245.73671283 0 -713.06191977 0 400.68648409 0 2274
0.04650000 0.04648670 42968.06185826 0 2.91412746 0 11849.10715506 0 -1174.33326317 0 -526.36819991 0 2311
0.04750000 0.04749250 44069.53322339 0 841.15925144 0 10680.70895548 0 2184.09215898 0 3699.09582386 0 2568
0.04850000 0.04851840 42776.29635679 0 139.40767443 0 10756.47094140 0 2211.99145410 0 4853.64554174 0 2493
0.04950000 0.04949480 41710.23304146 0 914.15041696 0 10000.41353259 0 1936.17960711 0 3060.61562168 0 2644
0.05050000 0.05050630 42455.37577842 0 526.19959015 0 12708.90452947 0 -635.48119656 0 4246.40310795 0 2829
0.05150000 0.05149060 40840.09426837 0 1485.50819735 0 13228.67221927 0 -1768.24428519 0 -1640.86523111 0 2784
0.05250000 0.05249300 39975.12619462 0 2642.37348929 0 14046.65437297 0 -4237.50051257 0 92.59351152 0 3055
0.05350000 0.05348950 38233.38736386 0 2054.15023653 0 14598.45791735 0 -2498.39199407 0 -8128.50796636 0 3009
0.05450000 0.05448610 36756.81548383 0 1099.23110344 0 14502.46276011 0 -847.92837131 0 -3781.46731241 0 3336
0.05550000 0.05550870 37398.43182756 0 -178.88596386 0 15088.32547621 0 2453.33946594 0 -6794.60242541 0 3349
0.05650000 0.05647670 36602.59375580 0 -1266.41667396 0 12116.52223595 0 1873.44553538 0 -9609.87960424 0 3324
0.05750000 0.05747970 39253.70123071 0 -827.99869756 0 14498.07890633 0 1064.10069771 0 -4655.75388562 0 3639
0.05850000 0.05849280 38675.03253108 0 98.21754630 0 14550.68515175 0 -128.89092161 0 -7093.67117876 0 3846
0.05950000 0.05951020 39944.77643765 0 1298.03662446 0 15934.63406975 0 10.17730765 0 557.38789967 0 3787
0.06050000 0.06049470 38177.18411020 0 1109.84452586 0 16644.93078944 0 592.10689758 0 -3356.03116355 0 3930
0.06150000 0.06148310 37485.54687072 0 1683.93940471 0 17409.63225867 0 1663.73995534 0 4815.49477316 0 4083
0.06250000 0.06249100 36123.96684768 0 1404.05844216 0 17190.66438243 0 3344.59942175 0 2505.02397800 0 4303
0.06350000 0.06350600 35235.73062692 0 397.36824399 0 14737.84198642 0 3959.84519886 0 3866.21057827 0 4470
0.06450000 0.06451750 33711.83560732 0 955.98699491 0 12358.64585270 0 3979.61750350 0 2903.40388056 0 4479
0.06550000 0.06550280 33285.14050557 0 3.84574135 0 9857.97200652 0 2326.47748179 0 3807.84911968 0 4636
0.06650000 0.06648880 31932.10337708 0 411.59216343 0 9010.44942271 0 2043.19060207 0 2791.60436839 0 4653
0.06750000 0.06749660 32911.50127527 0 79.46971457 0 7982.51439466 0 1213.11350819 0 3762.83031350 0 5220
0.06850000 0.06852730 31929.96765344 0 55.61064655 0 7093.73862266 0 -173.58487298 0 2570.14106769 0 5029
0.06950000 0.06949320 32119.48502476 0 550.73905476 0 8161.56672016 0 232.99958055 0 2035.99658560 0 5040
0.07050000 0.07048030 31436.61549286 0 1188.60888960 0 7211.09101629 0 -782.43584389 0 3228.20248343 0 5475
0.07150000 0.07148790 30117.74994259 0 1281.46790529 0 8224.89654637 0 277.77334054 0 2885.47504265 0 5509
0.07250000 0.07249820 29143.63515024 0 1330.87056525 0 8378.46631666 0 59.24171395 0 4262.75825476 0 5916
0.07350000 0.07351270 28777.63956244 0 561.32437555 0 10419.58863900 0 971.22482104 0 3323.37707317 0 5721
0.07450000 0.07449140 28250.45304316 0 62.94562078 0 9395.07076877 0 -319.18389783 0 4394.57736588 0 6028
0.07550000 0.07549160 28424.34590996 0 111.29694268 0 9250.01017109 0 144.07928887 0 3952.19031572 0 6183
0.07650000 0.07648840 27624.91082998 0 580.78643823 0 9604.04570651 0 -846.52553810 0 2466.17628908 0 6330
0.07750000 0.07749960 27813.64135575 0 809.54604532 0 8151.19159953 0 -304.15964406 0 2423.05715287 0 6583
0.07850000 0.07848650 26685.64205489 0 501.19925886 0 8964.22786690 0 824.28253843 0 -151.41493754 0 6549
0.07950000 0.07947320 26331.56155687 0 644.49395031 0 7902.23366714 0 1127.36982441 0 3021.32954738 0 6828
0.08050000 0.08048110 25366.32687860 0 172.33940888 0 7774.84337241 0 2243.53272005 0 -142.71579794 0 7147
0.08150000 0.08149960 25372.17201698 0 318.64771879 0 7202.34579003 0 1518.89293003 0 304.09444829 0 7386
0.08250000 0.08250610 24625.45558892 0 497.60899502 0 7783.50991412 0 930.84053516 0 1140.21788820 0 7227
0.08350000 0.08350160 24488.76927603 0 747.00306465 0 8400.90265552 0 -1107.81446434 0 1255.44579884 0 7798
0.08450000 0.08449610 23616.94440533 0 1135.72162791 0 9165.46923694 0 -1411.20749602 0 1889.87936675 0 7371
0.08550000 0.08548940 23221.72312563 0 826.48345784 0 11211.94210902 0 -1003.32924360 0 1973.24003257 0 8256
0.08650000 0.08650700 22633.94949891 0 440.59978670 0 10861.89700461 0 -349.96754392 0 3230.41689163 0 8037
0.08750000 0.08749060 23204.97455604 0 338.59312945 0 11098.15300167 0 880.93541811 0 1953.90611331 0 8155
0.08850000 0.08849210 22243.89891854 0 286.56802567 0 9422.74525087 0 515.34224561 0 1722.85453754 0 8718
0.08950000 0.08949900 22043.02848998 0 602.15041901 0 9584.08231081 0 1319.56247061 0 1651.63377451 0 8571
0.09050000 0.09049190 21416.47461824 0 851.92217451 0 9131.54495303 0 1062.31231018 0 1345.12371037 0 8932
0.09150000 0.09150830 20702.35607730 0 755.56956458 0 8516.10808486 0 986.28504489 0 1316.46005101 0 9285
0.09250000 0.09250820 19838.62447513 0 580.76620506 0 7695.84407907 0 1345.24735753 0 1954.19837023 0 9204
0.09350000 0.09350330 19311.88758187 0 116.17662157 0 7015.76222854 0 1496.22053750 0 2856.31679465 0 9349
0.09450000 0.09448040 19550.41419038 0 47.58459711 0 6678.67759442 0 1510.81090215 0 2109.92634546 0 9564
0.09550000 0.09549270 19767.47115600 0 45.54295772 0 6626.76826935 0 853.51160252 0 3806.87118306 0 10155
0.09650000 0.09649430 19529.95620605 0 192.39610198 0 6400.87615226 0 420.13618205 0 3451.26195654 0 9913
0.09750000 0.09749140 19362.69532318 0 5.14284500 0 6252.49956261 0 388.18463234 0 5102.37866111 0 10476
0.09850000 0.09850240 19434.97270738 0 -206.77177020 0 6385.17296318 0 1320.04581859 0 4954.84512027 0 10575
0.09950000 0.09950330 19464.42321229 0 -131.01315646 0 6229.68104162 0 568.66901674 0 4157.71437368 0 10882
0.10050000 0.10051200 19452.73293553 0 108.01028881 0 6201.21971397 0 115.75509716 0 3742.43977307 0 10875
0.10150000 0.10150300 19072.68653432 0 527.19775993 0 5427.59316806 0 -253.38337658 0 3462.39020076 0 11118
0.10250000 0.10250800 18689.49275090 0 402.87503878 0 5916.83125048 0 -1374.13582991 0 2735.00769196 0 11575
0.10350000 0.10349800 18192.88080160 0 471.05408173 0 5402.12185351 0 -850.18324584 0 1808.37340830 0 11364
0.10450000 0.10450100 18267.96834848 0 182.96407195 0 5900.95945165 0 -689.81512999 0 283.78708868 0 12093
0.10550000 0.10551000 17851.72705192 0 493.08688123 0 5542.70867220 0 -667.16746690 0 -669.64378226 0 12067
0.10650000 0.10649700 17550.92723835 0 534.72112747 0 6467.87043061 0 79.92765868 0 4.89966477 0 12054
0.10750000 0.10749900 16827.92858334 0 663.59181590 0 5870.66589793 0 280.67342843 0 -982.63632967 0 12807
0.10850000 0.10850100 16446.75811705 0 504.63440172 0 6029.92343748 0 1313.49251922 0 573.30578517 0 12736
0.10950000 0.10950300 15978.58501410 0 355.11576196 0 5484.89800549 0 813.21386965 0 40.20836970 0 12933
0.11050000 0.11050200 15890.90793840 0 158.62244279 0 5107.50439785 0 834.44296262 0 366.30582976 0 13428
0.11150000 0.11150900 15758.83029231 0 -0.85995362 0 4644.44579098 0 284.83359326 0 521.74042400 0 13453
0.11250000 0.11250000 15665.87011077 0 89.90317417 0 5226.35179803 0 -578.28988970 0 -478.57520113 0 13668
0.11350000 0.11349100 15890.90793840 0 120.16592851 0 4935.02785303 0 -851.91880232 0 289.21632298 0 13791
0.11450000 0.11448600 15782.88528488 0 242.04942845 0 5720.88422694 0 -955.77567068 0 -587.41167777 0 14205
0.11550000 0.11549300 15751.29905632 0 274.15272694 0 5531.68159383 0 -240.18348043 0 106.19503612 0 14776
0.11650000 0.11649800 15664.29641967 0 226.45976995 0 6693.82999161 0 136.22094995 0 -378.11862961 0 14553
0.11750000 0.11747300 15555.03729456 0 160.54684220 0 6225.78053582 0 389.12772294 0 40.98858326 0 14568
0.11850000 0.11849100 15406.43589190 0 187.16245500 0 6346.86482549 0 693.06030586 0 541.30927286 0 16015
0.11950000 0.11950300 15386.20272058 0 167.31933426 0 6255.09615293 0 497.35608037 0 -11.19605907 0 15270
0.12050000 0.12050700 15042.23880821 0 340.16457242 0 5871.14924591 0 555.66583198 0 1205.67219741 0 15999
0.12150000 0.12150000 14656.79689465 0 362.29516558 0 5129.54731393 0 442.19146285 0 -539.37588094 0 15670
0.12250000 0.12250700 14390.39347232 0 397.31091667 0 5151.65767392 0 134.77765039 0 1012.63762647 0 16887
0.12350000 0.12352200 13851.62908279 0 108.08132972 0 4612.32001119 0 603.24413432 0 -337.15994648 0 16407
0.12450000 0.12449800 13915.47597894 0 -49.96109549 0 4077.80458763 0 404.64656534 0 36.88439687 0 16306
0.12550000 0.12549900 13958.07804521 0 -262.88509865 0 4375.23220598 0 528.25775330 0 -153.39216801 0 17523
0.12650000 0.12650100 14042.49533220 0 57.96084180 0 3900.03369632 0 -107.24097867 0 -329.50843553 0 17154
0.12750000 0.12750600 14056.20892609 0 144.33782384 0 4218.73986650 0 153.62372541 0 -127.14075229 0 18007
0.12850000 0.12850300 13819.48082170 0 319.05687848 0 3959.60914520 0 -111.23332059 0 -375.13423685 0 17496
0.12950000 0.12949900 13701.22917601 0 178.40486401 0 3994.37647791 0 546.84866554 0 140.03040648 0 18405
0.13050000 0.13049000 13482.14889326 0 42.03688635 0 3352.34423011 0 576.22723029 0 -741.57495442 0 18100
0.13150000 0.13148800 13542.06156165 0 95.48235876 0 3025.60099466 0 291.73872501 0 -824.25893306 0 19059
0.13250000 0.13249300 13132.78946854 0 299.33628084 0 2805.45285009 0 -334.25873453 0 -1551.41213259 0 18957
0.13350000 0.13349100 13021.61943281 0 365.53921738 0 2621.62324804 0 -305.48491679 0 -1898.95057189 0 19468
0.13450000 0.13450700 12588.85437967 0 283.10815338 0 3151.12534137 0 -953.52304427 0 -1840.08328401 0 19953
0.13550000 0.13551000 12622.35151884 0 255.93500430 0 3228.03387367 0 -756.76781794 0 -2193.48934299 0 19956
0.13650000 0.13649900 12529.61615031 0 189.06774530 0 4595.75129202 0 -412.69262313 0 -2535.47490083 0 19723
0.13750000 0.13749600 12393.26705695 0 152.61768717 0 4100.98280944 0 -280.61947330 0 -2831.38503133 0 20946
0.13850000 0.13851100 12340.21118550 0 333.77313842 0 5016.83730905 0 -65.97553818 0 -1689.06514144 0 20955
0.13950000 0.13949800 11983.77015082 0 241.75604747 0 4999.58291018 0 175.51039645 0 -1623.18368751 0 20506
0.14050000 0.14048300 11854.95229344 0 158.83826328 0 5165.04528894 0 721.23724505 0 -983.59965343 0 21447
0.14150000 0.14148400 11845.95977286 0 -16.21958457 0 4378.48075404 0 1088.33666475 0 -631.32103172 0 21771
0.14250000 0.14249400 11770.64741296 0 47.38125374 0 3922.94214251 0 1157.12382690 0 -420.93988857 0 22470
0.14350000 0.14350900 11716.24266342 0 14.94905381 0 3478.65542237 0 783.79371450 0 -186.71058084 0 22519
0.14450000 0.14449900 11533.35727603 0 101.89144058 0 3060.68306559 0 273.11858707 0 -55.42922245 0 22218
0.14550000 0.14550500 11447.25389143 0 200.58604010 0 3026.87118819 0 127.05532334 0 -38.12469027 0 23559
0.14650000 0.14650700 11263.69406499 0 108.35717529 0 2854.32719947 0 142.08519743 0 111.37349151 0 23044
0.14750000 0.14750500 11274.26027668 0 91.42133646 0 2977.19875261 0 267.40271617 0 911.18625736 0 23649
0.14850000 0.14849900 11266.16700815 0 167.50592906 0 3094.43873973 0 46.70479138 0 623.37389165 0 23640
0.14950000 0.14949500 10925.59777230 0 293.31129204 0 3308.07854753 0 86.75253218 0 1015.58942135 0 24457
0.15050000 0.15050000 10873.91326024 0 309.83167642 0 3861.02863829 0 -184.73897070 0 1182.26916258 0 24591
0.15150000 0.15149900 10634.83585984 0 257.40303328 0 3870.27969384 0 -388.71856325 0 1424.90984926 0 25020
0.15250000 0.15250500 10576.80038012 0 111.90045321 0 4055.15467641 0 -247.17516518 0 1071.60158394 0 25297
0.15350000 0.15350100 10559.68086906 0 -8.69527282 0 4126.93747198 0 -5.50486140 0 986.17376245 0 25452
0.15450000 0.15450400 10566.58262861 0 -49.36511619 0 3753.33196363 0 138.23977082 0 342.42169509 0 26061
0.15550000 0.15549900 10611.60143478 0 -4.55598187 0 3429.07291200 0 333.76639403 0 283.82418283 0 26128
0.15650000 0.15649500 10531.88273980 0 31.99347733 0 3029.45653786 0 542.36701810 0 -147.86401598 0 26331
0.15750000 0.15749700 10442.58701039 0 149.59957245 0 2485.38656118 0 486.58641291 0 -341.54492433 0 27345
0.15850000 0.15849900 10138.33631706 0 244.31329551 0 2195.46769752 0 450.21953560 0 -352.14036171 0 26980
0.15950000 0.15949700 9903.24934767 0 323.31483698 0 2145.60417088 0 225.99328295 0 -333.28079791 0 27777
0.16050000 0.16050000 9596.17725100 0 355.71938490 0 2107.68945597 0 58.30424368 0 -155.32555993 0 28224
0.16150000 0.16150500 9363.37213371 0 265.45021514 0 2095.25729626 0 -75.08507394 0 -24.11602930 0 28075
0.16250000 0.16249700 9183.73529438 0 172.13595310 0 2342.48416843 0 -185.68093723 0 -172.88907670 0 28590
0.16350000 0.16349900 9054.01818494 0 119.05422815 0 2250.56936741 0 -215.73169289 0 291.83427054 0 29163
0.16450000 0.16449100 9031.41323632 0 52.19551204 0 2634.75232809 0 -101.77172765 0 -245.84764433 0 28996
0.16550000 0.16550500 8952.97597552 0 48.97663930 0 2363.92008938 0 -68.76299475 0 -294.55225989 0 30777
0.16650000 0.16650700 8982.74121866 0 51.35538581 0 2528.13475591 0 -38.94008708 0 -640.41471816 0 29211
0.16750000 0.16749900 8891.90552010 0 44.78230289 0 2267.40786220 0 -17.21483178 0 -540.02671461 0 30922
0.16850000 0.16850800 8779.79126971 0 106.09027326 0 2301.80425344 0 22.61630168 0 -1067.07047763 0 30867
0.16950000 0.16949900 8815.60398294 0 67.52663558 0 2054.98204469 0 58.12000942 0 -1089.65631715 0 30852
0.17050000 0.17049200 8832.11649886 0 33.23972828 0 2201.95355300 0 36.96240699 0 -1244.53112698 0 31257
0.17150000 0.17149500 8691.95682490 0 47.77411448 0 2029.70182119 0 142.57866200 0 -876.29078123 0 32608
0.17250000 0.17250900 8697.18372749 0 88.94333501 0 1915.05842439 0 363.70361912 0 -928.65984892 0 32361
0.17350000 0.17350400 8648.06208379 0 151.53071624 0 2142.32190087 0 115.45834398 0 -922.62586761 0 32508
0.17450000 0.17449800 8538.31961071 0 205.43525682 0 2118.35683351 0 19.00097118 0 -650.10078690 0 32791
0.17550000 0.17549800 8407.81565572 0 212.34263670 0 2433.44351415 0 -242.47544911 0 -562.92616828 0 33633
0.17650000 0.17650100 8165.88313004 0 212.92377834 0 2517.86080114 0 -350.79597988 0 -298.82483123 0 33984
0.17750000 0.17750300 8125.78772888 0 112.80217822 0 2716.06719548 0 -274.02907978 0 -554.21353990 0 34069
