### header ###
fiducial parameters:
Omega_m = 0.31
Omega_nu = 0
Omega_de = 0.69
Omega_k = 0
H_0 = 100
w_de = -1
zeff = 0
beta = 0
fgrowth = 0
b_1 = 2
gamma = 0.55
Lx = 3500 Ly = 3500 Lz = 3500
nx = 700 ny = 700 nz = 700
xoffset = 857.220397 yoffset = 15.9954215 zoffset = 262.898189
bins = 400 dk = 0.001
kx_ny = 0.628318531 ky_ny = 0.628318531 kz_ny = 0.628318531
############################
A(data) = 3.05872968 (not used)
A(ran) = 3.05657026 (used)
Ngal = 186305
weighted Ngal = 0
Nran = 9360983
weighted Nran = 0
SN(data) = 3449.92358
SN(ran) = 68.6390809
SN(data+ran) = 3518.56266
############################
13 columns: k_central k_mean P_0(k) sigma^{lin}_{P_0(k)} P^img_1(k) sigma^{lin}_{P_1(k)} P_2(k) sigma^{lin}_{P_2(k)} P^img_3(k) sigma^{lin}_{P_3(k)} P_4(k) sigma^{lin}_{P_4(k)} N_modes
### header ###
0.00050000 0 0 0 0 0 0 0 0 0 0 0 0
0.00150000 0.00179520 -94.95483502 0 -2139.09583411 0 -2535.60978864 0 -7964.67548195 0 -18897.44478942 0 3
0.00250000 0.00253879 2759.34370079 0 -4198.12451306 0 2216.31910463 0 2014.20096384 0 11960.72681682 0 6
0.00350000 0.00331552 11411.39621559 0 -8303.71598930 0 8019.21511930 0 -22592.58390422 0 -18596.53256935 0 7
0.00450000 0.00420575 21418.27312235 0 -11922.17138481 0 -383.19378342 0 -236.66740488 0 -11582.25410671 0 24
0.00550000 0.00557378 45525.08508654 0 -15382.49330584 0 20450.79031394 0 -23007.02669667 0 -13146.61546894 0 45
0.00650000 0.00659388 61136.66285428 0 -15369.79137051 0 -14548.66183461 0 4213.60288911 0 -13380.30859764 0 40
0.00750000 0.00754703 81683.67313847 0 -9662.39592446 0 55438.10255970 0 -26569.97575887 0 4910.01740515 0 57
0.00850000 0.00846663 78947.92356357 0 1751.07981152 0 5609.11843672 0 8511.33080830 0 -30098.07880381 0 75
0.00950000 0.00948925 87083.45693663 0 6000.59657972 0 47501.86592410 0 25008.31215282 0 -12331.33107142 0 112
0.01050000 0.01054430 76521.29188376 0 6635.31116390 0 42253.49369129 0 -2285.58399443 0 4062.28124897 0 105
0.01150000 0.01145670 74409.84805045 0 4741.49756939 0 28721.09908926 0 29277.73611346 0 -6310.90598380 0 144
0.01250000 0.01249090 74079.48532547 0 -297.77607851 0 39332.27337932 0 10318.28789461 0 4258.35191968 0 169
0.01350000 0.01339930 78438.04764641 0 3285.32747045 0 31503.49736470 0 9617.24223047 0 -23208.23434476 0 180
0.01450000 0.01448870 76075.48767577 0 -1164.74498809 0 42652.31197922 0 821.02499785 0 939.50707688 0 267
0.01550000 0.01550050 82155.78046918 0 -1448.67258491 0 35100.28078561 0 -4821.03641397 0 -18431.29500361 0 238
0.01650000 0.01653350 82003.46965177 0 -8145.94221564 0 39982.65743061 0 7826.43795926 0 -5760.74357443 0 315
0.01750000 0.01747870 94617.61549558 0 -6938.61764258 0 26662.03668836 0 29113.28539327 0 -17427.72970634 0 297
0.01850000 0.01844180 97849.75220677 0 -8506.74462280 0 26846.83298638 0 13474.16803124 0 -24545.08493619 0 388
0.01950000 0.01947590 96758.50983381 0 1969.94652191 0 13034.54618115 0 3800.61014061 0 -27935.60241618 0 399
0.02050000 0.02045430 92240.33027248 0 9981.06837268 0 14451.87983182 0 -3150.93425031 0 -23166.30671753 0 462
0.02150000 0.02154770 82340.68917370 0 11556.40061002 0 8538.47697982 0 -11882.26707472 0 -17442.67977182 0 571
0.02250000 0.02255340 74588.12477104 0 10315.52269453 0 23235.09950000 0 -10017.90398512 0 2646.98215609 0 510
0.02350000 0.02348930 72856.39011943 0 82.73827099 0 19322.11657404 0 -4767.37354738 0 -15603.82171873 0 555
0.02450000 0.02439640 70918.16471388 0 2369.25939848 0 36099.23741607 0 -2413.37895259 0 -3297.32124478 0 592
0.02550000 0.02547300 74384.55658630 0 4515.39187994 0 43651.38101619 0 -5660.83667073 0 -604.09392752 0 837
0.02650000 0.02652900 66468.77793503 0 4069.53146870 0 50490.64254696 0 2881.70942465 0 5029.49428177 0 723
0.02750000 0.02749970 73387.62327297 0 4114.11188949 0 74082.74511418 0 2545.27674827 0 29089.23040070 0 826
0.02850000 0.02848090 66644.91893199 0 -539.06676304 0 51819.51227638 0 10082.31291381 0 8876.67443836 0 831
0.02950000 0.02946900 72086.85517038 0 941.76644767 0 64188.16230822 0 16228.35227335 0 18971.29586472 0 996
0.03050000 0.03053250 66291.28805999 0 2694.23785176 0 49479.20879418 0 10079.87369260 0 14443.11212425 0 1041
0.03150000 0.03150510 63767.76197088 0 4636.57733547 0 49206.51060745 0 11679.71054854 0 14031.02986845 0 1036
0.03250000 0.03246190 61770.18592948 0 2913.95885160 0 43439.38234341 0 14754.70296251 0 21712.10373246 0 1059
0.03350000 0.03345080 56568.46239721 0 960.66422968 0 28765.27484664 0 13116.04089895 0 5744.84929429 0 1302
0.03450000 0.03451200 55276.23718917 0 441.33380120 0 27660.09406676 0 12696.87703319 0 10916.54904846 0 1339
0.03550000 0.03553350 54591.00712061 0 2387.45801201 0 19600.99711867 0 5595.67461844 0 6466.98241920 0 1365
0.03650000 0.03647120 51717.33476123 0 2371.13658715 0 21289.00563895 0 2167.59088371 0 11860.23539928 0 1308
0.03750000 0.03744890 50369.69314509 0 2083.02746826 0 16202.38637016 0 -24.25620021 0 7280.45707196 0 1579
0.03850000 0.03847530 51722.84268009 0 -828.09087090 0 17536.31439240 0 -60.10027486 0 10290.11882388 0 1662
0.03950000 0.03950240 51730.14910307 0 -515.43217081 0 14501.33869504 0 217.33460969 0 3221.59298080 0 1683
0.04050000 0.04050350 52053.09299857 0 566.41077001 0 16172.14901969 0 -1196.43238251 0 3122.15818444 0 1822
0.04150000 0.04152450 51583.68342404 0 2438.05218095 0 17008.45343408 0 150.28637621 0 5738.01497865 0 1887
0.04250000 0.04250150 48802.52162018 0 2961.84402371 0 21344.98407959 0 3207.29487307 0 6410.76792490 0 1920
0.04350000 0.04349210 46809.10461954 0 2609.10116312 0 22119.35250844 0 3942.32102437 0 10501.75779584 0 2005
0.04450000 0.04448520 44613.35590575 0 1087.90952002 0 23613.79702313 0 2971.63463050 0 11477.15402237 0 2151
0.04550000 0.04548030 44957.88185066 0 1225.33209553 0 24772.03367445 0 3347.82548851 0 16614.91825199 0 2274
0.04650000 0.04648670 42441.43737151 0 918.14534423 0 24597.69118161 0 2555.16852092 0 14425.68911562 0 2311
0.04750000 0.04749250 42598.69407524 0 612.76608956 0 22758.38350250 0 1354.64454154 0 14393.87807405 0 2568
0.04850000 0.04851840 41796.11161304 0 439.17896845 0 22989.82850105 0 4028.78410980 0 8727.30867145 0 2493
0.04950000 0.04949480 40857.62968351 0 869.19006216 0 16083.46028542 0 1161.72125305 0 1916.29489597 0 2644
0.05050000 0.05050630 38321.85128511 0 1255.26594843 0 14734.91941723 0 1022.50916594 0 -4328.79707781 0 2829
0.05150000 0.05149060 36413.86323003 0 2262.91160191 0 9940.57954875 0 -4247.33608196 0 -6805.33724686 0 2784
0.05250000 0.05249300 35626.34323982 0 1210.92158130 0 12187.33833556 0 -2324.25183295 0 -12638.76286891 0 3055
0.05350000 0.05348950 34477.77354813 0 1063.63870696 0 10761.37186512 0 -3351.90584473 0 -10337.18342849 0 3009
0.05450000 0.05448610 34297.92313643 0 -91.94762373 0 12777.02287290 0 -124.77571937 0 -11530.09748731 0 3336
0.05550000 0.05550870 35553.05419705 0 -522.85662062 0 14166.03008373 0 298.19198259 0 -8089.00831969 0 3349
0.05650000 0.05647670 35581.83026292 0 -132.30583130 0 14829.79050940 0 3346.85879255 0 -5499.94923682 0 3324
0.05750000 0.05747970 36932.95648079 0 -122.90077883 0 16626.60852875 0 4167.10031704 0 -19.70497314 0 3639
0.05850000 0.05849280 36492.32297213 0 919.76512200 0 16247.57378610 0 4161.62612013 0 2205.96646531 0 3846
0.05950000 0.05951020 36320.67823547 0 245.37553700 0 14644.65699186 0 5995.26851128 0 7057.71233707 0 3787
0.06050000 0.06049470 35022.83270207 0 340.01057551 0 12676.98108140 0 3367.91253137 0 4759.67370163 0 3930
0.06150000 0.06148310 35251.24272492 0 481.56521423 0 12381.80159320 0 906.69112113 0 7555.78557096 0 4083
0.06250000 0.06249100 34344.57183696 0 243.69843191 0 11404.20219913 0 81.56227411 0 3925.52749218 0 4303
0.06350000 0.06350600 34545.55467203 0 543.65744480 0 11355.86740098 0 -1702.74501338 0 4044.63342733 0 4470
0.06450000 0.06451750 33950.36221583 0 563.47358797 0 11306.07131825 0 -3154.43009269 0 892.63243926 0 4479
0.06550000 0.06550280 34192.82305209 0 783.13388830 0 11896.31788813 0 -1676.45313132 0 1451.68507930 0 4636
0.06650000 0.06648880 33077.63809307 0 656.92611002 0 14013.04482728 0 -1094.46057127 0 -642.42904277 0 4653
0.06750000 0.06749660 32803.59102825 0 415.09137800 0 12842.66827317 0 1148.29991608 0 -1318.43840554 0 5220
0.06850000 0.06852730 32429.50217192 0 484.91830034 0 15255.36154607 0 1734.74714601 0 1037.06468457 0 5029
0.06950000 0.06949320 32197.27032782 0 639.07370853 0 13199.55893388 0 1077.57711387 0 -423.32740279 0 5040
0.07050000 0.07048030 31415.48306948 0 552.43751709 0 14345.99290193 0 2226.17715532 0 3237.29616987 0 5475
0.07150000 0.07148790 30707.88410597 0 1033.69810968 0 11649.58560458 0 828.73046392 0 -956.76147575 0 5509
0.07250000 0.07249820 30159.56516331 0 658.06591200 0 12764.09612456 0 1460.77876575 0 1833.82224156 0 5916
0.07350000 0.07351270 28736.94840679 0 925.35060135 0 11602.71209104 0 742.15384793 0 -104.70992135 0 5721
0.07450000 0.07449140 28296.65211766 0 921.02969521 0 9990.84773882 0 588.47953959 0 1397.70747449 0 6028
0.07550000 0.07549160 27284.54392584 0 766.26954001 0 10624.49446117 0 1101.33198106 0 659.79809628 0 6183
0.07650000 0.07648840 26863.35674295 0 627.14288184 0 10557.18544459 0 1162.58678315 0 1385.54509040 0 6330
0.07750000 0.07749960 26450.03801557 0 87.77160957 0 10820.02558064 0 877.05514548 0 1084.79585977 0 6583
0.07850000 0.07848650 26452.17373921 0 -120.47504640 0 10656.41790925 0 541.17101286 0 1804.10196102 0 6549
0.07950000 0.07947320 26576.72014931 0 138.08015358 0 10434.01039388 0 634.99110418 0 1609.14411474 0 6828
0.08050000 0.08048110 26880.10531254 0 -110.46648340 0 9847.01237206 0 -395.91145566 0 -125.91327323 0 7147
0.08150000 0.08149960 26566.71597016 0 117.66263559 0 10704.05578705 0 -116.16762904 0 -56.26327873 0 7386
0.08250000 0.08250610 26739.25995888 0 578.40117214 0 9395.49791350 0 -982.53853601 0 -1485.58688191 0 7227
0.08350000 0.08350160 25923.41352883 0 483.04898012 0 9204.76655190 0 480.00163971 0 -2658.09915966 0 7798
0.08450000 0.08449610 25350.14034155 0 969.88830767 0 8246.51231773 0 -1545.22977469 0 -2733.95107079 0 7371
0.08550000 0.08548940 24687.05435492 0 807.95549324 0 9503.47560442 0 30.70372507 0 -3967.03921533 0 8256
0.08650000 0.08650700 24133.78952595 0 847.63723845 0 8977.93022014 0 34.16854325 0 -2137.67951212 0 8037
0.08750000 0.08749060 23651.79042260 0 449.12019996 0 9871.92165408 0 693.81342946 0 -2634.42634922 0 8155
0.08850000 0.08849210 23468.79262870 0 149.16455927 0 9025.86035486 0 1160.50726277 0 -973.34255964 0 8718
0.08950000 0.08949900 23111.45234196 0 379.73728332 0 9598.45910310 0 1272.55406926 0 -1129.42686350 0 8571
0.09050000 0.09049190 22684.08280117 0 570.05498898 0 10299.39236073 0 307.82971653 0 624.14387623 0 8932
0.09150000 0.09150830 22077.98691375 0 935.16706163 0 9812.79583124 0 419.62360837 0 631.16366261 0 9285
0.09250000 0.09250820 21274.61760601 0 955.55872612 0 11055.98932078 0 296.17540985 0 1626.03881279 0 9204
0.09350000 0.09350330 20238.34201512 0 982.97579732 0 9157.07247084 0 565.77567324 0 1749.76465539 0 9349
0.09450000 0.09448040 19710.81827631 0 476.23714578 0 10713.29560195 0 1196.17384754 0 2050.08112097 0 9564
0.09550000 0.09549270 19094.26858372 0 261.53509649 0 9091.38210797 0 1381.03758946 0 2156.23782647 0 10155
0.09650000 0.09649430 18839.89265768 0 -2.92470491 0 8257.28086113 0 1368.35813544 0 1270.08112609 0 9913
0.09750000 0.09749140 18731.87000415 0 -85.57799658 0 6989.49282778 0 1928.52472396 0 1966.01229415 0 10476
0.09850000 0.09850240 18691.51606803 0 224.32179818 0 5477.23188169 0 834.76894150 0 1209.74131297 0 10575
0.09950000 0.09950330 18151.51520691 0 469.97610332 0 5010.77859831 0 1215.84498632 0 987.48779452 0 10882
0.10050000 0.10051200 17641.07725722 0 670.69590717 0 4437.94379640 0 461.91655675 0 999.01732998 0 10875
0.10150000 0.10150300 16984.51084802 0 557.60372016 0 3777.29703099 0 363.25174496 0 388.03962795 0 11118
0.10250000 0.10250800 16765.76778480 0 169.41459156 0 3385.04328308 0 7.58792259 0 1119.81610712 0 11575
0.10350000 0.10349800 16718.66945823 0 32.89081848 0 3837.79421323 0 123.69324471 0 803.82230597 0 11364
0.10450000 0.10450100 16703.49457975 0 -65.52355162 0 3748.63337163 0 115.54826919 0 1017.81169800 0 12093
0.10550000 0.10551000 17013.06210088 0 45.50631320 0 4223.08999833 0 -232.37010411 0 421.48843233 0 12067
0.10650000 0.10649700 16834.44816076 0 94.47890587 0 4385.40499489 0 -592.59811402 0 885.77676638 0 12054
0.10750000 0.10749900 16834.78538028 0 227.00269338 0 5198.05908014 0 -411.77875823 0 337.64217040 0 12807
0.10850000 0.10850100 16909.98533367 0 143.08449128 0 5566.08922572 0 -345.72869453 0 892.62906707 0 12736
0.10950000 0.10950300 16477.78231307 0 265.62669336 0 5658.95948206 0 72.79119435 0 118.03919739 0 12933
0.11050000 0.11050200 16417.98205118 0 239.28760057 0 5119.20591526 0 226.89927940 0 58.02345223 0 13428
0.11150000 0.11150900 16157.64858025 0 203.17026570 0 5505.59204348 0 8.37213783 0 -136.03323108 0 13453
0.11250000 0.11250000 16028.60590986 0 366.96340783 0 5191.69687182 0 301.12129617 0 -153.21456572 0 13668
0.11350000 0.11349100 15700.04168899 0 248.12387611 0 4724.25441117 0 6.50309863 0 -250.99136611 0 13791
0.11450000 0.11448600 15446.56501501 0 377.77241757 0 5298.13459359 0 -276.94378051 0 -586.23365757 0 14205
0.11550000 0.11549300 15246.14421247 0 412.42734378 0 5429.35795023 0 -356.55568932 0 151.12043249 0 14776
0.11650000 0.11649800 15093.83339507 0 236.26161739 0 5193.50661659 0 228.59774172 0 -258.92838959 0 14553
0.11750000 0.11747300 14951.75156983 0 136.52894378 0 5644.56020847 0 -54.66362172 0 148.42380038 0 14568
0.11850000 0.11849100 14894.53665761 0 62.55905480 0 4977.29269978 0 396.41728494 0 -299.28457384 0 16015
0.11950000 0.11950300 14868.00872188 0 -3.30366097 0 5397.35581760 0 818.67457778 0 -93.94845956 0 15270
0.12050000 0.12050700 14900.49420249 0 11.33585904 0 4926.54116173 0 277.36418085 0 514.29349290 0 15999
0.12150000 0.12150000 14863.73727460 0 -42.46796531 0 4206.43135395 0 994.54467505 0 381.26376369 0 15670
0.12250000 0.12250700 14977.82987952 0 -64.50166406 0 4303.73042668 0 1090.23408659 0 1642.36023765 0 16887
0.12350000 0.12352200 14705.80613183 0 79.32931884 0 3504.00308977 0 1286.99830544 0 1112.20393845 0 16407
0.12450000 0.12449800 14614.53204790 0 123.63366926 0 3631.87673248 0 979.58112080 0 1607.28940737 0 16306
0.12550000 0.12549900 14275.51402185 0 402.52433048 0 2922.25445184 0 234.82393816 0 1545.84801048 0 17523
0.12650000 0.12650100 14064.63941414 0 457.48774036 0 3156.41968787 0 -57.26144851 0 1401.13587297 0 17154
0.12750000 0.12750600 13553.52702540 0 344.16961628 0 3066.53944462 0 -252.54145184 0 2057.26389679 0 18007
0.12850000 0.12850300 13336.69487280 0 219.81766943 0 3023.22921735 0 -380.34989878 0 1813.71271740 0 17496
0.12950000 0.12949900 13278.58070852 0 115.21329780 0 3262.31785840 0 -174.47513252 0 2051.84590313 0 18405
0.13050000 0.13049000 13360.41264584 0 57.21637351 0 3609.44039363 0 37.25140412 0 1273.17230505 0 18100
0.13150000 0.13148800 13306.45752233 0 76.91235412 0 3924.65072142 0 -61.35338260 0 1887.06920407 0 19059
0.13250000 0.13249300 13477.65263297 0 67.30946620 0 3677.77230942 0 79.75286656 0 1675.46395406 0 18957
0.13350000 0.13349100 13338.60578342 0 73.33198205 0 4224.88850245 0 249.36596801 0 1796.89670390 0 19468
0.13450000 0.13450700 13341.97797864 0 149.32305244 0 3726.69162140 0 397.92802840 0 2122.80813120 0 19953
0.13550000 0.13551000 12976.88164290 0 293.40234132 0 3568.64807212 0 862.77165060 0 1976.01647330 0 19956
0.13650000 0.13649900 12718.00945657 0 269.38331883 0 3166.65992068 0 596.34911917 0 1734.45488909 0 19723
0.13750000 0.13749600 12375.16960927 0 362.43679778 0 2243.31914769 0 607.30875363 0 1270.10360740 0 20946
0.13850000 0.13851100 11903.96153063 0 386.06239749 0 2259.32583433 0 139.94610160 0 629.28759800 0 20955
0.13950000 0.13949800 11573.71121215 0 324.71991832 0 2015.45991672 0 -560.31608918 0 782.45495299 0 20506
0.14050000 0.14048300 11328.32780669 0 239.49892480 0 2334.82928529 0 -625.19824927 0 258.86544194 0 21447
0.14150000 0.14148400 11375.20132024 0 179.76835495 0 2452.97976512 0 -637.76192459 0 -21.73357338 0 21771
0.14250000 0.14249400 11166.26010445 0 35.20436921 0 2688.19038167 0 -365.31440437 0 146.05314714 0 22470
0.14350000 0.14350900 11312.70330218 0 73.84646664 0 2890.47713222 0 -115.34706154 0 -234.99816825 0 22519
0.14450000 0.14449900 11247.17030842 0 59.09457384 0 3350.10734061 0 24.84700881 0 21.35802323 0 22218
0.14550000 0.14550500 11118.01523152 0 196.03357655 0 3199.01051348 0 21.48841478 0 -168.91438260 0 23559
0.14650000 0.14650700 11007.64328199 0 236.68988618 0 3275.48066041 0 -193.14810151 0 -402.49510479 0 23044
0.14750000 0.14750500 10966.28892795 0 182.94271471 0 3681.21194854 0 -321.01612390 0 153.52930394 0 23649
0.14850000 0.14849900 10820.22791235 0 144.06017977 0 3813.72798001 0 -409.38562369 0 -287.87643742 0 23640
0.14950000 0.14949500 10775.15290292 0 133.45912206 0 4071.94820860 0 -62.53185242 0 91.00902939 0 24457
0.15050000 0.15050000 10643.56984546 0 137.21911973 0 4206.45383525 0 65.65338113 0 -51.07358269 0 24591
0.15150000 0.15149900 10544.97809790 0 193.90796950 0 3808.42239287 0 609.88061452 0 125.33325565 0 25020
0.15250000 0.15250500 10295.13215410 0 240.19584515 0 3767.10176078 0 593.46364412 0 -355.73062555 0 25297
0.15350000 0.15350100 10057.75209197 0 260.50882508 0 3236.86902515 0 277.47658736 0 -568.77467886 0 25452
0.15450000 0.15450400 9763.30324607 0 216.88273553 0 2900.97590000 0 400.42907319 0 -508.17295857 0 26061
0.15550000 0.15549900 9550.57393098 0 177.64499602 0 2954.84109831 0 14.49290821 0 -435.67525762 0 26128
0.15650000 0.15649500 9330.17849210 0 73.57725305 0 2248.70341939 0 69.76285063 0 -813.49600999 0 26331
0.15750000 0.15749700 9428.84892422 0 46.21897046 0 2740.65049863 0 265.59072328 0 -578.38318710 0 27345
0.15850000 0.15849900 9239.18542443 0 73.26397611 0 2428.80112540 0 76.42383544 0 -463.40144671 0 26980
0.15950000 0.15949700 9425.54417290 0 135.32282196 0 2890.51085417 0 304.78012799 0 -60.72851483 0 27777
0.16050000 0.16050000 9215.88355547 0 170.81742477 0 2731.98395691 0 78.53955072 0 490.94328913 0 28224
0.16150000 0.16150500 9161.87222871 0 197.68258002 0 3017.74377980 0 139.91125558 0 925.61812883 0 28075
0.16250000 0.16249700 9077.94953035 0 53.52494381 0 3076.12771969 0 299.09011059 0 1155.40400734 0 28590
0.16350000 0.16349900 9061.03235100 0 -17.56790062 0 2648.79190085 0 381.34132418 0 1274.19520426 0 29163
0.16450000 0.16449100 9154.21734556 0 -58.31638359 0 2396.51797650 0 279.39761457 0 840.79393029 0 28996
0.16550000 0.16550500 9147.04581039 0 -59.61636484 0 2526.48238025 0 -18.31405502 0 370.86503770 0 30777
0.16650000 0.16650700 9077.97201165 0 60.18480455 0 1959.31286632 0 -263.34259313 0 69.31614717 0 29211
0.16750000 0.16749900 9064.05608604 0 233.44808251 0 2277.76050153 0 -270.46017317 0 -170.42287793 0 30922
0.16850000 0.16850800 8865.27641852 0 255.92938397 0 2049.29427542 0 -342.23734842 0 -469.83896738 0 30867
0.16950000 0.16949900 8711.63920433 0 210.58684705 0 2315.51784733 0 17.36804185 0 -564.21659499 0 30852
0.17050000 0.17049200 8613.53080475 0 149.53325261 0 2435.08464916 0 -79.56076384 0 -794.99502295 0 31257
0.17150000 0.17149500 8411.97469649 0 82.33776660 0 2191.08384374 0 182.50095714 0 -767.15979954 0 32608
0.17250000 0.17250900 8393.25901302 0 45.39165856 0 2342.41672453 0 149.67488481 0 -709.33564405 0 32361
0.17350000 0.17350400 8455.21747985 0 81.12265226 0 2241.23962730 0 -4.64060149 0 -794.81742067 0 32508
0.17450000 0.17449800 8354.23147368 0 69.73519863 0 2161.40852581 0 118.88112213 0 -785.18418299 0 32791
0.17550000 0.17549800 8255.85329849 0 125.39957549 0 2210.48520690 0 56.09939004 0 -503.79922137 0 33633
0.17650000 0.17650100 8226.24542446 0 122.99182810 0 2084.17401464 0 318.81070823 0 -261.35187389 0 33984
0.17750000 0.17750300 8137.33187718 0 121.25627163 0 2171.03052283 0 356.71530656 0 -5.17199201 0 34069
0.17850000 0.17849800 7986.22380940 0 104.19071569 0 2073.96750377 0 284.33675650 0 146.10485414 0 34536
