### header ###
fiducial parameters:
Omega_m = 0.31
Omega_nu = 0
Omega_de = 0.69
Omega_k = 0
H_0 = 100
w_de = -1
zeff = 0
beta = 0
fgrowth = 0
b_1 = 2
gamma = 0.55
Lx = 3500 Ly = 3500 Lz = 3500
nx = 700 ny = 700 nz = 700
xoffset = 857.220397 yoffset = 15.9954215 zoffset = 262.898189
bins = 400 dk = 0.001
kx_ny = 0.628318531 ky_ny = 0.628318531 kz_ny = 0.628318531
############################
A(data) = 3.09929574 (not used)
A(ran) = 3.09964465 (used)
Ngal = 188963
weighted Ngal = 0
Nran = 9360983
weighted Nran = 0
SN(data) = 3446.21516
SN(ran) = 69.6063698
SN(data+ran) = 3515.82153
############################
13 columns: k_central k_mean P_0(k) sigma^{lin}_{P_0(k)} P^img_1(k) sigma^{lin}_{P_1(k)} P_2(k) sigma^{lin}_{P_2(k)} P^img_3(k) sigma^{lin}_{P_3(k)} P_4(k) sigma^{lin}_{P_4(k)} N_modes
### header ###
0.00050000 0 0 0 0 0 0 0 0 0 0 0 0
0.00150000 0.00179520 4230.00299853 0 -5753.39218885 0 17520.01544884 0 -20948.18910878 0 -9934.46463475 0 3
0.00250000 0.00253879 11727.59572066 0 -6077.42642747 0 -5613.65965961 0 25354.97382136 0 13319.38427067 0 6
0.00350000 0.00331552 18656.89486378 0 -11583.04095226 0 -6822.11953840 0 19362.92013619 0 23463.17230333 0 7
0.00450000 0.00420575 26586.49951545 0 -13051.63197026 0 -21406.35803258 0 20252.39282853 0 2266.20511257 0 24
0.00550000 0.00557378 52157.85586338 0 -26737.12423524 0 -48199.79792798 0 31041.84383918 0 4957.19441627 0 45
0.00650000 0.00659388 54502.76801237 0 -17595.32780874 0 -65356.51554520 0 14707.04260341 0 -25713.77539269 0 40
0.00750000 0.00754703 75280.43644956 0 -12572.66784261 0 -71079.91767790 0 -20077.93792919 0 -11462.31636341 0 57
0.00850000 0.00846663 71652.06680011 0 1187.60847168 0 -55311.42042596 0 -26994.75995000 0 -6001.91173586 0 75
0.00950000 0.00948925 68980.61374738 0 6030.92385540 0 -41721.92331822 0 -36742.09023138 0 10082.41407967 0 112
0.01050000 0.01054430 58071.89943248 0 4670.68146979 0 -29910.58474962 0 -34778.57336169 0 -2858.82345976 0 105
0.01150000 0.01145670 59421.00233321 0 -2379.90429472 0 -9968.74861948 0 -11703.65313460 0 6293.83143534 0 144
0.01250000 0.01249090 58618.98190355 0 -4429.17608883 0 -8884.76770689 0 -3735.36940376 0 -1.00426784 0 169
0.01350000 0.01339930 67098.02956295 0 -6080.42768122 0 -18754.46371212 0 12825.35767105 0 19369.43971361 0 180
0.01450000 0.01448870 68319.77589091 0 -744.98874004 0 -11713.20768772 0 2086.42214478 0 21567.99859009 0 267
0.01550000 0.01550050 71560.00587062 0 741.84135784 0 7071.20111795 0 -5859.32408134 0 16700.79682357 0 238
0.01650000 0.01653350 71409.83077686 0 1941.57511946 0 -7974.76958631 0 -295.68756561 0 37379.65994084 0 315
0.01750000 0.01747870 72361.57667425 0 2329.40005098 0 13397.95641928 0 -14258.54063925 0 12362.24286093 0 297
0.01850000 0.01844180 70804.63414150 0 2276.44534539 0 3410.06497161 0 -10536.55885050 0 31269.01739046 0 388
0.01950000 0.01947590 74002.48686796 0 -2906.61870667 0 22423.41211072 0 -1715.59307717 0 7472.24505473 0 399
0.02050000 0.02045430 75877.31500338 0 -3423.32893947 0 11769.41094138 0 7476.74131502 0 17745.61530902 0 462
0.02150000 0.02154770 79981.27658527 0 -5989.95168348 0 6707.82460177 0 14107.69110644 0 -7.51920849 0 571
0.02250000 0.02255340 82783.12118647 0 -5240.48129599 0 -687.74685026 0 5904.25296231 0 -9977.47136445 0 510
0.02350000 0.02348930 85839.00449420 0 2966.29532140 0 -5262.95135681 0 -72.07426564 0 -6688.34455405 0 555
0.02450000 0.02439640 78162.76411001 0 3998.53551868 0 -4095.99196052 0 -6220.11524785 0 -17684.46616904 0 592
0.02550000 0.02547300 72286.71394038 0 8262.64265153 0 866.24950793 0 -16444.39758040 0 437.39620124 0 837
0.02650000 0.02652900 66677.06719308 0 7272.80218881 0 10733.23651634 0 -9315.56564615 0 -12900.89484396 0 723
0.02750000 0.02749970 63909.50657660 0 5320.84070807 0 21711.99132595 0 -5449.10777356 0 -1226.99571184 0 826
0.02850000 0.02848090 60543.15649568 0 2244.92656074 0 26843.68560417 0 -6083.94600490 0 -7117.25406399 0 831
0.02950000 0.02946900 60931.97060447 0 -972.29268286 0 29673.29461269 0 8747.33951105 0 2652.09665217 0 996
0.03050000 0.03053250 62667.75189035 0 245.81055019 0 30936.40653533 0 7621.03754845 0 949.98111523 0 1041
0.03150000 0.03150510 62175.86101436 0 -597.30345041 0 26689.35146964 0 7152.24620972 0 -3.72647805 0 1036
0.03250000 0.03246190 61561.22223239 0 3071.20431467 0 27771.93854154 0 3057.96282811 0 5070.17419677 0 1059
0.03350000 0.03345080 59805.20777519 0 3404.29851779 0 21290.35451703 0 2633.59454107 0 4942.53660772 0 1302
0.03450000 0.03451200 54118.33775737 0 3606.28177077 0 22794.57839785 0 1890.66621230 0 5376.70674220 0 1339
0.03550000 0.03553350 53530.22691113 0 2785.17471617 0 27090.19307470 0 -3491.04261948 0 2166.09587716 0 1365
0.03650000 0.03647120 51348.30419773 0 2626.83890998 0 26997.45770617 0 -1495.37748870 0 3283.28167202 0 1308
0.03750000 0.03744890 48750.25259428 0 2049.80010470 0 30330.53546093 0 -5319.95269666 0 2562.95829187 0 1579
0.03850000 0.03847530 49054.19979005 0 1859.93427320 0 33685.86970413 0 -2159.93600056 0 1579.17653990 0 1662
0.03950000 0.03950240 49242.03106376 0 208.40166455 0 34444.72603498 0 3607.73181471 0 1182.38156909 0 1683
0.04050000 0.04050350 50517.95732823 0 -1090.60615213 0 33738.13873003 0 6846.15204966 0 -4591.98567402 0 1822
0.04150000 0.04152450 49390.96968595 0 -1196.09516298 0 25683.42563572 0 10192.32516252 0 -3956.86642642 0 1887
0.04250000 0.04250150 51125.73931326 0 -464.17030722 0 22060.33909211 0 8953.20078854 0 -8130.35143308 0 1920
0.04350000 0.04349210 49201.56472113 0 56.27317050 0 14330.93042996 0 5286.03965341 0 -5839.94519948 0 2005
0.04450000 0.04448520 47931.59600154 0 1793.26597372 0 10932.39836600 0 4656.86671004 0 -6576.48883863 0 2151
0.04550000 0.04548030 44576.93619738 0 1896.81484825 0 8812.79382026 0 2687.10003854 0 -325.27857866 0 2274
0.04650000 0.04648670 42960.19340275 0 2131.01380623 0 6687.87244672 0 1833.76603830 0 359.57942436 0 2311
0.04750000 0.04749250 42070.15867787 0 1433.72251944 0 7585.66322060 0 3736.74076315 0 1864.75651237 0 2568
0.04850000 0.04851840 40012.44515505 0 997.74713644 0 5849.03888592 0 2661.72988985 0 6535.35929760 0 2493
0.04950000 0.04949480 39735.92514707 0 1100.16295338 0 7780.20516280 0 3141.78436061 0 6960.10976677 0 2644
0.05050000 0.05050630 39653.53117721 0 972.15667099 0 10304.99020479 0 -619.31489267 0 13281.39087120 0 2829
0.05150000 0.05149060 37264.44327085 0 1102.16716141 0 8089.99749695 0 -181.59383662 0 11667.45823925 0 2784
0.05250000 0.05249300 39248.08090534 0 1333.86057834 0 13010.04156256 0 -1992.27045426 0 17081.63007034 0 3055
0.05350000 0.05348950 36972.29875835 0 1078.88889781 0 12831.20280943 0 -2688.31402882 0 11988.94085015 0 3009
0.05450000 0.05448610 37985.08138921 0 1210.32582681 0 18188.83416734 0 -1047.21386812 0 16349.86370775 0 3336
0.05550000 0.05550870 35563.28318922 0 1216.44074081 0 19399.67706408 0 -1879.00965749 0 13878.04461200 0 3349
0.05650000 0.05647670 35247.19609066 0 1334.17531656 0 17462.57572361 0 2008.16473439 0 12047.39223395 0 3324
0.05750000 0.05747970 34842.08303832 0 335.64245863 0 18523.91796563 0 2283.14477323 0 9504.12756216 0 3639
0.05850000 0.05849280 34319.95481186 0 -209.22897645 0 14166.70452278 0 2025.49781782 0 4199.66448221 0 3846
0.05950000 0.05951020 35283.39098602 0 -652.46019949 0 15209.38728458 0 787.84484502 0 4380.88625329 0 3787
0.06050000 0.06049470 33710.03710320 0 -139.14127101 0 14021.70012835 0 -1691.61676916 0 527.51587035 0 3930
0.06150000 0.06148310 35632.97522375 0 843.21404239 0 14078.12819502 0 -2473.20169578 0 -1726.10308560 0 4083
0.06250000 0.06249100 34485.52959713 0 1070.84621221 0 16245.43806246 0 -2145.40183917 0 -1419.15463609 0 4303
0.06350000 0.06350600 33092.02612601 0 1482.86664443 0 15721.96095792 0 -4.96241008 0 -150.44149719 0 4470
0.06450000 0.06451750 33061.33914951 0 1095.86790074 0 18218.73429828 0 2976.78284853 0 -372.07790391 0 4479
0.06550000 0.06550280 30989.68721979 0 703.91540227 0 14512.57934577 0 2628.68237670 0 761.14492734 0 4636
0.06650000 0.06648880 31141.43600466 0 836.99346628 0 16772.28736222 0 3042.11351058 0 673.99953442 0 4653
0.06750000 0.06749660 30451.03523676 0 346.92919603 0 15379.57073665 0 2568.00534405 0 2032.60190908 0 5220
0.06850000 0.06852730 29637.66174987 0 287.96299043 0 13292.74392844 0 1130.13502449 0 3024.88159301 0 5029
0.06950000 0.06949320 30076.60916091 0 -6.30522946 0 13695.04681810 0 1396.81946309 0 2533.19304874 0 5040
0.07050000 0.07048030 29516.37512848 0 213.70275544 0 12150.01937513 0 1248.58900190 0 2791.63809034 0 5475
0.07150000 0.07148790 29470.40086699 0 -50.27032579 0 12520.96084925 0 1571.54413805 0 3156.11619030 0 5509
0.07250000 0.07249820 29289.31398371 0 574.72098309 0 11004.38349328 0 1151.66087064 0 3946.72735946 0 5916
0.07350000 0.07351270 29166.67848424 0 1112.80980952 0 12356.51012906 0 1802.39338211 0 5727.19023200 0 5721
0.07450000 0.07449140 27413.02456370 0 1245.66643271 0 12176.09768482 0 -621.84741128 0 5264.05294058 0 6028
0.07550000 0.07549160 27078.05317191 0 793.54947527 0 12881.78573772 0 373.73252770 0 7104.42848151 0 6183
0.07650000 0.07648840 26544.57188822 0 314.79554779 0 12622.91355138 0 -695.99186757 0 5557.38896205 0 6330
0.07750000 0.07749960 26548.05648995 0 -222.40639130 0 11633.06184801 0 655.30970445 0 3932.85639646 0 6583
0.07850000 0.07848650 26898.76479275 0 -205.31835406 0 12151.14344020 0 527.89468028 0 2296.61107280 0 6549
0.07950000 0.07947320 26423.17286033 0 312.97905863 0 9690.76732690 0 141.72774474 0 1409.90358054 0 6828
0.08050000 0.08048110 26202.96851251 0 660.40284329 0 9941.92842683 0 501.99397287 0 -804.71368957 0 7147
0.08150000 0.08149960 24843.07458707 0 900.20638973 0 8574.32341500 0 493.90182840 0 72.82952496 0 7386
0.08250000 0.08250610 24183.92282821 0 916.83918061 0 8426.22784162 0 949.59668497 0 -1699.73251899 0 7227
0.08350000 0.08350160 23202.72642590 0 827.58166942 0 8132.84685754 0 461.72434162 0 -1202.35620544 0 7798
0.08450000 0.08449610 22851.56849706 0 1211.40492928 0 8653.40139289 0 -890.80021319 0 -393.62960356 0 7371
0.08550000 0.08548940 21727.39101745 0 600.89483832 0 8276.47989258 0 -201.13570792 0 -1681.54514610 0 8256
0.08650000 0.08650700 21490.66291306 0 522.87235753 0 11184.06529521 0 -893.88352369 0 1655.18582014 0 8037
0.08750000 0.08749060 21393.76850376 0 48.81421190 0 9842.23509550 0 347.00900465 0 271.80005874 0 8155
0.08850000 0.08849210 21639.26431572 0 -109.41919197 0 10943.86382974 0 1052.27553314 0 1603.49006743 0 8718
0.08950000 0.08949900 21847.66598028 0 42.66861092 0 11175.25262504 0 800.73899547 0 2113.06248701 0 8571
0.09050000 0.09049190 21788.42775092 0 338.94271369 0 11576.40896833 0 723.08071177 0 2292.35086617 0 8932
0.09150000 0.09150830 21546.19172767 0 347.83182028 0 11915.98902691 0 34.34434702 0 2795.59479940 0 9285
0.09250000 0.09250820 20823.53029218 0 503.45525746 0 9581.82294002 0 887.81919262 0 1093.13979481 0 9204
0.09350000 0.09350330 21032.71880228 0 187.74809290 0 10833.68297128 0 230.21976762 0 2463.36612640 0 9349
0.09450000 0.09448040 20014.76547208 0 78.54730677 0 7894.08419536 0 1698.34991895 0 -298.84618846 0 9564
0.09550000 0.09549270 20307.24720410 0 44.43462956 0 8123.30354507 0 1698.19254984 0 1643.31569297 0 10155
0.09650000 0.09649430 19737.68343156 0 227.61643291 0 6262.87468323 0 1630.60251699 0 -424.73810446 0 9913
0.09750000 0.09749140 19690.47269849 0 402.03086591 0 5648.12349475 0 1392.18831499 0 500.82719332 0 10476
0.09850000 0.09850240 19221.73756301 0 560.80393342 0 4934.72435546 0 41.12324626 0 90.54568977 0 10575
0.09950000 0.09950330 18530.54994956 0 618.14136874 0 5179.48952513 0 581.05059352 0 1178.69463565 0 10882
0.10050000 0.10051200 18158.25959735 0 622.48475618 0 5174.31882579 0 -518.63126001 0 1495.69222692 0 10875
0.10150000 0.10150300 17754.72023611 0 358.44636677 0 5480.50291105 0 166.85621945 0 1835.12615704 0 11118
0.10250000 0.10250800 17586.44769466 0 303.02321428 0 5267.41389515 0 960.12130625 0 2599.76018237 0 11575
0.10350000 0.10349800 17266.76358788 0 -57.66285215 0 4755.67202997 0 1188.81122131 0 1970.80081136 0 11364
0.10450000 0.10450100 17107.82078654 0 -99.39758981 0 4212.02919801 0 1188.73253675 0 2512.93739612 0 12093
0.10550000 0.10551000 17157.50446277 0 54.26705157 0 3538.57933142 0 870.01849812 0 1835.39593266 0 12067
0.10650000 0.10649700 16956.40922119 0 297.60746875 0 3301.27795384 0 108.19789527 0 2166.02843326 0 12054
0.10750000 0.10749900 16440.80057216 0 585.99647984 0 3720.98137083 0 -920.72732170 0 944.75196451 0 12807
0.10850000 0.10850100 16372.34500921 0 533.57345703 0 4009.94477917 0 -1337.42386462 0 1215.78878306 0 12736
0.10950000 0.10950300 15915.07533747 0 285.05166189 0 5437.03531468 0 -1152.41399424 0 460.23383133 0 12933
0.11050000 0.11050200 15993.19786005 0 90.42833737 0 4873.49653093 0 -127.11489879 0 1105.93502754 0 13428
0.11150000 0.11150900 15901.13693057 0 -29.91204603 0 5778.02045460 0 213.46782584 0 362.30753030 0 13453
0.11250000 0.11250000 16146.18311650 0 71.84484396 0 5111.46110690 0 258.04150225 0 465.01110790 0 13668
0.11350000 0.11349100 15791.65299245 0 215.17528068 0 5183.04157076 0 529.67182716 0 -44.22420458 0 13791
0.11450000 0.11448600 15838.41409949 0 280.96456128 0 4698.26602668 0 -257.98529899 0 -248.84327775 0 14205
0.11550000 0.11549300 15569.65014051 0 287.30204016 0 5021.72699212 0 -314.31894420 0 -409.68687313 0 14776
0.11650000 0.11649800 15476.12792643 0 262.31182546 0 5233.70318360 0 -170.52516785 0 -153.85528282 0 14553
0.11750000 0.11747300 15080.68183371 0 130.15999107 0 4686.50830602 0 259.53201253 0 -914.11219875 0 14568
0.11850000 0.11849100 15068.31711791 0 -60.69838988 0 4465.00004271 0 1128.90979356 0 -141.01958375 0 16015
0.11950000 0.11950300 15136.21064832 0 11.91947363 0 4481.91722206 0 645.87093003 0 -1570.97086486 0 15270
0.12050000 0.12050700 15008.74166903 0 230.80315739 0 3651.63779647 0 663.64577103 0 -578.12465214 0 15999
0.12150000 0.12150000 14768.19174339 0 267.75342448 0 3887.33176100 0 -387.97105998 0 -1328.72360096 0 15670
0.12250000 0.12250700 14500.32703647 0 328.53162298 0 3940.74733327 0 -693.39752538 0 -312.22256283 0 16887
0.12350000 0.12352200 14412.87477378 0 300.84814836 0 4437.44920777 0 -768.65817829 0 -252.36272550 0 16407
0.12450000 0.12449800 14038.33629143 0 176.07242899 0 4611.73549736 0 -167.52953443 0 -457.91376102 0 16306
0.12550000 0.12549900 13996.18385119 0 329.78832773 0 5046.35525787 0 171.55930772 0 -376.56179949 0 17523
0.12650000 0.12650100 13708.42319247 0 355.38328945 0 4421.92586911 0 416.85616016 0 -1047.30604145 0 17154
0.12750000 0.12750600 13291.61986337 0 283.92310055 0 4767.93557991 0 565.13158396 0 -290.48426839 0 18007
0.12850000 0.12850300 13218.89285314 0 80.95100752 0 4170.01164558 0 627.55653779 0 -486.94723780 0 17496
0.12950000 0.12949900 13042.75185618 0 118.78894879 0 4756.99842675 0 632.47881875 0 222.06355145 0 18405
0.13050000 0.13049000 13062.87262099 0 114.16004882 0 4478.72487726 0 76.25219071 0 407.77146624 0 18100
0.13150000 0.13148800 12945.85744688 0 252.46501542 0 5180.77095931 0 -178.05640384 0 1204.51441038 0 19059
0.13250000 0.13249300 12910.67421009 0 244.52911600 0 5135.05523279 0 -265.12536034 0 1441.90571317 0 18957
0.13350000 0.13349100 12772.07698658 0 -2.95068206 0 5631.25127801 0 -61.51389909 0 1654.62378760 0 19468
0.13450000 0.13450700 13086.25317451 0 -17.05285400 0 5566.76366476 0 88.28924154 0 2122.72944664 0 19953
0.13550000 0.13551000 12972.49778911 0 -8.28148198 0 5606.12842362 0 441.46756494 0 1722.96694405 0 19956
0.13650000 0.13649900 13169.32158341 0 10.55307137 0 5695.57028149 0 388.03850388 0 2216.28538268 0 19723
0.13750000 0.13749600 12883.02220930 0 220.30214148 0 4970.26729307 0 195.07137685 0 1259.70600547 0 20946
0.13850000 0.13851100 12754.87879096 0 283.95794657 0 4790.61921309 0 198.99998428 0 1868.15118889 0 20955
0.13950000 0.13949800 12343.02134818 0 415.84337753 0 4507.93932851 0 -64.09464009 0 453.11400316 0 20506
0.14050000 0.14048300 12177.44656291 0 389.32443433 0 4551.85655091 0 -321.62649124 0 503.87790593 0 21447
0.14150000 0.14148400 11776.26773832 0 351.06463144 0 4570.54975308 0 -312.97231424 0 -482.80168581 0 21771
0.14250000 0.14249400 11423.31130537 0 215.49339110 0 4575.43943615 0 -426.60292841 0 -1358.65745385 0 22470
0.14350000 0.14350900 11394.08561347 0 132.31482382 0 4452.50043910 0 -391.13193097 0 -1697.92277422 0 22519
0.14450000 0.14449900 11304.72244016 0 79.39620071 0 4534.99557482 0 103.92554874 0 -2388.70572424 0 22218
0.14550000 0.14550500 11269.65160988 0 65.97194117 0 4790.39440007 0 54.06696798 0 -1682.66921118 0 23559
0.14650000 0.14650700 11183.69435374 0 55.48261554 0 4414.36091117 0 699.73500426 0 -1863.67740990 0 23044
0.14750000 0.14750500 11137.20302231 0 67.10128935 0 4630.40621822 0 675.88234341 0 -674.38059248 0 23649
0.14850000 0.14849900 11014.50007893 0 141.40401400 0 4080.16512429 0 805.54212553 0 -339.64750249 0 23640
0.14950000 0.14949500 10976.79893638 0 186.13505952 0 4314.21795381 0 687.24214504 0 399.60513349 0 24457
0.15050000 0.15050000 10752.93013642 0 282.80577987 0 4057.23419680 0 162.05084126 0 1068.78130467 0 24591
0.15150000 0.15149900 10492.25944597 0 310.93438426 0 4027.39026911 0 213.60383771 0 1014.44849530 0 25020
0.15250000 0.15250500 10268.80655009 0 239.89571977 0 4073.78043467 0 -98.94436677 0 1390.91812145 0 25297
0.15350000 0.15350100 10068.31830365 0 151.75328113 0 4182.39884269 0 -106.61049057 0 636.06458633 0 25452
0.15450000 0.15450400 10035.43940026 0 134.20550127 0 4392.73389916 0 -203.04549448 0 808.73671847 0 26061
0.15550000 0.15549900 9979.92182630 0 66.41886945 0 4307.88946745 0 241.82011918 0 431.77025555 0 26128
0.15650000 0.15649500 9857.63478700 0 64.23615989 0 4244.45847537 0 -23.72564150 0 616.08770185 0 26331
0.15750000 0.15749700 9964.07250877 0 -36.61540810 0 4202.93551157 0 404.03844614 0 806.22555709 0 27345
0.15850000 0.15849900 9867.66144745 0 -19.51736668 0 4111.61646503 0 390.88126445 0 736.11874255 0 26980
0.15950000 0.15949700 9926.29268167 0 37.63066367 0 3734.47015171 0 434.66697125 0 821.99619007 0 27777
0.16050000 0.16050000 9748.46558710 0 113.61150507 0 3424.07082242 0 271.80343094 0 628.18376610 0 28224
0.16150000 0.16150500 9679.62784203 0 219.94356472 0 3081.84921092 0 56.07612190 0 569.47159920 0 28075
0.16250000 0.16249700 9393.55328092 0 225.17159138 0 2817.51406833 0 58.38967263 0 26.26760225 0 28590
0.16350000 0.16349900 9177.08082915 0 227.46131193 0 2603.25602474 0 123.88883203 0 400.80563498 0 29163
0.16450000 0.16449100 8997.42150851 0 187.50979110 0 2309.04323251 0 140.45305495 0 -40.26299926 0 28996
0.16550000 0.16550500 9029.41240049 0 -0.20302976 0 2208.50685237 0 747.62130044 0 190.94605803 0 30777
0.16650000 0.16650700 8895.31143727 0 43.42319581 0 1731.32998819 0 282.81477239 0 107.45432622 0 29211
0.16750000 0.16749900 8931.92223670 0 43.29786255 0 1894.87021568 0 441.51365161 0 601.84017705 0 30922
0.16850000 0.16850800 8848.65149609 0 94.99563858 0 2284.50489196 0 165.81983145 0 968.47423381 0 30867
0.16950000 0.16949900 8841.27762921 0 197.46563546 0 2279.42411783 0 -138.27461684 0 1133.72079208 0 30852
0.17050000 0.17049200 8766.79707746 0 169.79115336 0 2659.34687189 0 -258.02688940 0 1488.49821045 0 31257
0.17150000 0.17149500 8643.56582350 0 165.85804967 0 2816.41248455 0 -237.91511711 0 1579.03041144 0 32608
0.17250000 0.17250900 8681.89644249 0 95.13940650 0 3352.04073254 0 -163.15916943 0 1948.27454730 0 32361
0.17350000 0.17350400 8567.96120668 0 154.73992203 0 3296.36578947 0 -190.40425867 0 1450.30247926 0 32508
0.17450000 0.17449800 8498.20172825 0 135.88822669 0 3285.21506394 0 108.24948986 0 1506.51697357 0 32791
0.17550000 0.17549800 8291.00281332 0 149.01505861 0 3435.68241463 0 -13.75383542 0 1264.60692919 0 33633
0.17650000 0.17650100 8235.45151741 0 85.69995764 0 2865.46668434 0 283.01373191 0 1122.88143258 0 33984
0.17750000 0.17750300 8118.38014005 0 69.18755413 0 2663.03380533 0 385.66560252 0 617.84573962 0 34069
