### header ###
fiducial parameters:
Omega_m = 0.31
Omega_nu = 0
Omega_de = 0.69
Omega_k = 0
H_0 = 100
w_de = -1
zeff = 0
beta = 0
fgrowth = 0
b_1 = 2
gamma = 0.55
Lx = 3500 Ly = 3500 Lz = 3500
nx = 700 ny = 700 nz = 700
xoffset = 857.220397 yoffset = 15.9954215 zoffset = 262.898189
bins = 400 dk = 0.001
kx_ny = 0.628318531 ky_ny = 0.628318531 kz_ny = 0.628318531
############################
A(data) = 3.05268341 (not used)
A(ran) = 3.0579214 (used)
Ngal = 186967
weighted Ngal = 0
Nran = 9360983
weighted Nran = 0
SN(data) = 3427.75811
SN(ran) = 68.6694225
SN(data+ran) = 3496.42754
############################
13 columns: k_central k_mean P_0(k) sigma^{lin}_{P_0(k)} P^img_1(k) sigma^{lin}_{P_1(k)} P_2(k) sigma^{lin}_{P_2(k)} P^img_3(k) sigma^{lin}_{P_3(k)} P_4(k) sigma^{lin}_{P_4(k)} N_modes
### header ###
0.00050000 0 0 0 0 0 0 0 0 0 0 0 0
0.00150000 0.00179520 5574.71080483 0 -2077.68815916 0 3099.11485044 0 3161.73651566 0 4938.27640109 0 3
0.00250000 0.00253879 10791.76658470 0 -3240.81449355 0 8826.06902877 0 5669.01986446 0 5999.51747725 0 6
0.00350000 0.00331552 13777.66560098 0 1741.33416734 0 15570.88661209 0 2525.52692494 0 -11292.02050483 0 7
0.00450000 0.00420575 17542.04712428 0 6034.37473517 0 19976.32244658 0 5666.67056846 0 -1878.94221359 0 24
0.00550000 0.00557378 15442.63078725 0 3196.36896056 0 23575.12918462 0 12917.08138101 0 7099.17909762 0 45
0.00650000 0.00659388 18211.09065579 0 1775.17976669 0 24912.31699557 0 9618.43373945 0 -768.40975991 0 40
0.00750000 0.00754703 23171.47741687 0 -8581.88837294 0 21142.98958595 0 18948.25253072 0 -4692.88175498 0 57
0.00850000 0.00846663 29002.90220309 0 -8936.50842220 0 17950.64477835 0 13392.44850042 0 5756.46088650 0 75
0.00950000 0.00948925 34152.91874200 0 -7636.23490824 0 8145.05420423 0 8493.26708258 0 3147.44964858 0 112
0.01050000 0.01054430 44815.68761891 0 -9510.46728918 0 2531.63059828 0 4847.02479846 0 -5191.28096774 0 105
0.01150000 0.01145670 48509.36544911 0 -6112.90192118 0 -3385.85260994 0 -4692.74686717 0 2265.08104750 0 144
0.01250000 0.01249090 56925.57787093 0 -2570.18603029 0 1634.46930084 0 -12001.30556596 0 2546.54694180 0 169
0.01350000 0.01339930 55149.21783591 0 4093.68762712 0 -363.17530853 0 -16298.04430788 0 -6419.24337555 0 180
0.01450000 0.01448870 58546.25489332 0 5366.02812401 0 20952.68536907 0 -14188.62379170 0 9956.45134758 0 267
0.01550000 0.01550050 54882.58960057 0 -1856.87681620 0 35556.76361179 0 -5420.51155810 0 -1265.33757149 0 238
0.01650000 0.01653350 64834.05009923 0 -4910.78176940 0 41765.53704306 0 5102.50230827 0 5868.20419542 0 315
0.01750000 0.01747870 72949.91233351 0 -7120.25531774 0 55402.35729037 0 740.93423732 0 1744.42534629 0 297
0.01850000 0.01844180 80497.55967334 0 -2995.95939868 0 51543.32948792 0 3814.49234426 0 3954.24735480 0 388
0.01950000 0.01947590 83161.14427056 0 2469.57096560 0 62603.56777467 0 4627.22511406 0 10231.62247747 0 399
0.02050000 0.02045430 77806.43548183 0 3413.56081399 0 48104.81442931 0 18254.25475459 0 7105.41765877 0 462
0.02150000 0.02154770 78568.88882092 0 2672.71200561 0 55796.45450500 0 18876.76199208 0 5664.00653424 0 571
0.02250000 0.02255340 81393.66434961 0 2363.79644222 0 45663.23268403 0 11724.22352544 0 -2725.63298925 0 510
0.02350000 0.02348930 73753.39404776 0 -1018.44005038 0 37533.43204284 0 15682.84349337 0 -3457.06213232 0 555
0.02450000 0.02439640 78118.13872660 0 3559.50942308 0 40936.65145815 0 529.58527415 0 -6355.90230868 0 592
0.02550000 0.02547300 75677.56863989 0 894.46803753 0 27591.07647128 0 -3249.67212633 0 -10244.54922581 0 837
0.02650000 0.02652900 72845.37428171 0 5618.39197357 0 39689.16404003 0 -2758.99524062 0 -15418.57579469 0 723
0.02750000 0.02749970 71215.03029969 0 5627.57558522 0 27221.14665572 0 -11010.31855686 0 -15928.11449232 0 826
0.02850000 0.02848090 62670.33724002 0 4834.39030704 0 36244.80384304 0 1354.18367486 0 -25166.35570209 0 831
0.02950000 0.02946900 60981.09224816 0 2857.40713777 0 28499.77067637 0 3659.83223085 0 -26332.57321543 0 996
0.03050000 0.03053250 57356.20720043 0 -1144.25328181 0 22759.39516107 0 6811.84558363 0 -29026.95719565 0 1041
0.03150000 0.03150510 58440.36796344 0 -1841.72441902 0 12096.51387765 0 12019.74023316 0 -32574.39415985 0 1036
0.03250000 0.03246190 57079.91200547 0 -1831.97877484 0 8615.91382270 0 4799.83654669 0 -31518.33502367 0 1059
0.03350000 0.03345080 58815.80569785 0 -1476.05481009 0 207.51814941 0 -1622.27319480 0 -38675.03253108 0 1302
0.03450000 0.03451200 56844.19555964 0 1934.76328512 0 1288.97665997 0 -8856.57615485 0 -38533.73755139 0 1339
0.03550000 0.03553350 57350.24965555 0 2917.47717528 0 4798.53263120 0 -12987.33544808 0 -38527.21797396 0 1365
0.03650000 0.03647120 54155.99393732 0 4090.56272621 0 10330.33787219 0 -13593.76855502 0 -37227.12431042 0 1308
0.03750000 0.03744890 54970.82870881 0 1271.37380093 0 14751.21836079 0 -5143.98030947 0 -32293.15307856 0 1579
0.03850000 0.03847530 54332.92177983 0 -1825.84137954 0 16734.40636926 0 2133.56543395 0 -27269.14423434 0 1662
0.03950000 0.03950240 56559.46987662 0 -2398.14787085 0 15920.13363030 0 10084.10017728 0 -25256.61812746 0 1683
0.04050000 0.04050350 56306.10560914 0 -860.24138012 0 15909.00538608 0 9026.19757438 0 -20056.35587979 0 1822
0.04150000 0.04152450 57012.01847505 0 1108.01679605 0 16029.28034890 0 7293.11404468 0 -9679.72900788 0 1887
0.04250000 0.04250150 54419.24997744 0 2912.62121416 0 15757.03178820 0 4597.14513271 0 -1606.60372768 0 1920
0.04350000 0.04349210 53639.48603623 0 2997.48812718 0 12617.96766506 0 458.76243015 0 5618.24584511 0 2005
0.04450000 0.04448520 49979.64256473 0 3545.46985032 0 17649.84496479 0 -2943.88146384 0 8102.62074772 0 2151
0.04550000 0.04548030 48440.34785363 0 2379.10620852 0 19058.41090789 0 -449.78677055 0 8531.58646092 0 2274
0.04650000 0.04648670 47607.07841494 0 1945.38570006 0 20083.44584805 0 -167.38677817 0 13996.07144468 0 2311
0.04750000 0.04749250 44890.32553976 0 463.58354525 0 17658.94989188 0 4742.16076779 0 6862.25990216 0 2568
0.04850000 0.04851840 46368.13389137 0 -83.06290098 0 14499.31537791 0 7069.94216507 0 10238.73780939 0 2493
0.04950000 0.04949480 44240.95314703 0 1598.20696158 0 12288.72900515 0 5914.61684228 0 3222.05384748 0 2644
0.05050000 0.05050630 43314.61112029 0 1970.33994468 0 11657.90368613 0 3003.41195011 0 7288.69646894 0 2829
0.05150000 0.05149060 38662.66781527 0 2837.92709005 0 7997.62182924 0 1688.52559021 0 3964.94845429 0 2784
0.05250000 0.05249300 38715.72368672 0 1581.85181477 0 10644.12063735 0 2320.95832228 0 9452.69034442 0 3055
0.05350000 0.05348950 36934.86739141 0 555.12403261 0 10134.50325516 0 1912.85525684 0 7531.67437514 0 3009
0.05450000 0.05448610 36907.32779712 0 -497.19871126 0 8332.95292185 0 2629.52542550 0 8453.77867656 0 3336
0.05550000 0.05550870 37371.79148533 0 -285.19104596 0 9356.76263108 0 1782.05904494 0 9473.71036129 0 3349
0.05650000 0.05647670 37323.56909369 0 -209.34363108 0 10419.46499184 0 -1416.38943601 0 10224.66451467 0 3324
0.05750000 0.05747970 37963.38693330 0 412.03954133 0 8807.67932417 0 124.48908278 0 8879.45087909 0 3639
0.05850000 0.05849280 37352.90719210 0 757.21856804 0 12685.74878897 0 -1554.13237007 0 6931.06392528 0 3846
0.05950000 0.05951020 37893.24527274 0 563.84677758 0 12112.47560169 0 -2488.19672386 0 8397.72155136 0 3787
0.06050000 0.06049470 37555.46371827 0 -514.03833012 0 15579.09228712 0 -362.01302525 0 3862.65853264 0 3930
0.06150000 0.06148310 38746.63547623 0 -345.92203373 0 13234.96698368 0 -128.45928062 0 5658.29628366 0 4083
0.06250000 0.06249100 37793.09107472 0 -482.56900434 0 12356.06050303 0 2712.41398399 0 951.79760439 0 4303
0.06350000 0.06350600 38699.19993015 0 170.67242037 0 12541.75605310 0 1846.09703215 0 2433.26366374 0 4470
0.06450000 0.06451750 38339.04948073 0 551.29097071 0 8134.88141532 0 3326.32212366 0 -1725.42864656 0 4479
0.06550000 0.06550280 36420.15799444 0 1682.62424857 0 8358.36803315 0 -74.96075234 0 -454.11104888 0 4636
0.06650000 0.06648880 35532.82102574 0 1655.43311445 0 6087.99263916 0 497.05145874 0 -2137.45469910 0 4653
0.06750000 0.06749660 33598.64225445 0 1224.48904673 0 6650.48604239 0 -96.07238051 0 -1943.14881056 0 5220
0.06850000 0.06852730 33261.53513903 0 571.44320934 0 4602.64181091 0 655.97290284 0 -453.97616107 0 5029
0.06950000 0.06949320 32506.72544245 0 483.25693216 0 6276.95921860 0 -322.29081369 0 -2263.51859705 0 5040
0.07050000 0.07048030 32046.64560803 0 589.18770059 0 4073.36453060 0 -20.05523181 0 -1350.54170403 0 5475
0.07150000 0.07148790 31994.82620816 0 521.80112352 0 5780.35850995 0 -454.13465425 0 -1002.66154894 0 5509
0.07250000 0.07249820 31013.18017982 0 720.67633658 0 4327.93154770 0 71.76042667 0 833.09633267 0 5916
0.07350000 0.07351270 30833.10495511 0 558.62661938 0 5802.14289107 0 1232.76216567 0 -201.31668240 0 5721
0.07450000 0.07449140 29939.02359597 0 453.67715976 0 4909.55653847 0 1575.43340320 0 180.89804034 0 6028
0.07550000 0.07549160 29902.15426157 0 759.43522436 0 5291.89603244 0 -1150.24454865 0 754.00036973 0 6183
0.07650000 0.07648840 29191.18310283 0 878.66480667 0 4937.59072140 0 -372.42299189 0 -972.51412368 0 6330
0.07750000 0.07749960 28624.87911901 0 907.21943172 0 8889.24148588 0 -1720.83122041 0 1251.01698245 0 6583
0.07850000 0.07848650 27440.00212545 0 1124.91936255 0 6498.88338598 0 -135.20367106 0 448.90325540 0 6549
0.07950000 0.07947320 26934.06043605 0 1146.36652415 0 10148.19436775 0 891.87594347 0 3149.05706164 0 6828
0.08050000 0.08048110 25594.28727542 0 712.48864658 0 7042.39133012 0 2504.81040564 0 2652.25402128 0 7147
0.08150000 0.08149960 25453.66673478 0 491.18046686 0 9429.10745918 0 3236.18334545 0 4336.40699835 0 7386
0.08250000 0.08250610 24876.90894577 0 90.30064358 0 6791.98335379 0 1604.89514877 0 5129.26629766 0 7227
0.08350000 0.08350160 24699.19425771 0 -260.36831695 0 6777.43795174 0 1803.43876263 0 5916.13433013 0 7798
0.08450000 0.08449610 24625.56799543 0 -9.99532152 0 5827.11961699 0 1394.63877684 0 7045.15653020 0 7371
0.08550000 0.08548940 24279.69317243 0 259.82089726 0 3730.38979549 0 881.36481097 0 4563.45690247 0 8256
0.08650000 0.08650700 23935.72926007 0 459.08728496 0 3547.89783087 0 848.61854726 0 5203.31970468 0 8037
0.08750000 0.08749060 22973.97918352 0 993.63305828 0 2660.01007028 0 324.23432221 0 3410.24482202 0 8155
0.08850000 0.08849210 22377.43784923 0 1280.87215080 0 1967.09139662 0 260.71902525 0 3820.91075583 0 8718
0.08950000 0.08949900 20794.86663281 0 872.17670306 0 2246.09558842 0 -560.31946138 0 2233.50605960 0 8571
0.09050000 0.09049190 20538.80460916 0 807.60928120 0 1681.16296398 0 -404.35206029 0 2567.69060583 0 8932
0.09150000 0.09150830 19961.37238111 0 324.66596319 0 3106.33134821 0 -1025.44747204 0 1836.38510992 0 9285
0.09250000 0.09250820 19750.94739942 0 471.57902012 0 3512.61342823 0 -866.20566940 0 1854.06665352 0 9204
0.09350000 0.09350330 19616.95884271 0 222.23665747 0 3688.29355850 0 -677.79437810 0 684.66129163 0 9349
0.09450000 0.09448040 19456.66716329 0 344.50346360 0 3895.90837750 0 -772.65310556 0 485.29261401 0 9564
0.09550000 0.09549270 19157.44104083 0 66.03871064 0 4083.02024957 0 281.80086570 0 464.09836706 0 10155
0.09650000 0.09649430 19446.32576461 0 261.13830152 0 3832.76964235 0 -290.63152091 0 -608.39010423 0 9913
0.09750000 0.09749140 18863.49802421 0 451.40654832 0 3931.63116553 0 -501.83435562 0 -345.44543013 0 10476
0.09850000 0.09850240 18706.91575953 0 595.16323051 0 4325.61597365 0 -186.39359449 0 -1057.73062094 0 10575
0.09950000 0.09950330 18189.17138686 0 234.13938253 0 4006.34777094 0 199.62608853 0 -473.15383528 0 10882
0.10050000 0.10051200 18184.56272006 0 196.27412648 0 3798.96900560 0 193.17283094 0 -935.12097496 0 10875
0.10150000 0.10150300 17825.31152270 0 201.49540874 0 4068.01398085 0 237.00350034 0 -1234.49322588 0 11118
0.10250000 0.10250800 17805.75279043 0 339.93189095 0 4593.36827406 0 -784.79300835 0 -645.11218610 0 11575
0.10350000 0.10349800 17629.27457395 0 195.17029458 0 4760.30317807 0 -391.04987422 0 -933.26289540 0 11364
0.10450000 0.10450100 17496.74730183 0 270.26008959 0 5433.40458449 0 -828.90469401 0 -240.93772809 0 12093
0.10550000 0.10551000 17647.25961512 0 48.26184632 0 6861.79903548 0 -487.34628090 0 260.21207190 0 12067
0.10650000 0.10649700 17405.69803091 0 -18.33372616 0 7208.95529266 0 100.37192942 0 552.40941546 0 12054
0.10750000 0.10749900 17607.24289852 0 24.71785374 0 7514.67851124 0 286.45449510 0 926.89394269 0 12807
0.10850000 0.10850100 17585.54844261 0 107.91114627 0 7554.47041483 0 377.41046862 0 1537.54116959 0 12736
0.10950000 0.10950300 17392.88368908 0 420.43405929 0 7977.22004817 0 391.68384692 0 949.21675098 0 12933
0.11050000 0.11050200 16988.55748228 0 620.95377955 0 8171.54841800 0 367.18260052 0 1293.21438530 0 13428
0.11150000 0.11150900 16427.87382382 0 558.66596166 0 7110.38602640 0 652.88622015 0 1348.08000152 0 13453
0.11250000 0.11250000 15916.53662207 0 483.78973901 0 7291.19189340 0 432.80327136 0 1721.65178791 0 13668
0.11350000 0.11349100 15686.66531462 0 156.62497916 0 6527.91798682 0 1163.92442059 0 1342.69572982 0 13791
0.11450000 0.11448600 15265.25331872 0 191.42378569 0 6784.62072756 0 844.02898957 0 835.78284819 0 14205
0.11550000 0.11549300 15278.40488007 0 200.84682320 0 5454.87422739 0 413.38841941 0 1646.64292558 0 14776
0.11650000 0.11649800 14852.04699784 0 185.12564908 0 5852.33239658 0 238.84921519 0 1056.49302529 0 14553
0.11750000 0.11747300 15084.16643544 0 176.64457811 0 4767.50843519 0 366.68576376 0 1744.16681132 0 14568
0.11850000 0.11849100 14590.02742930 0 -68.14622024 0 4897.09065681 0 143.22837161 0 928.92063202 0 16015
0.11950000 0.11950300 14908.92469054 0 45.66963985 0 4600.20258971 0 121.05393992 0 1174.83909245 0 15270
0.12050000 0.12050700 14795.05689864 0 74.15592175 0 4746.56710287 0 29.06259006 0 561.39856385 0 15999
0.12150000 0.12150000 14768.30414990 0 247.99123643 0 4553.20542900 0 -121.19782025 0 29.20714483 0 15670
0.12250000 0.12250700 14588.00411217 0 193.52353925 0 4558.62342265 0 -481.63153407 0 229.25307166 0 16887
0.12350000 0.12352200 14503.92404471 0 150.21556011 0 4899.00156744 0 367.82219354 0 97.23162882 0 16407
0.12450000 0.12449800 14109.48961055 0 236.36727951 0 4738.40639044 0 341.17623099 0 323.31596104 0 16306
0.12550000 0.12549900 14007.08728240 0 211.20058658 0 3964.22905265 0 711.45113452 0 11.42983088 0 17523
0.12650000 0.12650100 13662.56133749 0 246.40630467 0 3694.26234404 0 993.51952770 0 -332.61872359 0 17154
0.12750000 0.12750600 13437.52350986 0 202.77796699 0 2826.86628973 0 851.28258148 0 -168.36471478 0 18007
0.12850000 0.12850300 13034.54618115 0 124.81168946 0 2666.87810788 0 849.87637608 0 -483.38395151 0 17496
0.12950000 0.12949900 13046.01164490 0 194.79260871 0 1894.83649372 0 -7.24363270 0 -22.46904915 0 18405
0.13050000 0.13049000 12663.60470703 0 265.31307920 0 2220.59055191 0 -92.58665472 0 -125.86381437 0 18100
0.13150000 0.13148800 12600.88187595 0 373.26828882 0 2347.74479298 0 -282.75632101 0 701.16031878 0 19059
0.13250000 0.13249300 12252.64651630 0 239.64168106 0 2548.27800202 0 67.56766395 0 488.43999621 0 18957
0.13350000 0.13349100 12274.22856571 0 245.33169846 0 2972.42147605 0 -180.78113758 0 1054.14710149 0 19468
0.13450000 0.13450700 11996.69689916 0 97.91607205 0 3153.17113980 0 247.19764649 0 781.25332743 0 19953
0.13550000 0.13551000 12136.41818774 0 119.14752555 0 3387.84220511 0 -466.26668858 0 1273.13858309 0 19956
0.13650000 0.13649900 12032.32976197 0 -17.40558562 0 3420.63118330 0 -379.36634185 0 1025.50255123 0 19723
0.13750000 0.13749600 12265.01123211 0 42.45739910 0 4124.79050769 0 -954.50210495 0 489.37297022 0 20946
0.13850000 0.13851100 12280.63573662 0 24.81924441 0 4270.35693466 0 -576.94101161 0 218.41596029 0 20955
0.13950000 0.13949800 12230.95206039 0 79.98667210 0 4488.05461736 0 -473.94630116 0 -319.31990971 0 20506
0.14050000 0.14048300 12226.34339359 0 78.53078301 0 4539.07593103 0 82.11767466 0 -117.59519169 0 21447
0.14150000 0.14148400 12155.86451351 0 204.09761939 0 4312.64426271 0 300.02645679 0 -774.05593877 0 21771
0.14250000 0.14249400 11989.72769570 0 256.24974252 0 4088.60685299 0 619.70606732 0 -317.70238007 0 22470
0.14350000 0.14350900 11575.39730976 0 389.77406036 0 3797.93486573 0 394.90991368 0 -375.64793458 0 22519
0.14450000 0.14449900 11344.17712422 0 405.57841529 0 3529.77790190 0 48.73237996 0 -167.46321459 0 22218
0.14550000 0.14550500 11117.59932744 0 177.73042497 0 3701.35519465 0 -86.43341010 0 -124.25864944 0 23559
0.14650000 0.14650700 11007.66576329 0 84.06500500 0 3986.24948743 0 -19.30885261 0 -292.52444649 0 23044
0.14750000 0.14750500 11006.68782668 0 -54.18240947 0 3809.68134575 0 -62.41270153 0 -389.72122930 0 23649
0.14850000 0.14849900 11081.10093452 0 -75.26155216 0 4055.76167155 0 221.40147712 0 -366.67564717 0 23640
0.14950000 0.14949500 11138.32708739 0 45.22776987 0 3828.98154305 0 61.15858212 0 -711.19484768 0 24457
0.15050000 0.15050000 11142.21635254 0 110.00752763 0 3793.18007047 0 307.73641913 0 -798.25593573 0 24591
0.15150000 0.15149900 10928.53158214 0 228.43362822 0 3720.30693179 0 -48.04883599 0 -816.01503982 0 25020
0.15250000 0.15250500 10751.42388923 0 332.77834083 0 3658.21357715 0 158.56511547 0 -656.31012236 0 25297
0.15350000 0.15350100 10365.88080980 0 262.85812108 0 3676.43467198 0 222.81217879 0 -329.30722788 0 25452
0.15450000 0.15450400 10069.79082890 0 291.81853363 0 3450.20533537 0 344.98681158 0 -84.03263192 0 26061
0.15550000 0.15549900 9997.16498453 0 119.60839223 0 3476.45225483 0 626.43134865 0 159.19571598 0 26128
0.15650000 0.15649500 9807.15302457 0 81.30756097 0 3474.41769704 0 406.48441173 0 614.35664164 0 26331
0.15750000 0.15749700 9753.22038236 0 155.04791586 0 3325.52403746 0 445.81769677 0 680.28418224 0 27345
0.15850000 0.15849900 9734.12251677 0 55.91358209 0 3274.91862787 0 231.72489075 0 1385.27531479 0 26980
0.15950000 0.15949700 9567.69344205 0 333.17513580 0 3361.87630193 0 -164.68340166 0 917.85421137 0 27777
0.16050000 0.16050000 9430.49005922 0 222.47833146 0 3603.70766175 0 -168.14777022 0 1201.46819403 0 28224
0.16150000 0.16150500 9135.89508487 0 127.32847116 0 3472.20328885 0 -68.23951764 0 1106.21716787 0 28075
0.16250000 0.16249700 9318.81419421 0 103.91700585 0 3456.89352256 0 -65.13653601 0 703.70969836 0 28590
0.16350000 0.16349900 9053.99570364 0 17.53429108 0 3504.77869467 0 -102.99886949 0 875.34993876 0 29163
0.16450000 0.16449100 9229.73203717 0 83.56389679 0 3426.98215096 0 -47.45656610 0 196.01446745 0 28996
0.16550000 0.16550500 9126.36301305 0 97.06897661 0 3082.26511499 0 160.98972383 0 89.34709918 0 30777
0.16650000 0.16650700 8940.07170848 0 65.47768976 0 2873.88593174 0 327.77962345 0 -207.29670859 0 29211
0.16750000 0.16749900 8810.10730473 0 126.92268366 0 2665.27069483 0 388.24533186 0 -225.84265823 0 30922
0.16850000 0.16850800 8634.24732404 0 132.31369975 0 2484.62219693 0 466.65673916 0 -522.44633687 0 30867
0.16950000 0.16949900 8523.62808020 0 119.19810848 0 1996.01359095 0 453.67266350 0 -204.67876103 0 30852
0.17050000 0.17049200 8477.48520895 0 61.97116876 0 2001.61143502 0 261.51823552 0 -252.19636387 0 31257
0.17150000 0.17149500 8495.54893467 0 -6.67727251 0 1748.84292203 0 219.18594486 0 146.98387302 0 32608
0.17250000 0.17250900 8407.84937767 0 -47.48511735 0 1662.71705613 0 227.82213682 0 125.32313906 0 32361
0.17350000 0.17350400 8611.82222584 0 34.12425508 0 1792.01826149 0 -138.39151960 0 243.58040508 0 32508
0.17450000 0.17449800 8527.52858600 0 96.16994936 0 1799.17855600 0 -151.34074925 0 -18.23458362 0 32791
0.17550000 0.17549800 8435.59130368 0 172.86209914 0 2034.26552539 0 -230.04216534 0 172.13258090 0 33633
0.17650000 0.17650100 8248.24337794 0 278.30389925 0 2110.03875197 0 -153.86202721 0 320.01570599 0 33984
0.17750000 0.17750300 8117.02002131 0 216.76358463 0 2378.45425077 0 -94.87873581 0 227.56584998 0 34069
0.17850000 0.17849800 7962.77581198 0 138.97041312 0 2611.33805262 0 -1.12931446 0 276.20414570 0 34536
