### header ###
fiducial parameters:
Omega_m = 0.31
Omega_nu = 0
Omega_de = 0.69
Omega_k = 0
H_0 = 100
w_de = -1
zeff = 0
beta = 0
fgrowth = 0
b_1 = 2
gamma = 0.55
Lx = 3500 Ly = 3500 Lz = 3500
nx = 700 ny = 700 nz = 700
xoffset = 857.220397 yoffset = 15.9954215 zoffset = 262.898189
bins = 400 dk = 0.001
kx_ny = 0.628318531 ky_ny = 0.628318531 kz_ny = 0.628318531
############################
A(data) = 3.08274801 (not used)
A(ran) = 3.07883707 (used)
Ngal = 187480
weighted Ngal = 0
Nran = 9360983
weighted Nran = 0
SN(data) = 3457.33046
SN(ran) = 69.1391098
SN(data+ran) = 3526.46957
############################
13 columns: k_central k_mean P_0(k) sigma^{lin}_{P_0(k)} P^img_1(k) sigma^{lin}_{P_1(k)} P_2(k) sigma^{lin}_{P_2(k)} P^img_3(k) sigma^{lin}_{P_3(k)} P_4(k) sigma^{lin}_{P_4(k)} N_modes
### header ###
0.00050000 0 0 0 0 0 0 0 0 0 0 0 0
0.00150000 0.00179520 8346.01455800 0 -10752.39058519 0 5430.38084944 0 15598.87583241 0 57446.35721930 0 3
0.00250000 0.00253879 15430.49088446 0 -9452.02714603 0 2984.76371055 0 -14576.08902240 0 -44795.79166712 0 6
0.00350000 0.00331552 24179.20175490 0 -8979.78492751 0 3372.33010711 0 7981.32288568 0 42267.43209819 0 7
0.00450000 0.00420575 31557.78970774 0 -5375.62763973 0 10477.88265369 0 -6468.80340462 0 -13370.75404451 0 24
0.00550000 0.00557378 38216.30157475 0 -1418.81741657 0 16173.27308476 0 -7231.02069004 0 5627.36201285 0 45
0.00650000 0.00659388 35747.29264168 0 3765.14588755 0 18005.61156042 0 -1892.38603186 0 -55436.19164907 0 40
0.00750000 0.00754703 39200.98257878 0 -3386.13362620 0 3909.09366081 0 992.06386343 0 8706.15376677 0 57
0.00850000 0.00846663 40594.37364339 0 -8000.27462282 0 3061.71720546 0 7725.14845552 0 -27293.08682040 0 75
0.00950000 0.00948925 50427.35768334 0 -10084.44863745 0 -13706.17506233 0 -894.41633053 0 -7592.89095902 0 112
0.01050000 0.01054430 52280.49136285 0 -8429.15041081 0 -21424.90510628 0 -3764.32532005 0 -19998.35412201 0 105
0.01150000 0.01145670 57046.07764677 0 -3168.48090610 0 -20906.71110759 0 -17043.52426436 0 -14613.52038933 0 144
0.01250000 0.01249090 58106.63304323 0 286.48147266 0 -18114.75827902 0 -27065.23883008 0 -18724.90080070 0 169
0.01350000 0.01339930 60327.89803419 0 -1879.57169003 0 1904.99804198 0 -31602.30268463 0 -22626.41826292 0 180
0.01450000 0.01448870 63436.72480686 0 -3942.96174146 0 12403.60845562 0 -44490.60799977 0 -30771.16896958 0 267
0.01550000 0.01550050 77943.90864027 0 -2342.19191152 0 32280.56354974 0 -30350.99344526 0 -45779.34860608 0 238
0.01650000 0.01653350 76947.64976599 0 -469.55682705 0 50366.32094987 0 -30495.09858763 0 -41483.95874224 0 315
0.01750000 0.01747870 85528.65012752 0 3997.41145361 0 57625.30837893 0 -12706.76880583 0 -55523.64391176 0 297
0.01850000 0.01844180 78726.37033766 0 4054.41279346 0 65936.64552943 0 -5614.75000273 0 -46797.52674929 0 388
0.01950000 0.01947590 80375.37379989 0 6614.18998118 0 62570.40785502 0 17300.59794658 0 -49564.30052022 0 399
0.02050000 0.02045430 78096.44427069 0 3793.25875503 0 65089.99971637 0 16727.09994628 0 -34529.25572847 0 462
0.02150000 0.02154770 75144.53698223 0 635.04618337 0 51311.21005032 0 19188.01561082 0 -24886.01387286 0 571
0.02250000 0.02255340 74466.61333664 0 -165.80971487 0 32591.92957499 0 19237.92410006 0 -17433.91206425 0 510
0.02350000 0.02348930 73488.56431654 0 -632.17756931 0 23535.11246801 0 16348.73964268 0 -10157.33301679 0 555
0.02450000 0.02439640 74017.54933994 0 -24.64647561 0 25210.19423994 0 6496.80386559 0 -3788.53768172 0 592
0.02550000 0.02547300 72370.34438182 0 612.52553963 0 16605.92573140 0 5775.85100901 0 1667.04470666 0 837
0.02650000 0.02652900 73812.63227711 0 2127.19198498 0 17089.72333886 0 486.58753697 0 -1395.89772973 0 723
0.02750000 0.02749970 66720.56851141 0 854.63229540 0 5737.47542741 0 -3420.58622069 0 -9142.39218099 0 826
0.02850000 0.02848090 68833.81084883 0 3684.31436814 0 11483.33638027 0 -4383.08942084 0 -13705.38821678 0 831
0.02950000 0.02946900 66545.32676651 0 4905.38625705 0 13905.80901931 0 -1409.60008297 0 -5019.37769612 0 996
0.03050000 0.03053250 60655.90022252 0 3068.66392761 0 11713.99453327 0 -3445.45054011 0 -12811.53167065 0 1041
0.03150000 0.03150510 56896.12736601 0 3090.44830873 0 11476.59198983 0 4597.10017010 0 -15499.05885392 0 1036
0.03250000 0.03246190 56448.29984089 0 3571.50319741 0 13364.90890613 0 864.90400204 0 -13477.42781995 0 1059
0.03350000 0.03345080 52002.84728980 0 1973.86950901 0 12765.55740916 0 8878.13572295 0 -12826.14451660 0 1302
0.03450000 0.03451200 50601.92498920 0 2883.28311575 0 13085.69114198 0 2763.28916920 0 2162.55507218 0 1339
0.03550000 0.03553350 47959.13559583 0 1208.01025276 0 15051.45614181 0 4479.63536997 0 -3684.51669986 0 1365
0.03650000 0.03647120 48658.64129082 0 312.73850870 0 17409.40744565 0 5512.71861605 0 11985.68106144 0 1308
0.03750000 0.03744890 49442.22705328 0 -392.51790320 0 17330.16085800 0 2023.64311045 0 7031.47665826 0 1579
0.03850000 0.03847530 51493.75821819 0 -336.16739702 0 21088.24761689 0 1617.08001416 0 14477.95814152 0 1662
0.03950000 0.03950240 50739.17333462 0 748.40927006 0 19963.05847872 0 -204.08300654 0 10837.74084619 0 1683
0.04050000 0.04050350 50752.43730248 0 2089.29975137 0 20821.61938155 0 1138.89149141 0 9580.71011559 0 1822
0.04150000 0.04152450 46999.97086896 0 2179.04510681 0 21158.72649697 0 1245.67767336 0 11665.65973513 0 1887
0.04250000 0.04250150 46238.97881447 0 3083.41166137 0 19625.05211124 0 4311.52019763 0 8101.76645827 0 1920
0.04350000 0.04349210 42290.47543219 0 1713.23254051 0 16857.04186873 0 2781.81376160 0 2575.54782069 0 2005
0.04450000 0.04448520 40408.56568681 0 1680.06138021 0 14127.47465172 0 5342.16422251 0 2324.10570449 0 2151
0.04550000 0.04548030 39337.55648516 0 1159.27079119 0 13291.61986337 0 2269.11644111 0 1287.04326805 0 2274
0.04650000 0.04648670 37979.79828337 0 638.36554753 0 9081.89499876 0 1029.14002581 0 254.07580067 0 2311
0.04750000 0.04749250 37774.88122054 0 673.48134042 0 11695.11024005 0 -776.30968924 0 -1891.35189200 0 2568
0.04850000 0.04851840 37901.67576079 0 76.22397667 0 11565.50553712 0 -2454.78950989 0 -4650.15604155 0 2493
0.04950000 0.04949480 37416.75408825 0 -132.64529895 0 12355.04884446 0 -515.19948934 0 -2338.85343825 0 2644
0.05050000 0.05050630 38974.25865354 0 -415.15769784 0 12003.89091563 0 -1305.87135802 0 -5759.00127356 0 2829
0.05150000 0.05149060 38958.74655553 0 -483.08944647 0 9625.75140307 0 2424.43975291 0 -5885.11013411 0 2784
0.05250000 0.05249300 39662.74851081 0 643.11809466 0 10315.52269453 0 1404.45186493 0 -5748.72731880 0 3055
0.05350000 0.05348950 38678.96675883 0 1181.53852029 0 6692.80709239 0 3101.98121638 0 -4549.67586467 0 3009
0.05450000 0.05448610 36598.65952805 0 1624.22906803 0 5548.47512602 0 2537.05983259 0 -2745.16924022 0 3336
0.05550000 0.05550870 35689.62810343 0 855.20332046 0 3744.72162517 0 2330.10821198 0 -4382.39250049 0 3349
0.05650000 0.05647670 34582.98603897 0 839.38547675 0 4219.81896897 0 2467.54764847 0 -2886.48670121 0 3324
0.05750000 0.05747970 33425.53623320 0 1114.78366779 0 4893.70722094 0 -885.99033875 0 -3944.11952849 0 3639
0.05850000 0.05849280 33049.76127926 0 1225.29837358 0 7575.35554388 0 -2974.04012975 0 -464.21414576 0 3846
0.05950000 0.05951020 31616.80312407 0 1514.85753641 0 9243.92897904 0 -4192.69527876 0 668.29265604 0 3787
0.06050000 0.06049470 32196.25866926 0 662.01700074 0 11595.74288758 0 -1857.12411052 0 1603.64743654 0 3930
0.06150000 0.06148310 30241.39710063 0 562.84635966 0 10892.60646241 0 -472.65587446 0 423.78377321 0 4083
0.06250000 0.06249100 31028.80468434 0 92.23493476 0 12483.19226279 0 2594.79181474 0 -639.99431782 0 4303
0.06350000 0.06350600 30885.03676149 0 309.15274112 0 13096.93179271 0 1552.47999441 0 -373.10192719 0 4470
0.06450000 0.06451750 29943.85707578 0 310.33750571 0 10235.65787109 0 410.81431040 0 -4302.80869332 0 4479
0.06550000 0.06550280 30291.41799638 0 292.44688600 0 11276.05878079 0 127.63646499 0 -2225.32286587 0 4636
0.06650000 0.06648880 29137.00316631 0 27.06557605 0 9093.32674055 0 21.92983514 0 -3598.73929413 0 4653
0.06750000 0.06749660 29260.98754387 0 -144.56713312 0 8468.95355504 0 1376.84482674 0 -5592.78577120 0 5220
0.06850000 0.06852730 30083.91558389 0 20.55780131 0 8297.64603790 0 1502.35793280 0 -3430.73652830 0 5029
0.06950000 0.06949320 28759.31730175 0 321.81533417 0 7082.34060282 0 2745.03435241 0 -5517.29356090 0 5040
0.07050000 0.07048030 28890.38328927 0 760.88639237 0 8112.37763256 0 1203.24421685 0 -1487.08188846 0 5475
0.07150000 0.07148790 28032.60923199 0 711.73102672 0 6513.11404980 0 -245.42724400 0 -2575.90752151 0 5509
0.07250000 0.07249820 28058.91235470 0 422.09655153 0 8597.53535876 0 -680.61240924 0 -845.26658521 0 5916
0.07350000 0.07351270 27292.41238135 0 275.91413691 0 8785.76005525 0 -2049.80010470 0 -1447.55976049 0 5721
0.07450000 0.07449140 28250.56544966 0 327.73578491 0 9968.45636256 0 -1590.66448494 0 -1075.83706114 0 6028
0.07550000 0.07549160 28036.09383372 0 -269.40130387 0 9954.11329223 0 -792.77499443 0 -887.94283978 0 6183
0.07650000 0.07648840 27881.42247966 0 464.76381358 0 9927.02332396 0 528.09588793 0 -4395.22932363 0 6330
0.07750000 0.07749960 27778.34571245 0 -129.15620096 0 8322.49911667 0 2421.84316259 0 -3023.10557020 0 6583
0.07850000 0.07848650 27478.10793143 0 191.42490975 0 7364.95304350 0 2555.74179410 0 -5480.18817283 0 6549
0.07950000 0.07947320 26902.36180099 0 769.67995344 0 4991.57956686 0 1530.89794501 0 -2852.16899453 0 6828
0.08050000 0.08048110 26142.49381157 0 834.01694196 0 4968.28893854 0 562.90031479 0 -3476.18247921 0 7147
0.08150000 0.08149960 24939.63177685 0 1159.87778633 0 5122.39826006 0 63.15435966 0 -1239.21429919 0 7386
0.08250000 0.08250610 24090.73783365 0 1262.25763319 0 4494.29317852 0 -138.21953765 0 -1598.18448028 0 7227
0.08350000 0.08350160 22710.38592388 0 1153.78535363 0 5789.32854924 0 -551.14596632 0 -1079.30367782 0 7798
0.08450000 0.08449610 21998.62791959 0 464.90656984 0 5856.06429263 0 589.59348808 0 -1021.60092136 0 7371
0.08550000 0.08548940 21697.26607350 0 268.81679004 0 5939.20014543 0 699.90811029 0 -2328.34342981 0 8256
0.08650000 0.08650700 21486.16665277 0 38.82250987 0 5636.00607327 0 350.27890995 0 -919.17948410 0 8037
0.08750000 0.08749060 21367.35297454 0 60.44592487 0 6204.18724576 0 -228.01997227 0 -1443.41196037 0 8155
0.08850000 0.08849210 21569.23506167 0 401.36204720 0 6199.10647163 0 -4.82397022 0 665.63649027 0 8718
0.08950000 0.08949900 21424.79269978 0 362.45141063 0 6392.86156828 0 -395.69451110 0 515.46476870 0 8571
0.09050000 0.09049190 21209.53423828 0 371.34613755 0 7101.17993345 0 415.74670794 0 1021.87406917 0 8932
0.09150000 0.09150830 21341.72429087 0 363.07863894 0 8198.86319928 0 443.17052352 0 1523.49035617 0 9285
0.09250000 0.09250820 20866.69439098 0 333.26281287 0 7491.30919837 0 730.26573571 0 1157.19127080 0 9204
0.09350000 0.09350330 20526.66470637 0 257.08267474 0 8238.11555163 0 322.02890653 0 2749.36200294 0 9349
0.09450000 0.09448040 20051.52239997 0 248.83990556 0 7241.28340416 0 737.04609624 0 873.01188341 0 9564
0.09550000 0.09549270 20148.19199626 0 184.19941946 0 7604.88473335 0 191.54406065 0 2617.10450644 0 10155
0.09650000 0.09649430 20071.41835177 0 -168.79410764 0 7088.35435096 0 83.89246101 0 476.34280790 0 9913
0.09750000 0.09749140 20047.70057872 0 5.53561582 0 6826.42470763 0 -271.42237288 0 1124.95308451 0 10476
0.09850000 0.09850240 20188.88315190 0 228.77309587 0 6503.05366740 0 -495.17539413 0 -308.09387182 0 10575
0.09950000 0.09950330 19964.63216982 0 407.82879356 0 7360.69283687 0 -627.70266625 0 369.63306238 0 10882
0.10050000 0.10051200 19518.60314881 0 708.93435282 0 7236.76466256 0 -128.21648256 0 251.41963490 0 10875
0.10150000 0.10150300 18884.06841505 0 585.61879398 0 7523.68227247 0 617.52875327 0 168.43665494 0 11118
0.10250000 0.10250800 18569.33019458 0 360.27409658 0 7339.05458422 0 1234.95409256 0 1217.04773595 0 11575
0.10350000 0.10349800 18030.90302457 0 256.55211602 0 6718.18848174 0 1194.29665887 0 51.03536448 0 11364
0.10450000 0.10450100 18109.69998619 0 292.39967527 0 6628.55553281 0 547.24321238 0 1233.59397382 0 12093
0.10550000 0.10551000 17723.24641406 0 333.94399631 0 6062.21782703 0 580.42224115 0 157.04650356 0 12067
0.10650000 0.10649700 17398.95364047 0 620.07251253 0 5974.48454808 0 -227.48154510 0 1015.56131972 0 12054
0.10750000 0.10749900 16847.71212862 0 444.37664535 0 5848.35320622 0 -339.63626184 0 138.12961244 0 12807
0.10850000 0.10850100 16461.25855649 0 465.16735294 0 6001.78808870 0 -418.50403956 0 442.54891554 0 12736
0.10950000 0.10950300 16126.06235169 0 295.11092023 0 6308.38807804 0 -430.35056137 0 -53.81776276 0 12933
0.11050000 0.11050200 16199.68861398 0 277.62608801 0 6933.44694324 0 -493.67813945 0 180.67884765 0 13428
0.11150000 0.11150900 16038.61008901 0 152.29732862 0 7043.34678544 0 12.72228090 0 325.75743038 0 13453
0.11250000 0.11250000 15635.29554078 0 116.77799638 0 7182.18006261 0 212.06836482 0 -335.40752903 0 13668
0.11350000 0.11349100 15617.42290612 0 188.92836123 0 7114.71367693 0 600.74758580 0 477.63548273 0 13791
0.11450000 0.11448600 15275.25749787 0 87.71596835 0 6227.12941391 0 943.49975602 0 -241.72569771 0 14205
0.11550000 0.11549300 15148.46295762 0 161.21678498 0 6174.66929695 0 887.43363830 0 -83.87076655 0 14776
0.11650000 0.11649800 15168.13409640 0 46.36521132 0 4776.11877365 0 867.46237415 0 -728.00299272 0 14553
0.11750000 0.11747300 14579.23640460 0 243.22407645 0 4454.10785216 0 459.00298008 0 -852.04469760 0 14568
0.11850000 0.11849100 14574.17811177 0 78.23987497 0 3481.12836553 0 605.02352934 0 -999.93344301 0 16015
0.11950000 0.11950300 14260.22673686 0 53.22425640 0 3729.02967675 0 237.49359271 0 -1539.22726720 0 15270
0.12050000 0.12050700 14422.20451389 0 31.16549100 0 2754.57766488 0 242.30571529 0 -1260.20059410 0 15999
0.12150000 0.12150000 14273.04107869 0 206.16365099 0 2939.01426208 0 -475.62790251 0 -2206.49477589 0 15670
0.12250000 0.12250700 14219.19836169 0 382.20010989 0 3162.43343601 0 -493.47580774 0 -1218.03691321 0 16887
0.12350000 0.12352200 13799.58486990 0 622.65111781 0 3968.12955845 0 -556.45829785 0 -1198.12972077 0 16407
0.12450000 0.12449800 13399.53011039 0 444.49579625 0 3884.55532027 0 329.47471358 0 -800.67042750 0 16306
0.12550000 0.12549900 13162.23997345 0 309.33034340 0 4449.75772032 0 369.32169635 0 -483.45251948 0 17523
0.12650000 0.12650100 12926.29871461 0 9.11388589 0 4367.72345129 0 668.72204890 0 -65.73240291 0 17154
0.12750000 0.12750600 13176.96522591 0 -24.42728292 0 4673.03076579 0 459.98766108 0 428.42616196 0 18007
0.12850000 0.12850300 13230.24591038 0 -3.71914914 0 4743.89182800 0 33.35314644 0 1148.10882501 0 17496
0.12950000 0.12949900 13291.73226988 0 43.26537707 0 4595.12181558 0 -5.00024611 0 1209.97736664 0 18405
0.13050000 0.13049000 13188.65550267 0 109.74292271 0 4808.18835018 0 -39.59878921 0 1042.62880668 0 18100
0.13150000 0.13148800 13088.95093069 0 122.96372648 0 4362.26049503 0 97.94945678 0 917.94301251 0 19059
0.13250000 0.13249300 12968.11393533 0 234.60811767 0 4002.16624887 0 258.60465885 0 475.37836006 0 18957
0.13350000 0.13349100 12530.85262189 0 213.65329657 0 3484.16334123 0 566.92221962 0 1.74898905 0 19468
0.13450000 0.13450700 12415.29873238 0 386.36589506 0 3091.54989250 0 98.54172667 0 -419.16498982 0 19953
0.13550000 0.13551000 11982.30886622 0 331.37325948 0 2858.30638983 0 50.40881061 0 -537.24577762 0 19956
0.13650000 0.13649900 11733.32845253 0 453.90984123 0 3213.64584074 0 -356.94236770 0 -418.11960931 0 19723
0.13750000 0.13749600 11444.66854176 0 242.69801400 0 3128.29557974 0 -269.28102891 0 -620.26472766 0 20946
0.13850000 0.13851100 11503.68195810 0 11.08665382 0 3528.50770836 0 -68.32101236 0 -192.13082262 0 20955
0.13950000 0.13949800 11504.69361666 0 -112.87636651 0 3613.63315635 0 101.61379651 0 -640.77104679 0 20506
0.14050000 0.14048300 11730.29347683 0 -180.69346050 0 4134.89585270 0 295.67632496 0 -460.57891931 0 21447
0.14150000 0.14148400 11791.77983633 0 -19.05312780 0 3529.17090676 0 -22.40497744 0 -853.72854708 0 21771
0.14250000 0.14249400 11761.20526634 0 115.56400610 0 3619.10735325 0 69.80916211 0 -882.73279817 0 22470
0.14350000 0.14350900 11576.97100086 0 237.21819677 0 3358.93125143 0 -181.99737599 0 -926.45106105 0 22519
0.14450000 0.14449900 11417.57857350 0 250.08874185 0 3562.30834511 0 202.28787462 0 -1050.46466431 0 22218
0.14550000 0.14550500 11183.05363665 0 253.54636602 0 3540.25418838 0 -179.61885429 0 -1005.15697341 0 23559
0.14650000 0.14650700 11101.57015950 0 265.10287903 0 3684.24692424 0 -6.54000169 0 -959.55702559 0 23044
0.14750000 0.14750500 10915.18892973 0 182.23342965 0 3990.11627128 0 89.09261085 0 -375.28710970 0 23649
0.14850000 0.14849900 10800.27575730 0 140.68798455 0 3845.19056141 0 184.20503979 0 -257.10178384 0 23640
0.14950000 0.14949500 10634.63352813 0 141.91883580 0 4128.67977284 0 174.60777219 0 -297.06004906 0 24457
0.15050000 0.15050000 10512.87479941 0 127.67580726 0 3693.36309198 0 353.80285395 0 -457.17300214 0 24591
0.15150000 0.15149900 10431.70606048 0 121.60135961 0 3745.89065285 0 200.52421652 0 90.18351600 0 25020
0.15250000 0.15250500 10249.30402107 0 30.53230514 0 3218.10837908 0 197.25655935 0 -284.83471733 0 25297
0.15350000 0.15350100 10313.75791236 0 13.09839308 0 3275.85160188 0 403.41009376 0 -311.91119681 0 25452
0.15450000 0.15450400 10330.77625757 0 27.19945220 0 2795.31378313 0 310.39258490 0 -707.50004579 0 26061
0.15550000 0.15549900 10242.26737372 0 113.63623450 0 2907.70904979 0 223.77662662 0 -715.40671951 0 26128
0.15650000 0.15649500 10007.07923847 0 211.32873000 0 2744.03393450 0 106.66410848 0 -712.86520838 0 26331
0.15750000 0.15749700 9949.71819779 0 228.67193002 0 2934.51800178 0 212.50225394 0 -603.74659141 0 27345
0.15850000 0.15849900 9806.55727008 0 201.44819801 0 2854.30471817 0 95.53058115 0 -196.41238648 0 26980
0.15950000 0.15949700 9715.77777478 0 116.84206809 0 3077.91498316 0 88.14963266 0 269.43952209 0 27777
0.16050000 0.16050000 9638.88048313 0 72.58088177 0 3049.26256445 0 212.60341980 0 621.00211435 0 28224
0.16150000 0.16150500 9624.31259978 0 83.96271507 0 3067.53986254 0 51.23421159 0 843.02407539 0 28075
0.16250000 0.16249700 9525.04641317 0 239.40225520 0 3226.32529476 0 210.45982770 0 973.90346811 0 28590
0.16350000 0.16349900 9247.18876775 0 213.15083949 0 3233.21581366 0 246.68619688 0 1480.23633216 0 29163
0.16450000 0.16449100 9164.94092636 0 139.62012273 0 2945.17413868 0 357.20202673 0 1540.11527861 0 28996
0.16550000 0.16550500 8999.45606629 0 -18.90036736 0 2712.08800512 0 537.12887486 0 1395.95393298 0 30777
0.16650000 0.16650700 9014.85575780 0 -93.25142681 0 2366.60660490 0 353.49935638 0 1121.15599269 0 29211
0.16750000 0.16749900 9173.37141440 0 -124.32159708 0 2068.56075077 0 383.63104473 0 1213.15847079 0 30922
0.16850000 0.16850800 9138.30058412 0 -13.66649557 0 1849.97505666 0 -90.52230921 0 840.33081548 0 30867
0.16950000 0.16949900 9199.83190622 0 77.25991504 0 1693.79745540 0 -297.93457169 0 831.64404059 0 30852
0.17050000 0.17049200 9087.67269323 0 110.07665763 0 1975.03853669 0 -223.14602612 0 404.13286760 0 31257
0.17150000 0.17149500 9088.22348512 0 212.91815802 0 1954.43442390 0 -188.46637048 0 568.38238015 0 32608
0.17250000 0.17250900 8907.91220674 0 67.55788458 0 1899.99595241 0 78.40308922 0 374.97349554 0 32361
0.17350000 0.17350400 8931.58501718 0 49.52900488 0 2032.56818713 0 158.93942914 0 282.48317320 0 32508
0.17450000 0.17449800 8878.19192621 0 12.08549804 0 1968.21546170 0 223.19098872 0 11.06163213 0 32791
0.17550000 0.17549800 8895.69361940 0 113.68232117 0 1873.01839065 0 186.47789937 0 226.14615580 0 33633
0.17650000 0.17650100 8738.11093680 0 150.36168857 0 1905.44766801 0 -96.80920517 0 433.72725285 0 33984
0.17750000 0.17750300 8556.86668441 0 198.55148232 0 1828.95503979 0 138.50055392 0 233.71785813 0 34069
