### header ###
fiducial parameters:
Omega_m = 0.31
Omega_nu = 0
Omega_de = 0.69
Omega_k = 0
H_0 = 100
w_de = -1
zeff = 0
beta = 0
fgrowth = 0
b_1 = 2
gamma = 0.55
Lx = 3500 Ly = 3500 Lz = 3500
nx = 700 ny = 700 nz = 700
xoffset = 857.220397 yoffset = 15.9954215 zoffset = 262.898189
bins = 400 dk = 0.001
kx_ny = 0.628318531 ky_ny = 0.628318531 kz_ny = 0.628318531
############################
A(data) = 3.05598803 (not used)
A(ran) = 3.05595774 (used)
Ngal = 186462
weighted Ngal = 0
Nran = 9360983
weighted Nran = 0
SN(data) = 3442.39522
SN(ran) = 68.6253261
SN(data+ran) = 3511.02055
############################
13 columns: k_central k_mean P_0(k) sigma^{lin}_{P_0(k)} P^img_1(k) sigma^{lin}_{P_1(k)} P_2(k) sigma^{lin}_{P_2(k)} P^img_3(k) sigma^{lin}_{P_3(k)} P_4(k) sigma^{lin}_{P_4(k)} N_modes
### header ###
0.00050000 0 0 0 0 0 0 0 0 0 0 0 0
0.00150000 0.00179520 44710.25031505 0 -56402.77520543 0 4493.18035410 0 62728.33899779 0 66497.77881392 0 3
0.00250000 0.00253879 69333.45777383 0 -44291.42366882 0 3266.19588290 0 -32260.44278493 0 -102162.00304670 0 6
0.00350000 0.00331552 122708.56370486 0 -43142.96638363 0 1382.10545128 0 38167.51715057 0 55892.00003621 0 7
0.00450000 0.00420575 146306.06178443 0 -19606.05541150 0 3183.27360246 0 16366.16265131 0 -46139.27424248 0 24
0.00550000 0.00557378 174632.50162653 0 19626.06376980 0 20022.29670807 0 -20234.63260038 0 -24239.33923631 0 45
0.00650000 0.00659388 131805.62234146 0 19671.02637273 0 51264.44894328 0 -56744.26617464 0 -100394.18590624 0 40
0.00750000 0.00754703 144712.13751078 0 22363.04981629 0 69472.84184289 0 -15737.81027545 0 -8345.18274985 0 57
0.00850000 0.00846663 116166.50497943 0 7870.45634752 0 62191.48551888 0 -14203.57385717 0 -80942.12740975 0 75
0.00950000 0.00948925 105248.68573743 0 15470.50760106 0 57907.56111879 0 3015.95651633 0 -57222.33105023 0 112
0.01050000 0.01054430 100677.45030466 0 9293.28667640 0 52438.42250562 0 1800.38130563 0 -74106.46288722 0 105
0.01150000 0.01145670 78173.21791519 0 11320.90897721 0 26665.52129009 0 1105.11333597 0 -56672.43841647 0 144
0.01250000 0.01249090 72468.25044969 0 5244.50544896 0 12231.28927991 0 3519.20044956 0 -63562.84490806 0 169
0.01350000 0.01339930 58511.40887606 0 2040.11066377 0 8599.97457997 0 1430.02434535 0 -55399.32231468 0 180
0.01450000 0.01448870 60496.17057563 0 -38.91783059 0 478.00305201 0 -14608.23728349 0 -51551.19794343 0 267
0.01550000 0.01550050 68176.34518758 0 3391.22564098 0 6547.99378902 0 -16732.60786514 0 -50038.54357456 0 238
0.01650000 0.01653350 62025.57351409 0 3354.97454238 0 15044.82415788 0 -20129.86973557 0 -28521.35272577 0 315
0.01750000 0.01747870 67064.64483028 0 -573.92177283 0 24000.58781478 0 -5928.69013700 0 -24947.27541935 0 297
0.01850000 0.01844180 69666.85547451 0 699.90698622 0 37699.34404763 0 -3482.40979971 0 -19194.31037523 0 388
0.01950000 0.01947590 76635.60930169 0 -1979.05144900 0 38238.33325018 0 9057.92993140 0 -12877.17707092 0 399
0.02050000 0.02045430 74885.43998288 0 -2191.64587627 0 34285.10879460 0 8731.16421465 0 -6625.44187256 0 462
0.02150000 0.02154770 79301.44202905 0 406.36638490 0 38821.27339709 0 8573.45788489 0 -7702.08264022 0 571
0.02250000 0.02255340 78245.15807986 0 -589.41925799 0 37238.81458718 0 11612.37905067 0 -10746.46676225 0 510
0.02350000 0.02348930 78901.61208255 0 4617.14225036 0 29835.27238972 0 4877.53192454 0 -796.27645713 0 555
0.02450000 0.02439640 71554.83517128 0 2116.70445785 0 27904.01618763 0 14833.38751763 0 -15755.68291011 0 592
0.02550000 0.02547300 68294.59683327 0 4142.70810495 0 16711.47544176 0 6329.94764614 0 -2796.62893927 0 837
0.02650000 0.02652900 62388.42171968 0 2976.63672007 0 15660.69941143 0 7410.80365783 0 -13507.66517042 0 723
0.02750000 0.02749970 60357.57335212 0 3421.06956868 0 11519.75608864 0 -1861.83394318 0 -11292.24531785 0 826
0.02850000 0.02848090 55519.26005797 0 980.55343709 0 9507.48851673 0 -49.33959991 0 -20033.76217182 0 831
0.02950000 0.02946900 55180.80406446 0 1454.63012980 0 14218.52392265 0 -7547.95083740 0 -27869.05776385 0 996
0.03050000 0.03053250 56766.97228911 0 -112.65492569 0 14382.07539078 0 -12427.21382215 0 -28388.37582763 0 1041
0.03150000 0.03150510 56211.23451697 0 677.90566054 0 17871.28578419 0 -10735.83310666 0 -36735.90787347 0 1036
0.03250000 0.03246190 59106.03929973 0 -304.68233432 0 17460.66481299 0 -6879.37941322 0 -18617.88980574 0 1059
0.03350000 0.03345080 58324.13963488 0 -1159.73165787 0 19791.63855507 0 2480.12593664 0 -32523.92363806 0 1302
0.03450000 0.03451200 60402.42354853 0 -1501.13270187 0 11579.55635053 0 12049.75277061 0 -18812.46546989 0 1339
0.03550000 0.03553350 59958.41784466 0 -1679.54431027 0 11151.78214631 0 14903.64158470 0 -25634.64121155 0 1365
0.03650000 0.03647120 58120.45904363 0 949.29093927 0 -784.80762119 0 12675.74460982 0 -15285.82370955 0 1308
0.03750000 0.03744890 57732.99381294 0 1921.99390589 0 3028.93946793 0 3274.28915143 0 -15550.20381475 0 1579
0.03850000 0.03847530 51729.47466402 0 4454.04040825 0 470.32905976 0 -2970.18458655 0 -11562.35815491 0 1662
0.03950000 0.03950240 50693.08666662 0 5286.18578187 0 2358.61450223 0 -7969.94734714 0 -8869.93004792 0 1683
0.04050000 0.04050350 44639.20940243 0 2908.25984168 0 7184.01228868 0 -7450.92154029 0 -6451.97615048 0 1822
0.04150000 0.04152450 43751.31040119 0 3232.79990958 0 6734.71223832 0 -6050.60623483 0 -6686.16386781 0 1887
0.04250000 0.04250150 43371.60121950 0 945.73552145 0 13342.54001118 0 -3569.61476809 0 -8932.58543510 0 1920
0.04350000 0.04349210 42766.06736462 0 1455.01231192 0 14433.10794510 0 -854.30069621 0 -8044.11316067 0 2005
0.04450000 0.04448520 41101.66421088 0 1360.30982951 0 17888.93360584 0 -939.35757622 0 -3532.37449221 0 2151
0.04550000 0.04548030 41168.77089575 0 1026.05334312 0 14051.37544628 0 977.45438968 0 -6405.83327923 0 2274
0.04650000 0.04648670 40586.05556185 0 278.02175892 0 18868.55631704 0 2218.82576974 0 -2920.41098512 0 2311
0.04750000 0.04749250 40785.35229931 0 266.35958379 0 16428.54826287 0 1966.79913970 0 -3951.08873194 0 2568
0.04850000 0.04851840 40393.16599531 0 266.57315615 0 15881.12857227 0 1476.43699221 0 -3773.08178697 0 2493
0.04950000 0.04949480 40041.78325346 0 390.92959925 0 15181.28565775 0 -17.78866700 0 -2268.95907200 0 2644
0.05050000 0.05050630 38433.69575988 0 1885.68660403 0 13731.57893298 0 -363.42035472 0 -4002.02012041 0 2829
0.05150000 0.05149060 37418.44018586 0 1104.13090309 0 14047.66603153 0 566.74686547 0 -2921.63621605 0 2784
0.05250000 0.05249300 35737.28846253 0 1467.45571228 0 13354.45510095 0 -1042.30057968 0 -5067.46519994 0 3055
0.05350000 0.05348950 36214.00446003 0 854.03878904 0 14387.35849662 0 25.48750109 0 -5615.14342551 0 3009
0.05450000 0.05448610 35521.13074898 0 211.61649066 0 15271.66048963 0 504.64114611 0 -2776.40700860 0 3336
0.05550000 0.05550870 35147.71633169 0 290.91815750 0 14995.14048165 0 349.34593594 0 -3109.19771414 0 3349
0.05650000 0.05647670 35056.77946728 0 581.99705631 0 16715.52207603 0 1987.51565900 0 -418.71086753 0 3324
0.05750000 0.05747970 34605.46734043 0 1535.29303944 0 15315.16180796 0 1890.30651148 0 -1988.50483626 0 3639
0.05850000 0.05849280 32666.90471536 0 1742.90785844 0 15698.80521741 0 3661.12490569 0 -122.26455800 0 3846
0.05950000 0.05951020 31072.19359616 0 1064.94374651 0 12808.15947543 0 3583.73302540 0 619.48125431 0 3787
0.06050000 0.06049470 30159.90238283 0 156.12926646 0 8998.53433293 0 4280.25994795 0 -958.89270313 0 3930
0.06150000 0.06148310 30181.37202573 0 -264.17215315 0 7484.37371687 0 1509.18100779 0 -3291.71216006 0 4083
0.06250000 0.06249100 30228.58275880 0 -465.12239034 0 6205.80589947 0 227.53662429 0 -5073.86113021 0 4303
0.06350000 0.06350600 30580.86475271 0 -172.35289766 0 6850.16496197 0 -2921.73738190 0 -2591.65567319 0 4470
0.06450000 0.06451750 31440.54972061 0 31.38513331 0 8574.08736133 0 -3031.96320297 0 -4169.97792363 0 4479
0.06550000 0.06550280 31606.01209937 0 193.24814330 0 10294.43523376 0 -3214.29779848 0 -3856.88083817 0 4636
0.06650000 0.06648880 32121.84556142 0 332.93795807 0 13352.99381636 0 -2436.23119553 0 -2391.85310644 0 4653
0.06750000 0.06749660 31559.02617932 0 1038.20111436 0 15593.14310054 0 -164.13485791 0 -1597.71237295 0 5220
0.06850000 0.06852730 30666.74332429 0 1603.96217476 0 16310.85864971 0 1265.85464142 0 -97.74532656 0 5029
0.06950000 0.06949320 29415.32167841 0 992.52135792 0 15116.42710304 0 2445.77450800 0 -1514.95870227 0 5040
0.07050000 0.07048030 28529.67080731 0 970.75271371 0 15116.08988351 0 2880.27062136 0 -1414.19750912 0 5475
0.07150000 0.07148790 27427.86222266 0 424.12324086 0 12343.92060024 0 2820.91998550 0 -2552.18974847 0 5509
0.07250000 0.07249820 26744.54306473 0 426.90979818 0 11701.62981747 0 1239.72012847 0 -1131.30405217 0 5916
0.07350000 0.07351270 26500.05891133 0 93.40441206 0 11539.09000790 0 1596.71195504 0 -1671.32739459 0 5721
0.07450000 0.07449140 26794.33914746 0 2.50458559 0 9760.89774681 0 1085.20951572 0 -377.71509025 0 6028
0.07550000 0.07549160 26768.48565078 0 -258.64400112 0 10279.55261219 0 844.03123770 0 316.37485921 0 6183
0.07650000 0.07648840 27216.87520844 0 28.16884592 0 10198.06913504 0 1193.79082958 0 1476.98778410 0 6330
0.07750000 0.07749960 26793.21508239 0 -24.87792060 0 10741.50963528 0 264.92752488 0 3263.38572022 0 6583
0.07850000 0.07848650 27622.43788682 0 195.67837199 0 11486.37135597 0 22.61225504 0 3263.22835111 0 6549
0.07950000 0.07947320 27155.83847497 0 606.79168370 0 11706.12607776 0 228.17396919 0 3966.27485108 0 6828
0.08050000 0.08048110 27076.36707430 0 461.60294259 0 11159.69556443 0 -105.67920266 0 3585.59897343 0 7147
0.08150000 0.08149960 26369.33014332 0 416.94158911 0 11049.46974336 0 1510.85586475 0 3726.55673359 0 7386
0.08250000 0.08250610 26187.11919498 0 648.69458149 0 9529.49771086 0 987.37089175 0 1218.27296688 0 7227
0.08350000 0.08350160 24864.20701045 0 942.76124526 0 8587.96956498 0 1284.84010050 0 782.60782584 0 7798
0.08450000 0.08449610 24191.45406420 0 845.71733531 0 8204.78702222 0 744.60093759 0 -1494.41079273 0 7371
0.08550000 0.08548940 23228.80473559 0 1003.46075921 0 7326.92592208 0 -55.63054250 0 -811.10062732 0 8256
0.08650000 0.08650700 21947.25814575 0 973.94168633 0 6787.73438781 0 370.97969234 0 -1651.39772084 0 8037
0.08750000 0.08749060 21555.85868730 0 723.48425113 0 7469.00774732 0 -578.81820029 0 -2911.99173772 0 8155
0.08850000 0.08849210 20925.48299431 0 433.34619479 0 7184.91154074 0 -656.11453504 0 -2843.69354388 0 8718
0.08950000 0.08949900 21108.36838170 0 156.23492858 0 8846.58321635 0 -183.85433149 0 -895.74609952 0 8571
0.09050000 0.09049190 20745.63258261 0 -73.90548005 0 7715.43653329 0 728.73475909 0 -1016.98663424 0 8932
0.09150000 0.09150830 21045.64555062 0 -179.39404128 0 8095.77519143 0 1311.64905250 0 -613.54843885 0 9285
0.09250000 0.09250820 20885.57868421 0 126.48429829 0 6892.60965913 0 1172.17505823 0 -1476.52691742 0 9204
0.09350000 0.09350330 20332.98829428 0 758.89230093 0 7269.92458222 0 887.37293879 0 -1110.87529353 0 9349
0.09450000 0.09448040 19702.61260128 0 506.19347998 0 5302.84442625 0 -228.63595993 0 -1864.14951723 0 9564
0.09550000 0.09549270 19192.96149714 0 410.74574243 0 6116.27411640 0 74.92837927 0 -1569.37469246 0 10155
0.09650000 0.09649430 18882.94434998 0 96.26976634 0 5037.14916492 0 -758.54608889 0 -3321.92702923 0 9913
0.09750000 0.09749140 18751.20392341 0 50.97073074 0 5455.32385342 0 214.80321514 0 -3817.36995085 0 10476
0.09850000 0.09850240 18626.54510680 0 334.81065048 0 5600.84531778 0 -318.38805976 0 -4628.27049458 0 10575
0.09950000 0.09950330 18305.39971542 0 476.65754612 0 5274.07960103 0 235.89517218 0 -3704.33396710 0 10882
0.10050000 0.10051200 18155.67424768 0 451.76962133 0 5807.63956928 0 226.95435858 0 -3106.38755146 0 10875
0.10150000 0.10150300 17809.34979866 0 385.04736673 0 4293.87237598 0 1467.39950903 0 -2066.17773282 0 11118
0.10250000 0.10250800 17552.61333596 0 268.01195944 0 5017.28693508 0 1660.96351461 0 -1259.93081848 0 11575
0.10350000 0.10349800 17165.14810527 0 298.75738732 0 3067.61854709 0 1168.19586787 0 -1143.69124928 0 11364
0.10450000 0.10450100 16964.39008321 0 209.90566362 0 4363.55316987 0 485.06780099 0 155.14683358 0 12093
0.10550000 0.10551000 16794.54385067 0 353.01151214 0 3423.90221266 0 -494.30761590 0 26.10067859 0 12067
0.10650000 0.10649700 16461.37096300 0 185.75737365 0 4131.81591440 0 -726.84632976 0 302.13857506 0 12054
0.10750000 0.10749900 16699.33553898 0 3.85979217 0 4189.73898761 0 -786.07893879 0 416.88650992 0 12807
0.10850000 0.10850100 16864.01107218 0 -33.40238049 0 5495.71151149 0 -727.05203367 0 -672.23475225 0 12736
0.10950000 0.10950300 16725.75106819 0 187.11412020 0 5402.07689090 0 -996.55899966 0 -1523.52407813 0 12933
0.11050000 0.11050200 16645.26800896 0 610.55954982 0 6507.48248379 0 -791.98477668 0 -1582.81851073 0 13428
0.11150000 0.11150900 16077.61514704 0 653.35945154 0 6654.29662299 0 -34.49407249 0 -762.29484591 0 13453
0.11250000 0.11250000 15512.54763480 0 561.47724840 0 6795.15321730 0 701.27834561 0 -915.81403327 0 13668
0.11350000 0.11349100 14985.24870901 0 210.69363324 0 5564.79655088 0 1533.55073858 0 -599.79100642 0 13791
0.11450000 0.11448600 15000.87321352 0 132.19454886 0 5942.90956017 0 1028.74997523 0 -365.32002469 0 14205
0.11550000 0.11549300 14791.90951643 0 67.96445892 0 4965.08535308 0 1164.10427100 0 127.65445003 0 14776
0.11650000 0.11649800 14744.92359638 0 177.18974967 0 5206.27599582 0 674.61102582 0 771.44473560 0 14553
0.11750000 0.11747300 14711.98848974 0 -20.38289678 0 4593.94154725 0 -158.99675646 0 1423.78578419 0 14568
0.11850000 0.11849100 14851.26015229 0 18.24335132 0 4928.32842519 0 514.74536705 0 2195.23164386 0 16015
0.11950000 0.11950300 14961.64334247 0 65.70160352 0 4832.07473298 0 564.68533012 0 2368.73108789 0 15270
0.12050000 0.12050700 14806.74717540 0 152.17480553 0 4866.60601203 0 489.05036355 0 2323.76848497 0 15999
0.12150000 0.12150000 14671.97177313 0 145.34835834 0 4227.84479359 0 454.57641182 0 1673.76661580 0 15670
0.12250000 0.12250700 14254.60641149 0 215.60579761 0 4186.20942328 0 16.13201990 0 1636.35773016 0 16887
0.12350000 0.12352200 14074.30637377 0 322.10646702 0 3785.76124099 0 -70.70492957 0 1238.92204227 0 16407
0.12450000 0.12449800 13805.76722780 0 119.57129809 0 3757.53596701 0 -212.68322842 0 865.40421100 0 16306
0.12550000 0.12549900 13749.22675463 0 51.55996565 0 3672.79270115 0 104.36370931 0 172.32816823 0 17523
0.12650000 0.12650100 13771.48324307 0 -127.63758905 0 3319.67889908 0 136.10179905 0 339.83409729 0 17154
0.12750000 0.12750600 13943.57760577 0 -80.46765954 0 3544.15469418 0 -23.53477525 0 -365.46053283 0 18007
0.12850000 0.12850300 13913.78988133 0 100.39643404 0 3051.84791411 0 9.80891781 0 -534.71663121 0 17496
0.12950000 0.12949900 13968.08222436 0 243.98282038 0 3952.47133198 0 -42.67906473 0 -142.46288330 0 18405
0.13050000 0.13049000 13751.69969779 0 367.17473206 0 3024.08350681 0 7.85745091 0 -408.33911910 0 18100
0.13150000 0.13148800 13257.78550467 0 408.83595587 0 3797.79997792 0 -5.68817393 0 -339.82847696 0 19059
0.13250000 0.13249300 12950.57852019 0 352.38765603 0 3039.87662109 0 -89.81515988 0 -1328.35265948 0 18957
0.13350000 0.13349100 12634.60382814 0 403.81925345 0 3915.32098132 0 -481.47079276 0 -1140.77992074 0 19468
0.13450000 0.13450700 12316.71822547 0 228.82592693 0 3538.87158834 0 -149.25223634 0 -1235.02153646 0 19953
0.13550000 0.13551000 12113.82447977 0 39.28910928 0 3737.39272090 0 -35.39827044 0 -952.43382522 0 19956
0.13650000 0.13649900 12284.79477739 0 -168.71767121 0 3426.15034281 0 369.21041391 0 -1229.35624850 0 19723
0.13750000 0.13749600 12447.78421299 0 -204.37413940 0 3415.82018478 0 522.37889297 0 -1022.30233797 0 20946
0.13850000 0.13851100 12472.40123809 0 97.11618734 0 3311.46198340 0 443.50886711 0 -880.22950525 0 20955
0.13950000 0.13949800 12360.21954380 0 256.80840286 0 3159.60079202 0 337.82988926 0 -560.35655553 0 20506
0.14050000 0.14048300 12026.93424962 0 345.78826998 0 3144.86429891 0 397.14567911 0 270.17578471 0 21447
0.14150000 0.14148400 11884.62761137 0 275.85456146 0 2912.08166293 0 269.07982126 0 -124.33733400 0 21771
0.14250000 0.14249400 11700.05612637 0 173.82542290 0 3231.22621848 0 120.34802705 0 315.69142765 0 22470
0.14350000 0.14350900 11523.91512941 0 223.81372077 0 3117.23477942 0 100.27795758 0 673.37005797 0 22519
0.14450000 0.14449900 11472.32054256 0 203.64462116 0 3245.98519289 0 -95.51450702 0 466.57580648 0 22218
0.14550000 0.14550500 11338.66920537 0 163.26820374 0 3352.83881874 0 -297.57487087 0 518.47613903 0 23559
0.14650000 0.14650700 11374.97650723 0 63.02734031 0 3791.10055009 0 138.87261946 0 794.51167497 0 23044
0.14750000 0.14750500 11227.90383306 0 77.03723775 0 3651.86260948 0 138.64668238 0 907.82530279 0 23649
0.14850000 0.14849900 11285.72574042 0 177.23920853 0 4240.04089963 0 -9.02163387 0 264.76790764 0 23640
0.14950000 0.14949500 11138.79919472 0 299.22949465 0 4122.98076292 0 -243.58040508 0 551.51578373 0 24457
0.15050000 0.15050000 10835.86365752 0 430.63045357 0 4220.04378198 0 -334.49366413 0 327.54806604 0 24591
0.15150000 0.15149900 10450.16320898 0 371.64513886 0 4418.05908526 0 -123.65165430 0 528.91870356 0 25020
0.15250000 0.15250500 10161.75059253 0 199.17196624 0 4130.59068347 0 198.67400541 0 -76.78668365 0 25297
0.15350000 0.15350100 10131.50200141 0 -30.64021539 0 3722.93724406 0 731.91698731 0 213.49817559 0 25452
0.15450000 0.15450400 10073.05061761 0 -2.95204218 0 3409.67154883 0 589.33720124 0 -268.49867962 0 26061
0.15550000 0.15549900 10086.51691719 0 30.59615204 0 2607.14528990 0 657.95013330 0 -227.82550902 0 26128
0.15650000 0.15649500 9862.50198877 0 144.69977279 0 2748.90113626 0 307.32725944 0 -192.62765938 0 26331
0.15750000 0.15749700 9674.55830855 0 317.66528592 0 2204.14547989 0 -39.78527160 0 -342.71170388 0 27345
0.15850000 0.15849900 9604.84379271 0 201.28520857 0 2619.59993091 0 87.67471517 0 183.15853521 0 26980
0.15950000 0.15949700 9337.63104354 0 148.41143567 0 2215.76831274 0 100.49063069 0 78.66465917 0 27777
0.16050000 0.16050000 9297.86162125 0 56.23259175 0 2582.11236072 0 199.68341585 0 455.08224110 0 28224
0.16150000 0.16150500 9295.19758703 0 -6.53312241 0 2281.12145609 0 187.53564460 0 268.93706500 0 28075
0.16250000 0.16249700 9370.20644935 0 -37.17597935 0 2406.34230524 0 273.21525667 0 922.96533526 0 28590
0.16350000 0.16349900 9340.49740947 0 -51.99475402 0 2210.57513211 0 386.99986776 0 743.30376650 0 29163
0.16450000 0.16449100 9391.38383533 0 0.10948191 0 2239.99191507 0 47.66193279 0 931.86793064 0 28996
0.16550000 0.16550500 9501.28367753 0 145.58666014 0 2214.01477123 0 15.42194799 0 1001.36325378 0 30777
0.16650000 0.16650700 9154.18362361 0 229.66897574 0 2458.60009049 0 -232.23521630 0 794.64993497 0 29211
0.16750000 0.16749900 9154.16114230 0 365.96636211 0 2322.92543616 0 -245.20917537 0 1117.73995893 0 30922
0.16850000 0.16850800 8835.25264042 0 171.70431211 0 2590.47540486 0 6.04867284 0 741.22874237 0 30867
0.16950000 0.16949900 8739.69586855 0 191.44626699 0 2695.71037700 0 194.10243276 0 1155.49393254 0 30852
0.17050000 0.17049200 8573.90751092 0 57.42050372 0 2472.41485023 0 220.78661353 0 497.35832850 0 31257
0.17150000 0.17149500 8556.22596732 0 56.07083879 0 2433.05009137 0 134.15829054 0 563.99403010 0 32608
0.17250000 0.17250900 8463.08593536 0 108.79634751 0 2259.83166361 0 90.79556943 0 612.99315070 0 32361
0.17350000 0.17350400 8352.84887364 0 104.64461317 0 2335.57116823 0 -83.26096125 0 378.89760671 0 32508
0.17450000 0.17449800 8302.56944292 0 123.66064682 0 2229.39198143 0 -127.54653978 0 449.95875250 0 32791
0.17550000 0.17549800 8330.30012828 0 42.95457308 0 2488.37657427 0 -175.48341889 0 39.81078788 0 33633
0.17650000 0.17650100 8347.36343609 0 77.94312179 0 2588.17107146 0 -316.77277825 0 273.79752238 0 33984
0.17750000 0.17750300 8369.92342210 0 -9.02366843 0 2646.26275444 0 -251.49269913 0 82.31730862 0 34069
