### header ###
fiducial parameters:
Omega_m = 0.31
Omega_nu = 0
Omega_de = 0.69
Omega_k = 0
H_0 = 100
w_de = -1
zeff = 0
beta = 0
fgrowth = 0
b_1 = 2
gamma = 0.55
Lx = 3500 Ly = 3500 Lz = 3500
nx = 700 ny = 700 nz = 700
xoffset = 857.220397 yoffset = 15.9954215 zoffset = 262.898189
bins = 400 dk = 0.001
kx_ny = 0.628318531 ky_ny = 0.628318531 kz_ny = 0.628318531
############################
A(data) = 3.06367141 (not used)
A(ran) = 3.0593446 (used)
Ngal = 186833
weighted Ngal = 0
Nran = 9360983
weighted Nran = 0
SN(data) = 3456.7143
SN(ran) = 68.7013822
SN(data+ran) = 3525.41569
############################
13 columns: k_central k_mean P_0(k) sigma^{lin}_{P_0(k)} P^img_1(k) sigma^{lin}_{P_1(k)} P_2(k) sigma^{lin}_{P_2(k)} P^img_3(k) sigma^{lin}_{P_3(k)} P_4(k) sigma^{lin}_{P_4(k)} N_modes
### header ###
0.00050000 0 0 0 0 0 0 0 0 0 0 0 0
0.00150000 0.00179520 4508.77113666 0 -9624.50369084 0 -7534.25972481 0 20534.87038140 0 43870.57370545 0 3
0.00250000 0.00253879 8554.02279978 0 -9681.19029248 0 -5904.61266313 0 -5191.35965230 0 -26418.22697400 0 6
0.00350000 0.00331552 17212.58365135 0 -11988.60363063 0 -9930.03581836 0 4524.90147046 0 18973.88121439 0 7
0.00450000 0.00420575 23656.39908940 0 -11148.80337387 0 -13921.32111732 0 10295.93024030 0 8523.57187695 0 24
0.00550000 0.00557378 36551.67360799 0 -9195.98760367 0 -16444.39758040 0 21333.06898981 0 34643.79795942 0 45
0.00650000 0.00659388 34245.76651704 0 -9448.48634104 0 -21823.94820723 0 28155.80676400 0 -4133.59193721 0 40
0.00750000 0.00754703 49930.07129500 0 -14121.96673287 0 -18184.22550054 0 30746.21472496 0 46169.84881247 0 57
0.00850000 0.00846663 59606.24825726 0 -16576.92485251 0 -38235.29827448 0 38372.20940038 0 41012.63825709 0 75
0.00950000 0.00948925 70869.38028971 0 -9043.91283993 0 -43622.60495032 0 29814.58959237 0 62433.83394864 0 112
0.01050000 0.01054430 75891.70303632 0 -8140.45677808 0 -29676.55440140 0 1277.08405150 0 43678.58339096 0 105
0.01150000 0.01145670 77588.47926416 0 2213.20544438 0 -44702.71907906 0 -1641.69703926 0 55007.02360416 0 144
0.01250000 0.01249090 72110.34813041 0 4428.68150020 0 -25922.96390280 0 -10224.39473905 0 46182.43834129 0 169
0.01350000 0.01339930 68853.48198761 0 -2935.91184248 0 -45103.44827762 0 -13419.87568821 0 37051.32053299 0 180
0.01450000 0.01448870 76733.62777607 0 -8563.59983420 0 -27936.38926173 0 -7013.81759597 0 34830.05554203 0 267
0.01550000 0.01550050 87808.36650227 0 -14603.62861669 0 -17646.24795655 0 3746.96975532 0 6377.06845401 0 238
0.01650000 0.01653350 103000.66799774 0 -14546.86333050 0 -25365.31522003 0 -17016.77151562 0 -708.16549231 0 315
0.01750000 0.01747870 119240.82295435 0 -9404.89509751 0 -33218.82066625 0 -19593.57828919 0 -21528.09427999 0 297
0.01850000 0.01844180 114733.32201123 0 7088.79273634 0 -8263.98028897 0 -35847.67165271 0 -1412.80366843 0 388
0.01950000 0.01947590 110750.98427025 0 10345.24297506 0 4555.56596565 0 -23972.37378145 0 -34213.05622341 0 399
0.02050000 0.02045430 104237.47679767 0 14710.07757911 0 18304.83768288 0 -20496.98938844 0 -23956.07483789 0 462
0.02150000 0.02154770 89284.37634976 0 14609.58616158 0 20151.90141100 0 -14705.46891231 0 -40091.57933620 0 571
0.02250000 0.02255340 78750.31292371 0 8484.42069045 0 19715.42694311 0 -10016.56634769 0 -43121.04711471 0 510
0.02350000 0.02348930 74131.19231883 0 2601.35635477 0 28496.73570067 0 -3713.70866981 0 -41751.71104266 0 555
0.02450000 0.02439640 71481.09650249 0 -1350.86768290 0 14364.53997564 0 3840.62685721 0 -51826.14426031 0 592
0.02550000 0.02547300 72420.92731011 0 -1352.95844393 0 22335.51022200 0 5103.43528228 0 -47678.00692105 0 837
0.02650000 0.02652900 72541.98911848 0 1788.87087928 0 12785.11614143 0 6612.96475025 0 -43475.80205178 0 723
0.02750000 0.02749970 70110.97358489 0 2766.81873353 0 17142.66680381 0 6404.11345967 0 -18218.95911130 0 826
0.02850000 0.02848090 67406.58542552 0 3911.03829339 0 7863.76816034 0 9166.67198657 0 -16914.59400047 0 831
0.02950000 0.02946900 66070.40927313 0 488.46809784 0 12658.99604023 0 10793.01429693 0 -749.75927221 0 996
0.03050000 0.03053250 66077.71569610 0 -1676.82407280 0 6798.36804340 0 10649.69600011 0 9268.29870983 0 1041
0.03150000 0.03150510 68608.88542771 0 -2089.89550586 0 6477.44746504 0 12170.47735946 0 11997.48374471 0 1036
0.03250000 0.03246190 70700.43330922 0 -1202.51357455 0 2648.26359027 0 6428.78668802 0 19873.80771191 0 1059
0.03350000 0.03345080 68683.97297459 0 1903.26698177 0 5453.61527450 0 2373.06997907 0 18757.83590734 0 1302
0.03450000 0.03451200 66916.94267968 0 5429.45911608 0 11336.64588823 0 -8069.97789800 0 23802.63995541 0 1339
0.03550000 0.03553350 62223.97099949 0 5048.54718476 0 14640.27313807 0 -5656.95864623 0 19646.29694112 0 1365
0.03650000 0.03647120 57699.60908027 0 4143.96705784 0 21010.46231383 0 -4455.61409935 0 21787.75331188 0 1308
0.03750000 0.03744890 54985.10433524 0 3066.80922024 0 25588.66695006 0 -4943.76183865 0 15211.18578870 0 1579
0.03850000 0.03847530 52840.95020830 0 2181.24827435 0 30186.09309903 0 139.84718387 0 13454.27207945 0 1662
0.03950000 0.03950240 48923.35861554 0 3338.21473214 0 27794.75706252 0 -1623.46470378 0 10670.18770639 0 1683
0.04050000 0.04050350 47973.41122226 0 839.08984764 0 25664.42893598 0 4064.09099374 0 5859.80742932 0 1822
0.04150000 0.04152450 46306.08549933 0 -101.78712734 0 21551.25002050 0 5054.32487924 0 6613.86400231 0 1887
0.04250000 0.04250150 46676.91456695 0 -209.84159191 0 14284.73135545 0 6874.56841471 0 -2452.56386104 0 1920
0.04350000 0.04349210 45804.30285070 0 1130.46100337 0 14799.66556544 0 2477.45066176 0 2003.07271961 0 2005
0.04450000 0.04448520 43353.16655230 0 2084.79225043 0 8402.95969460 0 717.88753113 0 -1300.91423105 0 2151
0.04550000 0.04548030 43069.34012134 0 1640.80902785 0 11410.83418306 0 1030.70360032 0 891.38023077 0 2274
0.04650000 0.04648670 40620.45195309 0 269.59014681 0 12770.61570199 0 143.56783927 0 1270.22725455 0 2311
0.04750000 0.04749250 40605.83910714 0 352.37753944 0 11350.13466911 0 722.63783013 0 -1632.35605850 0 2568
0.04850000 0.04851840 39570.91239434 0 637.27857661 0 16519.48512728 0 805.39824520 0 2263.79961332 0 2493
0.04950000 0.04949480 39287.19836989 0 2002.83666595 0 12376.51848736 0 -261.67897682 0 -340.47256625 0 2644
0.05050000 0.05050630 37244.21009953 0 1731.36371014 0 13933.46102011 0 2162.83608845 0 3964.02672093 0 2829
0.05150000 0.05149060 35191.55486954 0 1564.82222891 0 11373.17800311 0 524.60004555 0 1659.14252920 0 2784
0.05250000 0.05249300 34218.78895528 0 1468.53481475 0 14240.78041109 0 1233.12186649 0 1283.65983218 0 3055
0.05350000 0.05348950 33661.14027252 0 467.10861332 0 10358.30461121 0 1333.86057834 0 1722.94446274 0 3009
0.05450000 0.05448610 32668.47840646 0 309.96094391 0 12050.76442917 0 1269.60901876 0 3472.16956690 0 3336
0.05550000 0.05550870 33630.11607650 0 -51.31458225 0 10140.85422282 0 442.11277829 0 3096.25972515 0 3349
0.05650000 0.05647670 33427.10992430 0 -203.74016669 0 10330.22546569 0 851.38487141 0 1822.81764449 0 3324
0.05750000 0.05747970 33472.29734024 0 46.64431668 0 10207.75857597 0 1138.52054994 0 1113.17513067 0 3639
0.05850000 0.05849280 33730.71990054 0 68.77996813 0 8582.72018109 0 1127.50471222 0 429.48840346 0 3846
0.05950000 0.05951020 33615.61563706 0 -308.97176664 0 8342.96834165 0 1572.02748603 0 988.64895374 0 3787
0.06050000 0.06049470 34312.53598238 0 394.74130392 0 7596.53292986 0 276.19290505 0 1012.21610207 0 3930
0.06150000 0.06148310 33852.68096097 0 413.55590511 0 6406.71004998 0 1266.78761543 0 114.64114868 0 4083
0.06250000 0.06249100 32980.06924473 0 840.54776004 0 7476.19052313 0 -402.22870137 0 313.52423019 0 4303
0.06350000 0.06350600 32612.38755932 0 753.97001998 0 6277.44256658 0 -32.01640826 0 698.94141432 0 4470
0.06450000 0.06451750 32284.16055797 0 -99.83372706 0 7800.62942518 0 1582.80727008 0 3762.23455901 0 4479
0.06550000 0.06550280 32813.03317487 0 -722.37817110 0 5808.89852216 0 3137.34430357 0 1467.89409766 0 4636
0.06650000 0.06648880 32704.22367579 0 -1231.63810059 0 4697.26560877 0 2765.72839041 0 3050.19553846 0 4653
0.06750000 0.06749660 33373.04239428 0 -123.53475153 0 2750.39614281 0 1641.85440837 0 -451.84156150 0 5220
0.06850000 0.06852730 32968.26656146 0 399.60400942 0 2227.85201228 0 235.69621266 0 1793.50202738 0 5029
0.06950000 0.06949320 32130.61326899 0 1423.51600857 0 2166.45557799 0 -1073.71257815 0 -1711.27666729 0 5040
0.07050000 0.07048030 31369.39640148 0 1299.58783426 0 1487.76756815 0 -1328.72360096 0 590.68945152 0 5475
0.07150000 0.07148790 29412.73632874 0 907.50044799 0 2298.60066798 0 -1078.06046185 0 -2157.60918586 0 5509
0.07250000 0.07249820 30034.23190766 0 458.44769193 0 3359.78554089 0 -230.78629642 0 -1407.80157885 0 5916
0.07350000 0.07351270 29380.58806765 0 453.69739293 0 4473.63286247 0 -920.23835339 0 -728.17834687 0 5721
0.07450000 0.07449140 29173.87250071 0 740.23506885 0 5410.28256594 0 -983.05223374 0 -1622.68909888 0 6028
0.07550000 0.07549160 28119.38705563 0 940.41644552 0 7852.58371286 0 -1523.65896594 0 970.56836704 0 6183
0.07650000 0.07648840 27947.62991246 0 1401.86651526 0 7865.87016203 0 -885.92963923 0 359.81660209 0 6330
0.07750000 0.07749960 26860.65898678 0 1359.29817095 0 10538.68333349 0 -267.92428237 0 2000.11642847 0 6583
0.07850000 0.07848650 25614.07082071 0 1280.14150850 0 9289.80207468 0 -218.53173899 0 142.73827924 0 6549
0.07950000 0.07947320 25065.07743901 0 284.80661570 0 10563.52517161 0 1090.01489390 0 1304.11781651 0 6828
0.08050000 0.08048110 24783.49913820 0 -187.31195565 0 8822.77551810 0 1329.02709853 0 456.19731366 0 7147
0.08150000 0.08149960 25490.31125616 0 -674.06585426 0 7254.09774599 0 1315.30226399 0 294.36903728 0 7386
0.08250000 0.08250610 25225.36911843 0 -254.08142099 0 7918.54385135 0 1084.39456854 0 -1005.31996284 0 7227
0.08350000 0.08350160 25506.04816718 0 325.60792972 0 5329.90067256 0 538.48562140 0 -1706.89281350 0 7798
0.08450000 0.08449610 24758.54489357 0 401.46883338 0 6047.06542985 0 568.98825122 0 -861.03721819 0 7371
0.08550000 0.08548940 23992.94417229 0 849.38965590 0 4935.71353272 0 -529.78985399 0 -2946.79279238 0 8256
0.08650000 0.08650700 23305.91559961 0 718.55410172 0 4786.59506013 0 -313.38147392 0 -2489.99522798 0 8037
0.08750000 0.08749060 22558.07510647 0 1027.75967390 0 6012.98377683 0 -836.56744561 0 -4116.31505704 0 8155
0.08850000 0.08849210 21878.69017629 0 944.40013214 0 5333.85738162 0 -869.37328477 0 -2761.85036591 0 8718
0.08950000 0.08949900 20906.37388806 0 774.48083537 0 5988.80513711 0 -176.98741795 0 -1841.98295399 0 8571
0.09050000 0.09049190 20418.30483332 0 597.05615610 0 5616.05391822 0 796.27758120 0 -2713.35819865 0 8932
0.09150000 0.09150830 20006.22257753 0 544.32963571 0 5884.52562028 0 1046.52481623 0 -2792.23384483 0 9285
0.09250000 0.09250820 19595.48919981 0 283.46560607 0 5258.09539569 0 657.82873427 0 -2930.34772036 0 9204
0.09350000 0.09350330 19327.62449290 0 328.95427145 0 5924.46365232 0 466.50723851 0 -1262.65105596 0 9349
0.09450000 0.09448040 19259.28133645 0 208.48484537 0 5363.98232558 0 60.03732721 0 -2208.16963285 0 9564
0.09550000 0.09549270 19436.77121149 0 118.48545123 0 6292.65116702 0 35.93973258 0 -1534.74224756 0 10155
0.09650000 0.09649430 19117.87395026 0 366.55762034 0 5549.58795045 0 -552.60949904 0 -2313.70810256 0 9913
0.09750000 0.09749140 18869.68038211 0 259.73097205 0 6229.78220748 0 251.94906955 0 -749.33662375 0 10476
0.09850000 0.09850240 18321.92347199 0 617.59170092 0 5878.09596806 0 332.81431091 0 -1033.25297991 0 10575
0.09950000 0.09950330 17983.91710451 0 606.83215004 0 6157.94320866 0 688.23581857 0 -887.85516270 0 10882
0.10050000 0.10051200 17347.35905362 0 569.77734490 0 5167.43954754 0 852.43924445 0 -1640.84274981 0 10875
0.10150000 0.10150300 16699.67275850 0 469.78051600 0 4608.83540947 0 1043.10878247 0 -1395.29073459 0 11118
0.10250000 0.10250800 16322.21170695 0 147.83816248 0 4433.49249871 0 494.27726614 0 -1273.12734244 0 11575
0.10350000 0.10349800 16409.21434361 0 4.99842512 0 4429.10864493 0 74.34004361 0 -1144.73662979 0 11364
0.10450000 0.10450100 16486.99964667 0 -41.03174736 0 4538.92980257 0 39.08509147 0 -1344.01088595 0 12093
0.10550000 0.10551000 16676.62942450 0 -23.42416725 0 4271.43603713 0 85.00607228 0 10.17608242 0 12067
0.10650000 0.10649700 16488.79815078 0 85.62655620 0 4884.93951337 0 102.17594145 0 477.14089410 0 12054
0.10750000 0.10749900 16658.86919634 0 -33.91068272 0 5264.71613897 0 655.02419192 0 563.69278066 0 12807
0.10850000 0.10850100 16600.08059302 0 54.14666420 0 5059.48433792 0 656.18647520 0 872.81517203 0 12736
0.10950000 0.10950300 16563.77329116 0 291.90733477 0 4450.80310084 0 251.49607133 0 448.62898352 0 12933
0.11050000 0.11050200 16197.89010987 0 361.60049337 0 4337.92448620 0 -7.72910516 0 591.73145985 0 13428
0.11150000 0.11150900 15720.72448633 0 399.90188667 0 4226.18117728 0 -163.80325871 0 -712.35375878 0 13453
0.11250000 0.11250000 15621.13232086 0 310.83209434 0 3879.33965833 0 -296.47328709 0 -1212.00068377 0 13668
0.11350000 0.11349100 15218.94183770 0 221.13507370 0 4175.90174656 0 -1129.30321634 0 -1680.70209730 0 13791
0.11450000 0.11448600 15037.18051538 0 348.16566761 0 4435.03246786 0 -1180.33577066 0 -2330.99622339 0 14205
0.11550000 0.11549300 14932.19283756 0 329.51405585 0 5112.20298985 0 -819.03877486 0 -2132.49757213 0 14776
0.11650000 0.11649800 14571.48035560 0 197.29814976 0 5245.83184574 0 -170.66904818 0 -2871.68276420 0 14553
0.11750000 0.11747300 14675.34396835 0 56.83542785 0 5730.38257680 0 480.49173208 0 -2386.25526238 0 14568
0.11850000 0.11849100 14484.25290593 0 -140.62391284 0 4793.18208146 0 1081.24943446 0 -2872.33472194 0 16015
0.11950000 0.11950300 14682.65039133 0 95.91006552 0 4728.68322756 0 878.63895317 0 -2663.95553869 0 15270
0.12050000 0.12050700 14438.95308348 0 198.50539565 0 4412.61861031 0 717.08607273 0 -2265.83417110 0 15999
0.12150000 0.12150000 14190.08507630 0 235.57368956 0 4243.35689160 0 140.04951559 0 -2717.46103617 0 15670
0.12250000 0.12250700 14056.65855212 0 286.68717657 0 4251.40519752 0 -452.14393500 0 -1970.58723900 0 16887
0.12350000 0.12352200 13736.41241279 0 317.71249665 0 4699.15403809 0 -262.42760416 0 -2192.01681775 0 16407
0.12450000 0.12449800 13664.47224811 0 306.64944820 0 4579.64343952 0 -179.57613982 0 -1505.64020281 0 16306
0.12550000 0.12549900 13550.71686272 0 263.35158565 0 5076.42399858 0 -86.35112854 0 -1004.39935355 0 17523
0.12650000 0.12650100 13303.42254664 0 236.90121042 0 5369.01813710 0 673.65107424 0 117.05676452 0 17154
0.12750000 0.12750600 13228.44740626 0 130.24317189 0 5195.00162314 0 911.60553363 0 828.41797383 0 18007
0.12850000 0.12850300 12969.68762643 0 233.99213001 0 4949.11238840 0 1272.65523511 0 869.87461779 0 17496
0.12950000 0.12949900 12752.74306732 0 188.92161684 0 4986.30770166 0 470.09975048 0 1785.56612797 0 18405
0.13050000 0.13049000 12694.40409003 0 186.72406962 0 4666.80344529 0 506.69706113 0 2292.22721902 0 18100
0.13150000 0.13148800 12383.71250383 0 82.63598107 0 4436.87593458 0 422.79684407 0 1660.57009184 0 19059
0.13250000 0.13249300 12494.65772654 0 -4.60853191 0 4101.71345174 0 139.88765022 0 1602.04002348 0 18957
0.13350000 0.13349100 12317.28025801 0 124.51718441 0 4032.67337495 0 -44.84626219 0 922.91587640 0 19468
0.13450000 0.13450700 12212.06776716 0 261.86894382 0 3585.11562544 0 -50.22052971 0 1000.05709017 0 19953
0.13550000 0.13551000 11919.92325466 0 261.20124917 0 3623.12026557 0 94.95090079 0 808.25337049 0 19956
0.13650000 0.13649900 11876.75915586 0 219.41525414 0 3269.63552203 0 416.26040567 0 1015.90528364 0 19723
0.13750000 0.13749600 11525.60122702 0 172.32029977 0 3716.85605201 0 310.03850440 0 1085.96488745 0 20946
0.13850000 0.13851100 11575.73452928 0 236.69213431 0 3338.21473214 0 348.88619332 0 1604.38931949 0 20955
0.13950000 0.13949800 11490.53039674 0 23.29872158 0 3826.02525191 0 228.80456969 0 1971.81246993 0 20506
0.14050000 0.14048300 11432.52863897 0 -10.23032980 0 3323.52320163 0 150.92934143 0 2073.10197367 0 21447
0.14150000 0.14148400 11594.39400950 0 -208.00262145 0 3421.90137683 0 388.93101155 0 1517.45412673 0 21771
0.14250000 0.14249400 11530.54711334 0 -57.50357213 0 3222.19997594 0 237.86790638 0 1658.61421861 0 22470
0.14350000 0.14350900 11660.93866182 0 130.77148247 0 2984.98852357 0 73.33366815 0 1536.61943623 0 22519
0.14450000 0.14449900 11316.52512343 0 218.41820842 0 2857.89048575 0 115.43249049 0 1464.75795610 0 22218
0.14550000 0.14550500 11122.06186578 0 330.16488953 0 2828.36129628 0 162.68481396 0 1569.61074612 0 23559
0.14650000 0.14650700 10971.21233297 0 317.07177956 0 2944.12875816 0 77.43706770 0 1880.05503801 0 23044
0.14750000 0.14750500 10765.23864897 0 278.12629697 0 3460.31068038 0 -32.52999359 0 2156.82234031 0 23649
0.14850000 0.14849900 10631.90205000 0 227.95477650 0 3408.05289513 0 -105.01375614 0 2505.91198941 0 23640
0.14950000 0.14949500 10405.41417842 0 211.73339343 0 3731.30028820 0 28.68647789 0 2861.09407121 0 24457
0.15050000 0.15050000 10359.18138197 0 154.74666642 0 3481.10588423 0 77.76945374 0 2529.44991204 0 24591
0.15150000 0.15149900 10211.47923136 0 154.52747373 0 3607.94538708 0 476.26524741 0 2728.73540885 0 25020
0.15250000 0.15250500 10029.52681798 0 162.65109201 0 2800.52944507 0 344.46412133 0 1932.71748669 0 25297
0.15350000 0.15350100 9817.35953543 0 17.06566835 0 2849.81969853 0 508.05493174 0 1829.91049510 0 25452
0.15450000 0.15450400 9762.96602655 0 37.59694172 0 2045.37128831 0 277.60360671 0 1295.66484716 0 26061
0.15550000 0.15549900 9668.15113763 0 -49.59465028 0 1811.53203116 0 119.53645207 0 869.68465080 0 26128
0.15650000 0.15649500 9697.12953521 0 44.94225735 0 1761.15143458 0 -169.83948815 0 548.96528007 0 26331
0.15750000 0.15749700 9616.88252965 0 105.42729968 0 1523.91750090 0 -337.00257737 0 303.53241575 0 27345
0.15850000 0.15849900 9577.25923582 0 124.75885840 0 1965.14676405 0 -335.55478156 0 260.79995794 0 26980
0.15950000 0.15949700 9513.70459659 0 50.42803212 0 1674.84571827 0 -167.54414728 0 99.73638303 0 27777
0.16050000 0.16050000 9671.75938651 0 47.08888442 0 2268.77922159 0 -164.04830490 0 5.63077917 0 28224
0.16150000 0.16150500 9596.13228840 0 86.42745256 0 2433.45475480 0 -237.34521612 0 -153.94183583 0 28075
0.16250000 0.16249700 9558.07144502 0 188.61699520 0 2773.23714510 0 37.80006028 0 193.12899240 0 28590
0.16350000 0.16349900 9491.22329512 0 219.28149040 0 2760.89491059 0 -111.10337867 0 575.86415727 0 29163
0.16450000 0.16449100 9289.28500474 0 219.37478780 0 3214.01678221 0 15.59055775 0 444.18330616 0 28996
0.16550000 0.16550500 9123.06950238 0 118.50568440 0 2899.19987719 0 291.44759215 0 760.06357674 0 30777
0.16650000 0.16650700 9072.86875622 0 90.99621505 0 2837.61235183 0 356.40731273 0 437.63675117 0 29211
0.16750000 0.16749900 8862.96084447 0 148.65648185 0 2558.79925110 0 282.51577108 0 641.85576959 0 30922
0.16850000 0.16850800 8812.51280399 0 124.41152229 0 2045.88835825 0 302.13407880 0 364.04645896 0 30867
0.16950000 0.16949900 8561.26177885 0 116.06646319 0 1919.32987167 0 303.64819446 0 253.21364276 0 30852
0.17050000 0.17049200 8452.64337083 0 119.19473629 0 1681.69127456 0 32.36824063 0 -60.91005134 0 31257
0.17150000 0.17149500 8322.57780123 0 101.96450481 0 1655.66916812 0 -131.44479745 0 -467.38176113 0 32608
0.17250000 0.17250900 8297.30881838 0 136.18385580 0 1839.25147586 0 -264.83984781 0 -109.62781845 0 32361
0.17350000 0.17350400 8211.23915574 0 132.58459944 0 1867.55543440 0 -315.14962828 0 -288.30133401 0 32508
0.17450000 0.17449800 8238.20547684 0 54.92361798 0 1977.02813187 0 -138.41849717 0 62.01399564 0 32791
0.17550000 0.17549800 8251.98651464 0 39.95163323 0 2207.68628487 0 58.90764181 0 -384.48533419 0 33633
0.17650000 0.17650100 8299.51198593 0 49.67502093 0 2238.72172154 0 198.52113256 0 231.05607204 0 33984
0.17750000 0.17750300 8190.05052911 0 73.26948403 0 2293.07026782 0 90.71429953 0 -33.73150675 0 34069
