### header ###
fiducial parameters:
Omega_m = 0.31
Omega_nu = 0
Omega_de = 0.69
Omega_k = 0
H_0 = 100
w_de = -1
zeff = 0
beta = 0
fgrowth = 0
b_1 = 2
gamma = 0.55
Lx = 3500 Ly = 3500 Lz = 3500
nx = 700 ny = 700 nz = 700
xoffset = 857.220397 yoffset = 15.9954215 zoffset = 262.898189
bins = 400 dk = 0.001
kx_ny = 0.628318531 ky_ny = 0.628318531 kz_ny = 0.628318531
############################
A(data) = 3.05934452 (not used)
A(ran) = 3.05453454 (used)
Ngal = 186568
weighted Ngal = 0
Nran = 9360983
weighted Nran = 0
SN(data) = 3460.27555
SN(ran) = 68.5933663
SN(data+ran) = 3528.86891
############################
13 columns: k_central k_mean P_0(k) sigma^{lin}_{P_0(k)} P^img_1(k) sigma^{lin}_{P_1(k)} P_2(k) sigma^{lin}_{P_2(k)} P^img_3(k) sigma^{lin}_{P_3(k)} P_4(k) sigma^{lin}_{P_4(k)} N_modes
### header ###
0.00050000 0 0 0 0 0 0 0 0 0 0 0 0
0.00150000 0.00179520 14365.10200818 0 -10543.59549786 0 30031.19693196 0 -12334.70326664 0 19067.74064799 0 3
0.00250000 0.00253879 27877.15103238 0 -11984.55699637 0 -1273.84674409 0 24014.86344121 0 -15125.64443664 0 6
0.00350000 0.00331552 44917.07828850 0 -16070.08391105 0 21928.03663300 0 -1896.14040921 0 22446.79266424 0 7
0.00450000 0.00420575 59741.69809856 0 -9708.71864612 0 15957.34018422 0 16534.09797323 0 -12433.95821259 0 24
0.00550000 0.00557378 75759.40057721 0 1082.71971158 0 26075.94915925 0 17440.09442215 0 14485.71419052 0 45
0.00650000 0.00659388 67491.90196457 0 11009.23945439 0 21981.42972398 0 4512.58171726 0 -21578.90202130 0 40
0.00750000 0.00754703 68136.21606447 0 7872.54710856 0 26311.55319857 0 20678.63830425 0 49907.58999354 0 57
0.00850000 0.00846663 58296.48763408 0 5366.72504435 0 25464.23294647 0 28407.48493387 0 19099.10206353 0 75
0.00950000 0.00948925 61720.38984674 0 -3104.19562457 0 18008.98375564 0 33458.24652682 0 42815.52622784 0 112
0.01050000 0.01054430 56789.34118407 0 -415.12509995 0 22259.07379703 0 22274.92311456 0 34080.19173177 0 105
0.01150000 0.01145670 61579.54449308 0 -1527.03116115 0 12794.10866201 0 18781.32886737 0 33642.14357278 0 144
0.01250000 0.01249090 60047.33139194 0 -2786.82709183 0 16396.17518876 0 9360.68561819 0 35189.75636543 0 169
0.01350000 0.01339930 68351.58693247 0 -2249.06312021 0 21126.35342287 0 -7265.67561624 0 17092.64590805 0 180
0.01450000 0.01448870 70103.32994239 0 -3387.95461162 0 12755.77804302 0 -4940.42336538 0 13316.01207545 0 267
0.01550000 0.01550050 71680.84286598 0 -3893.32302784 0 13349.50921463 0 -19896.17660687 0 -23379.54186190 0 238
0.01650000 0.01653350 75021.78907624 0 46.09296276 0 6231.71559940 0 -10533.23161789 0 -8329.96290876 0 315
0.01750000 0.01747870 77578.47508501 0 -2459.64547100 0 8464.19875979 0 -1450.70714269 0 -31937.27407641 0 297
0.01850000 0.01844180 76742.95751617 0 3466.36939112 0 4410.26931430 0 5001.43761755 0 -17959.52489243 0 388
0.01950000 0.01947590 67137.03462099 0 5020.58044574 0 578.25616775 0 4688.72271421 0 -20110.64822282 0 399
0.02050000 0.02045430 62536.57349632 0 8395.78815944 0 6814.30728614 0 5982.22935643 0 -2477.82160324 0 462
0.02150000 0.02154770 55389.54294854 0 7722.52938390 0 11204.30970718 0 4285.49809119 0 9859.19723745 0 571
0.02250000 0.02255340 53010.12200180 0 2566.99368548 0 22188.48251044 0 3894.53701812 0 20472.93439588 0 510
0.02350000 0.02348930 50627.44126635 0 -4014.47476142 0 18614.74242354 0 5084.37113864 0 29713.98576833 0 555
0.02450000 0.02439640 58567.27491019 0 -7187.37324325 0 28037.33030530 0 6943.57476955 0 28594.97898806 0 592
0.02550000 0.02547300 63987.74150569 0 -5670.35750190 0 23257.46839496 0 3818.61766308 0 28753.35975686 0 837
0.02650000 0.02652900 68001.32825570 0 -1823.97543152 0 26144.74194172 0 3611.90209614 0 17919.84539535 0 723
0.02750000 0.02749970 65214.99575250 0 2271.08355499 0 12789.49999521 0 -1844.84931992 0 7553.79597578 0 826
0.02850000 0.02848090 68197.36520445 0 4241.77195985 0 22530.42310568 0 -4929.00286424 0 6842.91474225 0 831
0.02950000 0.02946900 63246.08337046 0 3768.38319496 0 24790.24352864 0 -7403.29490314 0 11268.07791877 0 996
0.03050000 0.03053250 63084.10559342 0 1664.07717487 0 28214.82018034 0 -2066.85217186 0 11192.02367593 0 1041
0.03150000 0.03150510 62706.86935489 0 -803.65931653 0 27778.23330595 0 862.95599727 0 7896.46721332 0 1036
0.03250000 0.03246190 66430.33490953 0 -1223.63475727 0 28856.09930454 0 8474.16921698 0 26361.79890734 0 1059
0.03350000 0.03345080 61600.22729043 0 -449.46079167 0 19984.30330860 0 10691.84844035 0 -461.33204291 0 1302
0.03450000 0.03451200 63679.52286265 0 3137.94005806 0 23578.50137983 0 7014.58196022 0 18725.68764625 0 1339
0.03550000 0.03553350 56301.15972282 0 3890.15316433 0 11208.16525038 0 5318.25535840 0 1547.01703815 0 1365
0.03650000 0.03647120 52509.91304427 0 5265.35685606 0 14469.41524696 0 -1056.03103455 0 7230.25632579 0 1308
0.03750000 0.03744890 47693.18179954 0 4022.07344131 0 7278.53492068 0 -3498.19167334 0 -3557.80084417 0 1579
0.03850000 0.03847530 45141.21686408 0 3039.11225684 0 13326.57828714 0 -4936.29804656 0 -1075.43576991 0 1662
0.03950000 0.03950240 43208.04975136 0 1965.94485025 0 11493.56537244 0 -2929.40350570 0 501.13406308 0 1683
0.04050000 0.04050350 44539.84204997 0 4.92732801 0 18922.96106658 0 1716.86327070 0 1405.20498853 0 1822
0.04150000 0.04152450 44315.47866138 0 31.41368457 0 15628.55115034 0 1118.64707945 0 4636.72346393 0 1887
0.04250000 0.04250150 45790.70166332 0 -692.21613299 0 21389.27224347 0 4820.27204972 0 3791.55017612 0 1920
0.04350000 0.04349210 46998.39717785 0 -353.60501850 0 24825.98879796 0 1710.24252742 0 16357.84456977 0 2005
0.04450000 0.04448520 46951.07403828 0 1097.46182501 0 21666.46669049 0 21.29664928 0 11474.68107921 0 2151
0.04550000 0.04548030 44729.35942130 0 1281.25433292 0 23029.84521765 0 -992.37073320 0 11035.99220313 0 2274
0.04650000 0.04648670 43676.44766732 0 1114.21264273 0 20697.18537796 0 -1182.99980488 0 4181.25229631 0 2311
0.04750000 0.04749250 43644.86143877 0 905.90539965 0 18699.15971053 0 2297.36419640 0 4076.38826564 0 2568
0.04850000 0.04851840 42688.61928109 0 507.58956880 0 15503.55511421 0 3113.55908663 0 -2964.45185468 0 2493
0.04950000 0.04949480 41056.70160796 0 792.23993946 0 12186.43908350 0 4737.81063595 0 -3980.69660597 0 2644
0.05050000 0.05050630 39754.02259475 0 2005.74799449 0 8305.71682513 0 5385.50817173 0 -5317.61464131 0 2829
0.05150000 0.05149060 37667.98263209 0 1805.60820822 0 5629.28416413 0 5205.72520393 0 -3762.83031350 0 2784
0.05250000 0.05249300 35878.92066174 0 2198.67128298 0 5111.82080773 0 3398.40841680 0 638.02495582 0 3055
0.05350000 0.05348950 34194.50914970 0 1524.50201474 0 2442.95310467 0 102.92872783 0 -663.97062583 0 3009
0.05450000 0.05448610 33554.91612311 0 384.61010541 0 6357.07133636 0 443.43467882 0 5526.10623107 0 3336
0.05550000 0.05550870 33021.99687195 0 -31.65828113 0 6030.87889279 0 -2912.09290358 0 2063.76099291 0 3349
0.05650000 0.05647670 32995.69374924 0 426.45342776 0 8582.93375346 0 -1690.20044717 0 2205.14589780 0 3324
0.05750000 0.05747970 33333.13808419 0 109.24237654 0 10570.75291003 0 -2647.91513010 0 -376.95522226 0 3639
0.05850000 0.05849280 32669.49006503 0 786.85566776 0 9171.61787289 0 -1530.22350596 0 -2879.96712379 0 3846
0.05950000 0.05951020 33455.99839668 0 337.77930634 0 12360.44435681 0 793.60343039 0 -1567.03663711 0 3787
0.06050000 0.06049470 31157.39772870 0 461.26010275 0 8429.79112790 0 -397.55933505 0 -1817.71438906 0 3930
0.06150000 0.06148310 32701.97554564 0 -224.83099966 0 9424.91469646 0 3050.11685390 0 -3100.67730089 0 4083
0.06250000 0.06249100 32086.66232463 0 -191.12928064 0 7800.42709347 0 1584.72942136 0 -3392.06868979 0 4303
0.06350000 0.06350600 32763.68671816 0 -756.71498688 0 7139.85901261 0 1971.74502602 0 -4632.45201665 0 4470
0.06450000 0.06451750 32500.65549105 0 -102.68053426 0 5805.59377084 0 -196.38990518 0 -5027.74074026 0 4479
0.06550000 0.06550280 32746.26370952 0 278.14203388 0 6239.06698498 0 -612.00284937 0 -5345.44649252 0 4636
0.06650000 0.06648880 31773.27298225 0 1036.95565026 0 6435.56480041 0 -1443.47940427 0 -5769.50004135 0 4653
0.06750000 0.06749660 31707.17795595 0 1070.29429626 0 6251.94877072 0 -700.21722818 0 -5455.05407780 0 5220
0.06850000 0.06852730 30172.15469213 0 728.44025404 0 5458.22394130 0 -67.68816373 0 -6610.30071602 0 5029
0.06950000 0.06949320 29706.34212583 0 828.89794962 0 5282.06046305 0 1147.85029005 0 -7162.32907342 0 5040
0.07050000 0.07048030 28809.22579099 0 683.02690102 0 4637.45410623 0 144.30635002 0 -8615.89134140 0 5475
0.07150000 0.07148790 27955.38596147 0 628.46141017 0 4796.89149620 0 790.43918721 0 -7116.98428837 0 5509
0.07250000 0.07249820 27769.69041139 0 748.01921948 0 4969.36804101 0 -309.64732975 0 -5864.44981807 0 5916
0.07350000 0.07351270 27065.80086262 0 380.26446984 0 6164.00191940 0 602.68434992 0 -6656.46606858 0 5721
0.07450000 0.07449140 26788.83122861 0 493.75907214 0 4811.09967872 0 -1205.12140552 0 -3176.10206730 0 6028
0.07550000 0.07549160 26848.18186447 0 179.25465721 0 5755.86513201 0 738.55009530 0 -3016.57475212 0 6183
0.07650000 0.07648840 26596.95332063 0 -52.28060377 0 5566.35900134 0 1175.07514612 0 -2030.82588627 0 6330
0.07750000 0.07749960 26489.71751265 0 115.45159959 0 5633.29707644 0 1285.63818671 0 -2160.68912416 0 6583
0.07850000 0.07848650 26564.46784001 0 321.78723254 0 3719.12666346 0 1773.31381867 0 -2012.30129386 0 6549
0.07950000 0.07947320 25528.86668817 0 692.36675771 0 3941.73651054 0 1812.71229948 0 22.48051462 0 6828
0.08050000 0.08048110 25168.04179970 0 734.78560137 0 2733.83866428 0 1239.70888782 0 -1350.86768290 0 7147
0.08150000 0.08149960 24283.40258717 0 352.71475896 0 2524.09936229 0 1066.89849568 0 55.89941887 0 7386
0.08250000 0.08250610 24002.04909938 0 475.06924217 0 1922.88191730 0 67.06217189 0 -585.88969366 0 7227
0.08350000 0.08350160 23907.62763324 0 377.60830407 0 2109.42051618 0 -1074.01607572 0 770.22737313 0 7798
0.08450000 0.08449610 23435.85752206 0 937.61752349 0 3264.71211701 0 -2151.76404748 0 144.34344417 0 7371
0.08550000 0.08548940 23006.01503810 0 1047.95013074 0 4744.13912232 0 -1591.65366221 0 648.34612132 0 8256
0.08650000 0.08650700 22047.86196980 0 836.17514690 0 5686.22930073 0 -1501.70597506 0 738.11058586 0 8037
0.08750000 0.08749060 21478.52301027 0 757.67156626 0 6842.95970485 0 -496.38488815 0 1102.18964271 0 8155
0.08850000 0.08849210 21199.41765262 0 127.93883849 0 7530.35921901 0 895.61570797 0 1180.95400645 0 8718
0.08950000 0.08949900 20726.52347637 0 235.87718713 0 6167.83498130 0 1328.09412452 0 7.44027664 0 8571
0.09050000 0.09049190 20874.11322047 0 236.08513917 0 6070.65955573 0 1281.16440772 0 2091.19942134 0 8932
0.09150000 0.09150830 19946.30990913 0 300.43336835 0 4884.57981255 0 1669.93355390 0 1551.16483827 0 9285
0.09250000 0.09250820 20176.06881007 0 25.95983324 0 3197.72907930 0 1860.28273338 0 1629.87187469 0 9204
0.09350000 0.09350330 19860.09411802 0 127.20145180 0 2099.28144922 0 1292.79848122 0 1381.58838135 0 9349
0.09450000 0.09448040 19548.16606024 0 172.45518758 0 1799.52701618 0 582.51862251 0 -87.77936562 0 9564
0.09550000 0.09549270 19237.92410006 0 500.51357916 0 891.35212915 0 -421.83689250 0 -618.48533265 0 10155
0.09650000 0.09649430 18421.62804398 0 799.50477202 0 1954.49062715 0 -1931.03138908 0 -1482.94532899 0 9913
0.09750000 0.09749140 18086.54424569 0 965.64271389 0 2413.51384040 0 -1556.29057501 0 -775.87017980 0 10476
0.09850000 0.09850240 17313.07506889 0 795.35809597 0 4101.62352653 0 -1320.05705924 0 -1224.23051176 0 10575
0.09950000 0.09950330 17020.59333687 0 546.14612487 0 5087.69837126 0 -1091.06814288 0 -334.58808559 0 10882
0.10050000 0.10051200 16965.51414828 0 593.70531811 0 6687.28793288 0 -547.81873370 0 -416.02210388 0 10875
0.10150000 0.10150300 16770.37645159 0 448.75600287 0 7786.62357437 0 -778.64437240 0 360.15044942 0 11118
0.10250000 0.10250800 16479.91803671 0 342.12719004 0 8209.19335730 0 160.76603488 0 1719.11140085 0 11575
0.10350000 0.10349800 16380.55068424 0 143.83649082 0 7777.13646516 0 -4.45124149 0 -168.22195851 0 11364
0.10450000 0.10450100 16517.46181015 0 6.87064543 0 8170.75033180 0 555.00712984 0 1373.78736974 0 12093
0.10550000 0.10551000 16367.51152940 0 99.81158298 0 7987.11182081 0 1162.92400268 0 602.07735478 0 12067
0.10650000 0.10649700 16120.10480681 0 92.79134697 0 6616.66292434 0 745.22928997 0 266.44388867 0 12054
0.10750000 0.10749900 16093.35205807 0 -22.70330431 0 5645.96528981 0 1223.48862881 0 -535.69344376 0 12807
0.10850000 0.10850100 15727.58128328 0 35.12680872 0 4619.08688293 0 821.62974486 0 -1040.21881117 0 12736
0.10950000 0.10950300 15781.31159378 0 -121.21692935 0 4135.40168198 0 615.25589370 0 -866.82053299 0 12933
0.11050000 0.11050200 15676.66113547 0 -108.29793706 0 4007.11213519 0 155.22327001 0 -1246.67809127 0 13428
0.11150000 0.11150900 16012.64418582 0 62.88941752 0 3621.05198583 0 -17.44020683 0 -1072.72677308 0 13453
0.11250000 0.11250000 15799.74626097 0 316.96499338 0 3902.82137770 0 225.83366571 0 -977.13065894 0 13668
0.11350000 0.11349100 15526.37363520 0 462.65843970 0 4425.09573262 0 -266.19659435 0 469.69171486 0 13791
0.11450000 0.11448600 15079.22054912 0 412.20253076 0 4317.06183844 0 416.28176291 0 640.24723247 0 14205
0.11550000 0.11549300 15046.17303597 0 296.31929018 0 4984.64408536 0 861.06307169 0 1679.36445986 0 14776
0.11650000 0.11649800 14719.18250620 0 344.21457888 0 4893.48240793 0 790.23235923 0 2027.88083578 0 14553
0.11750000 0.11747300 14475.59760486 0 134.54159673 0 4716.46464022 0 911.34475054 0 2680.62542372 0 14568
0.11850000 0.11849100 14385.33517949 0 61.29762897 0 4503.88145359 0 643.31030979 0 2847.18938626 0 16015
0.11950000 0.11950300 14384.99795997 0 103.16017283 0 4252.05715527 0 360.58546260 0 2542.05068151 0 15270
0.12050000 0.12050700 14126.68780617 0 59.23305865 0 3937.80228278 0 -33.65507032 0 1951.19711649 0 15999
0.12150000 0.12150000 13938.06968691 0 214.97969336 0 3504.71125076 0 -514.84091259 0 954.43915731 0 15670
0.12250000 0.12250700 13988.54020869 0 72.57840883 0 3525.02310664 0 -362.72793063 0 888.47564662 0 16887
0.12350000 0.12352200 13805.54241479 0 93.11204274 0 3465.93100574 0 -647.09503689 0 -299.92641500 0 16407
0.12450000 0.12449800 14041.14645411 0 -166.28631846 0 3632.25891461 0 -158.36278376 0 -44.85986338 0 16306
0.12550000 0.12549900 14192.89523898 0 -204.64728721 0 3381.74977242 0 -72.49309229 0 -727.67251759 0 17523
0.12650000 0.12650100 14459.41106781 0 -81.70244503 0 3545.66094138 0 -127.50719750 0 -486.65273275 0 17154
0.12750000 0.12750600 14531.35123249 0 277.70589663 0 3910.31889174 0 -316.65587548 0 -779.33792055 0 18007
0.12850000 0.12850300 14187.94935266 0 440.25357466 0 3948.61578878 0 -266.25392167 0 -975.94364622 0 17496
0.12950000 0.12949900 13745.74215290 0 697.92413543 0 4266.15293128 0 -37.36504709 0 -274.89460989 0 18405
0.13050000 0.13049000 13196.52395818 0 378.50193580 0 4030.04306268 0 212.07510921 0 -253.41372634 0 18100
0.13150000 0.13148800 12965.97821169 0 279.52126173 0 4318.48940109 0 1062.72933832 0 194.05971828 0 19059
0.13250000 0.13249300 12745.43664435 0 83.95889325 0 3503.71083285 0 924.41762734 0 -483.55818160 0 18957
0.13350000 0.13349100 12442.83832667 0 106.66669383 0 3228.00015172 0 811.47156879 0 -331.15743899 0 19468
0.13450000 0.13450700 12553.78354939 0 141.81429775 0 3177.09124456 0 154.37460088 0 -43.01268724 0 19953
0.13550000 0.13551000 12236.34757274 0 128.66498453 0 2881.50709294 0 189.96474922 0 11.42780757 0 19956
0.13650000 0.13649900 12164.07018854 0 67.65860081 0 3008.71753726 0 -294.76358412 0 477.51857996 0 19723
0.13750000 0.13749600 12213.75386477 0 92.80258762 0 3190.29900917 0 -47.78692883 0 195.96500858 0 20946
0.13850000 0.13851100 12165.08184711 0 268.82465849 0 3551.70841147 0 -180.03138617 0 551.89346959 0 20955
0.13950000 0.13949800 12045.25651032 0 328.80701892 0 3827.01442917 0 -267.97823749 0 777.50906667 0 20506
0.14050000 0.14048300 11637.78292132 0 355.19107432 0 4115.86543101 0 -222.97516823 0 1066.51856168 0 21447
0.14150000 0.14148400 11426.00906155 0 334.25648640 0 4191.60493563 0 79.03548823 0 729.13605032 0 21771
0.14250000 0.14249400 11153.14226505 0 250.61030805 0 4475.63369831 0 25.54628970 0 1227.73759479 0 22470
0.14350000 0.14350900 11079.03265478 0 149.83112985 0 4097.05982234 0 495.62951642 0 1269.21559599 0 22519
0.14450000 0.14449900 10974.69693470 0 59.59197263 0 3894.44709291 0 578.70466971 0 1212.61891956 0 22218
0.14550000 0.14550500 10933.01660179 0 -83.76622850 0 3050.46531407 0 691.40568207 0 943.75941505 0 23559
0.14650000 0.14650700 10895.52903160 0 -4.09263101 0 2754.60014618 0 586.45734652 0 627.58239129 0 23044
0.14750000 0.14750500 10866.44946816 0 47.19420931 0 2237.22671499 0 361.04745335 0 394.04775577 0 23649
0.14850000 0.14849900 10776.37813385 0 134.76640974 0 2203.58344735 0 38.03847448 0 319.16254060 0 23640
0.14950000 0.14949500 10649.97701638 0 285.28097116 0 2176.26866608 0 -584.23282174 0 225.34020114 0 24457
0.15050000 0.15050000 10493.66452731 0 233.29408560 0 2689.96640448 0 -380.47579407 0 250.71934236 0 24591
0.15150000 0.15149900 10309.64383420 0 277.16297320 0 3253.81992645 0 -631.92577873 0 590.93000145 0 25020
0.15250000 0.15250500 10274.68541042 0 175.83749938 0 3559.56562633 0 -170.58137110 0 386.47043311 0 25297
0.15350000 0.15350100 10076.45653478 0 252.62013640 0 3832.02775940 0 -175.91056361 0 543.15723584 0 25452
0.15450000 0.15450400 9997.20994713 0 129.42822471 0 4086.32500089 0 35.38725460 0 580.96066832 0 26061
0.15550000 0.15549900 9798.63261132 0 70.44785589 0 3568.28837130 0 251.72987686 0 408.21097569 0 26128
0.15650000 0.15649500 9787.92027117 0 22.65519433 0 3483.54510544 0 284.63126155 0 393.92748080 0 26331
0.15750000 0.15749700 9697.74777100 0 -28.60307226 0 2874.93131226 0 392.10424725 0 -367.41753012 0 27345
0.15850000 0.15849900 9693.79106195 0 -29.98128844 0 2675.01633901 0 316.81324459 0 -417.15403741 0 26980
0.15950000 0.15949700 9547.38158618 0 91.82049197 0 2280.68307072 0 52.97426433 0 -925.90701356 0 27777
0.16050000 0.16050000 9566.73798673 0 114.28594411 0 2262.76547345 0 -148.36197680 0 -653.02672828 0 28224
0.16150000 0.16150500 9403.14155600 0 195.46817182 0 2268.40828012 0 11.31461421 0 -974.70492651 0 28075
0.16250000 0.16249700 9360.41584257 0 198.57396362 0 2307.13232189 0 128.78076323 0 -752.00403016 0 28590
0.16350000 0.16349900 9176.40639010 0 162.31612062 0 2320.35132714 0 497.79221762 0 -373.63360997 0 29163
0.16450000 0.16449100 9087.27927046 0 192.22187189 0 2318.86756125 0 499.39288629 0 -421.28497655 0 28996
0.16550000 0.16550500 9020.01521648 0 126.46406511 0 2100.28186713 0 304.08095951 0 -250.02129795 0 30777
0.16650000 0.16650700 8835.79219165 0 151.24295559 0 1947.03807572 0 -20.55071970 0 -239.81366302 0 29211
0.16750000 0.16749900 8752.39780388 0 61.30572224 0 2265.92409631 0 -4.04749979 0 342.26207785 0 30922
0.16850000 0.16850800 8752.69006080 0 8.01236956 0 2068.12236539 0 -92.92544793 0 392.49879409 0 30867
0.16950000 0.16949900 8755.89364625 0 53.76403245 0 2212.57596794 0 -24.81193798 0 227.70635812 0 30852
0.17050000 0.17049200 8760.37866590 0 77.82059870 0 2218.40986567 0 -89.96623422 0 -205.45998626 0 31257
0.17150000 0.17149500 8590.48747075 0 108.85479890 0 2331.20979575 0 -79.13530521 0 -403.74506515 0 32608
0.17250000 0.17250900 8549.35792972 0 75.88192367 0 2049.91251121 0 -209.25145775 0 -501.20038292 0 32361
0.17350000 0.17350400 8449.72080164 0 33.83300982 0 2288.95618965 0 -128.63351071 0 -709.05687592 0 32508
0.17450000 0.17449800 8531.10311294 0 54.70633620 0 2269.17264437 0 -92.83878252 0 -824.28591062 0 32791
0.17550000 0.17549800 8536.65599440 0 99.99165820 0 2344.30515385 0 -184.47144321 0 -896.92074752 0 33633
0.17650000 0.17650100 8456.12797256 0 127.74662336 0 2534.91286830 0 -270.83111465 0 -823.22366913 0 33984
0.17750000 0.17750300 8444.25784539 0 187.13322930 0 2682.14291157 0 -240.11940872 0 -683.57094851 0 34069
0.17850000 0.17849800 8334.86383247 0 185.96307756 0 3052.88205398 0 -55.15832276 0 -571.49604040 0 34536
