### header ###
fiducial parameters:
Omega_m = 0.31
Omega_nu = 0
Omega_de = 0.69
Omega_k = 0
H_0 = 100
w_de = -1
zeff = 0
beta = 0
fgrowth = 0
b_1 = 2
gamma = 0.55
Lx = 3500 Ly = 3500 Lz = 3500
nx = 700 ny = 700 nz = 700
xoffset = 857.220397 yoffset = 15.9954215 zoffset = 262.898189
bins = 400 dk = 0.001
kx_ny = 0.628318531 ky_ny = 0.628318531 kz_ny = 0.628318531
############################
A(data) = 3.04850123 (not used)
A(ran) = 3.04732845 (used)
Ngal = 185958
weighted Ngal = 0
Nran = 9360983
weighted Nran = 0
SN(data) = 3449.97258
SN(ran) = 68.4315446
SN(data+ran) = 3518.40412
############################
13 columns: k_central k_mean P_0(k) sigma^{lin}_{P_0(k)} P^img_1(k) sigma^{lin}_{P_1(k)} P_2(k) sigma^{lin}_{P_2(k)} P^img_3(k) sigma^{lin}_{P_3(k)} P_4(k) sigma^{lin}_{P_4(k)} N_modes
### header ###
0.00050000 0 0 0 0 0 0 0 0 0 0 0 0
0.00150000 0.00179520 13348.38514956 0 -21593.17764773 0 -11509.07747045 0 33461.05668951 0 34579.27662423 0 3
0.00250000 0.00253879 25331.14364181 0 -22430.71853369 0 2845.39088214 0 -39189.17989551 0 -21983.22822809 0 6
0.00350000 0.00331552 39466.14952952 0 -17180.66020328 0 -6802.30227116 0 -12146.64717991 0 7404.38524626 0 7
0.00450000 0.00420575 58985.53952389 0 -18213.45119244 0 13402.34027307 0 -40592.46273277 0 -7677.20708016 0 24
0.00550000 0.00557378 78604.52168373 0 -9693.33019527 0 31375.69116589 0 -49166.94351688 0 -1877.09874687 0 45
0.00650000 0.00659388 98934.69981533 0 -1052.77686616 0 64822.13500945 0 -27936.05204221 0 -28816.64462048 0 40
0.00750000 0.00754703 86163.40967430 0 11853.71582186 0 70272.95136192 0 -47548.51462463 0 -30535.78974327 0 57
0.00850000 0.00846663 95749.43661768 0 17743.14236585 0 88795.74526248 0 -10263.56840685 0 -17455.94373968 0 75
0.00950000 0.00948925 78580.69150418 0 14406.24278985 0 87400.78050676 0 -144.15347717 0 -4484.17659286 0 112
0.01050000 0.01054430 71778.29930782 0 10229.40806928 0 88866.89858161 0 34526.22075278 0 -19336.16738745 0 105
0.01150000 0.01145670 69991.82268714 0 3195.31233939 0 72084.49463373 0 43214.34451577 0 -11752.88718480 0 144
0.01250000 0.01249090 64091.38030543 0 2002.45448382 0 49692.66875157 0 39039.79164730 0 -14703.10837566 0 169
0.01350000 0.01339930 64194.23225962 0 3430.82645351 0 42336.56210019 0 24185.49651931 0 14814.39081790 0 180
0.01450000 0.01448870 62694.50463909 0 -6255.41089115 0 11816.95889397 0 18926.89529434 0 -12276.58910236 0 267
0.01550000 0.01550050 60923.42770991 0 -6637.55929405 0 5452.98579806 0 9881.86962998 0 -22703.30431392 0 238
0.01650000 0.01653350 67964.23410828 0 -1428.01226887 0 -3755.34404011 0 -9443.81023034 0 -33018.06264420 0 315
0.01750000 0.01747870 67004.73216189 0 688.41342085 0 1312.19984438 0 -14919.71571524 0 -27721.46801976 0 297
0.01850000 0.01844180 59818.92136909 0 4953.46252023 0 6922.88073155 0 -13061.97336893 0 -14785.83956504 0 388
0.01950000 0.01947590 61927.44263321 0 711.57815387 0 9484.51262664 0 -62.53511221 0 -21254.27202819 0 399
0.02050000 0.02045430 62437.88058290 0 -2577.38004676 0 12967.88912232 0 8709.30114897 0 -7041.70565043 0 462
0.02150000 0.02154770 65227.13565529 0 -3211.56632035 0 11877.09637538 0 9620.68186959 0 7360.16452629 0 571
0.02250000 0.02255340 73735.18419358 0 -3522.01061224 0 4098.03775895 0 -226.45190150 0 -4255.85649521 0 510
0.02350000 0.02348930 73244.75460218 0 -1490.46532433 0 16967.08783939 0 -1801.26931704 0 14221.78371136 0 555
0.02450000 0.02439640 76055.02969144 0 85.93724778 0 7703.98231020 0 -10070.70132161 0 -3950.17823923 0 592
0.02550000 0.02547300 76355.49228548 0 987.75981827 0 14768.41655641 0 -7706.44401271 0 6631.11840118 0 837
0.02650000 0.02652900 76355.94191151 0 3814.99817354 0 14589.57780328 0 -3048.64432866 0 -12135.06930966 0 723
0.02750000 0.02749970 73676.73280977 0 1212.42782850 0 13250.14186217 0 7071.03250819 0 2713.12214499 0 826
0.02850000 0.02848090 68772.88652187 0 2981.97602917 0 14817.76301311 0 8704.62503827 0 -14018.88996566 0 831
0.02950000 0.02946900 68638.78555865 0 4149.17147912 0 13595.45465263 0 1740.87330066 0 1072.12202607 0 996
0.03050000 0.03053250 63347.69885307 0 2570.42208396 0 14322.16272239 0 7114.93848994 0 7897.90601661 0 1041
0.03150000 0.03150510 62210.59462512 0 3258.29370544 0 15528.84657836 0 3798.47441697 0 14812.36750076 0 1036
0.03250000 0.03246190 60959.17297924 0 1088.97288558 0 18264.48374676 0 8644.11661539 0 28800.00845739 0 1059
0.03350000 0.03345080 58853.57428431 0 68.14341008 0 13754.73467348 0 8001.84831392 0 13158.98018474 0 1302
0.03450000 0.03451200 59176.96780584 0 653.84841985 0 15439.03377902 0 3878.81134774 0 30597.50091579 0 1339
0.03550000 0.03553350 56878.14232484 0 748.35531494 0 15524.46272457 0 2216.25166073 0 15910.91629670 0 1365
0.03650000 0.03647120 57782.78989567 0 2286.26967413 0 15398.11781036 0 -6735.17310500 0 21171.99046484 0 1308
0.03750000 0.03744890 55517.68636687 0 1067.74604074 0 19021.76638651 0 -6211.14520857 0 8404.25236944 0 1579
0.03850000 0.03847530 54160.04057158 0 2226.04226751 0 22189.60657551 0 -9509.25329890 0 6545.79062148 0 1662
0.03950000 0.03950240 53088.58174391 0 1660.82862681 0 22999.83268020 0 -7093.96343568 0 -2537.19472040 0 1683
0.04050000 0.04050350 51593.23797716 0 438.16506175 0 21438.95591970 0 -1425.34823464 0 -7122.52592919 0 1822
0.04150000 0.04152450 52708.76015571 0 761.13481075 0 22494.79024286 0 4308.81120081 0 -6560.24609832 0 1887
0.04250000 0.04250150 51327.17177436 0 812.75300297 0 16820.28494084 0 4108.59272999 0 -12811.53167065 0 1920
0.04350000 0.04349210 50006.39531347 0 943.60541813 0 15000.76080701 0 5807.40351561 0 -14693.44141603 0 2005
0.04450000 0.04448520 47164.08436963 0 1768.03071283 0 13645.02592235 0 -1062.79228596 0 -14729.97353091 0 2151
0.04550000 0.04548030 46106.67635536 0 3036.59435107 0 14145.90931892 0 -2830.18228170 0 -9900.07948416 0 2274
0.04650000 0.04648670 44630.32928836 0 2038.06486534 0 15032.12222255 0 -1813.28557267 0 -7008.51200882 0 2311
0.04750000 0.04749250 43667.11792722 0 1520.11816095 0 17131.65096609 0 -2236.66468245 0 -7783.12773199 0 2568
0.04850000 0.04851840 44225.66586204 0 322.88769225 0 20950.32483242 0 1165.84657187 0 -8993.48728076 0 2493
0.04950000 0.04949480 41216.99328738 0 443.21773426 0 17696.94329135 0 1513.07027295 0 -11986.69272001 0 2644
0.05050000 0.05050630 41166.41035909 0 826.46210061 0 17410.41910422 0 2798.62977510 0 -9778.60177171 0 2829
0.05150000 0.05149060 40624.27377434 0 941.11786213 0 14121.29229382 0 1656.53469823 0 -12079.31568203 0 2784
0.05250000 0.05249300 39731.20407376 0 47.61854388 0 11986.80512651 0 2459.28577018 0 -11341.59177456 0 3055
0.05350000 0.05348950 39897.79051759 0 343.66940732 0 9155.80227731 0 1300.66693673 0 -11791.77983633 0 3009
0.05450000 0.05448610 39978.49838984 0 -29.80447301 0 7886.80025369 0 631.03776732 0 -10753.09874619 0 3336
0.05550000 0.05550870 39473.45595250 0 218.16641784 0 6691.81791513 0 2246.09558842 0 -10328.33703636 0 3349
0.05650000 0.05647670 38981.67748302 0 1246.03737418 0 7576.79434718 0 1215.01317816 0 -6912.87655240 0 3324
0.05750000 0.05747970 39166.13656151 0 393.94434178 0 8694.14875179 0 1104.05221854 0 -3879.27221442 0 3639
0.05850000 0.05849280 37844.91047459 0 1661.63795366 0 10428.16525550 0 616.13828478 0 -421.43335314 0 3846
0.05950000 0.05951020 37624.48131376 0 1351.11497721 0 9435.48090815 0 2776.83415333 0 2566.85879768 0 3787
0.06050000 0.06049470 34908.06565811 0 1403.74370394 0 10850.24044980 0 965.49995763 0 3793.74210301 0 3930
0.06150000 0.06148310 35740.32343823 0 818.36995614 0 10038.90152069 0 1906.27947617 0 5675.53944189 0 4083
0.06250000 0.06249100 34137.06942447 0 561.48848905 0 14433.22035161 0 965.76973325 0 4042.39653783 0 4303
0.06350000 0.06350600 34598.94776301 0 612.07591360 0 10041.22833539 0 -496.32194051 0 1755.77840353 0 4470
0.06450000 0.06451750 33507.03095100 0 807.41819014 0 14293.94868905 0 -1763.41080538 0 1489.68971943 0 4479
0.06550000 0.06550280 32591.36754245 0 970.76283030 0 12447.33458696 0 -2318.31676936 0 1656.87191775 0 4636
0.06650000 0.06648880 32553.71136250 0 585.11184063 0 14979.06635110 0 -1807.00204891 0 -537.85389683 0 4653
0.06750000 0.06749660 32531.11765453 0 207.24949785 0 13760.46740536 0 1512.71057212 0 -2350.20649549 0 5220
0.06850000 0.06852730 32922.29229997 0 -74.68917822 0 14566.08484325 0 2243.21798183 0 472.44792242 0 5029
0.06950000 0.06949320 32231.77912557 0 -277.93857810 0 11967.92083329 0 1521.00617236 0 -4417.21603646 0 5040
0.07050000 0.07048030 33073.59145881 0 -156.99479656 0 13438.31035541 0 3004.37864608 0 397.69647099 0 5475
0.07150000 0.07148790 32363.18233261 0 743.90738944 0 13649.85940216 0 844.10992225 0 -1155.93231792 0 5509
0.07250000 0.07249820 31748.54355064 0 877.06301394 0 11392.84914189 0 -290.80687506 0 233.83138870 0 5916
0.07350000 0.07351270 30755.09483904 0 656.13814040 0 13752.93616937 0 -103.45726323 0 1284.98622896 0 5721
0.07450000 0.07449140 30946.97274701 0 265.87848394 0 12139.22835043 0 971.01686901 0 579.41058258 0 6028
0.07550000 0.07549160 30425.18174008 0 171.98195618 0 12886.28199801 0 2009.91827591 0 487.18104333 0 6183
0.07650000 0.07648840 29552.12039780 0 1044.77577097 0 10985.47671875 0 1422.77412562 0 -57.67072061 0 6330
0.07750000 0.07749960 28725.14572353 0 1181.16757881 0 9995.08546414 0 1343.96592335 0 1562.31556380 0 6583
0.07850000 0.07848650 27379.75223753 0 1529.70643603 0 10350.62724676 0 822.05576552 0 1559.07825639 0 6549
0.07950000 0.07947320 26479.26370747 0 792.78848321 0 8621.18568789 0 588.04789860 0 2799.43910195 0 6828
0.08050000 0.08048110 26119.67529059 0 554.23264901 0 10130.71515586 0 -193.95293210 0 2569.64647906 0 7147
0.08150000 0.08149960 25537.52198923 0 153.74512444 0 11530.77192636 0 -244.59543584 0 1354.34104397 0 7386
0.08250000 0.08250610 25206.37241870 0 480.37370525 0 10924.95705521 0 -1600.17407546 0 1572.20733644 0 7227
0.08350000 0.08350160 25444.56180769 0 260.06594344 0 12393.71668298 0 -1105.63040590 0 -274.09202742 0 7798
0.08450000 0.08449610 25223.57061431 0 577.44234464 0 11662.62475943 0 -753.25511459 0 -364.04196270 0 7371
0.08550000 0.08548940 24976.95073728 0 335.91111018 0 12143.83701723 0 757.03084917 0 -2110.30852759 0 8256
0.08650000 0.08650700 24361.18789023 0 384.33695760 0 9846.75383709 0 2001.75756348 0 -1638.04382777 0 8037
0.08750000 0.08749060 23574.67955859 0 476.26299928 0 9159.43300750 0 1957.39071504 0 -3122.41671940 0 8155
0.08850000 0.08849210 23280.84894848 0 735.25321244 0 7689.49311141 0 1628.05088927 0 -1966.22586652 0 8718
0.08950000 0.08949900 22710.27351737 0 763.05471390 0 7132.49638638 0 1391.30030358 0 -1678.49892975 0 8571
0.09050000 0.09049190 21398.03995104 0 664.59785414 0 6534.76354311 0 1529.59402952 0 346.52116041 0 8932
0.09150000 0.09150830 21463.68535131 0 213.53751787 0 6189.45075266 0 1360.06253520 0 39.22773533 0 9285
0.09250000 0.09250820 20632.77644927 0 293.41020977 0 5403.56065680 0 1254.53530613 0 1122.16090687 0 9204
0.09350000 0.09350330 20575.89875657 0 454.14589490 0 5482.38009972 0 672.77430349 0 1132.02345382 0 9349
0.09450000 0.09448040 20340.40712376 0 473.02681593 0 5294.14416258 0 -325.86534063 0 860.19529345 0 9564
0.09550000 0.09549270 19609.31520021 0 706.18488965 0 5475.15236130 0 -1158.19168872 0 1493.18556180 0 10155
0.09650000 0.09649430 19376.63373008 0 545.87972145 0 6300.60954774 0 -977.34535537 0 276.49303042 0 9913
0.09750000 0.09749140 18855.74197521 0 190.19743069 0 6448.34542029 0 -600.81053344 0 810.54421511 0 10476
0.09850000 0.09850240 18844.27651146 0 168.11067607 0 7368.63997694 0 -603.59484263 0 -1149.07552098 0 10575
0.09950000 0.09950330 18771.43709473 0 166.40771749 0 7139.36442398 0 -309.91485724 0 -1206.31291450 0 10882
0.10050000 0.10051200 18688.36868582 0 360.81027562 0 7621.74570945 0 140.31591901 0 -1703.22836136 0 10875
0.10150000 0.10150300 18144.65840997 0 520.50620055 0 7247.36459620 0 796.46192787 0 -2251.50234142 0 11118
0.10250000 0.10250800 17548.90392122 0 705.11365564 0 6095.84985402 0 907.97480345 0 -1500.22220916 0 11575
0.10350000 0.10349800 16676.29220498 0 757.36020024 0 5672.16724667 0 1141.37567522 0 -2541.94951566 0 11364
0.10450000 0.10450100 16076.26626896 0 564.56842735 0 5718.97331631 0 226.51372508 0 -1506.25843860 0 12093
0.10550000 0.10551000 15839.65057107 0 400.53361124 0 5520.11496423 0 351.09610526 0 -1804.29305209 0 12067
0.10650000 0.10649700 15367.54324037 0 127.41052791 0 5988.07449481 0 -268.85950451 0 -716.51841987 0 12054
0.10750000 0.10749900 15512.09800877 0 143.18116088 0 6231.69311810 0 -434.55006848 0 -741.98748630 0 12807
0.10850000 0.10850100 15535.70337530 0 33.18419946 0 6486.66479863 0 -309.42701300 0 -289.63672332 0 12736
0.10950000 0.10950300 15567.62682338 0 200.17350822 0 7252.18683537 0 1.34448299 0 52.12671926 0 12933
0.11050000 0.11050200 15462.63914555 0 168.18149217 0 6391.53517150 0 134.71020649 0 -872.07104095 0 13428
0.11150000 0.11150900 15345.39915843 0 251.45448092 0 6808.81060793 0 294.79730607 0 362.22996981 0 13453
0.11250000 0.11250000 15180.72362522 0 39.04327625 0 6268.22523298 0 628.46815456 0 207.30682517 0 13668
0.11350000 0.11349100 15171.16907210 0 94.46890169 0 5976.09196113 0 1015.27805532 0 495.39683495 0 13791
0.11450000 0.11448600 14944.78236637 0 -83.20655650 0 4914.08652072 0 1505.87625648 0 379.95310381 0 14205
0.11550000 0.11549300 14930.50673995 0 30.03085971 0 4613.90494295 0 1355.82480987 0 894.46578940 0 14776
0.11650000 0.11649800 14702.65874963 0 202.91847513 0 4259.36357824 0 1089.19769860 0 1407.27326827 0 14553
0.11750000 0.11747300 14521.68427286 0 305.90194493 0 3273.01895790 0 948.97507699 0 1267.88919920 0 14568
0.11850000 0.11849100 14229.31494735 0 414.69008677 0 4120.02447178 0 -256.36102496 0 1999.11601055 0 16015
0.11950000 0.11950300 13949.75996367 0 369.81740905 0 3382.42421146 0 -630.17111315 0 798.32113150 0 15270
0.12050000 0.12050700 13906.14623883 0 337.18355185 0 4327.89782575 0 -1000.86866515 0 1975.03853669 0 15999
0.12150000 0.12150000 13678.74787454 0 196.96767463 0 4471.63202664 0 -854.56035524 0 317.22914867 0 15670
0.12250000 0.12250700 13857.02459514 0 -72.58492840 0 5175.53281607 0 -340.21178315 0 1218.44157664 0 16887
0.12350000 0.12352200 13863.88139208 0 -175.78354426 0 4518.73035321 0 232.82422640 0 -167.02370515 0 16407
0.12450000 0.12449800 13942.67835371 0 -59.09389940 0 4901.47451060 0 359.10731703 0 -145.50347932 0 16306
0.12550000 0.12549900 13936.27118279 0 163.80663091 0 4211.38848092 0 207.54400290 0 -1020.07668912 0 17523
0.12650000 0.12650100 13887.82397814 0 359.64237201 0 5243.83100991 0 -115.96080107 0 -320.80367560 0 17154
0.12750000 0.12750600 13401.77824053 0 439.81743741 0 4733.17948785 0 -105.99056869 0 221.61617355 0 18007
0.12850000 0.12850300 13298.36425381 0 318.17785959 0 5428.04279409 0 46.40747617 0 961.75682093 0 17496
0.12950000 0.12949900 13038.93003494 0 310.33750571 0 5109.04436700 0 463.23171288 0 1334.55749869 0 18405
0.13050000 0.13049000 12997.22722072 0 72.03649706 0 5938.24469012 0 645.67759083 0 1947.75747736 0 18100
0.13150000 0.13148800 12784.77892191 0 -9.42312743 0 5365.62346058 0 532.53819310 0 2600.79432223 0 19059
0.13250000 0.13249300 12982.27715525 0 -104.41294336 0 4933.09446110 0 960.45852577 0 2362.72858040 0 18957
0.13350000 0.13349100 12846.15287490 0 -120.50539616 0 5166.47285158 0 661.29422689 0 2718.59634189 0 19468
0.13450000 0.13450700 12871.21952603 0 107.02549540 0 4213.26566959 0 532.15488691 0 1946.36363667 0 19953
0.13550000 0.13551000 12720.36999322 0 205.45886219 0 4298.26747042 0 288.13160019 0 1955.91818980 0 19956
0.13650000 0.13649900 12391.80577235 0 329.73100041 0 3593.43370698 0 -194.24406496 0 1513.39625182 0 19723
0.13750000 0.13749600 12244.10362175 0 209.19637856 0 3601.97660154 0 36.17308849 0 1018.08372175 0 20946
0.13850000 0.13851100 11869.45273288 0 184.51415768 0 3234.87942997 0 72.22241742 0 745.13262037 0 20955
0.13950000 0.13949800 11787.84560858 0 183.15853521 0 3198.27987119 0 312.58451179 0 296.99260516 0 20506
0.14050000 0.14048300 11710.28511853 0 229.39020760 0 2937.73282789 0 -17.07511049 0 -81.67591709 0 21447
0.14150000 0.14148400 11320.12213166 0 334.84212430 0 3129.93671474 0 -158.51565661 0 -368.41232771 0 21771
0.14250000 0.14249400 11210.51454638 0 362.19962005 0 3197.35813783 0 -433.26076584 0 -30.21633045 0 22470
0.14350000 0.14350900 10987.96090256 0 134.01216208 0 3570.57022340 0 -288.10799482 0 -54.85819739 0 22519
0.14450000 0.14449900 10942.40254515 0 73.00971260 0 3790.98814358 0 30.89650223 0 242.00671398 0 22218
0.14550000 0.14550500 11032.96846809 0 -43.71219294 0 4066.56393690 0 37.63504753 0 378.33445011 0 23559
0.14650000 0.14650700 11139.10269229 0 28.10578587 0 4073.62306556 0 314.43247477 0 659.54068538 0 23044
0.14750000 0.14750500 11021.79526126 0 89.03438428 0 4023.05137792 0 327.30864018 0 1073.40570838 0 23649
0.14850000 0.14849900 11130.08769040 0 98.82903770 0 3885.29720321 0 377.27108455 0 984.76868111 0 23640
0.14950000 0.14949500 10953.99165605 0 -39.79853557 0 4113.02154637 0 351.94589845 0 1671.34987589 0 24457
0.15050000 0.15050000 11031.51842414 0 68.19376820 0 4059.23503263 0 393.04508972 0 1678.09426633 0 24591
0.15150000 0.15149900 10991.80520511 0 174.58978715 0 3966.20740718 0 135.49030765 0 2301.96162255 0 25020
0.15250000 0.15250500 10786.71953252 0 246.60076793 0 3931.08037364 0 334.17442965 0 2329.77099246 0 25297
0.15350000 0.15350100 10609.63432091 0 298.92712115 0 3913.46627395 0 83.88459255 0 2150.23531898 0 25452
0.15450000 0.15450400 10460.54957026 0 206.09508302 0 3912.94920401 0 46.79078236 0 2327.63526882 0 26061
0.15550000 0.15549900 10326.43736639 0 166.91804303 0 3818.46029397 0 0.74136363 0 1736.71425989 0 26128
0.15650000 0.15649500 10121.86876374 0 219.82328976 0 3924.01000433 0 -182.10641030 0 1993.22590957 0 26331
0.15750000 0.15749700 9920.26769288 0 150.52917426 0 3522.56140413 0 -43.79897076 0 957.96647351 0 27345
0.15850000 0.15849900 9971.62622607 0 194.59027700 0 3631.61819752 0 74.58767515 0 1207.48194217 0 26980
0.15950000 0.15949700 9679.72900788 0 201.04241052 0 3274.45776119 0 172.03253911 0 718.21800626 0 27777
0.16050000 0.16050000 9557.86911331 0 95.76820850 0 3184.47635209 0 354.46268015 0 915.70162676 0 28224
0.16150000 0.16150500 9327.49197658 0 106.97378841 0 2967.89149381 0 368.19875534 0 666.35476785 0 28075
0.16250000 0.16249700 9217.13126770 0 69.38280423 0 2699.04885027 0 632.22702817 0 416.67855788 0 28590
0.16350000 0.16349900 9079.63562796 0 77.08332442 0 2448.48350483 0 263.35720598 0 729.85545196 0 29163
0.16450000 0.16449100 9001.18712651 0 131.21998444 0 2424.97930415 0 202.68579366 0 696.61909588 0 28996
0.16550000 0.16550500 8865.23145592 0 170.55102135 0 2084.43254960 0 347.02249343 0 1024.74942763 0 30777
0.16650000 0.16650700 8811.92829015 0 118.73948993 0 2112.63534229 0 191.06520893 0 1023.68044175 0 29211
0.16750000 0.16749900 8691.83317774 0 112.17551194 0 1997.23882188 0 180.75753221 0 1423.39236141 0 30922
0.16850000 0.16850800 8663.09083382 0 181.78043143 0 2054.89211948 0 172.70922629 0 1259.89709653 0 30867
0.16950000 0.16949900 8577.60568501 0 95.18279541 0 2143.11998707 0 -137.26857860 0 1280.25391501 0 30852
0.17050000 0.17049200 8532.15973411 0 80.61356319 0 2112.71402684 0 -240.64547117 0 991.18709268 0 31257
0.17150000 0.17149500 8548.24510530 0 -23.95798575 0 2279.58148694 0 -269.39793168 0 611.84435620 0 32608
0.17250000 0.17250900 8602.63861419 0 -38.62905827 0 2047.10234853 0 -82.82482400 0 657.47802597 0 32361
0.17350000 0.17350400 8548.06525489 0 47.70689539 0 2299.63480785 0 -64.20367441 0 -119.80397956 0 32508
0.17450000 0.17449800 8556.11356081 0 61.57381176 0 1855.39305031 0 182.90899276 0 -73.89997213 0 32791
0.17550000 0.17549800 8419.21367556 0 106.02698839 0 2137.24112674 0 98.34827507 0 -663.72782778 0 33633
0.17650000 0.17650100 8419.29236012 0 114.39947468 0 1882.96636655 0 -25.32293797 0 -367.97169420 0 33984
0.17750000 0.17750300 8309.81966265 0 89.46861062 0 2185.51972163 0 21.43266116 0 -456.10514032 0 34069
