### header ###
fiducial parameters:
Omega_m = 0.31
Omega_nu = 0
Omega_de = 0.69
Omega_k = 0
H_0 = 100
w_de = -1
zeff = 0
beta = 0
fgrowth = 0
b_1 = 2
gamma = 0.55
Lx = 3500 Ly = 3500 Lz = 3500
nx = 700 ny = 700 nz = 700
xoffset = 857.220397 yoffset = 15.9954215 zoffset = 262.898189
bins = 400 dk = 0.001
kx_ny = 0.628318531 ky_ny = 0.628318531 kz_ny = 0.628318531
############################
A(data) = 3.096822 (not used)
A(ran) = 3.09924832 (used)
Ngal = 189494
weighted Ngal = 0
Nran = 9360983
weighted Nran = 0
SN(data) = 3433.82038
SN(ran) = 69.5974696
SN(data+ran) = 3503.41785
############################
13 columns: k_central k_mean P_0(k) sigma^{lin}_{P_0(k)} P^img_1(k) sigma^{lin}_{P_1(k)} P_2(k) sigma^{lin}_{P_2(k)} P^img_3(k) sigma^{lin}_{P_3(k)} P_4(k) sigma^{lin}_{P_4(k)} N_modes
### header ###
0.00050000 0 0 0 0 0 0 0 0 0 0 0 0
0.00150000 0.00179520 24456.05898240 0 -31847.46127707 0 -25982.31453866 0 39107.68517771 0 -9268.59096675 0 3
0.00250000 0.00253879 47411.60349873 0 -36852.36101505 0 -15730.50385247 0 -21534.38904440 0 10041.47562971 0 6
0.00350000 0.00331552 60179.18422501 0 -24637.59549171 0 -25262.12604632 0 -41619.40858355 0 321.40055416 0 7
0.00450000 0.00420575 72433.74165194 0 -9865.07609779 0 -33667.09781741 0 -37872.45006888 0 5133.50402299 0 24
0.00550000 0.00557378 69095.26838484 0 768.92233358 0 -29947.22927100 0 -43400.48969188 0 4963.79267825 0 45
0.00650000 0.00659388 68025.94528080 0 3869.65021740 0 -24236.97869966 0 -27725.96428005 0 -41.11290486 0 40
0.00750000 0.00754703 61253.67802839 0 -814.00970773 0 -2361.25605515 0 -29733.31968759 0 -11794.14037299 0 57
0.00850000 0.00846663 68910.02246079 0 -3683.94342667 0 -14079.70188612 0 -5158.25593590 0 -4361.57481534 0 75
0.00950000 0.00948925 68834.03566185 0 -2356.54622250 0 1456.93446320 0 -7152.04387800 0 -4758.86437477 0 112
0.01050000 0.01054430 70318.81321691 0 -4138.18936336 0 -6987.00864397 0 6997.24887679 0 -14171.31318958 0 105
0.01150000 0.01145670 73314.10941719 0 -255.33138135 0 12190.26090475 0 -6316.71740023 0 -7875.19990213 0 144
0.01250000 0.01249090 76613.46521975 0 786.67132108 0 1595.97007209 0 -8739.66214660 0 -11382.39533671 0 169
0.01350000 0.01339930 74109.38545641 0 3536.78082730 0 23395.39117943 0 -14102.07078107 0 -19284.23558107 0 180
0.01450000 0.01448870 70736.96542410 0 5541.74197624 0 13069.16738540 0 -14482.79162133 0 -8086.63654238 0 267
0.01550000 0.01550050 71497.28303954 0 1330.76939939 0 25355.98547993 0 -5517.03502593 0 -27755.30237846 0 238
0.01650000 0.01653350 69584.23669163 0 -692.76018049 0 7975.98357659 0 3860.45536510 0 -11681.28423965 0 315
0.01750000 0.01747870 66063.10285015 0 -2365.53874308 0 9552.09141883 0 5353.13509762 0 -34034.32987679 0 297
0.01850000 0.01844180 66326.47129678 0 -2658.90848651 0 1078.46849747 0 11597.76620471 0 -23004.32894050 0 388
0.01950000 0.01947590 71473.67767301 0 653.17510487 0 -3105.18480183 0 3028.86078337 0 -19917.42143675 0 399
0.02050000 0.02045430 67788.20551784 0 325.84285932 0 -2209.57471419 0 205.08904478 0 -7111.47636952 0 462
0.02150000 0.02154770 65789.05578533 0 -1384.58963509 0 -1972.83536915 0 -346.13223389 0 -10859.62639316 0 571
0.02250000 0.02255340 69496.78442895 0 -2686.59420926 0 5622.95567777 0 -326.08116112 0 -4856.53438898 0 510
0.02350000 0.02348930 73131.22402980 0 -4089.37121724 0 1811.41962465 0 -5904.91616070 0 -4351.10976951 0 555
0.02450000 0.02439640 79108.21524299 0 -4166.21230563 0 7500.47032871 0 -6660.61386870 0 -9601.22430318 0 592
0.02550000 0.02547300 78921.50803435 0 -47.35101639 0 8034.58108885 0 -8148.67369377 0 -7972.01562688 0 837
0.02650000 0.02652900 77349.16581010 0 3680.68363796 0 15987.46512818 0 -9769.35071616 0 -14506.17217485 0 723
0.02750000 0.02749970 77127.27536467 0 4424.02787080 0 17162.45034909 0 -6685.21965315 0 -13384.01801238 0 826
0.02850000 0.02848090 73615.92088932 0 4252.09087722 0 26806.36664375 0 -6837.26069493 0 -16036.47436537 0 831
0.02950000 0.02946900 70823.63084123 0 3215.79280503 0 26276.48236829 0 -361.46672962 0 -12381.46437368 0 996
0.03050000 0.03053250 69759.59084304 0 1642.19162789 0 29433.86875211 0 2348.31806616 0 -14387.92052916 0 1041
0.03150000 0.03150510 68594.83461429 0 3420.22651987 0 27410.66402704 0 2387.07582988 0 -11873.04974112 0 1036
0.03250000 0.03246190 63586.33786809 0 3676.18737767 0 27048.60266700 0 5260.91679902 0 -4990.55666764 0 1059
0.03350000 0.03345080 62018.94153016 0 5921.00153190 0 26382.93133071 0 5247.57414661 0 -4357.40453392 0 1302
0.03450000 0.03451200 55499.25169967 0 4726.06415594 0 25610.36140597 0 7435.38696098 0 2782.99402993 0 1339
0.03550000 0.03553350 53722.77925815 0 1655.61296487 0 22264.80652890 0 9554.72173110 0 3796.05767706 0 1365
0.03650000 0.03647120 52086.36532473 0 -1081.86429806 0 19316.94587470 0 6683.18509536 0 9205.72200721 0 1308
0.03750000 0.03744890 54594.37931583 0 -2813.27634300 0 17206.40129345 0 6018.09827291 0 6487.36171898 0 1579
0.03850000 0.03847530 56492.70041128 0 -2360.67154132 0 12967.32708978 0 -33.38360861 0 4475.34144139 0 1662
0.03950000 0.03950240 56715.15288925 0 1271.56489199 0 10934.62401484 0 -4334.50732838 0 -2229.90905136 0 1683
0.04050000 0.04050350 57220.64495262 0 3487.52429580 0 14856.20603861 0 -7589.42883860 0 -7420.50433941 0 1822
0.04150000 0.04152450 51327.62140039 0 4826.93775560 0 15309.42907609 0 -8443.97682912 0 -11906.43447379 0 1887
0.04250000 0.04250150 48432.47939811 0 5079.96480356 0 16231.94928158 0 -3381.37883094 0 -17073.53680181 0 1920
0.04350000 0.04349210 42961.42987433 0 3107.81511410 0 12844.57918380 0 -2912.95843368 0 -17136.14722638 0 2005
0.04450000 0.04448520 41399.42904875 0 2252.69385040 0 16605.92573140 0 6418.59141781 0 -18844.61373098 0 2151
0.04550000 0.04548030 39542.24873497 0 -942.32623208 0 10331.82163809 0 5101.17591148 0 -16196.31641876 0 2274
0.04650000 0.04648670 39458.95551306 0 -143.90618285 0 9612.25138154 0 8139.38891626 0 -16401.45829460 0 2311
0.04750000 0.04749250 39771.55800989 0 -417.38896701 0 7849.88595669 0 1093.36798002 0 -13107.38559789 0 2568
0.04850000 0.04851840 39251.79032008 0 772.32263042 0 7746.28087890 0 -881.12088885 0 -9121.67566169 0 2493
0.04950000 0.04949480 38699.42474316 0 1330.31977336 0 8339.27016756 0 -4482.78275217 0 -9412.32516764 0 2644
0.05050000 0.05050630 39078.79670533 0 1035.39544794 0 12888.97975418 0 -4612.51110226 0 -3487.31072343 0 2829
0.05150000 0.05149060 38052.07566757 0 614.76355319 0 9732.03175573 0 -58.90606812 0 -9652.24561685 0 2784
0.05250000 0.05249300 37196.43733392 0 712.65950447 0 15277.28081500 0 -1035.60452404 0 -2471.95398355 0 3055
0.05350000 0.05348950 37655.84272930 0 1147.76036484 0 11295.39270005 0 245.69027522 0 -8869.48042189 0 3009
0.05450000 0.05448610 35879.25788127 0 1153.36944955 0 15379.68314316 0 2104.50835181 0 -578.87327947 0 3336
0.05550000 0.05550870 36331.24444716 0 227.69624153 0 13669.75535396 0 3404.83806902 0 -1995.74381534 0 3349
0.05650000 0.05647670 34872.43279529 0 -124.04058082 0 12512.19314168 0 2291.91248080 0 490.33966619 0 3324
0.05750000 0.05747970 35472.68354433 0 144.78520174 0 12616.50638046 0 3058.36749154 0 441.46644087 0 3639
0.05850000 0.05849280 34314.22207999 0 623.17268401 0 11176.68018768 0 328.23262167 0 1027.05600916 0 3846
0.05950000 0.05951020 33808.95482963 0 1248.31922628 0 12168.45404233 0 1811.72312222 0 3568.80544123 0 3787
0.06050000 0.06049470 33314.59101048 0 1295.70980976 0 11270.66326844 0 -436.16872218 0 1619.59791992 0 3930
0.06150000 0.06148310 32694.33190315 0 715.12457918 0 11979.27389052 0 941.14259156 0 2598.66983924 0 4083
0.06250000 0.06249100 32483.34488893 0 733.32206865 0 12223.98285694 0 1061.25456494 0 1378.67705281 0 4303
0.06350000 0.06350600 31568.13110641 0 90.02401117 0 11225.66694357 0 1620.62081914 0 3361.12317833 0 4470
0.06450000 0.06451750 31950.08841825 0 182.73363861 0 13135.15000519 0 700.66910234 0 3158.45424565 0 4479
0.06550000 0.06550280 31957.61965424 0 577.01182771 0 12297.72152573 0 1201.32206557 0 3551.39367325 0 4636
0.06650000 0.06648880 30899.08757490 0 525.54988054 0 12821.98547583 0 -245.62395538 0 3201.30360623 0 4653
0.06750000 0.06749660 30763.41292058 0 576.98934641 0 11737.82471282 0 -779.92917877 0 3848.38290621 0 5220
0.06850000 0.06852730 30064.58166463 0 162.29139119 0 10789.91187733 0 1524.67062450 0 2755.33078848 0 5029
0.06950000 0.06949320 30580.63993969 0 -343.22427755 0 9541.85118602 0 2751.49772658 0 1424.25789152 0 5040
0.07050000 0.07048030 29959.48158030 0 -323.42611942 0 7684.46854053 0 2020.69805996 0 740.11029763 0 5475
0.07150000 0.07148790 29900.13094444 0 433.71039187 0 6868.15000314 0 1067.86968790 0 -768.73124252 0 5509
0.07250000 0.07249820 29185.45037096 0 1224.26423372 0 7406.70082032 0 -618.67305152 0 1951.12967258 0 5916
0.07350000 0.07351270 28491.11537531 0 1389.05217343 0 8947.40061276 0 -624.53280274 0 2993.70002788 0 5721
0.07450000 0.07449140 27460.68492280 0 834.03829920 0 9381.04243666 0 79.50309930 0 5046.56883023 0 6028
0.07550000 0.07549160 27296.68382863 0 378.18270132 0 10529.52220315 0 1461.31831698 0 6537.30393018 0 6183
0.07650000 0.07648840 26911.35432157 0 203.46926701 0 10879.32001324 0 1549.51246262 0 6492.44249311 0 6330
0.07750000 0.07749960 26619.99665463 0 791.64306090 0 10698.77268120 0 -32.06586712 0 4258.52052944 0 6583
0.07850000 0.07848650 25783.91705325 0 1246.53196281 0 10075.38867296 0 -840.38252247 0 2876.48252206 0 6549
0.07950000 0.07947320 24462.57855983 0 1060.13162394 0 9805.78166518 0 -901.92733335 0 1076.05400570 0 6828
0.08050000 0.08048110 23330.86984423 0 907.03396098 0 8884.47544997 0 -287.60104147 0 -496.87498052 0 7147
0.08150000 0.08149960 23053.11336467 0 133.76037150 0 8514.19717424 0 1071.53863630 0 695.15893535 0 7386
0.08250000 0.08250610 22614.27836013 0 -99.90454316 0 8017.91120381 0 2478.28246992 0 -947.77794768 0 7227
0.08350000 0.08350160 23280.28691594 0 -338.93596930 0 7771.08899506 0 2760.73754148 0 1661.34569674 0 7798
0.08450000 0.08449610 23152.14349761 0 -151.84208227 0 7497.85125709 0 1445.03061407 0 1561.29266458 0 7371
0.08550000 0.08548940 23376.39447969 0 -13.93908135 0 7105.77735960 0 292.89538797 0 2156.90102487 0 8256
0.08650000 0.08650700 23461.71101874 0 453.16571015 0 7219.85872386 0 -1555.47000750 0 2851.15733596 0 8037
0.08750000 0.08749060 23137.30583864 0 84.64558461 0 6909.69544824 0 -908.67059973 0 1720.42655698 0 8155
0.08850000 0.08849210 23075.03263359 0 360.21452113 0 6948.48693392 0 -1169.34241424 0 713.42611685 0 8718
0.08950000 0.08949900 22433.75350939 0 258.52485023 0 6046.36850950 0 179.78184373 0 -1822.26685260 0 8571
0.09050000 0.09049190 22028.64045705 0 648.09882700 0 5995.07742022 0 667.65755927 0 -2631.47005808 0 8932
0.09150000 0.09150830 21206.94888861 0 736.17831800 0 5203.27474207 0 412.94778590 0 -3850.13644773 0 9285
0.09250000 0.09250820 20463.60465577 0 1015.28142752 0 5899.75670202 0 -208.51407106 0 -3714.05712998 0 9204
0.09350000 0.09350330 19822.55034458 0 804.72380616 0 6440.45448348 0 -114.24997403 0 -1428.94524288 0 9349
0.09450000 0.09448040 19358.08665638 0 434.43653791 0 6351.27116058 0 489.14815721 0 -1193.06018729 0 9564
0.09550000 0.09549270 18945.10514852 0 463.39470232 0 6718.22220369 0 66.49777881 0 372.54663905 0 10155
0.09650000 0.09649430 18516.72394916 0 127.10703034 0 5823.32027705 0 1594.93593222 0 -108.32244168 0 9913
0.09750000 0.09749140 18046.41512258 0 122.76251883 0 5004.78733147 0 1349.61997067 0 44.59458402 0 10476
0.09850000 0.09850240 18057.31855379 0 154.33076234 0 3795.48440387 0 802.66002268 0 -529.42116065 0 10575
0.09950000 0.09950330 17603.64589028 0 91.36513321 0 3520.09970162 0 -351.36363274 0 -1694.47189444 0 10882
0.10050000 0.10051200 17869.15006055 0 285.56423556 0 3262.89113159 0 -633.34210072 0 -2249.61391209 0 10875
0.10150000 0.10150300 17472.35508975 0 261.84196626 0 3536.30871997 0 -1631.52425035 0 -2016.94368261 0 11118
0.10250000 0.10250800 17399.40326650 0 243.75463517 0 5301.58547337 0 -862.18376456 0 -1502.97616859 0 11575
0.10350000 0.10349800 17869.59968658 0 140.90043285 0 5904.39909077 0 -421.20291980 0 -1438.56723990 0 11364
0.10450000 0.10450100 17540.92305920 0 435.51451631 0 7159.49642944 0 134.42806616 0 -784.07360670 0 12093
0.10550000 0.10551000 17457.62983729 0 400.34364424 0 7136.05967267 0 507.61542230 0 -242.72611562 0 12067
0.10650000 0.10649700 17015.87226356 0 345.12282346 0 7872.78316223 0 1299.93629444 0 1891.39685460 0 12054
0.10750000 0.10749900 16776.55880950 0 326.86800667 0 7031.29680785 0 1647.37356788 0 1046.42589850 0 12807
0.10850000 0.10850100 16356.04606565 0 277.10002556 0 6361.16293322 0 1468.98444078 0 1223.40994426 0 12736
0.10950000 0.10950300 16002.52760016 0 272.35647095 0 5447.53408246 0 493.33080335 0 682.95608492 0 12933
0.11050000 0.11050200 15601.23636906 0 301.31126317 0 4743.64453368 0 324.82445637 0 525.27560866 0 13428
0.11150000 0.11150900 15365.07029721 0 255.32463696 0 4348.13099706 0 -67.38972445 0 222.48957211 0 13453
0.11250000 0.11250000 15159.02916931 0 183.69583831 0 3358.80760428 0 386.33104904 0 -499.40300287 0 13668
0.11350000 0.11349100 14825.29424910 0 184.19492320 0 3512.27620871 0 38.04904069 0 -542.91443779 0 13791
0.11450000 0.11448600 14965.12794420 0 110.51886483 0 2616.81224952 0 821.90851299 0 -858.55753064 0 14205
0.11550000 0.11549300 14533.03733010 0 221.74656510 0 2694.62003388 0 624.78796552 0 -128.32551688 0 14776
0.11650000 0.11649800 14443.56175028 0 304.99145222 0 2760.88366994 0 -117.31642355 0 80.48305923 0 14553
0.11750000 0.11747300 14332.27930804 0 322.28406930 0 3197.02091831 0 -242.32145220 0 -118.70351985 0 14568
0.11850000 0.11849100 14043.28217775 0 210.25299973 0 3882.80177875 0 -763.79322465 0 206.31764791 0 16015
0.11950000 0.11950300 14082.39964229 0 272.21259062 0 4307.28247231 0 -1219.19470024 0 376.44714485 0 15270
0.12050000 0.12050700 13970.33035451 0 -42.22415559 0 4948.07824853 0 -446.86869762 0 293.22473903 0 15999
0.12150000 0.12150000 14261.12598892 0 -176.00835728 0 4925.02367388 0 287.20199837 0 -401.26650166 0 15670
0.12250000 0.12250700 14263.14930605 0 -119.67246394 0 4660.55364348 0 306.75286219 0 -529.42228471 0 16887
0.12350000 0.12352200 14372.85805718 0 -185.57077885 0 3932.18195741 0 982.40814446 0 -847.20222527 0 16407
0.12450000 0.12449800 14267.08353380 0 -9.96895095 0 3776.43150089 0 385.70044853 0 -969.94675906 0 16306
0.12550000 0.12549900 14580.24806317 0 15.94812285 0 3312.76589888 0 316.62777386 0 -1637.67288630 0 17523
0.12650000 0.12650100 14166.03008373 0 237.50932962 0 3253.44898498 0 -96.60923399 0 -1353.67784558 0 17154
0.12750000 0.12750600 14184.35234442 0 393.45537347 0 3025.12888733 0 -199.11351485 0 -1496.52403507 0 18007
0.12850000 0.12850300 13563.75601757 0 478.19751527 0 3264.84700482 0 -292.72453008 0 -1917.04801957 0 17496
0.12950000 0.12949900 13421.33697280 0 567.44153768 0 3461.33357959 0 -152.50752879 0 -1596.57706723 0 18405
0.13050000 0.13049000 12654.94940596 0 394.77614993 0 3500.59717260 0 20.74821793 0 -2047.58569651 0 18100
0.13150000 0.13148800 12586.04421698 0 277.15510475 0 3520.71793741 0 238.79076380 0 -1366.30109635 0 19059
0.13250000 0.13249300 12312.33437168 0 85.38757996 0 3450.49759229 0 -5.93688457 0 -1912.24826171 0 18957
0.13350000 0.13349100 12209.25760448 0 135.95342246 0 3484.26450709 0 -59.44831711 0 -1446.82911819 0 19468
0.13450000 0.13450700 12365.95227567 0 102.77799071 0 3730.64833046 0 -323.49805958 0 -1801.35924224 0 19953
0.13550000 0.13551000 12183.74132732 0 164.13710604 0 3822.70925994 0 -266.21120720 0 -1296.21563904 0 19956
0.13650000 0.13649900 12238.93292241 0 8.47367463 0 3751.85943839 0 114.31629387 0 -1644.52968325 0 19723
0.13750000 0.13749600 12132.59636650 0 110.73277442 0 3838.91827830 0 -87.13876094 0 -1740.95198522 0 20946
0.13850000 0.13851100 12098.87441430 0 67.22504892 0 3397.09326067 0 181.79616834 0 -1853.94300636 0 20955
0.13950000 0.13949800 11941.61771058 0 108.51769178 0 3593.92829562 0 454.25942547 0 -1734.40992649 0 20506
0.14050000 0.14048300 11954.76927193 0 142.87091892 0 3518.49228856 0 218.45979883 0 -1311.78394031 0 21447
0.14150000 0.14148400 11780.53918560 0 168.05110062 0 3658.33722431 0 322.19639223 0 -1098.56340879 0 21771
0.14250000 0.14249400 11584.95186288 0 270.16566812 0 3564.14057118 0 45.91176347 0 -338.39079774 0 22470
0.14350000 0.14350900 11491.76686832 0 307.77463734 0 4004.89772699 0 107.77131257 0 347.02923782 0 22519
0.14450000 0.14449900 11426.68350059 0 160.66936529 0 4111.35793007 0 372.55450750 0 1089.39103779 0 22218
0.14550000 0.14550500 11110.10181340 0 43.68128115 0 4147.40669696 0 7.18837366 0 1273.82426279 0 23559
0.14650000 0.14650700 11076.95313440 0 103.10790381 0 4056.40238864 0 468.28213726 0 1216.82292293 0 23044
0.14750000 0.14750500 10922.09068927 0 173.21393150 0 3780.99520508 0 362.19512379 0 1056.19964431 0 23649
0.14850000 0.14849900 10785.46057964 0 178.89720451 0 3565.91659400 0 395.17968929 0 745.67779193 0 23640
0.14950000 0.14949500 10648.48200983 0 176.69853323 0 3337.47284919 0 183.54408953 0 614.87708377 0 24457
0.15050000 0.15050000 10365.74592200 0 143.74544155 0 2605.66152400 0 271.87986736 0 363.26748187 0 24591
0.15150000 0.15149900 10185.52456883 0 260.46386248 0 2816.59233497 0 186.87581840 0 670.47783854 0 25020
0.15250000 0.15250500 10063.08016041 0 234.12364562 0 2575.54782069 0 -14.03473928 0 204.92830348 0 25297
0.15350000 0.15350100 9795.02436243 0 323.92520431 0 2803.96908420 0 355.89811125 0 683.65637746 0 25452
0.15450000 0.15450400 9478.00428986 0 299.19914490 0 2724.16046400 0 221.97137812 0 1003.25842750 0 26061
0.15550000 0.15549900 9284.14802736 0 140.73744341 0 2492.52437439 0 194.13727877 0 826.32833686 0 26128
0.15650000 0.15649500 9412.42633350 0 65.67136617 0 2719.76536957 0 241.51324941 0 1137.35152226 0 26331
0.15750000 0.15749700 9280.61846303 0 -68.57628754 0 2777.49735172 0 83.69024170 0 843.73223639 0 27345
0.15850000 0.15849900 9459.72699178 0 -51.67372104 0 2879.82099533 0 -162.30263184 0 1303.70191243 0 26980
0.15950000 0.15949700 9518.40318859 0 43.35653875 0 2746.70920937 0 -562.21913135 0 796.02579062 0 27777
0.16050000 0.16050000 9567.43490708 0 86.90090877 0 3343.18309976 0 -287.44592049 0 890.94184539 0 28224
0.16150000 0.16150500 9595.80630953 0 76.17283171 0 3166.35642311 0 -156.33159817 0 527.25171506 0 28075
0.16250000 0.16249700 9446.44054261 0 24.83352003 0 3264.64467310 0 361.96581451 0 443.06373734 0 28590
0.16350000 0.16349900 9441.35976848 0 62.17012828 0 2911.72196210 0 269.35521721 0 44.83434710 0 29163
0.16450000 0.16449100 9291.46569098 0 113.48898198 0 2812.38833159 0 419.47073552 0 -377.86571497 0 28996
0.16550000 0.16550500 9138.54787844 0 160.46141325 0 2424.47347487 0 278.14877827 0 -20.44685609 0 30777
0.16650000 0.16650700 8981.40358122 0 120.23674461 0 2263.08021167 0 88.52934184 0 -466.43867054 0 29211
0.16750000 0.16749900 8846.00994317 0 18.69466345 0 2090.48001970 0 120.07038298 0 -235.85020957 0 30922
0.16850000 0.16850800 8834.52199812 0 83.49948786 0 2190.81406812 0 7.18443943 0 -533.96463167 0 30867
0.16950000 0.16949900 8807.60063962 0 85.22638903 0 2128.24860615 0 -289.35907925 0 -26.42474655 0 30852
0.17050000 0.17049200 8849.11236277 0 104.56491695 0 2491.49023452 0 -200.31176822 0 -2.51890618 0 31257
0.17150000 0.17149500 8891.93924205 0 72.61820073 0 2621.76937650 0 -84.39154590 0 -52.38457979 0 32608
0.17250000 0.17250900 8801.46324432 0 61.67542724 0 2835.37546234 0 74.37646332 0 466.12393232 0 32361
0.17350000 0.17350400 8794.20178395 0 86.13013735 0 2939.23907509 0 166.68423749 0 308.25011687 0 32508
0.17450000 0.17449800 8768.06727100 0 183.46540497 0 2952.40187710 0 51.58177251 0 555.57815490 0 32791
0.17550000 0.17549800 8592.99413586 0 251.07791912 0 2870.61490238 0 -26.19925910 0 319.99659688 0 33633
0.17650000 0.17650100 8285.34876600 0 326.98490944 0 2997.93775321 0 45.64715855 0 563.68266408 0 33984
0.17750000 0.17750300 8115.56997736 0 231.84066946 0 2826.93373364 0 -18.29719404 0 447.97140545 0 34069
