### header ###
fiducial parameters:
Omega_m = 0.31
Omega_nu = 0
Omega_de = 0.69
Omega_k = 0
H_0 = 100
w_de = -1
zeff = 0
beta = 0
fgrowth = 0
b_1 = 2
gamma = 0.55
Lx = 3500 Ly = 3500 Lz = 3500
nx = 700 ny = 700 nz = 700
xoffset = 857.220397 yoffset = 15.9954215 zoffset = 262.898189
bins = 400 dk = 0.001
kx_ny = 0.628318531 ky_ny = 0.628318531 kz_ny = 0.628318531
############################
A(data) = 3.13162699 (not used)
A(ran) = 3.12129894 (used)
Ngal = 190564
weighted Ngal = 0
Nran = 9360983
weighted Nran = 0
SN(data) = 3477.1682
SN(ran) = 70.0926439
SN(data+ran) = 3547.26085
############################
13 columns: k_central k_mean P_0(k) sigma^{lin}_{P_0(k)} P^img_1(k) sigma^{lin}_{P_1(k)} P_2(k) sigma^{lin}_{P_2(k)} P^img_3(k) sigma^{lin}_{P_3(k)} P_4(k) sigma^{lin}_{P_4(k)} N_modes
### header ###
0.00050000 0 0 0 0 0 0 0 0 0 0 0 0
0.00150000 0.00179520 63337.91948693 0 -56630.96041527 0 -50549.31874377 0 152533.38228940 0 8505.26085691 0 3
0.00250000 0.00253879 105947.85421290 0 -65088.65083828 0 -470.44371439 0 -63907.48325947 0 8943.67995737 0 6
0.00350000 0.00331552 131180.64216081 0 -32640.71399916 0 -27258.80283567 0 -50589.56027339 0 17804.74113186 0 7
0.00450000 0.00420575 158348.17091255 0 -6947.21674038 0 -10269.45850783 0 -59539.14157239 0 9143.32515500 0 24
0.00550000 0.00557378 140502.51381202 0 27630.64356185 0 5281.90309394 0 -49378.60497014 0 38889.95377305 0 45
0.00650000 0.00659388 149043.16023743 0 25522.90914328 0 43449.61133557 0 -2938.31734173 0 3633.50662684 0 40
0.00750000 0.00754703 102209.77581231 0 23095.71543094 0 49460.88653349 0 2947.11877125 0 9070.66558867 0 57
0.00850000 0.00846663 100168.58604607 0 16807.69541202 0 53345.31820660 0 40113.27379211 0 4594.91948386 0 75
0.00950000 0.00948925 77105.13128273 0 5408.97865045 0 46813.71328634 0 46141.18515311 0 11180.26595526 0 112
0.01050000 0.01054430 81968.96085403 0 -3999.87315612 0 14875.87717739 0 41419.54981356 0 -1441.05142371 0 105
0.01150000 0.01145670 79476.34655443 0 -9025.50065404 0 -2128.99048910 0 39158.49291902 0 18014.04204847 0 144
0.01250000 0.01249090 88890.05432211 0 -9317.99362671 0 -10522.01344846 0 5719.87256837 0 11699.94371986 0 169
0.01350000 0.01339930 88807.66035225 0 -5187.06572372 0 -21048.68052632 0 1344.69656565 0 23884.92151876 0 180
0.01450000 0.01448870 92773.58674316 0 7019.32551482 0 6047.98716321 0 -25934.42936654 0 36354.28778116 0 267
0.01550000 0.01550050 83280.40757481 0 11276.28359381 0 1466.56770087 0 -12772.18939309 0 13725.39657508 0 238
0.01650000 0.01653350 79442.73700874 0 11684.65643487 0 52378.62224374 0 -18832.13660867 0 42116.80737840 0 315
0.01750000 0.01747870 66818.02495325 0 8721.35112656 0 29743.88589928 0 -6081.04591701 0 14846.08945296 0 297
0.01850000 0.01844180 72771.63561291 0 2170.60337811 0 71974.22385006 0 316.25458425 0 23547.36477731 0 388
0.01950000 0.01947590 72972.73085449 0 360.65515464 0 63600.83830753 0 1008.97092620 0 15178.58790158 0 399
0.02050000 0.02045430 71038.77689623 0 924.93694540 0 63483.26110088 0 14307.99950246 0 -3456.94972581 0 462
0.02150000 0.02154770 73349.51746699 0 428.42616196 0 63351.29586130 0 11642.84121415 0 11884.85242438 0 571
0.02250000 0.02255340 67336.78098448 0 2405.58918164 0 47103.49726219 0 22206.46755161 0 -14525.05646808 0 510
0.02350000 0.02348930 72181.05182351 0 1939.73165274 0 53991.88043665 0 15700.94094105 0 14534.27380168 0 555
0.02450000 0.02439640 59535.88178368 0 1766.82796320 0 37870.42675175 0 23329.85818566 0 -15618.20975167 0 592
0.02550000 0.02547300 63399.29343992 0 1576.68111543 0 35038.23239357 0 12937.65177185 0 13516.65769100 0 837
0.02650000 0.02652900 57516.16166034 0 1067.34137732 0 24071.40391439 0 8458.78076613 0 -1694.37072859 0 723
0.02750000 0.02749970 57186.69818741 0 2833.72308668 0 14933.65412215 0 7702.34117519 0 19275.01824747 0 826
0.02850000 0.02848090 55228.91404959 0 1941.13673408 0 18251.89421794 0 1172.86073792 0 3431.47841125 0 831
0.02950000 0.02946900 55811.51697698 0 294.05092686 0 14000.56770497 0 -2683.94141569 0 7297.84635864 0 996
0.03050000 0.03053250 55308.27304375 0 180.03026211 0 13131.21577744 0 -494.97643461 0 3698.57875392 0 1041
0.03150000 0.03150510 54274.13317650 0 -992.48201564 0 11956.00574351 0 -2598.35510102 0 6098.78366386 0 1036
0.03250000 0.03246190 55886.15489783 0 1211.52857644 0 15593.36791355 0 -2197.87319678 0 9044.12641230 0 1059
0.03350000 0.03345080 57815.16296978 0 395.73385337 0 20490.13259149 0 1246.82421973 0 2711.53721323 0 1302
0.03450000 0.03451200 57522.23161173 0 2977.42356562 0 24899.16543422 0 -3412.22317655 0 12706.20677330 0 1339
0.03550000 0.03553350 53750.76847847 0 866.58672746 0 23214.41670266 0 906.79453512 0 11556.28820352 0 1365
0.03650000 0.03647120 53549.44842388 0 326.16434194 0 29592.36192742 0 1533.76431094 0 9901.86674763 0 1308
0.03750000 0.03744890 54959.81287109 0 -78.72816884 0 28671.07819351 0 503.76774755 0 6615.03302998 0 1579
0.03850000 0.03847530 54176.56432816 0 -810.60828681 0 26505.45442368 0 3033.72798514 0 3672.16322470 0 1662
0.03950000 0.03950240 54598.53835660 0 174.56393366 0 25262.91289187 0 -1560.55078163 0 -1839.49877017 0 1683
0.04050000 0.04050350 54268.17563162 0 598.85241208 0 23274.32937105 0 301.19773260 0 -3501.24913034 0 1822
0.04150000 0.04152450 52809.58879276 0 1520.69143414 0 23195.75722244 0 6117.69043839 0 -522.93305705 0 1887
0.04250000 0.04250150 50410.72152026 0 1967.75459502 0 16717.54539316 0 6647.48478864 0 -4585.12887708 0 1920
0.04350000 0.04349210 49278.00114610 0 1220.76839134 0 14743.46231178 0 11022.28984989 0 4145.96789367 0 2005
0.04450000 0.04448520 46726.26102366 0 1183.92153824 0 9417.43966373 0 8861.01621189 0 2367.34848785 0 2151
0.04550000 0.04548030 48086.71698163 0 438.82376389 0 12903.25538061 0 5661.91577320 0 14586.09320155 0 2274
0.04650000 0.04648670 45379.63106608 0 1604.60289185 0 7273.88129128 0 -36.63260629 0 9070.13727809 0 2311
0.04750000 0.04749250 45942.56285469 0 2563.90250653 0 15840.32501011 0 -4090.39411645 0 18866.53299991 0 2568
0.04850000 0.04851840 42630.95474284 0 3712.03381285 0 15972.85228223 0 -5409.90038381 0 16358.06938278 0 2493
0.04950000 0.04949480 41267.91343520 0 3390.12405721 0 20116.83058072 0 -3879.45206483 0 17637.81746851 0 2644
0.05050000 0.05050630 38776.31079416 0 1564.22647442 0 19922.47972958 0 2181.94519469 0 15990.50010388 0 2829
0.05150000 0.05149060 37941.91729040 0 422.93510408 0 20677.96386521 0 3116.29056476 0 10638.15185181 0 2784
0.05250000 0.05249300 36520.08737944 0 632.53502200 0 16723.84015757 0 2323.42002479 0 5487.05621043 0 3055
0.05350000 0.05348950 36763.78468729 0 1526.34548146 0 18111.04886428 0 914.33925989 0 962.20869509 0 3009
0.05450000 0.05448610 33687.66820824 0 2581.47164363 0 15403.40091620 0 -2148.47053682 0 1993.38327868 0 3336
0.05550000 0.05550870 32955.56462613 0 1149.58135026 0 16755.08916660 0 -1143.84861839 0 969.82760816 0 3349
0.05650000 0.05647670 31978.30245158 0 -645.66185392 0 15316.84790557 0 1264.12358121 0 -596.82347463 0 3324
0.05750000 0.05747970 33646.75223958 0 -1526.40168471 0 15224.56216307 0 1164.66630354 0 -660.05550718 0 3639
0.05850000 0.05849280 35070.94268720 0 -1203.09808839 0 14148.04504256 0 2614.94630150 0 -1626.16245995 0 3846
0.05950000 0.05951020 36095.52800133 0 -757.08030803 0 13437.52350986 0 843.83003005 0 551.64280308 0 3787
0.06050000 0.06049470 35830.36105059 0 840.10600246 0 14069.36048745 0 58.37730791 0 -329.99740384 0 3930
0.06150000 0.06148310 35967.60939601 0 733.19280117 0 15794.35074862 0 922.80009770 0 2836.45456481 0 4083
0.06250000 0.06249100 34645.37165052 0 876.62912482 0 15992.29860800 0 723.84507602 0 1954.81660602 0 4303
0.06350000 0.06350600 33971.83185872 0 937.17126966 0 15184.99507250 0 1487.73384620 0 3287.89033881 0 4470
0.06450000 0.06451750 33739.93723414 0 789.85804557 0 14884.98210449 0 1326.65532122 0 2015.51611997 0 4479
0.06550000 0.06550280 32930.27316199 0 716.09801953 0 14860.58989240 0 1408.06011382 0 3717.40684390 0 4636
0.06650000 0.06648880 32785.83080010 0 542.71997453 0 15191.28983691 0 509.18236901 0 2526.87580303 0 4653
0.06750000 0.06749660 31328.03080679 0 427.52915803 0 11685.78049994 0 1555.86343028 0 1888.01341873 0 5220
0.06850000 0.06852730 31583.75561092 0 649.25324183 0 12402.14717102 0 730.59621085 0 1349.27151049 0 5029
0.06950000 0.06949320 30607.50509494 0 713.03157001 0 9812.64970278 0 173.94457380 0 -565.17317436 0 5040
0.07050000 0.07048030 29215.12568889 0 1106.95567862 0 10079.15429096 0 1653.26366886 0 199.55077617 0 5475
0.07150000 0.07148790 28386.01529097 0 578.46299572 0 7857.83309675 0 1349.93470889 0 -1101.88726921 0 5509
0.07250000 0.07249820 28156.59360955 0 63.59926462 0 6676.22713256 0 1721.38201229 0 -1467.06228950 0 5916
0.07350000 0.07351270 28214.14574130 0 -352.58549148 0 6525.24271194 0 1265.83216012 0 -1211.35996668 0 5721
0.07450000 0.07449140 27921.10197674 0 150.30548531 0 6669.48274212 0 26.17520411 0 -2619.08286097 0 6028
0.07550000 0.07549160 27659.86925375 0 604.11191256 0 5956.57819146 0 -524.76078686 0 -106.68670219 0 6183
0.07650000 0.07648840 27226.87938759 0 1082.44319157 0 7905.56089976 0 -176.99641048 0 -664.29997690 0 6330
0.07750000 0.07749960 26738.47311333 0 940.44229902 0 8017.55150299 0 -1096.07248058 0 1075.59426308 0 6583
0.07850000 0.07848650 25820.67398115 0 786.18572497 0 8291.23886699 0 766.45163855 0 -485.24652734 0 6549
0.07950000 0.07947320 25552.35964820 0 491.92684607 0 8295.29674190 0 763.16037601 0 245.56437993 0 6828
0.08050000 0.08048110 24607.80776727 0 453.72886676 0 6822.55792378 0 1905.67248103 0 -779.48180088 0 7147
0.08150000 0.08149960 24743.37001509 0 94.39325211 0 7072.06664805 0 954.09294527 0 -249.59977355 0 7386
0.08250000 0.08250610 24230.45912223 0 -272.50821974 0 5869.94649628 0 619.00802291 0 -1486.75590959 0 7227
0.08350000 0.08350160 24618.71119848 0 14.19795353 0 5612.22085632 0 716.38128393 0 -811.52215172 0 7798
0.08450000 0.08449610 24578.58207537 0 124.79482848 0 5615.55932959 0 1027.92153927 0 531.50854949 0 7371
0.08550000 0.08548940 23971.47452939 0 792.62999004 0 5581.60132373 0 101.70574503 0 295.76287797 0 8256
0.08650000 0.08650700 23612.44814504 0 829.48021533 0 5716.16315363 0 926.62641520 0 2714.45978242 0 8037
0.08750000 0.08749060 22513.33731657 0 653.96419855 0 5960.38877206 0 823.70701711 0 2184.27200940 0 8155
0.08850000 0.08849210 22530.87273171 0 456.12200130 0 5688.40998697 0 809.16273913 0 3639.73394735 0 8718
0.08950000 0.08949900 22046.40068520 0 150.94957460 0 5292.57047148 0 543.58662870 0 1824.27892908 0 8571
0.09050000 0.09049190 21960.07248759 0 143.69935488 0 4762.05671958 0 -97.35774892 0 1638.23491884 0 8932
0.09150000 0.09150830 21593.29005423 0 298.63261610 0 3886.61235935 0 -1000.09418432 0 -1152.77369507 0 9285
0.09250000 0.09250820 21343.18557547 0 647.04108177 0 3957.09123943 0 -1175.17631197 0 -1466.03939029 0 9204
0.09350000 0.09350330 20524.19176321 0 625.18700862 0 3990.18371519 0 -769.62937051 0 -1858.47298861 0 9349
0.09450000 0.09448040 20135.15284141 0 501.81412245 0 3753.90523682 0 -104.82007973 0 -3053.03942309 0 9564
0.09550000 0.09549270 19451.72127697 0 557.85663480 0 3791.22419725 0 272.88815373 0 -2752.36325669 0 10155
0.09650000 0.09649430 19141.70412980 0 517.88375674 0 3597.15436238 0 882.94524646 0 -3126.73312928 0 9913
0.09750000 0.09749140 18736.59107746 0 486.17837729 0 3609.85629770 0 425.55642383 0 -2016.90996066 0 10476
0.09850000 0.09850240 18197.48946840 0 428.38007529 0 4011.76576459 0 484.04827397 0 -703.01390208 0 10575
0.09950000 0.09950330 18145.33284901 0 226.12704669 0 4249.70785926 0 409.88808078 0 170.19469272 0 10882
0.10050000 0.10051200 18037.75982151 0 112.48181967 0 4214.06375579 0 149.07688219 0 844.65734194 0 10875
0.10150000 0.10150300 17901.86035418 0 216.67927975 0 4760.67411954 0 572.03334350 0 1437.73543175 0 11118
0.10250000 0.10250800 17805.52797741 0 -64.17096411 0 4577.82245410 0 310.86244410 0 2382.72569805 0 11575
0.10350000 0.10349800 18027.53082935 0 203.57717726 0 4401.08570266 0 -86.41328934 0 1305.17443768 0 11364
0.10450000 0.10450100 17770.90677316 0 231.73837954 0 4413.20312415 0 387.69004371 0 1952.11884985 0 12093
0.10550000 0.10551000 17491.35178948 0 392.80566386 0 4879.56648232 0 -53.90690112 0 1202.31124284 0 12067
0.10650000 0.10649700 16934.82717179 0 411.64274635 0 3904.22645905 0 693.33682587 0 1322.82225932 0 12054
0.10750000 0.10749900 16532.07465610 0 417.57106555 0 4253.92310329 0 359.69070681 0 770.52525037 0 12807
0.10850000 0.10850100 16109.65100163 0 408.82359115 0 3444.11290267 0 144.30185376 0 485.95581240 0 12736
0.10950000 0.10950300 15740.28321861 0 407.35668623 0 3482.03885824 0 208.13188894 0 948.26241973 0 12933
0.11050000 0.11050200 15478.03883705 0 87.98338343 0 2957.90979596 0 231.63046929 0 350.78249110 0 13428
0.11150000 0.11150900 15618.09734516 0 -54.82919651 0 2788.98529677 0 -82.61844565 0 947.36766393 0 13453
0.11250000 0.11250000 15544.47108287 0 -226.27429921 0 3020.21672296 0 336.60241020 0 -635.87911559 0 13668
0.11350000 0.11349100 15889.67146682 0 -293.09996781 0 2687.56090522 0 -187.31307972 0 298.90688798 0 13791
0.11450000 0.11448600 15874.94621436 0 61.62934058 0 2886.54290446 0 215.09996832 0 -458.59944072 0 14205
0.11550000 0.11549300 15999.38021796 0 261.10570363 0 3040.74215119 0 -637.19089953 0 -136.29626231 0 14776
0.11650000 0.11649800 15792.66465101 0 312.02585145 0 3582.13685300 0 -316.83460183 0 98.35974053 0 14553
0.11750000 0.11747300 15525.92400917 0 438.53375510 0 4100.13976064 0 -189.38023539 0 760.41765724 0 14568
0.11850000 0.11849100 15399.24187543 0 120.38624526 0 4371.77008555 0 -157.54896065 0 1143.76993383 0 16015
0.11950000 0.11950300 15458.03047875 0 -6.84010458 0 5350.35865689 0 107.49647866 0 1471.00775791 0 15270
0.12050000 0.12050700 15505.46602484 0 15.16858372 0 5151.19680724 0 227.22750640 0 1570.42007298 0 15999
0.12150000 0.12150000 15591.34459642 0 97.72115916 0 5400.01985182 0 342.25982972 0 1203.36786401 0 15670
0.12250000 0.12250700 15367.76805338 0 208.10491137 0 4758.77444957 0 275.84669300 0 1865.29606360 0 16887
0.12350000 0.12352200 15066.06898776 0 296.90267995 0 4407.81885245 0 479.37778359 0 593.47938103 0 16407
0.12450000 0.12449800 14681.97595228 0 334.88596284 0 3915.92797646 0 280.49132989 0 547.14991498 0 16306
0.12550000 0.12549900 14318.00368161 0 474.75225582 0 3789.74043135 0 -16.39741166 0 -419.18297486 0 17523
0.12650000 0.12650100 14025.97157562 0 465.61585490 0 3650.13154927 0 -223.34610970 0 -559.27857712 0 17154
0.12750000 0.12750600 13645.02592235 0 330.69769638 0 3921.54830182 0 -747.60668760 0 -291.89047379 0 18007
0.12850000 0.12850300 13585.45047348 0 118.19094618 0 4137.16646414 0 -190.66166957 0 -464.38050739 0 17496
0.12950000 0.12949900 13581.62865223 0 63.87297446 0 4920.02158430 0 235.33875996 0 240.08681083 0 18405
0.13050000 0.13049000 13565.32970867 0 145.31913265 0 4921.69644126 0 173.50956062 0 360.88896017 0 18100
0.13150000 0.13148800 13422.12381835 0 307.12380366 0 5159.91955220 0 359.32088940 0 909.03592088 0 19059
0.13250000 0.13249300 13079.73359709 0 438.12796761 0 5053.17833286 0 387.59449818 0 976.87662023 0 18957
0.13350000 0.13349100 12738.13022137 0 351.99086106 0 5178.81508608 0 304.90602327 0 1322.18154223 0 19468
0.13450000 0.13450700 12514.77849135 0 322.06937287 0 5354.79871393 0 316.08934669 0 2013.32419308 0 19953
0.13550000 0.13551000 12049.75277061 0 285.91044760 0 4903.02572040 0 314.45832826 0 1434.01477636 0 19956
0.13650000 0.13649900 12015.46878588 0 173.70627201 0 5156.82837325 0 196.86088845 0 2216.92609977 0 19723
0.13750000 0.13749600 11849.10715506 0 106.53663950 0 4912.88377109 0 305.44220231 0 1532.59528327 0 20946
0.13850000 0.13851100 11883.27873328 0 17.39760476 0 4965.00666853 0 352.17745586 0 2196.43439349 0 20955
0.13950000 0.13949800 11867.31700924 0 -37.36796966 0 4763.39435702 0 62.29400025 0 1419.19959869 0 20506
0.14050000 0.14048300 12007.93754989 0 12.11191357 0 4851.84703762 0 155.01981423 0 1909.26948926 0 21447
0.14150000 0.14148400 11884.17798534 0 3.40950294 0 4348.51317919 0 117.90430958 0 783.48234847 0 21771
0.14250000 0.14249400 12069.98594192 0 18.55674067 0 4378.17725647 0 8.47537197 0 906.70460991 0 22470
0.14350000 0.14350900 11847.64587046 0 82.06326991 0 3924.01000433 0 8.39556335 0 -138.59385132 0 22519
0.14450000 0.14449900 11704.66479317 0 243.96146314 0 3925.05538485 0 142.00988508 0 72.31391632 0 22218
0.14550000 0.14550500 11433.87751706 0 425.58677359 0 3884.75765198 0 -162.61062567 0 -323.13498656 0 23559
0.14650000 0.14650700 11172.47618431 0 454.86979281 0 3729.70411580 0 160.10058836 0 -361.64658003 0 23044
0.14750000 0.14750500 10641.93995111 0 297.12524484 0 3676.20985897 0 420.45204433 0 -12.55457039 0 23649
0.14850000 0.14849900 10530.41021455 0 141.68278214 0 3215.38814160 0 896.85217955 0 -79.79985248 0 23640
0.14950000 0.14949500 10412.73184205 0 -24.83014784 0 3329.01987984 0 688.96084054 0 268.14010286 0 24457
0.15050000 0.15050000 10527.71245838 0 68.74680821 0 3068.76509346 0 483.83807380 0 334.58696153 0 24591
0.15150000 0.15149900 10372.17557421 0 130.91648687 0 2953.22244460 0 -38.74551141 0 1051.65504922 0 25020
0.15250000 0.15250500 10212.98547856 0 269.15625769 0 3358.93125143 0 -211.55803928 0 1429.36114695 0 25297
0.15350000 0.15350100 10039.71084754 0 247.22462405 0 3126.93546100 0 -86.87246992 0 1172.89445987 0 25452
0.15450000 0.15450400 9949.33601567 0 213.88148178 0 3482.20746800 0 156.93184892 0 1588.67488976 0 26061
0.15550000 0.15549900 9592.97366554 0 168.96833772 0 3054.11852556 0 190.51666517 0 1057.58112029 0 26128
0.15650000 0.15649500 9536.06225089 0 98.99405045 0 2995.29620029 0 307.30365407 0 1020.30599840 0 26331
0.15750000 0.15749700 9521.29203583 0 -6.66579581 0 2841.52409829 0 123.50215365 0 284.56381765 0 27345
0.15850000 0.15849900 9534.82577931 0 -72.82221854 0 2587.28306005 0 -149.89744969 0 466.11269167 0 26980
0.15950000 0.15949700 9566.31084201 0 -77.65389985 0 2693.74326313 0 -153.45399158 0 -296.75093117 0 27777
0.16050000 0.16050000 9632.34966505 0 68.62675806 0 2805.61021920 0 -400.49426896 0 -64.86563633 0 28224
0.16150000 0.16150500 9608.27219119 0 239.30446154 0 3113.50288337 0 -345.62415648 0 -375.05780042 0 28075
0.16250000 0.16249700 9407.48044718 0 343.09388600 0 3477.78989226 0 -292.32773511 0 57.10666475 0 28590
0.16350000 0.16349900 9130.35344406 0 245.28673586 0 3341.06985742 0 -42.60139183 0 53.24527642 0 29163
0.16450000 0.16449100 9098.72225290 0 179.86390048 0 3759.61548739 0 154.67135406 0 274.49556679 0 28996
0.16550000 0.16550500 9005.11011361 0 -15.13666027 0 3309.69720123 0 563.82766847 0 277.90822835 0 30777
0.16650000 0.16650700 8968.49931418 0 -33.43812576 0 3179.75527878 0 435.19640590 0 48.16540154 0 29211
0.16750000 0.16749900 9008.50479013 0 -88.02036518 0 2627.94049375 0 481.98561456 0 174.59315935 0 30922
0.16850000 0.16850800 9017.18257250 0 -20.22260510 0 2376.00378891 0 526.52444496 0 -284.84258578 0 30867
0.16950000 0.16949900 8935.84522381 0 55.62053832 0 2113.44466914 0 273.25235081 0 -120.83699536 0 30852
0.17050000 0.17049200 8965.98140842 0 28.47481643 0 1810.59905715 0 281.76264748 0 -490.79266441 0 31257
0.17150000 0.17149500 8801.41828172 0 30.02838677 0 1487.92493726 0 281.15902454 0 -235.99071771 0 32608
0.17250000 0.17250900 8893.63658031 0 38.55329628 0 1370.90976315 0 251.09140790 0 -239.16620154 0 32361
0.17350000 0.17350400 8829.55363049 0 44.87672435 0 1273.91418799 0 -123.77642552 0 -198.93591257 0 32508
0.17450000 0.17449800 8766.72963356 0 111.12451109 0 1286.91962089 0 11.70005613 0 -123.89782455 0 32791
0.17550000 0.17549800 8659.41514103 0 161.58098206 0 1416.56928642 0 -171.23445291 0 -302.88158208 0 33633
0.17650000 0.17650100 8491.65966952 0 144.99427784 0 1618.83355567 0 -138.71637441 0 -50.86889044 0 33984
0.17750000 0.17750300 8519.14306056 0 113.41816588 0 1626.60084533 0 -31.99167883 0 57.37778925 0 34069
0.17850000 0.17849800 8355.88384934 0 168.30513933 0 1756.76758079 0 -57.26684403 0 -166.08735894 0 34536
