### header ###
fiducial parameters:
Omega_m = 0.31
Omega_nu = 0
Omega_de = 0.69
Omega_k = 0
H_0 = 100
w_de = -1
zeff = 0
beta = 0
fgrowth = 0
b_1 = 2
gamma = 0.55
Lx = 3500 Ly = 3500 Lz = 3500
nx = 700 ny = 700 nz = 700
xoffset = 857.220397 yoffset = 15.9954215 zoffset = 262.898189
bins = 400 dk = 0.001
kx_ny = 0.628318531 ky_ny = 0.628318531 kz_ny = 0.628318531
############################
A(data) = 3.09525234 (not used)
A(ran) = 3.09391581 (used)
Ngal = 188469
weighted Ngal = 0
Nran = 9360983
weighted Nran = 0
SN(data) = 3454.83333
SN(ran) = 69.4777216
SN(data+ran) = 3524.31105
############################
13 columns: k_central k_mean P_0(k) sigma^{lin}_{P_0(k)} P^img_1(k) sigma^{lin}_{P_1(k)} P_2(k) sigma^{lin}_{P_2(k)} P^img_3(k) sigma^{lin}_{P_3(k)} P_4(k) sigma^{lin}_{P_4(k)} N_modes
### header ###
0.00050000 0 0 0 0 0 0 0 0 0 0 0 0
0.00150000 0.00179520 1288.50455264 0 -6990.18974813 0 -2561.83422680 0 16354.35996804 0 -10647.47035127 0 3
0.00250000 0.00253879 7194.98316380 0 -11620.24750618 0 254.99303777 0 -2440.59256801 0 8365.77562199 0 6
0.00350000 0.00331552 12086.28488548 0 -10949.21437949 0 226.61151874 0 -630.45437755 0 -7671.30573852 0 7
0.00450000 0.00420575 22134.97701296 0 -14285.06857497 0 -5474.86010439 0 1928.99683129 0 -3296.51191793 0 24
0.00550000 0.00557378 34153.59318104 0 -13164.15088408 0 -14945.56921193 0 -811.85037872 0 -9246.44688481 0 45
0.00650000 0.00659388 54059.32434103 0 -17485.28183809 0 -21541.24584135 0 -11765.47671362 0 -15641.14067916 0 40
0.00750000 0.00754703 52281.27820841 0 -9567.95197701 0 -21276.86573616 0 -12063.69117751 0 -16262.41144506 0 57
0.00850000 0.00846663 61978.70000054 0 -7219.15056287 0 -19223.19884760 0 -31177.74330652 0 -16466.54166234 0 75
0.00950000 0.00948925 61410.26029307 0 -6948.71174693 0 -17186.39293515 0 -20950.43723893 0 -10376.07608002 0 112
0.01050000 0.01054430 70294.53341133 0 -970.71899176 0 9076.57817096 0 -34371.88661824 0 -13898.05297030 0 105
0.01150000 0.01145670 72728.47151411 0 -1765.05194038 0 11553.92766686 0 -24842.28774152 0 -7480.06854764 0 144
0.01250000 0.01249090 79345.28056691 0 864.39929682 0 41712.93079763 0 -17086.91317618 0 -303.14461330 0 169
0.01350000 0.01339930 81312.28203832 0 5911.42449748 0 46600.59054848 0 -20073.44166890 0 11517.62036500 0 180
0.01450000 0.01448870 86671.82430686 0 4911.31007999 0 59087.82944554 0 1084.25855667 0 18879.01012222 0 267
0.01550000 0.01550050 82219.29014581 0 6573.75736050 0 61526.26380862 0 17344.66129744 0 1077.10051028 0 238
0.01650000 0.01653350 85184.79862166 0 6438.39744440 0 60367.01549873 0 25094.75275694 0 26169.47137333 0 315
0.01750000 0.01747870 77558.46672671 0 5866.59678236 0 59777.33096138 0 26119.45047757 0 18564.60912128 0 297
0.01850000 0.01844180 72886.51506339 0 2378.10579060 0 50587.19973674 0 31520.80796683 0 33365.06153226 0 388
0.01950000 0.01947590 67730.76579260 0 2462.14089547 0 18759.07237892 0 26892.80724787 0 11295.72991957 0 399
0.02050000 0.02045430 67145.46510904 0 70.38884247 0 14176.70870193 0 25854.39593334 0 23939.55108131 0 462
0.02150000 0.02154770 63504.39352426 0 109.80193613 0 10358.58562748 0 10581.77998839 0 23400.56187876 0 571
0.02250000 0.02255340 66707.07973053 0 -1057.56313524 0 7192.42029543 0 2415.06505020 0 16450.80475131 0 510
0.02350000 0.02348930 65020.98212088 0 -97.63617984 0 12431.37286293 0 -4156.17440453 0 20238.45442163 0 555
0.02450000 0.02439640 66884.11997954 0 2126.02295731 0 23340.53680386 0 -7758.24093128 0 21100.72473920 0 592
0.02550000 0.02547300 64904.64138582 0 2592.59988785 0 24527.99914708 0 -3395.30599720 0 23991.37048118 0 837
0.02650000 0.02652900 65735.32547484 0 4241.17620536 0 32478.28659610 0 3482.22994930 0 20904.23816442 0 723
0.02750000 0.02749970 58704.18603609 0 5962.77179002 0 20461.80615165 0 9399.99417379 0 16523.64416805 0 826
0.02850000 0.02848090 55158.09794999 0 3974.61541392 0 21766.84570152 0 18748.28135422 0 10025.89608779 0 831
0.02950000 0.02946900 50889.91046092 0 1584.62825550 0 9415.96713848 0 11963.64938601 0 10314.74708963 0 996
0.03050000 0.03053250 49216.96441263 0 -221.78365925 0 6859.51718338 0 7113.83690617 0 11613.61552225 0 1041
0.03150000 0.03150510 47129.35075887 0 -424.19967729 0 5341.54598672 0 -460.80710452 0 6917.13675903 0 1036
0.03250000 0.03246190 47406.88242542 0 748.66218470 0 4452.82641797 0 -2854.01246125 0 16433.38174268 0 1059
0.03350000 0.03345080 51205.66033996 0 1213.56313422 0 18925.32160323 0 -7412.04012941 0 19313.57367948 0 1302
0.03450000 0.03451200 50726.02177327 0 2740.85283034 0 22883.37953863 0 -5078.40235310 0 26693.17329088 0 1339
0.03550000 0.03553350 50044.72593246 0 2813.44495276 0 28497.63495273 0 287.36386374 0 21365.10484439 0 1365
0.03650000 0.03647120 48014.21478441 0 739.99227079 0 24996.73428256 0 2149.68452710 0 23014.67033917 0 1308
0.03750000 0.03744890 48262.40835255 0 1059.55835075 0 27578.82416198 0 9702.19906869 0 19564.80222332 0 1579
0.03850000 0.03847530 47843.69411282 0 163.53011090 0 21271.13300428 0 7457.96942830 0 20609.73311527 0 1662
0.03950000 0.03950240 45394.91835108 0 1212.07936832 0 15684.19237146 0 3916.54621225 0 14393.42844802 0 1683
0.04050000 0.04050350 45674.92296079 0 1696.78746849 0 19615.49755812 0 2679.53508060 0 16382.68640788 0 1822
0.04150000 0.04152450 44060.20348328 0 1416.47936122 0 18043.04292736 0 2041.42581991 0 23704.50907453 0 1887
0.04250000 0.04250150 43035.39335614 0 815.13826906 0 23170.24094528 0 1970.89073657 0 20525.54064130 0 1920
0.04350000 0.04349210 44489.93356073 0 -451.34472474 0 25481.99317462 0 3980.33690515 0 26263.33080693 0 2005
0.04450000 0.04448520 43073.16194259 0 -587.94673274 0 25922.85149629 0 2173.25617168 0 21201.66578277 0 2151
0.04550000 0.04548030 46004.16162070 0 1277.90461900 0 31839.81763458 0 475.65712820 0 26226.91109856 0 2274
0.04650000 0.04648670 43745.12804329 0 1488.26215678 0 27935.60241618 0 -2285.58399443 0 15223.77531752 0 2311
0.04750000 0.04749250 41852.09005368 0 2456.55429205 0 24542.27477351 0 -2357.74897213 0 12506.91003584 0 2568
0.04850000 0.04851840 39820.56724707 0 1955.12010359 0 22467.92508761 0 932.26472561 0 5005.96759979 0 2493
0.04950000 0.04949480 37731.15508920 0 1107.75713702 0 18142.85990585 0 2133.55419330 0 -707.07852139 0 2644
0.05050000 0.05050630 37459.01893500 0 300.23665696 0 15308.30501101 0 4688.68899226 0 -6448.25549509 0 2829
0.05150000 0.05149060 35424.01152666 0 727.99512427 0 10499.18368682 0 2310.42583255 0 -12544.67862229 0 2784
0.05250000 0.05249300 35507.30474858 0 513.62355011 0 10372.76008805 0 512.12741950 0 -11846.85902491 0 3055
0.05350000 0.05348950 34831.62923314 0 561.53345166 0 11563.36981348 0 -1357.19616926 0 -11013.89308379 0 3009
0.05450000 0.05448610 35852.72994554 0 50.35316939 0 10579.27332328 0 -644.19607307 0 -9111.27805977 0 3336
0.05550000 0.05550870 35946.81419216 0 -732.39021870 0 13397.61919976 0 -413.23891876 0 -9179.25027474 0 3349
0.05650000 0.05647670 36341.13621980 0 -1028.75784368 0 11169.44120861 0 1653.16250301 0 -9409.77353993 0 3324
0.05750000 0.05747970 37853.90299518 0 -1090.77701002 0 13341.64075912 0 1996.58686414 0 -7717.66218214 0 3639
0.05850000 0.05849280 37581.54202797 0 -408.56842838 0 9875.64230947 0 1753.59771729 0 -8510.55520340 0 3846
0.05950000 0.05951020 38203.48723291 0 670.01135154 0 12054.24903090 0 561.50872223 0 -5429.26802502 0 3787
0.06050000 0.06049470 37723.39904019 0 985.27563446 0 9975.48176927 0 1399.88816074 0 -6548.61202481 0 3930
0.06150000 0.06148310 35923.77085816 0 1677.23997687 0 9771.94730648 0 144.96167996 0 -3936.66697706 0 4083
0.06250000 0.06249100 34546.45392409 0 1281.22061097 0 6933.68299690 0 921.28710611 0 -5006.50715103 0 4303
0.06350000 0.06350600 33419.80350132 0 1229.99696559 0 7468.00732940 0 1244.30631397 0 -4323.44652806 0 4470
0.06450000 0.06451750 31839.03078903 0 660.60854720 0 5880.96233400 0 1101.08918300 0 -3721.81317898 0 4479
0.06550000 0.06550280 32009.21424109 0 342.20362646 0 8035.95244824 0 391.82660318 0 -2825.92207507 0 4636
0.06650000 0.06648880 31328.93005885 0 528.43872777 0 5121.69009907 0 1099.95387728 0 -3397.94755012 0 4653
0.06750000 0.06749660 31104.34185725 0 643.60256671 0 7478.61850369 0 186.92078101 0 -2766.54895791 0 5220
0.06850000 0.06852730 30155.74334206 0 667.66093147 0 8282.36999356 0 547.59954101 0 -1403.60881613 0 5029
0.06950000 0.06949320 29779.40635559 0 773.34552964 0 8603.70647601 0 617.34553067 0 -972.52086807 0 5040
0.07050000 0.07048030 29259.41385277 0 490.10473659 0 7752.51944005 0 795.21646377 0 -603.26661563 0 5475
0.07150000 0.07148790 28701.98998302 0 279.24698985 0 6626.28492136 0 17.74775103 0 -483.22096208 0 5509
0.07250000 0.07249820 28196.94754568 0 413.43563015 0 7258.20058351 0 1123.67727065 0 -233.16819031 0 5916
0.07350000 0.07351270 28305.30741872 0 671.80985565 0 5878.69172255 0 -585.15230697 0 -1364.36770443 0 5721
0.07450000 0.07449140 27189.67283367 0 585.77279089 0 4610.61143228 0 1239.01196747 0 -564.31214052 0 6028
0.07550000 0.07549160 26765.56308159 0 466.29703834 0 4341.63390094 0 1071.33405645 0 332.57600911 0 6183
0.07650000 0.07648840 26326.05363801 0 399.94909740 0 4178.67818729 0 1640.22451402 0 -719.05318661 0 6330
0.07750000 0.07749960 25970.17463587 0 492.89016984 0 3644.63487106 0 917.76091397 0 -494.21656662 0 6583
0.07850000 0.07848650 25669.15000929 0 539.56584793 0 4282.89026022 0 522.76781948 0 610.66858413 0 6549
0.07950000 0.07947320 24529.34802517 0 1119.38896240 0 3269.87157569 0 -589.62608596 0 1021.83472690 0 6828
0.08050000 0.08048110 24510.91335797 0 566.77946335 0 4175.08117906 0 61.78805856 0 1748.17972364 0 7147
0.08150000 0.08149960 24156.27082741 0 -38.10130972 0 5584.33280185 0 -857.35702914 0 1652.31945420 0 7386
0.08250000 0.08250610 24681.77124908 0 -151.80836032 0 5490.73190322 0 75.40329676 0 1441.54601235 0 7227
0.08350000 0.08350160 24294.98045743 0 81.57205348 0 6037.31978566 0 -1293.85510239 0 98.25756302 0 7798
0.08450000 0.08449610 24671.20503739 0 754.53542471 0 6186.42701761 0 -2008.86165474 0 563.22067333 0 7371
0.08550000 0.08548940 24046.89929579 0 682.38281173 0 9213.01718953 0 -713.21928888 0 787.73693477 0 8256
0.08650000 0.08650700 23301.19452630 0 888.87693785 0 8747.68797122 0 -273.05563943 0 922.45725785 0 8037
0.08750000 0.08749060 23143.37579004 0 379.96434446 0 10109.70637964 0 241.45479803 0 -4.21854878 0 8155
0.08850000 0.08849210 22280.09381390 0 496.54562946 0 10058.40404971 0 665.46001206 0 145.76201429 0 8718
0.08950000 0.08949900 21922.75352716 0 787.51999021 0 8897.10994139 0 507.79190051 0 -1013.25473819 0 8571
0.09050000 0.09049190 21052.61475407 0 493.95128727 0 7924.79365316 0 994.27939569 0 17.06016043 0 8932
0.09150000 0.09150830 20271.05230875 0 593.87730007 0 6979.21887302 0 892.25812559 0 -1327.45340743 0 9285
0.09250000 0.09250820 20185.84817621 0 242.92507514 0 6052.60707066 0 1289.12278843 0 -896.54643385 0 9204
0.09350000 0.09350330 19531.30508414 0 34.73990552 0 5325.41565292 0 911.49312713 0 -1889.62083178 0 9349
0.09450000 0.09448040 19514.21929503 0 78.13837190 0 4492.03380772 0 530.89031370 0 -2000.94823662 0 9564
0.09550000 0.09549270 19193.63593618 0 219.51192374 0 4675.06532357 0 276.50876733 0 -1797.22268278 0 10155
0.09650000 0.09649430 19501.51735970 0 378.24002864 0 5226.89134926 0 -272.21371469 0 -1657.64752265 0 9913
0.09750000 0.09749140 18973.65640138 0 416.34471056 0 5375.27917956 0 -810.13955168 0 -1729.71133448 0 10476
0.09850000 0.09850240 18872.15332528 0 301.47537667 0 6871.03885038 0 -1233.24551365 0 -1197.05061830 0 10575
0.09950000 0.09950330 18683.08557998 0 180.32139496 0 6145.27499528 0 -695.52762870 0 -1822.32305586 0 10882
0.10050000 0.10051200 18821.45799048 0 145.55855851 0 7717.57225693 0 127.45886270 0 -1332.23068399 0 10875
0.10150000 0.10150300 18472.88541131 0 208.08130601 0 6831.77525738 0 211.39954610 0 -1798.56032021 0 11118
0.10250000 0.10250800 18474.23428940 0 364.01948140 0 7717.19007481 0 952.64290132 0 -950.62632858 0 11575
0.10350000 0.10349800 18143.19712537 0 397.71445603 0 6478.96495288 0 401.17770052 0 -2131.00256558 0 11364
0.10450000 0.10450100 17567.67580794 0 339.48676118 0 6703.57563579 0 785.85412577 0 -1094.80790738 0 12093
0.10550000 0.10551000 17592.85486558 0 159.99042998 0 6919.41861113 0 713.41937246 0 167.96679574 0 12067
0.10650000 0.10649700 17349.94440328 0 146.44881805 0 6388.84865597 0 302.00256319 0 146.19815154 0 12054
0.10750000 0.10749900 17550.81483185 0 186.95899922 0 7109.19451742 0 738.72320132 0 1225.56814920 0 12807
0.10850000 0.10850100 17037.67912598 0 402.39731113 0 6662.96316470 0 385.97921667 0 2167.82693738 0 12736
0.10950000 0.10950300 16852.54560844 0 519.26410865 0 7010.52408530 0 294.51741387 0 3433.82770726 0 12933
0.11050000 0.11050200 16619.07729276 0 433.09665234 0 7379.40852034 0 261.15628656 0 3589.61188574 0 13428
0.11150000 0.11150900 16350.20092727 0 395.52590134 0 7542.20686488 0 709.54921642 0 4281.19292196 0 13453
0.11250000 0.11250000 15862.80631157 0 296.53398661 0 6552.98463795 0 576.71170234 0 3052.74716617 0 13668
0.11350000 0.11349100 15764.33821117 0 196.79344454 0 7601.56874139 0 355.23828505 0 4057.77374803 0 13791
0.11450000 0.11448600 15349.67060570 0 158.79554881 0 6003.89009039 0 355.46647026 0 2865.21939003 0 14205
0.11550000 0.11549300 15343.15102828 0 41.42359645 0 6323.56295653 0 1126.79655123 0 3410.25606267 0 14776
0.11650000 0.11649800 15065.28214221 0 -45.18921444 0 4729.69488613 0 842.09334951 0 2282.57150004 0 14553
0.11750000 0.11747300 15119.12485921 0 -45.48473115 0 4230.54254977 0 1676.43065002 0 2557.13563479 0 14568
0.11850000 0.11849100 14845.30260741 0 12.91101143 0 3484.43311685 0 865.74817491 0 1624.68993471 0 16015
0.11950000 0.11950300 14724.80283157 0 103.27269175 0 2579.07738502 0 602.78214358 0 1015.12855467 0 15270
0.12050000 0.12050700 14456.93812465 0 317.62706771 0 2632.05457192 0 -465.16510481 0 1188.90114652 0 15999
0.12150000 0.12150000 14497.96649982 0 311.72010575 0 2522.39078338 0 -671.28042100 0 419.51007780 0 15670
0.12250000 0.12250700 14022.59938040 0 370.12765101 0 2696.22744694 0 -690.63007717 0 255.85182348 0 16887
0.12350000 0.12352200 13746.19177893 0 340.01619583 0 2680.45681396 0 -656.36744968 0 -521.49650188 0 16407
0.12450000 0.12449800 13564.20564359 0 169.54723124 0 2821.95412536 0 -324.37258221 0 -734.12240298 0 16306
0.12550000 0.12549900 13426.17045262 0 162.78935202 0 3184.08292931 0 -414.47426627 0 -1345.74194616 0 17523
0.12650000 0.12650100 13520.70432527 0 80.78621958 0 3101.19437082 0 -300.20743127 0 -1637.62792370 0 17154
0.12750000 0.12750600 13350.85809272 0 67.67321366 0 3566.71468020 0 -121.73175116 0 -1800.70728450 0 18007
0.12850000 0.12850300 13528.57278078 0 177.15715178 0 3531.14926128 0 -433.99253220 0 -1261.84172911 0 17496
0.12950000 0.12949900 13113.23073627 0 165.21396038 0 3961.28400216 0 -12.49701826 0 -1314.70650950 0 18405
0.13050000 0.13049000 13261.71973242 0 318.76574562 0 4379.79591017 0 175.78466833 0 -361.81294166 0 18100
0.13150000 0.13148800 12925.84908858 0 316.11520018 0 4036.27038318 0 127.31048611 0 75.87113265 0 19059
0.13250000 0.13249300 12812.09370318 0 347.81383524 0 4492.87685653 0 316.14217774 0 306.46959779 0 18957
0.13350000 0.13349100 12534.22481711 0 157.48938520 0 4524.56425094 0 249.61888265 0 901.99702539 0 19468
0.13450000 0.13450700 12546.92675244 0 75.91103696 0 4344.35413842 0 150.88662696 0 873.84031937 0 19953
0.13550000 0.13551000 12297.04708669 0 -5.85021915 0 4676.61653338 0 257.46485686 0 906.28196145 0 19956
0.13650000 0.13649900 12375.50682879 0 113.28440213 0 4152.25141743 0 -39.51987984 0 262.94467409 0 19723
0.13750000 0.13749600 12413.83744778 0 -75.42532844 0 4302.65132421 0 52.07119045 0 14.24718758 0 20946
0.13850000 0.13851100 12384.16212985 0 5.27753048 0 3839.04192546 0 327.22770749 0 -47.69913934 0 20955
0.13950000 0.13949800 12431.82248895 0 -101.64549515 0 3653.15528432 0 391.01502820 0 -491.32097500 0 20506
0.14050000 0.14048300 12362.69248696 0 54.57156079 0 3173.49423633 0 678.80716073 0 -229.65885915 0 21447
0.14150000 0.14148400 12172.95030262 0 233.41773275 0 2878.66320830 0 630.77473609 0 -483.19286045 0 21771
0.14250000 0.14249400 11913.06645772 0 350.08781889 0 2557.25928195 0 454.19310563 0 80.12493210 0 22470
0.14350000 0.14350900 11598.89026979 0 298.29090032 0 2733.34407565 0 210.83863763 0 488.54116207 0 22519
0.14450000 0.14449900 11494.68943751 0 196.57312779 0 2316.41709939 0 116.29240027 0 753.27197557 0 22218
0.14550000 0.14550500 11311.80405012 0 136.69867760 0 2836.02742008 0 236.26611365 0 936.99591550 0 23559
0.14650000 0.14650700 11139.86705654 0 208.21619382 0 2618.80184470 0 -337.14645770 0 717.72566576 0 23044
0.14750000 0.14750500 11093.39820642 0 222.00285194 0 2924.13164051 0 -8.86170189 0 1228.71553140 0 23649
0.14850000 0.14849900 10799.57883696 0 203.93013369 0 2870.59242108 0 58.27490558 0 1091.48067476 0 23640
0.14950000 0.14949500 10736.41762050 0 213.66453722 0 3105.91544413 0 -191.30913105 0 1000.50334400 0 24457
0.15050000 0.15050000 10546.07968167 0 90.67192228 0 3025.54479140 0 374.12482641 0 766.47974017 0 24591
0.15150000 0.15149900 10635.79131516 0 20.68796804 0 2891.90469486 0 291.57798370 0 1086.08066615 0 25020
0.15250000 0.15250500 10539.78491726 0 -63.26024659 0 2675.00509836 0 319.47727882 0 769.96883816 0 25297
0.15350000 0.15350100 10570.12343359 0 -27.65964444 0 2372.55290914 0 486.38970152 0 740.51383699 0 25452
0.15450000 0.15450400 10610.84831118 0 -9.32269222 0 2347.76727428 0 240.31724417 0 749.28154456 0 26061
0.15550000 0.15549900 10440.44004610 0 176.73899957 0 2010.31169868 0 -131.07498004 0 616.23270624 0 26128
0.15650000 0.15649500 10463.69695247 0 284.78301033 0 2113.88305452 0 -422.58889204 0 382.87117674 0 26331
0.15750000 0.15749700 10040.72250611 0 379.63611746 0 2261.43907666 0 -638.26775387 0 -114.52761810 0 27345
0.15850000 0.15849900 9875.74347533 0 383.70186083 0 2725.84656161 0 -620.88296345 0 113.57665905 0 26980
0.15950000 0.15949700 9522.89944888 0 322.35488540 0 3104.36423433 0 -490.35652716 0 -79.62989384 0 27777
0.16050000 0.16050000 9332.77508242 0 223.42591832 0 3115.27890619 0 -33.25366668 0 -418.15782752 0 28224
0.16150000 0.16150500 9261.34074702 0 88.59858425 0 3321.85958532 0 220.74389906 0 -801.71131176 0 28075
0.16250000 0.16249700 9158.81477171 0 44.60481301 0 2965.54219780 0 309.06506404 0 -589.95543703 0 28590
0.16350000 0.16349900 9229.09132008 0 -13.25385128 0 3067.01155195 0 377.24410699 0 -263.22681443 0 29163
0.16450000 0.16449100 9262.23999908 0 19.32717487 0 2986.48353011 0 419.17847860 0 184.68613964 0 28996
0.16550000 0.16550500 9133.95045229 0 43.54155986 0 2819.44746025 0 456.21080244 0 599.76065666 0 30777
0.16650000 0.16650700 9194.08793370 0 94.65673296 0 2761.97401306 0 497.46511469 0 778.70394784 0 29211
0.16750000 0.16749900 9061.47073638 0 116.16987717 0 2524.35789726 0 679.79071767 0 1179.27914949 0 30922
0.16850000 0.16850800 8869.28933083 0 124.90161466 0 2269.27381022 0 620.77954946 0 1383.65666108 0 30867
0.16950000 0.16949900 8678.28819361 0 102.56632925 0 1609.15535540 0 580.34468066 0 1518.27469423 0 30852
0.17050000 0.17049200 8555.01197704 0 97.37135011 0 1349.02421618 0 395.93730915 0 966.79263246 0 31257
0.17150000 0.17149500 8472.29202831 0 109.72055382 0 965.19421193 0 86.94193714 0 730.98064110 0 32608
0.17250000 0.17250900 8356.06369975 0 167.73523834 0 986.98196524 0 -454.65959264 0 543.00099080 0 32361
0.17350000 0.17350400 8267.68970371 0 115.96866953 0 935.05802732 0 -561.62899719 0 255.77089080 0 32508
0.17450000 0.17449800 8323.46581263 0 34.95808655 0 1323.35056991 0 -523.40516438 0 355.19107432 0 32791
0.17550000 0.17549800 8425.38479281 0 -12.25882887 0 1336.63701907 0 -42.07836435 0 100.28267865 0 33633
0.17650000 0.17650100 8495.03186474 0 -36.39509134 0 1580.99752531 0 192.61192247 0 251.66018483 0 33984
0.17750000 0.17750300 8521.21134029 0 43.91980776 0 1350.67659184 0 349.43361301 0 29.74478515 0 34069
0.17850000 0.17849800 8447.60755931 0 169.30443318 0 1365.64913861 0 260.10528572 0 320.90371739 0 34536
