### header ###
fiducial parameters:
Omega_m = 0.31
Omega_nu = 0
Omega_de = 0.69
Omega_k = 0
H_0 = 100
w_de = -1
zeff = 0
beta = 0
fgrowth = 0
b_1 = 2
gamma = 0.55
Lx = 3500 Ly = 3500 Lz = 3500
nx = 700 ny = 700 nz = 700
xoffset = 857.220397 yoffset = 15.9954215 zoffset = 262.898189
bins = 400 dk = 0.001
kx_ny = 0.628318531 ky_ny = 0.628318531 kz_ny = 0.628318531
############################
A(data) = 3.0476295 (not used)
A(ran) = 3.04266251 (used)
Ngal = 185987
weighted Ngal = 0
Nran = 9360983
weighted Nran = 0
SN(data) = 3460.83947
SN(ran) = 68.3267651
SN(data+ran) = 3529.16623
############################
13 columns: k_central k_mean P_0(k) sigma^{lin}_{P_0(k)} P^img_1(k) sigma^{lin}_{P_1(k)} P_2(k) sigma^{lin}_{P_2(k)} P^img_3(k) sigma^{lin}_{P_3(k)} P_4(k) sigma^{lin}_{P_4(k)} N_modes
### header ###
0.00050000 0 0 0 0 0 0 0 0 0 0 0 0
0.00150000 0.00179520 9746.83569275 0 -2915.88100287 0 33513.55052842 0 37009.39290576 0 22692.85050874 0 3
0.00250000 0.00253879 21877.67851773 0 -7065.92925275 0 33904.38795434 0 -2287.85460588 0 -23430.34960320 0 6
0.00350000 0.00331552 31874.43883883 0 -7307.52455892 0 62934.60493870 0 3688.73194388 0 49703.45977627 0 7
0.00450000 0.00420575 49592.62696006 0 -7696.18129859 0 77646.36861542 0 5356.23751722 0 -16075.25461039 0 24
0.00550000 0.00557378 73911.88722307 0 -13724.60972953 0 83778.48080870 0 29020.66243124 0 28240.33645750 0 45
0.00650000 0.00659388 85893.97127627 0 372.22965270 0 79274.46446730 0 36602.03172327 0 -78222.90159142 0 40
0.00750000 0.00754703 100604.04885539 0 -10457.40218806 0 34479.90927176 0 51683.50040253 0 32138.48172450 0 57
0.00850000 0.00846663 95019.91838524 0 1241.56359519 0 33628.54238540 0 43111.04293556 0 -45274.75579476 0 75
0.00950000 0.00948925 104379.33380990 0 5916.84249113 0 -18889.35152089 0 13700.32992395 0 -9332.87624828 0 112
0.01050000 0.01054430 77745.06152884 0 13709.77207056 0 -22292.79574922 0 -2989.77704078 0 -30901.78533108 0 105
0.01150000 0.01145670 75338.88783337 0 11355.53018146 0 -32142.64076527 0 -22568.52891165 0 -29911.03437565 0 144
0.01250000 0.01249090 62848.95118013 0 2894.61369169 0 -21973.67367497 0 -31680.31280070 0 -23088.52141447 0 169
0.01350000 0.01339930 71479.41040488 0 -5749.30059198 0 -21416.13739871 0 -20393.12577569 0 -24874.43600261 0 180
0.01450000 0.01448870 72609.77024239 0 -9407.73898214 0 -5788.84520125 0 -19249.16475079 0 -32590.24347738 0 267
0.01550000 0.01550050 85317.88792631 0 -3928.51750528 0 3822.23715261 0 -15661.37385048 0 -40318.30326144 0 238
0.01650000 0.01653350 79534.68553172 0 2932.53964726 0 4221.16784706 0 -7699.31744014 0 -24406.26289966 0 315
0.01750000 0.01747870 80558.25918729 0 10303.60760475 0 14033.39040511 0 -13334.10952313 0 -29242.66528318 0 297
0.01850000 0.01844180 72082.24650358 0 7934.97768272 0 8730.88319838 0 -2791.97530987 0 -17185.71849611 0 388
0.01950000 0.01947590 65304.69614533 0 5426.84004446 0 17718.86256028 0 283.67693030 0 -21565.07602090 0 399
0.02050000 0.02045430 65049.75818675 0 -377.43632212 0 14410.73905015 0 6497.77056156 0 -9315.04857622 0 462
0.02150000 0.02154770 69262.97889374 0 -4073.75795337 0 20381.88512496 0 11575.28490325 0 -10395.47744318 0 571
0.02250000 0.02255340 72612.69281158 0 -821.42628908 0 9384.43711318 0 2609.23605093 0 2369.85515296 0 510
0.02350000 0.02348930 71683.54062215 0 746.96259831 0 15683.18071289 0 3323.92786506 0 -4685.21563118 0 555
0.02450000 0.02439640 74293.95694141 0 6473.78301290 0 28564.51682458 0 -1435.17256338 0 1603.05168205 0 592
0.02550000 0.02547300 66005.77553142 0 7297.55410172 0 33874.15060387 0 -6659.87198575 0 15113.39212734 0 837
0.02650000 0.02652900 62962.48175252 0 5330.24913273 0 40869.76958630 0 -3996.02885357 0 14497.17965427 0 723
0.02750000 0.02749970 59723.15102486 0 2179.76450845 0 46257.86310770 0 -7157.82157248 0 17851.27742589 0 826
0.02850000 0.02848090 61026.84169664 0 2222.36657472 0 51421.70564701 0 1708.75876152 0 8800.78880527 0 831
0.02950000 0.02946900 61293.80715150 0 1312.19984438 0 59762.71811543 0 568.98712716 0 20247.78416173 0 996
0.03050000 0.03053250 58271.19616994 0 1971.36284390 0 55418.99345345 0 2063.88464007 0 11930.37705984 0 1041
0.03150000 0.03150510 59460.56942378 0 1961.74084687 0 54673.28868396 0 11606.08428626 0 8338.12362119 0 1036
0.03250000 0.03246190 55067.38589859 0 2249.24297062 0 45814.86906239 0 15827.28585526 0 1455.84412008 0 1059
0.03350000 0.03345080 55466.31659303 0 1308.76020526 0 37693.49890925 0 13735.40075423 0 -7509.58649646 0 1302
0.03450000 0.03451200 51063.24129520 0 97.34729512 0 27030.28040631 0 9166.88555893 0 -8198.14379763 0 1339
0.03550000 0.03553350 50306.85790751 0 113.43165466 0 18545.72482805 0 6698.56230556 0 -12959.34622776 0 1365
0.03650000 0.03647120 48028.37800434 0 -130.71078296 0 8313.06821071 0 4723.57997213 0 -12115.28576437 0 1308
0.03750000 0.03744890 47777.03705399 0 -583.70788335 0 6485.06862623 0 2859.74519312 0 -14389.60662677 0 1579
0.03850000 0.03847530 47874.38108932 0 1174.05224690 0 5576.70040001 0 3690.40680084 0 -10576.06973782 0 1662
0.03950000 0.03950240 46219.64489521 0 1182.89863903 0 2861.09407121 0 3975.03131800 0 -7062.51209493 0 1683
0.04050000 0.04050350 44401.46963947 0 1911.71995112 0 5534.61540367 0 1417.15380026 0 1463.01565524 0 1822
0.04150000 0.04152450 43255.82251697 0 1614.73071816 0 2749.18215253 0 5299.51719363 0 2638.82144366 0 1887
0.04250000 0.04250150 41874.23413562 0 764.32603149 0 6694.92033473 0 2261.09061649 0 8552.49407128 0 1920
0.04350000 0.04349210 41275.44467118 0 877.78466371 0 3207.84566496 0 800.32871172 0 7851.36972258 0 2005
0.04450000 0.04448520 41530.15781675 0 1329.83642538 0 7212.48485699 0 -2609.35969809 0 7258.23430546 0 2151
0.04550000 0.04548030 39144.21729259 0 2066.20021412 0 7687.76205119 0 -3612.44164737 0 6276.11616979 0 2274
0.04650000 0.04648670 37925.50594033 0 2208.13591090 0 10919.16812008 0 -3754.56843521 0 6410.53187123 0 2311
0.04750000 0.04749250 36894.28864227 0 2506.83372277 0 13327.36513269 0 -4225.75403256 0 1598.10579573 0 2568
0.04850000 0.04851840 34820.95061494 0 1783.99243686 0 12416.87242348 0 -509.97258675 0 -906.24374323 0 2493
0.04950000 0.04949480 33984.64620056 0 460.11130824 0 13992.69924946 0 1905.95349730 0 -4784.06591371 0 2644
0.05050000 0.05050630 34093.79291915 0 -1110.40768246 0 9289.75711207 0 1210.59560243 0 -4019.34196318 0 2829
0.05150000 0.05149060 36179.72047530 0 -2397.88933589 0 9279.84285813 0 2222.81620075 0 -7286.13360057 0 2784
0.05250000 0.05249300 37208.12761068 0 -1976.48858063 0 6291.50462064 0 990.19117102 0 -5772.54625769 0 3055
0.05350000 0.05348950 38001.71755229 0 -1165.05972632 0 6454.29172453 0 -36.79615776 0 -6036.43177426 0 3009
0.05450000 0.05448610 39760.09254614 0 172.36863457 0 7395.93227692 0 77.29419903 0 -1015.01502410 0 3336
0.05550000 0.05550870 38782.04352604 0 1190.66592868 0 10991.54667014 0 592.07879595 0 527.49676124 0 3349
0.05650000 0.05647670 38260.81455164 0 1482.90036638 0 12987.33544808 0 2567.21849850 0 4049.91653317 0 3324
0.05750000 0.05747970 36771.42832978 0 1397.39273627 0 13482.82333230 0 4136.45830315 0 9683.46090393 0 3639
0.05850000 0.05849280 36433.98399484 0 1016.22114592 0 16265.78364028 0 1964.79830387 0 11552.57878878 0 3846
0.05950000 0.05951020 35650.28582587 0 784.42431500 0 13495.97489366 0 3349.83756499 0 13711.12094865 0 3787
0.06050000 0.06049470 34632.55730869 0 451.88427597 0 14795.73133768 0 750.70236281 0 12685.07434992 0 3930
0.06150000 0.06148310 34919.86834138 0 370.54692728 0 9974.51507330 0 625.97385417 0 9638.74559532 0 4083
0.06250000 0.06249100 33929.45460547 0 770.03403394 0 11713.32009423 0 -942.86690738 0 5867.33866531 0 4303
0.06350000 0.06350600 31951.10007681 0 1239.34918700 0 7903.40269482 0 -1758.48740036 0 2495.93029156 0 4470
0.06450000 0.06451750 31396.59877625 0 1480.43866387 0 9941.88346423 0 -1944.83490817 0 -563.18245512 0 4479
0.06550000 0.06550280 30424.05767501 0 1222.82543042 0 9104.08404330 0 -1033.12933275 0 -1128.12294801 0 4636
0.06650000 0.06648880 29379.80122210 0 267.49938577 0 10193.50543084 0 1288.52703394 0 -2498.22338431 0 4653
0.06750000 0.06749660 29133.74337760 0 224.15993281 0 8012.76298578 0 1737.48986479 0 -2107.07122018 0 5220
0.06850000 0.06852730 28882.73964677 0 24.83172153 0 8903.08996758 0 2079.38549742 0 -1712.36701041 0 5029
0.06950000 0.06949320 28774.94180626 0 491.95944396 0 7747.76464480 0 358.25864790 0 -1838.18361404 0 5040
0.07050000 0.07048030 28752.01087877 0 153.33146849 0 7335.31144752 0 1077.90758900 0 153.32697223 0 5475
0.07150000 0.07148790 28557.43521462 0 449.84184973 0 7580.58244647 0 -590.68495526 0 -1668.87693273 0 5509
0.07250000 0.07249820 27936.05204221 0 453.25900756 0 6467.21847287 0 170.31946394 0 -1570.31890712 0 5916
0.07350000 0.07351270 27753.05424831 0 797.63095555 0 7656.83902103 0 -1038.74965812 0 -1805.51828301 0 5721
0.07450000 0.07449140 26798.72300125 0 608.45754813 0 7229.79545911 0 -78.99670799 0 -1388.22036528 0 6028
0.07550000 0.07549160 26965.08463207 0 340.11511356 0 9029.40115984 0 1534.31510283 0 839.86994880 0 6183
0.07650000 0.07648840 26463.86401597 0 98.54993234 0 6699.10185680 0 2643.35142590 0 213.03843298 0 6330
0.07750000 0.07749960 27257.11673806 0 -306.97205488 0 7169.47812729 0 2517.68095073 0 1456.95694450 0 6583
0.07850000 0.07848650 26888.87302011 0 126.02567974 0 6372.26869615 0 1321.41717798 0 1456.58600302 0 6549
0.07950000 0.07947320 26464.65086152 0 1076.60367352 0 7295.21604637 0 -611.00467959 0 2438.91771106 0 6828
0.08050000 0.08048110 25568.77099826 0 1006.24844059 0 6432.83332228 0 -1951.75914902 0 1434.74541865 0 7147
0.08150000 0.08149960 25001.00572984 0 1002.69976716 0 8070.49496793 0 -1398.02221271 0 1376.17038769 0 7386
0.08250000 0.08250610 24051.05833657 0 700.96585552 0 7405.75660565 0 -1319.65239582 0 -1033.17541942 0 7227
0.08350000 0.08350160 23708.21848927 0 292.46599511 0 8707.09798143 0 -447.45658365 0 -792.92224695 0 7798
0.08450000 0.08449610 23555.00841981 0 -93.15172223 0 7968.18256498 0 -242.86887189 0 -1384.53343184 0 7371
0.08550000 0.08548940 24113.33154161 0 -340.23876072 0 8191.93895843 0 1039.19591195 0 -1189.20464409 0 8256
0.08650000 0.08650700 23891.55350269 0 -264.75329480 0 7260.57236081 0 1598.15075833 0 -901.06854764 0 8037
0.08750000 0.08749060 24532.60781388 0 -191.79360310 0 7706.45525336 0 1773.42622518 0 -411.60228001 0 8155
0.08850000 0.08849210 23892.00312872 0 580.55263269 0 6831.04461508 0 1461.32955763 0 316.33439287 0 8718
0.08950000 0.08949900 23182.94288061 0 960.72717733 0 6708.30794975 0 1198.05103621 0 1276.45457506 0 8571
0.09050000 0.09049190 22087.09184085 0 982.68578853 0 6332.17329499 0 -38.83273886 0 233.41998088 0 8932
0.09150000 0.09150830 21623.97703073 0 1068.47780710 0 6596.90186035 0 -685.34584726 0 347.25067864 0 9285
0.09250000 0.09250820 20796.32791741 0 652.50066583 0 7255.98617531 0 -596.56044340 0 -1058.24769087 0 9204
0.09350000 0.09350330 20217.32199825 0 404.55551607 0 6568.44053270 0 -961.63317378 0 340.31182495 0 9349
0.09450000 0.09448040 20115.48170263 0 231.63946181 0 7780.03655304 0 -389.35815628 0 -1246.84670103 0 9564
0.09550000 0.09549270 20032.41329373 0 178.14970124 0 7216.31791888 0 122.22296759 0 -1119.83746436 0 10155
0.09650000 0.09649430 19781.63437592 0 248.54989677 0 6956.87245936 0 1019.64280000 0 -2319.86797916 0 9913
0.09750000 0.09749140 19329.53540352 0 246.47487264 0 5733.99082569 0 524.84621580 0 -1699.48522467 0 10476
0.09850000 0.09850240 19138.89396712 0 436.70377716 0 5987.14152080 0 1087.17775366 0 -3036.53814782 0 10575
0.09950000 0.09950330 18586.30357719 0 588.14232007 0 4796.02596609 0 149.43770708 0 -2692.16957202 0 10882
0.10050000 0.10051200 17847.45560464 0 677.36048898 0 4521.12461181 0 353.30489313 0 -2955.76283167 0 10875
0.10150000 0.10150300 17238.77436756 0 673.35656919 0 4833.45733302 0 93.23231770 0 -2096.79726541 0 11118
0.10250000 0.10250800 16943.93209888 0 257.18271653 0 4146.37255709 0 783.74425563 0 -1062.63379279 0 11575
0.10350000 0.10349800 16797.12920033 0 -27.95493634 0 4683.83303114 0 897.11183858 0 -1188.78874001 0 11364
0.10450000 0.10450100 16950.22686329 0 46.13410354 0 4232.65579210 0 631.99434670 0 -652.46919201 0 12093
0.10550000 0.10551000 16627.50778080 0 243.38369369 0 4525.99181358 0 32.31687085 0 -468.22818213 0 12067
0.10650000 0.10649700 16605.02647934 0 417.93413857 0 5217.03329857 0 -646.92642713 0 1351.55336259 0 12054
0.10750000 0.10749900 16232.96094015 0 496.69737824 0 5716.82635202 0 -1087.10019317 0 859.20386805 0 12807
0.10850000 0.10850100 16003.20203920 0 311.49416867 0 5787.10290039 0 -5.07209635 0 1264.24722837 0 12736
0.10950000 0.10950300 16114.25966843 0 139.32336955 0 6527.69317380 0 117.22537428 0 888.30366467 0 12933
0.11050000 0.11050200 15481.41103227 0 173.18920207 0 5492.73273905 0 801.59890525 0 36.16600688 0 13428
0.11150000 0.11150900 15676.88594848 0 87.92841665 0 5808.43765548 0 795.70768021 0 216.41512446 0 13453
0.11250000 0.11250000 15304.70800278 0 57.04416674 0 4426.55701721 0 400.08061301 0 -1262.59485271 0 13668
0.11350000 0.11349100 15280.65301022 0 189.26108449 0 4013.57550936 0 375.97840972 0 -816.54335040 0 13791
0.11450000 0.11448600 14904.20361724 0 166.47853359 0 3697.63453926 0 -57.32979167 0 -1687.68254140 0 14205
0.11550000 0.11549300 14738.74123848 0 281.63113187 0 3457.55672095 0 -277.08541271 0 -1659.24369505 0 14776
0.11650000 0.11649800 14711.65127021 0 340.05328998 0 4259.91437013 0 -473.93506051 0 -1714.70506576 0 14553
0.11750000 0.11747300 14431.30944098 0 375.61421263 0 4234.13955800 0 -770.40047915 0 -1646.02468979 0 14568
0.11850000 0.11849100 14380.16448016 0 372.05879481 0 5304.31695150 0 -671.22983808 0 -1206.95363159 0 16015
0.11950000 0.11950300 14200.31406846 0 109.21494935 0 5731.16942235 0 -516.81477085 0 -710.60920978 0 15270
0.12050000 0.12050700 14371.95880512 0 5.28445472 0 6629.07260275 0 447.80391976 0 -55.35008826 0 15999
0.12150000 0.12150000 14324.97288507 0 -153.79683143 0 6293.85391665 0 817.89110442 0 -184.52202614 0 15670
0.12250000 0.12250700 14314.40667338 0 -160.05899795 0 5546.10334872 0 1733.64556224 0 369.59484417 0 16887
0.12350000 0.12352200 14358.58243075 0 46.74773067 0 5129.59227653 0 1041.57330958 0 -50.92633017 0 16407
0.12450000 0.12449800 14299.68142092 0 313.33426319 0 4418.87965276 0 897.18040655 0 302.00031506 0 16306
0.12550000 0.12549900 13771.82046260 0 195.84248549 0 4204.59912788 0 177.50673602 0 13.09693179 0 17523
0.12650000 0.12650100 13830.60906592 0 196.87212910 0 3578.33751305 0 -229.01926612 0 899.73091020 0 17154
0.12750000 0.12750600 13741.02107959 0 -62.45957504 0 4092.11393601 0 137.67211796 0 678.57672739 0 18007
0.12850000 0.12850300 13717.30330655 0 -96.51661103 0 3650.05286472 0 444.67115040 0 918.98726897 0 17496
0.12950000 0.12949900 13876.69573392 0 27.41167569 0 3584.39622380 0 762.06104037 0 1349.82230238 0 18405
0.13050000 0.13049000 13609.73027905 0 347.36982954 0 3037.43739988 0 501.27681935 0 869.98365211 0 18100
0.13150000 0.13148800 13333.21027107 0 517.24753591 0 2678.46721878 0 636.57603594 0 1520.77011870 0 19059
0.13250000 0.13249300 12677.43070743 0 516.69112370 0 2545.73761495 0 129.84188066 0 1112.79182448 0 18957
0.13350000 0.13349100 12258.71646770 0 459.12100691 0 2457.83572624 0 140.11133917 0 1269.94623829 0 19468
0.13450000 0.13450700 11932.06315745 0 399.93673268 0 2381.06208174 0 -329.30497975 0 525.55325273 0 19953
0.13550000 0.13551000 11668.91952384 0 260.59088183 0 2713.89774989 0 -419.57752171 0 483.58628323 0 19956
0.13650000 0.13649900 11457.93250962 0 228.77197181 0 3110.13068816 0 -482.36105230 0 159.48909696 0 19723
0.13750000 0.13749600 11400.49278439 0 134.73943218 0 3417.75357671 0 -304.39569773 0 -103.07541833 0 20946
0.13850000 0.13851100 11344.51434375 0 178.25311523 0 3658.29226170 0 -370.07594402 0 -40.20477269 0 20955
0.13950000 0.13949800 11327.99058717 0 18.06338851 0 3633.90004962 0 -7.51026094 0 -253.21139463 0 20506
0.14050000 0.14048300 11191.09070192 0 147.13112555 0 3678.99754035 0 67.11747589 0 8.62808745 0 21447
0.14150000 0.14148400 11221.99125078 0 26.67878526 0 3476.62086459 0 259.72872392 0 -72.46184328 0 21771
0.14250000 0.14249400 11147.44325513 0 56.59667643 0 3371.54326155 0 637.64726995 0 483.97858194 0 22470
0.14350000 0.14350900 11045.26573999 0 21.00304348 0 3180.98050971 0 781.78163802 0 532.21221423 0 22519
0.14450000 0.14449900 11123.47818777 0 -98.70347963 0 2806.35210215 0 760.67844033 0 760.15912227 0 22218
0.14550000 0.14550500 11122.59017636 0 -61.25615097 0 2608.12322651 0 649.38925371 0 875.75010593 0 23559
0.14650000 0.14650700 11299.32692781 0 11.51278689 0 2362.30143567 0 272.10130818 0 773.77155030 0 23044
0.14750000 0.14750500 11113.20423300 0 206.29291848 0 2457.89192949 0 -154.30828104 0 936.77447468 0 23649
0.14850000 0.14849900 10920.21350060 0 334.45207372 0 2422.16914147 0 -491.08829353 0 854.71884841 0 23640
0.14950000 0.14949500 10715.33015973 0 256.79716221 0 2674.00468044 0 -319.81674647 0 587.90626640 0 24457
0.15050000 0.15050000 10583.88199008 0 200.05885358 0 2536.50904070 0 -257.82905395 0 72.71397107 0 24591
0.15150000 0.15149900 10532.15251542 0 76.75880683 0 2610.27019080 0 13.71865218 0 282.62705352 0 25020
0.15250000 0.15250500 10390.56527881 0 93.94272683 0 2616.98085928 0 151.63637836 0 2.39589974 0 25297
0.15350000 0.15350100 10356.19136887 0 119.30714279 0 2393.50548210 0 423.69047581 0 286.45786729 0 25452
0.15450000 0.15450400 10176.36343848 0 59.83151090 0 2464.96229880 0 467.81340212 0 763.48298269 0 26061
0.15550000 0.15549900 10190.34680799 0 29.01875152 0 2132.78982905 0 544.08121733 0 443.87531233 0 26128
0.15650000 0.15649500 10101.17472574 0 90.84918734 0 2259.33707498 0 328.51701013 0 1022.87223896 0 26331
0.15750000 0.15749700 9883.43208043 0 230.18492160 0 1617.34978978 0 177.26168983 0 288.84200931 0 27345
0.15850000 0.15849900 9582.20512214 0 349.36054878 0 2059.18604806 0 -123.20202827 0 958.25198604 0 26980
0.15950000 0.15949700 9209.24033089 0 381.80106679 0 1634.66039190 0 -174.56168553 0 531.04543468 0 27777
0.16050000 0.16050000 9021.75751734 0 188.36408056 0 2026.23970077 0 7.37109044 0 565.18329095 0 28224
0.16150000 0.16150500 8875.79766760 0 41.28915827 0 1999.16097316 0 33.62292206 0 482.14860400 0 28075
0.16250000 0.16249700 8936.18244333 0 -0.40150593 0 1929.46893863 0 199.03707843 0 317.17968981 0 28590
0.16350000 0.16349900 8945.05131676 0 41.93358477 0 2028.28549920 0 -9.65261656 0 505.07278710 0 29163
0.16450000 0.16449100 8864.32096321 0 173.30947704 0 2300.64646641 0 -293.99697174 0 455.94552308 0 28996
0.16550000 0.16550500 8781.76962424 0 180.26069545 0 2375.01461165 0 -163.82011969 0 688.42353743 0 30777
0.16650000 0.16650700 8722.39650708 0 130.58601174 0 2596.14069283 0 -142.83832103 0 503.34060282 0 29211
0.16750000 0.16749900 8671.21782430 0 16.28354387 0 2512.64513920 0 61.63473609 0 595.40490450 0 30922
0.16850000 0.16850800 8713.37026454 0 11.62013510 0 2722.47436640 0 -5.67641621 0 590.27804371 0 30867
0.16950000 0.16949900 8744.91153049 0 59.67369216 0 2447.49432756 0 283.31273322 0 683.69459567 0 30852
0.17050000 0.17049200 8603.71771666 0 135.04292975 0 2374.38513521 0 196.42362713 0 323.83303097 0 31257
0.17150000 0.17149500 8526.55064939 0 206.57618287 0 2233.71963196 0 301.46188789 0 464.00844185 0 32608
0.17250000 0.17250900 8224.27831058 0 206.15690660 0 2169.00720570 0 165.06895598 0 514.51718184 0 32361
0.17350000 0.17350400 8129.95801030 0 180.36748163 0 1967.58598525 0 240.10254774 0 466.71743868 0 32508
0.17450000 0.17449800 7987.30291187 0 60.80517606 0 2106.88012911 0 192.00043107 0 611.19914285 0 32791
0.17550000 0.17549800 7869.87183369 0 66.86624734 0 1724.37202539 0 96.55089501 0 468.84754199 0 33633
0.17650000 0.17650100 7956.15506870 0 -27.54948606 0 1987.52689965 0 189.86021117 0 800.03308261 0 33984
0.17750000 0.17750300 7874.57042569 0 7.29440672 0 1953.11926776 0 22.26053508 0 825.48416399 0 34069
0.17850000 0.17849800 8029.97242205 0 -1.59184475 0 2037.01948482 0 -113.66995645 0 814.64930075 0 34536
