### header ###
fiducial parameters:
Omega_m = 0.31
Omega_nu = 0
Omega_de = 0.69
Omega_k = 0
H_0 = 100
w_de = -1
zeff = 0
beta = 0
fgrowth = 0
b_1 = 2
gamma = 0.55
Lx = 3500 Ly = 3500 Lz = 3500
nx = 700 ny = 700 nz = 700
xoffset = 857.220397 yoffset = 15.9954215 zoffset = 262.898189
bins = 400 dk = 0.001
kx_ny = 0.628318531 ky_ny = 0.628318531 kz_ny = 0.628318531
############################
A(data) = 3.07415288 (not used)
A(ran) = 3.06844229 (used)
Ngal = 187433
weighted Ngal = 0
Nran = 9360983
weighted Nran = 0
SN(data) = 3458.5223
SN(ran) = 68.9056821
SN(data+ran) = 3527.42798
############################
13 columns: k_central k_mean P_0(k) sigma^{lin}_{P_0(k)} P^img_1(k) sigma^{lin}_{P_1(k)} P_2(k) sigma^{lin}_{P_2(k)} P^img_3(k) sigma^{lin}_{P_3(k)} P_4(k) sigma^{lin}_{P_4(k)} N_modes
### header ###
0.00050000 0 0 0 0 0 0 0 0 0 0 0 0
0.00150000 0.00179520 22098.78211761 0 -29486.92462357 0 -17005.53086489 0 17337.46728097 0 -92624.08608844 0 3
0.00250000 0.00253879 39885.53820830 0 -36888.21869088 0 -32626.66318575 0 5953.22847754 0 55102.79394839 0 6
0.00350000 0.00331552 53160.85912811 0 -31565.77056975 0 -36729.38829605 0 -24300.26356327 0 -38353.66232668 0 7
0.00450000 0.00420575 66515.53904207 0 -23901.33286883 0 -60774.60149424 0 -1815.65734997 0 14642.18404870 0 24
0.00550000 0.00557378 67264.61600679 0 -11979.83592306 0 -77922.66381039 0 5713.78013567 0 18590.68743097 0 45
0.00650000 0.00659388 68803.34868535 0 -7868.17449543 0 -101295.46128185 0 36.22591955 0 38115.81015721 0 40
0.00750000 0.00754703 62096.95164623 0 -9360.30343606 0 -86632.59443581 0 -3182.41931301 0 12787.47667808 0 57
0.00850000 0.00846663 68838.98154817 0 -10659.49784755 0 -98294.43234969 0 -20289.82419547 0 32585.18518455 0 75
0.00950000 0.00948925 67485.71960667 0 -5147.41994859 0 -77790.81097732 0 -35604.76119041 0 25582.70940517 0 112
0.01050000 0.01054430 82732.76307120 0 -6886.43854188 0 -62951.46591480 0 -61333.03702255 0 1596.93676805 0 105
0.01150000 0.01145670 79440.82609812 0 747.51676239 0 -31268.68017093 0 -61976.90149642 0 4210.96133619 0 144
0.01250000 0.01249090 85397.35932698 0 1120.02855542 0 -14366.11366674 0 -52962.57404921 0 -11929.70262080 0 169
0.01350000 0.01339930 82295.95138379 0 2833.99286230 0 5117.04771032 0 -33887.75179126 0 -7355.44345298 0 180
0.01450000 0.01448870 83125.73622075 0 -116.55767962 0 12350.66499068 0 -12934.84160917 0 -10705.10116756 0 267
0.01550000 0.01550050 86008.28869421 0 2099.24772727 0 6684.64637996 0 2864.38758187 0 -38597.69685405 0 238
0.01650000 0.01653350 76567.71577128 0 4996.37932472 0 5125.84913984 0 3332.78549783 0 -3014.51771304 0 315
0.01750000 0.01747870 69194.63573730 0 12493.08403544 0 -234.80258092 0 -733.64804752 0 -22333.37449836 0 297
0.01850000 0.01844180 62822.76046393 0 9400.76977869 0 11928.46614922 0 -4977.78728841 0 5287.17495913 0 388
0.01950000 0.01947590 55099.42175317 0 6193.41870236 0 -3669.29685877 0 -2247.05104373 0 1673.71041254 0 399
0.02050000 0.02045430 55787.79920394 0 -1460.52023078 0 9043.74423017 0 -2358.72690874 0 -723.56405975 0 462
0.02150000 0.02154770 60962.76998747 0 -4470.18198270 0 11925.09395400 0 2312.46039033 0 -3784.64841657 0 571
0.02250000 0.02255340 67367.58036748 0 -3487.02970717 0 16012.41937280 0 -1204.04230305 0 -3857.71264632 0 510
0.02350000 0.02348930 70490.23314055 0 -4745.02713372 0 11498.17403924 0 -1110.63923987 0 -1433.91361050 0 555
0.02450000 0.02439640 73460.12547019 0 -66.77868268 0 19615.27274510 0 4291.59052389 0 2214.82409808 0 592
0.02550000 0.02547300 73360.98293074 0 -98.63086503 0 22376.08897114 0 4356.17930299 0 13583.53956285 0 837
0.02650000 0.02652900 72394.96140692 0 2037.09816937 0 24622.87023925 0 1202.43489000 0 11702.41666302 0 723
0.02750000 0.02749970 73716.86193288 0 4960.11698546 0 37707.99934869 0 -1362.99634504 0 15214.10835789 0 826
0.02850000 0.02848090 69202.39178630 0 4091.84416040 0 36697.24003496 0 -2512.65637985 0 18810.77937228 0 831
0.02950000 0.02946900 66191.80830102 0 3876.72058671 0 40206.23397365 0 -3800.82371297 0 22869.10391220 0 996
0.03050000 0.03053250 66084.79730606 0 2174.06549853 0 43502.66720702 0 6588.14539343 0 21267.64840256 0 1041
0.03150000 0.03150510 63907.93288550 0 3045.31709604 0 33463.97925870 0 13537.90252088 0 7442.54725550 0 1036
0.03250000 0.03246190 61589.43626572 0 2395.45011468 0 35871.72664528 0 13792.39085343 0 17165.26051177 0 1059
0.03350000 0.03345080 57433.20565794 0 2769.49400840 0 19357.74943685 0 13272.28594411 0 658.90334048 0 1302
0.03450000 0.03451200 53933.54145935 0 2135.35269741 0 20678.63830425 0 8317.87920922 0 7505.61854675 0 1339
0.03550000 0.03553350 51223.19575510 0 1341.34685173 0 14463.90732810 0 3511.99519244 0 6892.23871766 0 1365
0.03650000 0.03647120 51102.69597926 0 359.48163070 0 13904.90976725 0 2041.62815162 0 9763.50557778 0 1308
0.03750000 0.03744890 51232.86271473 0 774.07617194 0 10781.43642668 0 -1200.23172245 0 3639.86883515 0 1579
0.03850000 0.03847530 50119.58866633 0 664.69115155 0 16242.51549327 0 -295.45376007 0 7041.94170409 0 1662
0.03950000 0.03950240 48994.39952816 0 672.95302983 0 15082.36793132 0 -2260.58478721 0 2306.87378692 0 1683
0.04050000 0.04050350 50574.61020792 0 530.77790719 0 14789.43657327 0 540.78433447 0 710.49118295 0 1822
0.04150000 0.04152450 47784.68069649 0 390.16973126 0 12416.87242348 0 348.57819949 0 675.77555723 0 1887
0.04250000 0.04250150 49034.86587079 0 917.85758357 0 15166.67281180 0 -679.03984220 0 -6166.86828534 0 1920
0.04350000 0.04349210 48877.38435405 0 1297.11489110 0 14782.01774379 0 241.24122566 0 -2160.53175505 0 2005
0.04450000 0.04448520 45699.42757938 0 2279.37915523 0 16141.34963669 0 468.53280377 0 -2495.60431269 0 2151
0.04550000 0.04548030 45182.91967829 0 1867.97133848 0 14765.38158071 0 1265.62982841 0 1223.71344183 0 2274
0.04650000 0.04648670 44295.13308356 0 1069.50520258 0 18269.76685260 0 -467.04341755 0 2202.05471885 0 2311
0.04750000 0.04749250 42485.16350285 0 930.81018541 0 16093.91409060 0 397.39522155 0 862.77502279 0 2568
0.04850000 0.04851840 42797.20396715 0 567.87430273 0 18050.34935033 0 -380.61180595 0 2554.75261684 0 2493
0.04950000 0.04949480 42116.58256538 0 268.20305051 0 18442.53565434 0 -2911.23861412 0 -283.20145078 0 2644
0.05050000 0.05050630 42680.52601256 0 -92.86946949 0 17707.62190954 0 100.34292854 0 -524.81474198 0 2829
0.05150000 0.05149060 42709.52689144 0 243.20384328 0 21404.78434148 0 -1167.70127924 0 -4197.55123987 0 2784
0.05250000 0.05249300 42283.05660271 0 -69.24117203 0 16776.89602902 0 3718.55339027 0 -3210.13875771 0 3055
0.05350000 0.05348950 41987.98952102 0 806.05919546 0 18879.79696777 0 1944.20543173 0 -2534.85666504 0 3009
0.05450000 0.05448610 41104.36196706 0 1471.52482784 0 16438.10281599 0 3608.67602938 0 -211.13876301 0 3336
0.05550000 0.05550870 41006.79311871 0 1285.87424037 0 18875.18830097 0 2575.10943531 0 839.03589251 0 3349
0.05650000 0.05647670 38755.74040333 0 824.39382087 0 16091.21633443 0 2815.59191705 0 3595.80548429 0 3324
0.05750000 0.05747970 38704.48303599 0 1238.50613819 0 18050.01213081 0 2463.33240444 0 5212.57076023 0 3639
0.05850000 0.05849280 37204.41819594 0 661.49431048 0 15762.87692658 0 1484.81127701 0 6941.59641502 0 3846
0.05950000 0.05951020 37563.44458029 0 1054.04593563 0 16039.05971504 0 1181.05517231 0 9828.71259267 0 3787
0.06050000 0.06049470 36307.07704809 0 1150.37943646 0 15418.12616866 0 461.56697251 0 8076.80097299 0 3930
0.06150000 0.06148310 34850.85074589 0 876.22333733 0 15542.44776574 0 312.63734285 0 9414.73066690 0 4083
0.06250000 0.06249100 34469.34306008 0 513.67300897 0 15809.41322060 0 28.50707710 0 7967.21586902 0 4303
0.06350000 0.06350600 34298.70998198 0 396.60050755 0 15961.61163150 0 383.92105352 0 9355.27886518 0 4470
0.06450000 0.06451750 34127.29005833 0 695.05439730 0 14298.33254284 0 -306.03683274 0 4105.82752991 0 4479
0.06550000 0.06550280 33868.41787200 0 587.30826378 0 16469.57663803 0 -177.97322302 0 4690.04911100 0 4636
0.06650000 0.06648880 33079.88622322 0 807.77227064 0 16154.50119804 0 1056.09510626 0 4328.45985828 0 4653
0.06750000 0.06749660 32546.62975254 0 736.58185736 0 14414.22365187 0 2341.11280904 0 2161.38604451 0 5220
0.06850000 0.06852730 32057.66144574 0 951.49185869 0 14821.13520833 0 1500.44702218 0 526.82569440 0 5029
0.06950000 0.06949320 30365.15666518 0 1318.14614862 0 12388.43357713 0 880.00469223 0 397.87070108 0 5040
0.07050000 0.07048030 29487.48665610 0 1444.70463520 0 15122.60946094 0 418.90420673 0 1795.80636078 0 5475
0.07150000 0.07148790 28437.04784529 0 682.87515223 0 13234.40495115 0 -374.59243748 0 491.02646995 0 5509
0.07250000 0.07249820 28666.13230719 0 396.86466284 0 14874.41589280 0 4.36129380 0 1591.61994025 0 5916
0.07350000 0.07351270 27758.78698018 0 91.86005906 0 13883.77734388 0 1105.85859111 0 -1736.11850540 0 5721
0.07450000 0.07449140 27525.76829053 0 87.14179591 0 13282.96456230 0 -165.56916494 0 -718.29556675 0 6028
0.07550000 0.07549160 28126.13144607 0 -173.69503136 0 12296.93468018 0 1078.66633293 0 679.83118402 0 6183
0.07650000 0.07648840 27224.40644443 0 -20.79363016 0 10308.07014309 0 1649.31820046 0 -2003.52234564 0 6330
0.07750000 0.07749960 28536.64001077 0 136.02761076 0 10938.70437106 0 691.89127818 0 -2019.73136400 0 6583
0.07850000 0.07848650 27211.36728958 0 322.72020655 0 9558.34122064 0 -260.04008995 0 -3636.42919603 0 6549
0.07950000 0.07947320 27754.85275243 0 1190.22754330 0 11265.15534958 0 -1710.39989653 0 -2366.11201627 0 6828
0.08050000 0.08048110 26209.60049644 0 1060.02371369 0 9511.79368596 0 -2448.00015685 0 -3810.96277993 0 7147
0.08150000 0.08149960 25856.98128301 0 159.53967989 0 11695.78467909 0 905.20510711 0 -2381.77024274 0 7386
0.08250000 0.08250610 25518.30047648 0 161.23139783 0 10338.07143990 0 1348.45094299 0 -3872.98869066 0 7227
0.08350000 0.08350160 25430.17377475 0 245.16983309 0 8906.78814167 0 3827.91368123 0 -3759.43563698 0 7798
0.08450000 0.08449610 24579.70614044 0 589.21805034 0 8355.04080054 0 2645.06000481 0 -3574.79670807 0 7371
0.08550000 0.08548940 23840.97057440 0 1030.94864651 0 7161.19376770 0 1764.86084932 0 -3166.45758897 0 8256
0.08650000 0.08650700 23004.55375351 0 814.72236498 0 6682.26336200 0 1623.62207289 0 463.07884003 0 8037
0.08750000 0.08749060 22316.73833528 0 674.87405704 0 7929.64961427 0 93.67969560 0 1311.58160859 0 8155
0.08850000 0.08849210 22405.42706955 0 182.00749257 0 8225.34617240 0 -12.07931568 0 2449.45020079 0 8718
0.08950000 0.08949900 22094.39826382 0 302.33079019 0 9140.07660694 0 347.09780579 0 4002.40230253 0 8571
0.09050000 0.09049190 21913.31138055 0 281.44566113 0 9514.72749580 0 733.22764718 0 3339.28259396 0 8932
0.09150000 0.09150830 21636.45415304 0 337.32181185 0 8954.76323899 0 934.83546243 0 4294.71542479 0 9285
0.09250000 0.09250820 21468.74364413 0 441.89808186 0 9109.29970524 0 1510.73221759 0 3733.57089965 0 9204
0.09350000 0.09350330 20658.18031992 0 432.44919086 0 7452.76500701 0 799.47779446 0 3434.77192192 0 9349
0.09450000 0.09448040 20394.58706028 0 427.13685932 0 7174.81743639 0 1134.04677095 0 2445.45976978 0 9564
0.09550000 0.09549270 19574.69399596 0 614.71521840 0 6929.52395613 0 260.71790118 0 2704.17458701 0 10155
0.09650000 0.09649430 19007.71557309 0 392.99563086 0 5855.67086985 0 482.09914514 0 1345.74194616 0 9913
0.09750000 0.09749140 18908.79784666 0 360.83612912 0 6406.53019957 0 203.25232245 0 3392.87801664 0 10476
0.09850000 0.09850240 18252.00662445 0 422.05720926 0 5676.33752809 0 383.55460831 0 1719.69591468 0 10575
0.09950000 0.09950330 18140.94899522 0 501.19588666 0 5257.45467860 0 604.02198736 0 2513.48818800 0 10882
0.10050000 0.10051200 17657.48860728 0 487.47442432 0 4930.22809517 0 116.66783800 0 2259.77546036 0 10875
0.10150000 0.10150300 17215.05659451 0 456.71663172 0 4811.54930475 0 571.38813015 0 2589.36258044 0 11118
0.10250000 0.10250800 16980.57662026 0 351.23211713 0 5865.73125225 0 -300.20630720 0 3104.30803108 0 11575
0.10350000 0.10349800 16848.72378719 0 164.96329387 0 5469.05992861 0 331.23387542 0 2598.01788150 0 11364
0.10450000 0.10450100 16918.07860220 0 -18.88226991 0 6522.98334115 0 -447.91632626 0 3050.11685390 0 12093
0.10550000 0.10551000 16945.05616395 0 -53.74177596 0 6370.81865220 0 -521.57631050 0 2544.09647995 0 12067
0.10650000 0.10649700 17381.75544485 0 -84.97774584 0 6883.25743773 0 273.18041065 0 2694.82236560 0 12054
0.10750000 0.10749900 17176.95078853 0 -149.84686676 0 6563.88806916 0 -239.90808449 0 1079.78365361 0 12807
0.10850000 0.10850100 17149.74841377 0 190.60546632 0 6440.73549975 0 92.47818244 0 1462.65595442 0 12736
0.10950000 0.10950300 16828.82783540 0 86.66148291 0 5480.93005578 0 246.09943491 0 150.96643558 0 12933
0.11050000 0.11050200 16621.21301639 0 269.30126208 0 4851.50981810 0 566.31522448 0 -484.89244684 0 13428
0.11150000 0.11150900 16142.47370176 0 302.28582759 0 4474.00380395 0 416.01535949 0 -926.27683097 0 13453
0.11250000 0.11250000 15958.57665580 0 419.82706415 0 4549.23747929 0 -26.43340185 0 -1105.53598443 0 13668
0.11350000 0.11349100 15661.03663095 0 382.65872844 0 4667.17438676 0 -118.31234520 0 -380.97375490 0 13791
0.11450000 0.11448600 15510.41191116 0 348.11733281 0 4614.68054785 0 -133.79858972 0 -96.35811785 0 14205
0.11550000 0.11549300 15326.62727171 0 214.40304798 0 5104.55934735 0 757.56478008 0 517.88263267 0 14776
0.11650000 0.11649800 15181.17325125 0 203.08708489 0 4928.26098129 0 622.50386529 0 24.52732471 0 14553
0.11750000 0.11747300 15020.31953929 0 123.11097900 0 4104.23135750 0 545.37501623 0 397.83922726 0 14568
0.11850000 0.11849100 14800.90203702 0 209.93601338 0 4061.69673514 0 320.54289251 0 -307.79487051 0 16015
0.11950000 0.11950300 14669.49882997 0 91.31398825 0 3266.13967965 0 142.93049437 0 -39.20165702 0 15270
0.12050000 0.12050700 14575.52698986 0 -76.36066298 0 3073.78966434 0 560.64656431 0 -355.52492165 0 15999
0.12150000 0.12150000 14656.90930115 0 -264.04625787 0 2670.77861368 0 262.51415717 0 -359.63675168 0 15670
0.12250000 0.12250700 14797.86706132 0 -42.86172530 0 2401.41890022 0 890.27752294 0 -58.78197134 0 16887
0.12350000 0.12352200 14831.02698098 0 197.19136358 0 2794.02110830 0 424.29634688 0 629.81590859 0 16407
0.12450000 0.12449800 14339.92295054 0 502.75384085 0 2676.10668213 0 374.01916429 0 1686.09760965 0 16306
0.12550000 0.12549900 14292.48740446 0 371.91154228 0 3293.21840726 0 339.03601109 0 1722.10141394 0 17523
0.12650000 0.12650100 13752.26173032 0 314.48193363 0 2966.69998483 0 319.34126694 0 2172.75034240 0 17154
0.12750000 0.12750600 13539.92583802 0 397.07036675 0 3236.84654385 0 -37.13899761 0 2170.38980574 0 18007
0.12850000 0.12850300 13060.51208434 0 384.82142965 0 2861.02662731 0 -267.59493130 0 1814.36467514 0 17496
0.12950000 0.12949900 12898.98393333 0 276.47504538 0 3027.00607600 0 -180.83509270 0 1648.89105573 0 18405
0.13050000 0.13049000 12758.02617317 0 142.43927793 0 2823.84255469 0 11.84461089 0 1407.43063738 0 18100
0.13150000 0.13148800 12943.04728420 0 31.65637021 0 3047.74507660 0 -237.82181971 0 1490.04942025 0 19059
0.13250000 0.13249300 12719.13352164 0 244.64489470 0 3241.25287893 0 -609.11175401 0 809.26278092 0 18957
0.13350000 0.13349100 12682.26418724 0 404.79719006 0 3672.33183447 0 -624.72726600 0 1017.47223035 0 19468
0.13450000 0.13450700 12364.26617806 0 483.59977201 0 4496.69867777 0 -462.07617399 0 1299.20565214 0 19953
0.13550000 0.13551000 11896.54270114 0 355.26189042 0 4308.86740406 0 -421.84925722 0 555.67932076 0 19956
0.13650000 0.13649900 11954.20723939 0 23.00747632 0 4300.93150464 0 46.96456282 0 69.89031961 0 19723
0.13750000 0.13749600 11846.85902491 0 -120.95727032 0 4187.05247209 0 -44.61077056 0 -1069.71540275 0 20946
0.13850000 0.13851100 12097.86275574 0 -208.90524571 0 3832.45490413 0 113.85093093 0 -1529.76263928 0 20955
0.13950000 0.13949800 12173.96196119 0 -115.85738708 0 3852.18224616 0 -74.94951169 0 -1912.61920318 0 20506
0.14050000 0.14048300 12364.49099108 0 -29.19152032 0 3614.34131734 0 -27.99641434 0 -1752.14767334 0 21447
0.14150000 0.14148400 12228.25430422 0 80.46765954 0 3510.17420702 0 102.07466319 0 -2051.67729337 0 21771
0.14250000 0.14249400 12246.35175189 0 81.30587487 0 3501.48518401 0 448.76162320 0 -1421.65006055 0 22470
0.14350000 0.14350900 12018.27894856 0 96.22435411 0 3462.18786905 0 530.90492655 0 -1240.24843905 0 22519
0.14450000 0.14449900 12056.38475454 0 148.37883778 0 3055.79338252 0 794.60722050 0 -548.73934300 0 22218
0.14550000 0.14550500 11771.32185200 0 275.66571853 0 3116.62778428 0 327.03099611 0 -283.27451501 0 23559
0.14650000 0.14650700 11628.79040073 0 287.47739431 0 2658.58250764 0 114.27695159 0 -588.93253781 0 23044
0.14750000 0.14750500 11318.54844056 0 366.85886978 0 2684.03134090 0 -46.05530658 0 33.84402566 0 23649
0.14850000 0.14849900 11132.74048397 0 310.06548196 0 2851.65192460 0 -188.15050820 0 -131.70445648 0 23640
0.14950000 0.14949500 10867.83206820 0 180.23146976 0 3185.01590332 0 -191.42603382 0 289.03310038 0 24457
0.15050000 0.15050000 10857.97401751 0 169.84960474 0 3142.58244682 0 -11.12988536 0 -289.21744705 0 24591
0.15150000 0.15149900 10601.93447515 0 188.57765292 0 3431.66950232 0 106.79708538 0 376.82145852 0 25020
0.15250000 0.15250500 10458.03166450 0 277.14386410 0 3812.24421411 0 86.75489272 0 663.82112518 0 25297
0.15350000 0.15350100 10337.35203825 0 165.12853143 0 3491.66085527 0 233.80441114 0 1039.83213278 0 25452
0.15450000 0.15450400 10216.11037946 0 138.37690676 0 3918.38967897 0 311.80778282 0 1420.94189956 0 26061
0.15550000 0.15549900 10115.39414891 0 88.65995820 0 3626.60486729 0 194.35197520 0 1044.13617795 0 26128
0.15650000 0.15649500 10127.30923869 0 -19.54052242 0 3945.49088788 0 199.01122493 0 1440.59055703 0 26331
0.15750000 0.15749700 10061.12428719 0 -24.92726706 0 3533.43111338 0 -4.38144829 0 1027.13581778 0 27345
0.15850000 0.15849900 10249.60751864 0 -46.61115676 0 3378.65859347 0 212.70008939 0 1226.65849232 0 26980
0.15950000 0.15949700 10129.97327291 0 -37.05975102 0 3067.14643976 0 327.55143824 0 1158.27037327 0 27777
0.16050000 0.16050000 10265.88398090 0 36.23895870 0 2669.30608844 0 403.49889490 0 744.79427678 0 28224
0.16150000 0.16150500 10074.16344203 0 186.13056326 0 2483.53185381 0 281.41980764 0 511.10339622 0 28075
0.16250000 0.16249700 9898.20229549 0 302.40610255 0 2107.82434377 0 59.08198431 0 352.90360189 0 28590
0.16350000 0.16349900 9575.71926667 0 241.36599689 0 2002.27463341 0 99.79056296 0 242.88798100 0 29163
0.16450000 0.16449100 9411.47087819 0 213.68027414 0 2116.85058631 0 -104.04616092 0 546.73625903 0 28996
0.16550000 0.16550500 9295.16386507 0 125.40182362 0 2278.86208530 0 -25.78189374 0 282.25386392 0 30777
0.16650000 0.16650700 9277.81954100 0 182.83368040 0 2498.11097780 0 58.69361982 0 220.50110100 0 29211
0.16750000 0.16749900 9028.60307364 0 257.42551459 0 2405.35312797 0 -10.63974802 0 461.83899626 0 30922
0.16850000 0.16850800 8874.24645780 0 137.16741274 0 2565.28510657 0 47.57268202 0 536.93103940 0 30867
0.16950000 0.16949900 8806.46533389 0 98.05365761 0 2510.86911638 0 143.07662283 0 905.19274239 0 30852
0.17050000 0.17049200 8788.14307320 0 -0.11197936 0 2351.70150203 0 472.03314241 0 486.50660429 0 31257
0.17150000 0.17149500 8712.11131166 0 -45.87466932 0 2135.97093320 0 217.37957229 0 395.85188021 0 32608
0.17250000 0.17250900 8729.71417070 0 93.44454119 0 2034.80507663 0 179.83355072 0 637.22686961 0 32361
0.17350000 0.17350400 8657.69532147 0 163.57956976 0 1922.10631240 0 129.73397041 0 478.86745805 0 32508
0.17450000 0.17449800 8453.16044077 0 224.09361297 0 1934.17877128 0 173.74336615 0 901.90147986 0 32791
0.17550000 0.17549800 8316.51909048 0 256.00357227 0 2257.92075298 0 304.61938668 0 1041.37997039 0 33633
0.17650000 0.17650100 8126.45092727 0 297.01621053 0 2182.81072480 0 -61.09653373 0 1418.98602633 0 33984
0.17750000 0.17750300 7956.80702644 0 226.30015271 0 2413.87354123 0 6.95989619 0 1396.04385819 0 34069
