### header ###
fiducial parameters:
Omega_m = 0.31
Omega_nu = 0
Omega_de = 0.69
Omega_k = 0
H_0 = 100
w_de = -1
zeff = 0
beta = 0
fgrowth = 0
b_1 = 2
gamma = 0.55
Lx = 3500 Ly = 3500 Lz = 3500
nx = 700 ny = 700 nz = 700
xoffset = 857.220397 yoffset = 15.9954215 zoffset = 262.898189
bins = 400 dk = 0.001
kx_ny = 0.628318531 ky_ny = 0.628318531 kz_ny = 0.628318531
############################
A(data) = 3.05697236 (not used)
A(ran) = 3.05386798 (used)
Ngal = 186724
weighted Ngal = 0
Nran = 9360983
weighted Nran = 0
SN(data) = 3452.03264
SN(ran) = 68.5783978
SN(data+ran) = 3520.61104
############################
13 columns: k_central k_mean P_0(k) sigma^{lin}_{P_0(k)} P^img_1(k) sigma^{lin}_{P_1(k)} P_2(k) sigma^{lin}_{P_2(k)} P^img_3(k) sigma^{lin}_{P_3(k)} P_4(k) sigma^{lin}_{P_4(k)} N_modes
### header ###
0.00050000 0 0 0 0 0 0 0 0 0 0 0 0
0.00150000 0.00179520 10883.22051905 0 -13950.54680922 0 5472.29723602 0 9255.33823953 0 53750.20644593 0 3
0.00250000 0.00253879 20765.75334742 0 -13928.51513379 0 2903.95467245 0 -15323.25507649 0 -29144.53440230 0 6
0.00350000 0.00331552 35899.82827210 0 -14391.06791137 0 13105.24987425 0 -11922.95823036 0 1766.16476481 0 7
0.00450000 0.00420575 50839.43993914 0 -11585.62630193 0 17782.25983040 0 -12523.54619892 0 -2896.20986409 0 24
0.00550000 0.00557378 61886.86388407 0 1919.13878060 0 43695.89399309 0 -22838.30452920 0 12846.15287490 0 45
0.00650000 0.00659388 69077.62056319 0 4913.33339712 0 20138.41263012 0 13743.38161625 0 -25346.88055283 0 40
0.00750000 0.00754703 59361.65169735 0 5947.47326437 0 46470.64862603 0 12423.39200091 0 20031.06441564 0 57
0.00850000 0.00846663 56753.03388221 0 3467.65082530 0 13881.52921373 0 30375.61047036 0 -17723.47122708 0 75
0.00950000 0.00948925 56806.20216017 0 -10360.10311533 0 2982.13339828 0 42606.33771773 0 5930.29755005 0 112
0.01050000 0.01054430 57112.73470560 0 -8192.59091617 0 -22113.61977657 0 19362.69532318 0 -29057.53176564 0 105
0.01150000 0.01145670 64274.49050584 0 -12082.57547074 0 -47503.66442821 0 17781.36057834 0 -16654.71015557 0 144
0.01250000 0.01249090 63875.78462441 0 -6271.45129974 0 -36795.03369632 0 -19525.23513275 0 -26042.22720705 0 169
0.01350000 0.01339930 73071.19895490 0 1138.40814343 0 -59617.93853402 0 -25305.06533211 0 -16888.51569078 0 180
0.01450000 0.01448870 63813.62382587 0 6650.09261961 0 -33407.77600504 0 -36352.26446403 0 -18620.92478144 0 267
0.01550000 0.01550050 60187.72711957 0 4928.78929187 0 -40639.67346584 0 -36744.00114200 0 -37879.41927234 0 238
0.01650000 0.01653350 59599.39146031 0 210.69475730 0 -11918.68678308 0 -31617.02793709 0 -28430.64067437 0 315
0.01750000 0.01747870 62942.47339421 0 1234.76300150 0 -13695.04681810 0 -26300.08773482 0 -42065.88723059 0 297
0.01850000 0.01844180 67992.78536114 0 -3638.44127251 0 2556.62980551 0 -14836.64730634 0 -30796.23562071 0 388
0.01950000 0.01947590 71422.30789917 0 -3335.29216295 0 11179.27677800 0 -16879.97279622 0 -47328.08546379 0 399
0.02050000 0.02045430 77869.04590640 0 -4475.63369831 0 7175.13217461 0 4017.59966232 0 -28100.27794939 0 462
0.02150000 0.02154770 77934.69130667 0 -728.20982070 0 14754.92777553 0 4714.26147267 0 -35614.54055655 0 571
0.02250000 0.02255340 81625.78378721 0 298.59889415 0 12463.29631100 0 3974.80650499 0 -23754.64237679 0 510
0.02350000 0.02348930 77867.24740229 0 3528.58639292 0 17557.55922229 0 352.10776382 0 -15779.96271569 0 555
0.02450000 0.02439640 78683.09383234 0 3892.68231075 0 18259.76267345 0 -4687.11530116 0 -14024.39788452 0 592
0.02550000 0.02547300 76083.13131826 0 1410.58926023 0 25863.72567344 0 772.19448701 0 10311.09387814 0 837
0.02650000 0.02652900 76342.22831761 0 -998.67898639 0 30185.64347300 0 4866.52732748 0 4324.01980125 0 723
0.02750000 0.02749970 78048.10947255 0 -735.25995683 0 32237.28704442 0 7181.25832925 0 19337.06663951 0 826
0.02850000 0.02848090 80742.94307880 0 540.62808943 0 31658.05631226 0 9610.96994736 0 4650.45953912 0 831
0.02950000 0.02946900 76293.33148693 0 5231.54497866 0 28526.97305114 0 5876.15133548 0 22585.27748124 0 996
0.03050000 0.03053250 70635.79956752 0 7088.56792333 0 29873.71541522 0 6838.17118764 0 16392.01614799 0 1041
0.03150000 0.03150510 65782.53620791 0 4900.57525854 0 27651.77598522 0 7003.00408996 0 9688.67656586 0 1036
0.03250000 0.03246190 58466.10905361 0 3649.67068259 0 18102.84318925 0 4335.87868777 0 13557.12403363 0 1059
0.03350000 0.03345080 58318.96893554 0 565.72171812 0 18262.34802312 0 2186.53138019 0 6063.74655553 0 1302
0.03450000 0.03451200 56534.06600597 0 -744.58295255 0 17844.08340942 0 1606.37891466 0 5312.79240215 0 1339
0.03550000 0.03553350 57689.15527509 0 1026.70530086 0 14917.01795907 0 -4292.30992553 0 -5334.74539302 0 1365
0.03650000 0.03647120 57391.61525024 0 439.27226585 0 15963.07291610 0 -648.01452212 0 -406.34390360 0 1308
0.03750000 0.03744890 54179.93652338 0 2115.24317326 0 15500.74495153 0 -4335.22673002 0 -5523.56584400 0 1579
0.03850000 0.03847530 56315.66016227 0 1910.38231368 0 25730.29914927 0 -3037.21258686 0 1805.79929928 0 1662
0.03950000 0.03950240 54076.18531713 0 1571.96004213 0 22644.74052361 0 4064.78791409 0 -4025.44563653 0 1683
0.04050000 0.04050350 55165.96640550 0 2060.88338632 0 27152.69109277 0 3930.15864028 0 1885.43930971 0 1822
0.04150000 0.04152450 49273.95451184 0 2586.46249255 0 20045.56485508 0 3521.41485775 0 3240.92690006 0 1887
0.04250000 0.04250150 49109.39138513 0 3605.92206995 0 23182.83047410 0 1666.96602210 0 271.29984978 0 1920
0.04350000 0.04349210 44880.20895411 0 3960.77817287 0 20316.01491167 0 2124.02212148 0 1424.28037282 0 2005
0.04450000 0.04448520 42368.93517430 0 1853.94300636 0 21819.78916646 0 4108.12062266 0 3388.14570268 0 2151
0.04550000 0.04548030 40043.46935107 0 9.35708861 0 16875.81375545 0 4353.17804924 0 4645.68226256 0 2274
0.04650000 0.04648670 40121.14224762 0 -780.30349244 0 14236.17174429 0 5344.13133638 0 3491.28991379 0 2311
0.04750000 0.04749250 41112.56764209 0 -559.32803598 0 10924.49618853 0 4063.57392381 0 4572.82036453 0 2568
0.04850000 0.04851840 40217.47462438 0 -176.95482007 0 8570.95121978 0 3622.01868179 0 7546.25349914 0 2493
0.04950000 0.04949480 40825.93104845 0 -420.43967962 0 8500.77583726 0 2196.14213657 0 5784.94469545 0 2644
0.05050000 0.05050630 41023.31687529 0 -244.32903242 0 10307.10344713 0 924.10401318 0 11755.47253447 0 2829
0.05150000 0.05149060 40988.80807754 0 -155.42672579 0 10018.08383554 0 981.74719419 0 8369.66488714 0 2784
0.05250000 0.05249300 41713.83004969 0 519.11011173 0 7079.24942387 0 -2113.26481873 0 10434.80848009 0 3055
0.05350000 0.05348950 41188.44203453 0 1464.06103576 0 11304.94725317 0 -484.59456960 0 5746.16445043 0 3009
0.05450000 0.05448610 39637.23223365 0 2556.62980551 0 10678.58447249 0 -3581.24884159 0 6964.39245470 0 3336
0.05550000 0.05550870 37065.93337894 0 2416.61626001 0 9849.81129409 0 -390.50245452 0 3440.51589444 0 3349
0.05650000 0.05647670 34913.68598347 0 1722.41615216 0 10425.96208796 0 -758.59891995 0 188.35508804 0 3324
0.05750000 0.05747970 34457.20315729 0 611.80164173 0 10574.55224997 0 528.15433931 0 -1085.91542858 0 3639
0.05850000 0.05849280 33992.06503004 0 -485.95131614 0 8555.23679006 0 2274.42202826 0 -1111.94652755 0 3846
0.05950000 0.05951020 34311.52432381 0 -803.32209701 0 8143.12081231 0 2102.19277776 0 196.44386030 0 3787
0.06050000 0.06049470 35372.41693980 0 -719.57924906 0 7715.42529264 0 3034.34622093 0 -414.96211052 0 3930
0.06150000 0.06148310 35828.11292044 0 -571.34878788 0 7053.47461174 0 2420.97763249 0 2104.72192417 0 4083
0.06250000 0.06249100 35629.15340250 0 162.33860192 0 6597.38520833 0 306.36843193 0 948.02861420 0 4303
0.06350000 0.06350600 35110.50977777 0 633.80858773 0 5648.13473540 0 607.16262517 0 2078.59865187 0 4470
0.06450000 0.06451750 35270.91386370 0 825.50552123 0 7291.68648204 0 250.67100756 0 1896.84857020 0 4479
0.06550000 0.06550280 33565.14511528 0 1031.13973757 0 5060.49599649 0 335.56489814 0 -1403.22663400 0 4636
0.06650000 0.06648880 33930.12904451 0 974.82295334 0 4875.30627570 0 213.09576030 0 496.75582962 0 4653
0.06750000 0.06749660 32119.26021175 0 351.07249989 0 4557.75789255 0 1002.31196471 0 -896.78136345 0 5220
0.06850000 0.06852730 31884.66783099 0 717.89764772 0 3337.94495652 0 1276.16231814 0 1376.53008852 0 5029
0.06950000 0.06949320 32060.47160843 0 268.98764793 0 4665.74682412 0 1655.18582014 0 633.81420805 0 5040
0.07050000 0.07048030 30770.83175006 0 962.16373249 0 4219.40306489 0 -140.09672632 0 2781.45406078 0 5475
0.07150000 0.07148790 30908.30490850 0 613.88790650 0 8199.06553099 0 117.04439980 0 5297.78613342 0 5509
0.07250000 0.07249820 29814.81440539 0 1070.97772783 0 8191.77034867 0 -1977.75877417 0 6322.69742642 0 5916
0.07350000 0.07351270 29733.99412663 0 547.76590264 0 11234.58077960 0 -433.86888504 0 7568.81348516 0 5721
0.07450000 0.07449140 29393.62722250 0 353.93549363 0 11901.26377445 0 -678.37889194 0 7233.76340882 0 6028
0.07550000 0.07549160 28826.87361264 0 316.96611744 0 12392.81743092 0 498.49026203 0 6965.74133279 0 6183
0.07650000 0.07648840 29131.83246697 0 99.02653593 0 12171.93864405 0 1292.11280153 0 5811.70868484 0 6330
0.07750000 0.07749960 28344.20007025 0 320.31358323 0 10129.46744363 0 1121.41115546 0 4884.50112799 0 6583
0.07850000 0.07848650 28132.98824302 0 522.84200778 0 10381.56151757 0 585.12757754 0 3853.38499579 0 6549
0.07950000 0.07947320 27334.00278906 0 798.87529558 0 9147.55163967 0 15.52131534 0 4331.06768925 0 6828
0.08050000 0.08048110 26809.73883897 0 895.24476649 0 9598.38041854 0 -500.08980663 0 3217.38897743 0 7147
0.08150000 0.08149960 25726.58973453 0 1025.86225205 0 10179.89300281 0 -1015.98734039 0 2786.33250320 0 7386
0.08250000 0.08250610 25754.35414183 0 892.02656819 0 11274.37268318 0 -402.68169959 0 2843.51369347 0 7227
0.08350000 0.08350160 24730.78048627 0 425.32823862 0 10798.06134911 0 434.52084279 0 1829.96669835 0 7798
0.08450000 0.08449610 24458.86914509 0 320.94081154 0 11589.89774920 0 348.95251316 0 1910.30362913 0 7371
0.08550000 0.08548940 23952.59023616 0 388.68821350 0 8726.75787956 0 1717.47026584 0 468.33946458 0 8256
0.08650000 0.08650700 23425.17890386 0 508.85639014 0 8565.97161150 0 2545.77133690 0 1292.45002105 0 8037
0.08750000 0.08749060 22207.81642970 0 866.40238078 0 6362.95019669 0 854.36589198 0 -511.60135704 0 8155
0.08850000 0.08849210 21846.42950870 0 756.71611095 0 6806.58495909 0 1390.06383200 0 -591.29419853 0 8718
0.08950000 0.08949900 20536.89369854 0 775.66335182 0 5711.68937464 0 -338.03334504 0 -608.77903074 0 8571
0.09050000 0.09049190 20163.81650077 0 652.19829232 0 5171.73347612 0 -606.32632076 0 -340.22414787 0 8932
0.09150000 0.09150830 19869.19904511 0 135.54089058 0 6275.08202993 0 -469.22522785 0 -251.82879459 0 9285
0.09250000 0.09250820 19816.81761271 0 145.66534469 0 5668.94117991 0 552.50720912 0 -59.57904588 0 9204
0.09350000 0.09350330 19884.37392360 0 -109.22326743 0 5212.24478136 0 1008.21780260 0 278.93562382 0 9349
0.09450000 0.09448040 19860.88096357 0 -32.30158357 0 4360.32710311 0 1821.39008185 0 418.59846103 0 9564
0.09550000 0.09549270 19679.45686078 0 69.59401606 0 3917.18692934 0 1582.22275624 0 701.02205877 0 10155
0.09650000 0.09649430 19472.40407431 0 19.76556025 0 3022.24004009 0 1185.70880171 0 1419.77287188 0 9913
0.09750000 0.09749140 19462.62470817 0 24.81609703 0 1990.67428186 0 1424.59511104 0 1651.04926067 0 10476
0.09850000 0.09850240 19426.54221933 0 -35.49235468 0 1332.74775392 0 533.56221638 0 1986.82997931 0 10575
0.09950000 0.09950330 19279.17728824 0 131.30653745 0 1463.51024387 0 649.59383355 0 2187.30698509 0 10882
0.10050000 0.10051200 19222.74922158 0 250.86434675 0 1219.25090349 0 -154.38134527 0 2576.01992802 0 10875
0.10150000 0.10150300 18602.71492725 0 506.86454683 0 1767.38999574 0 -920.61154300 0 2058.42168381 0 11118
0.10250000 0.10250800 18601.92808170 0 517.37230713 0 1940.23748203 0 -629.19767280 0 2967.79032795 0 11575
0.10350000 0.10349800 18003.92546281 0 486.77413178 0 2695.92394937 0 -893.88914402 0 1765.46784446 0 11364
0.10450000 0.10450100 17907.59308605 0 326.91971366 0 2723.32865585 0 -526.07819112 0 2132.84603230 0 12093
0.10550000 0.10551000 17548.90392122 0 270.39048114 0 3429.06167135 0 148.19111891 0 829.82642737 0 12067
0.10650000 0.10649700 17557.33440927 0 39.62273179 0 3311.72051836 0 29.65103812 0 1697.38322298 0 12054
0.10750000 0.10749900 17464.37422773 0 95.34117618 0 2911.76692471 0 307.31939099 0 -560.22728804 0 12807
0.10850000 0.10850100 17211.00996025 0 53.24269107 0 3333.62854664 0 -216.45221861 0 -646.62742582 0 12736
0.10950000 0.10950300 17356.68879372 0 309.52031040 0 3108.00620517 0 -793.37524518 0 -1160.32741236 0 12933
0.11050000 0.11050200 16827.36655080 0 373.57403452 0 3511.68045422 0 -1259.64980222 0 -1638.85315463 0 13428
0.11150000 0.11150900 16977.54164457 0 513.97763061 0 5102.59223348 0 -1238.46117559 0 -1330.55582703 0 13453
0.11250000 0.11250000 16546.01306300 0 479.83415401 0 5357.15925058 0 -1515.72306652 0 -2490.35492880 0 13668
0.11350000 0.11349100 16308.16089354 0 537.62795975 0 6577.84895736 0 -818.25530151 0 -1715.71672432 0 13791
0.11450000 0.11448600 15915.30015049 0 512.39157479 0 6793.86054246 0 -204.06951776 0 -2349.93671987 0 14205
0.11550000 0.11549300 15664.97085871 0 437.34899051 0 6750.59527780 0 540.37180259 0 -2371.86722944 0 14776
0.11650000 0.11649800 15133.06326612 0 465.78558873 0 6268.06786387 0 815.26866061 0 -2523.13266633 0 14553
0.11750000 0.11747300 14885.20691750 0 405.21197007 0 5236.28853327 0 1289.11154778 0 -2360.95255759 0 14568
0.11850000 0.11849100 14202.89941813 0 154.76914772 0 4842.37116905 0 1285.91920297 0 -2113.63576020 0 16015
0.11950000 0.11950300 13996.40866420 0 -46.12938247 0 3652.51456723 0 1384.30861882 0 -1566.11490375 0 15270
0.12050000 0.12050700 14054.29801547 0 -219.88511334 0 3420.23776052 0 1327.18363181 0 -1618.11415403 0 15999
0.12150000 0.12150000 14184.80197045 0 -124.17659269 0 2651.74819200 0 952.64177726 0 -1148.89567056 0 15670
0.12250000 0.12250700 14299.79382743 0 -63.24248636 0 2527.07813474 0 442.81869116 0 -215.07411483 0 16887
0.12350000 0.12352200 14322.27512889 0 -10.42659156 0 2995.99312063 0 -70.58870124 0 226.70481614 0 16407
0.12450000 0.12449800 14362.85387803 0 -68.75995977 0 2615.75562836 0 -98.24688440 0 681.32169430 0 16306
0.12550000 0.12549900 14575.18977034 0 -11.10642612 0 2980.40233807 0 -283.56789599 0 723.00202721 0 17523
0.12650000 0.12650100 14679.95263515 0 3.98111251 0 3305.38079135 0 -374.76666757 0 617.94465735 0 17154
0.12750000 0.12750600 14657.13411417 0 223.24494384 0 3673.05123611 0 -566.87051262 0 1149.27785269 0 18007
0.12850000 0.12850300 14494.70671111 0 217.43352741 0 3964.93721364 0 -228.24703342 0 740.06870722 0 17496
0.12950000 0.12949900 14372.97046369 0 197.43078944 0 4107.38998036 0 -263.20433313 0 1364.53631419 0 18405
0.13050000 0.13049000 14369.48586196 0 180.98009709 0 4136.23349013 0 780.13825488 0 1284.72769400 0 18100
0.13150000 0.13148800 14006.07562383 0 267.06999291 0 4310.02519109 0 418.98738754 0 1841.65697511 0 19059
0.13250000 0.13249300 13984.04394840 0 291.06316190 0 4123.61023936 0 555.03185927 0 1947.88112452 0 18957
0.13350000 0.13349100 13525.65021159 0 432.48853314 0 4358.83209656 0 172.80139962 0 2181.23703370 0 19468
0.13450000 0.13450700 13379.29693907 0 393.08218387 0 4072.63388830 0 62.23509924 0 2291.84503689 0 19953
0.13550000 0.13551000 12898.75912032 0 265.12311221 0 4031.25705296 0 -2.02721764 0 2103.50793389 0 19956
0.13650000 0.13649900 12786.68983253 0 225.41214130 0 4504.88187151 0 -302.42970792 0 2165.05049665 0 19723
0.13750000 0.13749600 12634.60382814 0 193.97990966 0 3969.82689671 0 20.35850457 0 916.24679832 0 20946
0.13850000 0.13851100 12391.46855283 0 154.07110331 0 4614.53441939 0 233.09062982 0 1637.94266192 0 20955
0.13950000 0.13949800 12176.21009133 0 286.19483607 0 3534.85867603 0 242.66878831 0 677.68871599 0 20506
0.14050000 0.14048300 12012.32140367 0 244.03227924 0 3616.73557595 0 719.90073168 0 1199.25378584 0 21447
0.14150000 0.14148400 11555.27654495 0 293.21687058 0 2757.34286496 0 664.62820390 0 885.29117027 0 21771
0.14250000 0.14249400 11358.67756367 0 140.46879186 0 2691.86607445 0 663.54235704 0 1464.99400977 0 22470
0.14350000 0.14350900 11182.01949678 0 95.66558136 0 2207.67504422 0 316.44792344 0 1356.78026518 0 22519
0.14450000 0.14449900 11136.37121416 0 1.75528381 0 2227.32370170 0 266.07969158 0 1607.16576022 0 22218
0.14550000 0.14550500 11169.11522974 0 53.75076848 0 2238.67675893 0 -227.57259437 0 1649.38564436 0 23559
0.14650000 0.14650700 11242.89886114 0 118.78670066 0 2607.84221024 0 -535.90251986 0 1523.59152203 0 23044
0.14750000 0.14750500 11163.98949301 0 93.10349984 0 2858.39631503 0 -288.68126801 0 1746.05524065 0 23649
0.14850000 0.14849900 11189.05614414 0 181.29595938 0 3107.23060027 0 -171.48287129 0 1521.43331709 0 23640
0.14950000 0.14949500 11187.56113759 0 81.96142962 0 3280.33662152 0 -74.02103394 0 1600.71362670 0 24457
0.15050000 0.15050000 11148.09521287 0 154.82984723 0 3741.27074540 0 35.36769587 0 1201.19841842 0 24591
0.15150000 0.15149900 10909.42247590 0 246.10842743 0 3374.88173482 0 -118.42137952 0 1126.26824064 0 25020
0.15250000 0.15250500 10730.08913414 0 289.36807177 0 3564.82625087 0 -151.53970876 0 758.88555654 0 25297
0.15350000 0.15350100 10447.97128209 0 367.90425030 0 3510.99477452 0 -251.65006824 0 791.73073798 0 25452
0.15450000 0.15450400 10076.42281283 0 324.33323993 0 3711.34813315 0 -198.38961695 0 411.30552683 0 26061
0.15550000 0.15549900 9855.07191864 0 226.89815533 0 3917.51290821 0 -25.57978684 0 470.60670383 0 26128
0.15650000 0.15649500 9703.32313377 0 84.34759496 0 3656.77477385 0 249.32774980 0 161.20779246 0 26331
0.15750000 0.15749700 9769.81158284 0 -101.50813439 0 3671.66863607 0 447.32506804 0 382.30015169 0 27345
0.15850000 0.15849900 9717.68868540 0 -115.43361455 0 3454.78028022 0 573.26531883 0 736.99214111 0 26980
0.15950000 0.15949700 10019.53387948 0 -151.25419624 0 3223.51513208 0 694.69357241 0 694.35073256 0 27777
0.16050000 0.16050000 9920.97585387 0 26.79804856 0 2900.30146096 0 443.74492078 0 977.75114286 0 28224
0.16150000 0.16150500 9925.70816783 0 134.00991395 0 2740.33576041 0 229.87243151 0 1026.90650851 0 28075
0.16250000 0.16249700 9762.50515987 0 233.20528446 0 2606.67318256 0 71.33463082 0 835.42651956 0 28590
0.16350000 0.16349900 9566.95155910 0 267.77590578 0 2497.67259243 0 -253.29345138 0 851.01055774 0 29163
0.16450000 0.16449100 9315.39703639 0 233.17943096 0 2221.43360071 0 -211.72552497 0 32.59923600 0 28996
0.16550000 0.16550500 9066.11312513 0 163.34913642 0 2464.83865164 0 -387.80469835 0 3.93248545 0 30777
0.16650000 0.16650700 8986.70916836 0 113.04497627 0 2121.90887914 0 -196.52928925 0 -725.68854274 0 29211
0.16750000 0.16749900 9029.16510618 0 57.58866386 0 2290.10273603 0 -158.98214361 0 -817.91695792 0 30922
0.16850000 0.16850800 8942.07254431 0 86.80221586 0 2455.17169201 0 -130.18921677 0 -1030.97450001 0 30867
0.16950000 0.16949900 8988.04680580 0 129.35066422 0 2319.18229947 0 118.33595057 0 -731.75287381 0 30852
0.17050000 0.17049200 8826.31632308 0 102.06038756 0 2649.10663907 0 174.97646554 0 -499.86274549 0 31257
0.17150000 0.17149500 8862.56742169 0 107.68554641 0 2523.46988585 0 381.82804436 0 -271.59098264 0 32608
0.17250000 0.17250900 8714.30323855 0 39.96051335 0 2468.58178833 0 569.49183237 0 287.03001642 0 32361
0.17350000 0.17350400 8701.34276826 0 145.00776663 0 2360.45796895 0 390.32597631 0 76.32649141 0 32508
0.17450000 0.17449800 8538.40953591 0 91.47945062 0 2165.63501048 0 187.51203923 0 459.24015781 0 32791
0.17550000 0.17549800 8368.68695052 0 159.22156947 0 2023.53070394 0 303.04906777 0 657.92315574 0 33633
0.17650000 0.17650100 8356.99667376 0 88.24753873 0 2079.22812831 0 35.15817014 0 696.04694676 0 33984
0.17750000 0.17750300 8168.08629758 0 73.90446839 0 1847.40094764 0 111.44644333 0 336.05836271 0 34069
