### header ###
fiducial parameters:
Omega_m = 0.31
Omega_nu = 0
Omega_de = 0.69
Omega_k = 0
H_0 = 100
w_de = -1
zeff = 0
beta = 0
fgrowth = 0
b_1 = 2
gamma = 0.55
Lx = 3500 Ly = 3500 Lz = 3500
nx = 700 ny = 700 nz = 700
xoffset = 857.220397 yoffset = 15.9954215 zoffset = 262.898189
bins = 400 dk = 0.001
kx_ny = 0.628318531 ky_ny = 0.628318531 kz_ny = 0.628318531
############################
A(data) = 3.11381338 (not used)
A(ran) = 3.11508369 (used)
Ngal = 190103
weighted Ngal = 0
Nran = 9360983
weighted Nran = 0
SN(data) = 3438.66116
SN(ran) = 69.9530727
SN(data+ran) = 3508.61423
############################
13 columns: k_central k_mean P_0(k) sigma^{lin}_{P_0(k)} P^img_1(k) sigma^{lin}_{P_1(k)} P_2(k) sigma^{lin}_{P_2(k)} P^img_3(k) sigma^{lin}_{P_3(k)} P_4(k) sigma^{lin}_{P_4(k)} N_modes
### header ###
0.00050000 0 0 0 0 0 0 0 0 0 0 0 0
0.00150000 0.00179520 9536.97274360 0 -10275.00014864 0 -4594.26752612 0 -19561.43002810 0 3688.25983655 0 3
0.00250000 0.00253879 23268.48423267 0 -14020.23884375 0 4037.91151819 0 -9877.47453554 0 23286.58168035 0 6
0.00350000 0.00331552 31398.17246736 0 -12296.14783463 0 -269.77786567 0 -20776.99399815 0 7880.55045188 0 7
0.00450000 0.00420575 44449.69203111 0 -8385.69405508 0 16690.68023791 0 -32876.20563197 0 11633.17425452 0 24
0.00550000 0.00557378 60958.83575972 0 -18187.26047624 0 13016.56113998 0 -430.61246853 0 21912.52453499 0 45
0.00650000 0.00659388 64947.91789113 0 -4205.43093603 0 45111.99117218 0 4966.98502306 0 -5904.24172166 0 40
0.00750000 0.00754703 83574.68781095 0 -12314.58250183 0 -6243.85550219 0 18733.66850827 0 -17972.90126680 0 57
0.00850000 0.00846663 78554.16356846 0 -1191.57642139 0 11760.75564031 0 14804.04941922 0 -31546.09943098 0 75
0.00950000 0.00948925 80457.88017626 0 14180.86774270 0 -24472.47033247 0 -17524.28689612 0 -28541.81071010 0 112
0.01050000 0.01054430 59588.48802910 0 10772.02800202 0 455.67462340 0 -32022.36580245 0 -33210.72739773 0 105
0.01150000 0.01145670 57151.73976364 0 10590.21047644 0 -8674.10667154 0 -38929.29605061 0 -37730.36824364 0 144
0.01250000 0.01249090 50705.22656941 0 154.70395195 0 6745.91916709 0 -28038.45437037 0 -40248.04919437 0 169
0.01350000 0.01339930 49307.11443149 0 -248.99502654 0 8318.86838648 0 -27233.62377803 0 -45076.02108984 0 180
0.01450000 0.01448870 58836.71330821 0 -4919.04364769 0 14107.91591945 0 -8685.35856292 0 -48229.02361988 0 267
0.01550000 0.01550050 62667.86429686 0 -4517.98847026 0 17399.51567301 0 -3780.38820994 0 -62834.33833418 0 238
0.01650000 0.01653350 64254.14492801 0 -292.84030878 0 4356.04441518 0 4271.49224038 0 -38445.61084966 0 315
0.01750000 0.01747870 61070.68023449 0 -2585.03492991 0 1783.80134580 0 3712.60708603 0 -49548.56360919 0 297
0.01850000 0.01844180 62898.41004335 0 -1338.06458172 0 -2897.79479585 0 -390.28550997 0 -28331.94776096 0 388
0.01950000 0.01947590 65939.11847259 0 -2064.58156041 0 -10027.42481629 0 1543.58863968 0 -34850.40111986 0 399
0.02050000 0.02045430 64973.88379432 0 -1796.35715267 0 -10356.41618189 0 2297.93746959 0 -27196.97925665 0 462
0.02150000 0.02154770 66830.05244953 0 -693.81342946 0 -7453.00106068 0 -6188.23676238 0 -15159.14157581 0 571
0.02250000 0.02255340 66591.63824752 0 2606.44836955 0 -5685.30756737 0 -3635.03535534 0 -24186.50817787 0 510
0.02350000 0.02348930 70239.56662925 0 772.84419662 0 3233.21581366 0 960.08870837 0 519.61594102 0 555
0.02450000 0.02439640 61409.13622800 0 3212.92643909 0 876.55268839 0 -5397.85040623 0 -22590.56058709 0 592
0.02550000 0.02547300 65470.15852409 0 2544.72595639 0 10449.75854556 0 -5447.14065968 0 -2835.20685258 0 837
0.02650000 0.02652900 61428.13292773 0 1879.50424613 0 13975.95067987 0 -5307.44185240 0 -17041.72576024 0 723
0.02750000 0.02749970 61842.91293971 0 5071.57927811 0 23665.84123601 0 -12445.64848935 0 -4239.11916627 0 826
0.02850000 0.02848090 57826.51602702 0 3660.16945037 0 25486.82665443 0 -6843.69034715 0 -14819.33670422 0 831
0.02950000 0.02946900 53247.74935826 0 4092.03525146 0 24895.56842598 0 -6838.24987220 0 -9354.48077898 0 996
0.03050000 0.03053250 52383.00609752 0 3484.28698839 0 32949.26986173 0 2330.67024452 0 -8626.69360675 0 1041
0.03150000 0.03150510 48502.17143265 0 2116.47964484 0 26183.97181277 0 2573.73807592 0 -15237.71372442 0 1036
0.03250000 0.03246190 48107.84940500 0 1151.64962999 0 35840.25282323 0 6484.61900020 0 1015.79175306 0 1059
0.03350000 0.03345080 44950.68783419 0 1974.04935942 0 23263.76315937 0 8022.32877955 0 -11105.26833359 0 1302
0.03450000 0.03451200 43883.27564077 0 1365.17703128 0 28142.65520265 0 7111.15039065 0 5937.36791936 0 1339
0.03550000 0.03553350 43554.82382642 0 -17.67232627 0 24632.76201189 0 6523.23063546 0 3623.79470461 0 1365
0.03650000 0.03647120 43517.72967900 0 -1180.11095764 0 22620.23590502 0 4382.75220131 0 8356.06369975 0 1308
0.03750000 0.03744890 46740.19943056 0 -3137.17569381 0 21579.57646034 0 6274.17153722 0 12301.65575349 0 1579
0.03850000 0.03847530 48275.78472692 0 -1518.26345358 0 24588.92347404 0 1163.04764983 0 10987.83725540 0 1662
0.03950000 0.03950240 51177.33390011 0 -446.68997127 0 21172.44009087 0 -1690.50394474 0 6200.41038712 0 1683
0.04050000 0.04050350 49348.81724570 0 2112.64658294 0 25179.95688948 0 -1184.44984883 0 5697.57111732 0 1822
0.04150000 0.04152450 48417.75414566 0 3708.24571355 0 22974.99084209 0 -4514.85232871 0 1520.69143414 0 1887
0.04250000 0.04250150 44875.26306778 0 3039.52816091 0 22187.58325838 0 4241.77195985 0 -2468.77287940 0 1920
0.04350000 0.04349210 43081.59243064 0 3138.44588735 0 22020.99681455 0 3059.90746069 0 -1316.40384776 0 2005
0.04450000 0.04448520 40118.21967843 0 2092.61574333 0 16811.96685930 0 4155.87090696 0 -4505.33149754 0 2151
0.04550000 0.04548030 37667.42059955 0 913.91773549 0 14641.84682917 0 6378.14755648 0 -6974.65516882 0 2274
0.04650000 0.04648670 37221.61639156 0 -16.74744552 0 9782.60344337 0 4662.81301428 0 -6122.51267755 0 2311
0.04750000 0.04749250 36389.69583096 0 194.62512302 0 9020.67841487 0 2148.38061161 0 -9888.60277977 0 2568
0.04850000 0.04851840 37609.86846781 0 -187.14671809 0 7604.32270082 0 520.28588380 0 -6012.62407601 0 2493
0.04950000 0.04949480 36716.57395422 0 967.62331655 0 11880.69338361 0 -2296.36377848 0 -5114.91198668 0 2644
0.05050000 0.05050630 37372.12870485 0 1100.98914121 0 9000.61385332 0 -955.88245686 0 -4148.64316854 0 2829
0.05150000 0.05149060 34412.91499341 0 2103.00210461 0 13665.59631319 0 1133.04635303 0 -3913.54495850 0 2784
0.05250000 0.05249300 34697.64067642 0 2150.76362957 0 13107.83522392 0 2261.79877749 0 1433.29537471 0 3055
0.05350000 0.05348950 31181.67753428 0 791.00346787 0 14441.20121363 0 3081.97285807 0 937.45116186 0 3009
0.05450000 0.05448610 33081.01028829 0 289.01623940 0 16035.12548728 0 3126.28350326 0 7694.69753269 0 3336
0.05550000 0.05550870 32127.46588678 0 -1033.70373000 0 17061.50930553 0 821.29027720 0 6076.27988110 0 3349
0.05650000 0.05647670 33934.06327227 0 -162.18910127 0 17778.32560264 0 258.31914632 0 12910.22458407 0 3324
0.05750000 0.05747970 33845.48694451 0 -49.60116985 0 18908.01100111 0 -373.78198656 0 8916.82604277 0 3639
0.05850000 0.05849280 34672.34921228 0 329.91759521 0 20847.81009775 0 -784.46815354 0 12545.24065483 0 3846
0.05950000 0.05951020 34885.80916966 0 127.86015393 0 21124.77973177 0 163.99997010 0 9500.55303523 0 3787
0.06050000 0.06049470 34065.69129233 0 354.91680244 0 20956.28237731 0 -309.87101870 0 7823.23437380 0 3930
0.06150000 0.06148310 33533.78369974 0 875.16109583 0 17908.15511859 0 -615.36830020 0 4719.75815088 0 4083
0.06250000 0.06249100 32830.00655747 0 168.11854453 0 17526.42261976 0 1361.89476127 0 430.23815486 0 4303
0.06350000 0.06350600 33086.74302017 0 340.87048529 0 15064.15807714 0 1590.73192885 0 1133.36109125 0 4470
0.06450000 0.06451750 32286.18387510 0 148.21697241 0 14033.61521812 0 3066.85418284 0 -1808.48581481 0 4479
0.06550000 0.06550280 31992.46567150 0 802.44420219 0 11916.32624643 0 2983.34738856 0 867.97832002 0 4636
0.06650000 0.06648880 30758.57944076 0 342.34188647 0 9522.39361960 0 4176.50874170 0 -498.85333505 0 4653
0.06750000 0.06749660 30859.63289083 0 121.01572170 0 8845.56031714 0 2937.66538399 0 -492.39558121 0 5220
0.06850000 0.06852730 30640.10298206 0 19.45408181 0 7477.24714430 0 1816.95002481 0 712.15367519 0 5029
0.06950000 0.06949320 30934.94525073 0 67.91848466 0 6580.31065987 0 -462.27850570 0 -1317.12324940 0 5040
0.07050000 0.07048030 30554.11200397 0 362.07372476 0 7506.39415165 0 -828.23699936 0 1730.49818004 0 5475
0.07150000 0.07148790 29990.95540234 0 468.74974833 0 7322.69943740 0 -376.43590420 0 -695.85135944 0 5509
0.07250000 0.07249820 30072.11290062 0 894.07798695 0 6490.11567841 0 959.95831682 0 896.56441889 0 5916
0.07350000 0.07351270 29213.32718477 0 688.12116393 0 7900.98595491 0 679.31636221 0 19.63966496 0 5721
0.07450000 0.07449140 28623.64264743 0 586.25164261 0 6283.09661390 0 1034.54677881 0 -381.03333035 0 6028
0.07550000 0.07549160 27740.23990648 0 658.99551382 0 7688.29036178 0 1990.05604607 0 485.29598620 0 6183
0.07650000 0.07648840 26868.41503578 0 934.85681967 0 6022.86430882 0 -384.66068834 0 -689.13956689 0 6330
0.07750000 0.07749960 26553.00237627 0 866.93518763 0 7578.59285129 0 -965.12676802 0 525.13622459 0 6583
0.07850000 0.07848650 25827.98040412 0 979.12475038 0 6759.81261140 0 -1047.21049592 0 -432.42333736 0 6549
0.07950000 0.07947320 24839.14035931 0 520.46798234 0 7721.41655948 0 -1210.61808373 0 658.38627055 0 6828
0.08050000 0.08048110 24767.42500765 0 660.57370118 0 8494.68340457 0 -451.50996230 0 -1132.29322943 0 7147
0.08150000 0.08149960 24254.85133432 0 768.25239080 0 8604.98791019 0 -280.71839103 0 1012.40494500 0 7386
0.08250000 0.08250610 23470.02910028 0 814.30870904 0 9880.49827059 0 1299.14944889 0 1249.26344094 0 7227
0.08350000 0.08350160 23379.20464237 0 218.33053134 0 9789.75249724 0 1996.40701373 0 2740.35824171 0 7798
0.08450000 0.08449610 22855.83994434 0 -170.51617533 0 9060.63892822 0 2620.02707563 0 5631.54353493 0 7371
0.08550000 0.08548940 23200.59070226 0 115.46621244 0 9492.59465451 0 1786.27428896 0 3849.85543146 0 8256
0.08650000 0.08650700 23127.63887901 0 102.74089656 0 7350.50880731 0 878.28824487 0 5859.86363257 0 8037
0.08750000 0.08749060 22826.27703292 0 576.93876348 0 9186.21947819 0 -838.30300209 0 5369.68133550 0 8155
0.08850000 0.08849210 22536.60546358 0 654.25533141 0 8368.12491799 0 -1262.42624295 0 6527.26602907 0 8718
0.08950000 0.08949900 21969.51463420 0 679.81207491 0 9502.64379627 0 -211.34109472 0 4863.40242657 0 8571
0.09050000 0.09049190 21595.08855835 0 520.29487632 0 8678.43432207 0 619.61951431 0 5257.84810137 0 8932
0.09150000 0.09150830 20935.93679949 0 285.57660028 0 8145.81856848 0 1341.20072327 0 3176.84395024 0 9285
0.09250000 0.09250820 20803.07230785 0 257.46485686 0 8071.57407040 0 1194.95985726 0 1643.67539379 0 9204
0.09350000 0.09350330 20110.87303583 0 649.46344200 0 6983.77133656 0 555.18473212 0 1794.27763228 0 9349
0.09450000 0.09448040 19505.33918095 0 571.01943681 0 6825.61538078 0 2.12515743 0 475.40196543 0 9564
0.09550000 0.09549270 18956.68301877 0 513.98999533 0 6453.22386271 0 -211.73002123 0 1388.84984172 0 10155
0.09650000 0.09649430 18733.89332128 0 331.08662289 0 6357.35235263 0 342.80500128 0 570.07859434 0 9913
0.09750000 0.09749140 18397.23583189 0 228.12226220 0 6336.21992925 0 119.67133988 0 841.45038429 0 10476
0.09850000 0.09850240 18390.37903495 0 209.96523907 0 6368.63796596 0 421.90658454 0 399.56017088 0 10575
0.09950000 0.09950330 18100.03302656 0 214.34684472 0 5907.33290061 0 305.40735630 0 214.85267401 0 10882
0.10050000 0.10051200 18094.07548168 0 297.60297249 0 7046.67401805 0 -213.74771804 0 753.08875296 0 10875
0.10150000 0.10150300 17759.66612243 0 236.10649641 0 5759.21484593 0 10.08848403 0 -120.02991664 0 11118
0.10250000 0.10250800 17537.88808351 0 52.94548826 0 6627.22913603 0 349.77645286 0 632.56199956 0 11575
0.10350000 0.10349800 17515.74400157 0 250.25622755 0 6484.93373842 0 -133.63335215 0 803.55590255 0 11364
0.10450000 0.10450100 17389.96111989 0 213.13735071 0 6784.15986088 0 309.19095933 0 165.60850722 0 12093
0.10550000 0.10551000 17105.90987591 0 366.58572196 0 6922.89197220 0 -369.09575927 0 717.27266753 0 12067
0.10650000 0.10649700 16985.29769357 0 477.83893851 0 6920.85741442 0 -48.36705881 0 851.14094929 0 12054
0.10750000 0.10749900 16586.59181214 0 131.54259111 0 7171.37779726 0 429.90992786 0 1197.61265083 0 12807
0.10850000 0.10850100 16551.40857536 0 53.20694580 0 6833.64120540 0 946.96749677 0 848.77816450 0 12736
0.10950000 0.10950300 16707.99084004 0 -99.93972640 0 6339.52468057 0 434.53545563 0 444.32381429 0 12933
0.11050000 0.11050200 16374.93035888 0 71.43804481 0 5954.53239303 0 378.42549938 0 -172.97225751 0 13428
0.11150000 0.11150900 16391.79133498 0 204.51127533 0 5516.46175274 0 150.63258825 0 207.35628403 0 13453
0.11250000 0.11250000 16323.22336552 0 24.00047541 0 5240.86347812 0 266.76986754 0 -187.96503746 0 13668
0.11350000 0.11349100 16231.49965555 0 283.14974378 0 5118.10433149 0 385.70044853 0 352.36967098 0 13791
0.11450000 0.11448600 15863.70556363 0 302.99848484 0 4968.86221173 0 298.41567154 0 -112.42336829 0 14205
0.11550000 0.11549300 15754.44643853 0 474.14526068 0 5442.37462377 0 -9.47054050 0 -192.97949175 0 14776
0.11650000 0.11649800 15295.37826267 0 492.08196705 0 4655.46162870 0 -62.54601564 0 -52.17123224 0 14553
0.11750000 0.11747300 14894.64906411 0 291.38239638 0 5096.23002516 0 95.70571049 0 94.76374396 0 14568
0.11850000 0.11849100 14692.31735096 0 119.31613531 0 4916.01991264 0 241.28843640 0 -549.07881065 0 16015
0.11950000 0.11950300 14712.66292878 0 -103.69904963 0 4483.91805789 0 732.82410782 0 -743.11941983 0 15270
0.12050000 0.12050700 14737.27995388 0 -176.57263794 0 4329.71881117 0 788.84189074 0 -811.19055252 0 15999
0.12150000 0.12150000 14751.66798682 0 -2.61020275 0 3437.69449111 0 168.93573984 0 -1330.56706768 0 15670
0.12250000 0.12250700 14704.45725375 0 86.70262369 0 3907.11530628 0 275.51959007 0 -1144.39941027 0 16887
0.12350000 0.12352200 14608.34969000 0 411.97322149 0 3346.60025758 0 -178.13508839 0 -1043.50332931 0 16407
0.12450000 0.12449800 14080.26391865 0 407.34319745 0 3818.11183380 0 230.69075089 0 -315.57452488 0 16306
0.12550000 0.12549900 13615.91263696 0 540.43475024 0 3492.04303739 0 -177.78887635 0 -458.66913275 0 17523
0.12650000 0.12650100 13289.14692021 0 345.78939405 0 3687.72028532 0 590.71530502 0 -114.97724413 0 17154
0.12750000 0.12750600 12994.19224503 0 290.79900661 0 3482.10630214 0 123.75731642 0 -171.06921534 0 18007
0.12850000 0.12850300 12875.49097331 0 21.96018489 0 3295.15179919 0 288.88922005 0 -86.33719013 0 17496
0.12950000 0.12949900 12918.87988513 0 24.93772087 0 3497.92189772 0 43.25582252 0 -104.96890594 0 18405
0.13050000 0.13049000 12916.85656800 0 19.62269157 0 3161.96132868 0 -117.55922160 0 -172.73058352 0 18100
0.13150000 0.13148800 13074.00086522 0 8.58033716 0 3041.45031219 0 240.68481345 0 680.38759623 0 19059
0.13250000 0.13249300 12996.55278168 0 95.91546103 0 3630.25807878 0 179.59524892 0 425.42378415 0 18957
0.13350000 0.13349100 12992.84336694 0 101.34570699 0 3533.32994753 0 314.10199964 0 398.17644678 0 19468
0.13450000 0.13450700 12777.80971845 0 182.93035000 0 4139.53824145 0 309.09653787 0 613.24606535 0 19953
0.13550000 0.13551000 12786.80223904 0 305.07912929 0 3661.32723740 0 -471.50033556 0 1118.13450577 0 19956
0.13650000 0.13649900 12529.61615031 0 235.32414712 0 4495.96803548 0 -230.20290665 0 1029.08157442 0 19723
0.13750000 0.13749600 12336.72658377 0 277.72275761 0 4460.14408160 0 -685.64597264 0 661.66516837 0 20946
0.13850000 0.13851100 12266.36011019 0 277.88125079 0 4821.20502373 0 -293.65075970 0 547.31065629 0 20955
0.13950000 0.13949800 12123.04181337 0 332.33545919 0 4717.21776382 0 -242.15958683 0 252.02887817 0 20506
0.14050000 0.14048300 11711.85880963 0 333.07284588 0 4786.42645037 0 -319.18727003 0 -259.22739090 0 21447
0.14150000 0.14148400 11430.28050882 0 367.01848702 0 4686.38465886 0 48.64459048 0 -328.14944085 0 21771
0.14250000 0.14249400 11238.75106102 0 268.93369280 0 4809.76204128 0 485.54103239 0 -519.55411744 0 22470
0.14350000 0.14350900 11051.36941333 0 209.91578021 0 4364.78964145 0 260.92135696 0 -297.93569576 0 22519
0.14450000 0.14449900 10972.21275088 0 126.24262429 0 4534.64711464 0 601.61986029 0 -158.76295092 0 22218
0.14550000 0.14550500 10878.80294331 0 23.68360146 0 4157.19730375 0 610.14701794 0 443.63925866 0 23559
0.14650000 0.14650700 10848.00356031 0 -20.82701489 0 4022.75912100 0 627.21369794 0 363.88346953 0 23044
0.14750000 0.14750500 10887.05358095 0 -70.54576196 0 3868.04280434 0 527.32253116 0 678.68463764 0 23649
0.14850000 0.14849900 10828.04016461 0 107.38171162 0 3396.77852245 0 221.91517486 0 152.25349009 0 23640
0.14950000 0.14949500 10731.60662199 0 206.16477506 0 3164.20945882 0 90.98890863 0 244.99897520 0 24457
0.15050000 0.15050000 10306.28287963 0 266.95646234 0 2880.78769129 0 144.58624222 0 50.22806095 0 24591
0.15150000 0.15149900 10243.52632660 0 165.74901535 0 2738.58221889 0 434.01613757 0 170.28911418 0 25020
0.15250000 0.15250500 9977.46012379 0 59.34793810 0 2389.09914702 0 637.31454669 0 58.03536732 0 25297
0.15350000 0.15350100 9935.97088195 0 140.59918341 0 2148.33564901 0 529.33910390 0 309.48658845 0 25452
0.15450000 0.15450400 9794.97939983 0 84.08310244 0 2034.43413515 0 630.48135511 0 639.10181016 0 26061
0.15550000 0.15549900 9615.97203694 0 124.22942375 0 2313.13482938 0 341.56290937 0 1356.43180501 0 26128
0.15650000 0.15649500 9729.06422394 0 47.46848119 0 2200.88569118 0 142.83607290 0 1777.09067732 0 26331
0.15750000 0.15749700 9658.74271297 0 -56.31936958 0 2801.06899631 0 -89.71725381 0 1933.56053549 0 27345
0.15850000 0.15849900 9760.99891267 0 -41.36166046 0 2453.31698464 0 21.45604171 0 2007.59146121 0 26980
0.15950000 0.15949700 9946.06498630 0 -44.17519534 0 2710.59299857 0 -55.62615865 0 1913.45101133 0 27777
0.16050000 0.16050000 9854.79090237 0 -10.69257908 0 2308.91958535 0 -101.83321401 0 1585.92093033 0 28224
0.16150000 0.16150500 9898.32594265 0 53.68905731 0 2038.51449137 0 113.62049759 0 969.10146212 0 28075
0.16250000 0.16249700 9813.72880525 0 161.60908369 0 1992.75380224 0 -66.73675505 0 416.17834892 0 28590
0.16350000 0.16349900 9627.61735109 0 192.65576101 0 1472.15430429 0 -135.96803531 0 262.17244139 0 29163
0.16450000 0.16449100 9452.10583058 0 254.14886490 0 1867.67908156 0 -231.14712131 0 37.41675409 0 28996
0.16550000 0.16550500 9203.47387706 0 380.33078968 0 1465.56728296 0 -302.79615313 0 -3.27360347 0 30777
0.16650000 0.16650700 8895.15406816 0 325.36737980 0 2329.59114205 0 -52.77991347 0 180.09096162 0 29211
0.16750000 0.16749900 8753.83660717 0 210.40699664 0 2072.21396226 0 -115.01433828 0 445.70079400 0 30922
0.16850000 0.16850800 8576.88628336 0 141.30509627 0 2553.26885094 0 73.59029221 0 377.53523984 0 30867
0.16950000 0.16949900 8646.33102358 0 36.63833903 0 2502.78708851 0 144.07029635 0 875.68153796 0 30852
0.17050000 0.17049200 8593.02785781 0 -21.18435518 0 2488.09555800 0 230.54911869 0 614.19814846 0 31257
0.17150000 0.17149500 8631.95423129 0 -0.02689854 0 2498.05477455 0 240.02161506 0 695.08249893 0 32608
0.17250000 0.17250900 8600.77266617 0 19.38866123 0 2426.53051395 0 287.78089188 0 866.58785152 0 32361
0.17350000 0.17350400 8665.20407616 0 88.75842630 0 2108.61118933 0 234.11690123 0 659.03148390 0 32508
0.17450000 0.17449800 8493.73918991 0 143.11596511 0 2034.70391077 0 239.41237179 0 942.91973844 0 32791
0.17550000 0.17549800 8317.02491976 0 144.54015555 0 1991.60725587 0 163.92128554 0 688.42466150 0 33633
0.17650000 0.17650100 8251.66053576 0 163.34913642 0 1878.67243797 0 25.31068566 0 973.48306778 0 33984
0.17750000 0.17750300 8125.48423131 0 123.40885625 0 1944.35156019 0 38.90288052 0 1110.63137141 0 34069
0.17850000 0.17849800 8127.28273543 0 116.87916224 0 1989.40408832 0 -247.23923689 0 1100.75533568 0 34536
