### header ###
fiducial parameters:
Omega_m = 0.31
Omega_nu = 0
Omega_de = 0.69
Omega_k = 0
H_0 = 100
w_de = -1
zeff = 0
beta = 0
fgrowth = 0
b_1 = 2
gamma = 0.55
Lx = 3500 Ly = 3500 Lz = 3500
nx = 700 ny = 700 nz = 700
xoffset = 857.220397 yoffset = 15.9954215 zoffset = 262.898189
bins = 400 dk = 0.001
kx_ny = 0.628318531 ky_ny = 0.628318531 kz_ny = 0.628318531
############################
A(data) = 3.09554887 (not used)
A(ran) = 3.09247459 (used)
Ngal = 189287
weighted Ngal = 0
Nran = 9360983
weighted Nran = 0
SN(data) = 3448.93365
SN(ran) = 69.4453573
SN(data+ran) = 3518.379
############################
13 columns: k_central k_mean P_0(k) sigma^{lin}_{P_0(k)} P^img_1(k) sigma^{lin}_{P_1(k)} P_2(k) sigma^{lin}_{P_2(k)} P^img_3(k) sigma^{lin}_{P_3(k)} P_4(k) sigma^{lin}_{P_4(k)} N_modes
### header ###
0.00050000 0 0 0 0 0 0 0 0 0 0 0 0
0.00150000 0.00179520 8024.28465278 0 -11021.43556044 0 -13337.70653136 0 24227.42414653 0 -10135.81841129 0 3
0.00250000 0.00253879 18343.05589537 0 -14526.51775267 0 -4797.81322956 0 -3467.30236513 0 -2019.94493636 0 6
0.00350000 0.00331552 25297.75890914 0 -10048.65840552 0 -5844.36277521 0 -9359.65147832 0 16762.17077656 0 7
0.00450000 0.00420575 40790.86021817 0 -13271.49909856 0 -7853.76398119 0 -4253.22618294 0 2684.18871001 0 24
0.00550000 0.00557378 57989.50546262 0 -16793.98181813 0 -10194.95547479 0 13446.51603044 0 2264.27172065 0 45
0.00650000 0.00659388 89884.06506625 0 -17933.67139575 0 -9957.94635413 0 13426.95729817 0 -20333.10070078 0 40
0.00750000 0.00754703 91404.02585810 0 -11011.71239755 0 625.57593513 0 -2832.31800534 0 -26331.33674385 0 57
0.00850000 0.00846663 106501.34385489 0 1915.19331220 0 16993.50336861 0 -14974.79490383 0 -20838.14313813 0 75
0.00950000 0.00948925 99380.16680379 0 10294.28910530 0 32717.15042413 0 -23173.83795352 0 -9075.54403109 0 112
0.01050000 0.01054430 92799.21542683 0 15954.97964757 0 45180.10951561 0 -17660.97320901 0 -19221.40034349 0 105
0.01150000 0.01145670 84465.73419439 0 11457.03325756 0 47801.09204655 0 -1762.84877284 0 -13471.24546205 0 144
0.01250000 0.01249090 73270.72050537 0 7082.89139471 0 50834.94367885 0 16033.88901570 0 -25237.84624074 0 169
0.01350000 0.01339930 70857.46519993 0 1254.86128500 0 37819.39419743 0 19396.41727537 0 -19220.05146540 0 180
0.01450000 0.01448870 72239.95283334 0 -5736.13778998 0 18069.79567610 0 22675.31509360 0 -30455.19427753 0 267
0.01550000 0.01550050 74531.92151739 0 -6013.92799149 0 9324.28839112 0 15138.45877847 0 -36555.49542924 0 238
0.01650000 0.01653350 73549.26383048 0 -802.62180447 0 -757.96719538 0 4333.96777714 0 -22474.78188456 0 315
0.01750000 0.01747870 80719.67493178 0 1022.12923195 0 -4719.92676064 0 264.93089708 0 -21453.45635914 0 297
0.01850000 0.01844180 69560.96854462 0 5272.67451969 0 -1896.27529702 0 571.61631536 0 -4903.12688626 0 388
0.01950000 0.01947590 67985.92856420 0 5057.06759802 0 318.79272319 0 3911.54412267 0 -6882.93145885 0 399
0.02050000 0.02045430 63722.12492892 0 3249.79577349 0 -3764.96603714 0 9932.53124282 0 6911.29162065 0 462
0.02150000 0.02154770 60761.33752637 0 536.00143759 0 -7897.56879709 0 8313.61900259 0 14817.42579359 0 571
0.02250000 0.02255340 65352.01928491 0 -2438.67041674 0 -5119.00358354 0 7976.17466765 0 14697.03842426 0 510
0.02350000 0.02348930 64017.64163663 0 -3462.39020076 0 -8293.73429145 0 4287.69001808 0 12285.01959041 0 555
0.02450000 0.02439640 68318.42701282 0 -3487.08591042 0 -5538.17868995 0 -4816.51767237 0 5382.59684319 0 592
0.02550000 0.02547300 69461.93841168 0 -434.11730343 0 -5298.04466839 0 -10661.49868338 0 9798.85742433 0 837
0.02650000 0.02652900 69751.38516800 0 3966.61207060 0 2064.99746449 0 -11959.26553222 0 851.32866815 0 723
0.02750000 0.02749970 65479.82548372 0 5352.58430573 0 13143.91771276 0 -7234.88747389 0 3650.32264033 0 826
0.02850000 0.02848090 61314.93957487 0 4630.50738408 0 10915.86336877 0 1214.14764806 0 -2116.64825460 0 831
0.02950000 0.02946900 58955.07736041 0 3131.28559283 0 16469.12701200 0 2193.83780317 0 -315.79146944 0 996
0.03050000 0.03053250 54884.61291770 0 1651.37523954 0 13810.15108159 0 5418.36459381 0 -3049.11643599 0 1041
0.03150000 0.03150510 54213.77088208 0 2275.63601854 0 15075.73594739 0 -100.73151783 0 -7245.02654085 0 1036
0.03250000 0.03246190 54012.90045351 0 2568.69102374 0 19017.15771971 0 -5426.05319891 0 3818.35912811 0 1059
0.03350000 0.03345080 51650.90251541 0 1570.36386972 0 16686.07157111 0 -4946.83053630 0 -5406.37081948 0 1302
0.03450000 0.03451200 52598.26455902 0 972.60742108 0 24111.42063099 0 -2987.61883584 0 -1631.85022922 0 1339
0.03550000 0.03553350 51131.24723212 0 1002.13773462 0 21410.29226033 0 -1140.04927844 0 -6580.04088426 0 1365
0.03650000 0.03647120 51285.01933412 0 3150.60827144 0 28571.59843454 0 -14.59002743 0 -3502.33947346 0 1308
0.03750000 0.03744890 48419.21543025 0 1337.79480610 0 26340.77889047 0 3009.58306737 0 -2415.21117866 0 1579
0.03850000 0.03847530 48528.58696186 0 648.49899417 0 26673.50215211 0 6830.03295651 0 1299.29557734 0 1662
0.03950000 0.03950240 48640.31903013 0 -291.55999866 0 24450.43865704 0 4268.31113622 0 711.15662947 0 1683
0.04050000 0.04050350 47135.30830376 0 -1099.59192833 0 18245.48704702 0 6163.58601532 0 -6178.91826292 0 1822
0.04150000 0.04152450 50028.76420842 0 -1597.21778432 0 18305.62452843 0 1339.32353460 0 912.80715920 0 1887
0.04250000 0.04250150 49941.42435224 0 -74.55507726 0 9590.98407036 0 -174.22109381 0 -10022.49017062 0 1920
0.04350000 0.04349210 50061.58690856 0 1290.78640474 0 13762.82794201 0 -15.02234286 0 -5556.15249047 0 2005
0.04450000 0.04448520 47388.44775822 0 2900.02044469 0 11310.67998505 0 -2331.16483315 0 -14996.93898577 0 2151
0.04550000 0.04548030 43371.48881299 0 3534.47649390 0 8759.65926425 0 28.38399197 0 -10102.16390300 0 2274
0.04650000 0.04648670 41443.04277358 0 2725.93648682 0 10860.19966635 0 2591.17232521 0 -10710.42923601 0 2311
0.04750000 0.04749250 38400.08621420 0 776.43670859 0 4490.34771011 0 3459.25405921 0 -14125.45133459 0 2568
0.04850000 0.04851840 38580.38625192 0 -500.97332178 0 6118.94939127 0 4931.70062041 0 -14946.24365097 0 2493
0.04950000 0.04949480 38012.62098350 0 -80.91436300 0 2409.38852159 0 -2227.77332772 0 -12967.55190279 0 2644
0.05050000 0.05050630 37520.39288799 0 1166.84698978 0 4330.38200956 0 -1666.14545460 0 -10704.97752041 0 2829
0.05150000 0.05149060 37197.89861852 0 412.21826767 0 5030.38229318 0 -4128.45495983 0 -9643.35426212 0 2784
0.05250000 0.05249300 37456.32117882 0 55.24139117 0 8580.42708834 0 -2513.26337499 0 -6940.80956947 0 3055
0.05350000 0.05348950 38118.50791339 0 -444.25075006 0 7389.58130925 0 247.00880355 0 -8581.66355992 0 3009
0.05450000 0.05448610 38204.38648497 0 215.50463175 0 11937.45866981 0 -11.04335483 0 -5556.79320756 0 3336
0.05550000 0.05550870 38861.17770718 0 593.81772462 0 11485.13488439 0 -91.19337606 0 -4168.96626506 0 3349
0.05650000 0.05647670 38489.56179402 0 652.66702746 0 12367.75077979 0 -521.16153049 0 -4874.93533422 0 3324
0.05750000 0.05747970 37948.43686783 0 331.17542403 0 12280.41092361 0 297.92108291 0 -4075.89367701 0 3639
0.05850000 0.05849280 37585.13903620 0 41.30534480 0 11603.27412357 0 -827.94249431 0 -3696.99382217 0 3846
0.05950000 0.05951020 36973.64763643 0 677.19749955 0 11948.24969451 0 1580.23316106 0 -4988.56707246 0 3787
0.06050000 0.06049470 36648.79283031 0 1055.02162411 0 11291.23365928 0 1360.69201164 0 -5809.78653357 0 3930
0.06150000 0.06148310 34556.79532276 0 1900.67039145 0 10031.86487333 0 1398.06717532 0 -5190.70769456 0 4083
0.06250000 0.06249100 32848.44122467 0 2288.30423191 0 10304.25956250 0 2114.66990007 0 -3823.60851200 0 4303
0.06350000 0.06350600 30292.99168748 0 2111.97214389 0 9552.41739770 0 391.96935945 0 -1744.32418044 0 4470
0.06450000 0.06451750 29476.13359886 0 1594.68863790 0 11681.05942663 0 626.94729452 0 92.99154296 0 4479
0.06550000 0.06550280 28238.76276640 0 878.44448991 0 12338.18786837 0 -962.48971136 0 -150.82367931 0 4636
0.06650000 0.06648880 28569.23789789 0 427.54377088 0 13791.71641439 0 -579.04413737 0 2367.78687323 0 4653
0.06750000 0.06749660 28546.75659643 0 -108.30625514 0 14535.51027326 0 -456.75147774 0 12.14777124 0 5220
0.06850000 0.06852730 28733.23899205 0 265.12311221 0 14786.17678456 0 249.71892444 0 2960.49514562 0 5029
0.06950000 0.06949320 29005.26273974 0 -482.96467524 0 13593.76855502 0 1962.01062249 0 -1584.86430917 0 5040
0.07050000 0.07048030 28844.97106032 0 -160.36811585 0 12383.71250383 0 965.07955729 0 1773.71848210 0 5475
0.07150000 0.07148790 28967.38174678 0 -108.00961437 0 10916.83006473 0 2408.11832805 0 -2689.89896058 0 5509
0.07250000 0.07249820 28624.42949298 0 -122.36010353 0 10193.38178369 0 870.85255441 0 -1891.53174241 0 5916
0.07350000 0.07351270 28280.69039362 0 760.15350194 0 9141.03206225 0 63.86027253 0 -3037.96571046 0 5721
0.07450000 0.07449140 28076.22295683 0 911.92476811 0 9583.41911242 0 84.75641742 0 -1969.86783735 0 6028
0.07550000 0.07549160 26525.46278198 0 1168.01601746 0 9373.62360718 0 -307.96235621 0 -1896.35398157 0 6183
0.07650000 0.07648840 25716.47314887 0 921.25001196 0 9356.45913351 0 -255.92488771 0 -1730.12723856 0 6330
0.07750000 0.07749960 25013.82007167 0 376.87653771 0 10239.33356387 0 353.92200485 0 -1624.07169892 0 6583
0.07850000 0.07848650 25183.55389771 0 -363.90033050 0 8792.29087332 0 644.30510738 0 -2600.06367993 0 6549
0.07950000 0.07947320 25357.33435801 0 -485.82092459 0 8551.19015579 0 2830.56446382 0 -1999.91409676 0 6828
0.08050000 0.08048110 25725.35326295 0 -276.49527855 0 6012.62407601 0 1386.98389370 0 -3786.88530607 0 7147
0.08150000 0.08149960 26020.64515765 0 70.85735279 0 5670.84084988 0 1407.29574957 0 -3121.46126409 0 7386
0.08250000 0.08250610 25573.82929109 0 1088.68400086 0 3850.11396643 0 339.44517077 0 -5414.44160671 0 7227
0.08350000 0.08350160 24423.34868878 0 1224.46656543 0 3626.18896321 0 83.24758487 0 -4080.19884624 0 7798
0.08450000 0.08449610 22728.70818457 0 1184.22503581 0 3581.09147248 0 -809.01998287 0 -4522.38356470 0 7371
0.08550000 0.08548940 22257.61251244 0 868.60217613 0 2719.34946549 0 1239.42787155 0 -4136.98661373 0 8256
0.08650000 0.08650700 21195.82064439 0 419.67531537 0 2633.26856219 0 1701.14884098 0 -3452.95929480 0 8037
0.08750000 0.08749060 20815.09980413 0 220.10205790 0 1240.84419354 0 907.27900717 0 -3289.70008358 0 8155
0.08850000 0.08849210 20705.16623998 0 215.53160931 0 2605.27934187 0 789.87378248 0 -827.57042877 0 8718
0.08950000 0.08949900 20385.70694620 0 615.25252150 0 2916.52171996 0 -154.04300168 0 -420.70271084 0 8571
0.09050000 0.09049190 19880.88932187 0 551.09088713 0 3111.16482802 0 -895.80342684 0 778.18013352 0 8932
0.09150000 0.09150830 19876.50546809 0 550.92115330 0 5668.64892299 0 -1406.37401621 0 756.81165648 0 9285
0.09250000 0.09250820 19693.39526768 0 245.08215602 0 6421.73880001 0 -1536.81052729 0 1508.87751022 0 9204
0.09350000 0.09350330 19732.40032572 0 82.63519422 0 7749.37205785 0 -295.00525811 0 1957.59304675 0 9349
0.09450000 0.09448040 19781.63437592 0 -53.91949065 0 6480.14522121 0 42.11534609 0 1053.77953221 0 9564
0.09550000 0.09549270 19767.35874949 0 -181.83663468 0 7547.33260161 0 1057.89136225 0 1178.96441127 0 10155
0.09650000 0.09649430 19953.50392560 0 -69.81905389 0 5604.30743820 0 650.09516657 0 -377.37899480 0 9913
0.09750000 0.09749140 19948.67044578 0 -20.02499446 0 5515.14659661 0 793.82262308 0 11.73512696 0 10476
0.09850000 0.09850240 19415.30156860 0 313.10045766 0 4437.01082239 0 -306.93158854 0 -687.38939757 0 10575
0.09950000 0.09950330 19412.15418639 0 399.29826372 0 4845.58599516 0 269.80034698 0 -461.97838033 0 10882
0.10050000 0.10051200 18780.42961531 0 556.64376859 0 4549.48477361 0 191.63735805 0 -801.79898884 0 10875
0.10150000 0.10150300 18138.02642603 0 618.49882143 0 3816.95404677 0 370.10067345 0 -680.95300096 0 11118
0.10250000 0.10250800 17458.30427633 0 732.00803658 0 4533.89399104 0 605.65300578 0 -130.41065759 0 11575
0.10350000 0.10349800 16863.56144615 0 493.02618171 0 3832.78088300 0 644.84016235 0 -820.04706123 0 11364
0.10450000 0.10450100 16693.71521361 0 321.69281108 0 4190.25605755 0 767.71283956 0 366.53064278 0 12093
0.10550000 0.10551000 16463.50668664 0 229.32051556 0 3529.95775231 0 372.08689643 0 459.65606189 0 12067
0.10650000 0.10649700 16106.84083894 0 205.90624009 0 3749.64503019 0 914.56182477 0 1426.49478102 0 12054
0.10750000 0.10749900 15908.44335354 0 148.05735517 0 3247.36779293 0 373.25704817 0 833.36610828 0 12807
0.10850000 0.10850100 15942.95215129 0 171.66721796 0 2935.92308313 0 544.46339946 0 1171.61302569 0 12736
0.10950000 0.10950300 15513.78410638 0 188.10891779 0 2602.04203446 0 483.85156259 0 1237.85418045 0 12933
0.11050000 0.11050200 15585.49945804 0 219.98290700 0 2612.23730468 0 74.47706714 0 1349.54128611 0 13428
0.11150000 0.11150900 15199.60791845 0 275.30264551 0 2506.48526260 0 49.49606977 0 1443.42320102 0 13453
0.11250000 0.11250000 14986.93480662 0 399.72990471 0 2507.57560572 0 -765.58048812 0 263.30100272 0 13668
0.11350000 0.11349100 14799.21593941 0 221.61167729 0 2898.51419749 0 -176.46697583 0 963.19674829 0 13791
0.11450000 0.11448600 14461.65919796 0 245.87237376 0 3335.32588490 0 -504.42644968 0 442.31173781 0 14205
0.11550000 0.11549300 14641.50960965 0 41.28421238 0 3465.38021386 0 131.16602931 0 883.62080957 0 14776
0.11650000 0.11649800 14654.66117101 0 -27.56904480 0 3435.30023250 0 79.99026911 0 1018.18488760 0 14553
0.11750000 0.11747300 14778.08351603 0 24.52687508 0 3948.30105056 0 605.22361292 0 1335.83893287 0 14568
0.11850000 0.11849100 14581.93416078 0 226.84532427 0 3948.13244080 0 174.17500714 0 1221.46531168 0 16015
0.11950000 0.11950300 14627.90842227 0 254.71202150 0 3828.19469750 0 232.77364347 0 1258.40208999 0 15270
0.12050000 0.12050700 14375.78062637 0 350.80834460 0 3979.40393113 0 -280.77796648 0 1524.59193995 0 15999
0.12150000 0.12150000 14107.91591945 0 187.93693583 0 3998.08589265 0 -70.79575403 0 1365.28943779 0 15670
0.12250000 0.12250700 13971.90404561 0 -8.06830304 0 3851.11438434 0 409.63966239 0 988.08804527 0 16887
0.12350000 0.12352200 14255.05603752 0 -154.90291146 0 3228.52846230 0 537.40876706 0 211.10279292 0 16407
0.12450000 0.12449800 14168.27821388 0 -82.21692961 0 2868.02955271 0 508.96654851 0 78.61306458 0 16306
0.12550000 0.12549900 14245.50148440 0 1.16303641 0 2693.73202248 0 438.67201510 0 137.01116769 0 17523
0.12650000 0.12650100 14109.37720405 0 226.47775499 0 2117.98589203 0 386.82900987 0 -31.63737351 0 17154
0.12750000 0.12750600 13777.32838145 0 446.25383402 0 2522.43574599 0 -150.42013995 0 263.45050338 0 18007
0.12850000 0.12850300 13391.88646789 0 558.73790182 0 2137.29732999 0 -372.41849563 0 464.20964950 0 17496
0.12950000 0.12949900 13029.82510784 0 490.71173173 0 2959.47224641 0 -350.78811143 0 789.55342393 0 18405
0.13050000 0.13049000 12605.60294926 0 486.67071779 0 2516.89410518 0 -509.12841388 0 1032.49086379 0 18100
0.13150000 0.13148800 12311.43511963 0 201.30094549 0 3299.24339605 0 -361.30823645 0 929.92554619 0 19059
0.13250000 0.13249300 12333.80401458 0 176.43775013 0 3458.93932099 0 -62.08177677 0 794.92982718 0 18957
0.13350000 0.13349100 12152.04269226 0 134.28643396 0 3382.00830739 0 -360.79566277 0 63.76034314 0 19468
0.13450000 0.13450700 12138.32909837 0 175.04278538 0 3973.63747731 0 -337.40162047 0 17.66018636 0 19953
0.13550000 0.13551000 12075.38145427 0 -0.44539168 0 3763.90941597 0 -205.70278431 0 -309.61023560 0 19956
0.13650000 0.13649900 12135.96856171 0 74.20751634 0 4113.08899028 0 -116.64198451 0 -250.84074139 0 19723
0.13750000 0.13749600 12199.47823834 0 102.32735302 0 3975.55962858 0 258.12468306 0 -827.87617447 0 20946
0.13850000 0.13851100 12060.09416928 0 82.60900351 0 3759.07593616 0 554.36753682 0 -554.87561423 0 20955
0.13950000 0.13949800 11726.02202956 0 175.16193628 0 3146.32558351 0 939.30474516 0 -731.97768682 0 20506
0.14050000 0.14048300 11666.10936116 0 87.12639622 0 2872.71690407 0 745.83740917 0 -403.61017734 0 21447
0.14150000 0.14148400 11267.96551227 0 173.13861914 0 2264.99112229 0 759.43185217 0 -819.21525308 0 21771
0.14250000 0.14249400 11216.87675470 0 273.63228481 0 2315.73141969 0 524.67535791 0 -12.55176023 0 22470
0.14350000 0.14350900 10833.58180542 0 194.58465667 0 1858.64159837 0 9.25331492 0 -283.02946882 0 22519
0.14450000 0.14449900 10666.23099734 0 259.22289464 0 2153.34897923 0 -11.14957898 0 162.98044308 0 22218
0.14550000 0.14550500 10560.36654875 0 226.94311793 0 2496.72837776 0 -456.59073643 0 357.00531535 0 23559
0.14650000 0.14650700 10331.19216165 0 291.46445313 0 2720.88943464 0 -576.95899666 0 -139.27615882 0 23044
0.14750000 0.14750500 10276.37150803 0 230.96389870 0 3221.33444584 0 -633.92998676 0 385.10806624 0 23649
0.14850000 0.14849900 10009.70955074 0 171.87179781 0 3117.38090788 0 -249.75714266 0 -447.24413535 0 23640
0.14950000 0.14949500 10091.37287830 0 42.02789383 0 3584.48614900 0 -52.98381888 0 -345.49938526 0 24457
0.15050000 0.15050000 9882.01575844 0 67.85216482 0 3355.42416841 0 85.48200143 0 -812.65633338 0 24591
0.15150000 0.15149900 9922.40341651 0 112.05939602 0 3083.55778983 0 97.34313608 0 -770.88495120 0 25020
0.15250000 0.15250500 9824.18261043 0 109.30611103 0 2923.99675270 0 321.04197740 0 -811.15458244 0 25297
0.15350000 0.15350100 9760.11090126 0 98.39998206 0 2638.43926153 0 436.86676659 0 -835.28825956 0 25452
0.15450000 0.15450400 9658.59658451 0 116.09119262 0 2517.63598812 0 578.10329490 0 -468.09666652 0 26061
0.15550000 0.15549900 9469.30402620 0 100.90248813 0 2263.90077917 0 383.32642310 0 -341.01773781 0 26128
0.15650000 0.15649500 9559.72382068 0 49.25248487 0 2189.48767133 0 373.45375956 0 105.70584300 0 26331
0.15750000 0.15749700 9355.78469447 0 14.34925269 0 1755.32877750 0 311.30644980 0 -72.79063231 0 27345
0.15850000 0.15849900 9432.70446742 0 50.70275363 0 2089.42339853 0 145.96884226 0 657.48477036 0 26980
0.15950000 0.15949700 9349.45620810 0 79.31065936 0 1810.37424413 0 53.17918139 0 602.16615592 0 27777
0.16050000 0.16050000 9278.02187271 0 88.88971710 0 2074.95668104 0 36.66509177 0 967.52664695 0 28224
0.16150000 0.16150500 9294.37701952 0 101.97597028 0 2209.12508816 0 178.65328239 0 1174.23209731 0 28075
0.16250000 0.16249700 9129.76893022 0 159.11815549 0 2025.99240645 0 231.24491497 0 1122.08896670 0 28590
0.16350000 0.16349900 9080.16393854 0 254.53554328 0 2408.97261751 0 53.03901047 0 1491.61187070 0 29163
0.16450000 0.16449100 8741.96648000 0 218.56208875 0 2021.56359006 0 162.96470617 0 1038.74178966 0 28996
0.16550000 0.16550500 8728.33157066 0 139.33910646 0 1941.60884141 0 350.15189060 0 1688.49186825 0 30777
0.16650000 0.16650700 8540.61270345 0 50.27055061 0 1488.27339743 0 235.44779428 0 1146.92855669 0 29211
0.16750000 0.16749900 8558.73263243 0 -71.34845682 0 1685.59178037 0 493.28696481 0 1611.27983838 0 30922
0.16850000 0.16850800 8571.35588320 0 -74.94332933 0 1441.25375543 0 175.80152930 0 1076.22261546 0 30867
0.16950000 0.16949900 8690.82151917 0 63.25170370 0 1282.98539313 0 -40.51951091 0 1345.71946486 0 30852
0.17050000 0.17049200 8600.13194908 0 91.80082083 0 1517.94871536 0 -29.55897719 0 1323.40677316 0 31257
0.17150000 0.17149500 8546.48032314 0 165.04535062 0 1519.79218208 0 4.58177916 0 1455.73171357 0 32608
0.17250000 0.17250900 8394.60789111 0 107.07574111 0 1693.20170091 0 53.75616399 0 1460.85745030 0 32361
0.17350000 0.17350400 8404.21864749 0 92.95591010 0 1679.18460945 0 -6.93109765 0 1230.54775747 0 32508
0.17450000 0.17449800 8238.29540204 0 69.15787881 0 1526.71642293 0 4.93447706 0 1055.95684625 0 32791
0.17550000 0.17549800 8272.36581441 0 118.09090438 0 1698.14758723 0 -234.59238076 0 706.22198380 0 33633
0.17650000 0.17650100 8077.04826731 0 138.24201895 0 1445.07557667 0 -358.77459377 0 535.63386831 0 33984
0.17750000 0.17750300 7960.61760704 0 178.47118385 0 1441.10762697 0 -230.28721153 0 55.07345585 0 34069
