### header ###
fiducial parameters:
Omega_m = 0.31
Omega_nu = 0
Omega_de = 0.69
Omega_k = 0
H_0 = 100
w_de = -1
zeff = 0
beta = 0
fgrowth = 0
b_1 = 2
gamma = 0.55
Lx = 3500 Ly = 3500 Lz = 3500
nx = 700 ny = 700 nz = 700
xoffset = 857.220397 yoffset = 15.9954215 zoffset = 262.898189
bins = 400 dk = 0.001
kx_ny = 0.628318531 ky_ny = 0.628318531 kz_ny = 0.628318531
############################
A(data) = 3.05049198 (not used)
A(ran) = 3.04248236 (used)
Ngal = 185569
weighted Ngal = 0
Nran = 9360983
weighted Nran = 0
SN(data) = 3472.89648
SN(ran) = 68.3227196
SN(data+ran) = 3541.2192
############################
13 columns: k_central k_mean P_0(k) sigma^{lin}_{P_0(k)} P^img_1(k) sigma^{lin}_{P_1(k)} P_2(k) sigma^{lin}_{P_2(k)} P^img_3(k) sigma^{lin}_{P_3(k)} P_4(k) sigma^{lin}_{P_4(k)} N_modes
### header ###
0.00050000 0 0 0 0 0 0 0 0 0 0 0 0
0.00150000 0.00179520 18192.20636256 0 -13095.47050811 0 20204.17043690 0 -10331.21464295 0 132591.34382755 0 3
0.00250000 0.00253879 29718.14480910 0 -15460.27860890 0 -1790.47829234 0 6771.93003289 0 -60558.55618719 0 6
0.00350000 0.00331552 43621.48088525 0 -14733.45813263 0 27592.76256889 0 -12681.36493518 0 45176.40010087 0 7
0.00450000 0.00420575 57902.50282596 0 -8068.86507358 0 26064.37128899 0 9686.79937719 0 6403.80996210 0 24
0.00550000 0.00557378 76952.70805881 0 2552.92039077 0 70504.62117349 0 23710.01699339 0 58571.99598350 0 45
0.00650000 0.00659388 76475.76724830 0 12998.46369230 0 49479.43360720 0 43490.97693026 0 -55898.06998761 0 40
0.00750000 0.00754703 86500.06716369 0 9362.51784425 0 110639.47701500 0 58103.26084802 0 77304.42802019 0 57
0.00850000 0.00846663 84831.84218870 0 9510.15255096 0 86441.84059290 0 70334.77494094 0 20200.12380263 0 75
0.00950000 0.00948925 87774.53214357 0 7266.43998049 0 110781.33402722 0 61497.03811672 0 71739.29424978 0 112
0.01050000 0.01054430 93037.40481582 0 3287.21589977 0 112325.91184417 0 51359.09522244 0 24953.57018376 0 105
0.01150000 0.01145670 94422.02817286 0 3321.88206663 0 100710.27300479 0 35279.56916477 0 31397.16080879 0 144
0.01250000 0.01249090 98276.22249550 0 3701.75985808 0 122807.48143130 0 12756.90210809 0 33415.98168008 0 169
0.01350000 0.01339930 101541.74393936 0 -756.84537843 0 126596.70479271 0 5932.09605417 0 30692.70922748 0 180
0.01450000 0.01448870 103920.71526007 0 -1015.27468313 0 111940.35752410 0 10100.82626557 0 19289.51868692 0 267
0.01550000 0.01550050 122025.13214042 0 -3663.33931388 0 133263.53474127 0 27454.27775188 0 4041.85698660 0 238
0.01650000 0.01653350 113630.61417452 0 -3031.04146961 0 97261.64136053 0 30267.70022334 0 12412.60097620 0 315
0.01750000 0.01747870 123519.01462257 0 1363.44597107 0 100537.39179655 0 48094.24821762 0 12859.75406228 0 297
0.01850000 0.01844180 116577.91279618 0 4085.76296835 0 79542.10436121 0 43314.83593331 0 18082.49761142 0 388
0.01950000 0.01947590 108008.04067887 0 10645.41331218 0 49934.11792927 0 37610.65531336 0 20633.78810784 0 399
0.02050000 0.02045430 91826.33710606 0 9958.00255738 0 39976.92469874 0 27173.03667059 0 13233.05607306 0 462
0.02150000 0.02154770 79786.81332762 0 9761.40357609 0 23188.11357995 0 13172.91859165 0 6064.91558321 0 571
0.02250000 0.02255340 73026.01153896 0 4833.15383545 0 15941.60327320 0 4896.29257061 0 1640.73034330 0 510
0.02350000 0.02348930 68598.31921602 0 3375.94959664 0 17328.36235388 0 -11714.10693978 0 -10274.49431936 0 555
0.02450000 0.02439640 66837.13405949 0 2479.77747646 0 13411.67001317 0 -11290.22200071 0 -12552.88429733 0 592
0.02550000 0.02547300 65131.47771757 0 956.70976876 0 19507.36249808 0 -4371.05068390 0 -8393.70863905 0 837
0.02650000 0.02652900 64901.26919060 0 2044.38211105 0 12885.38274595 0 1318.50584944 0 -17467.63401644 0 723
0.02750000 0.02749970 67854.18813763 0 1244.38499852 0 32925.32727567 0 3591.94994109 0 2322.64441989 0 826
0.02850000 0.02848090 63763.37811710 0 967.61994436 0 22943.85423956 0 4260.35275551 0 -8428.99304170 0 831
0.02950000 0.02946900 67886.56121173 0 1614.12372302 0 43833.81677756 0 3821.72008268 0 17017.44595466 0 996
0.03050000 0.03053250 65587.73573074 0 833.64937268 0 38618.94168393 0 -200.48599831 0 13406.27450082 0 1041
0.03150000 0.03150510 67127.81728739 0 3030.96278506 0 44595.03364506 0 -2786.60227882 0 7406.25119429 0 1036
0.03250000 0.03246190 66974.83203094 0 2550.90831429 0 52880.40489237 0 50.66273691 0 20507.10597410 0 1059
0.03350000 0.03345080 60615.88350591 0 2273.64642336 0 33972.39389126 0 -19.73431124 0 -3721.37479360 0 1302
0.03450000 0.03451200 61339.89381950 0 1644.16998242 0 46079.24916758 0 7527.14439290 0 5737.21689245 0 1339
0.03550000 0.03553350 57046.63967930 0 1775.84296508 0 25269.09524978 0 8763.11014402 0 -16150.34215727 0 1365
0.03650000 0.03647120 57331.59017533 0 1697.23709452 0 34535.77530590 0 9813.68384264 0 -411.93387921 0 1308
0.03750000 0.03744890 53274.61451350 0 1592.92385574 0 19756.11809876 0 6516.96959301 0 -9639.24018395 0 1579
0.03850000 0.03847530 52429.99201758 0 831.37089278 0 22543.57466703 0 4577.56391913 0 542.94141535 0 1662
0.03950000 0.03950240 51560.86490306 0 1055.67133373 0 17959.97451846 0 -319.02315653 0 675.29558145 0 1683
0.04050000 0.04050350 51588.51690385 0 457.31800653 0 19571.77142677 0 2304.27719660 0 -741.29506221 0 1822
0.04150000 0.04152450 50075.86253499 0 1798.40295110 0 24854.09042479 0 1202.59225911 0 8984.61840733 0 1887
0.04250000 0.04250150 49586.78182168 0 2096.28019547 0 19090.67157549 0 -473.88110539 0 -5736.17151193 0 1920
0.04350000 0.04349210 47189.26342727 0 2580.30261595 0 24126.03347694 0 -883.70174226 0 1211.67470490 0 2005
0.04450000 0.04448520 44773.42277216 0 2895.89512587 0 21181.88223748 0 843.61533362 0 -5387.29543519 0 2151
0.04550000 0.04548030 43752.99649880 0 1569.36345181 0 24278.00707482 0 2131.13745339 0 -508.56188509 0 2274
0.04650000 0.04648670 42584.75566833 0 273.67837148 0 18662.29037613 0 2337.67316992 0 -3998.52427803 0 2311
0.04750000 0.04749250 42166.82827415 0 306.76185471 0 22195.33930739 0 3086.69393138 0 -2960.54010823 0 2568
0.04850000 0.04851840 42727.28711960 0 -218.56770907 0 21173.90137546 0 1401.41688924 0 660.04763873 0 2493
0.04950000 0.04949480 41329.28738819 0 1096.81548760 0 22259.18620354 0 2176.65084820 0 -907.25989806 0 2644
0.05050000 0.05050630 41691.34874823 0 1929.41273537 0 21272.70669539 0 2640.08039654 0 3026.78126298 0 2829
0.05150000 0.05149060 39288.09762195 0 1693.08929440 0 20752.93900559 0 2813.65852513 0 978.46492418 0 2784
0.05250000 0.05249300 38573.75426799 0 1875.54753707 0 20750.91568845 0 937.79962203 0 6043.49090291 0 3055
0.05350000 0.05348950 36608.66370720 0 671.16239417 0 18490.64563947 0 1453.44986147 0 580.51553855 0 3009
0.05450000 0.05448610 36527.84342844 0 361.12164164 0 20008.58311418 0 2031.39915945 0 6070.73824029 0 3336
0.05550000 0.05550870 37082.34472900 0 -539.44669704 0 17168.63270699 0 1649.31820046 0 1267.72058944 0 3349
0.05650000 0.05647670 36476.81087412 0 -618.80344307 0 17475.50247195 0 2241.47568097 0 3318.17265188 0 3324
0.05750000 0.05747970 37706.20084457 0 -376.83269917 0 13538.80177294 0 2344.30515385 0 -503.19897062 0 3639
0.05850000 0.05849280 38230.57720117 0 -533.05413897 0 15486.13210558 0 2403.39725475 0 2330.25434044 0 3846
0.05950000 0.05951020 37881.21777645 0 293.79688816 0 12990.37042378 0 3098.26056098 0 1997.91326093 0 3787
0.06050000 0.06049470 38122.89176717 0 1016.85736675 0 11815.04798334 0 1067.82697343 0 1000.84730792 0 3930
0.06150000 0.06148310 35431.43035614 0 912.90495286 0 10048.32118600 0 2793.58272292 0 315.35196000 0 4083
0.06250000 0.06249100 35397.14637141 0 781.24545898 0 8928.98842686 0 1681.55638675 0 530.53286101 0 4303
0.06350000 0.06350600 34775.98801202 0 164.11687287 0 7953.26622146 0 2359.28894128 0 886.94017373 0 4470
0.06450000 0.06451750 33630.00366999 0 1059.71122360 0 6423.41365697 0 -341.33697229 0 -1081.47312341 0 4479
0.06550000 0.06550280 32542.24589876 0 992.75066719 0 7148.07592830 0 -1014.56989433 0 -1074.29371979 0 4636
0.06650000 0.06648880 32015.50900550 0 1438.72460901 0 6647.10260652 0 -1174.78288920 0 -2450.94520734 0 4653
0.06750000 0.06749660 30505.10276678 0 1191.94736286 0 8635.84349645 0 -2036.19891732 0 -1541.62152580 0 5220
0.06850000 0.06852730 29953.63644192 0 556.40771492 0 10537.24453020 0 -870.09381048 0 -1709.32079406 0 5029
0.06950000 0.06949320 29757.14986714 0 580.61670440 0 9996.37813897 0 -1106.80505390 0 -2448.16876661 0 5040
0.07050000 0.07048030 29482.99039581 0 527.51137409 0 10587.51272027 0 -930.16722018 0 -2235.85535560 0 5475
0.07150000 0.07148790 28662.98492498 0 513.78091922 0 11687.69141056 0 -1153.93148209 0 -3529.76666124 0 5509
0.07250000 0.07249820 29007.62327640 0 202.99491155 0 11420.50114269 0 -807.83746641 0 -3292.93739099 0 5916
0.07350000 0.07351270 28873.74712619 0 -38.42470324 0 12805.34931275 0 -278.06559746 0 -4923.60735189 0 5721
0.07450000 0.07449140 29429.93452436 0 175.04728164 0 11489.96836420 0 264.49475983 0 -4413.27056805 0 6028
0.07550000 0.07549160 29176.79506990 0 -149.43545895 0 11031.29361113 0 2519.80543372 0 -1845.45631506 0 6183
0.07650000 0.07648840 29312.46972422 0 -18.11194812 0 10940.67148493 0 2231.56142702 0 -1612.55003192 0 6330
0.07750000 0.07749960 29013.69322779 0 489.70007316 0 9058.91910866 0 4312.25083993 0 894.60067721 0 6583
0.07850000 0.07848650 28910.95368011 0 990.19229509 0 9930.60909155 0 2627.20985145 0 1633.95223091 0 6549
0.07950000 0.07947320 27153.70275133 0 1391.58131985 0 8517.09726213 0 1970.93569917 0 5420.14061663 0 6828
0.08050000 0.08048110 26467.79824373 0 1441.23127412 0 9387.39340432 0 580.72573872 0 6604.77031587 0 7147
0.08150000 0.08149960 25608.90012137 0 881.30186333 0 9173.80979978 0 -415.03180255 0 6626.27368071 0 7386
0.08250000 0.08250610 24795.63904099 0 385.15752510 0 9783.92984016 0 -487.44519862 0 5410.01279032 0 7227
0.08350000 0.08350160 24920.29785759 0 396.96582870 0 9477.28488822 0 -1395.36941914 0 4450.88178540 0 7798
0.08450000 0.08449610 24116.02929779 0 507.69185872 0 10236.21990362 0 -1002.17707690 0 2813.75969098 0 7371
0.08550000 0.08548940 24204.15599952 0 447.49142967 0 9418.37263774 0 -954.84382073 0 -274.36742337 0 8256
0.08650000 0.08650700 23694.16767586 0 586.50905352 0 10836.63926242 0 182.60661926 0 1188.33911398 0 8037
0.08750000 0.08749060 23185.41582377 0 288.82177614 0 10136.02074301 0 326.53078715 0 -809.02223100 0 8155
0.08850000 0.08849210 23121.45652111 0 391.93451343 0 10566.25664973 0 895.95067936 0 2441.35693226 0 8718
0.08950000 0.08949900 22600.33995322 0 431.85793263 0 10384.51780872 0 1358.53380670 0 1962.06682575 0 8571
0.09050000 0.09049190 22709.37426531 0 212.71357817 0 10826.28662309 0 1584.74066201 0 3851.59773232 0 8932
0.09150000 0.09150830 21982.44138254 0 462.82255320 0 10042.83574845 0 1320.67529503 0 4084.61642198 0 9285
0.09250000 0.09250820 21731.99968425 0 472.02527395 0 9038.06770155 0 1651.92603143 0 4713.62075558 0 9204
0.09350000 0.09350330 21001.02016722 0 569.80432246 0 9039.39409834 0 1186.36075945 0 4882.85999299 0 9349
0.09450000 0.09448040 20870.85343175 0 427.57524470 0 8813.09731782 0 858.56427503 0 3603.90999347 0 9564
0.09550000 0.09549270 20012.74215495 0 348.93003186 0 7524.41291477 0 722.42762996 0 3837.55815956 0 10155
0.09650000 0.09649430 19793.54946569 0 412.33629450 0 7229.57064610 0 281.87055773 0 2196.89526017 0 9913
0.09750000 0.09749140 19007.60316658 0 246.19498044 0 6945.28334846 0 277.85876948 0 3291.79084462 0 10476
0.09850000 0.09850240 19061.55829009 0 393.62173510 0 7065.56955193 0 523.50070991 0 2683.43558641 0 10575
0.09950000 0.09950330 18377.78950613 0 500.53156421 0 7146.38983069 0 867.38031740 0 3543.22172017 0 10882
0.10050000 0.10051200 18159.83328845 0 572.81569280 0 7011.90668534 0 469.98959210 0 3829.46489103 0 10875
0.10150000 0.10150300 17639.84078564 0 472.86045430 0 6339.69329033 0 293.03252391 0 2993.66630593 0 11118
0.10250000 0.10250800 17539.12455509 0 350.04960067 0 7084.24027280 0 -264.28680779 0 4243.17704119 0 11575
0.10350000 0.10349800 17243.60784737 0 182.01760916 0 6776.86467856 0 -749.86043807 0 2161.97055835 0 11364
0.10450000 0.10450100 17355.67713516 0 129.90820050 0 7894.21908317 0 -294.35667256 0 3458.89435839 0 12093
0.10550000 0.10551000 17163.91163369 0 275.17225396 0 7001.32923300 0 -125.22646947 0 1969.74419019 0 12067
0.10650000 0.10649700 16879.41076369 0 290.02677390 0 7041.80681629 0 624.14387623 0 2490.38865075 0 12054
0.10750000 0.10749900 16579.62260869 0 317.51915746 0 6898.75829508 0 971.68456366 0 1905.50387127 0 12807
0.10850000 0.10850100 15961.72403801 0 310.98496719 0 5743.03954953 0 1458.59807950 0 1492.70221382 0 12736
0.10950000 0.10950300 15798.39738289 0 267.80063521 0 5458.48247627 0 855.54616031 0 1876.08708830 0 12933
0.11050000 0.11050200 15573.35955525 0 125.43442151 0 4807.83989001 0 922.63036387 0 1262.83090637 0 13428
0.11150000 0.11150900 15534.35449722 0 -35.34454013 0 4256.68830337 0 745.08878183 0 2232.76417665 0 13453
0.11250000 0.11250000 15564.02981514 0 -191.38444341 0 3901.89964434 0 146.97937676 0 1067.49874643 0 13668
0.11350000 0.11349100 15844.48405088 0 -155.38738351 0 3411.24523994 0 393.64758860 0 1385.38772129 0 13791
0.11450000 0.11448600 15786.81951263 0 66.10840267 0 3541.16468109 0 17.69402072 0 899.67920321 0 14205
0.11550000 0.11549300 15731.74032405 0 415.27684874 0 3585.18306935 0 21.93287011 0 1474.75089460 0 14776
0.11650000 0.11649800 15276.83118897 0 332.56027220 0 3645.12945970 0 93.24715536 0 1574.73648286 0 14553
0.11750000 0.11747300 15385.64068804 0 260.38630199 0 4185.56870619 0 184.53663899 0 1790.72558665 0 14568
0.11850000 0.11849100 15113.61694035 0 128.26931362 0 3925.07786615 0 475.25920917 0 2186.22788262 0 16015
0.11950000 0.11950300 14788.42491471 0 236.38189235 0 3936.20611038 0 435.43695582 0 1540.17148186 0 15270
0.12050000 0.12050700 14737.95439292 0 187.07590199 0 3780.62426361 0 156.04158938 0 2445.03262505 0 15999
0.12150000 0.12150000 14447.94560406 0 401.58461208 0 3917.05204153 0 -554.92057683 0 1459.64346002 0 15670
0.12250000 0.12250700 14249.99774469 0 352.21117781 0 4353.63891592 0 -443.69771004 0 2005.53442212 0 16887
0.12350000 0.12352200 13884.56418943 0 270.45342878 0 4431.94128891 0 -596.00290712 0 1220.17263685 0 16407
0.12450000 0.12449800 13653.68122341 0 270.06113007 0 4505.38770079 0 -283.49932802 0 1127.33610246 0 16306
0.12550000 0.12549900 13622.88184041 0 109.52530371 0 5026.84148820 0 61.28739998 0 1019.63717968 0 17523
0.12650000 0.12650100 13483.72258436 0 151.53633657 0 4520.02302804 0 358.36993035 0 1129.55051066 0 17154
0.12750000 0.12750600 13487.31959259 0 46.76582811 0 4988.30853749 0 303.08166566 0 1355.15037083 0 18007
0.12850000 0.12850300 13451.91154279 0 -11.65082208 0 4172.41714484 0 575.39204994 0 1715.27833895 0 17496
0.12950000 0.12949900 13494.28879605 0 57.23649427 0 4350.60394022 0 311.91232087 0 1538.26057123 0 18405
0.13050000 0.13049000 13385.59170348 0 112.36817669 0 3858.16227235 0 -71.91543525 0 1722.47235541 0 18100
0.13150000 0.13148800 13258.57235022 0 277.37317337 0 4390.75554464 0 137.54734673 0 2030.99449603 0 19059
0.13250000 0.13249300 13101.65286601 0 220.79448198 0 4537.25494561 0 40.44419855 0 2074.83303388 0 18957
0.13350000 0.13349100 12901.56928300 0 334.79603763 0 4517.10045885 0 115.93944383 0 1876.13205091 0 19468
0.13450000 0.13450700 12651.01517821 0 230.75032634 0 4799.89274994 0 118.16284455 0 1589.86639874 0 19953
0.13550000 0.13551000 12412.26375668 0 373.55604948 0 4738.09165222 0 -178.99050191 0 1867.75776611 0 19956
0.13650000 0.13649900 12254.22020740 0 279.68874742 0 5135.22384255 0 -199.93857862 0 1551.77183341 0 19723
0.13750000 0.13749600 11978.82426450 0 112.70550862 0 4969.95255485 0 -63.93254991 0 1357.52214813 0 20946
0.13850000 0.13851100 12008.27476941 0 -15.83762725 0 5277.02465152 0 164.33718962 0 1494.89414071 0 20955
0.13950000 0.13949800 12167.21757075 0 -114.68049095 0 4915.49160206 0 90.66753842 0 857.36489760 0 20506
0.14050000 0.14048300 12326.60999811 0 -117.41646534 0 5263.32229828 0 270.84123123 0 1529.32425390 0 21447
0.14150000 0.14148400 12317.61747753 0 -22.39868268 0 4923.66355514 0 84.25440996 0 848.48028726 0 21771
0.14250000 0.14249400 12483.75429533 0 169.22687269 0 4962.32015300 0 431.95347816 0 1835.12615704 0 22470
0.14350000 0.14350900 12250.06116663 0 269.48785689 0 4673.68272353 0 565.98025309 0 1652.26325095 0 22519
0.14450000 0.14449900 12081.45140567 0 208.67031611 0 4840.84244055 0 455.51837835 0 1869.93845235 0 22218
0.14550000 0.14550500 12001.53037897 0 220.88328312 0 4563.32201466 0 243.40954719 0 2301.06237049 0 23559
0.14650000 0.14650700 11592.14587935 0 98.69100251 0 4324.05352320 0 381.26713588 0 1486.63226243 0 23044
0.14750000 0.14750500 11460.85507881 0 242.41812179 0 4255.27198137 0 -375.55800938 0 1404.89025031 0 23649
0.14850000 0.14849900 11346.53766088 0 290.30554204 0 4072.74629480 0 -519.63505012 0 775.13616530 0 23640
0.14950000 0.14949500 10987.19653831 0 249.08045548 0 4115.12354806 0 -11.54201258 0 455.22949363 0 24457
0.15050000 0.15050000 10827.59053858 0 159.40479208 0 3867.60441896 0 9.79745234 0 156.96444681 0 24591
0.15150000 0.15149900 10642.00739501 0 117.52887185 0 3414.13408717 0 474.91412119 0 -301.30564284 0 25020
0.15250000 0.15250500 10566.47022210 0 41.99597038 0 3309.28129716 0 701.12210056 0 -267.44767878 0 25297
0.15350000 0.15350100 10457.82933278 0 77.41278789 0 3112.47998416 0 629.34829752 0 42.01856409 0 25452
0.15450000 0.15450400 10365.49862768 0 157.32077544 0 2844.78388700 0 458.29819128 0 621.08192297 0 26061
0.15550000 0.15549900 10175.47542707 0 202.21930665 0 3296.52315858 0 87.44652996 0 677.59766671 0 26128
0.15650000 0.15649500 10019.76993315 0 307.48687668 0 3214.06174481 0 -145.24157216 0 1026.37032947 0 26331
0.15750000 0.15749700 9754.47933524 0 294.52415826 0 3493.07717726 0 -315.39355041 0 789.00488017 0 27345
0.15850000 0.15849900 9532.75749958 0 222.45472610 0 3678.00836308 0 -248.50493417 0 1182.86491707 0 26980
0.15950000 0.15949700 9422.48671590 0 146.73770277 0 3478.91395734 0 235.65799445 0 596.93812926 0 27777
0.16050000 0.16050000 9285.44070219 0 106.42625631 0 3422.68822238 0 245.50143229 0 945.65458876 0 28224
0.16150000 0.16150500 9127.71189113 0 48.09975614 0 2824.25845876 0 465.73837800 0 379.86430267 0 28075
0.16250000 0.16249700 9145.49460059 0 39.12342209 0 3111.90671097 0 350.12940929 0 591.33578894 0 28590
0.16350000 0.16349900 9081.13063451 0 7.29259697 0 2555.83171931 0 466.40045233 0 953.92321144 0 29163
0.16450000 0.16449100 9228.88898836 0 -26.45003802 0 2663.56211591 0 352.90922222 0 1169.45482075 0 28996
0.16550000 0.16550500 9082.60315975 0 67.39051129 0 2727.48769662 0 82.79660997 0 1276.57822222 0 30777
0.16650000 0.16650700 9205.08129012 0 129.34391983 0 2683.60419617 0 229.89716095 0 1200.19800050 0 29211
0.16750000 0.16749900 8900.36973010 0 153.92160265 0 2803.94660289 0 18.22356778 0 1521.60192685 0 30922
0.16850000 0.16850800 8987.29368220 0 159.44525842 0 2632.80769551 0 275.13628388 0 1758.17266214 0 30867
0.16950000 0.16949900 8763.57101070 0 188.82269911 0 2461.96104505 0 144.02533375 0 1448.51521580 0 30852
0.17050000 0.17049200 8684.61667997 0 142.29989386 0 2392.80856176 0 147.29523905 0 1207.00983484 0 31257
0.17150000 0.17149500 8561.09316909 0 138.79843116 0 1937.91066732 0 163.32665512 0 887.20320496 0 32608
0.17250000 0.17250900 8422.31609516 0 109.41244758 0 1942.76662844 0 -196.30447624 0 792.71766711 0 32361
0.17350000 0.17350400 8393.27025367 0 144.38391051 0 2002.53316838 0 -261.32826852 0 470.45270691 0 32508
0.17450000 0.17449800 8306.39126417 0 41.08986153 0 2238.54187112 0 -348.55459413 0 211.91436791 0 32791
0.17550000 0.17549800 8316.22683356 0 67.70165251 0 2159.36272738 0 -265.21978180 0 -34.83848603 0 33633
0.17650000 0.17650100 8287.33836118 0 -20.25362930 0 2540.46574976 0 6.11972500 0 -52.54981735 0 33984
0.17750000 0.17750300 8439.75034445 0 15.81537077 0 2622.50001879 0 -184.41299183 0 -176.68392038 0 34069
