### header ###
fiducial parameters:
Omega_m = 0.31
Omega_nu = 0
Omega_de = 0.69
Omega_k = 0
H_0 = 100
w_de = -1
zeff = 0
beta = 0
fgrowth = 0
b_1 = 2
gamma = 0.55
Lx = 3500 Ly = 3500 Lz = 3500
nx = 700 ny = 700 nz = 700
xoffset = 857.220397 yoffset = 15.9954215 zoffset = 262.898189
bins = 400 dk = 0.001
kx_ny = 0.628318531 ky_ny = 0.628318531 kz_ny = 0.628318531
############################
A(data) = 3.07014956 (not used)
A(ran) = 3.07049603 (used)
Ngal = 187292
weighted Ngal = 0
Nran = 9360983
weighted Nran = 0
SN(data) = 3439.75307
SN(ran) = 68.9518012
SN(data+ran) = 3508.70487
############################
13 columns: k_central k_mean P_0(k) sigma^{lin}_{P_0(k)} P^img_1(k) sigma^{lin}_{P_1(k)} P_2(k) sigma^{lin}_{P_2(k)} P^img_3(k) sigma^{lin}_{P_3(k)} P_4(k) sigma^{lin}_{P_4(k)} N_modes
### header ###
0.00050000 0 0 0 0 0 0 0 0 0 0 0 0
0.00150000 0.00179520 1586.70777589 0 -5233.80434946 0 2997.70169954 0 -3545.73962593 0 1794.08654122 0 3
0.00250000 0.00253879 5385.74422539 0 -4777.68122410 0 -3234.98059582 0 4208.93801906 0 6293.64034428 0 6
0.00350000 0.00331552 9720.63373589 0 -4037.52933606 0 3509.67961839 0 -11803.47011309 0 -5989.69314852 0 7
0.00450000 0.00420575 14040.35960856 0 -2579.80802732 0 1109.11051137 0 -3965.85894700 0 336.49225183 0 24
0.00550000 0.00557378 21667.14112954 0 -8074.31678918 0 1768.53654211 0 1312.24480699 0 5626.94610878 0 45
0.00650000 0.00659388 25721.41903519 0 -6388.62384296 0 9569.84040634 0 -15327.30171075 0 -18148.48023121 0 40
0.00750000 0.00754703 45150.43419768 0 -18156.91071926 0 6879.46933843 0 2068.75184183 0 -11956.90499557 0 57
0.00850000 0.00846663 50680.27232479 0 -13706.84950137 0 18198.72593998 0 -17054.65250858 0 -25309.89881193 0 75
0.00950000 0.00948925 68562.68635320 0 479.86450377 0 14610.59782014 0 -29154.08895542 0 -32803.47862174 0 112
0.01050000 0.01054430 63592.96985202 0 5839.97892143 0 28412.88044622 0 -34171.69062872 0 -25523.35876931 0 105
0.01150000 0.01145670 66088.61912731 0 8473.70835030 0 35236.51747247 0 -37975.18961657 0 -39836.30415810 0 144
0.01250000 0.01249090 64725.46541316 0 -208.23642699 0 36324.27524371 0 -12822.88472789 0 -45687.84970913 0 169
0.01350000 0.01339930 65003.33429923 0 -6760.91419517 0 44613.69312527 0 -5140.21469147 0 -50212.09922184 0 180
0.01450000 0.01448870 77457.18846362 0 -9833.39994403 0 38900.07035871 0 4177.76769458 0 -70069.83280321 0 267
0.01550000 0.01550050 83890.21287697 0 -1960.44817204 0 30130.45187791 0 10697.26643400 0 -71258.19439849 0 238
0.01650000 0.01653350 79796.25547423 0 4251.82110160 0 31010.48242364 0 -7940.57552678 0 -62639.42545051 0 315
0.01750000 0.01747870 79476.23414792 0 4016.68916961 0 34938.41541508 0 -9586.19555315 0 -48221.04275786 0 297
0.01850000 0.01844180 71503.35299094 0 6924.75792022 0 35538.89097713 0 -4770.09378485 0 -32124.99294362 0 388
0.01950000 0.01947590 72752.75131969 0 2682.45764979 0 34820.72580193 0 2827.05738080 0 -39737.94846420 0 399
0.02050000 0.02045430 68465.79194390 0 2293.71098491 0 29524.24358399 0 11882.37948122 0 -13881.07958770 0 462
0.02150000 0.02154770 69765.32357491 0 -1129.48306675 0 24831.27190380 0 13763.05275503 0 -3815.14430200 0 571
0.02250000 0.02255340 67349.14570028 0 -2347.78975558 0 13333.32267758 0 22984.77020822 0 3145.89843878 0 510
0.02350000 0.02348930 73593.21477484 0 -834.09899871 0 16056.70753668 0 17358.82451736 0 16809.04429011 0 555
0.02450000 0.02439640 69174.29015948 0 1466.23048135 0 7700.03684179 0 11230.02831605 0 15427.23109575 0 592
0.02550000 0.02547300 72495.79004398 0 1275.90378317 0 19701.15131669 0 7953.79453204 0 42836.88346423 0 837
0.02650000 0.02652900 70380.18716990 0 4207.21819950 0 36439.82913322 0 -2290.01281082 0 50336.87044496 0 723
0.02750000 0.02749970 69765.09876190 0 3073.92455215 0 38046.34293569 0 359.81660209 0 61109.01085348 0 826
0.02850000 0.02848090 67983.00599501 0 2546.95160523 0 58810.18537249 0 -2889.80269318 0 56761.01474423 0 831
0.02950000 0.02946900 65467.91039395 0 1553.71646599 0 51126.52615881 0 6689.30000936 0 64658.58354131 0 996
0.03050000 0.03053250 68470.06339118 0 1128.24659517 0 64009.77318112 0 9344.58900634 0 65608.64334110 0 1041
0.03150000 0.03150510 66045.56743501 0 2363.48170400 0 51556.14382975 0 11934.53610062 0 51937.76392207 0 1036
0.03250000 0.03246190 64086.43441911 0 2822.15645708 0 48426.63425973 0 12573.67950118 0 59303.42512656 0 1059
0.03350000 0.03345080 61740.28579853 0 2650.20822285 0 45812.05889971 0 14533.14973661 0 43557.85880211 0 1302
0.03450000 0.03451200 58123.49401933 0 2546.73803287 0 35021.70863700 0 10546.52930770 0 44665.51252514 0 1339
0.03550000 0.03553350 55763.29458534 0 1821.30015664 0 36052.81352855 0 8334.77390727 0 35783.59994354 0 1365
0.03650000 0.03647120 54562.00624172 0 838.12315167 0 32506.05100340 0 2899.85183493 0 34873.10723433 0 1308
0.03750000 0.03744890 53499.65234114 0 436.47334382 0 28535.40353919 0 1416.74913683 0 25990.85743321 0 1579
0.03850000 0.03847530 54462.63888926 0 918.00708422 0 30811.41049920 0 -1592.80020858 0 21228.64334452 0 1662
0.03950000 0.03950240 52540.82483378 0 449.46753606 0 23807.69824824 0 4726.92968605 0 14177.04592145 0 1683
0.04050000 0.04050350 51399.44915856 0 1993.07978111 0 26341.00370348 0 745.55302071 0 7501.52694988 0 1822
0.04150000 0.04152450 49943.56007588 0 1189.47441970 0 21845.19303712 0 4182.38760203 0 5899.84662722 0 1887
0.04250000 0.04250150 47421.49527137 0 358.50481815 0 16857.71630777 0 3345.81341203 0 -6699.14681940 0 1920
0.04350000 0.04349210 47567.73613738 0 1823.28975182 0 14158.72366076 0 909.89807879 0 795.31425743 0 2005
0.04450000 0.04448520 45309.60181203 0 1053.37711691 0 11311.01720457 0 2550.13270939 0 -5890.24711150 0 2151
0.04550000 0.04548030 44076.16520732 0 1318.59577465 0 13002.62273307 0 4044.01519154 0 -809.62810207 0 2274
0.04650000 0.04648670 42335.43803512 0 823.83516053 0 8427.04840912 0 2844.63775854 0 -5074.41192209 0 2311
0.04750000 0.04749250 41675.83665022 0 700.18350623 0 8563.22889273 0 1457.66510549 0 -194.94885376 0 2568
0.04850000 0.04851840 42249.44705703 0 139.60213769 0 9944.13159438 0 407.90298186 0 950.40601183 0 2493
0.04950000 0.04949480 41785.20818184 0 -275.39481884 0 10434.93212724 0 1513.85711850 0 2400.85686768 0 2644
0.05050000 0.05050630 42805.52204869 0 -5.43513564 0 11994.56117552 0 -1076.32827757 0 5881.17590636 0 2829
0.05150000 0.05149060 43291.45537979 0 234.54404596 0 11790.65577126 0 -407.35893436 0 5152.26466906 0 2784
0.05250000 0.05249300 41942.35247905 0 1025.62732245 0 12352.68830781 0 -2338.38133092 0 3202.55131847 0 3055
0.05350000 0.05348950 41433.93784649 0 1852.20070550 0 14309.57319357 0 -2292.54195724 0 4389.95745843 0 3009
0.05450000 0.05448610 40203.64862398 0 1686.55847633 0 15256.93523717 0 286.01386159 0 4753.27777136 0 3336
0.05550000 0.05550870 38218.21248537 0 1896.48886938 0 13942.11632117 0 174.21210129 0 3572.42493077 0 3349
0.05650000 0.05647670 37904.82314299 0 1173.18671679 0 13756.30836459 0 2550.55985412 0 3395.24979395 0 3324
0.05750000 0.05747970 36356.98553733 0 1201.80541355 0 14934.66578072 0 3272.80538553 0 2826.51782956 0 3639
0.05850000 0.05849280 35754.93628418 0 1033.52050740 0 12524.67026399 0 2308.78469754 0 3023.33038321 0 3846
0.05950000 0.05951020 34310.84988477 0 390.65982364 0 12856.60668008 0 1773.85336991 0 4548.63048415 0 3787
0.06050000 0.06049470 34485.52959713 0 53.32070118 0 10940.49163452 0 1279.07364668 0 3821.73132333 0 3930
0.06150000 0.06148310 34050.17919432 0 -670.05406601 0 9765.18043474 0 2176.87566121 0 4006.34777094 0 4083
0.06250000 0.06249100 34662.23262662 0 -442.02510122 0 8039.26844020 0 3245.86154573 0 1235.35875599 0 4303
0.06350000 0.06350600 34554.99681865 0 178.10586270 0 6051.55044949 0 1519.51116582 0 1051.12449051 0 4470
0.06450000 0.06451750 33998.69701397 0 1087.75777124 0 4788.64085856 0 355.69915173 0 -2359.96338032 0 4479
0.06550000 0.06550280 33257.48850477 0 1254.13064271 0 5329.03514245 0 219.32757706 0 -89.20052110 0 4636
0.06650000 0.06648880 31416.15750853 0 859.31402643 0 2359.17653477 0 -423.36899320 0 -2498.45943798 0 4653
0.06750000 0.06749660 31519.90871477 0 490.42959139 0 4581.16092737 0 -505.88436208 0 2.98116670 0 5220
0.06850000 0.06852730 31108.61330453 0 36.15544067 0 3631.38214385 0 -285.22814010 0 -1499.35667905 0 5029
0.06950000 0.06949320 31393.78861357 0 447.70275390 0 4904.88042777 0 -1394.94227441 0 243.45788199 0 5040
0.07050000 0.07048030 30995.98198420 0 431.86130482 0 5583.88317583 0 -1540.84592090 0 79.00547570 0 5475
0.07150000 0.07148790 30701.70174806 0 383.76143628 0 6879.44685713 0 -457.71480151 0 -1558.60614906 0 5509
0.07250000 0.07249820 29595.73412264 0 1078.68544203 0 6688.53564511 0 -330.72017768 0 -1400.07925180 0 5916
0.07350000 0.07351270 29380.36325464 0 993.25874461 0 9741.48514300 0 -354.37612714 0 -1720.06685616 0 5721
0.07450000 0.07449140 27710.67699505 0 1090.92313848 0 7541.56614779 0 -444.24625380 0 -2140.07377072 0 6028
0.07550000 0.07549160 27885.01948789 0 437.38945685 0 10433.99915323 0 -716.18120035 0 -1322.82225932 0 6183
0.07650000 0.07648840 26832.78217296 0 253.04053674 0 9727.82775236 0 352.40788920 0 -1474.00901166 0 6330
0.07750000 0.07749960 27544.76499026 0 17.57127282 0 10672.79553736 0 513.58982816 0 -555.70292612 0 6583
0.07850000 0.07848650 26756.45815450 0 534.79306763 0 8534.43034555 0 753.05165881 0 -2659.97634833 0 6549
0.07950000 0.07947320 27186.75026448 0 746.82546237 0 9133.20856934 0 1658.83903163 0 -544.22060140 0 6828
0.08050000 0.08048110 25974.33367664 0 1032.75164689 0 8379.30936547 0 861.10466209 0 -992.22685287 0 7147
0.08150000 0.08149960 24937.60845972 0 1023.63547914 0 7395.44892893 0 1203.07560709 0 190.79768144 0 7386
0.08250000 0.08250610 24116.81614334 0 857.05465564 0 7051.72107023 0 409.58907947 0 -481.12570478 0 7227
0.08350000 0.08350160 23279.16285087 0 449.20338077 0 5910.39035761 0 730.29158921 0 55.00713601 0 7798
0.08450000 0.08449610 23429.78757066 0 486.67071779 0 5366.36534353 0 -58.14114184 0 -1495.80463342 0 7371
0.08550000 0.08548940 23011.29814395 0 70.55048303 0 5920.06855789 0 -280.35531801 0 -1644.50720194 0 8256
0.08650000 0.08650700 22621.35997009 0 571.94004610 0 5135.19012060 0 -215.46416541 0 -1552.99706434 0 8037
0.08750000 0.08749060 22484.22403117 0 319.14792775 0 5824.97265270 0 -627.97581406 0 -1693.78621475 0 8155
0.08850000 0.08849210 22202.42091735 0 560.79718903 0 5566.23535418 0 -390.29113029 0 -2112.44425122 0 8718
0.08950000 0.08949900 21854.07315119 0 641.59161429 0 6222.66687557 0 362.99545812 0 -1675.41899145 0 8571
0.09050000 0.09049190 20882.65611502 0 530.51712410 0 6396.89696190 0 803.50419555 0 -881.35357032 0 8932
0.09150000 0.09150830 20740.46188327 0 380.83324677 0 6899.59010324 0 539.48603931 0 -1418.48019705 0 9285
0.09250000 0.09250820 20203.60840436 0 307.33850009 0 6652.07097414 0 352.58661554 0 -1198.72547525 0 9204
0.09350000 0.09350330 20237.66757608 0 293.29780326 0 6416.95028280 0 62.79128664 0 -966.76228270 0 9349
0.09450000 0.09448040 19470.71797670 0 217.86292027 0 6436.41908987 0 466.26668858 0 -2216.53267699 0 9564
0.09550000 0.09549270 19486.56729423 0 387.54391525 0 6695.30251685 0 -435.30094395 0 -1720.44903828 0 10155
0.09650000 0.09649430 19074.82225796 0 259.18355236 0 5613.62593766 0 483.04223573 0 -3125.29432599 0 9913
0.09750000 0.09749140 18560.89970653 0 759.94217771 0 5796.60125026 0 -18.62766917 0 -2130.84519647 0 10476
0.09850000 0.09850240 17901.52313465 0 757.90199960 0 5362.80205725 0 435.60556558 0 -2717.24746381 0 10575
0.09950000 0.09950330 17240.68527818 0 644.10277567 0 5443.52117015 0 42.04846422 0 -1819.63654033 0 10882
0.10050000 0.10051200 17025.08959716 0 536.14981418 0 5519.50796909 0 306.19982217 0 -1173.45649241 0 10875
0.10150000 0.10150300 16619.41451228 0 158.85400020 0 6354.83444686 0 346.56162675 0 -555.50733880 0 11118
0.10250000 0.10250800 16758.57376833 0 -155.68076449 0 5894.93446285 0 651.56094743 0 1060.81730363 0 11575
0.10350000 0.10349800 16899.30671548 0 -457.78674167 0 6332.16205434 0 1273.19478635 0 691.70805558 0 11364
0.10450000 0.10450100 17575.54426346 0 -346.98539928 0 6184.71843870 0 957.94174408 0 2846.36881875 0 12093
0.10550000 0.10551000 17500.11949705 0 -168.96833772 0 5879.20879248 0 1027.41458592 0 1444.91820756 0 12067
0.10650000 0.10649700 17848.80448273 0 324.09156594 0 5913.85247803 0 488.49170321 0 3871.96579145 0 12054
0.10750000 0.10749900 17234.72773329 0 634.23123619 0 5549.41934068 0 -111.17014814 0 2108.90344624 0 12807
0.10850000 0.10850100 16735.64284084 0 747.05589571 0 5229.60034609 0 -86.55874336 0 3276.18882140 0 12736
0.10950000 0.10950300 16107.85249751 0 479.44297937 0 4897.03445356 0 378.98978005 0 1567.76727940 0 12933
0.11050000 0.11050200 15760.17917040 0 351.06463144 0 4663.99328260 0 391.62202334 0 1280.01786134 0 13428
0.11150000 0.11150900 15452.85977942 0 137.27195079 0 3983.14706783 0 428.27441318 0 399.91987171 0 13453
0.11250000 0.11250000 15090.46119985 0 249.83133095 0 3220.66000679 0 220.91363288 0 -890.96769889 0 13668
0.11350000 0.11349100 15010.09054712 0 175.55535905 0 3451.18327198 0 -126.61019357 0 -100.76231722 0 13791
0.11450000 0.11448600 14625.99751164 0 245.84089994 0 3913.67984631 0 -457.70805712 0 -708.01037133 0 14205
0.11550000 0.11549300 14703.67040819 0 271.01995758 0 4251.73117639 0 -471.10129246 0 -418.52539680 0 14776
0.11650000 0.11649800 14486.72584909 0 434.13416440 0 5093.76832265 0 -910.75461637 0 -23.80342680 0 14553
0.11750000 0.11747300 14113.42383831 0 341.40778839 0 5688.83713170 0 -295.26828934 0 574.24999983 0 14568
0.11850000 0.11849100 14340.59738958 0 80.17540262 0 6282.47837811 0 144.89536012 0 726.48213268 0 16015
0.11950000 0.11950300 14207.05845890 0 21.58823176 0 6171.02732611 0 243.90975615 0 998.37886102 0 15270
0.12050000 0.12050700 14285.18098148 0 -37.96147602 0 5732.06867441 0 419.12789568 0 891.00816523 0 15999
0.12150000 0.12150000 14103.64447217 0 161.29659360 0 6206.84003934 0 226.40469076 0 1224.11810526 0 15670
0.12250000 0.12250700 14157.03756315 0 255.21447859 0 5762.99170457 0 401.53178102 0 1535.38296465 0 16887
0.12350000 0.12352200 13875.68407535 0 241.88756308 0 5430.52697790 0 725.50082387 0 1057.71375996 0 16407
0.12450000 0.12449800 13701.34158251 0 107.72623757 0 5587.26661170 0 472.05112745 0 1924.10714823 0 16306
0.12550000 0.12549900 13562.29473297 0 141.38153270 0 4908.45495470 0 769.42029441 0 1328.01543996 0 17523
0.12650000 0.12650100 13462.81497400 0 52.15246035 0 4631.82254021 0 615.74261387 0 2046.10193061 0 17154
0.12750000 0.12750600 13404.02637068 0 18.23705656 0 4009.11297102 0 714.43327916 0 2023.91288607 0 18007
0.12850000 0.12850300 13411.33279365 0 -50.94319115 0 4127.52198582 0 452.93190462 0 2140.27610243 0 17496
0.12950000 0.12949900 13457.86908768 0 -58.90561850 0 3808.64720588 0 79.75556432 0 1993.36079738 0 18405
0.13050000 0.13049000 13461.35368941 0 45.76608464 0 3773.82366992 0 -363.92955620 0 1722.40491151 0 18100
0.13150000 0.13148800 13417.51515155 0 278.60514869 0 4121.46327507 0 -270.20838260 0 2034.50157906 0 19059
0.13250000 0.13249300 13282.62734278 0 182.42901697 0 3994.21910880 0 -234.64521181 0 2064.70520757 0 18957
0.13350000 0.13349100 12994.64187105 0 220.93386605 0 4327.94278835 0 341.31336693 0 1757.43077919 0 19468
0.13450000 0.13450700 13048.48458806 0 198.02204767 0 3852.31713397 0 651.49462759 0 2081.46501781 0 19953
0.13550000 0.13551000 12507.80928790 0 224.36900892 0 3507.94855818 0 692.21950519 0 1221.95990032 0 19956
0.13650000 0.13649900 12231.62649944 0 355.41701140 0 3095.73141457 0 424.34692981 0 1116.51585207 0 19723
0.13750000 0.13749600 11869.67754590 0 311.03105386 0 2579.24599478 0 81.32689488 0 452.22711582 0 20946
0.13850000 0.13851100 11702.64147603 0 350.05297287 0 2937.78903115 0 -379.89128023 0 872.18457152 0 20955
0.13950000 0.13949800 11527.17491812 0 239.31682626 0 2721.81116800 0 -307.07434480 0 306.62247064 0 20506
0.14050000 0.14048300 11276.95803285 0 204.14258199 0 3331.56026690 0 -250.83287293 0 641.86813430 0 21447
0.14150000 0.14148400 11311.80405012 0 230.51652080 0 3148.30393804 0 -319.32553003 0 110.23616247 0 21771
0.14250000 0.14249400 11086.90111029 0 62.82523341 0 3785.22168976 0 389.50203661 0 878.83004423 0 22470
0.14350000 0.14350900 11110.50647683 0 76.78229979 0 3450.54255489 0 352.80131197 0 865.35812433 0 22519
0.14450000 0.14449900 11098.62510901 0 -6.18457231 0 3652.13238510 0 397.72682075 0 813.15991453 0 22218
0.14550000 0.14550500 11037.29611862 0 65.14856351 0 3249.70584828 0 172.32704416 0 756.28222183 0 23559
0.14650000 0.14650700 10924.00159990 0 190.61108664 0 3573.84125276 0 -52.00206044 0 1030.23374112 0 23044
0.14750000 0.14750500 10820.93607335 0 195.04215116 0 3591.09565163 0 -224.92429706 0 1208.89826417 0 23649
0.14850000 0.14849900 10706.02290092 0 192.30505271 0 3675.19820040 0 172.52937587 0 1070.13917528 0 23640
0.14950000 0.14949500 10603.23839064 0 166.10759211 0 3532.84659954 0 173.33757866 0 924.46821026 0 24457
0.15050000 0.15050000 10439.14737127 0 113.69580995 0 3504.64380686 0 141.61421417 0 973.45271802 0 24591
0.15150000 0.15149900 10249.50635279 0 253.23837219 0 3706.69450375 0 145.86205608 0 901.92058896 0 25020
0.15250000 0.15250500 10119.96909376 0 260.31436182 0 3729.22076782 0 -70.17965396 0 861.14962470 0 25297
0.15350000 0.15350100 9943.88430006 0 184.12073491 0 3685.51711777 0 -104.52478783 0 1233.35792016 0 25452
0.15450000 0.15450400 9776.33116026 0 217.46387717 0 3765.88777050 0 20.04803780 0 1067.62576578 0 26061
0.15550000 0.15549900 9881.75722347 0 4.14438296 0 3659.52873328 0 181.63205484 0 1092.33721235 0 26128
0.15650000 0.15649500 9655.91006898 0 -42.73897740 0 3446.23738566 0 211.18260154 0 805.33979382 0 26331
0.15750000 0.15749700 9886.48953743 0 -1.85716907 0 3371.91420303 0 -133.71653297 0 509.42966332 0 27345
0.15850000 0.15849900 9883.96039101 0 40.99780060 0 3427.87016237 0 65.87043810 0 541.08221172 0 26980
0.15950000 0.15949700 9811.54811901 0 117.06688110 0 3126.60948213 0 60.94107553 0 363.19554170 0 27777
0.16050000 0.16050000 9680.95423881 0 144.68740808 0 3276.77333524 0 134.42469396 0 486.83932755 0 28224
0.16150000 0.16150500 9545.93154223 0 249.10968117 0 3268.30912524 0 237.92972996 0 222.95830725 0 28075
0.16250000 0.16249700 9342.16102578 0 228.35943993 0 3075.57692781 0 189.56795425 0 467.24687333 0 28590
0.16350000 0.16349900 9182.77983907 0 162.87028470 0 3214.79238711 0 173.89399087 0 746.15776772 0 29163
0.16450000 0.16449100 9114.62777368 0 76.47936426 0 3055.08522153 0 62.97597053 0 697.38458420 0 28996
0.16550000 0.16550500 8996.14007433 0 -0.63590160 0 2962.12503998 0 298.23132487 0 608.29231057 0 30777
0.16650000 0.16650700 9047.52108882 0 28.43929598 0 2959.69705942 0 76.02456753 0 279.17167749 0 29211
0.16750000 0.16749900 8953.90894953 0 152.69974392 0 2850.69646928 0 -282.87772004 0 150.16610125 0 30922
0.16850000 0.16850800 8819.34711963 0 293.86882832 0 2768.05520511 0 -243.19147856 0 -116.93761362 0 30867
0.16950000 0.16949900 8629.12158731 0 196.15947184 0 3063.93161365 0 -256.49029244 0 60.08554960 0 30852
0.17050000 0.17049200 8537.91494728 0 99.50415118 0 2825.40500514 0 -58.82479822 0 -21.48729072 0 31257
0.17150000 0.17149500 8528.85498279 0 36.65621166 0 3042.24839839 0 287.75728652 0 130.65008345 0 32608
0.17250000 0.17250900 8545.62603368 0 -64.91239743 0 2937.05838885 0 313.53996710 0 555.40055262 0 32361
0.17350000 0.17350400 8579.91001841 0 -19.98756310 0 3012.79789348 0 375.94693589 0 418.72548038 0 32508
0.17450000 0.17449800 8653.59248395 0 32.55528505 0 3108.59071900 0 315.00687202 0 970.73360461 0 32791
0.17550000 0.17549800 8597.01828882 0 73.55938042 0 3033.96403880 0 240.15762693 0 931.23170981 0 33633
0.17650000 0.17650100 8477.73250327 0 109.99167831 0 2814.71514629 0 212.25495962 0 1150.22206735 0 33984
0.17750000 0.17750300 8481.65549037 0 44.81298986 0 2723.80076318 0 345.47240770 0 1072.39854608 0 34069
0.17850000 0.17849800 8254.48193910 0 30.88953302 0 2203.81950102 0 348.59618453 0 767.05301336 0 34536
