### header ###
fiducial parameters:
Omega_m = 0.31
Omega_nu = 0
Omega_de = 0.69
Omega_k = 0
H_0 = 100
w_de = -1
zeff = 0
beta = 0
fgrowth = 0
b_1 = 2
gamma = 0.55
Lx = 3500 Ly = 3500 Lz = 3500
nx = 700 ny = 700 nz = 700
xoffset = 857.220397 yoffset = 15.9954215 zoffset = 262.898189
bins = 400 dk = 0.001
kx_ny = 0.628318531 ky_ny = 0.628318531 kz_ny = 0.628318531
############################
A(data) = 3.13894901 (not used)
A(ran) = 3.14298927 (used)
Ngal = 191406
weighted Ngal = 0
Nran = 9360983
weighted Nran = 0
SN(data) = 3437.91603
SN(ran) = 70.5797271
SN(data+ran) = 3508.49576
############################
13 columns: k_central k_mean P_0(k) sigma^{lin}_{P_0(k)} P^img_1(k) sigma^{lin}_{P_1(k)} P_2(k) sigma^{lin}_{P_2(k)} P^img_3(k) sigma^{lin}_{P_3(k)} P_4(k) sigma^{lin}_{P_4(k)} N_modes
### header ###
0.00050000 0 0 0 0 0 0 0 0 0 0 0 0
0.00150000 0.00179520 13198.77208833 0 -18010.78225976 0 -12140.57722851 0 36557.18152685 0 24627.47890605 0 3
0.00250000 0.00253879 19155.19291068 0 -11082.64090367 0 -797.43986448 0 -9224.14543376 0 -29645.86742490 0 6
0.00350000 0.00331552 29466.01701321 0 -8020.83377300 0 678.98139082 0 3205.41768440 0 7857.10245446 0 7
0.00450000 0.00420575 30344.92349386 0 -2852.79847097 0 -5533.18784103 0 24045.66282421 0 13367.38184929 0 24
0.00550000 0.00557378 36300.78228368 0 -4558.47729419 0 -18065.74904183 0 30913.81282736 0 17758.99168339 0 45
0.00650000 0.00659388 34698.31511547 0 -17607.69252455 0 -18585.96635766 0 14602.05492559 0 -13080.97006867 0 40
0.00750000 0.00754703 55473.62301601 0 -19005.80466247 0 -18987.93202780 0 -3819.42698993 0 13870.62578252 0 57
0.00850000 0.00846663 74010.24291696 0 -19712.39196742 0 -24136.82450164 0 -16704.61864482 0 6444.28754538 0 75
0.00950000 0.00948925 84139.53051018 0 -3632.29263656 0 -15216.69370756 0 -28645.78672937 0 33769.05051954 0 112
0.01050000 0.01054430 88050.15289949 0 2957.89855531 0 15502.76826866 0 -31741.91156671 0 10840.37115846 0 105
0.01150000 0.01145670 86819.07683143 0 8681.52550102 0 21634.76805543 0 -19504.66474191 0 11146.94866650 0 144
0.01250000 0.01249090 78070.02874147 0 7703.51020287 0 26861.67064534 0 -1197.16302480 0 -18256.72769775 0 169
0.01350000 0.01339930 77521.70979882 0 4288.26329127 0 18184.22550054 0 3489.34528122 0 -32881.37633131 0 180
0.01450000 0.01448870 74994.92392100 0 -6256.93961965 0 14985.69833504 0 12438.45447289 0 -25655.32400889 0 267
0.01550000 0.01550050 76430.91705188 0 -3442.33687986 0 12524.89507701 0 -2904.93260906 0 -46983.33470587 0 238
0.01650000 0.01653350 83638.42230059 0 -7979.45693766 0 -7767.33461772 0 7197.55727281 0 -24645.68876023 0 315
0.01750000 0.01747870 81458.41049782 0 2031.30923425 0 9032.90824287 0 -7810.47623522 0 -36309.77480426 0 297
0.01850000 0.01844180 84995.84328287 0 5011.27318694 0 386.27596985 0 -7671.78908650 0 -4999.40305977 0 388
0.01950000 0.01947590 74573.17470557 0 6094.42229138 0 9037.75296333 0 -2549.07608822 0 -7791.90668022 0 399
0.02050000 0.02045430 76960.12688830 0 3327.46867004 0 18154.88740213 0 3568.33333390 0 16515.88811905 0 462
0.02150000 0.02154770 77276.10158034 0 -1448.74002881 0 23266.01128951 0 7840.64614179 0 13741.47070562 0 571
0.02250000 0.02255340 85042.60438991 0 -1132.64168961 0 33079.66141020 0 5616.53726620 0 30899.53720093 0 510
0.02350000 0.02348930 78710.29620711 0 -2866.34345510 0 18650.60009937 0 8510.24046518 0 19180.37196832 0 555
0.02450000 0.02439640 85389.37846496 0 -2571.34381732 0 15360.57403691 0 6077.32526161 0 5596.80992417 0 592
0.02550000 0.02547300 81780.56754777 0 -888.20699507 0 13012.40209921 0 2575.25556377 0 2233.16884008 0 837
0.02650000 0.02652900 85801.91034679 0 2085.07326669 0 15682.28146083 0 -5120.28501773 0 -5966.60485191 0 723
0.02750000 0.02749970 78109.14620602 0 6415.43279495 0 10388.86794055 0 -12378.54180449 0 -2731.79286585 0 826
0.02850000 0.02848090 74321.04690967 0 9417.01251900 0 23404.38370001 0 -24486.29633287 0 -14030.01820989 0 831
0.02950000 0.02946900 67097.35512391 0 8338.78681958 0 29863.48642305 0 -15216.24408153 0 -7977.86076526 0 996
0.03050000 0.03053250 65539.06371307 0 6190.67598359 0 43693.19623691 0 -12632.24329149 0 -7920.98307256 0 1041
0.03150000 0.03150510 61700.04426892 0 3060.06482980 0 42074.65493816 0 -5232.36554617 0 -23080.76536547 0 1036
0.03250000 0.03246190 62185.19075447 0 1427.25914527 0 57154.99955235 0 3990.62210056 0 -5353.87698057 0 1059
0.03350000 0.03345080 59740.23681397 0 1216.72175707 0 42724.92658295 0 7312.14446637 0 -27711.23902759 0 1302
0.03450000 0.03451200 57667.68563219 0 1518.03864057 0 45449.54791363 0 14561.36376994 0 -8724.89193154 0 1339
0.03550000 0.03553350 56429.75276719 0 1818.17525574 0 33528.95021992 0 13909.63084056 0 -23060.30738114 0 1365
0.03650000 0.03647120 51610.09895326 0 2354.54538667 0 25190.18588164 0 12056.04753502 0 -13781.03779620 0 1308
0.03750000 0.03744890 50334.95953433 0 2141.61373987 0 21706.82062662 0 8672.98260646 0 -17838.57549056 0 1579
0.03850000 0.03847530 48771.60983067 0 879.53033677 0 17036.66746741 0 2926.06503244 0 -12053.91181138 0 1662
0.03950000 0.03950240 47886.63339862 0 1324.04749025 0 13934.13545915 0 -596.83134308 0 -12480.49450662 0 1683
0.04050000 0.04050350 47181.17015874 0 959.50531859 0 13558.36050521 0 -1057.07978726 0 -7446.61637106 0 1822
0.04150000 0.04152450 44069.19600387 0 1728.14888403 0 14605.87674684 0 -214.68968457 0 -4678.20146513 0 1887
0.04250000 0.04250150 45972.46298564 0 1515.39708765 0 15264.80369269 0 3081.21973447 0 -5890.03353913 0 1920
0.04350000 0.04349210 42585.09288785 0 986.30977433 0 15944.75065540 0 2113.52335369 0 -4754.52548359 0 2005
0.04450000 0.04448520 44056.83128806 0 254.76597662 0 12696.76462668 0 4189.87387542 0 -8445.98890560 0 2151
0.04550000 0.04548030 41148.98735046 0 -45.52306177 0 11366.88323870 0 1511.53030380 0 -9033.82997623 0 2274
0.04650000 0.04648670 42434.24335504 0 97.96755423 0 7745.22425773 0 -835.31411306 0 -9997.00761542 0 2311
0.04750000 0.04749250 42234.15977203 0 -558.72328897 0 8309.88710655 0 -597.09887057 0 -9608.51948550 0 2568
0.04850000 0.04851840 42383.43561374 0 -123.50440178 0 6453.75217329 0 -1371.13457617 0 -10434.75227683 0 2493
0.04950000 0.04949480 41937.51899924 0 635.51379444 0 8020.88997626 0 -764.26758011 0 -9445.57501251 0 2644
0.05050000 0.05050630 41566.57752512 0 1582.25647820 0 9394.37384843 0 -1187.15884565 0 -7061.51167702 0 2829
0.05150000 0.05149060 39876.99531374 0 3008.45900229 0 10076.42281283 0 -1979.04020835 0 -8843.08737398 0 2784
0.05250000 0.05249300 37358.41511096 0 3125.84511788 0 14078.80263406 0 -1143.35402975 0 -1412.12922938 0 3055
0.05350000 0.05348950 35840.81485577 0 2224.09763494 0 14003.93990019 0 -475.85383959 0 -5263.53587064 0 3009
0.05450000 0.05448610 34071.76124372 0 1203.14305099 0 14525.95572014 0 105.84050600 0 -1337.71612154 0 3336
0.05550000 0.05550870 33982.06085089 0 198.05127336 0 16580.29704773 0 1206.22298929 0 -2719.68668501 0 3349
0.05650000 0.05647670 33291.88489601 0 -579.72307267 0 13990.22630630 0 1749.41619522 0 -4705.52748706 0 3324
0.05750000 0.05747970 34162.02366909 0 -222.27375162 0 13297.80222127 0 2112.01710650 0 -2660.89808169 0 3639
0.05850000 0.05849280 34503.62704481 0 78.52156568 0 12066.05171417 0 843.91995526 0 -3436.33437237 0 3846
0.05950000 0.05951020 33988.24320879 0 68.87281591 0 11881.25541615 0 872.52291511 0 -2657.88558730 0 3787
0.06050000 0.06049470 33960.36639498 0 400.96412816 0 11944.76509278 0 -697.78924762 0 -1115.36143724 0 3930
0.06150000 0.06148310 34033.65543774 0 490.99387206 0 11370.03062090 0 223.07858221 0 -584.81621152 0 4083
0.06250000 0.06249100 33197.23861685 0 715.26283918 0 13118.62624862 0 524.99346833 0 455.47453981 0 4303
0.06350000 0.06350600 32404.77274032 0 1068.05740677 0 12023.33724139 0 1042.80865709 0 1183.19089594 0 4470
0.06450000 0.06451750 32134.65990325 0 425.63286025 0 12775.78640132 0 2059.12984481 0 336.19887084 0 4479
0.06550000 0.06550280 31868.36888743 0 590.56468030 0 11833.59505705 0 2339.95502202 0 2261.69761163 0 4636
0.06650000 0.06648880 30496.11024619 0 546.31023837 0 11355.08055543 0 969.79950653 0 1687.40152513 0 4653
0.06750000 0.06749660 31057.69315671 0 -51.68395003 0 10209.04001015 0 1755.19388969 0 1828.20191619 0 5220
0.06850000 0.06852730 30497.57153079 0 -77.60365414 0 10300.07804042 0 92.16726604 0 3292.38659911 0 5029
0.06950000 0.06949320 31100.18281648 0 -147.94494866 0 11392.73673538 0 494.74262908 0 3740.09047707 0 5040
0.07050000 0.07048030 31234.62099922 0 -1.00778054 0 13751.13766525 0 466.72867933 0 5861.71833994 0 5475
0.07150000 0.07148790 32159.72655438 0 103.83360022 0 13564.20564359 0 -13.34692386 0 5520.68823742 0 5509
0.07250000 0.07249820 31527.10273124 0 615.26038996 0 15713.98009590 0 175.71497629 0 7349.41846419 0 5916
0.07350000 0.07351270 31640.63330362 0 959.55477746 0 15389.46250929 0 516.00656807 0 7229.73925586 0 5721
0.07450000 0.07449140 30396.63048722 0 991.44675171 0 15123.84593252 0 1605.50214391 0 8334.03202432 0 6028
0.07550000 0.07549160 29521.65823432 0 1061.31638852 0 14086.22146354 0 2346.00249211 0 7783.52115477 0 6183
0.07650000 0.07648840 28944.45081929 0 932.47380171 0 13171.79452658 0 1730.77919630 0 6322.56253861 0 6330
0.07750000 0.07749960 27489.79820819 0 237.45312637 0 10762.41724564 0 2094.58285721 0 4879.49903842 0 6583
0.07850000 0.07848650 27497.32944418 0 63.81328661 0 10948.09031442 0 777.47646879 0 3667.26230099 0 6549
0.07950000 0.07947320 27330.96781336 0 -310.66123645 0 8944.30943381 0 1469.72632373 0 3130.24021231 0 6828
0.08050000 0.08048110 27504.07383462 0 -218.46991541 0 8991.72249859 0 762.69726120 0 2665.33813873 0 7147
0.08150000 0.08149960 27503.06217605 0 243.93448558 0 6234.59320599 0 1997.12641538 0 3400.69026890 0 7386
0.08250000 0.08250610 26612.01579261 0 566.70302693 0 6223.33007396 0 1902.15415735 0 1034.66480564 0 7227
0.08350000 0.08350160 26211.51140706 0 885.97572590 0 5657.31834705 0 1422.00976137 0 3167.22195322 0 7798
0.08450000 0.08449610 25195.69380050 0 1021.68297811 0 4945.89756229 0 1022.54401196 0 2356.98460788 0 7371
0.08550000 0.08548940 24304.31019753 0 1055.99956073 0 4389.10316898 0 -252.73141884 0 1073.34163668 0 8256
0.08650000 0.08650700 23618.40568993 0 609.63781646 0 4580.58765418 0 -1215.67637656 0 1343.05543064 0 8037
0.08750000 0.08749060 23209.24600332 0 550.30966190 0 5198.02535818 0 -1779.79967414 0 76.78185017 0 8155
0.08850000 0.08849210 22714.43255814 0 918.14984049 0 6349.69746948 0 -1981.78292713 0 280.63633428 0 8718
0.08950000 0.08949900 22034.48559543 0 320.25962811 0 7112.15080856 0 -1552.83969523 0 -1074.93668501 0 8571
0.09050000 0.09049190 22237.04212160 0 409.89932143 0 7477.88786139 0 -538.78349864 0 -605.72382188 0 8932
0.09150000 0.09150830 21993.34481375 0 235.88617965 0 7670.96851900 0 553.59755224 0 -512.47475561 0 9285
0.09250000 0.09250820 21899.59778665 0 260.97756022 0 7795.51492910 0 1494.64684640 0 -830.01976656 0 9204
0.09350000 0.09350330 21318.79336338 0 534.22991103 0 8319.09319950 0 1262.70725922 0 1299.32929930 0 9349
0.09450000 0.09448040 20794.75422630 0 1030.42258405 0 7376.66580156 0 1380.25074391 0 225.79657156 0 9564
0.09550000 0.09549270 19995.76877235 0 806.31548230 0 8031.31005948 0 904.06867732 0 3198.74073787 0 10155
0.09650000 0.09649430 19115.17619408 0 719.69165557 0 7478.00026790 0 400.81013125 0 1648.84609313 0 9913
0.09750000 0.09749140 19188.12801732 0 275.37795787 0 8166.71493819 0 -556.50663265 0 3638.72228878 0 10476
0.09850000 0.09850240 18581.80731689 0 213.10924908 0 7505.95576627 0 -317.75745925 0 1731.71217032 0 10575
0.09950000 0.09950330 18906.54971651 0 -18.76828971 0 8531.94616174 0 -832.91873039 0 3153.73317234 0 10882
0.10050000 0.10051200 18796.50374586 0 -48.18923172 0 8508.32955456 0 78.00685628 0 1731.39743209 0 10875
0.10150000 0.10150300 19138.89396712 0 -19.84401999 0 8250.75004305 0 870.87728384 0 1753.09188801 0 11118
0.10250000 0.10250800 18880.92103285 0 225.66618001 0 8339.23644561 0 711.02511386 0 2171.65999928 0 11575
0.10350000 0.10349800 18395.43732777 0 586.62708035 0 7418.67211334 0 905.50186029 0 1594.59871270 0 11364
0.10450000 0.10450100 17702.56361672 0 752.79874417 0 7240.87874073 0 968.61136975 0 3134.10699616 0 12093
0.10550000 0.10551000 17274.74444989 0 451.79997109 0 7068.16614225 0 1106.71962496 0 3331.58274821 0 12067
0.10650000 0.10649700 16604.23963379 0 341.73826352 0 5878.05100546 0 1137.99223935 0 3417.47256044 0 12054
0.10750000 0.10749900 16560.40109594 0 262.97277572 0 5779.51546115 0 605.28768463 0 2896.70445273 0 12807
0.10850000 0.10850100 16123.36459552 0 228.31897358 0 5031.70868997 0 48.69708432 0 2000.44240734 0 12736
0.10950000 0.10950300 16132.80674213 0 311.17493419 0 4381.50448908 0 -512.84569708 0 1790.08486956 0 12933
0.11050000 0.11050200 15723.08502299 0 292.39517901 0 4525.58715015 0 -582.07686493 0 493.72085393 0 13428
0.11150000 0.11150900 15508.61340704 0 305.02292604 0 4557.00476895 0 -581.77224330 0 242.68677335 0 13453
0.11250000 0.11250000 14953.66248045 0 388.63425837 0 4742.18324909 0 -163.47615578 0 -1177.48064537 0 13668
0.11350000 0.11349100 14806.74717540 0 321.46012960 0 4407.30178251 0 -311.87747486 0 -1250.05028649 0 13791
0.11450000 0.11448600 14460.64753939 0 124.64420376 0 4931.58821391 0 108.15855299 0 -2013.86374431 0 14205
0.11550000 0.11549300 14604.41546224 0 -74.26338237 0 5023.45805233 0 383.56360083 0 -1702.50895972 0 14776
0.11650000 0.11649800 14577.88752652 0 -363.10449243 0 4538.94104322 0 692.53311934 0 -1913.72078695 0 14553
0.11750000 0.11747300 15135.42380277 0 -372.75571515 0 4541.68376200 0 697.46776501 0 -1372.40476970 0 14568
0.11850000 0.11849100 15303.69634422 0 -88.82755630 0 4109.30089098 0 439.10253203 0 -823.11800701 0 16015
0.11950000 0.11950300 15238.95019600 0 188.91262432 0 4089.88828717 0 489.59216291 0 -593.15677436 0 15270
0.12050000 0.12050700 15132.27642057 0 414.47876253 0 3761.13297524 0 258.73617446 0 1160.84448229 0 15999
0.12150000 0.12150000 14883.74563291 0 582.43431763 0 3843.90912722 0 -259.28022196 0 266.09430443 0 15670
0.12250000 0.12250700 14357.79558520 0 406.25847465 0 4374.90622710 0 105.49238305 0 1854.41511369 0 16887
0.12350000 0.12352200 14156.70034362 0 253.42946325 0 4493.00050368 0 -13.95032200 0 1145.71456641 0 16407
0.12450000 0.12449800 14028.10729926 0 146.48928439 0 4638.45452414 0 -105.73034762 0 2178.51679622 0 16306
0.12550000 0.12549900 13996.29625769 0 138.05430008 0 4962.06161804 0 311.65490997 0 1747.42660004 0 17523
0.12650000 0.12650100 13766.98698278 0 101.99350569 0 5067.92606662 0 616.44403048 0 2194.57968612 0 17154
0.12750000 0.12750600 13791.04197535 0 87.37987290 0 4407.90877765 0 511.90710274 0 2100.74273381 0 18007
0.12850000 0.12850300 13537.45289485 0 82.64103936 0 4361.33876167 0 738.98623255 0 1916.20497076 0 17496
0.12950000 0.12949900 13345.01295434 0 166.59094009 0 3859.73596345 0 332.18820666 0 1824.59366731 0 18405
0.13050000 0.13049000 13327.47753920 0 237.50932962 0 3656.53872019 0 80.90402160 0 1786.54406458 0 18100
0.13150000 0.13148800 12809.73316653 0 327.31426051 0 3388.22438724 0 159.94209519 0 1740.36747138 0 19059
0.13250000 0.13249300 12686.98526055 0 454.61575410 0 3565.36580211 0 -44.10977475 0 1426.95564770 0 18957
0.13350000 0.13349100 12287.82975309 0 387.03471377 0 3324.11895612 0 -74.64095583 0 1356.45428631 0 19468
0.13450000 0.13450700 12014.56953382 0 458.13295371 0 3944.72652363 0 -158.04804554 0 1145.17501517 0 19953
0.13550000 0.13551000 11792.79149490 0 270.26795805 0 4086.56105455 0 -404.48132777 0 1420.67212394 0 19956
0.13650000 0.13649900 11522.79106434 0 74.18391097 0 3975.02007735 0 250.82050822 0 1633.76113985 0 19723
0.13750000 0.13749600 11637.10848227 0 -67.81124885 0 4394.16146181 0 153.40902898 0 1237.10105685 0 20946
0.13850000 0.13851100 11766.93799822 0 -115.46284024 0 3964.20657135 0 517.08342241 0 1318.21359252 0 20955
0.13950000 0.13949800 11830.89730088 0 -77.89782197 0 4412.22518753 0 568.72634406 0 1432.17130964 0 20506
0.14050000 0.14048300 11817.85814603 0 -94.11054974 0 3151.19278528 0 383.46805530 0 1460.79000640 0 21447
0.14150000 0.14148400 11975.90169531 0 12.77893378 0 3874.58486307 0 441.69350202 0 1290.11196570 0 21771
0.14250000 0.14249400 11873.16214762 0 146.06551186 0 3063.83044779 0 195.43557393 0 1122.27668557 0 22470
0.14350000 0.14350900 11643.17843367 0 254.01172896 0 3150.88928771 0 -95.21157148 0 859.20836432 0 22519
0.14450000 0.14449900 11363.51104348 0 243.32074605 0 2869.29974624 0 -245.04393781 0 588.08162055 0 22218
0.14550000 0.14550500 11346.76247389 0 148.64186901 0 3168.34601829 0 -203.05336293 0 603.91520117 0 23559
0.14650000 0.14650700 11158.18931723 0 66.64705466 0 2800.51820442 0 -105.57365295 0 -174.69994553 0 23044
0.14750000 0.14750500 11182.78386103 0 106.45390831 0 3015.42820575 0 -172.70135783 0 -315.20021121 0 23649
0.14850000 0.14849900 11087.45190218 0 149.21739032 0 2691.04550695 0 -118.45285334 0 -988.91423310 0 23640
0.14950000 0.14949500 10938.41211414 0 175.02704847 0 2738.25624002 0 22.64125592 0 -714.81770942 0 24457
0.15050000 0.15050000 10824.33074987 0 164.19780555 0 2699.12753483 0 -19.20172920 0 -1123.28609600 0 24591
0.15150000 0.15149900 10637.02778674 0 95.84914119 0 2551.54903138 0 168.39056828 0 -933.69116419 0 25020
0.15250000 0.15250500 10647.34670411 0 92.28012218 0 2825.50617100 0 -68.98331150 0 -1235.45992184 0 25297
0.15350000 0.15350100 10638.34294287 0 136.27602914 0 2644.81271049 0 72.04065610 0 -814.72011685 0 25452
0.15450000 0.15450400 10502.63456660 0 143.67462545 0 3000.51186223 0 -180.17301837 0 -559.93952738 0 26061
0.15550000 0.15549900 10411.95623715 0 299.78703093 0 3105.71311242 0 16.37672886 0 -161.35392092 0 26128
0.15650000 0.15649500 10250.95639673 0 195.15455767 0 3340.27177122 0 71.48671683 0 251.28137490 0 26331
0.15750000 0.15749700 10070.17301102 0 313.17914221 0 3452.66703788 0 294.01270865 0 444.54750324 0 27345
0.15850000 0.15849900 9938.85972918 0 272.84993552 0 3454.44306070 0 202.01247868 0 1109.68041236 0 26980
0.15950000 0.15949700 9658.66402841 0 146.60169090 0 3572.96448200 0 325.18078500 0 1093.04312521 0 27777
0.16050000 0.16050000 9531.24001173 0 137.20563095 0 3336.30382151 0 385.35311242 0 1462.36369750 0 28224
0.16150000 0.16150500 9405.85055282 0 62.65122813 0 3123.02371454 0 521.57406237 0 1380.07089350 0 28075
0.16250000 0.16249700 9275.86366777 0 94.08829325 0 2772.00067352 0 492.41581438 0 1564.64237850 0 28590
0.16350000 0.16349900 9152.69985771 0 119.72754313 0 2554.06693714 0 357.88995456 0 1297.67692364 0 29163
0.16450000 0.16449100 9092.87711452 0 56.95637725 0 2423.73159192 0 289.20395827 0 1513.78967459 0 28996
0.16550000 0.16550500 8984.46103822 0 106.42490743 0 2172.90771151 0 118.20893122 0 1290.82012669 0 30777
0.16650000 0.16650700 8888.70193464 0 31.53957985 0 2272.42119243 0 -41.70213977 0 1376.44016331 0 29211
0.16750000 0.16749900 8872.32430653 0 76.50330684 0 2099.75355655 0 88.54845095 0 1201.38950948 0 30922
0.16850000 0.16850800 8845.68396429 0 79.50242486 0 2295.40832317 0 58.61752062 0 1021.75267015 0 30867
0.16950000 0.16949900 8752.03810305 0 133.71203671 0 1973.02646021 0 -264.63189577 0 672.69561893 0 30852
0.17050000 0.17049200 8691.46223626 0 183.96786206 0 2153.69743941 0 -150.30436125 0 378.65031239 0 31257
0.17150000 0.17149500 8522.80751270 0 243.54443500 0 1997.86829832 0 -363.34054610 0 151.75665332 0 32608
0.17250000 0.17250900 8396.93470581 0 137.59118527 0 1999.48695203 0 -97.83154235 0 385.01701697 0 32361
0.17350000 0.17350400 8236.04727190 0 143.91967163 0 2117.81728227 0 -57.08485789 0 -301.71592660 0 32508
0.17450000 0.17449800 8281.49322280 0 86.48477988 0 2181.21455240 0 8.57361525 0 -40.19915236 0 32791
0.17550000 0.17549800 8092.02081408 0 111.79557794 0 2429.01469776 0 -6.20160190 0 -436.02596592 0 33633
0.17650000 0.17650100 8113.22068136 0 136.65034281 0 2664.92223465 0 -274.37416776 0 269.56991364 0 33984
0.17750000 0.17750300 8022.25009500 0 100.64496482 0 2854.29347752 0 -162.77024291 0 277.93408184 0 34069
