### header ###
fiducial parameters:
Omega_m = 0.31
Omega_nu = 0
Omega_de = 0.69
Omega_k = 0
H_0 = 100
w_de = -1
zeff = 0
beta = 0
fgrowth = 0
b_1 = 2
gamma = 0.55
Lx = 3500 Ly = 3500 Lz = 3500
nx = 700 ny = 700 nz = 700
xoffset = 857.220397 yoffset = 15.9954215 zoffset = 262.898189
bins = 400 dk = 0.001
kx_ny = 0.628318531 ky_ny = 0.628318531 kz_ny = 0.628318531
############################
A(data) = 3.11269555 (not used)
A(ran) = 3.11593041 (used)
Ngal = 190041
weighted Ngal = 0
Nran = 9360983
weighted Nran = 0
SN(data) = 3430.64839
SN(ran) = 69.9720868
SN(data+ran) = 3500.62048
############################
13 columns: k_central k_mean P_0(k) sigma^{lin}_{P_0(k)} P^img_1(k) sigma^{lin}_{P_1(k)} P_2(k) sigma^{lin}_{P_2(k)} P^img_3(k) sigma^{lin}_{P_3(k)} P_4(k) sigma^{lin}_{P_4(k)} N_modes
### header ###
0.00050000 0 0 0 0 0 0 0 0 0 0 0 0
0.00150000 0.00179520 11001.47216474 0 -15521.98978141 0 14695.46473316 0 -30926.62716919 0 66537.68312401 0 3
0.00250000 0.00253879 21603.85626592 0 -18139.71252364 0 -14480.54349118 0 6586.21200151 0 -33990.82855846 0 6
0.00350000 0.00331552 35207.40418707 0 -18971.74549075 0 -8775.10391835 0 2278.94076985 0 16242.06586724 0 7
0.00450000 0.00420575 50240.31325518 0 -17180.88501629 0 -14843.16688377 0 -5057.83196227 0 -12065.15246211 0 24
0.00550000 0.00557378 66665.15210330 0 -8282.99947000 0 2656.16576773 0 -15316.84790557 0 7258.57152498 0 45
0.00650000 0.00659388 74352.52073172 0 2171.97473750 0 6268.03414192 0 -30295.23981763 0 -28089.71173770 0 40
0.00750000 0.00754703 76586.82487752 0 1664.70665131 0 28222.35141633 0 -3988.00302894 0 13984.94320046 0 57
0.00850000 0.00846663 69712.38010997 0 8449.47350733 0 41550.05376854 0 -15029.98649892 0 -17576.78073504 0 75
0.00950000 0.00948925 69735.87307000 0 16779.25656567 0 48273.08697075 0 -16892.56232504 0 -27300.16843036 0 112
0.01050000 0.01054430 57394.65022593 0 17159.86499942 0 61807.39248340 0 -1763.17475171 0 -6163.22631450 0 105
0.01150000 0.01145670 49572.84341477 0 8166.51260648 0 45770.91811803 0 4664.15065171 0 -24410.64675345 0 144
0.01250000 0.01249090 54548.06783482 0 -13655.92935356 0 41659.31289365 0 27461.58417486 0 -22429.36965561 0 169
0.01350000 0.01339930 65253.43877800 0 -28816.98184000 0 16945.84300951 0 43683.64168379 0 -43223.89906889 0 180
0.01450000 0.01448870 84117.72364776 0 -15328.76299535 0 5019.92848800 0 24642.99100406 0 -44207.11878833 0 267
0.01550000 0.01550050 87264.99344593 0 -7441.01852700 0 -20730.68251714 0 11524.36475544 0 -50119.36385331 0 238
0.01650000 0.01653350 86410.36677086 0 8936.49718155 0 -12354.82403145 0 -7749.34957655 0 3310.30419637 0 315
0.01750000 0.01747870 79025.59646012 0 11351.25873418 0 -21319.24298941 0 -15558.29708327 0 -3022.24004009 0 297
0.01850000 0.01844180 73779.35995095 0 4017.46477451 0 356.64111826 0 5654.55314697 0 23989.00994453 0 388
0.01950000 0.01947590 72681.93522008 0 6126.26705490 0 5638.35536927 0 -4194.88720565 0 17906.24420796 0 399
0.02050000 0.02045430 66897.38394741 0 6862.66456559 0 6099.15460533 0 -3405.42258286 0 25640.03672390 0 462
0.02150000 0.02154770 62525.44525209 0 6693.12183061 0 20341.19396931 0 -2463.11883208 0 21140.06701676 0 571
0.02250000 0.02255340 60114.10085728 0 1321.75439751 0 21929.16069808 0 -11145.28505019 0 9356.21183919 0 510
0.02350000 0.02348930 59646.60219338 0 2309.00951056 0 34176.74892155 0 -7042.39133012 0 5783.07874743 0 555
0.02450000 0.02439640 62255.66963455 0 988.69953667 0 43698.47934276 0 -9678.14407613 0 4336.71049592 0 592
0.02550000 0.02547300 61021.10896477 0 -717.29514884 0 44975.64207881 0 -4121.55320028 0 6078.02218196 0 837
0.02650000 0.02652900 68078.77633923 0 -1395.50430695 0 49047.90502564 0 6472.58026327 0 10230.66702216 0 723
0.02750000 0.02749970 67456.83113429 0 -1878.94221359 0 47213.31841983 0 16329.51812993 0 6656.79204745 0 826
0.02850000 0.02848090 68104.40502290 0 -502.54026849 0 41763.85094545 0 20200.01139613 0 12801.07786547 0 831
0.02950000 0.02946900 68536.38323049 0 3887.79262768 0 42829.68944776 0 15358.77553280 0 23997.44043258 0 996
0.03050000 0.03053250 61492.20463690 0 4662.54323866 0 31340.62033561 0 13652.33234533 0 23770.71650733 0 1041
0.03150000 0.03150510 59757.09779007 0 4219.06584537 0 30191.26379837 0 7069.50377969 0 23657.29834146 0 1036
0.03250000 0.03246190 53513.47834154 0 1005.82804026 0 22907.09731167 0 4670.67022914 0 25008.53696583 0 1059
0.03350000 0.03345080 55012.98114905 0 718.50014659 0 22011.89188746 0 2139.00590890 0 15196.46053624 0 1302
0.03450000 0.03451200 53360.60549160 0 451.22332571 0 17507.42592003 0 -5598.05763640 0 11930.60187286 0 1339
0.03550000 0.03553350 53778.75769879 0 2264.58645887 0 25909.02549589 0 -5899.65553616 0 9829.25214391 0 1365
0.03650000 0.03647120 52011.16537134 0 2698.80155596 0 31562.39837454 0 -7573.33222675 0 3049.99320674 0 1308
0.03750000 0.03744890 50532.90739371 0 1649.26199720 0 35084.31906157 0 -2417.13332994 0 3940.46631700 0 1579
0.03850000 0.03847530 49429.41271145 0 839.60691757 0 35099.15672053 0 1929.37901342 0 3742.09131290 0 1662
0.03950000 0.03950240 50980.39769931 0 401.53515322 0 39889.13521653 0 6787.54329675 0 11470.63444495 0 1683
0.04050000 0.04050350 49492.02313602 0 1555.84094898 0 34372.11143125 0 8230.52811239 0 3476.15999791 0 1822
0.04150000 0.04152450 49568.00993496 0 1752.37248636 0 32227.05805226 0 11123.60183493 0 13367.04462977 0 1887
0.04250000 0.04250150 44699.57169686 0 2429.88022787 0 25815.27846879 0 5408.66391223 0 3914.68026423 0 1920
0.04350000 0.04349210 43661.04797582 0 2247.07352503 0 19628.08708693 0 5468.39673022 0 4999.52670692 0 2005
0.04450000 0.04448520 40514.56502320 0 1001.66787542 0 16386.95785516 0 2600.81680353 0 1627.50009739 0 2151
0.04550000 0.04548030 40613.14553011 0 -95.60791682 0 13737.31166485 0 1756.68889624 0 1298.30640008 0 2274
0.04650000 0.04648670 40494.55666490 0 -1364.21033532 0 11284.26445583 0 2425.15915456 0 -78.10914621 0 2311
0.04750000 0.04749250 41337.04343719 0 -382.47775397 0 8513.84871406 0 2477.73167803 0 -1062.33141928 0 2568
0.04850000 0.04851840 41567.70159019 0 112.26925896 0 7644.27197351 0 1061.80872903 0 1887.60875530 0 2493
0.04950000 0.04949480 41221.15232815 0 1487.28422017 0 8351.29766384 0 1017.04396155 0 2182.86692805 0 2644
0.05050000 0.05050630 40163.85672040 0 855.93958308 0 9881.24015354 0 -378.77845581 0 6082.54092355 0 2829
0.05150000 0.05149060 39990.18866660 0 -65.18711894 0 10264.33277110 0 -979.70814015 0 5409.39455453 0 2784
0.05250000 0.05249300 39753.57296872 0 645.41231148 0 14751.10595428 0 -3249.53723852 0 4655.16937178 0 3055
0.05350000 0.05348950 41639.97897439 0 748.41713852 0 17080.84322478 0 -3098.72142766 0 5232.81517220 0 3009
0.05450000 0.05448610 40463.98209491 0 1612.48258801 0 20490.35740451 0 -3188.56794896 0 3971.06336829 0 3336
0.05550000 0.05550870 39640.04239633 0 1386.00595708 0 20939.98343375 0 -5854.00725354 0 1887.44014554 0 3349
0.05650000 0.05647670 38612.42210651 0 2111.73609023 0 23444.73763614 0 333.60115646 0 -1015.00041125 0 3324
0.05750000 0.05747970 37104.93843697 0 2039.38002147 0 21512.46977548 0 831.68675507 0 -2896.63700882 0 3639
0.05850000 0.05849280 34952.35382199 0 1693.94358386 0 20334.11235935 0 4219.99881938 0 -3352.80509679 0 3846
0.05950000 0.05951020 34019.15499830 0 544.82759654 0 18452.87705301 0 5144.69971112 0 -2177.46017505 0 3787
0.06050000 0.06049470 32735.36027831 0 69.07143821 0 15900.79971105 0 3477.08173127 0 -3893.04201157 0 3930
0.06150000 0.06148310 32144.66408240 0 118.89123872 0 14189.63545027 0 2412.08627776 0 -4114.51655292 0 4083
0.06250000 0.06249100 31849.70940722 0 614.77254571 0 13197.42321024 0 468.01348571 0 -4934.02743511 0 4303
0.06350000 0.06350600 30983.39245538 0 478.57070487 0 12157.77542413 0 1001.40372013 0 -1407.23954631 0 4470
0.06450000 0.06451750 31372.65619020 0 85.81955817 0 12552.88429733 0 406.58782572 0 -1460.48650883 0 4479
0.06550000 0.06550280 31439.87528157 0 -235.46802745 0 11796.38850313 0 2381.88264925 0 -2917.65702569 0 4636
0.06650000 0.06648880 30903.80864821 0 171.21984006 0 11845.84736635 0 934.57355527 0 -2258.67387658 0 4653
0.06750000 0.06749660 31066.23605127 0 720.85393886 0 11917.67512452 0 -414.56419148 0 -2613.26020389 0 5220
0.06850000 0.06852730 30929.21251886 0 814.12661049 0 13502.71928410 0 -1714.16551452 0 -1824.62738926 0 5029
0.06950000 0.06949320 29983.31175985 0 692.20376827 0 13037.80596986 0 -720.96522130 0 -1849.39054282 0 5040
0.07050000 0.07048030 30171.25544007 0 522.48680321 0 14894.64906411 0 -620.94478703 0 -782.80341317 0 5475
0.07150000 0.07148790 29620.57596076 0 399.02848810 0 13807.79054493 0 1584.36972053 0 -2083.21855932 0 5509
0.07250000 0.07249820 29391.37909235 0 448.90437946 0 13980.78415968 0 2858.94710692 0 -2076.10322741 0 5916
0.07350000 0.07351270 27728.66203622 0 942.83768169 0 11954.54445892 0 2371.74358229 0 -872.68028422 0 5721
0.07450000 0.07449140 27293.64885293 0 777.46972439 0 10317.56849296 0 3521.89820573 0 -500.06395313 0 6028
0.07550000 0.07549160 25911.27362604 0 371.42032584 0 8589.95916016 0 3402.92715840 0 181.44208784 0 6183
0.07650000 0.07648840 25686.12339190 0 443.11207214 0 6507.75225941 0 1418.36779054 0 -324.40967636 0 6330
0.07750000 0.07749960 25641.83522802 0 322.27732491 0 7041.82929759 0 732.63076863 0 1707.12886717 0 6583
0.07850000 0.07848650 25027.98329160 0 280.55090533 0 6766.43335468 0 11.58225411 0 2065.03118644 0 6549
0.07950000 0.07947320 25380.26528550 0 413.07817745 0 8907.84476284 0 -1456.63096563 0 4675.22269268 0 6828
0.08050000 0.08048110 25545.16563173 0 624.70928096 0 10331.40573401 0 -897.69298022 0 4520.60754188 0 7147
0.08150000 0.08149960 25066.76353662 0 739.31333549 0 12001.86759849 0 -293.34613806 0 6838.12622504 0 7386
0.08250000 0.08250610 24913.55346715 0 882.83958435 0 12834.79981766 0 -164.45409239 0 6491.38587194 0 7227
0.08350000 0.08350160 24012.50290456 0 682.42889840 0 12820.86141075 0 793.65850958 0 5704.05697279 0 7798
0.08450000 0.08449610 23220.48665405 0 505.78319623 0 12405.85658577 0 1669.64129698 0 4915.21058579 0 7371
0.08550000 0.08548940 22776.81816970 0 314.59658827 0 10241.31191840 0 1249.62314176 0 2647.19572845 0 8256
0.08650000 0.08650700 22361.58853170 0 39.22616164 0 8130.74485585 0 2092.13239535 0 1730.05979466 0 8037
0.08750000 0.08749060 21733.57337536 0 70.85701557 0 6558.91970153 0 2337.61696667 0 -261.03263941 0 8155
0.08850000 0.08849210 21124.77973177 0 303.54927673 0 5333.48644014 0 739.69439355 0 -1003.94860345 0 8718
0.08950000 0.08949900 21061.49486815 0 540.71351837 0 4561.57971379 0 16.73080936 0 -2385.24360381 0 8571
0.09050000 0.09049190 20177.08046864 0 935.60207481 0 5234.91717388 0 -1897.09586452 0 -1138.22829302 0 8932
0.09150000 0.09150830 20005.88535800 0 453.31408674 0 5763.75606882 0 -1503.60564503 0 -629.70125395 0 9285
0.09250000 0.09250820 19799.50701058 0 126.21227454 0 7200.82830218 0 -149.33878935 0 859.56356888 0 9204
0.09350000 0.09350330 19746.45113913 0 103.01662972 0 7559.16900683 0 -31.41435900 0 237.48797238 0 9349
0.09450000 0.09448040 19861.21818310 0 390.09891516 0 7987.30291187 0 470.10986707 0 -243.47923922 0 9564
0.09550000 0.09549270 19383.15330751 0 754.08692274 0 7026.12610852 0 209.93938557 0 -634.83148694 0 10155
0.09650000 0.09649430 19089.32269740 0 577.33106219 0 8326.20853141 0 490.67576164 0 137.56645584 0 9913
0.09750000 0.09749140 18157.13553228 0 649.75120266 0 7389.68247511 0 -339.03151483 0 -284.04787178 0 10476
0.09850000 0.09850240 17938.95450159 0 296.37661750 0 7504.94410770 0 154.71182040 0 -1229.97448429 0 10575
0.09950000 0.09950330 17704.47452734 0 95.95244277 0 7572.35429014 0 61.85718857 0 -729.66998123 0 10882
0.10050000 0.10051200 17593.07967860 0 -13.24620763 0 6799.33473937 0 1049.74863486 0 -1500.97533276 0 10875
0.10150000 0.10150300 17608.70418311 0 -158.90345906 0 6481.25804563 0 1210.94406260 0 -362.76727291 0 11118
0.10250000 0.10250800 17167.17142240 0 271.35605304 0 5732.14735897 0 1003.93511467 0 -1147.64795833 0 11575
0.10350000 0.10349800 17160.20221895 0 171.92800106 0 5299.62960014 0 803.51768433 0 -1970.95818047 0 11364
0.10450000 0.10450100 16679.66440020 0 505.72474484 0 4486.45844496 0 882.80136613 0 -434.31513888 0 12093
0.10550000 0.10551000 16142.92332779 0 249.22208768 0 3616.54448489 0 1064.53795902 0 -1470.32207822 0 12067
0.10650000 0.10649700 15940.81642765 0 128.56381867 0 3293.04979750 0 586.31346619 0 -689.30705258 0 12054
0.10750000 0.10749900 16156.74932819 0 -18.08575740 0 3079.72472793 0 560.58586480 0 -1141.89274516 0 12807
0.10850000 0.10850100 15879.21766164 0 318.21720187 0 2911.19365152 0 -276.73245628 0 -413.05457209 0 12736
0.10950000 0.10950300 15704.31313627 0 372.36903677 0 3655.09991689 0 -546.75199595 0 64.54505297 0 12933
0.11050000 0.11050200 15392.72229800 0 463.66335387 0 4371.68016034 0 -338.27501903 0 1203.95237784 0 13428
0.11150000 0.11150900 15267.05182283 0 424.93144365 0 4720.51127448 0 -131.70445648 0 2060.81594242 0 13453
0.11250000 0.11250000 15021.66841737 0 239.25163048 0 5448.10735565 0 152.80990230 0 1745.95407479 0 13668
0.11350000 0.11349100 15166.22318578 0 90.50477380 0 5417.13936288 0 54.35585271 0 1636.43641472 0 13791
0.11450000 0.11448600 14779.09517460 0 133.65470939 0 5288.20909900 0 -11.57472287 0 1335.56915725 0 14205
0.11550000 0.11549300 14861.37673795 0 129.95541123 0 5320.06510317 0 -69.59255477 0 1598.60038436 0 14776
0.11650000 0.11649800 14607.78765746 0 42.71998070 0 4634.14935491 0 1.27763484 0 133.93909785 0 14553
0.11750000 0.11747300 14581.25972173 0 331.98812308 0 4452.93882448 0 93.76074069 0 -62.37144834 0 14568
0.11850000 0.11849100 14158.27403473 0 203.94025028 0 3976.17786437 0 260.57514492 0 -429.80314168 0 16015
0.11950000 0.11950300 14047.89084455 0 99.28788106 0 3914.11823169 0 335.87738823 0 -228.05706642 0 15270
0.12050000 0.12050700 14051.26303977 0 -136.23106653 0 3638.51995707 0 768.01858526 0 -297.80080795 0 15999
0.12150000 0.12150000 14194.46893008 0 9.48830073 0 3613.03740186 0 -142.89227616 0 -757.74125830 0 15670
0.12250000 0.12250700 14148.04504256 0 97.87796624 0 3873.95538663 0 15.27255974 0 -169.15268440 0 16887
0.12350000 0.12352200 14062.39128399 0 154.24645746 0 3917.33305780 0 -389.55711580 0 -481.34489747 0 16407
0.12450000 0.12449800 13972.80329767 0 88.44908359 0 4051.90612835 0 -95.01283678 0 186.97923239 0 16306
0.12550000 0.12549900 13988.98983472 0 -50.67881104 0 4446.52041291 0 326.45659885 0 -326.48694861 0 17523
0.12650000 0.12650100 14044.74346234 0 84.79901949 0 3720.29569113 0 906.29882242 0 275.44652584 0 17154
0.12750000 0.12750600 13824.65152103 0 236.70449903 0 4282.13713662 0 314.55724599 0 327.52108848 0 18007
0.12850000 0.12850300 13653.68122341 0 379.68557633 0 4047.80329083 0 314.42123412 0 1167.26289386 0 17496
0.12950000 0.12949900 13370.52923150 0 392.40100043 0 4306.22585114 0 187.88410477 0 1446.24460435 0 18405
0.13050000 0.13049000 13128.63042777 0 237.63747304 0 4222.85394467 0 260.56840053 0 1705.00438418 0 18100
0.13150000 0.13148800 12869.75824143 0 149.56247830 0 4568.32410423 0 4.60818345 0 2256.93157572 0 19059
0.13250000 0.13249300 12921.91486083 0 115.18744430 0 4720.66864359 0 -37.41135858 0 1345.39348599 0 18957
0.13350000 0.13349100 12944.17134927 0 91.57454653 0 4950.76476405 0 -208.54104862 0 1600.18531611 0 19468
0.13450000 0.13450700 12764.88297011 0 160.05337763 0 4482.87267738 0 -42.45728669 0 544.14191685 0 19953
0.13550000 0.13551000 12700.02441540 0 162.85904405 0 4728.31228609 0 -165.16450152 0 926.08236771 0 19956
0.13650000 0.13649900 12400.34866691 0 234.16073977 0 4222.89890727 0 186.09234505 0 382.82846227 0 19723
0.13750000 0.13749600 12208.47075893 0 251.61297409 0 4464.29188172 0 412.73308948 0 237.93984654 0 20946
0.13850000 0.13851100 12047.95426649 0 236.48643040 0 3976.40267739 0 206.07709798 0 431.31051294 0 20955
0.13950000 0.13949800 11809.87728401 0 161.63493719 0 3908.01455834 0 809.84504663 0 -170.48132931 0 20506
0.14050000 0.14048300 11617.43734349 0 106.66242238 0 3452.63331593 0 294.93781421 0 939.93422160 0 21447
0.14150000 0.14148400 11510.87597456 0 39.21008751 0 3407.11992112 0 336.40007849 0 311.57060509 0 21771
0.14250000 0.14249400 11565.95516315 0 86.09225636 0 3013.14635365 0 566.87500888 0 1124.15499830 0 22470
0.14350000 0.14350900 11369.13136885 0 101.15236780 0 2682.22159613 0 549.80383262 0 880.04628264 0 22519
0.14450000 0.14449900 11260.09705676 0 117.18940420 0 2427.55341317 0 408.51447326 0 1102.86070956 0 22218
0.14550000 0.14550500 11281.11707362 0 4.06333787 0 2417.57171532 0 137.29555616 0 968.73951317 0 23559
0.14650000 0.14650700 11185.27928549 0 -26.37079143 0 2447.58425277 0 -181.70174687 0 587.89839795 0 23044
0.14750000 0.14750500 11233.70400884 0 84.53171681 0 2492.18715487 0 -405.80322830 0 554.77894463 0 23649
0.14850000 0.14849900 11170.82380865 0 119.19361222 0 2940.64415643 0 -697.18450061 0 375.14322937 0 23640
0.14950000 0.14949500 11149.53401617 0 220.44152555 0 3211.22910083 0 -436.17546657 0 529.93373432 0 24457
0.15050000 0.15050000 11110.29290446 0 251.50169165 0 3427.15076072 0 -214.87290718 0 160.37036398 0 24591
0.15150000 0.15149900 10788.32694558 0 252.15364939 0 3480.04926306 0 167.36879312 0 670.80943774 0 25020
0.15250000 0.15250500 10614.79377959 0 218.32603508 0 3295.17428049 0 481.94065196 0 370.79084940 0 25297
0.15350000 0.15350100 10456.04206932 0 162.90625478 0 3498.95603759 0 383.31630651 0 643.19115889 0 25452
0.15450000 0.15450400 10298.68419973 0 201.36164500 0 3275.36825390 0 -64.01100965 0 355.32371400 0 26061
0.15550000 0.15549900 10260.24117423 0 80.36536962 0 3100.09278705 0 84.45157097 0 551.41236974 0 26128
0.15650000 0.15649500 10005.19080915 0 105.54510170 0 2894.62493234 0 31.63669908 0 197.72417042 0 26331
0.15750000 0.15749700 10088.19177415 0 119.30377060 0 2754.43153642 0 236.80791301 0 -40.92215102 0 27345
0.15850000 0.15849900 9887.68104641 0 38.44010293 0 2665.01215986 0 455.80613901 0 273.93353425 0 26980
0.15950000 0.15949700 9828.63390812 0 211.72664904 0 2486.66799536 0 415.64329395 0 186.04850651 0 27777
0.16050000 0.16050000 9511.88361117 0 302.55110695 0 2633.70694757 0 290.55958075 0 611.74543847 0 28224
0.16150000 0.16150500 9479.69038747 0 341.83718125 0 2508.32872932 0 39.12567022 0 677.84271290 0 28075
0.16250000 0.16249700 9058.79546150 0 358.56439360 0 3132.01623513 0 -129.48105577 0 1393.22245485 0 28590
0.16350000 0.16349900 8881.95754420 0 252.69095250 0 3176.25943641 0 -183.53397294 0 1609.52629687 0 29163
0.16450000 0.16449100 8868.80598285 0 51.89235169 0 3415.98879455 0 -30.20520221 0 1929.24412561 0 28996
0.16550000 0.16550500 8933.60833431 0 14.20267461 0 3301.19926928 0 43.86731392 0 1705.48773216 0 30777
0.16650000 0.16650700 8969.87067357 0 -81.91421888 0 3274.60388965 0 252.05697980 0 1628.54547791 0 29211
0.16750000 0.16749900 8926.16702353 0 11.35047189 0 3208.11544058 0 206.09395896 0 1918.07091878 0 30922
0.16850000 0.16850800 9019.61055305 0 52.79576279 0 3121.89964947 0 204.60007648 0 1657.58007874 0 30867
0.16950000 0.16949900 8881.27186451 0 84.54869020 0 2741.32493767 0 253.09561592 0 1635.98678869 0 30852
0.17050000 0.17049200 8797.59646047 0 153.92722298 0 2793.85249854 0 250.24723503 0 1278.29804178 0 31257
0.17150000 0.17149500 8709.75077500 0 64.34249644 0 2334.53702837 0 316.84809061 0 1352.55378051 0 32608
0.17250000 0.17250900 8543.36666288 0 92.60317848 0 2304.69310068 0 375.24776742 0 1246.62188802 0 32361
0.17350000 0.17350400 8433.02843531 0 148.43391697 0 2067.08822552 0 241.09172501 0 931.98033715 0 32508
0.17450000 0.17449800 8281.97657079 0 135.16095658 0 2006.88330021 0 71.56090512 0 1123.61769520 0 32791
0.17550000 0.17549800 8259.01192134 0 186.60941498 0 1815.93836624 0 -1.97864679 0 883.01269037 0 33633
0.17650000 0.17650100 8073.93460706 0 153.61698102 0 2263.48487510 0 -206.97747410 0 1217.35123352 0 33984
0.17750000 0.17750300 8051.40834299 0 135.40263058 0 2374.08163764 0 -197.20934862 0 1407.36319347 0 34069
