### header ###
fiducial parameters:
Omega_m = 0.31
Omega_nu = 0
Omega_de = 0.69
Omega_k = 0
H_0 = 100
w_de = -1
zeff = 0
beta = 0
fgrowth = 0
b_1 = 2
gamma = 0.55
Lx = 3500 Ly = 3500 Lz = 3500
nx = 700 ny = 700 nz = 700
xoffset = 857.220397 yoffset = 15.9954215 zoffset = 262.898189
bins = 400 dk = 0.001
kx_ny = 0.628318531 ky_ny = 0.628318531 kz_ny = 0.628318531
############################
A(data) = 3.07651757 (not used)
A(ran) = 3.08741232 (used)
Ngal = 188291
weighted Ngal = 0
Nran = 9360983
weighted Nran = 0
SN(data) = 3410.67558
SN(ran) = 69.3316776
SN(data+ran) = 3480.00726
############################
13 columns: k_central k_mean P_0(k) sigma^{lin}_{P_0(k)} P^img_1(k) sigma^{lin}_{P_1(k)} P_2(k) sigma^{lin}_{P_2(k)} P^img_3(k) sigma^{lin}_{P_3(k)} P_4(k) sigma^{lin}_{P_4(k)} N_modes
### header ###
0.00050000 0 0 0 0 0 0 0 0 0 0 0 0
0.00150000 0.00179520 21730.98802569 0 859.53659132 0 28004.95723119 0 -18597.65663442 0 58680.91788908 0 3
0.00250000 0.00253879 32699.95222851 0 -144.36480140 0 23940.33792686 0 -3152.05831538 0 -7868.73652796 0 6
0.00350000 0.00331552 38643.89592855 0 -820.01109115 0 36836.39929101 0 17436.49741391 0 28603.85910214 0 7
0.00450000 0.00420575 51182.27978644 0 -489.40781624 0 60815.18024337 0 7971.85825777 0 2973.52305982 0 24
0.00550000 0.00557378 75940.15024097 0 -16905.60147989 0 72029.86507118 0 51622.68848208 0 19082.12868093 0 45
0.00650000 0.00659388 92379.48952853 0 -11481.87509568 0 98322.42157001 0 42126.81155755 0 -35831.93474169 0 40
0.00750000 0.00754703 109933.00211656 0 -6776.53869969 0 54265.59028195 0 57237.05630268 0 -13653.56881691 0 57
0.00850000 0.00846663 109947.39014949 0 2905.85434242 0 57714.89636526 0 64500.76480505 0 1424.86488666 0 75
0.00950000 0.00948925 92316.76669745 0 13946.38776845 0 10381.98866230 0 36398.12631901 0 11388.46528810 0 112
0.01050000 0.01054430 94069.29655292 0 -5842.56427110 0 -3644.90464668 0 43776.48945883 0 -17876.68129654 0 105
0.01150000 0.01145670 82934.19553230 0 -9591.48989964 0 -36019.20398287 0 13068.60535286 0 -15032.68425509 0 144
0.01250000 0.01249090 94803.19863915 0 -15309.87870212 0 -53119.83075294 0 -16288.93938079 0 -36806.61156657 0 169
0.01350000 0.01339930 93523.78777295 0 -5183.09777401 0 -48624.13249308 0 -38392.77979122 0 -25287.64232348 0 180
0.01450000 0.01448870 99333.63050977 0 2819.36877570 0 -43697.91731022 0 -51974.52084996 0 -25178.83282441 0 267
0.01550000 0.01550050 104733.63912094 0 9493.24661226 0 -20090.97708404 0 -57145.89462526 0 -27229.01511123 0 238
0.01650000 0.01653350 90936.75200721 0 10829.34408009 0 5305.54218242 0 -27833.76212056 0 -20303.08816333 0 315
0.01750000 0.01747870 87547.13377928 0 10820.73374163 0 12735.99449773 0 1144.69166719 0 -19948.33322626 0 297
0.01850000 0.01844180 79165.43015521 0 7975.65759772 0 27208.21990738 0 2692.34942244 0 119.79049078 0 388
0.01950000 0.01947590 73879.96377499 0 4938.69230517 0 24672.89113500 0 21781.57095398 0 -10639.46700795 0 399
0.02050000 0.02045430 70869.94232225 0 433.45635316 0 11779.52752703 0 19408.33236514 0 -6152.08682963 0 462
0.02150000 0.02154770 71609.57714034 0 -1751.78797252 0 2074.41712980 0 10462.77521911 0 -7462.48816989 0 571
0.02250000 0.02255340 67441.54384929 0 1684.87237872 0 -934.14978274 0 -1433.82368529 0 -6966.50569704 0 510
0.02350000 0.02348930 68351.69933898 0 -1540.49746073 0 -15124.74518458 0 -9303.17844905 0 -20509.91613678 0 555
0.02450000 0.02439640 71748.17436386 0 980.07908163 0 -13140.20829802 0 -15563.80500213 0 -34989.56037591 0 592
0.02550000 0.02547300 66559.48998643 0 3092.32549740 0 -10052.68255849 0 -17122.65844550 0 -34144.26344094 0 837
0.02650000 0.02652900 64133.08311964 0 3315.98072499 0 -6599.17247180 0 -7033.54493800 0 -38618.94168393 0 723
0.02750000 0.02749970 56925.57787093 0 1977.77001482 0 -964.43771613 0 -6247.51995433 0 -30212.62103476 0 826
0.02850000 0.02848090 58868.07472375 0 3624.66023472 0 -847.45963617 0 4961.28601314 0 -26677.43637986 0 831
0.02950000 0.02946900 55108.30186725 0 1646.08089305 0 1015.83221941 0 10312.19546191 0 -16046.59095103 0 996
0.03050000 0.03053250 54007.16772164 0 590.62875201 0 -5315.86109980 0 10988.25315948 0 -9964.17367463 0 1041
0.03150000 0.03150510 53223.69436569 0 -1930.52555979 0 -6758.36256745 0 9155.38637323 0 -803.39740937 0 1036
0.03250000 0.03246190 53528.76562653 0 -1261.58319414 0 -5903.27502570 0 4629.16974664 0 224.31168160 0 1059
0.03350000 0.03345080 55762.17052027 0 -415.43759004 0 -6652.68920993 0 -1595.95883144 0 5005.18075424 0 1302
0.03450000 0.03451200 54818.51789140 0 -114.63552835 0 -1071.47231646 0 -5336.77995081 0 5906.77086807 0 1339
0.03550000 0.03553350 56873.64606455 0 2500.44903316 0 6176.82750189 0 -10948.51745914 0 7015.33508381 0 1365
0.03650000 0.03647120 53961.75549269 0 2322.64441989 0 15244.90774089 0 -8756.41071619 0 8589.70062520 0 1308
0.03750000 0.03744890 54860.89514466 0 2245.08392985 0 21471.77861983 0 -5728.69647919 0 6929.84993501 0 1579
0.03850000 0.03847530 54645.63668316 0 2182.92313131 0 23729.01369312 0 -3442.89891240 0 11439.94746845 0 1662
0.03950000 0.03950240 52880.85451840 0 1551.19856023 0 26410.69573801 0 2529.85457547 0 6581.81690707 0 1683
0.04050000 0.04050350 52758.55623844 0 1622.94763384 0 26464.98808105 0 5131.44698390 0 9107.19770355 0 1822
0.04150000 0.04152450 49086.12323812 0 521.10083098 0 22415.76846822 0 9477.57714514 0 9617.29843372 0 1887
0.04250000 0.04250150 47224.78388358 0 2581.16814606 0 16820.06012783 0 5231.32016565 0 8667.85686973 0 1920
0.04350000 0.04349210 45074.11017922 0 2290.79965637 0 13411.44520016 0 5530.95095153 0 5333.68877186 0 2005
0.04450000 0.04448520 41702.25217944 0 2712.73996286 0 14708.50388801 0 1185.76500496 0 5998.93296342 0 2151
0.04550000 0.04548030 40341.00937592 0 2113.34350328 0 12325.82315256 0 -559.94177551 0 8535.72302039 0 2274
0.04650000 0.04648670 38569.70763373 0 859.54221164 0 13802.50743909 0 -2717.34862966 0 7146.70456891 0 2311
0.04750000 0.04749250 39838.66469475 0 -447.51391097 0 16046.14132500 0 -319.83135931 0 8825.66436534 0 2568
0.04850000 0.04851840 42253.94331732 0 -986.15465335 0 18120.26619788 0 746.82771050 0 8921.22113721 0 2493
0.04950000 0.04949480 41992.59818782 0 542.90094901 0 18880.92103285 0 -1699.21544905 0 8585.55282508 0 2644
0.05050000 0.05050630 42914.89358030 0 1337.40138332 0 22436.45126557 0 337.00482550 0 10781.14416976 0 2829
0.05150000 0.05149060 41063.78321792 0 1927.17584588 0 24027.45297003 0 536.64103061 0 8131.08207537 0 2784
0.05250000 0.05249300 38882.98456960 0 1923.25285877 0 21826.30874389 0 2683.28945795 0 10227.18242043 0 3055
0.05350000 0.05348950 37324.13112623 0 1191.61014334 0 21969.96426023 0 3655.48209902 0 4226.79941307 0 3009
0.05450000 0.05448610 36067.31396799 0 107.29246085 0 20600.17856215 0 934.22734323 0 3054.02860036 0 3336
0.05550000 0.05550870 35565.41891286 0 -144.63008076 0 19291.99163008 0 -1138.05968326 0 -2429.03717906 0 3349
0.05650000 0.05647670 36754.11772766 0 -704.64154831 0 20222.82991711 0 -2933.56254647 0 -3241.20791633 0 3324
0.05750000 0.05747970 37461.15465864 0 -856.02051577 0 19969.12843011 0 -2682.67122216 0 -6936.84161976 0 3639
0.05850000 0.05849280 39384.54240522 0 -224.27009119 0 20708.31362218 0 -3149.00085838 0 -6374.75287996 0 3846
0.05950000 0.05951020 39420.96211359 0 38.47877077 0 21392.30721916 0 493.89845621 0 -3975.19992776 0 3787
0.06050000 0.06049470 39462.77733431 0 722.97280152 0 22281.55509849 0 4746.43221507 0 -4391.86836906 0 3930
0.06150000 0.06148310 38920.30353003 0 1179.02061452 0 18185.57437863 0 5783.67450192 0 -843.02632352 0 4083
0.06250000 0.06249100 36997.92744201 0 1630.97345846 0 14353.07451190 0 7666.93312539 0 24.18291117 0 4303
0.06350000 0.06350600 35445.93079559 0 1645.45141661 0 12315.14453437 0 6525.82722578 0 2230.07766112 0 4470
0.06450000 0.06451750 33136.31428989 0 1444.49106284 0 8864.80431119 0 4586.30914540 0 3338.93413378 0 4479
0.06550000 0.06550280 31435.04180175 0 1263.01075678 0 7067.86264468 0 2377.90345889 0 2357.92882254 0 4636
0.06650000 0.06648880 29950.03943368 0 779.03329891 0 6032.41886194 0 531.10725826 0 2181.97891665 0 4653
0.06750000 0.06749660 29500.63821746 0 1316.59493882 0 6849.31067252 0 -1807.99122618 0 1761.71346712 0 5220
0.06850000 0.06852730 28381.06940465 0 1152.75121376 0 7459.49815680 0 -1414.44480343 0 2196.50183739 0 5029
0.06950000 0.06949320 27004.31450312 0 1696.21419531 0 8524.83082983 0 -1668.46102865 0 1255.22098583 0 5040
0.07050000 0.07048030 26563.23136843 0 893.20234026 0 9897.49413449 0 -236.10649641 0 2859.61030531 0 5475
0.07150000 0.07148790 25923.41352883 0 -55.11167406 0 10703.96586184 0 1131.49514323 0 2582.14608267 0 5509
0.07250000 0.07249820 26533.55605050 0 -647.93246537 0 8859.90338747 0 2221.80454219 0 4159.60280300 0 5916
0.07350000 0.07351270 27125.93834403 0 -267.27120056 0 9523.36031556 0 1395.08840287 0 2587.27181940 0 5721
0.07450000 0.07449140 27164.26896302 0 18.30517490 0 7062.72566730 0 296.77453653 0 2591.81304230 0 6028
0.07550000 0.07549160 26633.14821598 0 511.63283087 0 8561.64396097 0 -280.21031362 0 3307.65140280 0 6183
0.07650000 0.07648840 26485.22125236 0 631.38173123 0 8221.54683246 0 -502.43011011 0 2623.37678955 0 6330
0.07750000 0.07749960 25865.86139708 0 267.17902722 0 7498.75050915 0 820.35730319 0 1694.22460013 0 6583
0.07850000 0.07848650 25487.95071951 0 469.47701843 0 7986.67343543 0 1365.16579063 0 2144.34521800 0 6549
0.07950000 0.07947320 25220.08601259 0 352.80468417 0 7100.70782612 0 1807.05825216 0 2111.63492437 0 6828
0.08050000 0.08048110 24743.70723461 0 613.63611593 0 7400.29364940 0 272.41267421 0 1893.60002214 0 7147
0.08150000 0.08149960 24207.75300776 0 977.41954366 0 8553.88791197 0 -132.55200155 0 3823.85580632 0 7386
0.08250000 0.08250610 23392.46861024 0 805.07451446 0 8932.32690013 0 -787.81899152 0 3691.84560413 0 7227
0.08350000 0.08350160 22805.48182906 0 607.57403299 0 8773.88992808 0 -268.94043719 0 4335.45154304 0 7798
0.08450000 0.08449610 22874.38701805 0 287.64150782 0 9408.87428787 0 -115.70114204 0 4804.83863626 0 7371
0.08550000 0.08548940 22122.27507763 0 29.68914393 0 8819.47076679 0 1064.94599464 0 2653.41180830 0 8256
0.08650000 0.08650700 22501.87185282 0 36.68498773 0 8712.02138645 0 1367.17786711 0 3558.11558239 0 8037
0.08750000 0.08749060 22131.60481774 0 1.45950857 0 7143.15252328 0 877.81501347 0 1320.51792592 0 8155
0.08850000 0.08849210 22421.16398057 0 -126.03804445 0 7026.66565975 0 924.94144166 0 2432.00471086 0 8718
0.08950000 0.08949900 21853.51111866 0 500.57315461 0 7436.88196753 0 -622.59041830 0 55.79735376 0 8571
0.09050000 0.09049190 21691.19612210 0 527.46528742 0 6542.78936773 0 -986.01526928 0 307.94099897 0 8932
0.09150000 0.09150830 21069.81294969 0 471.36207556 0 8231.92195308 0 -1580.03082935 0 -553.14342995 0 9285
0.09250000 0.09250820 21146.02456165 0 356.72205095 0 7366.54921590 0 -400.08510927 0 -1583.89761320 0 9204
0.09350000 0.09350330 21064.52984385 0 244.71795893 0 7578.45796348 0 -569.36930928 0 -2372.71027825 0 9349
0.09450000 0.09448040 20454.83694820 0 82.25031434 0 6745.24472805 0 350.38344800 0 -4137.81842189 0 9564
0.09550000 0.09549270 20356.25644129 0 433.00897526 0 6897.36445439 0 547.69171435 0 -4013.99141343 0 10155
0.09650000 0.09649430 19935.06925840 0 282.83388150 0 5614.96357510 0 785.64504967 0 -5490.46212760 0 9913
0.09750000 0.09749140 19427.66628440 0 554.32369828 0 5960.99576720 0 793.81475462 0 -4466.37140210 0 10476
0.09850000 0.09850240 18754.23889911 0 626.67976703 0 5210.96334717 0 313.95587118 0 -5204.98332099 0 10575
0.09950000 0.09950330 18620.13793589 0 584.40705183 0 5134.61684741 0 271.90572086 0 -4217.67200468 0 10882
0.10050000 0.10051200 18004.93712138 0 639.75489196 0 5936.22137299 0 69.07514762 0 -3508.20709314 0 10875
0.10150000 0.10150300 17564.86564526 0 389.16706522 0 4915.87378418 0 731.77423104 0 -2947.48971273 0 11118
0.10250000 0.10250800 17345.22332998 0 167.20355556 0 5732.49581914 0 549.82406579 0 -1626.07253475 0 11575
0.10350000 0.10349800 17288.23323077 0 -101.93561634 0 5266.58208699 0 1180.47065847 0 -1491.47698289 0 11364
0.10450000 0.10450100 17411.88038881 0 -258.13142745 0 5284.27487124 0 1230.61520138 0 -255.81023308 0 12093
0.10550000 0.10551000 17692.22221804 0 -105.25801548 0 5429.29050632 0 820.01783554 0 188.78785309 0 12067
0.10650000 0.10649700 17791.25235098 0 -34.44393919 0 5178.23057225 0 738.25896245 0 1816.50039878 0 12054
0.10750000 0.10749900 17428.96617792 0 157.28592942 0 5692.34421473 0 515.07134593 0 1438.65716511 0 12807
0.10850000 0.10850100 17896.80206135 0 181.02505970 0 4874.20469192 0 -211.91211978 0 2000.31876018 0 12736
0.10950000 0.10950300 17358.59970435 0 544.60503166 0 5364.38698900 0 -366.84987726 0 1662.75077808 0 12933
0.11050000 0.11050200 16983.72400247 0 623.80103638 0 5479.59241834 0 -455.05301541 0 1438.24126103 0 13428
0.11150000 0.11150900 16504.53506181 0 480.54456314 0 5563.78489232 0 -566.92446775 0 1247.90332220 0 13453
0.11250000 0.11250000 16033.21457666 0 526.57277975 0 5252.80104920 0 -275.70955706 0 475.05687745 0 13668
0.11350000 0.11349100 16032.98976364 0 71.07991768 0 5848.04970865 0 483.13216094 0 1619.85645489 0 13791
0.11450000 0.11448600 15920.80806935 0 3.45558961 0 4616.68138368 0 1041.38334258 0 816.04201738 0 14205
0.11550000 0.11549300 15831.44489604 0 66.58568070 0 5401.44741446 0 1047.15991299 0 1786.21808571 0 14776
0.11650000 0.11649800 15744.77947890 0 264.89267887 0 4011.10256620 0 621.55627843 0 1363.54713692 0 14553
0.11750000 0.11747300 15257.60967622 0 432.17941524 0 4671.15357712 0 665.39818848 0 1248.74637101 0 14568
0.11850000 0.11849100 14972.77158669 0 451.15363367 0 4170.45003096 0 176.48046461 0 1378.03633572 0 16015
0.11950000 0.11950300 14419.73157073 0 209.89891923 0 3830.79128782 0 226.45414963 0 885.48900572 0 15270
0.12050000 0.12050700 14363.86553660 0 150.08966482 0 3916.19775207 0 310.40382555 0 1693.58388304 0 15999
0.12150000 0.12150000 14444.68581535 0 -86.86448906 0 3767.28161119 0 251.23416416 0 1430.06930795 0 15670
0.12250000 0.12250700 14317.32924257 0 35.13490199 0 4163.82928768 0 142.36508964 0 1829.42714712 0 16887
0.12350000 0.12352200 14533.26214311 0 120.13333062 0 4525.59839080 0 77.80407495 0 2003.32001393 0 16407
0.12450000 0.12449800 14284.95616847 0 19.61032686 0 4627.27007667 0 89.43724920 0 2150.71866696 0 16306
0.12550000 0.12549900 14409.61498507 0 215.72045224 0 4701.25603978 0 -278.91314252 0 2002.91535050 0 17523
0.12650000 0.12650100 14067.44957682 0 274.40226938 0 4749.29858100 0 296.89256337 0 2135.98217386 0 17154
0.12750000 0.12750600 13813.18605729 0 250.32479552 0 4145.22601072 0 -13.19393861 0 1593.47464763 0 18007
0.12850000 0.12850300 13620.07167773 0 168.20172534 0 3610.45205219 0 629.47868907 0 1349.64245197 0 17496
0.12950000 0.12949900 13475.85412885 0 16.60626295 0 2907.47299613 0 572.25028806 0 606.90071801 0 18405
0.13050000 0.13049000 13405.03802924 0 58.70429844 0 2468.39069727 0 573.57443672 0 295.41666593 0 18100
0.13150000 0.13148800 13110.64538660 0 155.52114725 0 2220.89404948 0 493.36677343 0 339.53172379 0 19059
0.13250000 0.13249300 13050.05827916 0 259.66802441 0 2181.06842394 0 18.92678289 0 592.03832961 0 18957
0.13350000 0.13349100 12909.10051899 0 223.57541897 0 2127.50672320 0 121.24952724 0 935.50877741 0 19468
0.13450000 0.13450700 12721.38165178 0 81.81417709 0 2542.01695956 0 -159.80046299 0 975.06013107 0 19953
0.13550000 0.13551000 12867.39770478 0 64.47322521 0 2906.23652455 0 -37.44957679 0 1728.68843527 0 19956
0.13650000 0.13649900 12719.47074116 0 84.57825311 0 3004.08638916 0 -84.60354457 0 2061.26556845 0 19723
0.13750000 0.13749600 12838.62163891 0 144.47271165 0 3394.44046709 0 89.53706618 0 2013.95366952 0 20946
0.13850000 0.13851100 12512.19314168 0 281.97059952 0 2918.19657692 0 -61.74972795 0 2379.58955650 0 20955
0.13950000 0.13949800 12435.98152972 0 489.66747527 0 3813.49192635 0 158.89334247 0 2557.94496165 0 20506
0.14050000 0.14048300 12053.23737233 0 378.14673124 0 3479.23993621 0 -1.86602671 0 2460.90442389 0 21447
0.14150000 0.14148400 11663.86123101 0 338.53242994 0 3618.61276462 0 28.72109909 0 2225.52519758 0 21771
0.14250000 0.14249400 11577.87025292 0 210.86898739 0 3629.15649501 0 -313.34213165 0 1472.25547014 0 22470
0.14350000 0.14350900 11256.16282900 0 106.54181020 0 3587.95951008 0 -173.10602126 0 1183.23585855 0 22519
0.14450000 0.14449900 11207.44584873 0 179.20744647 0 3915.56827563 0 -423.19588718 0 368.35837258 0 22218
0.14550000 0.14550500 11175.65728846 0 174.79099480 0 3644.83720278 0 -416.71227983 0 -6.36245561 0 23559
0.14650000 0.14650700 10957.64486754 0 226.52271760 0 3676.55831914 0 -90.57154326 0 -597.36077773 0 23044
0.14750000 0.14750500 10683.73269052 0 213.06091428 0 3438.38017080 0 33.47465788 0 -503.80146950 0 23649
0.14850000 0.14849900 10551.35154687 0 83.57569947 0 3057.01861345 0 510.93253833 0 -1113.03462254 0 23640
0.14950000 0.14949500 10544.60715643 0 43.52188872 0 2869.94046334 0 604.10854037 0 -798.87417152 0 24457
0.15050000 0.15050000 10428.21021811 0 90.39214248 0 2481.96940336 0 564.19860995 0 -928.14615118 0 24591
0.15150000 0.15149900 10229.55419774 0 133.09604905 0 2329.17523797 0 234.98130727 0 -675.85761398 0 25020
0.15250000 0.15250500 10233.74696046 0 180.36073724 0 2214.79037613 0 5.42861607 0 -895.12898779 0 25297
0.15350000 0.15350100 9991.02758923 0 190.60097005 0 2596.53411561 0 -124.43849985 0 -498.91291050 0 25452
0.15450000 0.15450400 9999.73909354 0 140.64414601 0 2318.29428806 0 -162.18123281 0 -693.93595255 0 26061
0.15550000 0.15549900 9846.31545172 0 75.18837552 0 2653.32188310 0 22.18241256 0 -157.87493952 0 26128
0.15650000 0.15649500 9940.41093899 0 86.26524997 0 2655.76110431 0 101.14596063 0 -206.93251150 0 26331
0.15750000 0.15749700 9773.86945775 0 56.79361263 0 2358.74939004 0 248.22841416 0 -325.85072778 0 27345
0.15850000 0.15849900 9810.42405393 0 89.04416364 0 2425.95724076 0 143.10135226 0 33.31953690 0 26980
0.15950000 0.15949700 9717.98094232 0 171.53907455 0 2294.58775567 0 14.96568998 0 236.82702212 0 27777
0.16050000 0.16050000 9547.25793902 0 170.64319468 0 2479.48521954 0 208.97493774 0 95.63118497 0 28224
0.16150000 0.16150500 9432.45717310 0 166.19414512 0 2546.98532718 0 -163.85271758 0 327.58403612 0 28075
0.16250000 0.16249700 9309.91159883 0 181.56011467 0 2691.39396712 0 131.97085991 0 237.24742246 0 28590
0.16350000 0.16349900 9167.30146301 0 73.98112963 0 2400.48592621 0 34.75687891 0 454.14589490 0 29163
0.16450000 0.16449100 9156.45423505 0 101.96686535 0 2633.14491504 0 291.75671005 0 141.84689564 0 28996
0.16550000 0.16550500 9024.78125239 0 100.26401917 0 2419.07796252 0 35.54451130 0 -70.52328065 0 30777
0.16650000 0.16650700 8888.62325009 0 155.90557751 0 2282.99864477 0 -14.30642581 0 -365.69883462 0 29211
0.16750000 0.16749900 8830.09318173 0 166.81912530 0 2275.56857463 0 41.95449238 0 -392.19304839 0 30922
0.16850000 0.16850800 8618.93755775 0 170.08341028 0 2114.36640250 0 -9.31576798 0 -369.10025553 0 30867
0.16950000 0.16949900 8469.23457131 0 84.34028853 0 1927.19832718 0 378.14785531 0 -388.90965432 0 30852
0.17050000 0.17049200 8374.89178973 0 150.20881572 0 1777.73139441 0 201.43470923 0 -514.48345989 0 31257
0.17150000 0.17149500 8300.78217946 0 101.21216806 0 1791.25389724 0 247.85185236 0 -250.98911798 0 32608
0.17250000 0.17250900 8187.76867701 0 123.27846470 0 1713.71588849 0 203.35124018 0 -23.52949214 0 32361
0.17350000 0.17350400 8106.76854784 0 84.27554238 0 1552.31138465 0 -48.61367869 0 -30.36032319 0 32508
0.17450000 0.17449800 8146.89767095 0 33.22848763 0 1866.51005388 0 -111.87864635 0 130.66469629 0 32791
0.17550000 0.17549800 8191.84903322 0 -17.63478249 0 1956.95232966 0 -191.02474259 0 -86.58796905 0 33633
0.17650000 0.17650100 8124.75358901 0 34.38886000 0 1945.56555047 0 -127.72976239 0 -298.68657122 0 33984
0.17750000 0.17750300 8191.65794216 0 65.73577510 0 2179.32612307 0 -232.32289337 0 -345.50725371 0 34069
