### header ###
fiducial parameters:
Omega_m = 0.31
Omega_nu = 0
Omega_de = 0.69
Omega_k = 0
H_0 = 100
w_de = -1
zeff = 0
beta = 0
fgrowth = 0
b_1 = 2
gamma = 0.55
Lx = 3500 Ly = 3500 Lz = 3500
nx = 700 ny = 700 nz = 700
xoffset = 857.220397 yoffset = 15.9954215 zoffset = 262.898189
bins = 400 dk = 0.001
kx_ny = 0.628318531 ky_ny = 0.628318531 kz_ny = 0.628318531
############################
A(data) = 3.05811916 (not used)
A(ran) = 3.05896628 (used)
Ngal = 187009
weighted Ngal = 0
Nran = 9360983
weighted Nran = 0
SN(data) = 3444.61378
SN(ran) = 68.6928866
SN(data+ran) = 3513.30666
############################
13 columns: k_central k_mean P_0(k) sigma^{lin}_{P_0(k)} P^img_1(k) sigma^{lin}_{P_1(k)} P_2(k) sigma^{lin}_{P_2(k)} P^img_3(k) sigma^{lin}_{P_3(k)} P_4(k) sigma^{lin}_{P_4(k)} N_modes
### header ###
0.00050000 0 0 0 0 0 0 0 0 0 0 0 0
0.00150000 0.00179520 46888.01398768 0 -76205.76681774 0 -55387.63203791 0 159049.58751816 0 -24181.44988504 0 3
0.00250000 0.00253879 80298.93737492 0 -76823.66538842 0 3111.83926707 0 -101577.26439567 0 -29529.52668984 0 6
0.00350000 0.00331552 118799.06538063 0 -65342.01510576 0 -54085.85227676 0 33595.71968526 0 23616.83199883 0 7
0.00450000 0.00420575 144186.07505657 0 -44054.69556442 0 -43956.90190306 0 -45663.00787101 0 -2266.07022476 0 24
0.00550000 0.00557378 156935.22111566 0 -4824.84699456 0 -74902.30095897 0 -68956.10912879 0 -11354.40611639 0 45
0.00650000 0.00659388 154210.48737847 0 -3508.91525414 0 -51181.83016041 0 -72640.23240587 0 -21467.50717255 0 40
0.00750000 0.00754703 137650.76072157 0 18194.67930572 0 -82035.39309985 0 -66517.22513968 0 -23563.10168833 0 57
0.00850000 0.00846663 129273.10373176 0 15549.41696919 0 -63285.08842849 0 -77278.46211700 0 -39152.87259365 0 75
0.00950000 0.00948925 100375.52642602 0 20059.84048151 0 -58344.59761921 0 -53037.54918959 0 -14387.24609012 0 112
0.01050000 0.01054430 99739.19318814 0 18517.28598170 0 -34944.26055346 0 -30446.76378948 0 -28229.54543280 0 105
0.01150000 0.01145670 78108.02214095 0 14263.26171255 0 -21945.23482862 0 -14242.57891521 0 -8753.28581529 0 144
0.01250000 0.01249090 74527.20044408 0 9176.90097873 0 -4674.33468128 0 -8970.56759392 0 -737.19334876 0 169
0.01350000 0.01339930 69735.19863095 0 979.27874729 0 18937.68631904 0 -16725.41384867 0 26311.21597905 0 180
0.01450000 0.01448870 72196.78873453 0 2052.95872756 0 21540.45899580 0 2094.06578728 0 18848.77277176 0 267
0.01550000 0.01550050 78853.95172345 0 1372.37104775 0 34557.80698133 0 -4591.08642196 0 18548.08536470 0 238
0.01650000 0.01653350 72192.96691328 0 2585.32718683 0 32075.08445438 0 11809.76487750 0 24183.13598265 0 315
0.01750000 0.01747870 66306.57534499 0 5241.85265538 0 23074.35819455 0 10293.15379957 0 17161.55109703 0 297
0.01850000 0.01844180 63038.13133193 0 3632.64109673 0 28506.40266030 0 15643.38880931 0 9727.40060763 0 388
0.01950000 0.01947590 62002.53018009 0 2050.10360227 0 24449.20218546 0 11781.10121814 0 5876.70212737 0 399
0.02050000 0.02045430 57216.37350534 0 1549.15276179 0 17773.60452934 0 8413.80692256 0 16729.79770246 0 462
0.02150000 0.02154770 58783.54503025 0 947.07315888 0 29183.98908636 0 3847.16891594 0 29957.23345015 0 571
0.02250000 0.02255340 62165.18239617 0 1019.86424082 0 38236.42233955 0 -4544.78618160 0 34621.31665796 0 510
0.02350000 0.02348930 62867.61066035 0 587.11829679 0 37316.59989024 0 6916.73209560 0 36051.68946348 0 555
0.02450000 0.02439640 63079.83414615 0 1906.21203226 0 47707.68223898 0 -3104.37547498 0 29941.04691310 0 592
0.02550000 0.02547300 65765.90004482 0 -738.14430781 0 44416.64451796 0 5642.35704093 0 27963.36682349 0 837
0.02650000 0.02652900 64882.16008435 0 -128.32664094 0 44570.75383948 0 5527.76984738 0 11996.02246011 0 723
0.02750000 0.02749970 65818.05666422 0 1395.95393298 0 32054.28925052 0 5692.36669603 0 10862.13305828 0 826
0.02850000 0.02848090 62344.02114930 0 54.74747698 0 27615.13146384 0 7867.06167100 0 627.84092625 0 831
0.02950000 0.02946900 62815.22922794 0 -277.77896086 0 21134.67150441 0 10608.94864121 0 4684.67607995 0 996
0.03050000 0.03053250 61971.84320359 0 386.05790123 0 20029.15350502 0 6445.49029501 0 4069.07060202 0 1041
0.03150000 0.03150510 60270.68312196 0 1919.61088793 0 18322.93513056 0 6026.29270730 0 4322.67092316 0 1036
0.03250000 0.03246190 59319.94888314 0 3819.51691514 0 21856.88331388 0 276.05576911 0 17881.51477635 0 1059
0.03350000 0.03345080 55311.87005199 0 4569.97647989 0 21781.79576699 0 -845.93652800 0 12209.14519797 0 1302
0.03450000 0.03451200 53540.68071631 0 2890.55581678 0 27750.24408563 0 1830.10158616 0 21213.01884000 0 1339
0.03550000 0.03553350 51492.40934010 0 53.22864025 0 20354.68275019 0 2126.82104351 0 11423.64852489 0 1365
0.03650000 0.03647120 52583.65171307 0 -1479.01110123 0 22265.59337445 0 3329.43578392 0 10060.97815873 0 1308
0.03750000 0.03744890 54993.53482329 0 -1699.23793035 0 19179.58512277 0 2197.20999839 0 4264.89397840 0 1579
0.03850000 0.03847530 54842.46047746 0 -181.96252997 0 16449.68068624 0 1885.64164143 0 834.17768327 0 1662
0.03950000 0.03950240 53734.35712840 0 1716.87451135 0 14771.11431258 0 -1044.56107454 0 -942.21270151 0 1683
0.04050000 0.04050350 52668.96825212 0 2263.05773037 0 14800.45241099 0 562.46530160 0 3196.39144186 0 1822
0.04150000 0.04152450 50648.91090925 0 468.58226263 0 14738.06679943 0 5651.85539080 0 2761.49066508 0 1887
0.04250000 0.04250150 51747.90933122 0 -189.54547295 0 14981.65170077 0 4780.19912986 0 1425.42691920 0 1920
0.04350000 0.04349210 49984.92567057 0 721.69249140 0 12362.58008045 0 1390.35608892 0 3328.69390097 0 2005
0.04450000 0.04448520 50769.52309159 0 1889.89060740 0 14593.51203103 0 -1711.63636811 0 3656.04413156 0 2151
0.04550000 0.04548030 47839.87229158 0 2075.15901275 0 12273.77893968 0 -1476.30210441 0 6702.67638373 0 2274
0.04650000 0.04648670 47494.78431413 0 3477.89105812 0 14835.63564778 0 -2129.36143057 0 2592.89214477 0 2311
0.04750000 0.04749250 42437.16592423 0 2864.27517537 0 16556.57927469 0 1173.05182898 0 1053.93577725 0 2568
0.04850000 0.04851840 40233.77356794 0 4034.88778314 0 16757.56210976 0 854.16468433 0 1537.03534030 0 2493
0.04950000 0.04949480 36076.64370810 0 2510.23963994 0 15161.38970596 0 3502.77785884 0 -1825.39175351 0 2644
0.05050000 0.05050630 34797.79487444 0 1904.55965661 0 15897.09029630 0 3069.82171463 0 2279.84002191 0 2829
0.05150000 0.05149060 32584.06111948 0 375.49393767 0 11647.11266142 0 2646.76858372 0 3168.06500202 0 2784
0.05250000 0.05249300 32630.82222652 0 90.78567766 0 11776.26773832 0 2687.08879789 0 897.62553632 0 3055
0.05350000 0.05348950 32649.70651974 0 13.00228551 0 10774.29861346 0 2189.84737216 0 1977.98358718 0 3009
0.05450000 0.05448610 31211.01563268 0 421.39625899 0 8689.14666221 0 2542.30921648 0 4895.24719009 0 3336
0.05550000 0.05550870 32025.85040417 0 676.74337726 0 10547.29367195 0 1683.24248436 0 6720.57149970 0 3349
0.05650000 0.05647670 30748.01322908 0 517.02609509 0 9657.56244464 0 2058.53409032 0 6883.65086050 0 3324
0.05750000 0.05747970 31076.80226296 0 732.71844570 0 11683.08274376 0 814.39638611 0 9300.82915304 0 3639
0.05850000 0.05849280 30229.70682387 0 810.02939330 0 10600.99026049 0 -514.26876346 0 7497.61520343 0 3846
0.05950000 0.05951020 30030.07286689 0 392.48418125 0 11828.98639025 0 -1058.45789104 0 9000.74874113 0 3787
0.06050000 0.06049470 30134.04888615 0 -82.31787065 0 9406.94089594 0 -1314.13323631 0 1527.34589937 0 3930
0.06150000 0.06148310 30595.14037913 0 -936.39341662 0 9741.67623406 0 -1563.91173620 0 2055.10569185 0 4083
0.06250000 0.06249100 31086.13200306 0 -516.76306386 0 9221.94226621 0 -671.37034621 0 -2793.51527902 0 4303
0.06350000 0.06350600 31886.91596114 0 -626.82477143 0 8208.00184832 0 -884.26489886 0 -5186.03158385 0 4470
0.06450000 0.06451750 31792.26968198 0 -346.93032010 0 6743.94081257 0 301.54169651 0 -6082.87814308 0 4479
0.06550000 0.06550280 32117.68652065 0 69.38853696 0 5393.10685162 0 506.83194894 0 -6507.63985290 0 4636
0.06650000 0.06648880 32099.02704043 0 652.49841770 0 7902.37979560 0 -778.81635435 0 -7727.75628649 0 4653
0.06750000 0.06749660 31051.39839230 0 1240.63062118 0 8217.19670062 0 -254.38154637 0 -5137.51693530 0 5220
0.06850000 0.06852730 29884.28162691 0 926.54660658 0 8750.62178106 0 70.43065769 0 -3053.87123125 0 5029
0.06950000 0.06949320 29182.75261478 0 889.53563999 0 7263.07902593 0 1551.16483827 0 -3626.62734859 0 5040
0.07050000 0.07048030 29367.21169328 0 115.97653798 0 8151.56254100 0 2531.47322917 0 -2000.36372279 0 5475
0.07150000 0.07148790 28845.53309285 0 -76.52679980 0 6675.87867239 0 2129.72113140 0 -3964.68991933 0 5509
0.07250000 0.07249820 28918.26010308 0 -32.28056355 0 4789.07924394 0 1325.85723502 0 -2388.27857951 0 5916
0.07350000 0.07351270 28310.02849203 0 533.14181604 0 4916.28968826 0 -1310.61491263 0 -4417.33968361 0 5721
0.07450000 0.07449140 27897.60901671 0 1256.71599238 0 5871.37405892 0 -1216.75547903 0 -3332.09981814 0 6028
0.07550000 0.07549160 26676.31231479 0 595.77134972 0 6151.26626212 0 -522.29458809 0 -3096.55198207 0 6183
0.07650000 0.07648840 26456.33277998 0 567.71805769 0 4884.65849710 0 -58.88448607 0 -4289.69085391 0 6330
0.07750000 0.07749960 26471.28284545 0 212.22573393 0 5715.18521701 0 1555.13278798 0 -3786.44692069 0 6583
0.07850000 0.07848650 25875.41595021 0 452.15967191 0 4751.16452902 0 924.90996784 0 -5669.28964008 0 6549
0.07950000 0.07947320 25584.05828326 0 722.52092736 0 5268.68408868 0 -51.73104836 0 -2510.13847409 0 6828
0.08050000 0.08048110 25032.59195840 0 529.21208455 0 4791.20372693 0 539.21513963 0 -2420.86522598 0 7147
0.08150000 0.08149960 24800.36011429 0 246.30064256 0 7402.40689174 0 -9.91456868 0 424.62120169 0 7386
0.08250000 0.08250610 24765.85131655 0 17.46190128 0 5929.71303622 0 1470.77170425 0 1717.93113252 0 7227
0.08350000 0.08350160 24916.02641031 0 -65.74555447 0 7853.98879420 0 1230.94118025 0 2548.84003455 0 7798
0.08450000 0.08449610 25076.65530926 0 128.66610859 0 6307.43262273 0 965.68205617 0 5469.72312700 0 7371
0.08550000 0.08548940 24611.51718201 0 619.70381919 0 7642.09128727 0 737.15962681 0 3079.80341248 0 8256
0.08650000 0.08650700 24001.26225383 0 692.25210307 0 5762.03624926 0 221.04402443 0 5473.92713038 0 8037
0.08750000 0.08749060 23226.89382497 0 687.55238700 0 6453.67348874 0 -477.38594028 0 2458.51016528 0 8155
0.08850000 0.08849210 22877.30958724 0 981.26159808 0 5670.00904173 0 -611.42732806 0 2769.08934498 0 8718
0.08950000 0.08949900 21614.75969713 0 896.21708278 0 6010.28602066 0 -693.49869124 0 1615.64121087 0 8571
0.09050000 0.09049190 20826.34045486 0 914.42131664 0 5754.26895961 0 418.77943550 0 1167.12800605 0 8932
0.09150000 0.09150830 20060.17770103 0 872.75447251 0 5878.78164775 0 -29.61619211 0 1058.75689235 0 9285
0.09250000 0.09250820 19238.26131958 0 597.60357579 0 5451.68188258 0 239.16058121 0 -91.04825926 0 9204
0.09350000 0.09350330 19058.52331440 0 184.12185897 0 6454.61770340 0 274.83615850 0 691.35172695 0 9349
0.09450000 0.09448040 19061.67069660 0 -103.85653114 0 6928.96192360 0 -825.32229862 0 419.47860398 0 9564
0.09550000 0.09549270 19055.82555822 0 -100.63608471 0 7289.84301532 0 -270.39272927 0 1257.19934036 0 10155
0.09650000 0.09649430 19560.08115001 0 -192.90530345 0 6954.90534548 0 -221.51500770 0 705.78359842 0 9913
0.09750000 0.09749140 19013.56071147 0 140.07761721 0 7266.12524227 0 663.40859330 0 1356.26319525 0 10476
0.09850000 0.09850240 19231.74174216 0 320.28210941 0 6541.77770917 0 1304.01665065 0 753.30569752 0 10575
0.09950000 0.09950330 18499.97537957 0 518.25020195 0 6075.32442578 0 1135.14835472 0 1260.12190955 0 10882
0.10050000 0.10051200 18343.73033441 0 504.83785750 0 5660.82543008 0 1247.24012381 0 1322.64240891 0 10875
0.10150000 0.10150300 17434.24928377 0 587.05310101 0 5277.06961412 0 339.17089890 0 932.44682415 0 11118
0.10250000 0.10250800 17117.15052665 0 519.78117858 0 6122.91734098 0 207.03030516 0 3264.93693002 0 11575
0.10350000 0.10349800 16576.92485251 0 366.04504666 0 5172.62148753 0 116.20921945 0 1726.71008074 0 11364
0.10450000 0.10450100 16559.61425039 0 208.04645999 0 6316.15536770 0 248.16546651 0 3277.06559216 0 12093
0.10550000 0.10551000 16586.25459262 0 143.10472446 0 6568.03586928 0 20.59275973 0 3056.35541506 0 12067
0.10650000 0.10649700 16512.06629780 0 249.20073045 0 6434.31708818 0 120.63803584 0 3733.11003297 0 12054
0.10750000 0.10749900 16183.16485741 0 405.58628374 0 6327.12624281 0 -54.73050360 0 3123.78807879 0 12807
0.10850000 0.10850100 15859.32170985 0 333.48650182 0 6375.31491249 0 -79.02986791 0 2958.20205287 0 12736
0.10950000 0.10950300 15697.56874583 0 265.77057369 0 6855.07712634 0 -145.08757525 0 2847.60529033 0 12933
0.11050000 0.11050200 15537.38947291 0 102.29160775 0 6255.64694481 0 53.55304543 0 1841.71317837 0 13428
0.11150000 0.11150900 15679.69611117 0 22.03201265 0 6669.29165106 0 288.34517255 0 1759.02695159 0 13453
0.11250000 0.11250000 15440.38265710 0 24.44245780 0 6059.63247736 0 186.43181270 0 507.00505496 0 13668
0.11350000 0.11349100 15662.04828952 0 114.25447029 0 6462.68849063 0 188.76761992 0 1398.44935744 0 13791
0.11450000 0.11448600 15456.45678765 0 231.66981157 0 5228.19526474 0 305.73558330 0 -113.18323628 0 14205
0.11550000 0.11549300 15335.84460531 0 202.56214650 0 5997.65152923 0 -96.21311346 0 1008.94170051 0 14776
0.11650000 0.11649800 15077.42204500 0 304.68008619 0 6016.72691352 0 -86.64900579 0 168.41529771 0 14553
0.11750000 0.11747300 15084.50365496 0 134.95188048 0 5238.24440650 0 64.93319264 0 -371.26745299 0 14568
0.11850000 0.11849100 14768.75377593 0 21.96659207 0 6009.34180599 0 112.04062413 0 -387.17522191 0 16015
0.11950000 0.11950300 14916.23111352 0 42.77045122 0 4906.95994815 0 -67.75009971 0 -1319.66363647 0 15270
0.12050000 0.12050700 14671.97177313 0 145.53382908 0 5524.76859363 0 -8.50386702 0 -1041.72168617 0 15999
0.12150000 0.12150000 14626.89676370 0 423.01154050 0 5028.14540369 0 184.71086907 0 -1482.47322166 0 15670
0.12250000 0.12250700 14174.23575877 0 447.95679261 0 5085.80994194 0 -47.39002145 0 -976.52141567 0 16887
0.12350000 0.12352200 13904.57254773 0 383.17242618 0 5166.89999631 0 254.20844035 0 -1036.66564147 0 16407
0.12450000 0.12449800 13367.83147532 0 294.28922866 0 4586.66884623 0 673.97592905 0 -858.42601502 0 16306
0.12550000 0.12549900 13048.59699456 0 212.87207135 0 4785.90938043 0 668.93112500 0 -1133.00139043 0 17523
0.12650000 0.12650100 13023.19312391 0 54.81087425 0 3919.78351966 0 812.46524232 0 -626.52464605 0 17154
0.12750000 0.12750600 12844.91640332 0 -17.54058584 0 3453.77986230 0 1021.80550120 0 -836.59105098 0 18007
0.12850000 0.12850300 12864.92476162 0 -64.05473578 0 3000.63550938 0 319.79538923 0 -966.46890172 0 17496
0.12950000 0.12949900 12862.78903798 0 45.76507298 0 2681.58087904 0 550.58280971 0 -1552.10905294 0 18405
0.13050000 0.13049000 12866.27363971 0 171.44015682 0 2759.87201138 0 -266.79234884 0 -643.51713776 0 18100
0.13150000 0.13148800 12501.73933650 0 262.10162529 0 2324.82510614 0 -269.49347721 0 -728.71902217 0 19059
0.13250000 0.13249300 12481.39375868 0 231.09204212 0 2966.57633767 0 -161.73497898 0 -973.14809638 0 18957
0.13350000 0.13349100 12136.53059425 0 158.45832929 0 2838.64649170 0 53.14152521 0 -828.66077189 0 19468
0.13450000 0.13450700 12084.93600740 0 279.52575799 0 3188.41057985 0 185.75400146 0 -579.03626891 0 19953
0.13550000 0.13551000 11837.19206528 0 218.75542794 0 3085.40125655 0 302.71072419 0 -233.26710803 0 19956
0.13650000 0.13649900 11513.79854375 0 181.55786654 0 2655.35644088 0 307.14403683 0 -683.40009062 0 19723
0.13750000 0.13749600 11648.34913300 0 -0.16730135 0 2507.41823661 0 262.50741278 0 -862.35125026 0 20946
0.13850000 0.13851100 11574.49805770 0 -178.23737832 0 2388.48091123 0 72.49050694 0 -1105.70009793 0 20955
0.13950000 0.13949800 11751.31349370 0 -190.15246809 0 2229.29081557 0 -101.53151495 0 -1396.62837202 0 20506
0.14050000 0.14048300 11850.11881363 0 37.28186628 0 2151.38186536 0 -237.37331775 0 -1354.06002771 0 21447
0.14150000 0.14148400 11728.83219224 0 192.31966555 0 2246.19675427 0 -268.53802190 0 -1565.51914926 0 21771
0.14250000 0.14249400 11688.70306913 0 257.12426515 0 2532.36124058 0 -40.05189984 0 -888.36211605 0 22470
0.14350000 0.14350900 11510.65116155 0 212.48089670 0 2611.14696156 0 26.52759851 0 -654.83197679 0 22519
0.14450000 0.14449900 11441.29634654 0 102.95401930 0 2717.88818090 0 294.24876232 0 -427.24814176 0 22218
0.14550000 0.14550500 11198.97039808 0 241.42107607 0 3087.58194279 0 139.71229607 0 -86.68598753 0 23559
0.14650000 0.14650700 11233.42299257 0 157.61078422 0 2505.05769996 0 183.80374856 0 -346.91008692 0 23044
0.14750000 0.14750500 11050.24534826 0 136.20970930 0 3010.21254381 0 221.81288494 0 128.97185429 0 23649
0.14850000 0.14849900 10879.06147828 0 109.28475379 0 2217.87031443 0 63.77428155 0 25.10340806 0 23640
0.14950000 0.14949500 10827.87155485 0 -1.98644780 0 2530.50653321 0 316.03988782 0 -2.54381546 0 24457
0.15050000 0.15050000 10818.36196433 0 40.70925309 0 2056.60069839 0 74.24438567 0 -280.41714159 0 24591
0.15150000 0.15149900 10923.14731044 0 87.89109769 0 2230.67341561 0 114.26683501 0 43.15926533 0 25020
0.15250000 0.15250500 10653.10191728 0 210.69700543 0 2050.69935676 0 -273.95039523 0 -131.37960168 0 25297
0.15350000 0.15350100 10453.05205622 0 360.21564520 0 2364.20110565 0 -176.01510167 0 88.68671095 0 25452
0.15450000 0.15450400 10159.45749978 0 451.02324213 0 2558.64188199 0 -356.48037696 0 -33.64562817 0 26061
0.15550000 0.15549900 9738.10170713 0 451.44364246 0 2574.37879301 0 -32.97444892 0 181.34654231 0 26128
0.15650000 0.15649500 9448.17160282 0 296.61491929 0 2700.12795274 0 168.80085203 0 443.98659477 0 26331
0.15750000 0.15749700 9314.18304611 0 134.76978194 0 2545.85002146 0 582.64451779 0 137.15392396 0 27345
0.15850000 0.15849900 9218.39022058 0 -61.41599302 0 2224.26624470 0 547.54895808 0 470.20653666 0 26980
0.15950000 0.15949700 9238.38733823 0 39.30574544 0 2240.31789394 0 405.82121334 0 363.17306040 0 27777
0.16050000 0.16050000 9237.90399025 0 44.40877606 0 1843.42175728 0 -124.91285531 0 555.56241799 0 28224
0.16150000 0.16150500 9184.62330579 0 160.78626806 0 2314.94457414 0 -55.48969715 0 792.32649247 0 28075
0.16250000 0.16249700 9118.49455754 0 122.16114401 0 2238.89033130 0 -151.29803477 0 768.36479730 0 28590
0.16350000 0.16349900 9045.73382535 0 70.03476197 0 2521.86247280 0 267.41395683 0 1348.82188447 0 29163
0.16450000 0.16449100 8975.80573716 0 44.97024657 0 2223.95150648 0 411.16052244 0 911.24021248 0 28996
0.16550000 0.16550500 8941.74656544 0 -1.84371401 0 2128.02379314 0 504.60967229 0 1050.99072676 0 30777
0.16650000 0.16650700 8926.33563329 0 41.44855069 0 2069.72977845 0 214.80771140 0 910.99291817 0 29211
0.16750000 0.16749900 8831.01491509 0 131.00753614 0 1857.33768288 0 -95.13963132 0 934.95011707 0 30922
0.16850000 0.16850800 8801.90162970 0 178.18904352 0 1900.79403861 0 -248.08790602 0 788.02357137 0 30867
0.16950000 0.16949900 8680.25530749 0 219.71537951 0 2051.18270474 0 -416.84716764 0 925.14264931 0 30852
0.17050000 0.17049200 8481.30703020 0 215.44505630 0 2263.67596616 0 -91.67042928 0 631.55371319 0 31257
0.17150000 0.17149500 8382.01836229 0 193.17395501 0 2364.95422925 0 0.27397175 0 604.20296183 0 32608
0.17250000 0.17250900 8165.70327962 0 121.90148498 0 2268.66681508 0 259.27572570 0 599.93938301 0 32361
0.17350000 0.17350400 8090.18858801 0 112.80555041 0 2141.86103419 0 250.90031684 0 377.66001106 0 32508
0.17450000 0.17449800 8059.11942939 0 -20.26824215 0 1859.72070084 0 305.27471662 0 533.97025200 0 32791
0.17550000 0.17549800 8037.40249218 0 -52.07062841 0 1840.84764826 0 232.61964655 0 234.30237197 0 33633
0.17650000 0.17650100 8168.44599840 0 -96.07496586 0 1476.12225399 0 203.27705188 0 568.97701057 0 33984
0.17750000 0.17750300 8246.00648845 0 -84.92424034 0 1372.74198922 0 97.95541432 0 43.26638873 0 34069
