### header ###
fiducial parameters:
Omega_m = 0.31
Omega_nu = 0
Omega_de = 0.69
Omega_k = 0
H_0 = 100
w_de = -1
zeff = 0
beta = 0
fgrowth = 0
b_1 = 2
gamma = 0.55
Lx = 3500 Ly = 3500 Lz = 3500
nx = 700 ny = 700 nz = 700
xoffset = 857.220397 yoffset = 15.9954215 zoffset = 262.898189
bins = 400 dk = 0.001
kx_ny = 0.628318531 ky_ny = 0.628318531 kz_ny = 0.628318531
############################
A(data) = 3.09839072 (not used)
A(ran) = 3.09993289 (used)
Ngal = 189070
weighted Ngal = 0
Nran = 9360983
weighted Nran = 0
SN(data) = 3439.56718
SN(ran) = 69.6128427
SN(data+ran) = 3509.18002
############################
13 columns: k_central k_mean P_0(k) sigma^{lin}_{P_0(k)} P^img_1(k) sigma^{lin}_{P_1(k)} P_2(k) sigma^{lin}_{P_2(k)} P^img_3(k) sigma^{lin}_{P_3(k)} P_4(k) sigma^{lin}_{P_4(k)} N_modes
### header ###
0.00050000 0 0 0 0 0 0 0 0 0 0 0 0
0.00150000 0.00179520 9516.51475927 0 -16169.45126352 0 -9836.44616037 0 10019.73621119 0 25359.47008165 0 3
0.00250000 0.00253879 23704.73388754 0 -24892.42104378 0 -17273.39557181 0 -482.44760531 0 -2604.31264591 0 6
0.00350000 0.00331552 34986.18818069 0 -24324.65577536 0 -23789.15117453 0 -16709.00249860 0 -4546.44979791 0 7
0.00450000 0.00420575 53990.19433904 0 -24286.32515636 0 -28819.56718967 0 -16767.67869542 0 -2239.26127277 0 24
0.00550000 0.00557378 71098.12753208 0 -16266.23326631 0 -31462.58139604 0 -24915.57678429 0 9201.14706236 0 45
0.00650000 0.00659388 91901.64946596 0 -8515.11890760 0 -33997.23572938 0 -21672.42423538 0 -18038.43426056 0 40
0.00750000 0.00754703 84382.21615946 0 1903.45807283 0 -21999.75198467 0 -37411.58338891 0 -446.46515825 0 57
0.00850000 0.00846663 85946.91474122 0 7623.03838428 0 -10918.74097536 0 -27105.92998573 0 -197.14977317 0 75
0.00950000 0.00948925 74630.72683731 0 11086.63133468 0 7689.75164637 0 -29947.56649052 0 -2170.35608379 0 112
0.01050000 0.01054430 67558.44661690 0 12895.38692510 0 6660.88364431 0 -18575.40014598 0 -19125.51759275 0 105
0.01150000 0.01145670 58346.28371682 0 9682.57289252 0 31724.37615157 0 -9606.72098138 0 -21409.39300827 0 144
0.01250000 0.01249090 53051.48759649 0 5002.12329724 0 27432.58329597 0 -8972.24245087 0 -27857.25508059 0 169
0.01350000 0.01339930 50653.06995002 0 4035.38237178 0 38368.27517263 0 3977.29068880 0 -36056.29813028 0 180
0.01450000 0.01448870 51878.97531874 0 -632.58448086 0 36794.13444426 0 -1337.76108415 0 -30912.35154276 0 267
0.01550000 0.01550050 50318.43577776 0 -2014.85292158 0 39312.37742752 0 5018.52340666 0 -33679.68734622 0 238
0.01650000 0.01653350 61642.60454368 0 -6034.85808315 0 39221.10334359 0 2919.71406477 0 -17078.81990765 0 315
0.01750000 0.01747870 66353.67367155 0 -9511.16420952 0 43566.06447715 0 6694.40326479 0 -22791.20620264 0 297
0.01850000 0.01844180 77497.87961927 0 -8923.30065759 0 36810.43338782 0 13549.25557812 0 -11577.42062689 0 388
0.01950000 0.01947590 79094.61405560 0 -2088.14196434 0 36697.12762845 0 -147.18620474 0 -25997.82663667 0 399
0.02050000 0.02045430 84290.60485601 0 3224.42562479 0 33132.71728165 0 715.73494651 0 -20618.95044887 0 462
0.02150000 0.02154770 77573.75401170 0 5621.88781595 0 25225.93115097 0 -6325.93473383 0 -15424.42093307 0 571
0.02250000 0.02255340 74554.62763186 0 3888.35466021 0 16961.69232704 0 2268.18346710 0 -13162.01516044 0 510
0.02350000 0.02348930 70214.38757161 0 -959.25127989 0 17189.76513037 0 3069.69806748 0 -12551.08579321 0 555
0.02450000 0.02439640 69641.56401036 0 1829.50583167 0 8849.43834164 0 8504.01314467 0 -30136.29701629 0 592
0.02550000 0.02547300 64724.90338063 0 4284.78993019 0 8722.61007944 0 1594.20528992 0 -15998.14374638 0 837
0.02650000 0.02652900 61018.74842811 0 6820.54584730 0 9217.79446609 0 -1624.11666152 0 -18604.06380534 0 723
0.02750000 0.02749970 57628.11854162 0 6111.02473251 0 18308.88431715 0 -5384.37286600 0 1297.17109436 0 826
0.02850000 0.02848090 55380.77524097 0 3857.51031461 0 23697.20265155 0 -462.97430198 0 -567.01439295 0 831
0.02950000 0.02946900 51480.49425033 0 1378.15998287 0 32402.07498414 0 1240.11355125 0 6748.39211025 0 996
0.03050000 0.03053250 54264.01659085 0 -51.04323294 0 34794.53508572 0 5705.52949804 0 5888.11138786 0 1041
0.03150000 0.03150510 54169.03309217 0 -1010.45694023 0 34355.02564214 0 4921.13440873 0 4327.21214605 0 1036
0.03250000 0.03246190 56703.68742550 0 490.45544489 0 34156.29093722 0 6166.59850972 0 5402.07689090 0 1059
0.03350000 0.03345080 54665.86985448 0 768.38390641 0 26084.82927332 0 2649.16284233 0 -1119.97010404 0 1302
0.03450000 0.03451200 52787.55711733 0 525.73535127 0 25220.98526465 0 10763.56379202 0 4067.38450441 0 1339
0.03550000 0.03553350 51826.81869935 0 575.42464783 0 18529.20107147 0 7087.97216884 0 -1169.65715246 0 1365
0.03650000 0.03647120 53019.22692890 0 662.47674335 0 15560.32040040 0 8566.47744079 0 5047.85026442 0 1308
0.03750000 0.03744890 49178.74620014 0 1166.44232635 0 10158.74933878 0 5806.94264893 0 245.19568659 0 1579
0.03850000 0.03847530 48821.18110039 0 417.21698505 0 10848.73420260 0 2861.71230700 0 6930.78290902 0 1662
0.03950000 0.03950240 48464.74006571 0 -483.01413411 0 7017.23475379 0 2526.59478676 0 9105.71393765 0 1683
0.04050000 0.04050350 48341.99215973 0 -1328.47630664 0 6364.63629430 0 2066.96457837 0 6309.98425044 0 1822
0.04150000 0.04152450 50433.65244775 0 773.67712884 0 6869.89230401 0 1429.85573558 0 12803.77562164 0 1887
0.04250000 0.04250150 49157.27655725 0 207.75420307 0 7346.60830151 0 367.40516540 0 3917.64779602 0 1920
0.04350000 0.04349210 48545.78515748 0 2112.98380246 0 8258.16887254 0 -3202.79861278 0 10653.83255958 0 2005
0.04450000 0.04448520 48008.36964603 0 1261.51575024 0 10464.52876062 0 -2805.30672163 0 3468.52759606 0 2151
0.04550000 0.04548030 46102.29250158 0 1491.09480077 0 15801.20754557 0 -6284.94008062 0 7372.99010877 0 2274
0.04650000 0.04648670 46088.46650118 0 1811.83552873 0 17105.34784338 0 -4649.33547405 0 -1183.51687482 0 2311
0.04750000 0.04749250 46236.05624528 0 460.24507199 0 22681.27263849 0 -4359.86623643 0 -2047.96787863 0 2568
0.04850000 0.04851840 44871.66605955 0 831.63504807 0 23600.98268130 0 -3367.74392161 0 -5631.91447640 0 2493
0.04950000 0.04949480 46162.65479601 0 567.75627590 0 26654.16823285 0 -3206.00219824 0 -7380.08295938 0 2644
0.05050000 0.05050630 43567.30094873 0 1287.89755750 0 25942.41022856 0 454.58315621 0 -6823.67074820 0 2829
0.05150000 0.05149060 43790.76508526 0 1496.23177815 0 26722.17416977 0 4058.21213341 0 -7261.49409417 0 2784
0.05250000 0.05249300 41995.07113098 0 690.86163458 0 24225.40082940 0 5607.46606106 0 -4206.09413443 0 3055
0.05350000 0.05348950 40787.37561645 0 262.91207621 0 18022.36013001 0 8424.68787247 0 -7621.18367691 0 3009
0.05450000 0.05448610 40695.87671949 0 221.15193468 0 14913.19613782 0 8181.15917438 0 -69.87559436 0 3336
0.05550000 0.05550870 39749.07670842 0 54.71532872 0 11436.91249275 0 5448.08487434 0 -1544.66774215 0 3349
0.05650000 0.05647670 39870.13851680 0 601.37481411 0 9520.94357566 0 4136.34589664 0 2276.38914214 0 3324
0.05750000 0.05747970 38514.96566467 0 1751.24842129 0 10298.29077696 0 968.28988714 0 2759.26501624 0 3639
0.05850000 0.05849280 37329.97626461 0 1509.61939317 0 10099.56731269 0 -1429.67588517 0 2915.94844678 0 3846
0.05950000 0.05951020 36396.77744092 0 2023.76675761 0 13687.62798862 0 -3319.07190394 0 8992.71167586 0 3787
0.06050000 0.06049470 34239.58415914 0 1585.81976448 0 13955.38028903 0 -2269.72343625 0 1956.97481096 0 3930
0.06150000 0.06148310 34200.24188158 0 1135.93520027 0 16721.70443393 0 -1709.43320057 0 5865.75373356 0 4083
0.06250000 0.06249100 33060.88952348 0 357.64828057 0 15583.25132789 0 -1801.73018372 0 -604.02086329 0 4303
0.06350000 0.06350600 33723.63829058 0 -376.79560502 0 16800.72620857 0 567.00315230 0 1955.56972962 0 4470
0.06450000 0.06451750 33121.02700489 0 -172.16068253 0 16250.38394878 0 164.70588297 0 -4769.46430841 0 4479
0.06550000 0.06550280 33758.48430785 0 235.26569573 0 13637.60709287 0 1949.19628066 0 -2857.78931989 0 4636
0.06650000 0.06648880 31935.02594627 0 1286.48123551 0 12812.31851620 0 1840.55539134 0 -4834.40154769 0 4653
0.06750000 0.06749660 30952.81788539 0 1894.87021568 0 11603.61134309 0 2651.28732532 0 -2050.48578440 0 5220
0.06850000 0.06852730 29058.76823722 0 866.97902617 0 10256.61044405 0 3353.69310819 0 -1710.47858108 0 5029
0.06950000 0.06949320 27962.69238444 0 695.59057634 0 7861.52003019 0 2490.70338897 0 -1311.99751267 0 5040
0.07050000 0.07048030 28615.21215938 0 -642.23795171 0 8153.68702399 0 1867.84769132 0 -476.16183342 0 5475
0.07150000 0.07148790 28126.24385258 0 -697.10694012 0 5633.72422117 0 841.78423162 0 -1415.98477258 0 5509
0.07250000 0.07249820 29416.33333697 0 -213.95454601 0 6618.45018780 0 709.40758422 0 -170.99502705 0 5916
0.07350000 0.07351270 28845.87031238 0 -92.38735798 0 4476.16200889 0 47.00087012 0 -815.29339004 0 5721
0.07450000 0.07449140 29130.48358889 0 363.75645018 0 5758.12450281 0 192.26683449 0 -1980.07434822 0 6028
0.07550000 0.07549160 29042.69410668 0 698.75481952 0 5458.33634781 0 -298.46175821 0 -2171.54759277 0 6183
0.07650000 0.07648840 28701.31554398 0 927.43124580 0 6447.08646741 0 -1966.51812343 0 -2306.24431048 0 6330
0.07750000 0.07749960 27299.94361734 0 898.25388869 0 7495.01861311 0 -1653.76949815 0 -2473.61759986 0 6583
0.07850000 0.07848650 27918.74144008 0 408.19861097 0 8755.02811615 0 -1514.81257381 0 -87.11144616 0 6549
0.07950000 0.07947320 26618.76018305 0 82.78581894 0 9296.89492529 0 252.96297625 0 -2133.80148761 0 6828
0.08050000 0.08048110 27738.21658934 0 173.65344095 0 10451.03997974 0 2013.89746627 0 -292.72003382 0 7147
0.08150000 0.08149960 26309.30506842 0 -121.44174237 0 7670.57509623 0 2239.05894106 0 -255.43142315 0 7386
0.08250000 0.08250610 27049.95154509 0 566.09940398 0 7989.53980137 0 2407.88227439 0 -123.49428519 0 7227
0.08350000 0.08350160 26054.92914238 0 647.16810112 0 6546.98213046 0 1516.26261775 0 868.92478281 0 7798
0.08450000 0.08449610 25529.31631420 0 883.06776956 0 7554.76267174 0 612.45921979 0 3089.40292821 0 7371
0.08550000 0.08548940 24368.71912622 0 1108.10896939 0 7731.76919880 0 -573.28442793 0 3809.40032948 0 8256
0.08650000 0.08650700 24200.44658478 0 863.20778785 0 9022.35327183 0 182.34696022 0 5808.87604086 0 8037
0.08750000 0.08749060 23625.71211290 0 439.76123416 0 8986.46187405 0 152.99537303 0 5814.91227030 0 8155
0.08850000 0.08849210 23687.31087891 0 396.15425371 0 11286.17536645 0 262.78056059 0 7545.97248287 0 8718
0.08950000 0.08949900 23231.05286574 0 104.80400559 0 9601.08941537 0 270.03977284 0 5882.65967226 0 8571
0.09050000 0.09049190 22878.43365231 0 692.75568423 0 10593.08808303 0 2.70219623 0 6166.95821054 0 8932
0.09150000 0.09150830 21890.38045305 0 822.45031236 0 9277.30247106 0 -248.25988798 0 3771.75539018 0 9285
0.09250000 0.09250820 21561.92863869 0 991.18709268 0 9481.17415337 0 -421.31982257 0 3195.59335566 0 9204
0.09350000 0.09350330 20620.07451394 0 442.06781569 0 8363.12282841 0 104.89988835 0 -20.48743484 0 9349
0.09450000 0.09448040 20082.32178297 0 490.13508634 0 7337.54833702 0 172.32704416 0 -1834.33931149 0 9564
0.09550000 0.09549270 19680.80573886 0 284.84483391 0 6577.02838986 0 131.29417273 0 -3131.25187088 0 10155
0.09650000 0.09649430 19399.78947059 0 131.19188281 0 6443.10727705 0 260.27501955 0 -3726.78154661 0 9913
0.09750000 0.09749140 19104.72238890 0 422.14713446 0 5744.09617069 0 38.41458665 0 -3761.95354274 0 10476
0.09850000 0.09850240 18767.84008649 0 280.03833166 0 6085.04758867 0 361.21831124 0 -3839.67140190 0 10575
0.09950000 0.09950330 18495.59152579 0 311.37501777 0 5796.72489742 0 156.79358892 0 -2702.46600809 0 10882
0.10050000 0.10051200 18655.20876617 0 57.76199469 0 5935.90663477 0 308.76606273 0 -2478.50728293 0 10875
0.10150000 0.10150300 18428.37243442 0 -86.01885491 0 6154.78458580 0 434.68495629 0 -2319.20478077 0 11118
0.10250000 0.10250800 18462.76882565 0 357.36051991 0 5981.04908810 0 -156.73626160 0 -1559.25810680 0 11575
0.10350000 0.10349800 18264.48374676 0 467.86735725 0 6878.25534815 0 153.60574037 0 -737.93747984 0 11364
0.10450000 0.10450100 17935.13268034 0 438.86423023 0 6714.60271416 0 -110.20333977 0 199.91160106 0 12093
0.10550000 0.10551000 17656.13972920 0 331.71160307 0 6393.40111952 0 869.48119502 0 -93.91226466 0 12067
0.10650000 0.10649700 17294.41558867 0 334.06764346 0 6575.62330852 0 979.84190390 0 567.82371981 0 12054
0.10750000 0.10749900 16788.13667975 0 348.91991528 0 5984.11778575 0 243.16337694 0 -3.71171907 0 12807
0.10850000 0.10850100 16573.88987682 0 357.61455862 0 6279.62325282 0 608.63177822 0 659.73627270 0 12736
0.10950000 0.10950300 16390.89208292 0 206.50986303 0 6317.71781815 0 -0.42458074 0 848.89057101 0 12933
0.11050000 0.11050200 16385.27175755 0 8.22279454 0 6028.39470898 0 -498.63414236 0 167.43960922 0 13428
0.11150000 0.11150900 16395.83796924 0 -104.18385889 0 6497.66939570 0 -194.04285731 0 932.95152937 0 13453
0.11250000 0.11250000 16400.10941652 0 184.55462403 0 6931.41238546 0 -613.57092015 0 -369.29809099 0 13668
0.11350000 0.11349100 16498.24029740 0 82.21322019 0 6748.94290214 0 -98.53520709 0 7.07122360 0 13791
0.11450000 0.11448600 16280.62129925 0 210.03380704 0 6861.10211513 0 498.36324268 0 -172.08312204 0 14205
0.11550000 0.11549300 16199.01417494 0 208.86365530 0 5913.11059509 0 823.64968979 0 -654.75554036 0 14776
0.11650000 0.11649800 15772.99351223 0 150.78883330 0 5505.13117680 0 1206.49276491 0 -801.57867208 0 14553
0.11750000 0.11747300 15900.46249152 0 251.63433133 0 4620.04233825 0 992.57418898 0 -1322.06913573 0 14568
0.11850000 0.11849100 15312.46405179 0 329.65119179 0 4373.96201244 0 411.36173009 0 -1368.18952567 0 16015
0.11950000 0.11950300 14924.32438204 0 298.03686161 0 3412.90885624 0 123.73258699 0 -2131.86809569 0 15270
0.12050000 0.12050700 14722.44229492 0 247.07062713 0 4183.00583783 0 -468.94758378 0 -1332.01711162 0 15999
0.12150000 0.12150000 14552.25884285 0 321.34997123 0 4098.98197361 0 -129.00557624 0 -1965.11304209 0 15670
0.12250000 0.12250700 14269.78128998 0 281.63900033 0 4923.19144781 0 210.70150169 0 -399.15325933 0 16887
0.12350000 0.12352200 14118.59453765 0 270.33427789 0 4499.01425183 0 473.59446879 0 -797.12287813 0 16407
0.12450000 0.12449800 14139.72696102 0 73.39976318 0 5186.55989444 0 557.39239593 0 416.56277918 0 16306
0.12550000 0.12549900 14045.75512091 0 106.97704819 0 5421.41081016 0 579.40721038 0 786.13626611 0 17523
0.12650000 0.12650100 14033.61521812 0 118.22916439 0 4865.84164778 0 122.28479117 0 1210.62932438 0 17154
0.12750000 0.12750600 13991.12555836 0 208.53992456 0 5577.08258213 0 -275.26555136 0 1192.30706369 0 18007
0.12850000 0.12850300 13961.56264693 0 291.57236338 0 5309.31904107 0 -356.81197615 0 1385.29779609 0 17496
0.12950000 0.12949900 13555.32552952 0 303.74149186 0 5821.46556968 0 -167.19456304 0 779.81002788 0 18405
0.13050000 0.13049000 13631.08751544 0 287.21211496 0 5592.23497932 0 -349.66404635 0 840.48481239 0 18100
0.13150000 0.13148800 13136.61128979 0 142.81359160 0 5492.68777645 0 -297.38153167 0 324.84918580 0 19059
0.13250000 0.13249300 13355.01713349 0 39.10509983 0 5711.94790960 0 -72.28525266 0 -98.03151353 0 18957
0.13350000 0.13349100 13160.66628235 0 -105.69977305 0 5286.52300139 0 127.47797181 0 -473.98451937 0 19468
0.13450000 0.13450700 13247.66891901 0 9.05459146 0 4973.90926391 0 594.97551165 0 -346.16595585 0 19953
0.13550000 0.13551000 13100.64120745 0 17.23708827 0 4678.44875944 0 552.06657561 0 52.74315655 0 19956
0.13650000 0.13649900 13116.94015101 0 210.31257518 0 4794.20498067 0 793.92491300 0 122.08807978 0 19723
0.13750000 0.13749600 12757.35173412 0 305.10385873 0 4328.03271356 0 713.71500158 0 393.86453316 0 20946
0.13850000 0.13851100 12521.29806877 0 250.09661031 0 4442.35013149 0 627.97131780 0 1296.27184230 0 20955
0.13950000 0.13949800 12358.30863317 0 258.53833901 0 4101.98322736 0 461.11847055 0 1961.72960622 0 20506
0.14050000 0.14048300 12352.57590130 0 210.11249159 0 4362.94617473 0 306.10202851 0 2446.33654054 0 21447
0.14150000 0.14148400 11959.37793873 0 173.10826939 0 4209.58997680 0 256.46106675 0 2343.54078960 0 21771
0.14250000 0.14249400 12098.31238177 0 57.22379233 0 4162.80638846 0 268.81229378 0 2451.56344313 0 22470
0.14350000 0.14350900 11859.22374072 0 140.58007430 0 3762.86403545 0 89.39880617 0 1928.71581503 0 22519
0.14450000 0.14449900 11836.18040672 0 173.74898648 0 3725.38770592 0 85.64802584 0 1831.16944798 0 22218
0.14550000 0.14550500 11550.89269117 0 131.74042657 0 3639.39672782 0 187.89984168 0 971.18772690 0 23559
0.14650000 0.14650700 11370.48024693 0 287.10308065 0 3071.48533094 0 18.63047933 0 235.93563852 0 23044
0.14750000 0.14750500 11161.76384416 0 217.81683360 0 3127.39632768 0 135.52627773 0 631.96961727 0 23649
0.14850000 0.14849900 10945.63985256 0 187.91782673 0 2980.20000636 0 -134.72144714 0 -232.39033728 0 23640
0.14950000 0.14949500 10857.43446627 0 148.20460769 0 3014.28165937 0 -51.51039438 0 62.12044461 0 24457
0.15050000 0.15050000 10603.18218739 0 234.28438693 0 2944.22992402 0 87.79521494 0 -626.15482864 0 24591
0.15150000 0.15149900 10526.98181608 0 277.23716150 0 3142.61616877 0 -157.10495494 0 169.82824750 0 25020
0.15250000 0.15250500 10364.31835935 0 149.24886415 0 3109.02910438 0 99.67500907 0 -96.41398389 0 25297
0.15350000 0.15350100 10283.53180255 0 118.32583398 0 3514.64798601 0 190.75159477 0 274.48994646 0 25452
0.15450000 0.15450400 10155.44458747 0 73.82139998 0 3169.79606224 0 328.03366215 0 189.60617247 0 26061
0.15550000 0.15549900 10040.68878416 0 150.47297101 0 3449.09251095 0 228.14474350 0 245.07203943 0 26128
0.15650000 0.15649500 9904.47457860 0 191.43727447 0 3194.73906621 0 197.71517790 0 490.46780961 0 26331
0.15750000 0.15749700 9810.86243931 0 154.59716576 0 3282.73088013 0 211.17922935 0 431.65110466 0 27345
0.15850000 0.15849900 9635.17106839 0 3.90633970 0 2956.05508859 0 145.49336274 0 329.47358951 0 26980
0.15950000 0.15949700 9690.65492039 0 -8.99069960 0 2674.92641380 0 165.10042981 0 -296.24847408 0 27777
0.16050000 0.16050000 9606.18143015 0 21.99177112 0 2343.07992292 0 -156.65645298 0 -576.60266803 0 28224
0.16150000 0.16150500 9426.33101845 0 71.96264598 0 2095.42590602 0 -195.05563994 0 -959.98304625 0 28075
0.16250000 0.16249700 9516.49227797 0 138.58823099 0 2003.63475215 0 -85.40444094 0 -1040.61673020 0 28590
0.16350000 0.16349900 9246.90775149 0 116.30701311 0 1645.13667838 0 107.69644984 0 -1146.46769001 0 29163
0.16450000 0.16449100 9282.52937365 0 118.58774115 0 1850.86306806 0 404.31833834 0 -995.71257866 0 28996
0.16550000 0.16550500 9064.37082427 0 107.39643687 0 1530.56072548 0 345.58369014 0 -870.56479375 0 30777
0.16650000 0.16650700 9044.44115052 0 29.62259928 0 1712.61430472 0 599.18963161 0 -571.63654853 0 29211
0.16750000 0.16749900 9034.06602989 0 50.14937639 0 1465.54480166 0 291.67015704 0 95.92344189 0 30922
0.16850000 0.16850800 9224.20163701 0 11.41038456 0 1468.62473996 0 146.05202308 0 491.82343208 0 30867
0.16950000 0.16949900 9068.75467805 0 9.52013425 0 1506.33712316 0 98.30140155 0 740.95109830 0 30852
0.17050000 0.17049200 9193.58210442 0 49.65445054 0 1575.17486824 0 -238.69184608 0 465.20894335 0 31257
0.17150000 0.17149500 9210.30819271 0 160.28718316 0 1717.89741057 0 -265.45808360 0 161.51803442 0 32608
0.17250000 0.17250900 8914.33061831 0 223.51696759 0 1725.17011159 0 -145.46301298 0 312.31248804 0 32361
0.17350000 0.17350400 8896.10952347 0 207.42035574 0 1745.60561462 0 -104.60144907 0 -435.52463290 0 32508
0.17450000 0.17449800 8592.20729031 0 180.56306895 0 1712.89532099 0 239.14147211 0 78.38521659 0 32791
0.17550000 0.17549800 8495.08806799 0 101.22014892 0 1438.58972120 0 368.74505097 0 -558.05447026 0 33633
0.17650000 0.17650100 8441.07674123 0 12.60661461 0 1578.17612198 0 244.43469454 0 -55.66819868 0 33984
0.17750000 0.17750300 8361.47045276 0 132.12148463 0 1309.44588495 0 113.28215400 0 -289.76823893 0 34069
