### header ###
fiducial parameters:
Omega_m = 0.31
Omega_nu = 0
Omega_de = 0.69
Omega_k = 0
H_0 = 100
w_de = -1
zeff = 0
beta = 0
fgrowth = 0
b_1 = 2
gamma = 0.55
Lx = 3500 Ly = 3500 Lz = 3500
nx = 700 ny = 700 nz = 700
xoffset = 857.220397 yoffset = 15.9954215 zoffset = 262.898189
bins = 400 dk = 0.001
kx_ny = 0.628318531 ky_ny = 0.628318531 kz_ny = 0.628318531
############################
A(data) = 3.06339743 (not used)
A(ran) = 3.05866003 (used)
Ngal = 186189
weighted Ngal = 0
Nran = 9360983
weighted Nran = 0
SN(data) = 3460.36867
SN(ran) = 68.6860092
SN(data+ran) = 3529.05468
############################
13 columns: k_central k_mean P_0(k) sigma^{lin}_{P_0(k)} P^img_1(k) sigma^{lin}_{P_1(k)} P_2(k) sigma^{lin}_{P_2(k)} P^img_3(k) sigma^{lin}_{P_3(k)} P_4(k) sigma^{lin}_{P_4(k)} N_modes
### header ###
0.00050000 0 0 0 0 0 0 0 0 0 0 0 0
0.00150000 0.00179520 16034.56345474 0 -20721.57759005 0 -14046.42955995 0 26648.21068796 0 10786.39355365 0 3
0.00250000 0.00253879 28901.96115952 0 -21722.89475716 0 -6799.75064344 0 -20577.69726069 0 -6933.26709283 0 6
0.00350000 0.00331552 40864.93610649 0 -19498.70719702 0 -17082.07969637 0 -908.07596930 0 21646.68314521 0 7
0.00450000 0.00420575 49798.10605542 0 -10462.08953941 0 -11336.87070125 0 -20502.16008778 0 -2418.35856087 0 24
0.00550000 0.00557378 57025.73206894 0 1822.53662822 0 -3245.09718148 0 -21993.34481375 0 3151.56372675 0 45
0.00650000 0.00659388 49696.60297932 0 9767.99059742 0 23087.17253638 0 -22896.30628697 0 1945.81284479 0 40
0.00750000 0.00754703 52854.88861521 0 9699.55751577 0 23674.49653708 0 -12079.99012107 0 17603.75829679 0 57
0.00850000 0.00846663 46030.12752389 0 5654.45198111 0 46332.50102855 0 -2546.05235317 0 -1313.11033709 0 75
0.00950000 0.00948925 49982.56513392 0 2886.02583453 0 45300.49688494 0 4961.07244077 0 -6743.30009547 0 112
0.01050000 0.01054430 54933.62215489 0 -2239.60973294 0 66311.18401178 0 4364.91328860 0 8753.24085268 0 105
0.01150000 0.01145670 58572.67042254 0 1751.81045382 0 64040.46015762 0 6521.87051672 0 -7095.91930890 0 144
0.01250000 0.01249090 61167.46223728 0 2522.96405657 0 67785.95738769 0 6797.36762549 0 4244.08753390 0 169
0.01350000 0.01339930 54664.97060242 0 1822.43546236 0 61148.69035056 0 19309.86426474 0 -20043.76635097 0 180
0.01450000 0.01448870 56855.09899085 0 2885.01417597 0 52155.38292022 0 15640.01661409 0 -10873.57604072 0 267
0.01550000 0.01550050 58304.13127658 0 -962.39191770 0 52384.24256910 0 11505.48046221 0 -18069.12123705 0 238
0.01650000 0.01653350 58351.22960314 0 -3619.90543946 0 28173.90421168 0 8679.23240827 0 -20034.32420435 0 315
0.01750000 0.01747870 58050.42978958 0 -7370.17994609 0 17944.46242045 0 -80.49913336 0 -30162.03810647 0 297
0.01850000 0.01844180 69262.30445470 0 -4474.11621046 0 9650.16609646 0 -3583.38456523 0 -29844.48972332 0 388
0.01950000 0.01947590 68715.55920314 0 -1852.83018194 0 16271.85359168 0 -8223.39029918 0 -34276.56590004 0 399
0.02050000 0.02045430 73362.78143486 0 -482.37566514 0 7818.92920457 0 -4114.59523748 0 -27341.53402505 0 462
0.02150000 0.02154770 72242.65058951 0 212.18751572 0 13842.63656220 0 2556.10149493 0 -22356.97986490 0 571
0.02250000 0.02255340 73245.31663472 0 199.90260853 0 13055.90341754 0 7317.10159334 0 -14459.29866130 0 510
0.02350000 0.02348930 71180.29668893 0 -2384.27690785 0 15562.23131103 0 15028.18799480 0 -8510.81373837 0 555
0.02450000 0.02439640 71081.71618202 0 1417.18752221 0 15168.80853544 0 7075.58497173 0 -2309.74015285 0 592
0.02550000 0.02547300 72949.79992700 0 736.14234792 0 10715.20651257 0 3702.11955890 0 13139.30904596 0 837
0.02650000 0.02652900 69595.58974887 0 3616.45455968 0 21521.12507654 0 -3704.39017035 0 11499.41051082 0 723
0.02750000 0.02749970 71528.75686159 0 5441.94747905 0 21531.57888172 0 -8304.66020396 0 11694.21098799 0 826
0.02850000 0.02848090 65199.25884148 0 3854.09315679 0 28620.83248474 0 -8713.92105643 0 2875.02123747 0 831
0.02950000 0.02946900 62281.29831822 0 3150.46214298 0 33536.03182988 0 -4520.92228010 0 10545.06802311 0 996
0.03050000 0.03053250 63920.74722733 0 -1350.92388615 0 32955.56462613 0 5280.72282561 0 2592.75725696 0 1041
0.03150000 0.03150510 64722.31803096 0 -3490.97517557 0 32214.24371043 0 10054.54850651 0 -1755.08148318 0 1036
0.03250000 0.03246190 67915.33727760 0 -1006.23607588 0 24884.44018176 0 8791.17804890 0 -5232.45547137 0 1059
0.03350000 0.03345080 67338.01745606 0 2402.49800269 0 25730.86118180 0 5229.62282739 0 -1957.03101422 0 1302
0.03450000 0.03451200 61690.26490278 0 5740.01581448 0 20342.43044089 0 2745.83243861 0 5142.32793381 0 1339
0.03550000 0.03553350 56054.42743928 0 5066.52098528 0 23926.51192647 0 2738.16631482 0 14576.08902240 0 1365
0.03650000 0.03647120 53102.18293129 0 3259.78871199 0 23784.31769472 0 6414.96068762 0 14820.57317580 0 1308
0.03750000 0.03744890 51227.91682840 0 542.73908363 0 27301.29249543 0 8414.98719089 0 19002.32006074 0 1579
0.03850000 0.03847530 50331.92455864 0 -399.05658973 0 25913.52175618 0 5378.34787721 0 17459.54074791 0 1662
0.03950000 0.03950240 49991.44524800 0 -568.94778488 0 25423.99141685 0 2421.13500160 0 18635.20040787 0 1683
0.04050000 0.04050350 50412.96965041 0 1652.38689811 0 22474.78188456 0 -186.02265301 0 15924.62989060 0 1822
0.04150000 0.04152450 49078.59200213 0 3471.34899940 0 23678.88039086 0 -3024.33080113 0 17377.25918456 0 1887
0.04250000 0.04250150 44898.64362131 0 3265.11678043 0 17962.44746162 0 -1025.67678132 0 8860.37549480 0 1920
0.04350000 0.04349210 42791.47123527 0 3182.50923821 0 19671.81321828 0 -157.92889464 0 7274.74682138 0 2005
0.04450000 0.04448520 40279.29820340 0 2114.44508705 0 15583.13892139 0 1857.71986501 0 655.30520819 0 2151
0.04550000 0.04548030 38396.03957993 0 887.21219748 0 17134.23631576 0 2782.55564455 0 -4248.71868200 0 2274
0.04650000 0.04648670 37554.00243368 0 1107.74477230 0 13386.82817506 0 263.54604891 0 -1308.95129632 0 2311
0.04750000 0.04749250 37077.96087522 0 1049.84867665 0 12139.56556995 0 2773.07977599 0 -2747.23751996 0 2568
0.04850000 0.04851840 34755.19280817 0 925.36858639 0 11143.26173306 0 3410.40219113 0 3047.57646684 0 2493
0.04950000 0.04949480 35976.03988406 0 198.32891743 0 8251.14346583 0 4895.77550068 0 2267.36289960 0 2644
0.05050000 0.05050630 34588.94358385 0 -862.58168360 0 6451.54900575 0 7053.56453695 0 4693.05036474 0 2829
0.05150000 0.05149060 35466.61359293 0 -133.44001296 0 3482.87066639 0 4242.21034523 0 5383.18135702 0 2784
0.05250000 0.05249300 33956.54457373 0 376.39094160 0 733.82340167 0 2495.98649482 0 6707.71219526 0 3055
0.05350000 0.05348950 32580.12689172 0 1083.95955536 0 675.62605658 0 -524.05150179 0 5546.72158451 0 3009
0.05450000 0.05448610 33659.67898792 0 72.12754633 0 342.55883103 0 181.09475173 0 11893.39531894 0 3336
0.05550000 0.05550870 32978.15833410 0 -387.27751183 0 1295.19273983 0 238.52436038 0 9748.10588628 0 3349
0.05650000 0.05647670 34750.80895438 0 -734.25729079 0 1750.38289118 0 1291.19106817 0 9819.50649972 0 3324
0.05750000 0.05747970 34944.93499251 0 -231.99354231 0 3286.84495830 0 252.36834582 0 8576.54906384 0 3639
0.05850000 0.05849280 34402.34878172 0 708.72640078 0 6017.31142736 0 -1917.83486512 0 8084.32096833 0 3846
0.05950000 0.05951020 34733.16113273 0 822.06813023 0 7880.29191691 0 -3437.61580655 0 9062.43743234 0 3787
0.06050000 0.06049470 33314.92823000 0 795.08944442 0 7920.98307256 0 605.77328074 0 6815.48755447 0 3930
0.06150000 0.06148310 33914.61694650 0 473.81928181 0 10528.00471530 0 -937.73779845 0 9849.04692984 0 4083
0.06250000 0.06249100 32780.88491377 0 247.22912031 0 8049.90209579 0 1689.13258535 0 5335.36362881 0 4303
0.06350000 0.06350600 32971.97597620 0 527.57994206 0 9901.37215900 0 2053.03741211 0 7267.39543581 0 4470
0.06450000 0.06451750 31945.36734494 0 940.28043365 0 6602.20744750 0 -757.86153326 0 5211.14319759 0 4479
0.06550000 0.06550280 31485.73713655 0 1197.51148498 0 8529.05731450 0 -831.34728741 0 5322.76285934 0 4636
0.06650000 0.06648880 30305.01918377 0 804.25956728 0 7456.26084939 0 -534.84027837 0 5187.79636602 0 4653
0.06750000 0.06749660 30182.04646477 0 342.67798192 0 8433.41061743 0 345.30492200 0 4711.78852951 0 5220
0.06850000 0.06852730 30267.70022334 0 118.96430295 0 7038.18732675 0 951.88640553 0 4258.47556683 0 5029
0.06950000 0.06949320 30209.24883954 0 114.08248833 0 8429.97097831 0 -140.39797576 0 -321.70517579 0 5040
0.07050000 0.07048030 29757.71189967 0 559.87095941 0 7311.07660455 0 -399.61749820 0 2329.80471441 0 5475
0.07150000 0.07148790 30184.18218841 0 281.29728454 0 9826.09352105 0 -371.74068439 0 878.35119251 0 5509
0.07250000 0.07249820 29271.44134905 0 933.94183070 0 8933.24863349 0 -620.77954946 0 2144.58127166 0 5916
0.07350000 0.07351270 28899.03859033 0 640.59681670 0 10548.79991915 0 470.69325684 0 767.60605338 0 5721
0.07450000 0.07449140 27871.86792654 0 1024.00417249 0 10499.98177302 0 959.36481046 0 1600.58997954 0 6028
0.07550000 0.07549160 27764.29489904 0 1052.26429249 0 11211.91962772 0 1046.17635605 0 2717.98934675 0 6183
0.07650000 0.07648840 26221.62799272 0 641.13299574 0 11588.21165159 0 1057.89361038 0 2862.16193303 0 6330
0.07750000 0.07749960 26027.05232857 0 188.12577876 0 10341.09517494 0 987.46868542 0 2930.65121793 0 6583
0.07850000 0.07848650 26196.89856111 0 301.18424382 0 11313.04052170 0 814.89322287 0 4993.37807097 0 6549
0.07950000 0.07947320 25942.85985459 0 355.18432993 0 9975.06586519 0 1678.27411674 0 5457.17856079 0 6828
0.08050000 0.08048110 25477.49691433 0 255.12455338 0 9777.84864811 0 1361.35521003 0 6410.84660945 0 7147
0.08150000 0.08149960 25539.54530636 0 348.72095576 0 8721.53097697 0 814.35479570 0 6560.99922192 0 7386
0.08250000 0.08250610 25036.41377964 0 637.97886915 0 8966.64460681 0 1251.92747516 0 6163.14762995 0 7227
0.08350000 0.08350160 24269.46418027 0 701.34016919 0 8873.65070331 0 -574.13084893 0 5339.17420941 0 7798
0.08450000 0.08449610 23655.38743083 0 449.63951802 0 8500.24752668 0 -648.46414815 0 4699.64862672 0 7371
0.08550000 0.08548940 23251.73566308 0 370.52669411 0 8013.05524270 0 446.56182785 0 2108.99337145 0 8256
0.08650000 0.08650700 22820.76911406 0 -60.31328519 0 8133.85851610 0 148.70818885 0 371.07186567 0 8037
0.08750000 0.08749060 22841.67672442 0 -149.33878935 0 6215.79883797 0 624.91835706 0 -1942.22707721 0 8155
0.08850000 0.08849210 22703.30431392 0 147.30423157 0 5667.99696525 0 817.18743969 0 -1523.61400333 0 8718
0.08950000 0.08949900 22224.34018627 0 355.69915173 0 4476.57791297 0 572.37730742 0 -2926.43597391 0 8571
0.09050000 0.09049190 21700.63826871 0 733.70200264 0 5157.17683343 0 746.99519620 0 -833.82585090 0 8932
0.09150000 0.09150830 21094.87960082 0 800.49170116 0 5157.86251312 0 913.72102410 0 -1270.69936188 0 9285
0.09250000 0.09250820 20456.07341978 0 531.62095600 0 5116.37327127 0 844.15488486 0 958.15082018 0 9204
0.09350000 0.09350330 20159.09542747 0 288.61832036 0 5639.51315629 0 455.35876111 0 2136.06085841 0 9349
0.09450000 0.09448040 20019.82376491 0 49.99942611 0 5852.91691042 0 -126.96202594 0 1624.36395583 0 9564
0.09550000 0.09549270 20111.99710090 0 26.91202876 0 6335.02842027 0 -576.72406705 0 2937.58669943 0 10155
0.09650000 0.09649430 20389.86598697 0 248.64993856 0 6475.51407311 0 -1204.78418600 0 1611.14495057 0 9913
0.09750000 0.09749140 19899.88602161 0 598.21057093 0 7169.55681184 0 -986.00852489 0 2200.45854645 0 10476
0.09850000 0.09850240 19490.72633500 0 792.31749995 0 7671.72164260 0 -123.32904763 0 1532.57280196 0 10575
0.09950000 0.09950330 19248.93993778 0 557.69139724 0 7962.47231441 0 455.74431543 0 2305.87336900 0 10882
0.10050000 0.10051200 18542.01541331 0 473.77769140 0 7583.11159289 0 1253.86086709 0 1827.99958448 0 10875
0.10150000 0.10150300 18097.44767690 0 300.40976298 0 8351.33138580 0 554.37652934 0 2078.08158194 0 11118
0.10250000 0.10250800 17803.72947329 0 163.00292438 0 7661.20039352 0 376.46175770 0 2518.99610686 0 11575
0.10350000 0.10349800 17940.64059920 0 282.13358896 0 8219.27622101 0 -393.23280859 0 2500.20173884 0 11364
0.10450000 0.10450100 17479.99873224 0 383.08699724 0 7938.91191048 0 -964.13421856 0 1669.40524331 0 12093
0.10550000 0.10551000 17442.45495880 0 231.36518993 0 8048.58693966 0 -841.13901827 0 1361.55754174 0 12067
0.10650000 0.10649700 17273.84519784 0 169.59781416 0 8442.03219654 0 -374.84872432 0 775.37783929 0 12054
0.10750000 0.10749900 17142.10477127 0 28.46436263 0 7709.86117053 0 740.57903276 0 582.13082006 0 12807
0.10850000 0.10850100 17280.02755574 0 -185.95858130 0 7414.52431322 0 1325.74482851 0 -4.15026182 0 12736
0.10950000 0.10950300 17287.78360474 0 40.91653069 0 6890.22664118 0 1368.96513058 0 -152.44795334 0 12933
0.11050000 0.11050200 17036.10543488 0 369.40150497 0 5938.35709663 0 1502.13311979 0 -187.37827549 0 13428
0.11150000 0.11150900 16570.18046208 0 563.36680179 0 6022.13366653 0 182.15249697 0 340.04092526 0 13453
0.11250000 0.11250000 16040.74581265 0 600.04054887 0 5808.76363435 0 -141.95030963 0 183.74417311 0 13668
0.11350000 0.11349100 15677.22316801 0 253.63179496 0 5715.25266092 0 235.92102567 0 1346.06792504 0 13791
0.11450000 0.11448600 15654.29224051 0 66.63165496 0 5901.92614761 0 546.26639983 0 1399.74203228 0 14205
0.11550000 0.11549300 15685.76606256 0 -98.46461580 0 5473.38757914 0 1293.18066335 0 2344.97959290 0 14776
0.11650000 0.11649800 15486.24451209 0 31.63636186 0 5398.04149729 0 1404.87900966 0 2521.57021588 0 14553
0.11750000 0.11747300 15291.44403492 0 269.17311866 0 4699.33388850 0 1214.68719929 0 3162.95050594 0 14568
0.11850000 0.11849100 14903.86639771 0 157.14991754 0 4013.55302806 0 1175.53601280 0 3597.37917539 0 16015
0.11950000 0.11950300 15038.64179998 0 63.58847359 0 3635.32761226 0 543.84853586 0 3737.68497782 0 15270
0.12050000 0.12050700 15056.73924766 0 -102.52294034 0 3093.84298525 0 365.60441316 0 3327.95201802 0 15999
0.12150000 0.12150000 14836.64730634 0 -7.70967008 0 2871.18817557 0 -372.42524002 0 2204.40401485 0 15670
0.12250000 0.12250700 14922.18865841 0 231.62372490 0 2960.80988384 0 -918.74222278 0 1836.02540910 0 16887
0.12350000 0.12352200 14372.74565067 0 471.84317541 0 2759.95069593 0 -837.39363344 0 -115.55501358 0 16407
0.12450000 0.12449800 14179.51886461 0 602.78101951 0 2995.59969786 0 -893.14726107 0 73.75361886 0 16306
0.12550000 0.12549900 13530.70850442 0 478.45042991 0 3042.09102928 0 -280.91735055 0 -1269.18187404 0 17523
0.12650000 0.12650100 13445.84159140 0 330.30090140 0 3380.72687320 0 -57.95510907 0 -537.15922461 0 17154
0.12750000 0.12750600 13012.85172524 0 103.89429973 0 2869.37843080 0 413.12426412 0 -1313.89718264 0 18007
0.12850000 0.12850300 13111.99426469 0 126.38875275 0 3164.38930923 0 491.38954297 0 -228.04919797 0 17496
0.12950000 0.12949900 12965.30377265 0 110.74446469 0 2755.61180475 0 360.15944194 0 -454.60900971 0 18405
0.13050000 0.13049000 12848.51341155 0 122.91651574 0 3154.91344067 0 137.68560674 0 200.19486545 0 18100
0.13150000 0.13148800 12891.11547782 0 182.20757615 0 3280.67384105 0 -94.44720723 0 751.41951633 0 19059
0.13250000 0.13249300 12744.98701832 0 151.99607918 0 3386.67317744 0 52.60759430 0 327.40530978 0 18957
0.13350000 0.13349100 12588.51716014 0 244.22899063 0 4058.81912855 0 -606.30608758 0 842.96899620 0 19468
0.13450000 0.13450700 12474.87418125 0 236.69438244 0 4068.22755321 0 -450.14647137 0 621.26177338 0 19953
0.13550000 0.13551000 12310.98549360 0 215.21012670 0 4823.48687583 0 -526.11078901 0 551.75970585 0 19956
0.13650000 0.13649900 12342.34690914 0 310.71294344 0 4854.46610924 0 -323.01133941 0 422.36632715 0 19723
0.13750000 0.13749600 11983.65774431 0 178.55436467 0 4674.18855282 0 92.86193826 0 94.46822725 0 20946
0.13850000 0.13851100 11898.00398574 0 33.94822649 0 4533.27575525 0 620.87172280 0 283.64995274 0 20955
0.13950000 0.13949800 11855.40191947 0 -116.82970337 0 4175.46336118 0 1089.75635894 0 74.28181704 0 20506
0.14050000 0.14048300 11883.50354630 0 -72.34168072 0 3543.96360312 0 1054.33819255 0 -71.64824498 0 21447
0.14150000 0.14148400 11829.54842279 0 -51.03637614 0 3120.40464292 0 833.24470926 0 -307.94549523 0 21771
0.14250000 0.14249400 11629.35243327 0 250.02017388 0 2672.55463650 0 62.84850155 0 -341.11553147 0 22470
0.14350000 0.14350900 11523.35309688 0 267.00479714 0 2633.98796384 0 -488.96493460 0 -667.26863276 0 22519
0.14450000 0.14449900 11394.98486553 0 256.53075879 0 2663.67452242 0 -405.46600878 0 -374.62278724 0 22218
0.14550000 0.14550500 11035.46389255 0 241.81449885 0 2701.48807148 0 -413.93696317 0 -353.14527589 0 23559
0.14650000 0.14650700 11136.64098978 0 161.36178937 0 2740.43692626 0 -89.78627140 0 -915.22277504 0 23044
0.14750000 0.14750500 10900.78965614 0 110.36070888 0 3168.57083131 0 346.28398268 0 -495.80936683 0 23649
0.14850000 0.14849900 10888.79588181 0 289.89750642 0 2962.64210991 0 111.01232940 0 -878.95031919 0 23640
0.14950000 0.14949500 10574.45108412 0 235.17689459 0 3211.15041627 0 250.96551261 0 -21.85238705 0 24457
0.15050000 0.15050000 10330.16926243 0 251.68828645 0 3169.91970939 0 11.39419802 0 -126.61918609 0 24591
0.15150000 0.15149900 10246.55006164 0 160.16466007 0 3209.92518534 0 76.22285261 0 261.85657910 0 25020
0.15250000 0.15250500 10122.48699953 0 91.42470866 0 3145.56121926 0 136.72115891 0 95.39704222 0 25297
0.15350000 0.15350100 10106.13185271 0 54.89753967 0 2883.95755480 0 4.17755412 0 -133.96157915 0 25452
0.15450000 0.15450400 10009.04635235 0 23.08380034 0 2842.41210969 0 40.35820757 0 -312.71040708 0 26061
0.15550000 0.15549900 10015.68957693 0 88.56283898 0 2807.36376072 0 -237.84767321 0 -892.82015813 0 26128
0.15650000 0.15649500 9905.69980953 0 219.12636942 0 2980.31241286 0 -5.81047221 0 -587.58590786 0 26331
0.15750000 0.15749700 9762.14545904 0 201.17954646 0 2737.42443187 0 86.88179966 0 -681.95004668 0 27345
0.15850000 0.15849900 9578.97905538 0 134.54609299 0 2997.60053369 0 389.26710701 0 -109.35118603 0 26980
0.15950000 0.15949700 9619.70393298 0 9.43861705 0 2851.29222377 0 725.94033331 0 -46.47132307 0 27777
0.16050000 0.16050000 9449.79025653 0 59.29757999 0 2647.49922602 0 470.07726918 0 444.60820275 0 28224
0.16150000 0.16150500 9540.64843639 0 122.26455800 0 2464.07428739 0 436.64082952 0 697.29915525 0 28075
0.16250000 0.16249700 9258.95772907 0 187.89197323 0 2264.50777431 0 -31.20539531 0 898.69789440 0 28590
0.16350000 0.16349900 9139.05370772 0 234.83517881 0 2255.95363911 0 288.74983598 0 1303.83680024 0 29163
0.16450000 0.16449100 8938.72283039 0 182.79883438 0 2292.12605316 0 -8.55818184 0 977.39818643 0 28996
0.16550000 0.16550500 8753.15092748 0 218.73631883 0 2021.85584698 0 130.27689384 0 1062.52026222 0 30777
0.16650000 0.16650700 8635.67488669 0 154.10032900 0 2162.72368194 0 359.61427038 0 1014.00786179 0 29211
0.16750000 0.16749900 8372.16031160 0 101.91987943 0 1678.83614928 0 243.10380149 0 1087.24407350 0 30922
0.16850000 0.16850800 8475.83283329 0 -19.41552638 0 1867.94885717 0 361.71964426 0 1136.08132873 0 30867
0.16950000 0.16949900 8369.47379608 0 -115.25376414 0 1591.38388659 0 310.46564912 0 1155.88735532 0 30852
0.17050000 0.17049200 8585.40669662 0 -102.43537567 0 1637.49303589 0 76.07222789 0 1094.95178771 0 31257
0.17150000 0.17149500 8632.32517277 0 -19.60391969 0 1536.69812078 0 -13.35524195 0 1216.92408879 0 32608
0.17250000 0.17250900 8669.14954456 0 -18.72624968 0 1750.42785378 0 -93.41981175 0 1289.57241446 0 32361
0.17350000 0.17350400 8746.22668663 0 101.74115308 0 1662.69457483 0 -84.67750805 0 1174.17589406 0 32508
0.17450000 0.17449800 8667.53089086 0 128.73242843 0 1832.77686104 0 -149.84461863 0 997.38518749 0 32791
0.17550000 0.17549800 8536.37497813 0 247.23811283 0 1787.72433291 0 -185.54380129 0 756.72397941 0 33633
0.17650000 0.17650100 8405.24154670 0 221.33515728 0 2078.98083400 0 -308.58059200 0 819.15455357 0 33984
0.17750000 0.17750300 8175.35899860 0 252.61001981 0 1897.79278487 0 -144.72000597 0 698.99312132 0 34069
0.17850000 0.17849800 8042.28093460 0 166.28856659 0 2114.34392120 0 -21.34633296 0 600.83751100 0 34536
