### header ###
fiducial parameters:
Omega_m = 0.31
Omega_nu = 0
Omega_de = 0.69
Omega_k = 0
H_0 = 100
w_de = -1
zeff = 0
beta = 0
fgrowth = 0
b_1 = 2
gamma = 0.55
Lx = 3500 Ly = 3500 Lz = 3500
nx = 700 ny = 700 nz = 700
xoffset = 857.220397 yoffset = 15.9954215 zoffset = 262.898189
bins = 400 dk = 0.001
kx_ny = 0.628318531 ky_ny = 0.628318531 kz_ny = 0.628318531
############################
A(data) = 3.08215505 (not used)
A(ran) = 3.07860287 (used)
Ngal = 187808
weighted Ngal = 0
Nran = 9360983
weighted Nran = 0
SN(data) = 3449.39453
SN(ran) = 69.1338506
SN(data+ran) = 3518.52838
############################
13 columns: k_central k_mean P_0(k) sigma^{lin}_{P_0(k)} P^img_1(k) sigma^{lin}_{P_1(k)} P_2(k) sigma^{lin}_{P_2(k)} P^img_3(k) sigma^{lin}_{P_3(k)} P_4(k) sigma^{lin}_{P_4(k)} N_modes
### header ###
0.00050000 0 0 0 0 0 0 0 0 0 0 0 0
0.00150000 0.00179520 768.18045063 0 -286.27464469 0 6674.74336667 0 5488.13531290 0 -10079.27793812 0 3
0.00250000 0.00253879 5930.09521834 0 -7373.58586326 0 -4273.59424207 0 19305.36800445 0 27225.64291601 0 6
0.00350000 0.00331552 10771.57837599 0 -8035.45785960 0 12212.96701922 0 -10593.90865053 0 -35671.75546877 0 7
0.00450000 0.00420575 24014.86344121 0 -15400.81556653 0 -3455.06129649 0 21089.37168196 0 376.42129135 0 24
0.00550000 0.00557378 42104.55506910 0 -14335.31428374 0 -290.94513507 0 18996.36251585 0 7770.51572187 0 45
0.00650000 0.00659388 61964.64918713 0 -10574.93443210 0 -22381.48448349 0 9235.01514301 0 -6869.70121294 0 40
0.00750000 0.00754703 57895.87084203 0 -898.85413944 0 11905.08559570 0 909.25286543 0 12773.87549070 0 57
0.00850000 0.00846663 66284.54366955 0 1363.42348976 0 880.46331078 0 -2013.91994757 0 8345.39632221 0 75
0.00950000 0.00948925 63740.22237659 0 462.79782377 0 27634.91500913 0 -2641.50795918 0 25770.76549190 0 112
0.01050000 0.01054430 63530.58424046 0 -519.08763043 0 15142.05578670 0 8379.61286303 0 1363.17619545 0 105
0.01150000 0.01145670 70395.69926791 0 -3650.88467287 0 32758.96564485 0 4908.79217422 0 19320.65528944 0 144
0.01250000 0.01249090 72355.28190984 0 -3286.46277617 0 22898.66682362 0 13470.79583602 0 5219.15778156 0 169
0.01350000 0.01339930 79684.86062549 0 2207.04556778 0 42308.68528638 0 7971.49855694 0 10512.22284167 0 180
0.01450000 0.01448870 76631.78748044 0 3729.54674669 0 31196.40278673 0 -3299.70426273 0 7850.36930467 0 267
0.01550000 0.01550050 76141.80751508 0 7844.78270125 0 25969.83741635 0 5302.00137744 0 -12965.86580518 0 238
0.01650000 0.01653350 69914.93663614 0 5392.25256216 0 34606.70381201 0 -6694.31333959 0 -1486.50861527 0 315
0.01750000 0.01747870 63009.69248559 0 3955.24777271 0 24535.30557006 0 4638.11730462 0 -15573.69677477 0 297
0.01850000 0.01844180 67250.22797385 0 1792.76014444 0 36386.99807478 0 3415.38179941 0 -182.32672705 0 388
0.01950000 0.01947590 60050.36636764 0 139.90338713 0 17640.62763119 0 8049.03656569 0 -25501.55190689 0 399
0.02050000 0.02045430 65193.52610960 0 -2184.36193460 0 15432.85142111 0 3257.59678509 0 -19324.36470418 0 462
0.02150000 0.02154770 62502.96395063 0 -3664.35097245 0 8000.93782121 0 6463.81255570 0 -27589.39037367 0 571
0.02250000 0.02255340 64469.85301554 0 -1457.93488111 0 653.77647969 0 3819.13473301 0 -27013.98146275 0 510
0.02350000 0.02348930 62879.30093711 0 -4124.12730930 0 -2192.81490395 0 3192.55837997 0 -27519.13630660 0 555
0.02450000 0.02439640 67792.58937162 0 -1252.12980688 0 -2480.86781958 0 -2906.60746602 0 -33638.88378407 0 592
0.02550000 0.02547300 65494.77554919 0 627.09791924 0 -6160.57352093 0 -881.06243747 0 -25290.45248616 0 837
0.02650000 0.02652900 62222.39730839 0 1862.64327003 0 -3300.21009202 0 -1400.02304854 0 -27195.40556555 0 723
0.02750000 0.02749970 63667.72017938 0 1471.72715956 0 -4310.49729842 0 -1202.89575668 0 -12731.04861141 0 826
0.02850000 0.02848090 61602.92504660 0 648.49000165 0 -323.47782641 0 -1100.02244525 0 -18804.14738835 0 831
0.02950000 0.02946900 62086.61024756 0 1334.65866454 0 -3183.35228702 0 -1291.39339988 0 -7362.45761904 0 996
0.03050000 0.03053250 60700.41319941 0 -968.44275999 0 2747.70962729 0 -5780.47091646 0 -11686.45493898 0 1041
0.03150000 0.03150510 62373.02202818 0 -1420.23373856 0 4684.46250759 0 -4706.69651473 0 -9881.92583323 0 1036
0.03250000 0.03246190 63007.78157496 0 -1720.01065290 0 -1104.27478342 0 526.82119813 0 -5736.77850707 0 1059
0.03350000 0.03345080 63045.77497443 0 79.04774054 0 7065.55831128 0 -2834.38628507 0 -11316.86234295 0 1302
0.03450000 0.03451200 63430.54244895 0 2426.39562614 0 -2341.02288384 0 2695.54176724 0 -9781.44565635 0 1339
0.03550000 0.03553350 60981.87909371 0 4657.85588731 0 1281.76016220 0 -554.61707926 0 -9271.16507576 0 1365
0.03650000 0.03647120 55091.10367163 0 5318.25535840 0 277.19107483 0 -97.61403576 0 -1948.34199120 0 1308
0.03750000 0.03744890 52143.46783044 0 4114.98866025 0 2444.17833560 0 -998.27994329 0 -513.52126019 0 1579
0.03850000 0.03847530 50071.36627469 0 3818.65138503 0 3129.49832936 0 -1099.21986279 0 3757.62589221 0 1662
0.03950000 0.03950240 48110.54716118 0 3257.60802575 0 9014.61970413 0 -3306.74091009 0 5790.21656064 0 1683
0.04050000 0.04050350 45192.69904443 0 1872.66993048 0 12866.16123320 0 -2336.51538290 0 5914.24590081 0 1822
0.04150000 0.04152450 44476.10756033 0 2216.00436641 0 17617.47189068 0 -3626.42501688 0 7680.20833390 0 1887
0.04250000 0.04250150 42894.43559597 0 1439.51145456 0 18598.89310601 0 -1257.16561840 0 2938.81193036 0 1920
0.04350000 0.04349210 42187.62347800 0 1077.74909583 0 14971.53511511 0 552.06095529 0 7258.39167457 0 2005
0.04450000 0.04448520 41818.25569498 0 339.48338899 0 18432.98110122 0 2070.02203537 0 2244.39825016 0 2151
0.04550000 0.04548030 40860.32743969 0 200.58941229 0 12651.68961725 0 5530.53504746 0 2585.91170066 0 2274
0.04650000 0.04648670 39592.04481771 0 1269.55281551 0 13152.23579430 0 4367.54360088 0 1761.06150937 0 2311
0.04750000 0.04749250 39340.14183483 0 1473.51442302 0 11977.58779291 0 4247.03258439 0 6438.34124114 0 2568
0.04850000 0.04851840 36914.63422010 0 1246.84670103 0 13789.91791027 0 2809.03861767 0 8584.22642829 0 2493
0.04950000 0.04949480 37759.14430952 0 1122.71731908 0 12816.02793094 0 1920.01555136 0 11469.17316035 0 2644
0.05050000 0.05050630 35960.75259906 0 555.99405898 0 15378.67148459 0 211.12864642 0 11748.84055054 0 2829
0.05150000 0.05149060 35911.51854886 0 581.94197712 0 14064.52700763 0 129.21128015 0 14948.15456159 0 2784
0.05250000 0.05249300 35521.80518802 0 168.95372488 0 15112.71768830 0 1642.19162789 0 10820.77870424 0 3055
0.05350000 0.05348950 36080.01590332 0 192.29268799 0 13435.50019272 0 2306.52532675 0 12549.73691512 0 3009
0.05450000 0.05448610 34953.25307405 0 313.32189848 0 13965.83409421 0 2399.69908065 0 11531.89599143 0 3336
0.05550000 0.05550870 36033.92923532 0 -30.69484495 0 13165.83698169 0 3402.43256976 0 11249.19362555 0 3349
0.05650000 0.05647670 35904.54934541 0 -365.29866746 0 13663.57299606 0 2572.86130517 0 12799.84139389 0 3324
0.05750000 0.05747970 36513.68020852 0 -763.52682123 0 11178.04030642 0 2485.03810100 0 14977.60506651 0 3639
0.05850000 0.05849280 36955.43778225 0 -468.86889923 0 13506.76591836 0 3075.57692781 0 15524.79994409 0 3846
0.05950000 0.05951020 37255.11353074 0 553.46940882 0 12262.98791497 0 1308.68152070 0 16221.15825688 0 3787
0.06050000 0.06049470 36862.81482023 0 1189.18216278 0 12532.20149998 0 1577.72649595 0 15696.78190028 0 3930
0.06150000 0.06148310 35379.27373675 0 1238.55110079 0 10922.81009092 0 859.42418481 0 14772.57559718 0 4083
0.06250000 0.06249100 34295.00056724 0 663.45467997 0 9605.41706590 0 816.58494081 0 11388.24047509 0 4303
0.06350000 0.06350600 33924.50871915 0 330.95847947 0 11108.77541662 0 -56.07095120 0 11658.35331215 0 4470
0.06450000 0.06451750 33506.13169894 0 185.21445022 0 6337.92850816 0 -606.85912760 0 5974.92293346 0 4479
0.06550000 0.06550280 33960.92842751 0 605.34613601 0 9443.72030513 0 -651.70033150 0 7708.41112659 0 4636
0.06650000 0.06648880 32349.69355173 0 706.90766350 0 7680.06220544 0 -1134.82237585 0 2614.06953075 0 4653
0.06750000 0.06749660 32448.83609118 0 756.39462834 0 8567.54530261 0 314.02893541 0 3601.52697551 0 5220
0.06850000 0.06852730 31615.22943297 0 769.67320905 0 7255.16560781 0 193.33357225 0 2489.38823284 0 5029
0.06950000 0.06949320 30177.55020448 0 920.83972821 0 7405.67792110 0 -250.16742641 0 -535.05947106 0 5040
0.07050000 0.07048030 29517.94881958 0 1035.31676338 0 6378.60842316 0 1134.05801160 0 1586.15698400 0 5475
0.07150000 0.07148790 29021.33687029 0 841.78423162 0 6112.01390977 0 153.63721419 0 -1167.34157841 0 5509
0.07250000 0.07249820 27969.54918139 0 561.14902140 0 6158.98858918 0 745.35855745 0 1217.36247417 0 5916
0.07350000 0.07351270 27702.69613303 0 356.79174298 0 6525.37759975 0 999.10725518 0 -971.54293146 0 5721
0.07450000 0.07449140 27450.00630460 0 459.47621148 0 6278.30809668 0 -111.50691803 0 -567.89116371 0 6028
0.07550000 0.07549160 27303.42821907 0 795.41542329 0 8139.64745123 0 -862.86719613 0 2211.21584920 0 6183
0.07650000 0.07648840 26339.65482539 0 1248.33046693 0 7608.93136762 0 -1061.58504008 0 481.03577958 0 6330
0.07750000 0.07749960 25812.01868008 0 1161.12549856 0 10584.85992669 0 -412.23737678 0 3215.03968143 0 6583
0.07850000 0.07848650 24495.73847948 0 760.62560927 0 8128.98007369 0 477.58489980 0 1193.30748160 0 6549
0.07950000 0.07947320 24375.46351666 0 185.10091965 0 9775.33074235 0 1960.62802245 0 2351.67902073 0 6828
0.08050000 0.08048110 23810.39600441 0 110.78077199 0 8586.76681536 0 1977.77001482 0 1052.80271966 0 7147
0.08150000 0.08149960 23529.49214265 0 315.41265951 0 7074.84308878 0 1587.69695315 0 724.30819083 0 7386
0.08250000 0.08250610 23276.91472072 0 378.32882978 0 8318.71101737 0 -19.82131387 0 1006.74415329 0 7227
0.08350000 0.08350160 22858.98732654 0 783.30924245 0 6856.33607922 0 -1033.00568559 0 237.46436702 0 7798
0.08450000 0.08449610 23000.16989972 0 245.16308870 0 9051.23050356 0 -1546.09530479 0 404.16658955 0 7371
0.08550000 0.08548940 22480.85183595 0 431.13291066 0 8327.28763388 0 -1699.46274337 0 -341.91923800 0 8256
0.08650000 0.08650700 22881.35622150 0 -180.12468357 0 10041.46438906 0 -172.52712774 0 1143.66876797 0 8037
0.08750000 0.08749060 22748.37932335 0 29.97566812 0 9395.11573137 0 1175.90695427 0 253.12034536 0 8155
0.08850000 0.08849210 22830.54848019 0 -104.61156565 0 8107.20693322 0 3104.10569936 0 653.91923595 0 8718
0.08950000 0.08949900 22096.98361349 0 359.52659331 0 6396.59346433 0 3190.36645307 0 551.93168780 0 8571
0.09050000 0.09049190 21374.32217799 0 344.54392995 0 5558.50178648 0 2793.31294730 0 1663.09923825 0 8932
0.09150000 0.09150830 20707.75158965 0 506.00800924 0 3317.67806325 0 2143.35604073 0 1374.41684618 0 9285
0.09250000 0.09250820 20497.43901447 0 294.01158458 0 3110.85008980 0 1377.56422838 0 2751.28415422 0 9204
0.09350000 0.09350330 20169.66163915 0 376.43927640 0 2828.21516782 0 -59.98134877 0 3227.97767042 0 9349
0.09450000 0.09448040 19549.06531230 0 390.43163843 0 2553.69599567 0 -758.58318304 0 2066.21145477 0 9564
0.09550000 0.09549270 19435.08511388 0 535.64623302 0 3059.03068993 0 -1146.69250302 0 2969.61131337 0 10155
0.09650000 0.09649430 19123.38186911 0 599.91465358 0 3513.53516159 0 -1446.23336370 0 2131.75568918 0 9913
0.09750000 0.09749140 19110.34271427 0 275.70168861 0 4945.38049235 0 -1154.72956829 0 2618.20609021 0 10476
0.09850000 0.09850240 18912.61966791 0 374.41371113 0 5597.64173232 0 -1242.30547814 0 680.17289980 0 10575
0.09950000 0.09950330 18596.86978887 0 329.21842674 0 5870.93567354 0 -405.99207123 0 1758.95950769 0 10882
0.10050000 0.10051200 18336.42391144 0 492.26181746 0 6273.53082012 0 -234.88014141 0 940.97173367 0 10875
0.10150000 0.10150300 18053.49673254 0 300.03882151 0 7244.65559938 0 710.79580458 0 1081.13815202 0 11118
0.10250000 0.10250800 17502.25522069 0 553.17602784 0 6158.78625746 0 731.76299039 0 1239.36042765 0 11575
0.10350000 0.10349800 17166.94660938 0 304.73628945 0 6554.14242497 0 1305.56786045 0 987.53163306 0 11364
0.10450000 0.10450100 16605.70091839 0 353.85118875 0 5460.68564381 0 811.84026213 0 815.52269931 0 12093
0.10550000 0.10551000 16437.54078345 0 149.09149504 0 5132.60477093 0 814.18955814 0 916.63347670 0 12067
0.10650000 0.10649700 16146.74514904 0 158.27173449 0 3987.18246144 0 313.62314792 0 1970.63220160 0 12054
0.10750000 0.10749900 16013.76825089 0 165.88390316 0 4208.43218978 0 297.10388760 0 1344.84269411 0 12807
0.10850000 0.10850100 16006.57423442 0 22.52131818 0 4119.70973356 0 65.30031229 0 1919.56592533 0 12736
0.10950000 0.10950300 16282.53220987 0 78.01843415 0 4335.58643085 0 409.61718109 0 1762.45535006 0 12933
0.11050000 0.11050200 16021.18708037 0 208.89512912 0 4671.72685031 0 -415.12060369 0 2476.80994467 0 13428
0.11150000 0.11150900 16007.58589299 0 66.37952717 0 5020.16454167 0 69.53106841 0 2510.23963994 0 13453
0.11250000 0.11250000 16058.28122779 0 120.40310624 0 5791.54295743 0 -46.88565345 0 2743.69671498 0 13668
0.11350000 0.11349100 16130.55861199 0 88.84070787 0 5369.27667207 0 201.58645801 0 3355.40168711 0 13791
0.11450000 0.11448600 15972.96468874 0 220.29989335 0 5839.69790516 0 -65.50803952 0 2732.73708051 0 14205
0.11550000 0.11549300 15866.29091330 0 300.12987078 0 5318.12047059 0 255.27517810 0 2631.25648571 0 14776
0.11650000 0.11649800 15470.17038154 0 246.98070193 0 4892.57191522 0 769.82945409 0 2765.78459366 0 14553
0.11750000 0.11747300 14949.95306571 0 211.96045457 0 4363.02485928 0 614.65339482 0 2358.53581768 0 14568
0.11850000 0.11849100 15007.28038444 0 76.24387262 0 4155.91586956 0 967.63230907 0 2343.48458635 0 16015
0.11950000 0.11950300 14593.06240500 0 109.07421640 0 3404.03998282 0 58.86762510 0 1200.65886718 0 15270
0.12050000 0.12050700 14582.04656729 0 116.46550629 0 3321.40995929 0 86.99173323 0 1674.04763207 0 15999
0.12150000 0.12150000 14477.05888946 0 107.92868168 0 2642.90179987 0 -57.05731830 0 893.46424742 0 15670
0.12250000 0.12250700 14427.82483926 0 22.00818247 0 2688.53884184 0 -381.15472938 0 817.85625841 0 16887
0.12350000 0.12352200 14544.84001337 0 -26.50545442 0 2946.11835334 0 -178.09349799 0 -324.02749423 0 16407
0.12450000 0.12449800 14304.40249423 0 182.48634429 0 2718.93356142 0 15.52446272 0 -608.76554196 0 16306
0.12550000 0.12549900 14123.99005000 0 412.12272214 0 2963.96850670 0 -282.97776183 0 -1034.56251572 0 17523
0.12650000 0.12650100 13896.59168571 0 405.32999690 0 2945.18537933 0 -321.94572572 0 -1275.18438153 0 17154
0.12750000 0.12750600 13565.10489565 0 436.23391796 0 3555.31666036 0 -545.83700698 0 -1144.56802003 0 18007
0.12850000 0.12850300 13384.46763841 0 149.26460106 0 3504.14921823 0 -4.70247003 0 -1086.81692877 0 17496
0.12950000 0.12949900 13361.53671091 0 -105.29038855 0 3607.60816756 0 325.58544842 0 -989.38409230 0 18405
0.13050000 0.13049000 13340.40428754 0 -155.64367035 0 3255.31493300 0 760.58064667 0 -662.86342174 0 18100
0.13150000 0.13148800 13361.08708489 0 43.96566961 0 2910.77774744 0 1007.81763543 0 -715.54947578 0 19059
0.13250000 0.13249300 13270.03781396 0 203.92001711 0 2382.12994356 0 604.14226232 0 -964.82214639 0 18957
0.13350000 0.13349100 12915.62009642 0 426.04539214 0 1763.62437774 0 517.81406470 0 -903.79777763 0 19468
0.13450000 0.13450700 12366.06468218 0 396.05421192 0 1988.48235496 0 -340.42423145 0 -864.35770642 0 19953
0.13550000 0.13551000 12057.84603913 0 421.58510193 0 1758.95950769 0 -316.01853059 0 -1150.01973564 0 19956
0.13650000 0.13649900 11739.28599742 0 300.80093763 0 1946.01517650 0 -337.41286112 0 -730.86036614 0 19723
0.13750000 0.13749600 11575.84693579 0 148.44852981 0 1881.13414048 0 -252.86293445 0 -1529.80760188 0 20946
0.13850000 0.13851100 11558.31152065 0 71.51953953 0 2300.21932169 0 78.55596207 0 -970.45820866 0 20955
0.13950000 0.13949800 11607.09594482 0 86.95216614 0 2463.11883208 0 16.55815297 0 -1111.78353811 0 20506
0.14050000 0.14048300 11635.75960419 0 103.78515301 0 2606.17859393 0 -71.35711212 0 -333.53371256 0 21447
0.14150000 0.14148400 11648.23672650 0 119.83432931 0 2746.24834269 0 9.01062927 0 -492.37197584 0 21771
0.14250000 0.14249400 11673.97781667 0 15.40666070 0 3344.45329329 0 -232.10932101 0 657.47352971 0 22470
0.14350000 0.14350900 11693.87376846 0 95.57621819 0 3320.56691049 0 -36.70634496 0 353.41167931 0 22519
0.14450000 0.14449900 11724.78555797 0 92.37330717 0 3701.64745157 0 204.72259957 0 769.22358302 0 22218
0.14550000 0.14550500 11490.75520976 0 226.57330052 0 3643.24103037 0 34.34760681 0 1007.68724389 0 23559
0.14650000 0.14650700 11331.58759540 0 257.66156825 0 3434.97425363 0 517.66568811 0 706.77389975 0 23044
0.14750000 0.14750500 11137.79877680 0 219.07241429 0 3487.94019987 0 291.43747557 0 1078.03123616 0 23649
0.14850000 0.14849900 10942.49247035 0 93.93800575 0 2728.17337632 0 738.36012831 0 706.60079373 0 23640
0.14950000 0.14949500 10680.48414246 0 216.67365943 0 2715.55012555 0 376.94510568 0 967.98751363 0 24457
0.15050000 0.15050000 10588.35576907 0 153.87101973 0 2255.26795941 0 324.81996011 0 814.59534563 0 24591
0.15150000 0.15149900 10482.14286031 0 40.97329598 0 2047.52949325 0 361.07443091 0 835.12751825 0 25020
0.15250000 0.15250500 10446.48751620 0 89.29022149 0 1839.00418154 0 172.03253911 0 972.33427327 0 25297
0.15350000 0.15350100 10364.81294798 0 113.05284473 0 1848.05290538 0 -16.16686591 0 728.95057958 0 25452
0.15450000 0.15450400 10235.48926132 0 132.85212692 0 2147.27902784 0 -171.03324526 0 936.71489924 0 26061
0.15550000 0.15549900 10174.22771484 0 156.52718549 0 1976.46609933 0 -185.72927203 0 880.10473402 0 26128
0.15650000 0.15649500 10124.38666950 0 144.66267865 0 2216.73500871 0 -93.81199806 0 936.43837923 0 26331
0.15750000 0.15749700 10039.45231258 0 121.01234951 0 2399.92389367 0 -140.15517770 0 865.83810012 0 27345
0.15850000 0.15849900 10000.12127567 0 123.34028828 0 2323.07156462 0 -24.00058781 0 1065.49678653 0 26980
0.15950000 0.15949700 9874.12482162 0 103.45321660 0 2478.30495122 0 -5.06500350 0 800.93570686 0 27777
0.16050000 0.16050000 9887.02908866 0 150.40440304 0 2737.21085950 0 10.70790009 0 1450.19007276 0 28224
0.16150000 0.16150500 9721.63415381 0 107.53188671 0 2739.63884006 0 97.98812462 0 1134.67624739 0 28075
0.16250000 0.16249700 9602.74179103 0 125.92676201 0 2773.54064267 0 269.99930649 0 1310.95213215 0 28590
0.16350000 0.16349900 9522.78704238 0 211.62885538 0 3295.42157480 0 -56.06971472 0 1522.60234477 0 29163
0.16450000 0.16449100 9252.14589473 0 247.66862975 0 3062.47032906 0 -5.02656047 0 1021.63127112 0 28996
0.16550000 0.16550500 9233.61006167 0 233.63917357 0 3371.71187132 0 -14.93297968 0 1907.50470710 0 30777
0.16650000 0.16650700 8928.76361385 0 117.48952957 0 3053.61269628 0 97.18947638 0 1228.97406637 0 29211
0.16750000 0.16749900 9009.65133651 0 11.51570945 0 3005.67132091 0 587.71067908 0 1650.00388015 0 30922
0.16850000 0.16850800 8828.80050690 0 5.47364611 0 2545.74885560 0 441.47318526 0 1022.57098952 0 30867
0.16950000 0.16949900 8889.08411677 0 102.23236952 0 2189.07176726 0 314.68201721 0 1342.09997533 0 30852
0.17050000 0.17049200 8676.56837405 0 52.21124895 0 2012.25633126 0 208.34770943 0 476.03256594 0 31257
0.17150000 0.17149500 8630.75148167 0 82.59630157 0 1678.55513301 0 -97.27895196 0 572.99329508 0 32608
0.17250000 0.17250900 8612.68775594 0 52.50867657 0 1866.29648152 0 -162.91749543 0 357.28970381 0 32361
0.17350000 0.17350400 8535.76798299 0 81.33476334 0 1964.87698843 0 -279.54711522 0 143.53861357 0 32508
0.17450000 0.17449800 8555.38291852 0 60.84541759 0 1894.11709208 0 82.64688450 0 90.53029008 0 32791
0.17550000 0.17549800 8514.51191246 0 28.78989187 0 1896.16289051 0 64.42444079 0 -5.59148186 0 33633
0.17650000 0.17650100 8552.10064850 0 35.03800758 0 1818.26518094 0 357.06489080 0 526.55142252 0 33984
0.17750000 0.17750300 8561.62147967 0 9.86694205 0 1866.27400022 0 319.51999329 0 370.84030827 0 34069
0.17850000 0.17849800 8513.74754821 0 100.86235901 0 1881.30275024 0 267.79051862 0 485.35668572 0 34536
