### header ###
fiducial parameters:
Omega_m = 0.31
Omega_nu = 0
Omega_de = 0.69
Omega_k = 0
H_0 = 100
w_de = -1
zeff = 0
beta = 0
fgrowth = 0
b_1 = 2
gamma = 0.55
Lx = 3500 Ly = 3500 Lz = 3500
nx = 700 ny = 700 nz = 700
xoffset = 857.220397 yoffset = 15.9954215 zoffset = 262.898189
bins = 400 dk = 0.001
kx_ny = 0.628318531 ky_ny = 0.628318531 kz_ny = 0.628318531
############################
A(data) = 3.06032907 (not used)
A(ran) = 3.05691255 (used)
Ngal = 186778
weighted Ngal = 0
Nran = 9360983
weighted Nran = 0
SN(data) = 3453.10762
SN(ran) = 68.6467674
SN(data+ran) = 3521.75439
############################
13 columns: k_central k_mean P_0(k) sigma^{lin}_{P_0(k)} P^img_1(k) sigma^{lin}_{P_1(k)} P_2(k) sigma^{lin}_{P_2(k)} P^img_3(k) sigma^{lin}_{P_3(k)} P_4(k) sigma^{lin}_{P_4(k)} N_modes
### header ###
0.00050000 0 0 0 0 0 0 0 0 0 0 0 0
0.00150000 0.00179520 13189.21753521 0 -12256.58074406 0 9134.34387507 0 2901.33560083 0 -43809.98659801 0 3
0.00250000 0.00253879 25664.42893598 0 -13515.87084545 0 408.97421587 0 688.75626070 0 38595.56113041 0 6
0.00350000 0.00331552 28822.71457187 0 -3609.00200825 0 8451.22704884 0 -14039.34794999 0 -1481.77630131 0 7
0.00450000 0.00420575 32070.81300710 0 3685.91054055 0 44.86020060 0 -1463.97111055 0 14538.43284245 0 24
0.00550000 0.00557378 31101.86891409 0 -5163.40415393 0 -4432.91922553 0 19919.44475388 0 19862.22984166 0 45
0.00650000 0.00659388 35694.57398976 0 -8985.59634394 0 -21734.13540789 0 16728.11160485 0 7339.83018912 0 40
0.00750000 0.00754703 45454.26898694 0 -13953.01975238 0 -11074.92981726 0 18193.21802112 0 813.41732543 0 57
0.00850000 0.00846663 55083.46002913 0 -10223.42804309 0 -27634.46538310 0 14810.56899665 0 17797.43470889 0 75
0.00950000 0.00948925 56170.31854831 0 171.47837503 0 -17318.69539425 0 1639.23533675 0 32721.08465189 0 112
0.01050000 0.01054430 61768.61223838 0 -1868.12870759 0 -19094.49339673 0 4921.25805588 0 36642.38565939 0 105
0.01150000 0.01145670 59664.69964106 0 1374.40560553 0 -14058.79427576 0 940.38609576 0 47076.18248091 0 144
0.01250000 0.01249090 58843.45769865 0 1514.90249902 0 -7764.50197373 0 2665.57419240 0 31291.16147240 0 169
0.01350000 0.01339930 56070.16435030 0 -967.54125980 0 2125.97799470 0 -644.13986981 0 22884.50360370 0 180
0.01450000 0.01448870 55074.46750855 0 1901.46847765 0 -2962.13628063 0 -9935.02666729 0 17002.27107618 0 267
0.01550000 0.01550050 57798.52680670 0 -565.39798738 0 4267.53553132 0 -14146.13413194 0 -13262.16935845 0 238
0.01650000 0.01653350 55214.75082967 0 -3311.47322405 0 1036.31156097 0 -9619.68145168 0 -12758.13857967 0 315
0.01750000 0.01747870 64394.54065564 0 -5805.53756759 0 2620.99377160 0 -5598.64215024 0 -25119.36978204 0 297
0.01850000 0.01844180 66831.28892111 0 -5952.16061573 0 -3097.14773656 0 992.14142392 0 -20682.34771899 0 388
0.01950000 0.01947590 73957.97389106 0 -5596.00059731 0 -2089.61448959 0 4569.03226523 0 -30722.94657794 0 399
0.02050000 0.02045430 78136.79820682 0 -3224.63919715 0 -8887.47670371 0 6456.29256036 0 -16611.09643074 0 462
0.02150000 0.02154770 78815.17147843 0 -696.92484158 0 -5741.29724866 0 6189.45075266 0 -10292.14214101 0 571
0.02250000 0.02255340 82560.55630200 0 -145.08645118 0 -3881.55406652 0 -1499.57025142 0 -10780.97556000 0 510
0.02350000 0.02348930 77010.70981659 0 1899.53508573 0 -9935.92591934 0 1646.31694671 0 -19227.24548187 0 555
0.02450000 0.02439640 72949.12548796 0 3200.50552003 0 -8307.98743658 0 -14325.19769808 0 -18730.40871956 0 592
0.02550000 0.02547300 71233.46496689 0 5070.36528783 0 -11378.68592197 0 -13597.14075024 0 -17239.44880660 0 837
0.02650000 0.02652900 65930.23835851 0 3805.03895700 0 -2524.21176880 0 -11595.96770060 0 -27229.12751774 0 723
0.02750000 0.02749970 65573.34769780 0 846.23328118 0 -9866.09899700 0 -5346.40194783 0 -21967.26650405 0 826
0.02850000 0.02848090 61928.34188526 0 1229.40121110 0 -548.50666152 0 414.36748009 0 -27861.86374739 0 831
0.02950000 0.02946900 60275.96622781 0 3039.79793653 0 -2456.54305140 0 3045.26089279 0 -15783.44731741 0 996
0.03050000 0.03053250 58473.41547659 0 4969.52541012 0 11071.56886270 0 -3574.02110317 0 -12373.82073118 0 1041
0.03150000 0.03150510 56248.77829042 0 6430.16928806 0 17361.63468005 0 -4663.61110048 0 -5013.15037561 0 1036
0.03250000 0.03246190 51716.99754171 0 3787.69463292 0 26138.89680334 0 -6237.87547601 0 9413.41551076 0 1059
0.03350000 0.03345080 53953.21259813 0 1694.14591557 0 33246.69748007 0 -3578.27006915 0 9936.30810147 0 1302
0.03450000 0.03451200 50262.45733712 0 742.97104324 0 38389.07037648 0 2593.08323583 0 13965.94650072 0 1339
0.03550000 0.03553350 52874.55975399 0 -2014.02111342 0 34856.92069728 0 9475.16040523 0 10318.80496454 0 1365
0.03650000 0.03647120 54639.90395129 0 -3175.40514695 0 32767.73335242 0 12743.41332722 0 10171.24894240 0 1308
0.03750000 0.03744890 54573.92133150 0 -1711.51272095 0 20810.37873082 0 8094.52747920 0 4716.16114265 0 1579
0.03850000 0.03847530 54877.08168171 0 -551.62144584 0 19216.22964415 0 7553.57116277 0 3058.32252894 0 1662
0.03950000 0.03950240 53211.55446290 0 1476.48195482 0 13018.92167663 0 1012.69720192 0 4258.56549204 0 1683
0.04050000 0.04050350 52342.09012886 0 2041.40333860 0 9900.57407279 0 -2740.23459455 0 1916.26117402 0 1822
0.04150000 0.04152450 49427.50180082 0 2126.71987765 0 12434.85746465 0 -2760.80498539 0 2136.08333971 0 1887
0.04250000 0.04250150 47987.34962917 0 2692.21453463 0 16951.01370884 0 -3308.10102883 0 4684.86717101 0 1920
0.04350000 0.04349210 45914.12400834 0 2923.18742585 0 18429.60890600 0 -3882.95914786 0 311.23450963 0 2005
0.04450000 0.04448520 44113.82138727 0 2373.78938072 0 19567.83719902 0 -1174.78288920 0 2794.85291645 0 2151
0.04550000 0.04548030 43622.04291779 0 1653.33111277 0 23274.77899708 0 -766.82145596 0 1151.31241047 0 2274
0.04650000 0.04648670 43010.55151802 0 541.14740749 0 18103.51762829 0 2173.44726274 0 -1760.21846057 0 2311
0.04750000 0.04749250 43053.04117778 0 492.28429876 0 20464.61631434 0 1361.49009784 0 -5843.38483860 0 2568
0.04850000 0.04851840 42298.34388771 0 1695.52851561 0 18883.84360204 0 -315.66557415 0 -8121.61744746 0 2493
0.04950000 0.04949480 39875.19680963 0 1896.90477346 0 17015.08541801 0 1533.42709142 0 -8618.71274473 0 2644
0.05050000 0.05050630 38928.50920506 0 1226.20886629 0 14155.35146554 0 2021.94577219 0 -7900.91851100 0 2829
0.05150000 0.05149060 37170.13421121 0 950.04743507 0 14476.38445041 0 3115.12153708 0 -7698.75540761 0 2784
0.05250000 0.05249300 37425.63420233 0 521.14354545 0 14428.16205878 0 3713.46137549 0 -3917.04080088 0 3055
0.05350000 0.05348950 36564.26313681 0 921.68727327 0 12866.16123320 0 4417.01370474 0 -1890.16038302 0 3009
0.05450000 0.05448610 36353.83815513 0 285.99475248 0 13130.76615141 0 1320.31559421 0 3489.22163406 0 3336
0.05550000 0.05550870 35597.90439347 0 -21.09780217 0 13505.41704027 0 -307.71955815 0 1810.77890756 0 3349
0.05650000 0.05647670 36960.38366857 0 218.13944028 0 15402.61407065 0 -3701.74861743 0 2406.34230524 0 3324
0.05750000 0.05747970 36838.64742116 0 9.23380115 0 15879.33006815 0 -3743.24909993 0 -995.51249508 0 3639
0.05850000 0.05849280 37678.09921775 0 -75.17859615 0 17052.74159796 0 -3643.61197185 0 -4202.51960749 0 3846
0.05950000 0.05951020 37112.13245344 0 -137.11120949 0 17379.28250169 0 -1154.43731137 0 -5426.49158429 0 3787
0.06050000 0.06049470 37177.55304069 0 76.04378904 0 16750.36809329 0 1528.91959048 0 -9208.86938941 0 3930
0.06150000 0.06148310 36952.17799354 0 177.41231455 0 15120.24892429 0 1354.31856267 0 -10388.84545925 0 4083
0.06250000 0.06249100 36822.57329061 0 753.85086908 0 15026.72671020 0 2609.28101353 0 -11590.01015571 0 4303
0.06350000 0.06350600 35473.92001591 0 258.32476664 0 14196.60465372 0 2875.77436106 0 -9132.82638722 0 4470
0.06450000 0.06451750 35006.64616502 0 389.83138768 0 12223.42082440 0 3218.22078558 0 -8688.15748495 0 4479
0.06550000 0.06550280 34253.74737906 0 400.62016425 0 13108.06003693 0 2354.90508749 0 -7022.28180597 0 4636
0.06650000 0.06648880 34295.78741279 0 840.29934166 0 8296.64561999 0 2127.85518338 0 -8244.42155669 0 4653
0.06750000 0.06749660 32400.72610605 0 1162.41817339 0 9618.79344027 0 1451.12304677 0 -6011.43256703 0 5220
0.06850000 0.06852730 31803.28551970 0 1787.22974428 0 6340.32276677 0 500.40342079 0 -5044.77032612 0 5029
0.06950000 0.06949320 29977.80384099 0 1713.44611288 0 7473.51524826 0 1102.75504744 0 -5266.39099593 0 5040
0.07050000 0.07048030 28147.15146294 0 1489.61103487 0 7169.03974191 0 99.18087007 0 -3519.89736990 0 5475
0.07150000 0.07148790 27806.89696531 0 844.12903136 0 9443.27067911 0 -49.30801368 0 -3809.76003030 0 5509
0.07250000 0.07249820 27368.51158680 0 -67.46503681 0 10440.92339408 0 -946.65950294 0 -1652.09464119 0 5916
0.07350000 0.07351270 28506.62747332 0 -236.76295041 0 12001.19315945 0 -328.21126443 0 -920.25071811 0 5721
0.07450000 0.07449140 28570.02474344 0 -778.84782817 0 12620.32820171 0 221.22050265 0 2622.76979441 0 6028
0.07550000 0.07549160 29224.00580297 0 -249.61775859 0 13150.88691622 0 509.69269455 0 2919.44428915 0 6183
0.07650000 0.07648840 30610.87729016 0 -361.58925271 0 12707.44324488 0 2715.51640359 0 3681.09954204 0 6330
0.07750000 0.07749960 29059.44267627 0 628.51986156 0 11892.27125387 0 2593.97124724 0 3791.78622978 0 6583
0.07850000 0.07848650 28848.90528807 0 1203.40158596 0 10017.29698999 0 982.63408154 0 2884.06996130 0 6549
0.07950000 0.07947320 27060.85497630 0 1455.64178836 0 10470.12660468 0 229.99832680 0 2629.93008893 0 6828
0.08050000 0.08048110 26062.01075234 0 1460.31789907 0 9268.52352284 0 -89.73816142 0 1331.47756039 0 7147
0.08150000 0.08149960 25050.35218655 0 1142.05011427 0 9704.05377606 0 -522.52951769 0 2144.03047978 0 7386
0.08250000 0.08250610 24244.73474866 0 651.08434384 0 8495.69506313 0 -350.84206655 0 273.45243440 0 7227
0.08350000 0.08350160 23816.46595581 0 548.80116657 0 9098.25014557 0 59.30556085 0 -1279.21977514 0 7798
0.08450000 0.08449610 23073.23412948 0 434.78274995 0 9638.86924248 0 -223.20897376 0 -1406.77867963 0 7371
0.08550000 0.08548940 23138.76712324 0 194.15751195 0 7555.03244736 0 -330.07271619 0 -3886.51119349 0 8256
0.08650000 0.08650700 22804.02054447 0 115.16945926 0 8896.51418690 0 488.31634906 0 -2711.90815471 0 8037
0.08750000 0.08749060 22519.85689399 0 21.87981424 0 7223.34332559 0 19.37652132 0 -4868.66305111 0 8155
0.08850000 0.08849210 23002.64284289 0 -246.32649605 0 7430.00268928 0 1373.93349820 0 -3037.43739988 0 8718
0.08950000 0.08949900 22906.87249866 0 86.71813579 0 6396.75083344 0 1278.30928243 0 -3221.78407187 0 8571
0.09050000 0.09049190 22878.77087183 0 -37.50847780 0 5264.04169993 0 1042.84912344 0 -2835.16188997 0 8932
0.09150000 0.09150830 22082.14595452 0 220.10093383 0 4815.35988535 0 1482.42825905 0 -2602.90756457 0 9285
0.09250000 0.09250820 22169.93543673 0 297.95592893 0 5054.88691177 0 722.31971971 0 -1961.61719972 0 9204
0.09350000 0.09350330 21378.70603178 0 267.89730481 0 3325.44535291 0 526.34909080 0 -1701.65467026 0 9349
0.09450000 0.09448040 21441.65367587 0 563.69952505 0 4961.91548958 0 -98.83117342 0 -1739.71551364 0 9564
0.09550000 0.09549270 20799.92492564 0 293.34276587 0 3983.07962392 0 -158.49092718 0 -864.97819034 0 10155
0.09650000 0.09649430 20698.75906906 0 651.77339573 0 5324.55012281 0 -687.01845609 0 -2068.32469711 0 9913
0.09750000 0.09749140 20369.07078312 0 568.85785967 0 5016.94971556 0 -751.91073276 0 -864.38243585 0 10476
0.09850000 0.09850240 19831.76767818 0 552.73876653 0 5976.77764083 0 680.52698030 0 -837.96465850 0 10575
0.09950000 0.09950330 19571.65902027 0 291.50941573 0 5939.41371780 0 710.62719482 0 525.39026330 0 10882
0.10050000 0.10051200 19587.73315081 0 237.70266881 0 5204.89339578 0 693.46721742 0 -293.05275708 0 10875
0.10150000 0.10150300 19278.95247523 0 296.19451896 0 6355.47516395 0 442.02397715 0 354.68974130 0 11118
0.10250000 0.10250800 19214.31873353 0 616.36422186 0 5762.68820700 0 -544.36560580 0 703.55570145 0 11575
0.10350000 0.10349800 18298.31810546 0 778.70844411 0 6883.62837920 0 -661.07953047 0 778.11943401 0 11364
0.10450000 0.10450100 18111.38608380 0 841.67519731 0 7069.54874229 0 -832.96256892 0 1848.61493792 0 12093
0.10550000 0.10551000 17218.20397672 0 610.34485339 0 7357.03962539 0 -98.91109445 0 1194.04936455 0 12067
0.10650000 0.10649700 16849.62303925 0 576.44754705 0 7485.53150389 0 695.27583812 0 2276.01820066 0 12054
0.10750000 0.10749900 16380.77549726 0 460.97234209 0 7414.36694411 0 1063.95681738 0 1531.76347511 0 12807
0.10850000 0.10850100 15988.13956723 0 274.85414354 0 6868.09379989 0 1000.54043815 0 2842.51327555 0 12736
0.10950000 0.10950300 15682.16905433 0 73.91323610 0 6821.13036114 0 970.86062396 0 2362.91967146 0 12933
0.11050000 0.11050200 15570.66179908 0 152.58284115 0 6087.22827491 0 1025.48006993 0 3274.91862787 0 13428
0.11150000 0.11150900 15602.02321462 0 106.90713135 0 5869.04724422 0 658.00970875 0 3509.18502976 0 13453
0.11250000 0.11250000 15641.25308567 0 188.22132430 0 6213.47202327 0 73.84691626 0 4093.29420434 0 13668
0.11350000 0.11349100 15319.54566175 0 186.47227904 0 5601.02516819 0 415.31956321 0 3870.61691336 0 13791
0.11450000 0.11448600 15227.93435829 0 93.87044944 0 5899.03730037 0 533.59256614 0 4158.02911190 0 14205
0.11550000 0.11549300 14951.63916332 0 177.74728594 0 5221.15861739 0 564.21771905 0 3707.00924197 0 14776
0.11650000 0.11649800 14842.04281869 0 323.79256463 0 5368.26501350 0 271.29760165 0 3099.91293664 0 14553
0.11750000 0.11747300 14215.71375996 0 393.20245883 0 4967.78310926 0 177.24145666 0 3013.71962684 0 14568
0.11850000 0.11849100 14127.58705823 0 474.53531126 0 4385.57360465 0 359.59066501 0 2672.02632591 0 16015
0.11950000 0.11950300 13516.99491052 0 254.24328636 0 4013.12588333 0 182.90674463 0 1983.32289628 0 15270
0.12050000 0.12050700 13391.99887440 0 134.97211365 0 4146.29387254 0 -47.75455575 0 2047.02366397 0 15999
0.12150000 0.12150000 13317.47336005 0 -6.35350805 0 4031.84156679 0 -16.70844047 0 1052.91849836 0 15670
0.12250000 0.12250700 13276.44498488 0 8.66071906 0 4005.16750261 0 -138.15434187 0 1198.28708988 0 16887
0.12350000 0.12352200 13465.84994970 0 -12.13551894 0 3789.21212077 0 -38.29802111 0 787.35700078 0 16407
0.12450000 0.12449800 13431.90318449 0 -47.46544622 0 3837.96282299 0 584.02936597 0 1083.64369307 0 16306
0.12550000 0.12549900 13366.70741025 0 43.11216700 0 3213.18497406 0 824.05547728 0 563.87038294 0 17523
0.12650000 0.12650100 13267.56487080 0 -63.76214165 0 2688.83109876 0 924.97965987 0 293.40121725 0 17154
0.12750000 0.12750600 13150.88691622 0 270.67037334 0 2407.56753617 0 382.94761317 0 -141.12412180 0 18007
0.12850000 0.12850300 12979.12977305 0 321.24430911 0 1592.86765249 0 -21.25798144 0 -59.19292953 0 17496
0.12950000 0.12949900 12553.10911034 0 247.98449204 0 1950.99478478 0 -345.14193256 0 358.35868969 0 18405
0.13050000 0.13049000 12470.37792096 0 219.82666196 0 1947.95980908 0 -392.35041750 0 434.89066020 0 18100
0.13150000 0.13148800 12517.92587355 0 17.62522794 0 2209.69836135 0 -206.07484985 0 491.17372247 0 19059
0.13250000 0.13249300 12390.45689426 0 198.04115677 0 2476.09054302 0 -164.62719841 0 379.71030576 0 18957
0.13350000 0.13349100 12578.06335496 0 227.62542543 0 2814.65894304 0 -314.76857022 0 852.58537290 0 19468
0.13450000 0.13450700 12217.46327951 0 199.58787031 0 3413.70694245 0 -207.94192194 0 856.53196538 0 19953
0.13550000 0.13551000 12419.34536664 0 118.23928097 0 3771.20459830 0 -277.31697012 0 1337.18781096 0 19956
0.13650000 0.13649900 12266.36011019 0 132.55312562 0 3872.82008090 0 -19.53658819 0 871.87545362 0 19723
0.13750000 0.13749600 12325.48593304 0 118.68328668 0 4208.76940930 0 166.29418691 0 1148.80574536 0 20946
0.13850000 0.13851100 12047.61704697 0 197.78486994 0 4216.24444204 0 -193.82029242 0 1342.79689567 0 20955
0.13950000 0.13949800 11993.09989092 0 113.42715840 0 4070.27335164 0 389.04229399 0 1264.79802025 0 20506
0.14050000 0.14048300 11873.04974112 0 33.14845419 0 4294.05222640 0 423.50950133 0 1470.85038880 0 21447
0.14150000 0.14148400 11814.82317033 0 93.49096507 0 3615.98245235 0 367.86378395 0 672.46743372 0 21771
0.14250000 0.14249400 11763.45339649 0 214.13327236 0 3983.87771013 0 150.15710872 0 1507.37126303 0 22470
0.14350000 0.14350900 11482.66194123 0 289.25566526 0 3695.63370343 0 44.19284316 0 577.01632397 0 22519
0.14450000 0.14449900 11214.86467821 0 327.60089710 0 3862.84962371 0 -133.06345116 0 836.38647114 0 22218
0.14550000 0.14550500 10991.05208151 0 293.95425727 0 3846.77549316 0 -228.04020544 0 729.47102171 0 23559
0.14650000 0.14650700 10750.89557864 0 201.44932208 0 3772.45231053 0 -79.84121808 0 69.41922394 0 23044
0.14750000 0.14750500 10651.37085707 0 77.11367418 0 3888.81552689 0 176.13312850 0 753.63842078 0 23649
0.14850000 0.14849900 10536.19914968 0 -34.96033468 0 3322.41037721 0 525.28122898 0 -104.99206168 0 23640
0.14950000 0.14949500 10702.52705855 0 -109.75214005 0 3465.24532605 0 463.30590118 0 308.61543801 0 24457
0.15050000 0.15050000 10583.96067464 0 69.32997317 0 3127.21647727 0 -14.52674257 0 -305.55011256 0 24591
0.15150000 0.15149900 10480.32187490 0 264.49251170 0 3311.92285008 0 -165.78948170 0 191.67782440 0 25020
0.15250000 0.15250500 10441.51914857 0 216.92994626 0 3297.86079601 0 -435.23237598 0 357.92929684 0 25297
0.15350000 0.15350100 10286.99392297 0 133.18709832 0 3747.13836508 0 -61.56583090 0 498.99721538 0 25452
0.15450000 0.15450400 10284.48725786 0 90.64134771 0 3521.71835532 0 -2.78347738 0 262.76257555 0 26061
0.15550000 0.15549900 10175.16068885 0 52.56825202 0 3484.51180140 0 432.63241346 0 -332.01510064 0 26128
0.15650000 0.15649500 10094.22800359 0 188.03472949 0 3558.98111249 0 175.40361027 0 48.27297456 0 26331
0.15750000 0.15749700 9913.88300326 0 165.52532640 0 2981.08801776 0 468.24391905 0 -681.41499170 0 27345
0.15850000 0.15849900 9764.00016641 0 212.52473524 0 3095.78761782 0 334.48129941 0 102.28969684 0 26980
0.15950000 0.15949700 9562.84872158 0 127.76123621 0 2638.77648105 0 271.04356295 0 -385.71281325 0 27777
0.16050000 0.16050000 9401.87136246 0 102.47629164 0 2583.18022254 0 382.08095900 0 302.31055702 0 28224
0.16150000 0.16150500 9382.58240581 0 128.99883185 0 2666.81066398 0 268.03331668 0 92.89453615 0 28075
0.16250000 0.16249700 9171.82020460 0 134.61690909 0 2451.77701549 0 68.53469713 0 597.13034439 0 28590
0.16350000 0.16349900 9262.31868364 0 145.31351232 0 2633.07747113 0 131.83147584 0 902.61188898 0 29163
0.16450000 0.16449100 9075.61147500 0 149.70073831 0 2602.04203446 0 -180.24720667 0 701.89208514 0 28996
0.16550000 0.16550500 9118.75309250 0 187.32544443 0 3026.15178654 0 -94.90121711 0 862.62439807 0 30777
0.16650000 0.16650700 8920.22071929 0 144.09052953 0 3105.39837420 0 -240.10704400 0 662.35309619 0 29211
0.16750000 0.16749900 8925.08792106 0 153.06394100 0 3331.07691892 0 -258.18538258 0 713.23502579 0 30922
0.16850000 0.16850800 8749.86865746 0 143.38911292 0 3172.94344444 0 -177.28417113 0 255.76189828 0 30867
0.16950000 0.16949900 8665.42888917 0 160.49850740 0 3463.40185933 0 23.34739360 0 520.22968055 0 30852
0.17050000 0.17049200 8556.43953968 0 94.52488013 0 3408.85098133 0 63.89095950 0 126.81814561 0 31257
0.17150000 0.17149500 8549.75135250 0 39.71704085 0 3012.04476988 0 381.23004174 0 394.83122912 0 32608
0.17250000 0.17250900 8547.97532968 0 -97.97699637 0 2859.04827278 0 554.21129177 0 410.83341950 0 32361
0.17350000 0.17350400 8532.56439753 0 -66.93301681 0 2578.72892485 0 528.53989363 0 -40.28570537 0 32508
0.17450000 0.17449800 8568.39959206 0 78.26392997 0 2410.24281104 0 317.40113063 0 394.62777334 0 32791
0.17550000 0.17549800 8424.89020418 0 229.31601930 0 2012.71719794 0 15.41407953 0 -92.05171215 0 33633
0.17650000 0.17650100 8250.30041703 0 256.16206544 0 2370.97921804 0 -162.48585445 0 362.69083649 0 33984
0.17750000 0.17750300 8125.43926871 0 215.07973515 0 2347.00291003 0 -117.60418421 0 138.60059571 0 34069
