### header ###
fiducial parameters:
Omega_m = 0.31
Omega_nu = 0
Omega_de = 0.69
Omega_k = 0
H_0 = 100
w_de = -1
zeff = 0
beta = 0
fgrowth = 0
b_1 = 2
gamma = 0.55
Lx = 3500 Ly = 3500 Lz = 3500
nx = 700 ny = 700 nz = 700
xoffset = 857.220397 yoffset = 15.9954215 zoffset = 262.898189
bins = 400 dk = 0.001
kx_ny = 0.628318531 ky_ny = 0.628318531 kz_ny = 0.628318531
############################
A(data) = 3.10660117 (not used)
A(ran) = 3.10236495 (used)
Ngal = 189639
weighted Ngal = 0
Nran = 9360983
weighted Nran = 0
SN(data) = 3463.58335
SN(ran) = 69.6674575
SN(data+ran) = 3533.2508
############################
13 columns: k_central k_mean P_0(k) sigma^{lin}_{P_0(k)} P^img_1(k) sigma^{lin}_{P_1(k)} P_2(k) sigma^{lin}_{P_2(k)} P^img_3(k) sigma^{lin}_{P_3(k)} P_4(k) sigma^{lin}_{P_4(k)} N_modes
### header ###
0.00050000 0 0 0 0 0 0 0 0 0 0 0 0
0.00150000 0.00179520 25774.47490664 0 -18139.26289762 0 -34.64458480 0 66516.66310715 0 -40184.31470473 0 3
0.00250000 0.00253879 44628.75559725 0 -17818.00509972 0 43744.11638473 0 -25397.91310715 0 46698.04699032 0 6
0.00350000 0.00331552 69899.76175765 0 -15005.70669334 0 40934.40332801 0 38978.19288129 0 -52024.54174571 0 7
0.00450000 0.00420575 89393.74788137 0 -9383.68398958 0 66660.65584301 0 29663.40284004 0 857.75382411 0 24
0.00550000 0.00557378 111717.68023312 0 4478.72487726 0 67988.28910085 0 49932.09461214 0 2091.31182785 0 45
0.00650000 0.00659388 97871.10944316 0 13177.75207146 0 64968.26346895 0 58307.95309783 0 -90.40979030 0 40
0.00750000 0.00754703 97926.41344476 0 21776.96228718 0 49544.51697493 0 36417.90986429 0 -18359.13002591 0 57
0.00850000 0.00846663 77424.81538952 0 22089.22756449 0 32036.30420935 0 33406.87675298 0 -6101.47017938 0 75
0.00950000 0.00948925 64599.45771847 0 16876.71300751 0 32507.96191403 0 14072.50786965 0 -7843.89468985 0 112
0.01050000 0.01054430 55140.78734786 0 3310.32667767 0 28332.84701301 0 1.52724473 0 6924.28581289 0 105
0.01150000 0.01145670 59399.30787730 0 -3116.90880055 0 38231.70126625 0 7488.35290723 0 16186.64945913 0 144
0.01250000 0.01249090 68346.52863965 0 -9578.11352527 0 40880.44820450 0 17295.98927978 0 20613.55493652 0 169
0.01350000 0.01339930 75755.01672343 0 -7121.63791778 0 36496.48201290 0 30495.32340064 0 32828.09564684 0 180
0.01450000 0.01448870 89185.34621682 0 -8075.27224449 0 29395.53813312 0 39358.01446949 0 53141.30039583 0 267
0.01550000 0.01550050 88710.09150391 0 -5076.42399858 0 21855.98406182 0 46347.11387450 0 41211.71018154 0 238
0.01650000 0.01653350 98830.49898305 0 -3716.76612681 0 -3019.51980261 0 33803.89653680 0 54904.28405648 0 315
0.01750000 0.01747870 89853.94012229 0 -1029.03998401 0 -12398.21294327 0 18903.17752129 0 31238.21800745 0 297
0.01850000 0.01844180 96624.52127709 0 5321.99849510 0 -14276.63808692 0 -13552.74017985 0 27935.82722920 0 388
0.01950000 0.01947590 84982.35450199 0 10725.81768686 0 -9526.42901321 0 -27934.70316412 0 15987.01550215 0 399
0.02050000 0.02045430 80998.55547642 0 13395.03385009 0 13590.17154678 0 -34179.67149074 0 17282.38809239 0 462
0.02150000 0.02154770 70917.26546182 0 6137.00187635 0 26735.32573113 0 -21992.33315518 0 13375.92474385 0 571
0.02250000 0.02255340 70627.59389249 0 1133.88940184 0 45219.78901269 0 772.28666034 0 -15730.39144596 0 510
0.02350000 0.02348930 71708.71967979 0 1668.04512457 0 51712.50128142 0 2353.45504355 0 -15358.10109375 0 555
0.02450000 0.02439640 71515.38048722 0 1025.14172634 0 52230.58287361 0 20533.85872284 0 -15738.25990148 0 592
0.02550000 0.02547300 65920.57139888 0 4259.75700102 0 44975.52967231 0 5153.99572927 0 -11333.04888000 0 837
0.02650000 0.02652900 64943.75885036 0 4508.05173501 0 38925.24941635 0 7117.66996807 0 -24370.85484986 0 723
0.02750000 0.02749970 61462.97894500 0 1954.01851982 0 37885.60163024 0 11511.32560059 0 -15339.21680053 0 826
0.02850000 0.02848090 55457.77369848 0 3680.97589488 0 25150.28157155 0 7797.71809664 0 -21159.06371650 0 831
0.02950000 0.02946900 54553.12612765 0 921.38939603 0 19866.38888243 0 10613.81584298 0 -11522.45384482 0 996
0.03050000 0.03053250 51415.41088260 0 685.80221768 0 15275.25749787 0 8603.33553453 0 -13538.35214691 0 1041
0.03150000 0.03150510 52126.94407387 0 1465.21882278 0 11987.36715905 0 5695.39043108 0 -11728.94459875 0 1036
0.03250000 0.03246190 50381.38342185 0 1439.27540090 0 14600.03160846 0 -3028.04021587 0 -4161.12029085 0 1059
0.03350000 0.03345080 50050.68347735 0 711.63885339 0 17778.88763518 0 -5291.83982918 0 -1640.78654655 0 1302
0.03450000 0.03451200 49680.97847481 0 -519.33042849 0 17256.19737619 0 1091.11198142 0 3872.75263700 0 1339
0.03550000 0.03553350 51745.32398155 0 -2252.63764714 0 19133.49845477 0 2956.51595527 0 2606.56077606 0 1365
0.03650000 0.03647120 50323.49407059 0 -375.32757604 0 16002.41519365 0 8354.75978427 0 3838.22135795 0 1308
0.03750000 0.03744890 52943.46494297 0 -258.14266810 0 16275.11338039 0 10000.43601389 0 2675.42100244 0 1579
0.03850000 0.03847530 49218.42569723 0 2723.18252739 0 7322.35097723 0 8944.21950860 0 1775.68559597 0 1662
0.03950000 0.03950240 48197.43739133 0 2472.90943887 0 4489.30232959 0 2909.33894415 0 2778.73382330 0 1683
0.04050000 0.04050350 44214.42521131 0 1399.91064204 0 1157.11258625 0 1587.25856777 0 1251.24179547 0 1822
0.04150000 0.04152450 44632.35260549 0 1387.45600103 0 1097.31457249 0 -2637.88846964 0 5709.22767213 0 1887
0.04250000 0.04250150 43750.63596215 0 -119.47800068 0 -147.92921175 0 -4243.32316965 0 -3118.12279082 0 1920
0.04350000 0.04349210 44412.48547719 0 126.24374836 0 5737.09324529 0 -7092.34478197 0 -2169.97390167 0 2005
0.04450000 0.04448520 43829.65773679 0 -22.85662679 0 5255.97091270 0 -5052.45893122 0 -7675.79075816 0 2151
0.04550000 0.04548030 44091.56489882 0 757.10953373 0 7620.77901349 0 -3075.26218959 0 -6165.62057311 0 2274
0.04650000 0.04648670 44718.79320961 0 259.38138781 0 7924.79365316 0 -1597.45383798 0 -8716.91106952 0 2311
0.04750000 0.04749250 44827.93992821 0 981.55835126 0 8017.87748186 0 533.63303248 0 -10001.63876352 0 2568
0.04850000 0.04851840 41971.12854493 0 1121.85516117 0 6699.96738691 0 1487.54275514 0 -8745.77706060 0 2493
0.04950000 0.04949480 41156.06896042 0 1295.21522113 0 6143.56641637 0 3404.14114867 0 -9272.69380426 0 2644
0.05050000 0.05050630 39992.43679675 0 1665.83071638 0 6270.69817614 0 -139.55380289 0 -7566.01456313 0 2829
0.05150000 0.05149060 37859.18610102 0 2069.40379958 0 8496.69548105 0 289.76599080 0 -7809.83551813 0 2784
0.05250000 0.05249300 36538.52204664 0 1842.19652635 0 8421.50676831 0 -2381.12952565 0 -6361.08424867 0 3055
0.05350000 0.05348950 36052.70112204 0 881.57163894 0 11229.47752416 0 -2475.87697066 0 -4563.16464555 0 3009
0.05450000 0.05448610 35943.77921646 0 169.02341691 0 13407.73578542 0 -1746.75216099 0 -564.78986817 0 3336
0.05550000 0.05550870 35327.22952387 0 345.05875175 0 16367.73634241 0 -53.96400362 0 -2283.51571470 0 3349
0.05650000 0.05647670 36242.21849337 0 497.40553924 0 16243.07752580 0 174.30764682 0 490.55885888 0 3324
0.05750000 0.05747970 35998.18396600 0 1381.30736508 0 18139.37530412 0 591.47966927 0 4457.15406850 0 3639
0.05850000 0.05849280 34281.96141239 0 1111.70372949 0 16235.43388331 0 2229.15592776 0 1715.59307717 0 3846
0.05950000 0.05951020 34054.56304810 0 776.57834079 0 19028.39837044 0 2719.14713378 0 5668.33418477 0 3787
0.06050000 0.06049470 33127.88380184 0 552.13851578 0 14629.93173940 0 1675.57636056 0 2557.56277952 0 3930
0.06150000 0.06148310 32822.13810196 0 188.88002643 0 17545.08209997 0 2058.82634724 0 5352.86532200 0 4083
0.06250000 0.06249100 33443.63368087 0 -943.87182156 0 14765.60639372 0 -163.65825432 0 3937.48754456 0 4303
0.06350000 0.06350600 34496.99506088 0 -1128.81986836 0 16673.70685531 0 -234.49458709 0 2275.71470309 0 4470
0.06450000 0.06451750 36052.92593506 0 -828.40336099 0 17228.99500142 0 -1704.54351750 0 2530.41660801 0 4479
0.06550000 0.06550280 36246.26512763 0 559.53711209 0 16619.18969926 0 -1009.02600539 0 3466.50427893 0 4636
0.06650000 0.06648880 36094.40393626 0 1077.34330834 0 18654.75914014 0 -779.83700544 0 2512.57769530 0 4653
0.06750000 0.06749660 35265.85557088 0 1532.94374344 0 18546.84889312 0 855.57313787 0 2090.62614816 0 5220
0.06850000 0.06852730 33275.47354594 0 1481.98987368 0 18866.19578039 0 2659.33563124 0 1795.97497054 0 5029
0.06950000 0.06949320 32457.26657923 0 899.72753801 0 14521.23464683 0 2963.59756523 0 1089.89574301 0 5040
0.07050000 0.07048030 31210.67841316 0 847.16850332 0 15923.28101251 0 1918.20580659 0 2381.68031753 0 5475
0.07150000 0.07148790 30768.35880690 0 564.93262444 0 11870.12717193 0 2197.24372034 0 -1543.38630797 0 5509
0.07250000 0.07249820 29919.68967671 0 605.86208188 0 13123.57213494 0 1556.15568720 0 3600.99866493 0 5916
0.07350000 0.07351270 28779.21325354 0 597.67101969 0 9266.26415204 0 2864.37634122 0 81.79956425 0 5721
0.07450000 0.07449140 27724.84021498 0 708.10928906 0 10289.16336856 0 1855.87639829 0 2180.85485157 0 6028
0.07550000 0.07549160 27571.06811298 0 726.70020130 0 8971.26451426 0 2646.13910728 0 1649.94767690 0 6183
0.07650000 0.07648840 26525.46278198 0 533.60942711 0 9513.95189090 0 1558.90964663 0 2312.55031554 0 6330
0.07750000 0.07749960 25839.67068088 0 756.83188965 0 8906.70945711 0 -290.58431018 0 3819.30334277 0 6583
0.07850000 0.07848650 25711.52726255 0 651.36423604 0 9850.77799006 0 -1040.43125947 0 3377.52328774 0 6549
0.07950000 0.07947320 25508.63351685 0 605.47427943 0 12034.24067260 0 -1201.05228996 0 6439.53275012 0 6828
0.08050000 0.08048110 25349.35349599 0 111.78973280 0 11633.62388055 0 -325.31005248 0 5375.80749014 0 7147
0.08150000 0.08149960 25342.15947953 0 156.00899150 0 11593.15753792 0 892.78756024 0 5054.94311503 0 7386
0.08250000 0.08250610 25644.64539070 0 5.77966159 0 11118.89200227 0 1638.99928309 0 4955.98042599 0 7227
0.08350000 0.08350160 25442.76330357 0 194.05522202 0 10574.64217518 0 1721.13471798 0 4282.00224881 0 7798
0.08450000 0.08449610 24422.89906275 0 291.05641751 0 9456.46720306 0 1539.58696802 0 4498.18244367 0 7371
0.08550000 0.08548940 24612.64124709 0 605.66649456 0 7406.99307723 0 504.46804009 0 3051.49945394 0 8256
0.08650000 0.08650700 23773.86388954 0 623.19179311 0 6736.28592942 0 -308.71323168 0 1778.58568386 0 8037
0.08750000 0.08749060 22832.57179733 0 801.61801436 0 6809.70985999 0 -1239.57400001 0 1120.65915593 0 8155
0.08850000 0.08849210 22586.28913981 0 625.02064699 0 7156.96728302 0 -1668.30365954 0 -990.50478518 0 8718
0.08950000 0.08949900 22190.73064059 0 542.68400445 0 7040.76143577 0 -1015.01502410 0 -1870.83770441 0 8571
0.09050000 0.09049190 21940.40134881 0 262.97277572 0 7912.81111948 0 -288.86224249 0 -1553.87383510 0 8932
0.09150000 0.09150830 21566.76211851 0 211.08255975 0 7524.53656193 0 1112.10389666 0 -1433.49770642 0 9285
0.09250000 0.09250820 21494.93436034 0 125.03537841 0 7817.49040128 0 1760.19597927 0 -1630.65872024 0 9204
0.09350000 0.09350330 21200.09209166 0 572.76735800 0 8064.21144417 0 1400.05677050 0 306.76522690 0 9349
0.09450000 0.09448040 20265.20717037 0 849.58299509 0 6628.19583199 0 1866.44260998 0 -348.50850746 0 9564
0.09550000 0.09549270 19568.51163806 0 899.78711345 0 7471.40200592 0 773.49727843 0 3796.65343155 0 10155
0.09650000 0.09649430 18901.60383019 0 674.94262501 0 6936.00981161 0 32.86912402 0 1916.77824395 0 9913
0.09750000 0.09749140 18417.35659670 0 51.72621488 0 7182.86574231 0 658.89772016 0 3476.76699305 0 10476
0.09850000 0.09850240 18355.64542419 0 -43.20793734 0 6973.59854765 0 -136.45138329 0 1707.07266391 0 10575
0.09950000 0.09950330 18489.07194836 0 77.65996980 0 6600.40894338 0 -259.06552553 0 1929.61506708 0 10882
0.10050000 0.10051200 18277.97252764 0 448.71328840 0 6917.33909074 0 -328.62716851 0 1028.45322205 0 10875
0.10150000 0.10150300 18128.13465339 0 249.23332833 0 6729.20431946 0 -481.96313326 0 850.17312926 0 11118
0.10250000 0.10250800 18074.74156242 0 293.84859515 0 7784.29675967 0 -133.35233588 0 670.44074439 0 11575
0.10350000 0.10349800 17780.23651327 0 300.59410965 0 7370.84314448 0 -687.23202846 0 -502.56724605 0 11364
0.10450000 0.10450100 17488.42922029 0 434.41180848 0 7992.01274453 0 -472.02527395 0 -636.86941692 0 12093
0.10550000 0.10551000 17194.14898415 0 473.78106360 0 7762.72595092 0 -326.28236877 0 -998.84309989 0 12067
0.10650000 0.10649700 16756.66285770 0 149.47704936 0 7965.78830637 0 163.19513951 0 -821.18686322 0 12054
0.10750000 0.10749900 16788.69871229 0 100.88023164 0 7896.29860355 0 664.17857787 0 -1850.05374121 0 12807
0.10850000 0.10850100 16550.50932330 0 174.53021170 0 7412.53471804 0 724.80502759 0 -2007.90619943 0 12736
0.10950000 0.10950300 16098.63516391 0 321.77711596 0 6435.93574189 0 645.79449360 0 -2336.04327557 0 12933
0.11050000 0.11050200 15802.89364318 0 600.91057523 0 6948.54313717 0 311.19629142 0 -1370.34773062 0 13428
0.11150000 0.11150900 15308.75463704 0 418.69400656 0 6155.43654354 0 509.24306852 0 -1082.04414847 0 13453
0.11250000 0.11250000 15053.47945894 0 285.92393638 0 6549.90469965 0 491.10065824 0 -507.75705449 0 13668
0.11350000 0.11349100 15105.74848484 0 -18.88609173 0 5653.00193717 0 209.75391484 0 -309.42251674 0 13791
0.11450000 0.11448600 14906.33934087 0 14.46514380 0 5973.65273992 0 163.98872945 0 -941.33255856 0 14205
0.11550000 0.11549300 14976.03137541 0 158.99675646 0 5224.11490853 0 -151.55319755 0 -773.36688688 0 14776
0.11650000 0.11649800 14911.17282069 0 59.79475397 0 5832.71746106 0 348.97049820 0 -1552.34510660 0 14553
0.11750000 0.11747300 14619.81515374 0 317.38651778 0 5156.61480089 0 -429.70984427 0 -1602.68074057 0 14568
0.11850000 0.11849100 14536.07230580 0 120.56834381 0 5287.34356889 0 477.47474143 0 -2041.30217275 0 16015
0.11950000 0.11950300 14261.46320844 0 -1.56959951 0 4994.94052143 0 336.86094517 0 -1935.16794855 0 15270
0.12050000 0.12050700 14523.03315095 0 -115.92707912 0 4799.62297432 0 723.24032901 0 -1317.03332420 0 15999
0.12150000 0.12150000 14585.19394949 0 -98.14875352 0 5044.81528872 0 970.31208021 0 -809.04696043 0 15670
0.12250000 0.12250700 14674.33230979 0 119.99619468 0 4878.19512293 0 577.36703228 0 210.79479909 0 16887
0.12350000 0.12352200 14390.50587883 0 245.54189863 0 4731.58331545 0 835.26465419 0 562.88795007 0 16407
0.12450000 0.12449800 14434.34441668 0 355.48782750 0 4738.40639044 0 395.51803288 0 2221.54600722 0 16306
0.12550000 0.12549900 13939.75578452 0 298.45838601 0 4641.27592748 0 187.61770135 0 1932.60508018 0 17523
0.12650000 0.12650100 13976.17549289 0 263.83043737 0 4962.99459205 0 78.83394337 0 2474.87655274 0 17154
0.12750000 0.12750600 13552.74017985 0 281.24108129 0 4824.74582871 0 134.31341152 0 2369.74274646 0 18007
0.12850000 0.12850300 13398.29363880 0 471.13051815 0 4820.62050989 0 28.51640684 0 2166.75907556 0 17496
0.12950000 0.12949900 12952.71424383 0 194.31937732 0 5035.37314211 0 -88.54676485 0 2436.87191262 0 18405
0.13050000 0.13049000 13040.50372604 0 186.06424342 0 5197.66565736 0 16.91335753 0 1711.22046403 0 18100
0.13150000 0.13148800 12839.97051700 0 27.82611848 0 4782.52594456 0 408.30202496 0 2602.58158570 0 19059
0.13250000 0.13249300 12791.41090584 0 17.64175170 0 4718.19570043 0 382.30689608 0 2200.66087816 0 18957
0.13350000 0.13349100 12857.73074515 0 8.94967122 0 4099.15058337 0 916.30524970 0 2592.93710737 0 19468
0.13450000 0.13450700 12722.16849734 0 -51.70688096 0 4109.71679506 0 860.49766695 0 2534.02485689 0 19953
0.13550000 0.13551000 12825.91970358 0 38.46842937 0 3468.85357493 0 531.84127275 0 2142.04088460 0 19956
0.13650000 0.13649900 12736.10690424 0 61.04617562 0 3355.91875704 0 139.89889087 0 1949.99436686 0 19723
0.13750000 0.13749600 12488.81258816 0 254.50406946 0 3159.81436439 0 -422.04484454 0 1280.17523045 0 20946
0.13850000 0.13851100 12407.31787036 0 251.85914434 0 3269.95026025 0 -752.74816124 0 894.76479071 0 20955
0.13950000 0.13949800 12041.65950208 0 315.42614829 0 4103.99530384 0 -778.08121579 0 323.07316298 0 20506
0.14050000 0.14048300 11924.08229544 0 237.36095303 0 3831.01610083 0 -289.71315975 0 132.48680578 0 21447
0.14150000 0.14148400 11756.82141256 0 132.10687178 0 4276.28075759 0 -193.07953354 0 -455.19801981 0 21771
0.14250000 0.14249400 11751.31349370 0 130.89512963 0 4348.37829138 0 194.77462367 0 -166.43132285 0 22470
0.14350000 0.14350900 11613.05348971 0 49.18897519 0 4263.37649055 0 258.59566633 0 -359.45577721 0 22519
0.14450000 0.14449900 11647.67469396 0 165.77824105 0 4291.34322957 0 200.97946287 0 487.58570676 0 22218
0.14550000 0.14550500 11625.53061202 0 118.78332847 0 4104.80463069 0 249.14565126 0 713.87237069 0 23559
0.14650000 0.14650700 11451.52533870 0 157.84121756 0 4571.34783928 0 195.03877896 0 997.06707708 0 23044
0.14750000 0.14750500 11414.76841081 0 244.88994089 0 4154.51078822 0 212.28980564 0 1160.52974407 0 23649
0.14850000 0.14849900 11146.08313639 0 171.61775910 0 4577.04684920 0 194.77349961 0 1337.27773616 0 23640
0.14950000 0.14949500 11026.71866628 0 273.68286774 0 4199.21485618 0 -21.18525443 0 1495.74843017 0 24457
0.15050000 0.15050000 10836.56057786 0 227.61193665 0 4497.83398350 0 245.93869360 0 1477.22383777 0 24591
0.15150000 0.15149900 10712.78977266 0 178.54874434 0 4349.77213207 0 -190.81004616 0 1274.85840266 0 25020
0.15250000 0.15250500 10628.64226129 0 83.70564139 0 4327.70673469 0 188.86204139 0 1406.40773816 0 25297
0.15350000 0.15350100 10482.61496765 0 144.53903149 0 4008.89939865 0 -29.12351439 0 1119.37210142 0 25452
0.15450000 0.15450400 10364.16099024 0 123.66626715 0 3960.02504927 0 180.46302716 0 813.02839892 0 26061
0.15550000 0.15549900 10291.23164830 0 174.92138635 0 3689.23777316 0 164.83852264 0 315.03384958 0 26128
0.15650000 0.15649500 10073.18550542 0 113.41254555 0 3354.31134398 0 412.86123289 0 319.00966775 0 26331
0.15750000 0.15749700 9831.90493748 0 168.08931884 0 3006.80662664 0 220.90913662 0 -270.85472001 0 27345
0.15850000 0.15849900 9737.48347134 0 127.34982839 0 2748.29414112 0 391.85470481 0 217.72241214 0 26980
0.15950000 0.15949700 9661.98002038 0 152.60082619 0 2764.88534160 0 245.29348025 0 -244.25709225 0 27777
0.16050000 0.16050000 9465.11126348 0 100.84516081 0 2537.43077406 0 118.09989691 0 187.35017386 0 28224
0.16150000 0.16150500 9498.56344005 0 103.39397837 0 2729.36488529 0 90.71576081 0 367.29837922 0 28075
0.16250000 0.16249700 9256.72083957 0 89.09351010 0 2717.74205244 0 -84.35962245 0 298.82595529 0 28590
0.16350000 0.16349900 9496.96726765 0 77.49124764 0 2912.36267919 0 -66.00734922 0 894.96599836 0 29163
0.16450000 0.16449100 9150.03582349 0 155.29071391 0 3065.04443807 0 45.16920608 0 559.81138397 0 28996
0.16550000 0.16550500 9199.57337126 0 166.89893392 0 2803.11479474 0 181.83551061 0 841.13114981 0 30777
0.16650000 0.16650700 8920.73778922 0 139.11766564 0 3102.02617898 0 165.30388558 0 583.12786578 0 29211
0.16750000 0.16749900 9024.79249304 0 132.89146920 0 2927.52631703 0 55.03591208 0 964.06115433 0 30922
0.16850000 0.16850800 8901.98838381 0 105.83589733 0 2986.80950899 0 67.94624907 0 633.42977780 0 30867
0.16950000 0.16949900 8764.87492619 0 172.60468823 0 3104.62276930 0 18.33822242 0 829.33633500 0 30852
0.17050000 0.17049200 8640.47464455 0 176.20844086 0 3205.14790878 0 -35.18750824 0 765.16121184 0 31257
0.17150000 0.17149500 8484.58930021 0 87.22576357 0 3197.54922889 0 189.24534758 0 892.75721049 0 32608
0.17250000 0.17250900 8573.72766051 0 54.90776866 0 3438.07667323 0 41.42202276 0 1157.07886430 0 32361
0.17350000 0.17350400 8542.83835230 0 -31.68582072 0 3239.92648215 0 305.94353534 0 978.24460743 0 32508
0.17450000 0.17449800 8523.92033712 0 -32.74412799 0 3375.98331859 0 104.74915122 0 1269.23807729 0 32791
0.17550000 0.17549800 8670.64455111 0 29.26604584 0 3153.14865850 0 90.61931603 0 1159.58552941 0 33633
0.17650000 0.17650100 8488.72585968 0 118.76983969 0 3122.70897632 0 -115.39202414 0 1035.59328339 0 33984
0.17750000 0.17750300 8442.17832500 0 191.91387806 0 3237.41981703 0 -33.28603976 0 966.24184058 0 34069
