### header ###
fiducial parameters:
Omega_m = 0.31
Omega_nu = 0
Omega_de = 0.69
Omega_k = 0
H_0 = 100
w_de = -1
zeff = 0
beta = 0
fgrowth = 0
b_1 = 2
gamma = 0.55
Lx = 3500 Ly = 3500 Lz = 3500
nx = 700 ny = 700 nz = 700
xoffset = 857.220397 yoffset = 15.9954215 zoffset = 262.898189
bins = 400 dk = 0.001
kx_ny = 0.628318531 ky_ny = 0.628318531 kz_ny = 0.628318531
############################
A(data) = 3.05820244 (not used)
A(ran) = 3.05303928 (used)
Ngal = 186733
weighted Ngal = 0
Nran = 9360983
weighted Nran = 0
SN(data) = 3457.35088
SN(ran) = 68.5597883
SN(data+ran) = 3525.91067
############################
13 columns: k_central k_mean P_0(k) sigma^{lin}_{P_0(k)} P^img_1(k) sigma^{lin}_{P_1(k)} P_2(k) sigma^{lin}_{P_2(k)} P^img_3(k) sigma^{lin}_{P_3(k)} P_4(k) sigma^{lin}_{P_4(k)} N_modes
### header ###
0.00050000 0 0 0 0 0 0 0 0 0 0 0 0
0.00150000 0.00179520 3934.29519975 0 -375.47595263 0 9675.27771019 0 -10903.47617166 0 -20806.10728354 0 3
0.00250000 0.00253879 6939.96652066 0 85.08138463 0 3325.10813339 0 11455.23475345 0 2617.38552271 0 6
0.00350000 0.00331552 9695.25234654 0 1171.15215901 0 12783.76726334 0 -270.43094748 0 5617.97606949 0 7
0.00450000 0.00420575 12985.08731793 0 63.78900680 0 12667.76374780 0 15868.31423043 0 4150.61028242 0 24
0.00550000 0.00557378 19834.80265388 0 -6277.70110155 0 11620.02269316 0 31921.42475888 0 4066.26043933 0 45
0.00650000 0.00659388 31108.83811754 0 -13177.97688448 0 1519.82590404 0 23271.06958234 0 -8121.61744746 0 40
0.00750000 0.00754703 41476.20269324 0 -15516.59426906 0 -1071.86011891 0 17622.08055748 0 -12285.58162294 0 57
0.00850000 0.00846663 51164.40715177 0 -14908.25025150 0 -12480.26969360 0 3692.63244969 0 -9594.77216966 0 75
0.00950000 0.00948925 56408.17071778 0 -6599.65581978 0 -17445.60234101 0 -10272.61713069 0 -11596.52973313 0 112
0.01050000 0.01054430 66107.84064006 0 -2413.46887780 0 -27955.94799400 0 -17954.80381912 0 -14417.37103408 0 105
0.01150000 0.01145670 60878.46510699 0 2112.57913903 0 -24417.84076992 0 -23578.27656682 0 -9817.23588827 0 144
0.01250000 0.01249090 62730.13750191 0 3550.14596102 0 -26718.46475503 0 -14144.67284734 0 -17610.27787421 0 169
0.01350000 0.01339930 56958.85019709 0 -342.19800614 0 -15621.69435339 0 -12730.03695285 0 -5573.26076088 0 180
0.01450000 0.01448870 55704.28116901 0 2621.78061715 0 -11339.00642489 0 -1584.04374166 0 -10606.57686391 0 267
0.01550000 0.01550050 58221.84971323 0 80.58512434 0 -11776.26773832 0 828.73720831 0 -17209.88589518 0 238
0.01650000 0.01653350 57124.76220188 0 1020.19021969 0 8370.05830991 0 -1966.33827302 0 10434.40381666 0 315
0.01750000 0.01747870 60464.24712755 0 2754.27416731 0 19901.79693223 0 -5976.22684894 0 12647.64298299 0 297
0.01850000 0.01844180 58085.05099383 0 588.21650836 0 24913.44106065 0 3509.81450620 0 35006.64616502 0 388
0.01950000 0.01947590 63961.77560250 0 498.68584936 0 38018.91574791 0 -7506.60772401 0 21653.31512914 0 399
0.02050000 0.02045430 61559.08650875 0 -555.33872904 0 34152.58152248 0 5604.64465773 0 20943.35562897 0 462
0.02150000 0.02154770 65150.13719778 0 -347.97570061 0 32580.57651775 0 6515.29473605 0 6445.63642347 0 571
0.02250000 0.02255340 60777.86128295 0 -2656.40182140 0 26234.89196058 0 -1257.87377940 0 -4172.68692045 0 510
0.02350000 0.02348930 65516.91963113 0 -3782.63634009 0 19458.35326090 0 2352.51082889 0 -5078.55972221 0 555
0.02450000 0.02439640 67587.33508927 0 -3070.92329841 0 9279.55060121 0 -85.18682194 0 -29250.08411266 0 592
0.02550000 0.02547300 68813.69008403 0 -5681.39582092 0 -6968.89995564 0 9816.55020858 0 -15703.86351024 0 837
0.02650000 0.02652900 72203.53312497 0 -2579.50452975 0 -4521.36066548 0 6800.90843047 0 -23126.96443997 0 723
0.02750000 0.02749970 74131.19231883 0 -327.28728294 0 -18729.17224798 0 11979.16148402 0 -2806.53195256 0 826
0.02850000 0.02848090 69394.26969428 0 5492.20442846 0 -10498.58793233 0 6143.88115459 0 -7074.46090666 0 831
0.02950000 0.02946900 65619.65917881 0 7285.71769650 0 -18102.95559575 0 872.84102552 0 15753.09756044 0 996
0.03050000 0.03053250 57999.06001574 0 8074.38423309 0 -9579.09146189 0 -326.49032081 0 16366.72468385 0 1041
0.03150000 0.03150510 51507.92143811 0 5765.99295832 0 -5395.44490697 0 508.46858769 0 20751.59012750 0 1036
0.03250000 0.03246190 49938.27697004 0 4216.15451683 0 -10097.38662644 0 -4604.56396219 0 23226.44419894 0 1059
0.03350000 0.03345080 46714.34593388 0 -558.15788424 0 3839.53651409 0 -861.48796828 0 19180.93400086 0 1302
0.03450000 0.03451200 47454.65519103 0 373.77636624 0 2045.66354523 0 -1854.44883565 0 18406.22835248 0 1339
0.03550000 0.03553350 47810.98381920 0 -386.75819377 0 6003.58659282 0 2469.72833471 0 13706.17506233 0 1365
0.03650000 0.03647120 46996.03664120 0 656.10891471 0 1859.27107481 0 -421.85712567 0 18047.76400066 0 1308
0.03750000 0.03744890 47663.05685558 0 1435.10511948 0 10397.12981884 0 1747.05565856 0 11480.52621759 0 1579
0.03850000 0.03847530 46020.23575124 0 1053.39285382 0 7229.80669976 0 5664.93950825 0 19204.31455438 0 1662
0.03950000 0.03950240 44529.38824479 0 269.78011380 0 5590.66128822 0 4385.46119814 0 11677.01279237 0 1683
0.04050000 0.04050350 46232.57164355 0 -674.50536370 0 3796.51854374 0 1159.25955054 0 12720.03277370 0 1822
0.04150000 0.04152450 45145.15109184 0 -406.26184685 0 -686.06412485 0 -26.17644058 0 5324.88734233 0 1887
0.04250000 0.04250150 46204.80723625 0 -225.87638018 0 -574.65691139 0 -2579.18979153 0 -733.12198507 0 1920
0.04350000 0.04349210 44835.58357070 0 706.49175942 0 -3323.90538376 0 -3874.73099153 0 -4225.69782930 0 2005
0.04450000 0.04448520 44586.04112448 0 749.77163693 0 -3174.74194856 0 -2548.01946705 0 -8521.27878420 0 2151
0.04550000 0.04548030 42840.48047246 0 1325.54249680 0 -2832.53157770 0 -2584.22560305 0 -9204.57546083 0 2274
0.04650000 0.04648670 41650.09556005 0 1472.92990919 0 246.81434030 0 -898.24489617 0 -9839.13267590 0 2311
0.04750000 0.04749250 41130.32787025 0 1660.32279752 0 445.71653092 0 -870.80421961 0 -8493.67174600 0 2568
0.04850000 0.04851840 39554.05141824 0 1218.50902054 0 4932.63359442 0 -1598.74651282 0 -5798.61332674 0 2493
0.04950000 0.04949480 39457.15700894 0 1508.36044029 0 6258.37842294 0 -3268.30912524 0 -6645.74248778 0 2644
0.05050000 0.05050630 39204.80440003 0 923.12832470 0 9209.36397804 0 -2712.80740677 0 -4341.94863916 0 2829
0.05150000 0.05149060 36771.20351677 0 1741.46905515 0 9978.80900188 0 -3642.03828075 0 -3964.13912744 0 2784
0.05250000 0.05249300 37769.48570819 0 840.45109044 0 11632.05018944 0 -557.78469464 0 -2422.71993335 0 3055
0.05350000 0.05348950 36868.43514559 0 409.06189295 0 12929.78331634 0 902.13753352 0 -3550.29208948 0 3009
0.05450000 0.05448610 36826.84473789 0 367.19608930 0 10965.85054257 0 1237.41579507 0 -1042.45232847 0 3336
0.05550000 0.05550870 36616.86938223 0 154.57693259 0 12082.80028376 0 2368.22525861 0 -2900.51503332 0 3349
0.05650000 0.05647670 36314.83309709 0 660.27020361 0 11018.68160101 0 246.07807767 0 362.36260948 0 3324
0.05750000 0.05747970 35215.83467512 0 1025.19006114 0 12143.05017168 0 -255.51685209 0 -1034.42650384 0 3639
0.05850000 0.05849280 34996.97920539 0 218.54747590 0 11619.57306713 0 252.61901233 0 85.13331644 0 3846
0.05950000 0.05951020 34863.21546169 0 68.67722858 0 14071.49621108 0 150.40665117 0 1536.15856955 0 3787
0.06050000 0.06049470 34377.84416313 0 84.05859782 0 11012.06085773 0 920.56096007 0 -1263.76388038 0 3930
0.06150000 0.06148310 34826.57094031 0 -328.51813420 0 12289.62825721 0 2213.75623626 0 1737.19760787 0 4083
0.06250000 0.06249100 34774.97635345 0 443.30541133 0 11040.36481627 0 1394.11046626 0 652.80753559 0 4303
0.06350000 0.06350600 35054.64374364 0 811.32993659 0 12085.83525945 0 -543.53042545 0 2281.87457969 0 4470
0.06450000 0.06451750 33428.34639588 0 1412.66878062 0 11658.24090565 0 -321.27016261 0 851.07575351 0 4479
0.06550000 0.06550280 33043.46651485 0 1562.49541421 0 12919.77913719 0 327.72004800 0 1843.63532964 0 4636
0.06650000 0.06648880 31673.90562979 0 1472.51400511 0 11982.08405321 0 927.25813978 0 3634.07990003 0 4653
0.06750000 0.06749660 30627.06382721 0 526.31761698 0 11654.86871043 0 2277.92911129 0 74.08094661 0 5220
0.06850000 0.06852730 29536.72070630 0 304.24619708 0 11344.28953073 0 2148.88644089 0 1772.20099425 0 5029
0.06950000 0.06949320 29717.02074403 0 12.64213506 0 9797.73335926 0 942.93659942 0 -1552.83969523 0 5040
0.07050000 0.07048030 29828.52799928 0 107.75074218 0 12285.58162294 0 1286.11029404 0 3962.75652740 0 5475
0.07150000 0.07148790 29112.27373470 0 371.81599675 0 9424.86973386 0 140.29905803 0 916.29962938 0 5509
0.07250000 0.07249820 30172.82913117 0 655.43222754 0 13760.46740536 0 -1069.83680178 0 6884.38150280 0 5916
0.07350000 0.07351270 29258.62700722 0 1259.33506400 0 14996.48935974 0 -198.69648671 0 6502.34550640 0 5721
0.07450000 0.07449140 29356.42066858 0 1234.12228441 0 17387.93780276 0 -294.89959599 0 9237.51056747 0 6028
0.07550000 0.07549160 27736.64289824 0 1181.49355768 0 17998.64235697 0 1328.71236031 0 10776.80527858 0 6183
0.07650000 0.07648840 27370.98452996 0 909.00332299 0 17731.67690211 0 2295.58817358 0 9825.12682509 0 6330
0.07750000 0.07749960 26434.07629154 0 533.67799508 0 18283.14322697 0 2370.79936763 0 9265.38738129 0 6583
0.07850000 0.07848650 25464.68257249 0 757.83118350 0 15677.33557451 0 2175.50430183 0 8423.75489846 0 6549
0.07950000 0.07947320 25019.89002307 0 558.78398849 0 14514.60266290 0 1877.72822331 0 8491.80579798 0 6828
0.08050000 0.08048110 23860.07968065 0 577.80991392 0 12393.71668298 0 926.45780544 0 5461.37132351 0 7147
0.08150000 0.08149960 23421.69430214 0 281.39732633 0 11709.16105346 0 821.89277608 0 5582.48933514 0 7386
0.08250000 0.08250610 22962.06409375 0 341.80683149 0 10433.93170933 0 -215.87444916 0 1823.23354857 0 7227
0.08350000 0.08350160 23143.15097702 0 340.15782803 0 11053.49389632 0 -586.56750490 0 2145.45804242 0 7798
0.08450000 0.08449610 22490.40638907 0 640.52150434 0 11475.80514428 0 -1379.98096829 0 600.03717667 0 7371
0.08550000 0.08548940 21937.59118612 0 584.02262157 0 10477.71404393 0 -464.90432171 0 -478.94164635 0 8256
0.08650000 0.08650700 21645.55908013 0 304.90489921 0 11205.71478852 0 764.83523297 0 73.97179989 0 8037
0.08750000 0.08749060 21442.44052142 0 312.74974935 0 9423.57705902 0 1097.48880258 0 -2113.14117157 0 8155
0.08850000 0.08849210 21207.62332765 0 249.08495174 0 9758.37984105 0 2093.47003279 0 -32.80909895 0 8718
0.08950000 0.08949900 20347.93835975 0 267.23298235 0 7039.72729590 0 1921.07217253 0 -1736.95031356 0 8571
0.09050000 0.09049190 20568.14270757 0 118.04481772 0 7493.20886834 0 969.97486068 0 -359.20511069 0 8932
0.09150000 0.09150830 20294.88248830 0 101.80207741 0 6422.87410574 0 243.61862329 0 -1209.71883167 0 9285
0.09250000 0.09250820 20351.76018100 0 170.83203761 0 7287.59488517 0 125.92001762 0 -1033.56547000 0 9204
0.09350000 0.09350330 20012.51734193 0 410.34782339 0 6105.40440714 0 -1040.69091850 0 -266.71816054 0 9349
0.09450000 0.09448040 19787.14229478 0 459.22891716 0 7472.80708726 0 -439.74662131 0 -1731.55480120 0 9564
0.09550000 0.09549270 19294.01494721 0 423.88718720 0 7149.72830395 0 -138.86025474 0 -968.09092762 0 10155
0.09650000 0.09649430 19117.98635676 0 254.45236247 0 7528.89793441 0 799.82288244 0 -1185.91113342 0 9913
0.09750000 0.09749140 18684.65927108 0 424.72236755 0 6845.33148216 0 731.37518794 0 -1345.28107949 0 10476
0.09850000 0.09850240 18269.87925911 0 723.84507602 0 6509.37091311 0 720.14690193 0 -1236.29173000 0 10575
0.09950000 0.09950330 17355.90194817 0 768.87961911 0 6814.91428128 0 790.28968655 0 -259.13521756 0 10882
0.10050000 0.10051200 16854.56892557 0 595.83654549 0 5966.14398523 0 692.58819853 0 398.97902924 0 10875
0.10150000 0.10150300 16687.53285571 0 132.02481503 0 6011.06162556 0 1394.53761099 0 789.70629678 0 11118
0.10250000 0.10250800 16458.44839381 0 -182.50882559 0 5614.97481575 0 941.39550620 0 1828.86511458 0 11575
0.10350000 0.10349800 16826.01767271 0 -228.27738318 0 5154.95118458 0 566.71539164 0 594.32467797 0 11364
0.10450000 0.10450100 16982.71234390 0 -59.28645174 0 5449.15273616 0 -88.79282269 0 1933.05470621 0 12093
0.10550000 0.10551000 16948.54076568 0 290.16953017 0 5052.54885642 0 -343.91220537 0 1247.66726854 0 12067
0.10650000 0.10649700 16744.29814190 0 385.25756689 0 5702.55072559 0 -625.70632668 0 2733.22042849 0 12054
0.10750000 0.10749900 16650.55111480 0 256.07551243 0 5721.97457006 0 104.54974207 0 1835.14863834 0 12807
0.10850000 0.10850100 16287.81531571 0 106.65005766 0 5595.71958105 0 408.63812041 0 1430.24915836 0 12736
0.10950000 0.10950300 16470.25107708 0 48.92560675 0 5567.40438185 0 218.17316223 0 704.11211366 0 12933
0.11050000 0.11050200 16048.50186165 0 59.27341259 0 5606.67921551 0 270.09035576 0 321.65684099 0 13428
0.11150000 0.11150900 16241.84105422 0 70.50462117 0 5212.55951958 0 191.34285300 0 605.22473698 0 13453
0.11250000 0.11250000 16131.34545754 0 -38.06466520 0 4939.64776048 0 431.48024676 0 -452.66550120 0 13668
0.11350000 0.11349100 16077.27792752 0 68.73388146 0 4559.44399016 0 511.60023298 0 -701.73246790 0 13791
0.11450000 0.11448600 15956.55333867 0 159.82294429 0 4326.81872328 0 544.34762075 0 -1300.71189934 0 14205
0.11550000 0.11549300 15526.14882218 0 347.53956337 0 3971.82773254 0 222.94144627 0 -1254.36669637 0 14776
0.11650000 0.11649800 15336.85626387 0 300.78182852 0 3909.21730797 0 -55.49846485 0 -710.64855206 0 14553
0.11750000 0.11747300 15156.78103916 0 326.94781529 0 4065.26002142 0 -98.19877441 0 -913.36581954 0 14568
0.11850000 0.11849100 14805.28589080 0 198.25922540 0 3815.97611016 0 -169.96650751 0 -1251.92747516 0 16015
0.11950000 0.11950300 14701.75949757 0 282.83725369 0 4263.72495072 0 -257.17597214 0 -1285.33468914 0 15270
0.12050000 0.12050700 14418.15787963 0 345.68485600 0 4124.89167355 0 181.94679306 0 -1405.47476415 0 15999
0.12150000 0.12150000 14074.75599980 0 432.52450322 0 4219.26817708 0 481.70572236 0 -1005.58973846 0 15670
0.12250000 0.12250700 13919.85983272 0 244.74268837 0 3480.74618341 0 777.86764343 0 -1093.35111904 0 16887
0.12350000 0.12352200 13477.65263297 0 313.26794335 0 3696.09457011 0 298.10880178 0 -904.72625539 0 16407
0.12450000 0.12449800 13454.38448595 0 270.74456164 0 2855.78848406 0 107.14858052 0 -222.50755715 0 16306
0.12550000 0.12549900 13221.59060931 0 152.46369025 0 3926.73024181 0 35.83541934 0 -8.57704365 0 17523
0.12650000 0.12650100 13183.59720984 0 187.42211403 0 3550.23588623 0 -216.55001227 0 737.61374910 0 17154
0.12750000 0.12750600 13208.55145447 0 -28.87475878 0 3959.95760537 0 57.12757236 0 902.42192199 0 18007
0.12850000 0.12850300 13207.53979590 0 -60.55743212 0 3945.62577569 0 102.62376898 0 923.04514388 0 17496
0.12950000 0.12949900 13457.30705514 0 -130.85241516 0 3611.02532538 0 550.31640629 0 965.30774250 0 18405
0.13050000 0.13049000 13459.44277878 0 -63.80193355 0 4091.32709046 0 718.33490903 0 725.73125721 0 18100
0.13150000 0.13148800 13449.55100614 0 143.69485862 0 3241.03930657 0 193.87986787 0 711.93448250 0 19059
0.13250000 0.13249300 13128.74283428 0 315.91736473 0 3211.86981792 0 437.28491880 0 1007.57146518 0 18957
0.13350000 0.13349100 12825.58248406 0 439.39703707 0 2892.50044935 0 235.05774370 0 1090.22509407 0 19468
0.13450000 0.13450700 12420.13221219 0 290.24933879 0 2675.11750487 0 566.32871326 0 991.53555285 0 19953
0.13550000 0.13551000 12232.30093848 0 130.81644508 0 2585.76557221 0 828.99461922 0 1399.14627779 0 19956
0.13650000 0.13649900 11937.34626330 0 75.66891334 0 2281.85209839 0 531.36242103 0 1060.98029307 0 19723
0.13750000 0.13749600 12066.16412068 0 125.96722835 0 2114.81602853 0 26.02042034 0 1011.19994724 0 20946
0.13850000 0.13851100 11781.10121814 0 64.21952372 0 2495.85160701 0 -343.34342845 0 744.79202865 0 20955
0.13950000 0.13949800 11813.13707272 0 5.40884376 0 2321.25057920 0 -399.32074502 0 499.65591751 0 20506
0.14050000 0.14048300 11892.83328640 0 -40.48252917 0 2652.51255625 0 -572.62572580 0 432.15805800 0 21447
0.14150000 0.14148400 12070.88519398 0 -69.97732225 0 2668.48552093 0 -637.62254052 0 -792.13540140 0 21771
0.14250000 0.14249400 12089.99430022 0 23.27005792 0 2713.92023119 0 -157.67598000 0 -398.70363330 0 22470
0.14350000 0.14350900 11984.44458986 0 163.75042765 0 2461.47769707 0 12.56086516 0 -1160.85572294 0 22519
0.14450000 0.14449900 11988.49122412 0 213.78143999 0 2523.71718017 0 387.79233363 0 -638.71175958 0 22218
0.14550000 0.14550500 11578.31987895 0 100.65530622 0 2084.27518049 0 324.72666271 0 -1272.29553429 0 23559
0.14650000 0.14650700 11561.68371587 0 213.19692615 0 2271.88164119 0 171.23332885 0 -1044.41494608 0 23044
0.14750000 0.14750500 11419.37707761 0 149.90981441 0 1933.26827857 0 42.34937644 0 -984.44607443 0 23649
0.14850000 0.14849900 11171.37460054 0 392.04242367 0 2547.63728493 0 -173.64894469 0 -419.53031097 0 23640
0.14950000 0.14949500 10950.85551450 0 432.89094843 0 2469.06513632 0 -161.46745149 0 -296.35076400 0 24457
0.15050000 0.15050000 10618.75048865 0 390.09779110 0 3090.69560304 0 -118.14935577 0 257.93696419 0 24591
0.15150000 0.15149900 10566.35781559 0 241.09622127 0 2966.96976045 0 -45.89242955 0 604.45587647 0 25020
0.15250000 0.15250500 10396.15188222 0 68.87438960 0 3211.66748621 0 210.61832088 0 545.16031980 0 25297
0.15350000 0.15350100 10333.90115847 0 83.55793924 0 2894.80478275 0 462.01435041 0 578.76874142 0 25452
0.15450000 0.15450400 10163.57157795 0 126.84961943 0 2766.53771726 0 388.71181886 0 856.06098211 0 26061
0.15550000 0.15549900 10017.27450868 0 281.87055773 0 2421.76447804 0 175.86110475 0 241.72232551 0 26128
0.15650000 0.15649500 9647.80555981 0 307.89266417 0 2483.35200339 0 106.87610715 0 23.16462062 0 26331
0.15750000 0.15749700 9366.84549479 0 335.14224967 0 2136.44304054 0 -193.93607113 0 -554.74747081 0 27345
0.15850000 0.15849900 9024.87117760 0 179.48621461 0 2015.80837689 0 -336.41356727 0 -673.20032415 0 26980
0.15950000 0.15949700 9014.03519029 0 111.31964879 0 2013.94242887 0 -315.97131985 0 -1012.80286403 0 27777
0.16050000 0.16050000 8970.02804268 0 -9.37336507 0 1991.50609001 0 -25.39487813 0 -1296.74394963 0 28224
0.16150000 0.16150500 9078.83754176 0 -60.11567455 0 1886.16995201 0 144.23440985 0 -1350.23820646 0 28075
0.16250000 0.16249700 9035.57227709 0 -110.62317807 0 1835.78935543 0 272.94548105 0 -1567.73355745 0 28590
0.16350000 0.16349900 9169.57207446 0 79.40283270 0 2021.20388924 0 92.67781640 0 -1056.56496546 0 29163
0.16450000 0.16449100 9006.24541934 0 88.76168609 0 1899.89478655 0 258.65524178 0 -1242.48532855 0 28996
0.16550000 0.16550500 9003.06431518 0 221.95788933 0 1936.61799249 0 200.25556497 0 -726.10444681 0 30777
0.16650000 0.16650700 8817.34628380 0 147.54702963 0 2231.19048555 0 135.78368864 0 -562.01230338 0 29211
0.16750000 0.16749900 8665.57501763 0 97.34178720 0 1851.80728272 0 320.97003723 0 -63.96638427 0 30922
0.16850000 0.16850800 8782.15180636 0 -37.95394479 0 2069.86466626 0 303.84940210 0 185.29650698 0 30867
0.16950000 0.16949900 8678.07462124 0 49.53485002 0 1837.59910020 0 265.63456181 0 376.03910923 0 30852
0.17050000 0.17049200 8762.08724481 0 116.80497394 0 1718.39199920 0 89.70859851 0 174.92138635 0 31257
0.17150000 0.17149500 8518.63723128 0 210.04841988 0 1954.09720438 0 -202.00348616 0 212.95075590 0 32608
0.17250000 0.17250900 8431.16248729 0 232.97147892 0 1887.33897969 0 -306.06493436 0 497.72252559 0 32361
0.17350000 0.17350400 8316.84506935 0 132.18555634 0 2158.95806395 0 -391.63326399 0 58.16946828 0 32508
0.17450000 0.17449800 8369.29394566 0 -1.06304857 0 2262.82167670 0 -187.63456233 0 -27.30162971 0 32791
0.17550000 0.17549800 8365.70817808 0 -62.86895954 0 2369.13575132 0 -82.81178485 0 -422.32361268 0 33633
0.17650000 0.17650100 8410.34480213 0 1.77522473 0 2065.03118644 0 153.20894540 0 -616.88241586 0 33984
0.17750000 0.17750300 8410.13122977 0 -60.37488395 0 1860.97965372 0 310.27006180 0 -723.88554236 0 34069
