### header ###
fiducial parameters:
Omega_m = 0.31
Omega_nu = 0
Omega_de = 0.69
Omega_k = 0
H_0 = 100
w_de = -1
zeff = 0
beta = 0
fgrowth = 0
b_1 = 2
gamma = 0.55
Lx = 3500 Ly = 3500 Lz = 3500
nx = 700 ny = 700 nz = 700
xoffset = 857.220397 yoffset = 15.9954215 zoffset = 262.898189
bins = 400 dk = 0.001
kx_ny = 0.628318531 ky_ny = 0.628318531 kz_ny = 0.628318531
############################
A(data) = 3.12484318 (not used)
A(ran) = 3.12522626 (used)
Ngal = 190927
weighted Ngal = 0
Nran = 9360983
weighted Nran = 0
SN(data) = 3432.82763
SN(ran) = 70.1808367
SN(data+ran) = 3503.00847
############################
13 columns: k_central k_mean P_0(k) sigma^{lin}_{P_0(k)} P^img_1(k) sigma^{lin}_{P_1(k)} P_2(k) sigma^{lin}_{P_2(k)} P^img_3(k) sigma^{lin}_{P_3(k)} P_4(k) sigma^{lin}_{P_4(k)} N_modes
### header ###
0.00050000 0 0 0 0 0 0 0 0 0 0 0 0
0.00150000 0.00179520 7414.65920103 0 -1326.11576999 0 25422.64253876 0 6262.75103607 0 18083.05964396 0 3
0.00250000 0.00253879 17596.78909334 0 1109.53878016 0 31979.42651666 0 7033.21895913 0 5943.96618134 0 6
0.00350000 0.00331552 25309.67399891 0 2287.30381400 0 50181.52465186 0 13147.06509497 0 -17951.31921739 0 7
0.00450000 0.00420575 37853.22855613 0 1855.91012024 0 69642.68807544 0 24742.35835652 0 10160.58156485 0 24
0.00550000 0.00557378 52781.37475943 0 -1526.10942779 0 74091.62522825 0 41761.04078276 0 11629.24002676 0 45
0.00650000 0.00659388 68102.04448625 0 464.07925795 0 80275.10719537 0 70715.72059422 0 2423.46181630 0 40
0.00750000 0.00754703 66640.08545217 0 1351.77817561 0 60847.55331748 0 21808.66092224 0 -15149.24980317 0 57
0.00850000 0.00846663 81265.85815080 0 4425.42171149 0 68094.17603073 0 48597.71696386 0 33547.27248061 0 75
0.00950000 0.00948925 81291.82405399 0 6333.38728527 0 87354.69383877 0 3645.89382395 0 25467.15551566 0 112
0.01050000 0.01054430 73485.97896687 0 2900.73984634 0 52492.26522263 0 44807.03231785 0 37241.73715637 0 105
0.01150000 0.01145670 81625.33416118 0 1170.92734600 0 89134.20125599 0 19242.64517337 0 35314.07796251 0 144
0.01250000 0.01249090 77787.21396908 0 -1843.80393940 0 47903.04474868 0 54468.14680812 0 35030.81356409 0 169
0.01350000 0.01339930 86877.30340222 0 -4274.96560146 0 83819.62159038 0 42674.56846767 0 33236.91811393 0 180
0.01450000 0.01448870 89663.52349891 0 -6215.13563958 0 27389.08197764 0 26198.47225221 0 18193.55524065 0 267
0.01550000 0.01550050 87295.45560941 0 -1577.82766181 0 34464.17236074 0 8200.97644162 0 -3014.22545612 0 238
0.01650000 0.01653350 89660.93814924 0 4618.63725690 0 4671.79429421 0 1264.25846902 0 3122.56284786 0 315
0.01750000 0.01747870 84386.15038722 0 7518.24179752 0 21396.46625993 0 4368.69014725 0 -5213.33512448 0 297
0.01850000 0.01844180 74584.07813678 0 11977.02576038 0 13244.07191078 0 -9546.03270809 0 -3684.21320229 0 388
0.01950000 0.01947590 61454.21123743 0 10421.94917565 0 11308.09463538 0 2327.78139728 0 -24797.66235812 0 399
0.02050000 0.02045430 57522.79364427 0 7726.68842467 0 18757.61109433 0 -1626.97178680 0 -16147.86921411 0 462
0.02150000 0.02154770 50816.17179213 0 5085.52892567 0 20328.15481446 0 186.85783336 0 -14643.42052028 0 571
0.02250000 0.02255340 50228.73538493 0 2837.26389166 0 22029.53970910 0 -1001.33852435 0 -5501.12950514 0 510
0.02350000 0.02348930 48439.78582109 0 199.76322447 0 25709.84116494 0 -3384.64986031 0 -9618.16396383 0 555
0.02450000 0.02439640 49335.44087133 0 346.03893649 0 29068.88482288 0 -331.61156128 0 -6034.80187990 0 592
0.02550000 0.02547300 51195.31894128 0 911.61452615 0 30008.04119145 0 278.34436560 0 -7039.10906011 0 837
0.02650000 0.02652900 51960.24522353 0 -739.49093777 0 31107.37683294 0 -456.68515790 0 -9547.97734066 0 723
0.02750000 0.02749970 53596.09712441 0 -1693.14549766 0 26166.77361715 0 6412.15052494 0 -9564.81583546 0 826
0.02850000 0.02848090 56919.17070001 0 -2641.98006651 0 27179.78106103 0 1849.62659648 0 -10642.52446494 0 831
0.02950000 0.02946900 57243.23866059 0 -1787.40959469 0 21460.31315609 0 3623.62609485 0 -5832.25659438 0 996
0.03050000 0.03053250 58569.97266637 0 -136.20521304 0 19082.01627442 0 5976.83384408 0 -7248.06151655 0 1041
0.03150000 0.03150510 58026.59961003 0 933.57426142 0 11427.02072011 0 4098.77964190 0 -7863.76816034 0 1036
0.03250000 0.03246190 54819.86676949 0 -54.96532079 0 7234.32544136 0 8613.20482588 0 -10195.85472685 0 1059
0.03350000 0.03345080 56910.40299244 0 579.86920113 0 4505.76988291 0 2846.78472283 0 -11870.91401748 0 1302
0.03450000 0.03451200 53658.14551644 0 -508.12687190 0 2281.79589514 0 3421.71028577 0 -12593.91267250 0 1339
0.03550000 0.03553350 54581.78978701 0 -494.62797444 0 2698.64418685 0 -4672.31136415 0 -14274.50236329 0 1365
0.03650000 0.03647120 55157.08629142 0 1228.43451514 0 2002.75798139 0 -6748.48203546 0 -15922.60657346 0 1308
0.03750000 0.03744890 55553.43163620 0 2592.22894638 0 11075.98643843 0 -8889.70235256 0 -16534.09797323 0 1579
0.03850000 0.03847530 52435.05031041 0 4601.58518975 0 9807.32163433 0 -8944.66913463 0 -14864.97374618 0 1662
0.03950000 0.03950240 50934.31103131 0 3391.85511743 0 21930.50957616 0 -4908.37627015 0 -8854.85633529 0 1683
0.04050000 0.04050350 48783.86213996 0 1201.13097451 0 22068.09514111 0 -85.61093169 0 -8731.93981955 0 1822
0.04150000 0.04152450 49217.41403866 0 -439.83767058 0 22261.32192718 0 7029.34093463 0 -8786.65930731 0 1887
0.04250000 0.04250150 51252.53385351 0 -1430.42900877 0 23203.51327145 0 4476.89265119 0 -5380.02273417 0 1920
0.04350000 0.04349210 50162.19073260 0 -527.98010923 0 16226.66617574 0 9832.98403995 0 -2147.39143435 0 2005
0.04450000 0.04448520 50730.18081404 0 1192.19465718 0 17096.13050978 0 5907.59143558 0 -466.27230891 0 2151
0.04550000 0.04548030 47480.84590723 0 1108.68336664 0 15515.02057796 0 4497.76653959 0 5637.59100502 0 2274
0.04650000 0.04648670 46970.52036404 0 2619.26271138 0 16186.42464612 0 3712.22490391 0 6903.46812774 0 2311
0.04750000 0.04749250 44179.35438103 0 1679.65671678 0 14517.63763860 0 3387.88716772 0 6197.79131550 0 2568
0.04850000 0.04851840 41800.72027984 0 1953.84991006 0 13396.38272818 0 468.68455255 0 7390.62668977 0 2493
0.04950000 0.04949480 41097.05554408 0 1405.08134137 0 13778.00282050 0 142.38307468 0 4880.49945633 0 2644
0.05050000 0.05050630 40422.95371975 0 155.71673458 0 12593.23823345 0 1128.01054151 0 4458.75024091 0 2829
0.05150000 0.05149060 39973.66491003 0 233.47618414 0 7721.83246356 0 239.09088918 0 -2091.32306850 0 2784
0.05250000 0.05249300 40681.48868656 0 3.94073609 0 9936.90385596 0 537.56838430 0 -2424.33858706 0 3055
0.05350000 0.05348950 38348.60403385 0 1211.70842685 0 5230.69068921 0 -1918.07091878 0 -8278.85166988 0 3009
0.05450000 0.05448610 38109.17817328 0 2080.18358363 0 8891.12991520 0 -906.73608374 0 -5317.96310148 0 3336
0.05550000 0.05550870 35577.78362866 0 1296.60906182 0 6519.64486788 0 -2075.93461765 0 -9503.47560442 0 3349
0.05650000 0.05647670 35281.48007539 0 990.81727527 0 6333.13999095 0 1542.12735509 0 -8576.15564107 0 3324
0.05750000 0.05747970 33859.20053840 0 738.88169450 0 5564.79655088 0 843.83003005 0 -7736.41158756 0 3639
0.05850000 0.05849280 32776.05143396 0 534.30522339 0 3327.35626353 0 3054.24217272 0 -8640.53084780 0 3846
0.05950000 0.05951020 32326.20059171 0 535.62037953 0 2949.34442010 0 2126.96717197 0 -5113.09100126 0 3787
0.06050000 0.06049470 32214.01889741 0 38.04937791 0 3460.87271291 0 2081.38633325 0 -4065.05768970 0 3930
0.06150000 0.06148310 31346.46547399 0 13.92806551 0 1334.66990519 0 1470.37828147 0 -1338.51420774 0 4083
0.06250000 0.06249100 31940.53386513 0 345.05200736 0 4426.66942372 0 -313.28030807 0 1090.32063960 0 4303
0.06350000 0.06350600 32179.51009967 0 269.51483445 0 6327.44098103 0 -2378.52169468 0 3150.87804705 0 4470
0.06450000 0.06451750 32439.84357060 0 923.97249757 0 11100.61470418 0 -3869.17811007 0 5063.16003071 0 4479
0.06550000 0.06550280 32109.93047164 0 779.97301731 0 13177.75207146 0 -3564.20801508 0 5663.90536838 0 4636
0.06650000 0.06648880 32626.32596622 0 673.13175618 0 15683.51793242 0 -2859.52038011 0 3955.87724915 0 4653
0.06750000 0.06749660 32429.38976542 0 563.37242212 0 17234.27810726 0 -1209.46029670 0 4618.70470081 0 5220
0.06850000 0.06852730 32067.21599886 0 -141.02745220 0 17236.75105042 0 2143.01882121 0 3458.89435839 0 5029
0.06950000 0.06949320 31735.16717627 0 -238.94026446 0 14037.21222635 0 3956.33811583 0 1527.48078718 0 5040
0.07050000 0.07048030 32044.73469740 0 351.60193454 0 13932.22454853 0 2958.43810654 0 1049.72165729 0 5475
0.07150000 0.07148790 30797.92171832 0 548.92593780 0 9738.02302257 0 4372.81546607 0 -502.92469875 0 5509
0.07250000 0.07249820 30057.83727419 0 995.69122143 0 10114.71970987 0 2051.98079094 0 3903.40589154 0 5916
0.07350000 0.07351270 29067.76075781 0 914.31902672 0 7485.63266975 0 570.32588866 0 2207.54015641 0 5721
0.07450000 0.07449140 28405.01199071 0 559.94739584 0 8948.50219653 0 1255.64813056 0 3566.70343955 0 6028
0.07550000 0.07549160 28377.92202245 0 195.08261750 0 7743.85289834 0 -208.40953301 0 4307.56348858 0 6183
0.07650000 0.07648840 28208.86263545 0 278.93899602 0 7511.26135342 0 -17.34556055 0 1685.68170557 0 6330
0.07750000 0.07749960 27616.70515494 0 483.08045395 0 8777.41949240 0 -672.79453666 0 2641.83393805 0 6583
0.07850000 0.07848650 27078.39039144 0 992.05374685 0 7492.74800166 0 -1549.52370327 0 -143.02379177 0 6549
0.07950000 0.07947320 26551.20387215 0 926.67587407 0 9322.53484960 0 -1437.62302524 0 372.07790391 0 6828
0.08050000 0.08048110 26207.46477280 0 707.95416808 0 10914.75054435 0 -1154.98810326 0 -150.85852533 0 7147
0.08150000 0.08149960 25652.73865922 0 498.24633991 0 11067.71331949 0 192.30168051 0 -735.42744253 0 7386
0.08250000 0.08250610 25578.32555138 0 218.76329640 0 11932.85000301 0 898.54839374 0 138.97266125 0 7227
0.08350000 0.08350160 25185.80202786 0 533.31604613 0 11605.29744070 0 286.29712599 0 -142.59664704 0 7798
0.08450000 0.08449610 24924.68171138 0 681.48805593 0 12026.48462359 0 2036.95204092 0 1921.11713513 0 7371
0.08550000 0.08548940 23804.66327254 0 729.83971505 0 10170.13611797 0 1691.90902608 0 538.42941814 0 8256
0.08650000 0.08650700 23275.56584263 0 520.07680770 0 8731.40026831 0 1972.20589270 0 2469.69461276 0 8037
0.08750000 0.08749060 22191.18026662 0 450.02844454 0 7676.09425573 0 966.97248287 0 -607.56504047 0 8155
0.08850000 0.08849210 21941.75022689 0 566.26464155 0 7615.41722309 0 -75.86562473 0 661.84614285 0 8718
0.08950000 0.08949900 21344.64686006 0 499.86611768 0 7932.06635418 0 -935.46044261 0 -1392.64918167 0 8571
0.09050000 0.09049190 21299.57185063 0 483.47837298 0 8721.24996070 0 -1723.32664487 0 -727.32742961 0 8932
0.09150000 0.09150830 20820.83253600 0 277.22254865 0 8813.97408858 0 -1444.80580106 0 -1515.72306652 0 9285
0.09250000 0.09250820 21501.34153125 0 114.37137306 0 9587.19597107 0 -374.70371992 0 -2487.85950434 0 9204
0.09350000 0.09350330 20962.68954823 0 140.09785039 0 9902.73227773 0 618.33358387 0 -1759.81379714 0 9349
0.09450000 0.09448040 20843.53865048 0 152.83350766 0 8476.03516501 0 1651.03802002 0 -3230.25952252 0 9564
0.09550000 0.09549270 20725.39941129 0 118.29436016 0 7670.86735314 0 1664.49307894 0 -1831.47294555 0 10155
0.09650000 0.09649430 19943.49974645 0 111.22826230 0 5862.84240502 0 1817.81555491 0 -3366.84466955 0 9913
0.09750000 0.09749140 20196.86401392 0 65.41260639 0 4846.60889438 0 1256.46869806 0 -2185.48599967 0 10476
0.09850000 0.09850240 19795.01075029 0 214.42328115 0 4540.02014569 0 -95.75089790 0 -3613.97037587 0 10575
0.09950000 0.09950330 19787.36710779 0 513.46393287 0 4850.64428799 0 -835.71652835 0 -2156.57504599 0 10882
0.10050000 0.10051200 19260.51780803 0 877.24286435 0 5259.56792094 0 -1337.71612154 0 -3090.15605181 0 10875
0.10150000 0.10150300 18442.08602831 0 989.97759866 0 5852.09634292 0 -1303.73563438 0 -3168.50338740 0 11118
0.10250000 0.10250800 17630.62345204 0 849.01421817 0 6543.47504743 0 -318.78597880 0 -2799.33793609 0 11575
0.10350000 0.10349800 17018.90723926 0 448.37719294 0 7030.53244360 0 752.92801165 0 -3689.91221221 0 11364
0.10450000 0.10450100 16723.95256408 0 230.15344778 0 6339.77197488 0 1190.59848478 0 -2475.35990073 0 12093
0.10550000 0.10551000 16666.96246487 0 -132.76444985 0 5645.53814509 0 1685.91775924 0 -2845.03118132 0 12067
0.10650000 0.10649700 16718.10742570 0 -211.31299309 0 4795.49765551 0 1323.54166097 0 -2323.27389633 0 12054
0.10750000 0.10749900 17168.29548747 0 -137.07861160 0 4605.19343863 0 932.54124562 0 -2545.53528324 0 12807
0.10850000 0.10850100 16965.96377431 0 3.64252163 0 3456.07295505 0 -342.83535103 0 -2072.94460456 0 12736
0.10950000 0.10950300 16955.06034311 0 338.57851660 0 3920.26686764 0 -367.81207696 0 -1526.69394163 0 12933
0.11050000 0.11050200 16719.23149077 0 300.82117080 0 4470.32811116 0 -728.67518364 0 -1690.18920651 0 13428
0.11150000 0.11150900 16278.14835608 0 376.92262438 0 4651.72973266 0 29.57977240 0 -1673.89026295 0 13453
0.11250000 0.11250000 16324.68465011 0 139.39868191 0 4770.13874746 0 314.46057639 0 -2665.88893062 0 13668
0.11350000 0.11349100 15780.86196775 0 308.84249916 0 4711.50751324 0 119.83770151 0 -2167.65832762 0 13791
0.11450000 0.11448600 15757.03178820 0 464.13883340 0 4993.16449861 0 109.70650300 0 -2051.83466248 0 14205
0.11550000 0.11549300 14976.25618842 0 567.71356143 0 5132.45864247 0 -298.05147446 0 -1620.66578174 0 14776
0.11650000 0.11649800 14718.73288017 0 519.32031190 0 5196.06948496 0 -58.26501381 0 -985.07667494 0 14553
0.11750000 0.11747300 14523.81999650 0 161.94293102 0 6213.48326392 0 307.63637734 0 -634.89106239 0 14568
0.11850000 0.11849100 14322.83716143 0 62.20857131 0 5473.63487346 0 144.93133020 0 326.06092795 0 16015
0.11950000 0.11950300 14797.86706132 0 -233.76506886 0 6395.95274724 0 742.34943525 0 -90.91427071 0 15270
0.12050000 0.12050700 14769.99024751 0 -196.97666715 0 5213.54869684 0 1137.07050599 0 807.71719145 0 15999
0.12150000 0.12150000 14778.42073556 0 115.74835277 0 5688.24137721 0 481.19989308 0 282.81814459 0 15670
0.12250000 0.12250700 14833.27511112 0 -18.16466677 0 4396.89293993 0 451.97982150 0 484.62716749 0 16887
0.12350000 0.12352200 14495.49355666 0 293.17303204 0 4463.41511096 0 66.09536352 0 -75.51221867 0 16407
0.12450000 0.12449800 14413.66161934 0 374.35525975 0 4424.14027731 0 -339.34625305 0 213.12498599 0 16306
0.12550000 0.12549900 13970.66757403 0 288.89371631 0 4538.74995216 0 -276.93029173 0 -38.94907960 0 17523
0.12650000 0.12650100 13866.57914826 0 128.00515833 0 4454.68112534 0 -427.61683511 0 -303.74373999 0 17154
0.12750000 0.12750600 13962.79911852 0 257.75711378 0 4776.53467772 0 27.22665457 0 -92.25438109 0 18007
0.12850000 0.12850300 13739.67220151 0 34.45236968 0 5016.99467816 0 350.82970183 0 187.91782673 0 17496
0.12950000 0.12949900 13908.95640151 0 -4.81104348 0 5291.92975439 0 12.23825848 0 -18.05023694 0 18405
0.13050000 0.13049000 13822.51579739 0 -7.66369582 0 5033.57463799 0 145.50235526 0 -561.42554141 0 18100
0.13150000 0.13148800 13752.48654334 0 268.88648207 0 5089.09221195 0 -80.91076599 0 236.12223332 0 19059
0.13250000 0.13249300 13694.59719207 0 156.22031573 0 5047.29947253 0 123.94278716 0 -252.06484825 0 18957
0.13350000 0.13349100 13335.34599471 0 193.03569500 0 4918.06571108 0 623.87747281 0 752.84707897 0 19468
0.13450000 0.13450700 13213.38493428 0 157.23197429 0 4284.32906351 0 1186.99023589 0 53.25359450 0 19953
0.13550000 0.13551000 13057.92673467 0 183.19900155 0 4274.75202909 0 1310.21024920 0 844.21333624 0 19956
0.13650000 0.13649900 12610.99846161 0 406.59457011 0 3770.41775274 0 585.69523040 0 1214.99069686 0 19723
0.13750000 0.13749600 12403.49604911 0 387.83954437 0 3965.12830471 0 28.14692665 0 1465.39867320 0 20946
0.13850000 0.13851100 12130.46064286 0 267.22511389 0 3937.15032504 0 -366.69588034 0 2200.99809768 0 20955
0.13950000 0.13949800 11847.19624444 0 145.60914144 0 4708.33764974 0 -521.37397879 0 1611.44844814 0 20506
0.14050000 0.14048300 11863.94481402 0 4.28893773 0 3999.73826831 0 -373.51221094 0 1533.65190443 0 21447
0.14150000 0.14148400 11850.00640712 0 20.41987852 0 4468.41720054 0 -14.38409871 0 292.46824324 0 21771
0.14250000 0.14249400 11920.03566117 0 206.23334303 0 3971.36686586 0 209.05587043 0 219.52990878 0 22470
0.14350000 0.14350900 11468.49872131 0 206.56157003 0 3442.61789613 0 276.31767627 0 -627.03721973 0 22519
0.14450000 0.14449900 11512.33725916 0 178.19016758 0 3175.68616322 0 216.00708884 0 -395.57311207 0 22218
0.14550000 0.14550500 11285.83814693 0 107.40396811 0 2928.51549429 0 431.66346937 0 -703.73555186 0 23559
0.14650000 0.14650700 11290.67162674 0 -68.28211971 0 2932.95555133 0 227.33092038 0 -598.11165320 0 23044
0.14750000 0.14750500 11264.48091054 0 -74.59655526 0 2609.07868182 0 317.49892429 0 -105.36603813 0 23649
0.14850000 0.14849900 11384.19384083 0 -60.08689848 0 2316.12484247 0 236.75283383 0 -651.86556906 0 23640
0.14950000 0.14949500 11356.99146606 0 30.89863795 0 2415.32358517 0 254.71988995 0 -315.90724814 0 24457
0.15050000 0.15050000 11191.14690517 0 226.85206866 0 2145.03089769 0 105.35120047 0 -711.73102672 0 24591
0.15150000 0.15149900 10900.55360247 0 364.03859051 0 1946.03765780 0 -160.03764072 0 -599.50549389 0 25020
0.15250000 0.15250500 10525.07090546 0 458.11047241 0 2006.18637986 0 -124.80382100 0 -690.52216693 0 25297
0.15350000 0.15350100 10209.95050286 0 401.76558656 0 2288.65269208 0 22.24524780 0 -353.46226224 0 25452
0.15450000 0.15450400 10061.34910020 0 134.31790778 0 2181.54053127 0 196.79569267 0 -382.78799593 0 26061
0.15550000 0.15549900 9901.94543218 0 122.94461737 0 2657.40223931 0 -69.11021845 0 -371.97224179 0 26128
0.15650000 0.15649500 10110.07732112 0 123.44707446 0 2792.69471151 0 -334.39587047 0 171.96734334 0 26331
0.15750000 0.15749700 9749.73578064 0 75.94262318 0 3135.21982059 0 -16.21351461 0 -75.11452444 0 27345
0.15850000 0.15849900 9982.81067354 0 136.05908458 0 3127.29516182 0 -16.64346950 0 797.71863262 0 26980
0.15950000 0.15949700 9887.66980576 0 77.69155603 0 3253.35905977 0 300.89086283 0 471.27102629 0 27777
0.16050000 0.16050000 9670.34306452 0 91.51384702 0 2748.84493301 0 478.85059708 0 748.06530615 0 28224
0.16150000 0.16150500 9622.30052330 0 106.55754711 0 2795.39246769 0 375.89522890 0 415.33080386 0 28075
0.16250000 0.16249700 9486.12003969 0 74.68018570 0 2496.05393872 0 281.42542796 0 611.82187490 0 28590
0.16350000 0.16349900 9458.35563239 0 100.12148772 0 2912.62121416 0 35.23494378 0 752.33338123 0 29163
0.16450000 0.16449100 9511.67003880 0 52.78418492 0 2484.58847498 0 -145.22920744 0 663.67274859 0 28996
0.16550000 0.16550500 9476.35191421 0 76.95428175 0 3035.32415754 0 -82.25604707 0 1032.70218802 0 30777
0.16650000 0.16650700 9549.31497810 0 101.03996129 0 2918.24153953 0 -98.05545612 0 893.81270759 0 29211
0.16750000 0.16749900 9351.04113986 0 139.89664274 0 3261.94691693 0 88.54451672 0 938.97764223 0 30922
0.16850000 0.16850800 9346.19641939 0 179.37718030 0 3073.94703345 0 203.37259742 0 957.85631513 0 30867
0.16950000 0.16949900 9096.00201542 0 177.21223097 0 2898.31186578 0 162.28239867 0 1006.23382775 0 30852
0.17050000 0.17049200 9107.70353283 0 150.39316239 0 2829.71017437 0 77.45516515 0 618.15710565 0 31257
0.17150000 0.17149500 8809.91621367 0 33.31818802 0 2588.49705033 0 219.43773544 0 292.14226437 0 32608
0.17250000 0.17250900 8770.25919789 0 36.63462961 0 2465.72666305 0 64.90183122 0 408.93487359 0 32361
0.17350000 0.17350400 8758.43403332 0 65.47353072 0 2230.29123349 0 -127.44424986 0 -259.02505918 0 32508
0.17450000 0.17449800 8723.30699979 0 238.67386104 0 2389.24527548 0 -104.56660305 0 -123.60107137 0 32791
0.17550000 0.17549800 8380.66948420 0 265.99426264 0 2244.80291358 0 -163.91454115 0 -666.29182021 0 33633
0.17650000 0.17650100 8268.91493464 0 241.05238273 0 2261.09061649 0 107.56988011 0 -401.66891696 0 33984
0.17750000 0.17750300 8009.68304748 0 157.76815333 0 2112.35432602 0 230.47830259 0 -428.62399741 0 34069
