### header ###
fiducial parameters:
Omega_m = 0.31
Omega_nu = 0
Omega_de = 0.69
Omega_k = 0
H_0 = 100
w_de = -1
zeff = 0
beta = 0
fgrowth = 0
b_1 = 2
gamma = 0.55
Lx = 3500 Ly = 3500 Lz = 3500
nx = 700 ny = 700 nz = 700
xoffset = 857.220397 yoffset = 15.9954215 zoffset = 262.898189
bins = 400 dk = 0.001
kx_ny = 0.628318531 ky_ny = 0.628318531 kz_ny = 0.628318531
############################
A(data) = 3.02945466 (not used)
A(ran) = 3.02873675 (used)
Ngal = 185156
weighted Ngal = 0
Nran = 9360983
weighted Nran = 0
SN(data) = 3446.31109
SN(ran) = 68.0140448
SN(data+ran) = 3514.32514
############################
13 columns: k_central k_mean P_0(k) sigma^{lin}_{P_0(k)} P^img_1(k) sigma^{lin}_{P_1(k)} P_2(k) sigma^{lin}_{P_2(k)} P^img_3(k) sigma^{lin}_{P_3(k)} P_4(k) sigma^{lin}_{P_4(k)} N_modes
### header ###
0.00050000 0 0 0 0 0 0 0 0 0 0 0 0
0.00150000 0.00179520 84416.50014419 0 -82209.39837316 0 -49658.83439287 0 149013.93454553 0 -148590.16201297 0 3
0.00250000 0.00253879 145484.37021600 0 -78562.93127603 0 -11039.85898698 0 -89769.07320928 0 101550.06202091 0 6
0.00350000 0.00331552 155156.95017002 0 -11847.08383793 0 -19546.47996263 0 -96797.62729835 0 38168.19158962 0 7
0.00450000 0.00420575 150722.51345664 0 39577.99400430 0 -1500.55942868 0 -90885.04501385 0 49734.14675276 0 24
0.00550000 0.00557378 92219.64747514 0 36522.78513561 0 42890.83858774 0 -17347.13424060 0 46494.70361860 0 45
0.00650000 0.00659388 67127.59247438 0 23649.09266642 0 43992.19754636 0 36275.82803905 0 -12267.70898828 0 40
0.00750000 0.00754703 68022.12345955 0 -6598.37438560 0 69661.68477517 0 35155.47238070 0 -22298.97810713 0 57
0.00850000 0.00846663 77649.62840414 0 -5603.25081704 0 91886.92421350 0 8912.66700200 0 -9543.72837469 0 75
0.00950000 0.00948925 82625.41485672 0 6058.21615537 0 94526.79103767 0 -5919.38287819 0 23127.52647251 0 112
0.01050000 0.01054430 84771.36748777 0 2895.10828032 0 108436.19706522 0 45.52688359 0 20272.62599985 0 105
0.01150000 0.01145670 93335.50687320 0 -657.47577784 0 124582.38018172 0 13812.28680523 0 25039.33634883 0 144
0.01250000 0.01249090 99077.79329913 0 -300.91334413 0 122731.04500633 0 25171.41399492 0 -8184.14918747 0 169
0.01350000 0.01339930 100594.60670877 0 5105.08765794 0 125752.53192282 0 21087.91039737 0 10303.07929417 0 180
0.01450000 0.01448870 94030.85352742 0 12474.87418125 0 100892.03432711 0 25016.06820182 0 10892.79755347 0 267
0.01550000 0.01550050 90773.31294558 0 7754.00320595 0 119993.94655333 0 33246.80988657 0 -12729.02529428 0 238
0.01650000 0.01653350 79633.71566466 0 3116.99872575 0 71626.10089692 0 35413.33290847 0 -9109.97414428 0 315
0.01750000 0.01747870 77479.10773255 0 -738.38822993 0 62243.64213827 0 30781.62277476 0 -28357.46403812 0 297
0.01850000 0.01844180 74760.66875976 0 981.46392980 0 38139.97755628 0 14960.96890343 0 -23103.92110597 0 388
0.01950000 0.01947590 70433.58026087 0 1776.70849519 0 24584.65202677 0 10214.31187535 0 -42943.44483316 0 399
0.02050000 0.02045430 71594.17744884 0 791.58123732 0 14771.56393861 0 5793.00424203 0 -27488.33692359 0 462
0.02150000 0.02154770 63445.94214046 0 948.21071274 0 -2192.97227306 0 6195.48698210 0 -36575.16656802 0 571
0.02250000 0.02255340 67689.96223045 0 -1402.68708277 0 -11822.01718680 0 4524.55301029 0 -36837.29854307 0 510
0.02350000 0.02348930 60904.43101018 0 -1364.61499874 0 -16517.46181015 0 1596.04875664 0 -29023.24778091 0 555
0.02450000 0.02439640 62578.95074957 0 -11.60102599 0 -27229.46473726 0 364.23305377 0 -33205.44429188 0 592
0.02550000 0.02547300 63366.80795931 0 -3884.82509588 0 -26359.66318370 0 261.49013389 0 -21723.45678970 0 837
0.02650000 0.02652900 62224.42062552 0 -2862.97125988 0 -28076.89739587 0 -4476.75776338 0 -29407.45322290 0 723
0.02750000 0.02749970 65546.14532303 0 485.34207287 0 -18065.52422882 0 -8770.43904830 0 -15268.73792044 0 826
0.02850000 0.02848090 66272.96579930 0 1645.08047513 0 -10535.00764070 0 -17404.57396584 0 -16927.97037484 0 831
0.02950000 0.02946900 64651.16471183 0 4910.33214337 0 5499.93799617 0 -18240.54116070 0 -3457.61292420 0 996
0.03050000 0.03053250 64269.31980650 0 2174.58256847 0 17740.44460968 0 -7504.16850280 0 -4368.17307732 0 1041
0.03150000 0.03150510 63159.19314031 0 2677.34315371 0 28953.66815289 0 -6442.97238924 0 -2290.94578483 0 1036
0.03250000 0.03246190 61217.37072653 0 2840.64732753 0 25748.50900345 0 3930.90052323 0 -2541.71346199 0 1059
0.03350000 0.03345080 61674.41558525 0 626.66515419 0 28079.81996506 0 3775.89194965 0 -4811.44813889 0 1302
0.03450000 0.03451200 61155.54714751 0 -1443.41196037 0 19973.17506438 0 5537.23447529 0 -4758.34730484 0 1339
0.03550000 0.03553350 62195.30734013 0 -1598.61162501 0 20139.53669519 0 5063.05886486 0 -14915.55667447 0 1365
0.03650000 0.03647120 63577.23294099 0 -565.15631339 0 10411.04574444 0 1914.02428452 0 -7020.34841404 0 1308
0.03750000 0.03744890 61706.00181381 0 800.20618863 0 7062.41092908 0 5298.68538548 0 -8197.85154071 0 1579
0.03850000 0.03847530 60665.79199516 0 1971.77874798 0 13672.22829712 0 1533.95540200 0 -4642.07401368 0 1662
0.03950000 0.03950240 56856.33546243 0 3682.61702988 0 10346.70425966 0 -689.24185681 0 -6109.85570483 0 1683
0.04050000 0.04050350 55253.19385517 0 5474.47792226 0 18850.90849539 0 285.92056419 0 1297.59823908 0 1822
0.04150000 0.04152450 49341.28600971 0 5942.40373089 0 18377.45228660 0 -3946.09788302 0 14042.27051918 0 1887
0.04250000 0.04250150 46662.86375353 0 4222.53920645 0 25230.42741126 0 4010.55177431 0 13619.39723868 0 1920
0.04350000 0.04349210 44345.26638582 0 2554.46035992 0 28030.69832137 0 5346.19961612 0 18311.02004078 0 2005
0.04450000 0.04448520 42003.72643205 0 1019.69225887 0 24540.13904987 0 7416.50266775 0 15848.75549816 0 2151
0.04550000 0.04548030 42027.33179858 0 595.96244078 0 25074.96921165 0 6437.31834193 0 20889.51291197 0 2274
0.04650000 0.04648670 41803.53044253 0 193.73823567 0 24045.32560469 0 4647.75054230 0 22468.93674618 0 2311
0.04750000 0.04749250 41452.03529417 0 -310.74216913 0 21081.16600693 0 4079.82790477 0 19505.33918095 0 2568
0.04850000 0.04851840 42077.12788132 0 -723.99457667 0 20942.23156389 0 4559.36530560 0 20919.63785593 0 2493
0.04950000 0.04949480 41768.68442526 0 -767.69935078 0 14108.70276500 0 3937.24025024 0 13080.40803613 0 2644
0.05050000 0.05050630 42948.39071948 0 -103.55584374 0 13459.55518529 0 1381.01510816 0 11901.03896144 0 2829
0.05150000 0.05149060 41558.03463056 0 1034.78845280 0 11379.24795450 0 -2161.07130629 0 6216.04613229 0 2784
0.05250000 0.05249300 41294.44137092 0 1530.87546370 0 13108.95928899 0 -1620.59833784 0 2612.72065266 0 3055
0.05350000 0.05348950 38681.21488898 0 2764.96402616 0 10595.20132537 0 -3802.52105123 0 970.76170623 0 3009
0.05450000 0.05448610 36613.49718701 0 2254.72840818 0 11539.20241441 0 -1253.15270609 0 -4200.02418303 0 3336
0.05550000 0.05550870 35321.60919850 0 1937.40483804 0 12941.13637358 0 -775.33737295 0 -5497.37512780 0 3349
0.05650000 0.05647670 33945.97836204 0 649.27347500 0 12783.76726334 0 -459.56613668 0 -7224.22009635 0 3324
0.05750000 0.05747970 34054.00101557 0 32.57990208 0 15908.89297957 0 -1149.27785269 0 -1968.88990074 0 3639
0.05850000 0.05849280 35543.05001790 0 -890.72152864 0 17419.74884432 0 -11.85225454 0 -201.55273606 0 3846
0.05950000 0.05951020 36511.20726536 0 -805.90070229 0 18731.42037812 0 225.95956099 0 2046.32674362 0 3787
0.06050000 0.06049470 37267.81546606 0 -227.71085438 0 19051.66651745 0 2929.96553824 0 3777.64549116 0 3930
0.06150000 0.06148310 36283.58408806 0 1035.45614745 0 18634.97559485 0 2015.67348908 0 3011.44901539 0 4083
0.06250000 0.06249100 35641.85533783 0 1716.31247881 0 17212.58365135 0 3863.17560258 0 2695.60921115 0 4303
0.06350000 0.06350600 33290.53601792 0 1412.19667329 0 15046.51025549 0 2004.03941557 0 2413.53632170 0 4470
0.06450000 0.06451750 31832.28639859 0 856.86131644 0 11552.01675624 0 3662.40633987 0 1234.69555759 0 4479
0.06550000 0.06550280 30467.89621286 0 -307.64312173 0 8492.76125329 0 4303.71918603 0 -1453.50606472 0 4636
0.06650000 0.06648880 30933.48396614 0 261.46990072 0 7114.89352734 0 1944.92483338 0 -4005.83070100 0 4653
0.06750000 0.06749660 30143.37862626 0 860.74271314 0 5344.92942259 0 578.03360287 0 -4545.88776537 0 5220
0.06850000 0.06852730 28532.36856349 0 1385.71370016 0 5724.98706445 0 -613.03586518 0 -2937.66538399 0 5029
0.06950000 0.06949320 27108.06570937 0 1341.42553628 0 6207.31214667 0 -671.50298589 0 -1707.58973385 0 5040
0.07050000 0.07048030 26874.93461320 0 36.51502909 0 5376.51565114 0 1084.18998870 0 -480.27029126 0 5475
0.07150000 0.07148790 26699.24324228 0 -287.93488880 0 7338.85225250 0 1295.94586343 0 -1537.55241024 0 5509
0.07250000 0.07249820 27442.02544258 0 -553.13443743 0 5383.04646922 0 13.84038843 0 846.35243207 0 5916
0.07350000 0.07351270 28308.56720744 0 -300.01858834 0 6433.80001825 0 577.47494252 0 -697.81397705 0 5721
0.07450000 0.07449140 28307.33073585 0 118.70576798 0 6482.68560828 0 -398.84189330 0 1602.98423814 0 6028
0.07550000 0.07549160 27772.61298058 0 777.13700113 0 6319.74113528 0 -687.52316131 0 2288.28175061 0 6183
0.07650000 0.07648840 27704.71945017 0 439.07330633 0 7718.16801142 0 452.31366883 0 2367.70818867 0 6330
0.07750000 0.07749960 27217.77446050 0 356.68720493 0 7429.78911692 0 1036.58920505 0 2642.09247302 0 6583
0.07850000 0.07848650 26821.54152223 0 112.54813951 0 7372.58544535 0 559.24822736 0 5110.64053940 0 6549
0.07950000 0.07947320 26900.22607735 0 628.65025311 0 8149.62914908 0 1394.50388904 0 5228.01541433 0 6828
0.08050000 0.08048110 26326.61567055 0 913.68168182 0 8309.16770490 0 -82.08968544 0 4392.09318207 0 7147
0.08150000 0.08149960 25171.63880794 0 890.85866458 0 8139.50132277 0 -274.94182062 0 5396.98487612 0 7386
0.08250000 0.08250610 24627.92853208 0 814.12885862 0 7803.69812283 0 357.66289341 0 3909.45336164 0 7227
0.08350000 0.08350160 23964.73013895 0 493.68600791 0 8437.82819317 0 941.05716261 0 3736.57215339 0 7798
0.08450000 0.08449610 23504.31308501 0 279.68649929 0 7139.75784676 0 -61.38058498 0 4162.77266651 0 7371
0.08550000 0.08548940 23239.48335379 0 -4.21300713 0 5943.67392442 0 1478.48279065 0 200.38370839 0 8256
0.08650000 0.08650700 23020.17825803 0 351.71096885 0 6105.53929495 0 -30.03074731 0 1399.80947618 0 8037
0.08750000 0.08749060 22794.57839785 0 705.10129092 0 5303.39521814 0 -635.29572582 0 -293.88568930 0 8155
0.08850000 0.08849210 22098.78211761 0 819.15230544 0 6881.04302953 0 -800.35568928 0 1518.92665198 0 8718
0.08950000 0.08949900 21288.10638689 0 1063.87588469 0 6158.50524119 0 -1431.33950148 0 -981.36501207 0 8571
0.09050000 0.09049190 20920.42470148 0 846.75372331 0 7894.71367180 0 -414.47651440 0 1145.72580706 0 8932
0.09150000 0.09150830 20129.64492255 0 727.20715465 0 7295.84552281 0 37.89302046 0 -965.10878298 0 9285
0.09250000 0.09250820 19726.89240686 0 502.33006832 0 7312.54912979 0 408.73591408 0 148.69582413 0 9204
0.09350000 0.09350330 19556.93376781 0 75.30977455 0 7718.75252526 0 724.61618466 0 -37.20610429 0 9349
0.09450000 0.09448040 19076.62076207 0 65.52062905 0 5431.69600558 0 1269.93499764 0 -1357.05004080 0 9564
0.09550000 0.09549270 19177.56180564 0 51.62977009 0 6710.15141647 0 1036.99724067 0 -160.43331162 0 10155
0.09650000 0.09649430 18758.51034639 0 251.55452271 0 4496.82232493 0 288.82290021 0 -2126.79856221 0 9913
0.09750000 0.09749140 18576.41180454 0 532.63935895 0 5772.32144468 0 -108.48475668 0 -1220.30752466 0 10476
0.09850000 0.09850240 18041.69404927 0 680.86644795 0 5326.59592124 0 -980.65685107 0 -1297.99166186 0 10575
0.09950000 0.09950330 17805.97760344 0 612.13324092 0 6467.81422736 0 -769.62487425 0 89.40375206 0 10882
0.10050000 0.10051200 17197.97080540 0 607.42116014 0 6742.56945318 0 -198.41996670 0 353.05984694 0 10875
0.10150000 0.10150300 17051.16790686 0 354.78416276 0 6702.36164551 0 767.80726103 0 1227.46781917 0 11118
0.10250000 0.10250800 16519.82234680 0 233.39300332 0 6434.35081013 0 1629.83815274 0 1097.67427331 0 11575
0.10350000 0.10349800 16522.63250948 0 -11.56055965 0 6069.52425001 0 1624.15038347 0 1658.42312755 0 11364
0.10450000 0.10450100 16325.47149566 0 -22.12497283 0 5788.78899800 0 1219.12725633 0 1426.44981841 0 12093
0.10550000 0.10551000 16644.70597642 0 28.08791323 0 4796.18333520 0 609.39501840 0 1551.64818626 0 12067
0.10650000 0.10649700 16278.26076259 0 273.28944496 0 4724.40053963 0 -686.47328453 0 1575.35471865 0 12054
0.10750000 0.10749900 16173.38549127 0 187.60646070 0 5409.92286511 0 -853.95336010 0 1718.27959269 0 12807
0.10850000 0.10850100 15938.56829750 0 332.28038000 0 5012.28484550 0 -444.46544649 0 1251.05070441 0 12736
0.10950000 0.10950300 15977.79816855 0 348.83785853 0 6026.56248291 0 -18.14263509 0 999.16345844 0 12933
0.11050000 0.11050200 15385.52828154 0 234.47210579 0 4948.23561764 0 91.55925924 0 264.24634145 0 13428
0.11150000 0.11150900 15376.87298047 0 226.43279239 0 6371.83031077 0 383.25560700 0 911.48975493 0 13453
0.11250000 0.11250000 15094.84505363 0 176.19382801 0 4915.71641507 0 -26.54052525 0 -210.05853647 0 13668
0.11350000 0.11349100 15211.52300822 0 21.27000894 0 5811.56255638 0 181.32518507 0 562.23486826 0 13791
0.11450000 0.11448600 15170.83185257 0 68.08023762 0 5448.45581582 0 289.50857990 0 351.83911227 0 14205
0.11550000 0.11549300 15115.52785098 0 -18.28550376 0 5367.11846713 0 692.71859008 0 214.62224067 0 14776
0.11650000 0.11649800 15196.68534926 0 8.26797072 0 4972.03207524 0 897.09722573 0 409.86897167 0 14553
0.11750000 0.11747300 15155.43216107 0 -91.57690707 0 4683.42836772 0 1115.61884814 0 194.54081814 0 14568
0.11850000 0.11849100 15244.57052137 0 -55.85917734 0 4438.64071675 0 691.96434241 0 821.04972728 0 16015
0.11950000 0.11950300 15163.75024261 0 49.48224377 0 3928.85472480 0 457.92724980 0 541.66672556 0 15270
0.12050000 0.12050700 15152.17237236 0 206.89878955 0 4019.37568513 0 12.84705213 0 1259.59359896 0 15999
0.12150000 0.12150000 14854.74475402 0 347.31475035 0 3394.86761182 0 -228.17958951 0 974.47786537 0 15670
0.12250000 0.12250700 14586.20560806 0 423.62640410 0 3677.15407363 0 -122.58941281 0 1414.50100669 0 16887
0.12350000 0.12352200 14270.68054204 0 393.56665591 0 3679.66073874 0 -216.58598235 0 983.73791344 0 16407
0.12450000 0.12449800 13847.47004202 0 398.11349913 0 3674.18654184 0 294.92657355 0 939.91736063 0 16306
0.12550000 0.12549900 13669.98016697 0 233.92805830 0 4155.32011507 0 -96.78852237 0 1028.57012481 0 17523
0.12650000 0.12650100 13257.89791117 0 329.96030969 0 3861.08484154 0 12.62651056 0 712.15817145 0 17154
0.12750000 0.12750600 13225.74965008 0 230.39736990 0 4759.92099594 0 98.27352474 0 1219.12725633 0 18007
0.12850000 0.12850300 12862.11459894 0 85.52359183 0 4101.12893790 0 -67.73177745 0 909.08987600 0 17496
0.12950000 0.12949900 13194.72545407 0 47.51737802 0 4815.19127559 0 -53.13792820 0 1456.72089083 0 18405
0.13050000 0.13049000 13069.84182445 0 -57.61777714 0 4748.01714682 0 407.93895194 0 697.08333476 0 18100
0.13150000 0.13148800 12947.54354449 0 40.47657162 0 4644.31090317 0 391.31065731 0 1245.09315952 0 19059
0.13250000 0.13249300 12948.10557703 0 163.67174310 0 4196.78687562 0 402.76263228 0 742.51804501 0 18957
0.13350000 0.13349100 12746.56070942 0 230.83463122 0 4321.22087921 0 125.57268151 0 428.41492131 0 19468
0.13450000 0.13450700 12499.26639334 0 342.63414339 0 4031.89777005 0 -76.57176241 0 688.78661045 0 19953
0.13550000 0.13551000 12170.47735946 0 155.61332059 0 3952.25775962 0 -73.63154539 0 210.95891259 0 19956
0.13650000 0.13649900 12227.35505216 0 25.27314188 0 3605.84338539 0 32.02292783 0 343.80317106 0 19723
0.13750000 0.13749600 12418.67092760 0 -235.00828483 0 3519.06556175 0 338.76061514 0 -305.41859695 0 20946
0.13850000 0.13851100 12427.10141565 0 -186.78476913 0 2980.32365351 0 407.44885957 0 -513.57746344 0 20955
0.13950000 0.13949800 12831.98965498 0 -147.32671287 0 2849.77473592 0 555.58939555 0 -317.91370430 0 20506
0.14050000 0.14048300 12500.95249095 0 190.92582486 0 2334.01995843 0 169.53936278 0 -891.77477761 0 21447
0.14150000 0.14148400 12394.61593503 0 415.82426843 0 2301.06237049 0 -41.13785911 0 -663.12757703 0 21771
0.14250000 0.14249400 11833.14543102 0 593.59291161 0 2634.15657360 0 -185.38755625 0 -620.18491904 0 22470
0.14350000 0.14350900 11362.16216539 0 521.73030742 0 2188.75702904 0 35.00833226 0 -742.62595526 0 22519
0.14450000 0.14449900 10905.62313595 0 339.05849239 0 2832.74515007 0 43.02876137 0 -190.12773866 0 22218
0.14550000 0.14550500 10697.39008116 0 164.40013727 0 2202.26829122 0 111.17756697 0 -1070.01215593 0 23559
0.14650000 0.14650700 10625.00029045 0 -4.89550573 0 2782.93782668 0 151.37559526 0 -656.46074708 0 23044
0.14750000 0.14750500 10658.75596460 0 203.67946718 0 2369.32684238 0 -396.10816704 0 -1024.08735330 0 23649
0.14850000 0.14849900 10533.82737238 0 72.97790155 0 2169.13085286 0 113.68119710 0 -734.88789130 0 23640
0.14950000 0.14949500 10466.66448426 0 245.85214059 0 2422.78737726 0 -362.18500720 0 -995.32252808 0 24457
0.15050000 0.15050000 10312.64508794 0 134.27406924 0 2192.97227306 0 47.61101264 0 -931.90952105 0 24591
0.15150000 0.15149900 10259.02718396 0 164.15621515 0 2447.87650969 0 -69.50993599 0 -666.49302786 0 25020
0.15250000 0.15250500 10180.89342072 0 157.14429722 0 2566.53281880 0 94.16911353 0 -629.13360109 0 25297
0.15350000 0.15350100 10063.40613928 0 184.56474061 0 2664.28151756 0 94.13460473 0 -670.47559041 0 25452
0.15450000 0.15450400 9978.86520514 0 127.04520676 0 2719.57427851 0 -26.69148719 0 -310.23184359 0 26061
0.15550000 0.15549900 9750.25285057 0 129.14833251 0 2784.65764624 0 263.55841362 0 -577.11411764 0 26128
0.15650000 0.15649500 9764.04512902 0 135.11936618 0 2872.27851869 0 111.03166332 0 -36.29965822 0 26331
0.15750000 0.15749700 9594.24385907 0 23.37459598 0 2504.75420239 0 232.76577501 0 -523.10279087 0 27345
0.15850000 0.15849900 9677.98670702 0 20.31702657 0 2379.06124591 0 549.89600596 0 115.55276545 0 26980
0.15950000 0.15949700 9598.18932748 0 130.52531222 0 2158.81193549 0 52.36344737 0 -464.08712641 0 27777
0.16050000 0.16050000 9529.21669459 0 225.67742066 0 2198.34530411 0 156.63284761 0 242.31358374 0 28224
0.16150000 0.16150500 9231.48557868 0 307.72180628 0 2510.58810012 0 61.75208848 0 389.41885579 0 28075
0.16250000 0.16249700 9053.66972477 0 316.45916409 0 2297.95995089 0 -44.00636077 0 572.92697524 0 28590
0.16350000 0.16349900 8852.93418402 0 219.38940064 0 2690.62960287 0 80.68055747 0 1141.07217766 0 29163
0.16450000 0.16449100 8671.21782430 0 121.46759586 0 2704.21954961 0 82.87136029 0 859.95361946 0 28996
0.16550000 0.16550500 8625.01874979 0 12.16969051 0 2599.45668480 0 402.69294024 0 1158.78744321 0 30777
0.16650000 0.16650700 8571.64814012 0 5.42934671 0 2627.10868559 0 238.49176249 0 753.23937768 0 29211
0.16750000 0.16749900 8597.32178639 0 5.32226827 0 2043.01075166 0 100.69588497 0 817.20092847 0 30922
0.16850000 0.16850800 8579.13441351 0 26.67451381 0 2263.87829787 0 113.65534361 0 325.49327509 0 30867
0.16950000 0.16949900 8529.03483320 0 58.06335654 0 1925.99557755 0 -94.06480029 0 418.88622169 0 30852
0.17050000 0.17049200 8549.62770534 0 1.83018027 0 2092.91924090 0 -200.73329262 0 21.75920206 0 31257
0.17150000 0.17149500 8591.13942849 0 78.29641545 0 2191.35361936 0 -250.86209862 0 -21.69187056 0 32608
0.17250000 0.17250900 8523.86413387 0 137.04713778 0 2287.56234896 0 -98.53655597 0 77.26710906 0 32361
0.17350000 0.17350400 8376.36431497 0 111.46251746 0 2134.62205512 0 123.34366047 0 21.81787826 0 32508
0.17450000 0.17449800 8347.02621657 0 150.02671718 0 2384.25442655 0 192.70072361 0 567.36285313 0 32791
0.17550000 0.17549800 8278.07606498 0 71.33597970 0 2090.18776278 0 592.22492441 0 266.03922524 0 33633
0.17650000 0.17650100 8162.76946978 0 104.91731135 0 2268.98155330 0 389.21202782 0 794.05755268 0 33984
0.17750000 0.17750300 8068.39296625 0 194.13952691 0 2069.16774591 0 11.61350312 0 841.09630379 0 34069
