### header ###
fiducial parameters:
Omega_m = 0.31
Omega_nu = 0
Omega_de = 0.69
Omega_k = 0
H_0 = 100
w_de = -1
zeff = 0
beta = 0
fgrowth = 0
b_1 = 2
gamma = 0.55
Lx = 3500 Ly = 3500 Lz = 3500
nx = 700 ny = 700 nz = 700
xoffset = 857.220397 yoffset = 15.9954215 zoffset = 262.898189
bins = 400 dk = 0.001
kx_ny = 0.628318531 ky_ny = 0.628318531 kz_ny = 0.628318531
############################
A(data) = 3.11294965 (not used)
A(ran) = 3.11706537 (used)
Ngal = 189619
weighted Ngal = 0
Nran = 9360983
weighted Nran = 0
SN(data) = 3434.17852
SN(ran) = 69.9975737
SN(data+ran) = 3504.1761
############################
13 columns: k_central k_mean P_0(k) sigma^{lin}_{P_0(k)} P^img_1(k) sigma^{lin}_{P_1(k)} P_2(k) sigma^{lin}_{P_2(k)} P^img_3(k) sigma^{lin}_{P_3(k)} P_4(k) sigma^{lin}_{P_4(k)} N_modes
### header ###
0.00050000 0 0 0 0 0 0 0 0 0 0 0 0
0.00150000 0.00179520 4555.02641442 0 -6909.07721245 0 -7887.63206184 0 12635.05345417 0 -26796.36246460 0 3
0.00250000 0.00253879 6684.42156694 0 -4970.22233047 0 1896.25281572 0 -6871.53343901 0 4660.03657355 0 6
0.00350000 0.00331552 16346.49151253 0 -9830.66846590 0 -12014.11990779 0 16880.42242225 0 3633.68647725 0 7
0.00450000 0.00420575 20004.42407341 0 -8789.01984396 0 -7789.35505250 0 8087.40090663 0 -4218.42512828 0 24
0.00550000 0.00557378 38696.27736096 0 -9965.83729094 0 -16667.97412344 0 12191.04775030 0 4607.43032813 0 45
0.00650000 0.00659388 36829.76730708 0 -12361.79323490 0 -13801.27096751 0 12023.78686742 0 12372.69666611 0 40
0.00750000 0.00754703 61480.51436014 0 -11166.35002966 0 -23336.93979563 0 15172.96757621 0 26356.06617546 0 57
0.00850000 0.00846663 61396.65910569 0 -10931.31926352 0 -26191.16582924 0 14370.72233354 0 20306.79757807 0 75
0.00950000 0.00948925 75735.12077163 0 -6410.13844846 0 -22434.87757446 0 12164.07018854 0 27952.91301831 0 112
0.01050000 0.01054430 72803.33424798 0 2368.27022121 0 -8381.87223383 0 -5149.26341531 0 38211.24328192 0 105
0.01150000 0.01145670 70996.06242345 0 7067.52542516 0 -2515.62391164 0 2426.17081313 0 49555.87003217 0 144
0.01250000 0.01249090 65097.98057839 0 3603.84254956 0 8001.80335132 0 4953.63112999 0 54821.77768012 0 169
0.01350000 0.01339930 66691.56763252 0 -2780.52108677 0 221.40822151 0 14736.49310833 0 50862.03364711 0 180
0.01450000 0.01448870 70339.72082726 0 -6983.56900485 0 7003.74597291 0 19421.14670698 0 44962.04089143 0 267
0.01550000 0.01550050 75008.18788886 0 -5880.65883643 0 10550.71082977 0 3305.59436372 0 17283.28734445 0 238
0.01650000 0.01653350 79309.53529758 0 -2099.62990939 0 6056.51881711 0 -4034.20210345 0 25955.67419642 0 315
0.01750000 0.01747870 82993.65857466 0 -346.65942041 0 20028.59147248 0 -16728.22401135 0 10532.21995932 0 297
0.01850000 0.01844180 83739.02612464 0 1596.13868185 0 11342.82824614 0 956.83229185 0 6465.83587283 0 388
0.01950000 0.01947590 80187.20530666 0 -1017.49695978 0 27953.36264434 0 41.29601506 0 7888.09292852 0 399
0.02050000 0.02045430 78024.27929300 0 820.02233180 0 24365.12211799 0 3375.25267630 0 15622.70601196 0 462
0.02150000 0.02154770 81692.32843954 0 817.77420166 0 24994.37374591 0 16018.93895023 0 27117.95748201 0 571
0.02250000 0.02255340 75564.93731957 0 3671.35389785 0 24019.02248198 0 14575.97661589 0 29297.63206526 0 510
0.02350000 0.02348930 77933.23002208 0 951.28278258 0 24083.99344321 0 21131.07449618 0 43235.13971963 0 555
0.02450000 0.02439640 74005.63425016 0 892.95504594 0 20874.11322047 0 14624.53622705 0 33271.20209866 0 592
0.02550000 0.02547300 74482.68746719 0 248.26663237 0 16150.90418981 0 8564.18434804 0 38922.10203414 0 837
0.02650000 0.02652900 71681.74211804 0 -499.36253653 0 10176.58825149 0 -3160.27523107 0 27054.11058586 0 723
0.02750000 0.02749970 72171.83448991 0 4336.11474143 0 13054.66694596 0 -5435.56278943 0 20407.06418259 0 826
0.02850000 0.02848090 69291.41774009 0 3116.71770948 0 14384.09870791 0 -14234.93527271 0 13693.92275303 0 831
0.02950000 0.02946900 65796.58702132 0 6867.70037711 0 13992.58684295 0 -8771.49566947 0 3209.48679997 0 996
0.03050000 0.03053250 60294.73811453 0 4551.11466796 0 17594.87818271 0 -6270.65321354 0 1436.49896017 0 1041
0.03150000 0.03150510 59119.07845457 0 2809.98283234 0 14658.14577273 0 4160.60322092 0 -8673.35354794 0 1036
0.03250000 0.03246190 59404.70338965 0 940.84696244 0 24300.82559581 0 1637.05465051 0 -5156.51363503 0 1059
0.03350000 0.03345080 60207.28585184 0 -286.62422892 0 21123.20604066 0 2437.04052238 0 -6037.09497265 0 1302
0.03450000 0.03451200 58114.61390525 0 1178.41361938 0 22330.00230314 0 -64.51728856 0 -706.61203438 0 1339
0.03550000 0.03553350 57721.07872316 0 1421.36904428 0 22612.70466903 0 1345.78690877 0 257.21306629 0 1365
0.03650000 0.03647120 56135.58493756 0 1996.13723811 0 23904.59265754 0 3487.50181450 0 6370.45895138 0 1308
0.03750000 0.03744890 56526.42236347 0 910.66581523 0 27413.58659623 0 5664.10770009 0 9234.22829746 0 1579
0.03850000 0.03847530 54010.98954289 0 1286.12153469 0 24454.26047829 0 3392.13613369 0 13160.66628235 0 1662
0.03950000 0.03950240 55172.82320245 0 -86.98543846 0 25692.53056281 0 4260.15042379 0 10402.53657184 0 1683
0.04050000 0.04050350 52824.20163871 0 775.18562417 0 25232.45072839 0 2134.76818358 0 13736.52481930 0 1822
0.04150000 0.04152450 55469.91360127 0 1168.66797520 0 30447.66304154 0 -546.37206195 0 14608.68690952 0 1887
0.04250000 0.04250150 53661.85493119 0 2086.88301146 0 26122.59785978 0 -943.18501780 0 6695.16762904 0 1920
0.04350000 0.04349210 51327.73380690 0 3125.20440079 0 30895.15334714 0 -1535.37172400 0 8652.73819450 0 2005
0.04450000 0.04448520 48762.84212310 0 2787.44532762 0 26893.48168691 0 -426.44555930 0 860.19416938 0 2151
0.04550000 0.04548030 46966.58613629 0 2056.53325449 0 24971.66763143 0 3547.30207638 0 3900.30347194 0 2274
0.04650000 0.04648670 44711.26197362 0 1618.05795077 0 18871.81610575 0 6771.44668490 0 -4908.74721162 0 2311
0.04750000 0.04749250 43456.35572601 0 357.49877991 0 17964.69559176 0 7976.62429368 0 -2539.30796273 0 2568
0.04850000 0.04851840 42591.38765226 0 154.36111210 0 11826.62585360 0 6422.87410574 0 -4134.61483643 0 2493
0.04950000 0.04949480 42857.56626157 0 396.34309664 0 12063.57877101 0 3314.87914122 0 -1365.49176950 0 2644
0.05050000 0.05050630 41433.37581396 0 781.83671720 0 8902.91011717 0 547.22522734 0 -1067.52797212 0 2829
0.05150000 0.05149060 41321.30652617 0 921.61758124 0 14223.13258945 0 -1701.81203937 0 1377.90144791 0 2784
0.05250000 0.05249300 40245.01421867 0 1303.22980510 0 10793.49764491 0 -2062.65940914 0 251.68828645 0 3055
0.05350000 0.05348950 39291.13259764 0 1328.91469202 0 16786.56298865 0 -3060.35708672 0 -1452.01105818 0 3009
0.05450000 0.05448610 38302.51736585 0 1502.85252143 0 14405.90557033 0 -285.01456774 0 -708.46898988 0 3336
0.05550000 0.05550870 37043.00245144 0 1430.04682665 0 17086.46355015 0 126.22126706 0 -3635.17024315 0 3349
0.05650000 0.05647670 36074.84520398 0 1077.85026168 0 13620.97092979 0 1138.67791905 0 -2733.07430003 0 3324
0.05750000 0.05747970 35661.97610264 0 426.86371151 0 16710.23897018 0 2648.06125856 0 -2778.35164118 0 3639
0.05850000 0.05849280 35544.28648948 0 11.26234519 0 14967.71329387 0 2684.46972627 0 -1090.09695066 0 3846
0.05950000 0.05951020 35948.61269628 0 -300.35355973 0 17005.19364537 0 2283.45951145 0 2672.09376982 0 3787
0.06050000 0.06049470 35758.98291844 0 538.77338206 0 13378.62250003 0 992.44716962 0 2695.51928594 0 3930
0.06150000 0.06148310 36398.01391250 0 71.19288622 0 17825.08670968 0 734.87777471 0 5679.21513468 0 4083
0.06250000 0.06249100 36113.28822948 0 650.88538432 0 15085.17809400 0 1118.95956954 0 6663.43527203 0 4303
0.06350000 0.06350600 35494.94003277 0 279.14919619 0 16620.20135783 0 1870.48924424 0 11674.20262969 0 4470
0.06450000 0.06451750 35236.06784644 0 211.56253554 0 14139.16492848 0 2989.95689119 0 10433.43712070 0 4479
0.06550000 0.06550280 35588.79946638 0 166.32678480 0 15298.86286440 0 3272.13094649 0 13968.53185039 0 4636
0.06650000 0.06648880 35436.93827500 0 346.69426643 0 13858.26106672 0 2609.23605093 0 12709.91618804 0 4653
0.06750000 0.06749660 35009.90595373 0 548.96865227 0 15454.20865750 0 756.05403662 0 12927.19796667 0 5220
0.06850000 0.06852730 34596.36241334 0 864.40716528 0 12942.26043865 0 -1054.51017451 0 12770.05366945 0 5029
0.06950000 0.06949320 33985.09582659 0 1119.27767995 0 16125.27550614 0 -1630.28777877 0 10707.15820665 0 5040
0.07050000 0.07048030 32845.06902945 0 1536.82176794 0 14631.50543050 0 -1131.11296111 0 10988.27564078 0 5475
0.07150000 0.07148790 32264.82663872 0 894.90192665 0 15570.54939257 0 -244.00754981 0 6363.88317070 0 5509
0.07250000 0.07249820 30497.12190476 0 839.53385334 0 13633.56045860 0 1975.62305053 0 3733.93060047 0 5916
0.07350000 0.07351270 30442.15512268 0 871.34039865 0 12524.10823146 0 871.70122354 0 2963.99098800 0 5721
0.07450000 0.07449140 29534.13535664 0 209.84159191 0 11307.30778983 0 2715.97727027 0 2212.17130451 0 6028
0.07550000 0.07549160 28734.47546363 0 596.15128371 0 10192.29144057 0 2517.46737836 0 4200.75482533 0 6183
0.07650000 0.07648840 28503.70490413 0 709.85046586 0 8157.46388264 0 2773.48443941 0 3049.45365551 0 6330
0.07750000 0.07749960 27624.23639093 0 651.53172173 0 10177.64487266 0 1625.67911197 0 5477.51289796 0 6583
0.07850000 0.07848650 26720.71288518 0 426.44780743 0 7609.81937902 0 1130.92187005 0 5819.17247693 0 6549
0.07950000 0.07947320 26809.06439992 0 256.68700383 0 8495.12178995 0 1440.90529525 0 8110.48920323 0 6828
0.08050000 0.08048110 26406.64910375 0 -65.25973354 0 7801.15773577 0 1062.26285132 0 5908.11974616 0 7147
0.08150000 0.08149960 26382.25689167 0 147.25140051 0 6930.50189275 0 1547.65775525 0 7012.21018291 0 7386
0.08250000 0.08250610 26060.09984172 0 243.02848913 0 5598.13632095 0 982.08216559 0 5684.52072182 0 7227
0.08350000 0.08350160 25301.91794991 0 748.80718910 0 5411.85625704 0 751.08117274 0 5517.91179669 0 7798
0.08450000 0.08449610 24566.10495306 0 758.36174222 0 3867.13231163 0 1004.69273453 0 4288.04971891 0 7371
0.08550000 0.08548940 23894.92569791 0 453.85476204 0 4106.67057871 0 164.23489970 0 3026.50024672 0 8256
0.08650000 0.08650700 23636.61554411 0 447.24525941 0 2690.24742075 0 -548.20541209 0 2427.36232210 0 8037
0.08750000 0.08749060 23459.35048209 0 261.73742821 0 4289.27494984 0 -1084.93861603 0 426.39722450 0 8155
0.08850000 0.08849210 22863.59599334 0 605.62940041 0 3638.99206440 0 -1445.04185472 0 347.77112077 0 8718
0.08950000 0.08949900 22512.21325149 0 811.80204392 0 4324.96401591 0 -1618.87851828 0 -2286.38208064 0 8571
0.09050000 0.09049190 21926.46294190 0 845.65101547 0 5445.01617670 0 -1061.56593097 0 -1732.82499474 0 8932
0.09150000 0.09150830 21224.59671026 0 619.41830666 0 5380.01149352 0 -1017.05070594 0 -2875.74063911 0 9285
0.09250000 0.09250820 20951.22408448 0 437.83458662 0 6293.48297517 0 -539.81876257 0 -1790.14107281 0 9204
0.09350000 0.09350330 20780.14138035 0 110.02821043 0 6164.27169502 0 305.79403468 0 -1474.27878727 0 9349
0.09450000 0.09448040 20842.41458540 0 150.47184695 0 6738.41041241 0 705.72402297 0 -799.02816843 0 9564
0.09550000 0.09549270 20898.05580652 0 48.76329175 0 6513.54119453 0 1351.19366177 0 485.41064084 0 10155
0.09650000 0.09649430 20420.89018299 0 295.16037909 0 6419.87285199 0 1958.75083378 0 752.37721977 0 9913
0.09750000 0.09749140 20012.51734193 0 489.08633363 0 5431.61732102 0 1824.77351772 0 1309.34471910 0 10476
0.09850000 0.09850240 19184.30619608 0 1020.09579823 0 5453.86256882 0 681.41836390 0 1585.33641650 0 10575
0.09950000 0.09950330 18458.83459790 0 932.59295261 0 5266.67201220 0 176.25565159 0 2676.81484313 0 10882
0.10050000 0.10051200 17440.09442215 0 785.06728022 0 5557.05174253 0 354.70997447 0 2624.26480096 0 10875
0.10150000 0.10150300 16987.09619769 0 639.38507455 0 5037.25033078 0 -521.07160529 0 2116.77190176 0 11118
0.10250000 0.10250800 16518.02384268 0 315.84654863 0 5516.06832997 0 -31.59465904 0 2100.11325737 0 11575
0.10350000 0.10349800 15954.53002154 0 590.21959232 0 4748.09583137 0 -139.74264582 0 541.51497677 0 11364
0.10450000 0.10450100 15734.21326721 0 367.61986183 0 5008.63163402 0 255.16277159 0 673.18683537 0 12093
0.10550000 0.10551000 15341.01530464 0 57.93869772 0 4636.62229807 0 237.26203530 0 -11.02920285 0 12067
0.10650000 0.10649700 15184.88266599 0 84.98797483 0 4436.99958174 0 804.42592891 0 233.23451015 0 12054
0.10750000 0.10749900 15291.10681540 0 -51.48499051 0 3173.66284609 0 1232.34626159 0 -96.77492118 0 12807
0.10850000 0.10850100 14997.95064433 0 36.05337556 0 2952.33443319 0 858.25178494 0 476.98015279 0 12736
0.10950000 0.10950300 15270.08679853 0 133.83455980 0 2977.74954450 0 459.34581993 0 1373.58503803 0 12933
0.11050000 0.11050200 14855.64400608 0 139.61000614 0 3447.40641334 0 -14.21728745 0 1619.93513945 0 13428
0.11150000 0.11150900 15036.50607634 0 118.14598357 0 3742.50721698 0 -582.73669113 0 2552.51572734 0 13453
0.11250000 0.11250000 15141.04412814 0 189.60842060 0 4745.74653537 0 -650.21656560 0 2327.07323628 0 13668
0.11350000 0.11349100 15254.68710703 0 134.86757560 0 5510.63909566 0 -252.81909592 0 3777.94898873 0 13791
0.11450000 0.11448600 15121.03576984 0 104.31627376 0 5235.16446820 0 -83.19835082 0 3091.86463072 0 14205
0.11550000 0.11549300 15346.86044302 0 28.70378849 0 5742.12905682 0 749.68620798 0 3380.97416752 0 14776
0.11650000 0.11649800 14980.64004221 0 111.92833003 0 5087.41735499 0 409.84986256 0 2648.46592198 0 14553
0.11750000 0.11747300 14999.86155496 0 128.87518470 0 4698.04121367 0 505.62470305 0 2960.59631148 0 14568
0.11850000 0.11849100 14891.05205588 0 162.85117560 0 4889.80671514 0 25.70365881 0 2689.25824349 0 16015
0.11950000 0.11950300 14636.78853635 0 203.41418782 0 4416.85633563 0 -9.44605836 0 1887.61999595 0 15270
0.12050000 0.12050700 14565.63521722 0 129.76319610 0 4928.09237153 0 -257.51431573 0 2361.78436574 0 15999
0.12150000 0.12150000 14326.20935665 0 -74.30002689 0 3880.25015104 0 721.40922700 0 735.35213017 0 15670
0.12250000 0.12250700 14495.83077618 0 -8.53701570 0 4213.85018343 0 632.61595468 0 1959.93110211 0 16887
0.12350000 0.12352200 14345.20605638 0 122.94461737 0 3682.42593882 0 466.95686454 0 619.92863220 0 16407
0.12450000 0.12449800 14045.86752742 0 309.07405656 0 3667.64448311 0 256.92980189 0 1034.48383116 0 16306
0.12550000 0.12549900 13745.85455941 0 494.78197136 0 3235.87984788 0 -57.45928397 0 828.43258668 0 17523
0.12650000 0.12650100 13421.44937931 0 469.80412137 0 3609.65396599 0 -297.36129850 0 1187.99065381 0 17154
0.12750000 0.12750600 13086.81520705 0 196.96317837 0 3317.29588113 0 -234.17085635 0 950.37116581 0 18007
0.12850000 0.12850300 13210.79958461 0 -101.41101517 0 4129.69143141 0 -221.71509128 0 784.38609679 0 17496
0.12950000 0.12949900 13413.91814332 0 -117.27370908 0 4449.85888618 0 -543.25952576 0 422.42702667 0 18405
0.13050000 0.13049000 13537.90252088 0 -58.51702920 0 5060.69832820 0 -514.96568381 0 238.53222884 0 18100
0.13150000 0.13148800 13642.77779220 0 170.86575957 0 5277.71033121 0 -508.64506590 0 445.34896164 0 19059
0.13250000 0.13249300 13402.34027307 0 289.61086982 0 5363.27416458 0 -217.72803246 0 -234.52156466 0 18957
0.13350000 0.13349100 13404.25118369 0 229.23845881 0 5677.64144357 0 236.36727951 0 497.28976053 0 19468
0.13450000 0.13450700 13149.87525765 0 78.65285648 0 4990.06207901 0 770.42745671 0 29.31539229 0 19953
0.13550000 0.13551000 13178.87613654 0 -7.51499325 0 4998.72862072 0 828.85860734 0 818.84318754 0 19956
0.13650000 0.13649900 13071.41551555 0 -15.85190288 0 3801.72296503 0 888.06199068 0 133.40629101 0 19723
0.13750000 0.13749600 13107.27319138 0 98.22968620 0 4073.79167532 0 685.00413148 0 972.13868595 0 20946
0.13850000 0.13851100 12969.68762643 0 133.89863151 0 3418.52918161 0 427.25263802 0 1291.85426656 0 20955
0.13950000 0.13949800 12908.87570598 0 231.21906147 0 3365.63067927 0 413.73350739 0 1872.83854024 0 20506
0.14050000 0.14048300 12596.38561566 0 250.42146512 0 3198.49344355 0 455.40372372 0 2054.01534872 0 21447
0.14150000 0.14148400 12462.39705894 0 205.46223439 0 3070.94577971 0 452.87008104 0 1749.03401309 0 21771
0.14250000 0.14249400 12202.40080753 0 330.66959475 0 2967.72288404 0 136.24343125 0 1887.79984637 0 22470
0.14350000 0.14350900 11800.65995041 0 344.85304784 0 2874.33555777 0 76.82400261 0 1577.53540489 0 22519
0.14450000 0.14449900 11538.86519488 0 285.90370321 0 2802.48531830 0 -167.73636240 0 1461.55437065 0 22218
0.14550000 0.14550500 11340.35530298 0 169.06051106 0 2805.10438992 0 -249.83245502 0 1624.58876885 0 23559
0.14650000 0.14650700 11167.15935651 0 158.67639791 0 2959.21371144 0 -45.12682883 0 724.76006499 0 23044
0.14750000 0.14750500 11066.16210969 0 210.91957032 0 3103.21768796 0 -203.61202328 0 1341.92012492 0 23649
0.14850000 0.14849900 10799.17417353 0 324.66371506 0 3331.16684413 0 -78.55056656 0 673.76797701 0 23640
0.14950000 0.14949500 10734.66407899 0 301.56642594 0 3641.80222708 0 -199.74861162 0 1528.27887339 0 24457
0.15050000 0.15050000 10518.55132803 0 222.88074676 0 3892.30012862 0 -183.12256512 0 1440.53435378 0 24591
0.15150000 0.15149900 10482.08665706 0 71.08137896 0 4361.20387386 0 241.57844519 0 1730.22840442 0 25020
0.15250000 0.15250500 10428.18773681 0 53.36982283 0 4054.23294305 0 319.82573899 0 1801.41544550 0 25297
0.15350000 0.15350100 10417.83509748 0 154.72306105 0 4290.48894011 0 109.38895462 0 1568.77893797 0 25452
0.15450000 0.15450400 10137.43706500 0 185.08855494 0 3994.29779335 0 -59.46169349 0 1048.27273742 0 26061
0.15550000 0.15549900 9923.24646532 0 235.47701997 0 3706.75070700 0 40.14339874 0 337.19816469 0 26128
0.15650000 0.15649500 9812.68342473 0 186.94438637 0 3321.75841947 0 -51.20127649 0 328.65414607 0 26331
0.15750000 0.15749700 9635.33967815 0 75.14869602 0 3019.78957823 0 121.19107586 0 -335.01073406 0 27345
0.15850000 0.15849900 9527.94650106 0 5.38221466 0 2870.46877392 0 155.24912351 0 -153.23929516 0 26980
0.15950000 0.15949700 9567.31125992 0 1.75125966 0 2775.04688986 0 207.78118063 0 -454.08519538 0 27777
0.16050000 0.16050000 9543.70589339 0 -15.26648979 0 2446.01056167 0 386.29395489 0 -304.41255871 0 28224
0.16150000 0.16150500 9560.78044185 0 -72.65821745 0 2454.29492126 0 310.05536537 0 -539.49390777 0 28075
0.16250000 0.16249700 9697.27566367 0 -117.78740681 0 2380.18531099 0 135.44197285 0 -383.44107774 0 28590
0.16350000 0.16349900 9656.93296820 0 25.14814585 0 2208.59677758 0 -13.94987237 0 -622.72530611 0 29163
0.16450000 0.16449100 9770.69959425 0 52.81374783 0 2247.48942911 0 66.76114726 0 -267.89842887 0 28996
0.16550000 0.16550500 9657.36011293 0 99.10881750 0 2272.21886071 0 50.20670371 0 -348.36013087 0 30777
0.16650000 0.16650700 9646.69273538 0 220.37408165 0 2025.20556090 0 62.91032513 0 -695.83337440 0 29211
0.16750000 0.16749900 9399.36469735 0 213.37790063 0 2389.98715842 0 72.42755929 0 -480.06233922 0 30922
0.16850000 0.16850800 9237.36443902 0 279.05027846 0 2022.32795431 0 -130.97044199 0 -473.22577545 0 30867
0.16950000 0.16949900 8981.35861862 0 262.07352366 0 2471.23458191 0 -291.86124810 0 76.72328638 0 30852
0.17050000 0.17049200 8937.32898970 0 145.90814275 0 2576.45831340 0 -246.44339882 0 -135.86237319 0 31257
0.17150000 0.17149500 8916.42137934 0 52.62198233 0 2812.82671697 0 86.38001701 0 -19.62797468 0 32608
0.17250000 0.17250900 8887.34181590 0 77.39221750 0 2687.25740766 0 87.69303743 0 113.15625871 0 32361
0.17350000 0.17350400 8750.43069000 0 117.65926340 0 2525.11102086 0 348.15105477 0 31.03431260 0 32508
0.17450000 0.17449800 8624.47919856 0 255.46514510 0 2517.35497186 0 161.43710173 0 44.53905520 0 32791
0.17550000 0.17549800 8409.25445901 0 274.07853864 0 2320.20519869 0 99.68433881 0 -244.79776755 0 33633
0.17650000 0.17650100 8125.12453049 0 226.53283418 0 2498.56060383 0 138.75122043 0 322.55946525 0 33984
0.17750000 0.17750300 7968.57598775 0 192.70072361 0 2233.29248723 0 -58.12203273 0 -20.33343792 0 34069
0.17850000 0.17849800 7782.74554987 0 24.60522242 0 2345.59782869 0 290.16615797 0 224.26671899 0 34536
