### header ###
fiducial parameters:
Omega_m = 0.31
Omega_nu = 0
Omega_de = 0.69
Omega_k = 0
H_0 = 100
w_de = -1
zeff = 0
beta = 0
fgrowth = 0
b_1 = 2
gamma = 0.55
Lx = 3500 Ly = 3500 Lz = 3500
nx = 700 ny = 700 nz = 700
xoffset = 857.220397 yoffset = 15.9954215 zoffset = 262.898189
bins = 400 dk = 0.001
kx_ny = 0.628318531 ky_ny = 0.628318531 kz_ny = 0.628318531
############################
A(data) = 3.08790478 (not used)
A(ran) = 3.08020623 (used)
Ngal = 187965
weighted Ngal = 0
Nran = 9360983
weighted Nran = 0
SN(data) = 3469.58479
SN(ran) = 69.1698559
SN(data+ran) = 3538.75464
############################
13 columns: k_central k_mean P_0(k) sigma^{lin}_{P_0(k)} P^img_1(k) sigma^{lin}_{P_1(k)} P_2(k) sigma^{lin}_{P_2(k)} P^img_3(k) sigma^{lin}_{P_3(k)} P_4(k) sigma^{lin}_{P_4(k)} N_modes
### header ###
0.00050000 0 0 0 0 0 0 0 0 0 0 0 0
0.00150000 0.00179520 11578.88191149 0 1158.83240581 0 13488.10643815 0 11481.98750219 0 -40162.73265532 0 3
0.00250000 0.00253879 17124.00732359 0 1024.23910209 0 24893.54510885 0 6408.84577362 0 15170.94425908 0 6
0.00350000 0.00331552 24202.69471493 0 -1516.19517385 0 34527.23241134 0 25071.03498390 0 -9159.23067578 0 7
0.00450000 0.00420575 31486.97360813 0 -1248.98242467 0 44411.69863164 0 34695.72976580 0 4934.89296522 0 24
0.00550000 0.00557378 46497.17656176 0 656.29326138 0 59762.83052194 0 39831.58308479 0 -8694.48597131 0 45
0.00650000 0.00659388 57564.94608451 0 -4374.53528563 0 47739.60568706 0 55378.86433034 0 27595.68513808 0 40
0.00750000 0.00754703 62405.39510229 0 -889.45358324 0 51578.84994423 0 52053.31781158 0 7739.40160065 0 57
0.00850000 0.00846663 73095.81598000 0 -7429.75539496 0 30999.91621196 0 43969.82865140 0 20788.23464888 0 75
0.00950000 0.00948925 85848.78386034 0 -23568.72201370 0 22156.55906236 0 41948.08521093 0 -3201.10127452 0 112
0.01050000 0.01054430 107853.25691831 0 -16644.93078944 0 -5600.65422672 0 -301.72042286 0 -36573.48047041 0 105
0.01150000 0.01145670 115202.05714671 0 -8187.89232417 0 8624.96254654 0 -33737.12707146 0 -36100.92351368 0 144
0.01250000 0.01249090 112379.97937419 0 7211.75421469 0 903.73370593 0 -41320.29486760 0 -41423.14682179 0 169
0.01350000 0.01339930 111573.12546472 0 12392.14299187 0 9317.65640719 0 -32255.15967909 0 -50793.80289717 0 180
0.01450000 0.01448870 95011.60030370 0 8898.13284060 0 18478.84295620 0 -18048.21362669 0 -48638.97015204 0 267
0.01550000 0.01550050 90638.87476284 0 9438.53836515 0 19981.83036544 0 -19.75488163 0 -71453.66931471 0 238
0.01650000 0.01653350 81397.48617086 0 9547.55019594 0 28796.41144916 0 -1925.27617590 0 -50567.75341097 0 315
0.01750000 0.01747870 77912.09759870 0 11290.44681373 0 24781.36341456 0 -5564.38064681 0 -45260.25535532 0 297
0.01850000 0.01844180 67707.83486511 0 10187.88510548 0 44291.19885580 0 2892.99503798 0 933.56864110 0 388
0.01950000 0.01947590 63693.46126955 0 3948.17740340 0 37036.48287402 0 8819.36960093 0 -10847.53145298 0 399
0.02050000 0.02045430 64216.60115457 0 -109.71628237 0 43032.47078695 0 11864.95647259 0 16770.26404509 0 462
0.02150000 0.02154770 65223.76346007 0 261.34625356 0 44039.97031196 0 22391.03903661 0 13184.94608793 0 571
0.02250000 0.02255340 66553.98206757 0 178.92980240 0 36929.02225303 0 8643.98172758 0 21430.75024466 0 510
0.02350000 0.02348930 63041.39112065 0 1123.83239163 0 27208.78193992 0 19947.20916119 0 15437.79730744 0 555
0.02450000 0.02439640 62212.39312924 0 -1296.64278377 0 25789.08775259 0 9913.36593333 0 19000.29674361 0 592
0.02550000 0.02547300 64257.06749720 0 -4120.81131733 0 8009.49195642 0 10864.34746647 0 12454.64100994 0 837
0.02650000 0.02652900 70596.12007044 0 -4109.14352187 0 13421.89900534 0 2658.17784421 0 5094.16174543 0 723
0.02750000 0.02749970 73173.93850258 0 -2761.58059029 0 9321.18597152 0 -1893.29652457 0 13449.43859963 0 826
0.02850000 0.02848090 74418.16613199 0 -197.28241285 0 16800.61380206 0 -10064.09181898 0 6016.24356554 0 831
0.02950000 0.02946900 74899.60320280 0 2229.65051640 0 21956.70029237 0 -5694.96328635 0 7098.80815614 0 996
0.03050000 0.03053250 78273.37211320 0 3131.34179608 0 38045.55609014 0 -5630.63304222 0 11149.60146007 0 1041
0.03150000 0.03150510 71172.99026595 0 5271.32564160 0 37468.68589463 0 117.49739803 0 5051.26742224 0 1036
0.03250000 0.03246190 72443.52101808 0 5197.08114352 0 40761.97174579 0 502.85275858 0 8008.95240518 0 1059
0.03350000 0.03345080 64278.42473359 0 5497.30768390 0 46597.21835327 0 2900.49255202 0 4009.00056451 0 1302
0.03450000 0.03451200 62635.04159672 0 4989.39888062 0 38616.91836680 0 6673.67550485 0 11786.60913700 0 1339
0.03550000 0.03553350 57265.38274253 0 1296.06951058 0 38130.31059665 0 10636.24094119 0 10081.63847477 0 1365
0.03650000 0.03647120 57975.56705571 0 403.50114303 0 25701.74789641 0 12689.12098419 0 13546.33300893 0 1308
0.03750000 0.03744890 55480.70462597 0 -1094.51340233 0 19268.72348307 0 12861.66497291 0 9121.90047471 0 1579
0.03850000 0.03847530 56876.45622723 0 1312.95296798 0 16708.44046607 0 10543.79782957 0 13143.01846070 0 1662
0.03950000 0.03950240 54492.20180068 0 2414.68286808 0 15881.57819830 0 2705.82696266 0 19968.22917805 0 1683
0.04050000 0.04050350 51645.61940957 0 3214.70246191 0 11738.38674536 0 2078.22771040 0 19041.88715131 0 1822
0.04150000 0.04152450 50229.97185651 0 1040.25365718 0 16796.79198081 0 -358.35868969 0 17536.87642494 0 1887
0.04250000 0.04250150 48104.13999026 0 840.17457043 0 12042.22153462 0 2767.72922624 0 13961.33783392 0 1920
0.04350000 0.04349210 47900.23458600 0 1020.48584881 0 15426.44425020 0 1780.91249856 0 17075.67252545 0 2005
0.04450000 0.04448520 46271.68910810 0 1639.25781805 0 13493.16473097 0 2411.45680132 0 8328.97373149 0 2151
0.04550000 0.04548030 45595.33915361 0 1549.77099758 0 12392.59261790 0 -113.81833304 0 9510.36612332 0 2274
0.04650000 0.04648670 44678.43927349 0 1118.86065181 0 12280.41092361 0 1484.03567211 0 6769.91795640 0 2311
0.04750000 0.04749250 43029.88543728 0 -56.68030687 0 7614.04586370 0 589.27425360 0 2070.15692317 0 2568
0.04850000 0.04851840 42549.79724456 0 -475.71557959 0 9415.19153358 0 -537.07042347 0 -426.61754126 0 2493
0.04950000 0.04949480 42774.27303966 0 -443.67860094 0 3467.62834400 0 1392.68290362 0 -6093.86025884 0 2644
0.05050000 0.05050630 42303.85180656 0 44.58626594 0 6189.43951201 0 -504.48827326 0 -5836.86526118 0 2829
0.05150000 0.05149060 41999.45498477 0 1199.45611755 0 3158.58913346 0 -1783.03698155 0 -8185.95893224 0 2784
0.05250000 0.05249300 39426.47003244 0 1410.00474639 0 4566.23334320 0 -502.67178410 0 -10193.26937718 0 3055
0.05350000 0.05348950 39219.41724598 0 1506.39332641 0 7927.39024348 0 -2750.56475257 0 -5802.05296586 0 3009
0.05450000 0.05448610 38679.86601089 0 900.88982129 0 10762.47344889 0 -1074.15545979 0 -1636.82983749 0 3336
0.05550000 0.05550870 38030.71843118 0 772.88578703 0 12642.69709667 0 231.74624799 0 595.38354727 0 3349
0.05650000 0.05647670 38889.72896004 0 -328.29781744 0 15571.78586415 0 -625.68721757 0 3191.56920270 0 3324
0.05750000 0.05747970 40166.55447657 0 203.08371269 0 17021.26777591 0 324.59065083 0 1693.38155132 0 3639
0.05850000 0.05849280 39559.33452408 0 671.72330264 0 19010.75054879 0 -1524.62566190 0 2386.61496320 0 3846
0.05950000 0.05951020 38802.05188434 0 1841.63449381 0 17864.09176772 0 -918.51291351 0 3074.00323671 0 3787
0.06050000 0.06049470 37673.37814444 0 1402.43978845 0 16334.12679673 0 78.62644095 0 -2052.91376495 0 3930
0.06150000 0.06148310 35525.28978975 0 1196.70215812 0 15448.13870611 0 4157.25350700 0 85.82101945 0 4083
0.06250000 0.06249100 33982.73528993 0 780.68117831 0 11790.88058427 0 4284.20541636 0 -3344.31840548 0 4303
0.06350000 0.06350600 33525.01599217 0 454.77312321 0 10630.50820931 0 3913.69108696 0 -619.85331984 0 4470
0.06450000 0.06451750 32448.04924563 0 990.02818159 0 7132.91229046 0 2670.85729824 0 -2065.08738969 0 4479
0.06550000 0.06550280 32476.93771801 0 368.42694055 0 8677.56879196 0 1033.13944934 0 2421.82068129 0 4636
0.06650000 0.06648880 31396.93599578 0 403.33028514 0 6581.36728104 0 -1097.18080875 0 1974.08308138 0 4653
0.06750000 0.06749660 31789.12229978 0 142.36508964 0 7817.56908583 0 -158.83713922 0 2472.16755592 0 5220
0.06850000 0.06852730 31471.91113615 0 -16.17911822 0 7843.40010121 0 -446.53260216 0 858.09216770 0 5029
0.06950000 0.06949320 30840.63619110 0 717.69306787 0 7198.74878179 0 64.75559036 0 278.53208446 0 5040
0.07050000 0.07048030 30632.68415258 0 921.15783862 0 7496.77215462 0 -905.51197687 0 -743.28353333 0 5475
0.07150000 0.07148790 28789.21743269 0 970.36940752 0 7517.38750806 0 -120.64478023 0 -3052.94949789 0 5509
0.07250000 0.07249820 28539.22536044 0 1278.07322876 0 8845.51535453 0 -718.12021260 0 334.05078249 0 5916
0.07350000 0.07351270 26661.36224932 0 1021.48626672 0 8759.97400247 0 338.69092311 0 -993.03730379 0 5721
0.07450000 0.07449140 27586.01817845 0 -178.93429866 0 11374.75169421 0 -442.10940610 0 586.77882913 0 6028
0.07550000 0.07549160 27494.96890753 0 -65.12765590 0 10597.55062137 0 -320.73623170 0 279.93491767 0 6183
0.07650000 0.07648840 28084.20381884 0 36.24435422 0 12720.93202576 0 509.59602495 0 1225.86040612 0 6330
0.07750000 0.07749960 27122.22892929 0 698.70648472 0 10604.53106547 0 890.52144506 0 234.40466189 0 6583
0.07850000 0.07848650 27563.42447048 0 602.61578195 0 11192.99037189 0 1398.26950703 0 2152.79818735 0 6549
0.07950000 0.07947320 25997.37701064 0 701.59982822 0 8897.88554629 0 2891.98337942 0 1260.88627380 0 6828
0.08050000 0.08048110 25820.11194861 0 436.48570854 0 8598.10863194 0 2599.25435308 0 1476.34706701 0 7147
0.08150000 0.08149960 24895.45601948 0 337.33979689 0 7918.66749851 0 1695.22501804 0 3316.23925996 0 7386
0.08250000 0.08250610 24820.81809862 0 572.76510987 0 7910.48430478 0 719.10264547 0 3352.42291466 0 7227
0.08350000 0.08350160 24376.69998824 0 438.35952501 0 8504.29416094 0 -733.63006248 0 4383.40415906 0 7798
0.08450000 0.08449610 24398.95647669 0 637.23024181 0 8902.57289764 0 -904.16871911 0 5237.54748615 0 7371
0.08550000 0.08548940 23880.42525847 0 522.22602012 0 10236.69201095 0 -1638.74074812 0 3529.48564498 0 8256
0.08650000 0.08650700 23462.04823826 0 501.89617920 0 9532.72377762 0 -523.67044373 0 2240.81248257 0 8037
0.08750000 0.08749060 23014.44552615 0 603.82415190 0 10453.63657006 0 -574.95478863 0 306.18408526 0 8155
0.08850000 0.08849210 22556.05178934 0 478.50775723 0 8809.97241692 0 382.17650453 0 -1421.89735487 0 8718
0.08950000 0.08949900 21999.97679768 0 498.48464171 0 8408.89475819 0 -579.52636128 0 -3974.19950985 0 8571
0.09050000 0.09049190 21461.10000164 0 686.55084502 0 8853.52993850 0 -464.31081535 0 -2812.30964704 0 8932
0.09150000 0.09150830 20910.19570931 0 256.51614594 0 8493.54809884 0 -382.36422340 0 -3573.70636495 0 9285
0.09250000 0.09250820 21321.71593257 0 164.86662427 0 9943.82809681 0 -314.60782892 0 -2311.50493502 0 9204
0.09350000 0.09350330 21190.53753854 0 37.05177016 0 9304.53856778 0 151.94212406 0 -2089.14238226 0 9349
0.09450000 0.09448040 21233.13960481 0 440.15128474 0 10417.63276577 0 736.20417150 0 -1991.10142658 0 9564
0.09550000 0.09549270 20720.67833799 0 557.48681739 0 10042.92567365 0 230.61206633 0 -1305.18567833 0 10155
0.09650000 0.09649430 20496.09013638 0 517.58250730 0 10823.65631082 0 391.58492919 0 -1998.85747559 0 9913
0.09750000 0.09749140 19910.67704631 0 249.86055664 0 9556.44155067 0 462.45385985 0 -650.24803942 0 10476
0.09850000 0.09850240 19279.40210126 0 408.76851196 0 9282.01230372 0 1077.30846232 0 -1852.40303721 0 10575
0.09950000 0.09950330 19225.78419727 0 356.51522297 0 7834.37385868 0 1821.58117291 0 -356.76026916 0 10882
0.10050000 0.10051200 17956.48991673 0 610.25155599 0 7578.43548218 0 1237.73053329 0 -1100.31582623 0 10875
0.10150000 0.10150300 17675.02402243 0 703.11956420 0 6220.92457470 0 1610.21197656 0 -381.04232287 0 11118
0.10250000 0.10250800 16874.24006435 0 489.96310439 0 6668.13386404 0 804.00103232 0 -715.15043268 0 11575
0.10350000 0.10349800 16510.71741971 0 449.08985020 0 6283.93966270 0 -315.98818083 0 -1361.08543441 0 11364
0.10450000 0.10450100 16272.86525024 0 225.96967758 0 6676.78916510 0 -941.73609792 0 -964.69625110 0 12093
0.10550000 0.10551000 16157.42376723 0 143.23286787 0 7199.72671841 0 -1193.00398403 0 -1129.91021148 0 12067
0.10650000 0.10649700 16291.52473045 0 151.11481217 0 7614.72030274 0 -253.42047073 0 -9.54393071 0 12054
0.10750000 0.10749900 16146.96996205 0 63.83599272 0 7242.45243183 0 684.94455603 0 -496.78505532 0 12807
0.10850000 0.10850100 16339.18508955 0 47.45780257 0 6835.64204123 0 1573.19651371 0 -293.18090050 0 12736
0.10950000 0.10950300 16019.72579578 0 75.47883393 0 6152.37908655 0 2015.80837689 0 -128.09395947 0 12933
0.11050000 0.11050200 15973.07709525 0 84.40627115 0 5549.46430329 0 1605.41221870 0 432.75718469 0 13428
0.11150000 0.11150900 15742.98097478 0 285.27535084 0 5204.66858276 0 450.51404065 0 1439.61262042 0 13453
0.11250000 0.11250000 15338.54236148 0 373.79210315 0 4178.83555640 0 131.50549697 0 1283.92960780 0 13668
0.11350000 0.11349100 15122.72186745 0 402.85143342 0 4861.62640376 0 18.84045469 0 2218.96065755 0 13791
0.11450000 0.11448600 14730.98518947 0 318.98156612 0 4172.37218223 0 271.54939223 0 1963.53935099 0 14205
0.11550000 0.11549300 14352.62488587 0 335.18833634 0 4374.31047262 0 529.82582408 0 1991.64097782 0 14776
0.11650000 0.11649800 14339.81054403 0 134.07960598 0 3839.39038563 0 702.59237768 0 1753.13685061 0 14553
0.11750000 0.11747300 14008.32375398 0 376.81583819 0 3906.15985097 0 221.03278378 0 1764.89457127 0 14568
0.11850000 0.11849100 13811.38755317 0 38.87376724 0 3893.01953027 0 -32.81280836 0 1601.84893242 0 16015
0.11950000 0.11950300 13819.48082170 0 100.79300419 0 3585.85750839 0 -538.17987570 0 912.93755074 0 15270
0.12050000 0.12050700 13866.91636778 0 -169.31904603 0 4048.42152662 0 -559.81363210 0 492.40344966 0 15999
0.12150000 0.12150000 14048.79009661 0 64.76458288 0 3912.39841213 0 -813.10146315 0 -262.73672206 0 15670
0.12250000 0.12250700 14263.03689954 0 -68.34315644 0 4682.19189614 0 -570.14491418 0 -538.48674546 0 16887
0.12350000 0.12352200 14213.46562982 0 121.02359016 0 4815.73082682 0 -488.38828922 0 -1348.29357388 0 16407
0.12450000 0.12449800 14259.66470432 0 267.75117635 0 5228.88094444 0 -126.25274088 0 -748.18220892 0 16306
0.12550000 0.12549900 13781.03779620 0 285.68788272 0 5234.80476737 0 341.54829653 0 -1065.32143238 0 17523
0.12650000 0.12650100 13851.85389580 0 258.05723916 0 5326.79825296 0 346.28623081 0 -190.20529915 0 17154
0.12750000 0.12750600 13419.87568821 0 243.28590003 0 5035.65415837 0 733.72785614 0 31.81812318 0 18007
0.12850000 0.12850300 13340.17947453 0 237.63410084 0 4805.86153548 0 745.83403698 0 -115.65055911 0 17496
0.12950000 0.12949900 12910.56180359 0 196.14485900 0 4579.81204928 0 493.21839684 0 38.18662626 0 18405
0.13050000 0.13049000 12812.31851620 0 204.45619615 0 4158.86092006 0 407.33083273 0 207.16744110 0 18100
0.13150000 0.13148800 12463.63353052 0 177.90015879 0 4240.79402323 0 43.36496924 0 266.33485436 0 19059
0.13250000 0.13249300 12449.47031060 0 -19.83862448 0 4131.18643796 0 -22.02324494 0 272.16313176 0 18957
0.13350000 0.13349100 12544.67862229 0 -26.59549204 0 4175.29475142 0 -15.94767322 0 88.59363836 0 19468
0.13450000 0.13450700 12502.41377554 0 -63.12783172 0 4010.85527188 0 -25.27033172 0 15.44521614 0 19953
0.13550000 0.13551000 12598.97096532 0 1.61502298 0 4011.72080199 0 281.30852519 0 -621.62259827 0 19956
0.13650000 0.13649900 12755.89044953 0 127.66344255 0 3739.59588844 0 220.84056865 0 -267.16666251 0 19723
0.13750000 0.13749600 12484.20392136 0 207.46756648 0 3744.47433086 0 -10.87584665 0 -702.09329279 0 20946
0.13850000 0.13851100 12385.06138191 0 281.75140683 0 3572.35748686 0 271.60559548 0 -591.75731334 0 20955
0.13950000 0.13949800 12244.89046730 0 215.21125077 0 3694.55460096 0 96.48075335 0 59.02409496 0 20506
0.14050000 0.14048300 11880.69338361 0 164.21579059 0 3640.95917828 0 198.75044183 0 -31.95098767 0 21447
0.14150000 0.14148400 11971.74265453 0 70.25159413 0 3748.89190659 0 215.35513109 0 550.89192761 0 21771
0.14250000 0.14249400 11875.41027777 0 146.71971773 0 4169.57326020 0 71.69399443 0 550.71769752 0 22470
0.14350000 0.14350900 11707.69976886 0 266.52482135 0 4115.94411556 0 25.93813878 0 849.56051379 0 22519
0.14450000 0.14449900 11470.40963193 0 308.83125851 0 4249.91019098 0 2.20348228 0 860.03904840 0 22218
0.14550000 0.14550500 11158.52653675 0 233.06814852 0 3918.90674890 0 304.56093530 0 660.81087891 0 23559
0.14650000 0.14650700 11063.61048198 0 161.07627684 0 3673.34349303 0 422.24942438 0 255.81023308 0 23044
0.14750000 0.14750500 10807.03138839 0 93.77186893 0 3285.42863630 0 581.16637222 0 206.50873897 0 23649
0.14850000 0.14849900 10710.56412382 0 73.84118353 0 2716.93272558 0 474.70729322 0 -382.71380763 0 23640
0.14950000 0.14949500 10515.04424500 0 101.58996633 0 2433.90438083 0 133.92111281 0 -476.21916074 0 24457
0.15050000 0.15050000 10672.16606092 0 198.30643613 0 2520.03024673 0 49.26417515 0 -23.89560014 0 24591
0.15150000 0.15149900 10307.84533008 0 139.92362030 0 2248.15262750 0 -59.27667238 0 -104.31638617 0 25020
0.15250000 0.15250500 10363.87997397 0 204.46406460 0 2468.88528590 0 232.37909663 0 573.26644289 0 25297
0.15350000 0.15350100 10190.60534296 0 168.84356650 0 2535.45241953 0 236.58872033 0 136.25242377 0 25452
0.15450000 0.15450400 10100.88246882 0 150.35494418 0 2196.32198698 0 124.17771676 0 464.17367942 0 26061
0.15550000 0.15549900 9975.97635790 0 194.99606449 0 2570.65813762 0 116.68694711 0 508.91484152 0 26128
0.15650000 0.15649500 9741.21536738 0 243.23868930 0 2178.10089214 0 69.49161373 0 264.85895691 0 26331
0.15750000 0.15749700 9609.30633105 0 171.75264691 0 2526.59478676 0 163.83473253 0 504.31179505 0 27345
0.15850000 0.15849900 9343.43121931 0 119.31838344 0 2041.70683617 0 85.05170932 0 227.90082138 0 26980
0.15950000 0.15949700 9412.87595953 0 -15.69059954 0 2236.83329221 0 228.59774172 0 516.17630189 0 27777
0.16050000 0.16050000 9417.04624095 0 -108.83782552 0 2087.44504400 0 451.43914620 0 261.39346429 0 28224
0.16150000 0.16150500 9489.98682354 0 32.58383631 0 2093.75104906 0 283.81856250 0 592.75548313 0 28075
0.16250000 0.16249700 9386.52787422 0 91.00127334 0 1977.98358718 0 111.67136875 0 792.87166403 0 28590
0.16350000 0.16349900 9379.86216833 0 175.44407661 0 2284.31380090 0 -36.01414569 0 1128.67373990 0 29163
0.16450000 0.16449100 9172.82062252 0 194.05522202 0 2215.80203470 0 -138.99064629 0 1008.58986814 0 28996
0.16550000 0.16550500 9169.86433138 0 248.16546651 0 2692.39438504 0 -300.77845632 0 1420.70584589 0 30777
0.16650000 0.16650700 8854.96874180 0 136.20633710 0 2485.18422946 0 -210.87910397 0 1097.31794468 0 29211
0.16750000 0.16749900 8934.61999288 0 107.03167776 0 2769.20175148 0 -117.01967037 0 1642.67497587 0 30922
0.16850000 0.16850800 8788.36788622 0 -12.42215553 0 2627.52458967 0 201.36614126 0 1191.25044252 0 30867
0.16950000 0.16949900 8891.47837537 0 -69.61941993 0 2509.84621717 0 283.11377370 0 1639.99970100 0 30852
0.17050000 0.17049200 8911.53169628 0 -22.27245017 0 2334.42462186 0 36.70375961 0 976.78444690 0 31257
0.17150000 0.17149500 8926.68409346 0 48.49183003 0 2530.86623403 0 216.02507388 0 1184.58473663 0 32608
0.17250000 0.17250900 8847.16773019 0 125.11406296 0 2262.69802955 0 -28.33992862 0 1070.91702831 0 32361
0.17350000 0.17350400 8769.06768891 0 128.20749004 0 2449.52888535 0 5.71218396 0 943.12993861 0 32508
0.17450000 0.17449800 8746.91236632 0 217.50321945 0 2444.44811121 0 -68.01301853 0 831.07975993 0 32791
0.17550000 0.17549800 8499.75293805 0 177.23358821 0 2367.66322607 0 -22.32752936 0 513.70897906 0 33633
0.17650000 0.17650100 8418.71908693 0 214.43114960 0 2537.67806838 0 35.84463668 0 889.86948731 0 33984
0.17750000 0.17750300 8230.06724571 0 180.57880586 0 2212.60968989 0 77.21551447 0 454.84618744 0 34069
0.17850000 0.17849800 8081.29723329 0 224.92429706 0 2091.06453353 0 162.56678713 0 316.45354377 0 34536
