### header ###
fiducial parameters:
Omega_m = 0.31
Omega_nu = 0
Omega_de = 0.69
Omega_k = 0
H_0 = 100
w_de = -1
zeff = 0
beta = 0
fgrowth = 0
b_1 = 2
gamma = 0.55
Lx = 3500 Ly = 3500 Lz = 3500
nx = 700 ny = 700 nz = 700
xoffset = 857.220397 yoffset = 15.9954215 zoffset = 262.898189
bins = 400 dk = 0.001
kx_ny = 0.628318531 ky_ny = 0.628318531 kz_ny = 0.628318531
############################
A(data) = 3.06527815 (not used)
A(ran) = 3.06719924 (used)
Ngal = 187298
weighted Ngal = 0
Nran = 9360983
weighted Nran = 0
SN(data) = 3439.5017
SN(ran) = 68.8777678
SN(data+ran) = 3508.37947
############################
13 columns: k_central k_mean P_0(k) sigma^{lin}_{P_0(k)} P^img_1(k) sigma^{lin}_{P_1(k)} P_2(k) sigma^{lin}_{P_2(k)} P^img_3(k) sigma^{lin}_{P_3(k)} P_4(k) sigma^{lin}_{P_4(k)} N_modes
### header ###
0.00050000 0 0 0 0 0 0 0 0 0 0 0 0
0.00150000 0.00179520 -2767.05478719 0 -2863.49957047 0 -5491.78852439 0 3926.93257352 0 1763.10730781 0 3
0.00250000 0.00253879 1167.62259468 0 -9631.90003902 0 -10038.54181987 0 7371.30401116 0 1443.73793924 0 6
0.00350000 0.00331552 10359.95698687 0 -20397.62203598 0 -18093.62585565 0 -558.63223970 0 -9990.56672255 0 7
0.00450000 0.00420575 28692.54783641 0 -32822.25050846 0 -28542.70996216 0 2008.50195391 0 -6556.61536813 0 24
0.00550000 0.00557378 66254.19391258 0 -33257.03887874 0 -47986.45037711 0 -9256.84448673 0 -13608.26899446 0 45
0.00650000 0.00659388 93721.73563232 0 -24910.40608495 0 -30346.49718496 0 -42540.57991096 0 -9753.56884253 0 40
0.00750000 0.00754703 94384.48439942 0 5791.43055092 0 -24158.96858358 0 -57505.37063563 0 -3903.06867202 0 57
0.00850000 0.00846663 94028.49299077 0 16876.60060100 0 -12396.18962614 0 -38258.11679546 0 13293.19355447 0 75
0.00950000 0.00948925 81544.73869544 0 8218.83783563 0 5143.92410621 0 -10921.64106325 0 34271.50760721 0 112
0.01050000 0.01054430 76478.01537844 0 969.80737499 0 7024.13651334 0 19037.61570404 0 4413.42793716 0 105
0.01150000 0.01145670 89672.06639347 0 -15981.61998980 0 7126.49387889 0 26277.49402685 0 -11041.34275288 0 144
0.01250000 0.01249090 95155.93025909 0 -6056.82231468 0 15187.35560915 0 1221.94865966 0 -20446.51886666 0 169
0.01350000 0.01339930 108071.55035550 0 10788.64168380 0 24197.41160908 0 -19929.78615255 0 -15365.29511022 0 180
0.01450000 0.01448870 90812.76762965 0 14104.31891122 0 39576.19550018 0 -21972.09998387 0 1662.81822198 0 267
0.01550000 0.01550050 70523.73027973 0 16135.95412434 0 14622.96253595 0 -16479.01878465 0 -20196.30198139 0 238
0.01650000 0.01653350 76172.60689808 0 1592.69904272 0 48749.57815524 0 15534.46690372 0 3676.08621181 0 315
0.01750000 0.01747870 61751.97607529 0 825.00531227 0 36058.54626042 0 12742.28926214 0 -29093.50184798 0 297
0.01850000 0.01844180 73829.15603369 0 -2356.24272493 0 23119.32079747 0 24415.81745279 0 -5660.93783659 0 388
0.01950000 0.01947590 64885.86949910 0 -1189.23836604 0 9910.85926821 0 3373.44293153 0 -22846.51020423 0 399
0.02050000 0.02045430 68581.00861389 0 -221.88932136 0 3228.74203467 0 -1665.59466272 0 -20208.77910370 0 462
0.02150000 0.02154770 67803.15558331 0 935.23562960 0 6101.68375175 0 -9627.17896572 0 -20684.25862962 0 571
0.02250000 0.02255340 60536.41210525 0 654.57456589 0 -346.19180934 0 -8328.40045830 0 -20127.95882494 0 510
0.02350000 0.02348930 64737.60531595 0 2051.73349663 0 10266.06383131 0 -8275.56939987 0 -13962.91152502 0 555
0.02450000 0.02439640 63397.04530978 0 3007.05392095 0 10250.11334793 0 -2144.15412694 0 -25492.67179281 0 592
0.02550000 0.02547300 60670.06344244 0 1274.85840266 0 13377.72324797 0 3580.41703344 0 -11834.60671562 0 837
0.02650000 0.02652900 60929.83488083 0 1150.55928687 0 15125.98165616 0 3247.57012464 0 -17817.78028671 0 723
0.02750000 0.02749970 59597.14333016 0 2737.23334081 0 16421.69146592 0 -2146.05379691 0 -10147.10402463 0 826
0.02850000 0.02848090 58348.41944046 0 4053.40113490 0 24885.78905985 0 -4286.25121479 0 -10715.98211747 0 831
0.02950000 0.02946900 56823.17554277 0 3430.73652830 0 23429.56275765 0 -6220.22765436 0 -3499.49558883 0 996
0.03050000 0.03053250 54822.00249313 0 2576.21101908 0 28473.01792763 0 -1973.74586185 0 -7311.91965335 0 1041
0.03150000 0.03150510 53657.69589042 0 1202.99692253 0 27970.44843345 0 2554.37043471 0 -11737.37508679 0 1036
0.03250000 0.03246190 50963.08709718 0 188.34497145 0 25569.33303080 0 1848.56997531 0 -15545.03311541 0 1059
0.03350000 0.03345080 52336.69461651 0 684.09588690 0 21851.93742755 0 4365.59896830 0 -20068.49578258 0 1302
0.03450000 0.03451200 49435.59506935 0 1383.24075700 0 15519.51683825 0 1721.12347733 0 -20936.04920599 0 1339
0.03550000 0.03553350 48796.67648180 0 737.92511512 0 14372.07121163 0 -2641.96882586 0 -20345.57782309 0 1365
0.03650000 0.03647120 48939.99477862 0 1105.38423565 0 14978.27950555 0 -914.89342397 0 -19344.48546899 0 1308
0.03750000 0.03744890 48544.66109241 0 310.49262669 0 13626.25403563 0 -1139.64461501 0 -18260.66192551 0 1579
0.03850000 0.03847530 48682.92109640 0 837.60270955 0 19464.87283832 0 -2591.00371545 0 -15690.37472936 0 1662
0.03950000 0.03950240 47453.98075198 0 1518.62315441 0 17573.29613331 0 -1192.81289297 0 -16141.46204320 0 1683
0.04050000 0.04050350 48469.01151299 0 850.75202277 0 21941.75022689 0 299.89831337 0 -12470.15310795 0 1822
0.04150000 0.04152450 46591.59802790 0 977.95572270 0 20497.32660796 0 574.13309706 0 -11744.00707072 0 1887
0.04250000 0.04250150 47633.94357018 0 928.11130517 0 21226.84484040 0 1222.97155888 0 -15746.12835699 0 1920
0.04350000 0.04349210 44901.22897097 0 269.38107070 0 17998.86716998 0 161.56861735 0 -16880.75964177 0 2005
0.04450000 0.04448520 45567.46233980 0 1908.98847299 0 19045.70897256 0 643.64640525 0 -17105.68506290 0 2151
0.04550000 0.04548030 43397.22990317 0 1696.24791726 0 15927.77727280 0 1748.67431227 0 -15436.22361633 0 2274
0.04650000 0.04648670 42974.58143568 0 1157.19127080 0 15424.08371354 0 1513.95828435 0 -12176.99693688 0 2311
0.04750000 0.04749250 41993.60984639 0 -1105.63602623 0 13093.89681701 0 5253.14950937 0 -11081.46063534 0 2568
0.04850000 0.04851840 44276.47360334 0 -1144.50057613 0 9374.17439906 0 5256.30813222 0 -10840.96691295 0 2493
0.04950000 0.04949480 43873.27146162 0 -1273.36339611 0 6094.77075155 0 4698.18734213 0 -9403.99584545 0 2644
0.05050000 0.05050630 43743.89157171 0 1403.57509418 0 6478.53780816 0 1226.96198989 0 -10898.85626421 0 2829
0.05150000 0.05149060 42644.66833673 0 1404.54179014 0 3742.10255355 0 -924.65592913 0 -7575.97377967 0 2784
0.05250000 0.05249300 40585.38112281 0 2159.91351926 0 6868.77947958 0 -2663.16869314 0 -7816.01787603 0 3055
0.05350000 0.05348950 39539.88819832 0 1292.60739016 0 5399.86248271 0 -2301.21973960 0 -9759.35777766 0 3009
0.05450000 0.05448610 37449.57678838 0 1331.01669371 0 6850.88436362 0 -2421.11252030 0 -7513.32963315 0 3336
0.05550000 0.05550870 37037.60693909 0 1749.48363912 0 8509.00399360 0 -1249.24095964 0 -8397.44053509 0 3349
0.05650000 0.05647670 36045.61951208 0 1244.35127657 0 10689.81388257 0 -2413.97470708 0 -7570.71315513 0 3324
0.05750000 0.05747970 34574.78036393 0 1637.80777411 0 12324.69908749 0 334.75332316 0 -6885.01097924 0 3639
0.05850000 0.05849280 33421.26478592 0 1596.17240380 0 13103.00174410 0 240.87702858 0 -3672.71401659 0 3846
0.05950000 0.05951020 32490.42649889 0 829.08229629 0 13406.16209432 0 2259.22466847 0 -2294.86877194 0 3787
0.06050000 0.06049470 32311.47533925 0 574.40399674 0 14590.70186835 0 1568.18318348 0 -775.94324403 0 3930
0.06150000 0.06148310 31943.90606035 0 -417.11806733 0 12021.76355029 0 3385.31305870 0 -581.36420768 0 4083
0.06250000 0.06249100 31677.72745104 0 -773.88620494 0 12020.18985919 0 2483.99272049 0 -914.77314901 0 4303
0.06350000 0.06350600 33418.56702974 0 -1016.25824007 0 9406.37886341 0 1921.51055791 0 581.02698815 0 4470
0.06450000 0.06451750 33262.65920411 0 -247.52025316 0 9032.98692742 0 2019.06816560 0 -2038.10982794 0 4479
0.06550000 0.06550280 33422.83847702 0 885.39795645 0 8888.11742080 0 -1240.16975450 0 -1222.74674587 0 4636
0.06650000 0.06648880 32299.33543646 0 1733.29710207 0 8864.21979735 0 -926.24872934 0 -895.40550780 0 4653
0.06750000 0.06749660 30434.51148019 0 1721.42697490 0 9755.71580682 0 -708.62860712 0 -1218.40785468 0 5220
0.06850000 0.06852730 29755.57617604 0 899.39256661 0 9577.50653014 0 159.30699842 0 875.18245307 0 5029
0.06950000 0.06949320 28995.70818662 0 -17.68030713 0 10420.69022277 0 1448.21171823 0 -3206.89020965 0 5040
0.07050000 0.07048030 29360.24248983 0 -212.55171280 0 9900.69771995 0 780.36306789 0 629.45845589 0 5475
0.07150000 0.07148790 29505.24688426 0 157.46353170 0 11264.25609753 0 -116.08669636 0 -1004.31504867 0 5509
0.07250000 0.07249820 28995.59578011 0 976.71812706 0 11592.93272490 0 -535.81484278 0 1021.38847306 0 5916
0.07350000 0.07351270 28682.31884424 0 1147.49058922 0 11536.27984522 0 -669.41896924 0 975.62328768 0 5721
0.07450000 0.07449140 27259.36486820 0 945.58040047 0 14354.98542252 0 -1442.87240913 0 1234.05484050 0 6028
0.07550000 0.07549160 27336.92535825 0 544.12955213 0 12853.90892390 0 -457.17187808 0 976.60347242 0 6183
0.07650000 0.07648840 26981.49598213 0 111.70261776 0 15579.42950665 0 -911.18288517 0 -503.23044445 0 6330
0.07750000 0.07749960 27773.28741963 0 187.15795874 0 14981.42688776 0 -679.40403929 0 331.93529202 0 6583
0.07850000 0.07848650 27202.71198852 0 227.34328510 0 15631.36131302 0 -38.32601033 0 -1013.41435543 0 6549
0.07950000 0.07947320 27684.82349837 0 62.03344197 0 14844.96538788 0 -301.02575064 0 -1513.92456240 0 6828
0.08050000 0.08048110 26744.43065822 0 441.20340965 0 14341.15942212 0 1412.25287654 0 -3915.38842522 0 7147
0.08150000 0.08149960 26596.84091412 0 523.97506537 0 13248.11854504 0 2080.19482428 0 -3751.99432620 0 7386
0.08250000 0.08250610 25721.98106773 0 632.71487241 0 11486.93338851 0 2529.34874619 0 -4340.13889439 0 7227
0.08350000 0.08350160 24516.19646381 0 810.32727055 0 10590.69382442 0 2085.90507485 0 -4422.61154881 0 7798
0.08450000 0.08449610 24111.42063099 0 767.88032526 0 8404.35353529 0 2036.26636122 0 -3735.25699726 0 7371
0.08550000 0.08548940 22975.32806161 0 468.31698328 0 7733.44405576 0 1948.61176682 0 -3770.87861942 0 8256
0.08650000 0.08650700 22307.52100168 0 787.43006501 0 6115.66712126 0 1060.79819452 0 -1811.70064092 0 8037
0.08750000 0.08749060 21978.39474828 0 443.38409589 0 6694.13348918 0 1324.37346913 0 -1048.53464458 0 8155
0.08850000 0.08849210 21704.90971599 0 450.58148455 0 6407.44069228 0 1511.22680623 0 1717.21173087 0 8718
0.08950000 0.08949900 20968.08506058 0 486.24694526 0 5650.34914360 0 351.34901990 0 837.08901181 0 8571
0.09050000 0.09049190 20704.04217491 0 443.58979980 0 6184.94325171 0 393.60824632 0 1200.13055660 0 8932
0.09150000 0.09150830 20132.45508523 0 449.11345557 0 6051.59541209 0 -283.61960298 0 403.98786321 0 9285
0.09250000 0.09250820 19620.33103793 0 390.22593452 0 6281.88262362 0 -1149.39025920 0 -832.32409996 0 9204
0.09350000 0.09350330 19281.76263791 0 55.88963950 0 6261.40215799 0 -481.55397358 0 -915.95903766 0 9349
0.09450000 0.09448040 19417.66210525 0 -4.45144382 0 6185.48280295 0 -76.01838517 0 -2370.75440502 0 9564
0.09550000 0.09549270 19586.83389875 0 -44.17845513 0 5918.47238548 0 580.81903612 0 -2572.90626777 0 10155
0.09650000 0.09649430 19426.09259330 0 84.41346517 0 5209.14236176 0 939.90049965 0 -2687.26864831 0 9913
0.09750000 0.09749140 19319.64363088 0 427.64943300 0 5157.16559278 0 753.45295004 0 -1659.01888204 0 10476
0.09850000 0.09850240 19208.81081467 0 579.46341364 0 4650.08859765 0 618.52917119 0 -844.27965608 0 10575
0.09950000 0.09950330 18389.47978289 0 646.81289656 0 5786.70947762 0 245.44972530 0 668.39607003 0 10882
0.10050000 0.10051200 18157.80997132 0 566.33320952 0 5165.56235887 0 258.92951365 0 1529.98745230 0 10875
0.10150000 0.10150300 17728.52951990 0 477.78273526 0 6638.40234285 0 616.70481357 0 2336.86384307 0 11118
0.10250000 0.10250800 17359.38654990 0 405.75039724 0 6130.12259810 0 540.20319283 0 3314.14849892 0 11575
0.10350000 0.10349800 17049.59421575 0 199.39115893 0 6620.17000737 0 486.67633811 0 2972.07301588 0 11364
0.10450000 0.10450100 16943.37006634 0 187.45471192 0 6696.41534127 0 622.51510594 0 3883.83591862 0 12093
0.10550000 0.10551000 16629.98072396 0 259.72310360 0 5130.99735787 0 410.48945559 0 3192.88435884 0 12067
0.10650000 0.10649700 16541.40439620 0 179.84254324 0 6329.95888679 0 125.30627809 0 3743.05800886 0 12054
0.10750000 0.10749900 16486.10039461 0 206.81560873 0 4781.37939819 0 -504.41520903 0 1909.23576731 0 12807
0.10850000 0.10850100 16407.97787203 0 47.06966290 0 5284.91558833 0 -1035.70906209 0 1234.79672345 0 12736
0.10950000 0.10950300 16482.27857336 0 157.65462276 0 5223.75520771 0 -1091.90444729 0 211.34221878 0 12933
0.11050000 0.11050200 16348.96445569 0 149.40510919 0 5371.12013879 0 -732.98372506 0 -368.24709014 0 13428
0.11150000 0.11150900 16476.99546752 0 80.29938700 0 5633.63429596 0 243.49272800 0 -124.56102295 0 13453
0.11250000 0.11250000 16490.14702887 0 14.21391526 0 5551.92600580 0 781.29266971 0 -1240.45077077 0 13668
0.11350000 0.11349100 16307.93608052 0 134.24371949 0 5044.95017653 0 1257.14313710 0 92.47166286 0 13791
0.11450000 0.11448600 16019.61338927 0 349.76408815 0 5137.58437920 0 983.42767148 0 -69.72777980 0 14205
0.11550000 0.11549300 15623.94248354 0 476.75309165 0 4919.26846071 0 544.09470611 0 938.60332856 0 14776
0.11650000 0.11649800 15155.65697409 0 361.15199140 0 5242.89803590 0 432.58520273 0 1287.21187781 0 14553
0.11750000 0.11747300 14923.76234951 0 317.47981518 0 4409.53867201 0 368.18077030 0 940.10058324 0 14568
0.11850000 0.11849100 14533.71176914 0 105.49058454 0 4566.97522615 0 411.39994830 0 1734.54481430 0 16015
0.11950000 0.11950300 14427.37521323 0 141.56700344 0 3716.45138858 0 860.83938274 0 452.76891518 0 15270
0.12050000 0.12050700 14303.39083566 0 107.11306007 0 3894.14359534 0 626.90345598 0 1668.70832297 0 15999
0.12150000 0.12150000 14186.03844203 0 164.78344346 0 3237.46477964 0 288.92743826 0 677.57518541 0 15670
0.12250000 0.12250700 14025.85916912 0 129.49566862 0 3977.68411157 0 320.88011203 0 2143.15370902 0 16887
0.12350000 0.12352200 13989.43946075 0 75.20782185 0 3208.63251051 0 36.36687731 0 1243.31713670 0 16407
0.12450000 0.12449800 14101.17152901 0 -2.14120908 0 3925.33640112 0 321.15438391 0 2899.13243328 0 16306
0.12550000 0.12549900 14001.69177004 0 -27.91806700 0 3203.13583230 0 423.24422197 0 2023.32837223 0 17523
0.12650000 0.12650100 14046.54196646 0 42.92399851 0 3399.11657780 0 435.00081857 0 2587.74392673 0 17154
0.12750000 0.12750600 14136.12995279 0 57.99355210 0 3061.98698107 0 127.51394189 0 1811.36342139 0 18007
0.12850000 0.12850300 13845.10950536 0 174.65385886 0 2652.17533672 0 93.66463313 0 1401.31572338 0 17496
0.12950000 0.12949900 13799.80968292 0 208.34883349 0 2985.39318699 0 -334.67351454 0 1365.05338412 0 18405
0.13050000 0.13049000 13503.61853615 0 211.24779732 0 3214.42144564 0 -477.09705556 0 865.57057263 0 18100
0.13150000 0.13148800 13453.48523389 0 324.79410661 0 3517.03100397 0 -466.70057770 0 1290.67399823 0 19059
0.13250000 0.13249300 13151.78616827 0 298.25942650 0 3267.63468620 0 -260.05695092 0 587.46001257 0 18957
0.13350000 0.13349100 13104.91265473 0 303.88649625 0 3846.65184600 0 66.77193829 0 916.70654093 0 19468
0.13450000 0.13450700 12809.95797954 0 253.91505936 0 3551.38243260 0 180.86769059 0 859.36910562 0 19953
0.13550000 0.13551000 12561.87681791 0 386.17255586 0 3667.26230099 0 150.44262125 0 642.88091693 0 19956
0.13650000 0.13649900 12310.76068058 0 298.47524699 0 3894.67190592 0 110.19637056 0 531.44672591 0 19723
0.13750000 0.13749600 11940.60605201 0 272.98145113 0 3505.22832070 0 87.74429479 0 330.98433297 0 20946
0.13850000 0.13851100 11877.88322093 0 62.31805525 0 3870.52698815 0 148.21584834 0 874.39560752 0 20955
0.13950000 0.13949800 11904.63596967 0 -32.42556794 0 3899.73019875 0 -73.17787273 0 1377.74407880 0 20506
0.14050000 0.14048300 11908.45779092 0 24.46966017 0 4026.81699592 0 320.74410015 0 1043.22006491 0 21447
0.14150000 0.14148400 12018.05413555 0 118.01334389 0 4101.29754766 0 30.57906625 0 1807.02453021 0 21771
0.14250000 0.14249400 11777.50420990 0 246.21184142 0 4112.29090408 0 33.71599465 0 1819.68150294 0 22470
0.14350000 0.14350900 11670.38080844 0 276.26034895 0 4185.56870619 0 266.61137436 0 2080.10489907 0 22519
0.14450000 0.14449900 11335.29701015 0 330.34024368 0 3694.09373428 0 281.77276407 0 2127.09081913 0 22218
0.14550000 0.14550500 11031.82192171 0 154.07447550 0 3710.58376890 0 506.12153981 0 1609.98716355 0 23559
0.14650000 0.14650700 10977.41717217 0 142.78886217 0 3355.30052125 0 357.58758105 0 1796.44707787 0 23044
0.14750000 0.14750500 10784.21286741 0 130.93896817 0 3121.56242995 0 468.75649272 0 1648.23909799 0 23649
0.14850000 0.14849900 10690.00497363 0 68.92418568 0 2952.43559905 0 86.43925524 0 1273.55448717 0 23640
0.14950000 0.14949500 10643.67101132 0 49.48123211 0 2947.87189485 0 33.47825489 0 1381.25116182 0 24457
0.15050000 0.15050000 10812.53930725 0 2.66695679 0 3055.08522153 0 124.68467010 0 1296.69898703 0 24591
0.15150000 0.15149900 10661.70101509 0 55.48227832 0 2929.50467156 0 -303.18957591 0 1475.44781495 0 25020
0.15250000 0.15250500 10711.31724742 0 104.42733139 0 3270.87199361 0 117.59968795 0 1343.58374122 0 25297
0.15350000 0.15350100 10617.26672275 0 170.69939794 0 3262.94733484 0 19.57885304 0 1314.59410299 0 25452
0.15450000 0.15450400 10590.89615614 0 157.85807854 0 3432.69240153 0 338.53018180 0 1534.74224756 0 26061
0.15550000 0.15549900 10381.23553870 0 92.27090484 0 3242.64671962 0 250.70135732 0 1513.56486158 0 26128
0.15650000 0.15649500 10308.62093498 0 165.72653405 0 3269.10721144 0 274.27974629 0 1806.81095785 0 26331
0.15750000 0.15749700 10148.47538402 0 216.40163568 0 3357.14398797 0 16.35885623 0 1728.57602876 0 27345
0.15850000 0.15849900 9999.18830166 0 327.22321123 0 3481.37565985 0 34.43899330 0 2288.67517338 0 26980
0.15950000 0.15949700 9583.73385064 0 315.56665643 0 3367.49662729 0 -157.10495494 0 1989.79751110 0 27777
0.16050000 0.16050000 9543.36867387 0 237.82856410 0 3517.62675845 0 146.32292276 0 2431.02677424 0 28224
0.16150000 0.16150500 9193.84063938 0 74.54867009 0 2984.75246990 0 296.09222904 0 1819.90631595 0 28075
0.16250000 0.16249700 9217.10878640 0 107.43679081 0 3070.04652765 0 373.86853957 0 1864.11579528 0 28590
0.16350000 0.16349900 9110.32260445 0 -58.65989787 0 2487.10638074 0 251.94007703 0 1715.25585764 0 29163
0.16450000 0.16449100 9144.38177617 0 16.85951481 0 2411.81650214 0 90.73936618 0 1209.58394386 0 28996
0.16550000 0.16550500 9137.72731094 0 -5.75793341 0 2028.15061139 0 105.80678405 0 1339.89680778 0 30777
0.16650000 0.16650700 9041.68719109 0 64.55842934 0 1745.17846989 0 73.90806540 0 466.24533135 0 29211
0.16750000 0.16749900 9105.83758481 0 116.66671394 0 1761.03902807 0 -165.40392738 0 925.41354899 0 30922
0.16850000 0.16850800 8923.31189824 0 275.49823283 0 1725.61973762 0 -121.09215813 0 255.17850850 0 30867
0.16950000 0.16949900 8677.11916593 0 285.50915637 0 1799.54949748 0 -189.64776287 0 271.86300638 0 30852
0.17050000 0.17049200 8390.34768448 0 286.65907494 0 1906.62793634 0 -269.20009623 0 -53.80112659 0 31257
0.17150000 0.17149500 8251.75046097 0 156.59013314 0 1998.16055524 0 -33.15486136 0 -145.04036451 0 32608
0.17250000 0.17250900 8064.60486695 0 101.58659414 0 1987.08851427 0 37.02164522 0 -292.16249754 0 32361
0.17350000 0.17350400 8177.97807022 0 37.86064739 0 2350.07160768 0 82.60046061 0 -226.77226004 0 32508
0.17450000 0.17449800 8042.17976874 0 32.14522611 0 2121.52669702 0 122.41068646 0 -109.60949619 0 32791
0.17550000 0.17549800 8099.37219966 0 31.62467158 0 2209.32741987 0 228.27176285 0 112.93706602 0 33633
0.17650000 0.17650100 8025.08273898 0 21.15243173 0 2149.69576775 0 206.82235312 0 440.64587337 0 33984
0.17750000 0.17750300 8077.26183967 0 69.07256227 0 2159.52009649 0 369.57461099 0 648.07634570 0 34069
