### header ###
fiducial parameters:
Omega_m = 0.31
Omega_nu = 0
Omega_de = 0.69
Omega_k = 0
H_0 = 100
w_de = -1
zeff = 0
beta = 0
fgrowth = 0
b_1 = 2
gamma = 0.55
Lx = 3500 Ly = 3500 Lz = 3500
nx = 700 ny = 700 nz = 700
xoffset = 857.220397 yoffset = 15.9954215 zoffset = 262.898189
bins = 400 dk = 0.001
kx_ny = 0.628318531 ky_ny = 0.628318531 kz_ny = 0.628318531
############################
A(data) = 3.09710854 (not used)
A(ran) = 3.09497871 (used)
Ngal = 188591
weighted Ngal = 0
Nran = 9360983
weighted Nran = 0
SN(data) = 3460.09616
SN(ran) = 69.5015903
SN(data+ran) = 3529.59775
############################
13 columns: k_central k_mean P_0(k) sigma^{lin}_{P_0(k)} P^img_1(k) sigma^{lin}_{P_1(k)} P_2(k) sigma^{lin}_{P_2(k)} P^img_3(k) sigma^{lin}_{P_3(k)} P_4(k) sigma^{lin}_{P_4(k)} N_modes
### header ###
0.00050000 0 0 0 0 0 0 0 0 0 0 0 0
0.00150000 0.00179520 36511.20726536 0 -52181.79844944 0 -43322.25476279 0 108988.22542262 0 -33978.12662313 0 3
0.00250000 0.00253879 70325.10798131 0 -61050.22225016 0 -18320.79940692 0 -57330.12889074 0 34977.98250565 0 6
0.00350000 0.00331552 91077.59736087 0 -41298.15078566 0 -42085.33355635 0 -44065.37418262 0 -23754.08034425 0 7
0.00450000 0.00420575 111615.95234400 0 -16310.85864971 0 -39113.19309657 0 -67693.33442567 0 12088.08338960 0 24
0.00550000 0.00557378 95363.65748460 0 19975.76041404 0 -30091.67163289 0 -82297.86229442 0 15065.05732920 0 45
0.00650000 0.00659388 93944.41292330 0 23971.36212288 0 -8200.92023836 0 -56184.48176823 0 -6104.56135834 0 40
0.00750000 0.00754703 59022.63367130 0 20325.34465178 0 -2578.06572645 0 -31361.64035248 0 3312.41743871 0 57
0.00850000 0.00846663 55426.97431547 0 11875.52268428 0 16432.93211665 0 -21923.76518573 0 -16991.59245798 0 75
0.00950000 0.00948925 46284.50344993 0 -967.53114321 0 29213.66440429 0 -2900.30146096 0 3384.23395623 0 112
0.01050000 0.01054430 57126.78551901 0 -3520.70669676 0 14140.96343260 0 15830.77045699 0 -19118.54838930 0 105
0.01150000 0.01145670 58377.98235188 0 -7661.52637239 0 25714.11261222 0 14695.91435919 0 -12080.43974710 0 144
0.01250000 0.01249090 67932.08584719 0 -8448.19207314 0 17257.32144126 0 4173.09158388 0 -17344.54889093 0 169
0.01350000 0.01339930 76735.76349971 0 -9830.71342850 0 35524.72775721 0 -11674.53984921 0 -3175.30398109 0 180
0.01450000 0.01448870 76556.69993356 0 331.84199462 0 18314.50464251 0 -11637.10848227 0 -20364.79933584 0 267
0.01550000 0.01550050 85143.09580744 0 999.83789748 0 30626.05216864 0 -18193.66764715 0 -24901.41356436 0 238
0.01650000 0.01653350 75847.52727894 0 6629.48850682 0 23576.81528222 0 -10226.30564968 0 -25593.61283638 0 315
0.01750000 0.01747870 75303.03015753 0 7398.68623634 0 26043.80089816 0 -8254.43697649 0 -30486.21847355 0 297
0.01850000 0.01844180 68764.11881430 0 1967.69839176 0 15610.11648314 0 14662.08000049 0 -38268.34578763 0 388
0.01950000 0.01947590 65314.58791798 0 98.96763492 0 10191.88677714 0 16615.03065849 0 -41651.55684464 0 399
0.02050000 0.02045430 67880.94088637 0 -2829.86754348 0 2445.30240067 0 2486.60055146 0 -43028.76137220 0 462
0.02150000 0.02154770 70371.08224280 0 -938.57185474 0 4035.66338804 0 -2061.65899122 0 -44923.26064641 0 571
0.02250000 0.02255340 67670.06627865 0 4654.53989534 0 3362.28096535 0 -12536.02332123 0 -30600.08626546 0 510
0.02350000 0.02348930 64495.14447969 0 5186.24515622 0 362.86169438 0 -10113.86542042 0 -14290.57649383 0 555
0.02450000 0.02439640 63996.84643278 0 2530.91119664 0 15552.78916441 0 -7412.97310342 0 -18970.50901917 0 592
0.02550000 0.02547300 62552.76003337 0 -754.90749025 0 12369.43687740 0 9108.91752311 0 -14926.46010568 0 837
0.02650000 0.02652900 62065.70263720 0 -1812.95959380 0 16155.73766962 0 6064.25238481 0 -21751.22119700 0 723
0.02750000 0.02749970 61997.47188726 0 -594.45394545 0 10246.07795431 0 2646.75734307 0 -11526.72529209 0 826
0.02850000 0.02848090 62092.56779244 0 3205.88979173 0 14070.14733300 0 -1968.38407146 0 -18802.12407122 0 831
0.02950000 0.02946900 62705.07085078 0 3042.04606668 0 23394.71674038 0 -3747.55426916 0 5127.90617892 0 996
0.03050000 0.03053250 60031.36966790 0 1610.99882211 0 21038.56394066 0 822.36937967 0 7051.10283444 0 1041
0.03150000 0.03150510 60127.81445117 0 1978.17467824 0 28587.22293906 0 7095.75069914 0 11646.77544190 0 1036
0.03250000 0.03246190 57721.86556871 0 2076.96875752 0 25121.61791218 0 5332.45230027 0 6864.18205343 0 1059
0.03350000 0.03345080 58353.14051377 0 2641.04709250 0 33798.61343096 0 3689.44010488 0 11027.26945816 0 1302
0.03450000 0.03451200 55333.90172742 0 1755.18264904 0 29631.47939197 0 -3063.56067218 0 17059.59839490 0 1339
0.03550000 0.03553350 55184.62588571 0 1400.07925180 0 36465.45781689 0 -2013.58272805 0 15382.83052536 0 1365
0.03650000 0.03647120 55384.70946872 0 358.55202889 0 32899.58618549 0 -2411.02965659 0 10389.78967391 0 1308
0.03750000 0.03744890 57252.79321371 0 952.00218423 0 41452.70973321 0 1405.63213326 0 8101.35055419 0 1579
0.03850000 0.03847530 56273.39531552 0 673.68367213 0 40710.60197195 0 -866.33156468 0 11107.49398243 0 1662
0.03950000 0.03950240 57367.11063164 0 1100.48893226 0 38970.88645832 0 2563.71141547 0 2581.69645664 0 1683
0.04050000 0.04050350 55668.87311920 0 1703.85783780 0 35640.95608577 0 3843.66183291 0 1124.15499830 0 1822
0.04150000 0.04152450 53216.61275573 0 1977.64636766 0 31328.03080679 0 4256.04758628 0 -1927.29949303 0 1887
0.04250000 0.04250150 51928.99621450 0 2292.98034261 0 32468.39482345 0 2594.38715132 0 -2701.12837066 0 1920
0.04350000 0.04349210 48745.08189494 0 2008.43451001 0 24739.88541336 0 5820.22909810 0 -7094.03087958 0 2005
0.04450000 0.04448520 46919.71262274 0 2846.85216673 0 26744.31825171 0 3117.61696154 0 -3786.00853531 0 2151
0.04550000 0.04548030 43320.90588470 0 3194.64914100 0 21656.91213737 0 3832.76964235 0 -6601.15082633 0 2274
0.04650000 0.04648670 41263.75439442 0 2740.44816691 0 23653.70133322 0 2226.33452443 0 -4812.95438609 0 2311
0.04750000 0.04749250 39246.16999472 0 1519.75846013 0 21552.71130510 0 6018.36804853 0 -1168.03849876 0 2568
0.04850000 0.04851840 37713.84448707 0 569.81331499 0 18333.38893574 0 5268.48175696 0 1616.32689056 0 2493
0.04950000 0.04949480 37485.99649675 0 -9.21147722 0 15105.97329786 0 7939.02431698 0 1673.81157840 0 2644
0.05050000 0.05050630 37019.28467840 0 -154.11718998 0 12423.95403344 0 4973.66196959 0 1880.42597949 0 2829
0.05150000 0.05149060 36744.67558104 0 428.40817692 0 10190.69526816 0 2903.59497162 0 3290.32956002 0 2784
0.05250000 0.05249300 34837.36196501 0 201.23125345 0 6764.71353512 0 1920.73495301 0 533.67125069 0 3055
0.05350000 0.05348950 34430.90003458 0 598.92772444 0 5582.41065058 0 942.77810624 0 1536.45082647 0 3009
0.05450000 0.05448610 34949.20643978 0 33.81637366 0 4917.75097286 0 -39.16928394 0 1328.99337658 0 3336
0.05550000 0.05550870 33774.55843839 0 1093.97497516 0 5697.95329944 0 -721.98812052 0 1752.56357742 0 3349
0.05650000 0.05647670 33559.74960293 0 662.86117361 0 6715.47948491 0 -429.81101013 0 1297.29474151 0 3324
0.05750000 0.05747970 33662.60155711 0 458.24198802 0 8652.70447254 0 -695.51301585 0 1343.88723879 0 3639
0.05850000 0.05849280 33346.96408459 0 145.35173054 0 8079.08282509 0 -848.30718124 0 286.93784308 0 3846
0.05950000 0.05951020 33694.86222471 0 4.62724760 0 11153.10854310 0 -1542.47581526 0 246.31300727 0 3787
0.06050000 0.06049470 33235.23201632 0 53.86913253 0 10526.38606159 0 -1846.24316061 0 298.22345641 0 3930
0.06150000 0.06148310 34094.80457772 0 -261.16527908 0 14157.82440870 0 -436.84428529 0 -2160.84649327 0 4083
0.06250000 0.06249100 33294.69505869 0 841.76512251 0 11388.91491413 0 204.79229160 0 -4092.18137992 0 4303
0.06350000 0.06350600 32008.09017602 0 1416.46812056 0 12542.43049215 0 -446.81361843 0 -3892.52494163 0 4470
0.06450000 0.06451750 30769.14565245 0 1466.42157241 0 11201.25225018 0 252.67971185 0 -4841.97774628 0 4479
0.06550000 0.06550280 30323.11663144 0 267.98498188 0 11572.92436660 0 1807.91254162 0 -3828.81293329 0 4636
0.06650000 0.06648880 29880.68461867 0 -199.23603795 0 10680.90004654 0 838.89313625 0 -6189.12477379 0 4653
0.06750000 0.06749660 30153.38280541 0 -231.36294180 0 10605.30667037 0 248.79943921 0 -5659.54399590 0 5220
0.06850000 0.06852730 30122.02138987 0 417.23159790 0 9985.48594842 0 -1580.33432692 0 -5945.76468546 0 5029
0.06950000 0.06949320 30213.96991285 0 616.35185714 0 11340.80492900 0 -685.12103425 0 -3376.03952185 0 5040
0.07050000 0.07048030 30094.70660859 0 501.55109123 0 9659.38343006 0 -1006.56093068 0 -3586.77924175 0 5475
0.07150000 0.07148790 29754.22729795 0 427.04805818 0 11230.43297948 0 1489.07148364 0 -5382.02357000 0 5509
0.07250000 0.07249820 29627.88238373 0 471.24742092 0 11522.67865783 0 287.84046733 0 -3072.32837975 0 5916
0.07350000 0.07351270 28473.13033414 0 1138.44186538 0 10755.09958202 0 1447.71712960 0 -5264.71613897 0 5721
0.07450000 0.07449140 27951.45173371 0 1101.73102416 0 11012.64537156 0 372.61633108 0 -2329.28764448 0 6028
0.07550000 0.07549160 26381.47004611 0 720.13566128 0 9662.36220250 0 501.18239788 0 -2937.40684902 0 6183
0.07650000 0.07648840 26425.87061650 0 502.66616378 0 10841.30413247 0 400.01991350 0 -2113.07372767 0 6330
0.07750000 0.07749960 26048.29715845 0 3.26745484 0 8259.48402867 0 863.76644819 0 -3842.53776783 0 6583
0.07850000 0.07848650 25943.75910665 0 162.49372290 0 10070.42030534 0 130.85016703 0 -2904.78648060 0 6549
0.07950000 0.07947320 26222.97687081 0 -168.90539008 0 7979.45693766 0 1242.65393831 0 -2110.09495522 0 6828
0.08050000 0.08048110 25941.39857000 0 92.56046401 0 8815.97492441 0 1517.42040478 0 -2630.91926619 0 7147
0.08150000 0.08149960 25680.39066002 0 441.55186982 0 7347.79981049 0 633.51520674 0 -2572.27679133 0 7386
0.08250000 0.08250610 25397.35107462 0 385.51722593 0 8014.10062322 0 447.24750754 0 -1312.42465740 0 7227
0.08350000 0.08350160 24980.09811948 0 821.04972728 0 7163.23956613 0 270.96375433 0 -684.74559651 0 7798
0.08450000 0.08449610 24460.33042968 0 853.13166853 0 7906.86481524 0 160.02302787 0 824.00152216 0 7371
0.08550000 0.08548940 23930.78337374 0 325.61917038 0 6580.38934443 0 924.21979188 0 -854.07251100 0 8256
0.08650000 0.08650700 23516.34058129 0 625.04088016 0 7973.16217325 0 784.83347469 0 1183.15717399 0 8037
0.08750000 0.08749060 22523.56630873 0 717.85718137 0 6944.22672729 0 885.59579191 0 -305.69174476 0 8155
0.08850000 0.08849210 22067.64551508 0 782.63030715 0 7531.08986130 0 981.28183125 0 1855.21319990 0 8718
0.08950000 0.08949900 21934.44380392 0 675.11573103 0 7169.45564599 0 294.48031972 0 1106.28910803 0 8571
0.09050000 0.09049190 21094.09275527 0 542.85823453 0 8372.83475064 0 -139.90675932 0 2307.04239668 0 8932
0.09150000 0.09150830 21221.11210853 0 465.79570532 0 8795.58438399 0 -174.51784699 0 2921.98467622 0 9285
0.09250000 0.09250820 20767.32703852 0 74.09421058 0 8609.20315422 0 -419.88663960 0 2768.35870268 0 9204
0.09350000 0.09350330 20968.98431263 0 162.82419803 0 9343.98201120 0 554.72836170 0 3922.55996039 0 9349
0.09450000 0.09448040 20663.23861275 0 387.17747004 0 8913.86975163 0 378.24452490 0 2380.09538578 0 9564
0.09550000 0.09549270 20305.67351300 0 466.46564810 0 8929.62914395 0 1266.77637478 0 3452.65579723 0 10155
0.09650000 0.09649430 19495.89703434 0 648.06398098 0 8062.28929290 0 867.21283170 0 1360.04005389 0 9913
0.09750000 0.09749140 18910.37153776 0 532.97208221 0 7525.61566440 0 921.38714790 0 2514.25255225 0 10476
0.09850000 0.09850240 18267.29390944 0 418.16569597 0 7164.99310765 0 459.05243894 0 1350.35061296 0 10575
0.09950000 0.09950330 17974.13773838 0 352.90472596 0 6685.34330030 0 -41.34839649 0 1494.78173421 0 10882
0.10050000 0.10051200 17525.52336770 0 40.45813696 0 7001.10441999 0 226.23832913 0 1271.60985459 0 10875
0.10150000 0.10150300 17771.24399268 0 -19.33852792 0 6129.62800947 0 -297.81429673 0 188.40454690 0 11118
0.10250000 0.10250800 17601.84738617 0 166.48190578 0 6893.49767054 0 -224.29032436 0 375.29610222 0 11575
0.10350000 0.10349800 17536.20198590 0 311.46606704 0 6420.16510891 0 -302.66351345 0 -756.02481093 0 11364
0.10450000 0.10450100 17242.25896928 0 445.27252521 0 7292.49580889 0 143.76342659 0 -614.03853122 0 12093
0.10550000 0.10551000 16947.86632664 0 383.97388458 0 6825.17699540 0 -77.93727666 0 -618.63370924 0 12067
0.10650000 0.10649700 16431.69564507 0 210.41711323 0 6096.61421827 0 871.75180647 0 -1447.37991007 0 12054
0.10750000 0.10749900 16552.86985995 0 28.28732238 0 6152.77250932 0 853.65660692 0 -980.60289595 0 12807
0.10850000 0.10850100 16434.05618172 0 -23.83209046 0 5880.59139252 0 650.14799763 0 -960.03812544 0 12736
0.10950000 0.10950300 16607.16220298 0 50.39341092 0 5442.86921241 0 910.12626400 0 -158.62806312 0 12933
0.11050000 0.11050200 16409.32675012 0 51.44306288 0 4673.84009264 0 698.65140553 0 -18.82494259 0 13428
0.11150000 0.11150900 16387.63229420 0 87.58838697 0 4998.60497356 0 629.71474273 0 1360.36603277 0 13453
0.11250000 0.11250000 16481.26691479 0 36.10789272 0 4578.67674356 0 960.38433748 0 692.49714926 0 13668
0.11350000 0.11349100 16213.96424041 0 173.28699573 0 4556.61134617 0 437.77613524 0 1473.35705391 0 13791
0.11450000 0.11448600 15983.41849392 0 291.52065638 0 3715.68702433 0 259.10037154 0 523.86041073 0 14205
0.11550000 0.11549300 15797.72294384 0 292.55704438 0 4282.03597077 0 -68.12733595 0 1422.57179391 0 14776
0.11650000 0.11649800 15134.97417674 0 599.59991536 0 3951.47091407 0 -310.27006180 0 464.56710219 0 14553
0.11750000 0.11747300 15039.31623902 0 641.24877445 0 4909.68018563 0 -513.55835434 0 835.97281519 0 14568
0.11850000 0.11849100 14472.56262917 0 448.53456205 0 4880.29712462 0 -332.63221237 0 976.80355600 0 16015
0.11950000 0.11950300 14343.40755227 0 282.29995059 0 5624.02353959 0 141.75809450 0 1057.40239394 0 15270
0.12050000 0.12050700 14230.21419941 0 21.22144933 0 5309.20663456 0 412.93654525 0 1771.83005277 0 15999
0.12150000 0.12150000 14221.89611786 0 -194.16088414 0 5461.89963409 0 802.16993031 0 1268.92333907 0 15670
0.12250000 0.12250700 14347.22937352 0 44.42541223 0 4900.39540813 0 779.96514886 0 2374.12660024 0 16887
0.12350000 0.12352200 14125.45133459 0 194.20247455 0 4483.19865625 0 736.82015916 0 1607.58166429 0 16407
0.12450000 0.12449800 13985.84245251 0 126.48092609 0 3892.39005383 0 439.90848668 0 2093.18901652 0 16306
0.12550000 0.12549900 13573.08575767 0 260.32223028 0 3994.43268116 0 372.64106051 0 1433.46398447 0 17523
0.12650000 0.12650100 13575.55870083 0 221.98711503 0 3452.17244925 0 -341.68430840 0 1253.92831099 0 17154
0.12750000 0.12750600 13243.28506522 0 16.60401482 0 3770.46271535 0 -259.36115464 0 930.04020083 0 18007
0.12850000 0.12850300 13467.19882779 0 58.41507650 0 3668.00418393 0 -490.28683513 0 680.45504013 0 17496
0.12950000 0.12949900 13495.86248715 0 104.42036219 0 4082.91908372 0 -420.60941344 0 371.46079219 0 18405
0.13050000 0.13049000 13320.50833575 0 254.40852393 0 4222.56168775 0 -447.08901437 0 -591.53362439 0 18100
0.13150000 0.13148800 13253.62646390 0 371.25171608 0 4035.78703520 0 -536.55335354 0 -612.50530646 0 19059
0.13250000 0.13249300 12992.73096043 0 430.28311746 0 4474.13869176 0 -137.53273389 0 -1014.75761320 0 18957
0.13350000 0.13349100 12425.41531804 0 332.97168002 0 4204.10453925 0 -65.15564512 0 -1561.41631174 0 19468
0.13450000 0.13450700 12203.63727912 0 200.98845540 0 4179.38634829 0 389.98650866 0 -1336.10870849 0 19953
0.13550000 0.13551000 12117.42148801 0 184.47031915 0 3652.43588267 0 555.23531505 0 -1448.59390035 0 19956
0.13650000 0.13649900 11954.43205241 0 66.20091323 0 3387.96585227 0 685.09405669 0 -694.26193142 0 19723
0.13750000 0.13749600 11842.81239065 0 4.14169645 0 2933.12416109 0 1170.45523867 0 -471.94771346 0 20946
0.13850000 0.13851100 11817.97055253 0 36.90283154 0 2757.50023407 0 816.59842959 0 449.93289900 0 20955
0.13950000 0.13949800 11773.12035612 0 129.29446097 0 2171.14292934 0 772.59240604 0 468.25291157 0 20506
0.14050000 0.14048300 11581.01763513 0 198.58295614 0 2409.80442566 0 215.81487371 0 1062.03803830 0 21447
0.14150000 0.14148400 11353.05723830 0 232.77364347 0 2102.79977290 0 -102.30408487 0 605.51699390 0 21771
0.14250000 0.14249400 11228.56703146 0 123.90456894 0 2631.94216541 0 -250.85872643 0 980.42978993 0 22470
0.14350000 0.14350900 11151.72594306 0 88.62050352 0 2646.13910728 0 -626.49879256 0 599.63813357 0 22519
0.14450000 0.14449900 11420.95076872 0 26.74667879 0 3396.16028666 0 -692.50164552 0 223.71817524 0 22218
0.14550000 0.14550500 11297.86564321 0 166.90005799 0 3676.47963459 0 -589.65643572 0 352.27749765 0 23559
0.14650000 0.14650700 11262.56999992 0 227.85136251 0 4109.78423896 0 -419.00986884 0 269.64072974 0 23044
0.14750000 0.14750500 11122.79250808 0 216.17682266 0 4487.52630678 0 -165.28814867 0 936.68230135 0 23649
0.14850000 0.14849900 11143.95865340 0 218.54522777 0 4714.67737675 0 87.60513554 0 574.68388895 0 23640
0.14950000 0.14949500 10916.54904846 0 215.61141793 0 4687.27267027 0 420.26320140 0 1169.64591181 0 24457
0.15050000 0.15050000 10709.32765224 0 123.39761559 0 4508.43391714 0 470.48755293 0 990.03380191 0 24591
0.15150000 0.15149900 10599.96736128 0 75.36294283 0 4253.27114554 0 710.65866864 0 1525.61483916 0 25020
0.15250000 0.15250500 10542.15669457 0 112.17719803 0 3846.89914032 0 732.54983594 0 1492.15142194 0 25297
0.15350000 0.15350100 10387.76635678 0 40.41238751 0 3531.54268406 0 458.20489388 0 1317.98877951 0 25452
0.15450000 0.15450400 10427.31096605 0 119.87142346 0 3123.47334057 0 229.53746012 0 1690.25665042 0 26061
0.15550000 0.15549900 10148.27305230 0 108.96068583 0 3197.27945327 0 99.31721916 0 1341.41429563 0 26128
0.15650000 0.15649500 10201.09287009 0 94.39527542 0 3118.16775343 0 35.20380718 0 1695.03392698 0 26331
0.15750000 0.15749700 9997.69329511 0 40.35000190 0 2978.10924532 0 -121.06293244 0 802.49703325 0 27345
0.15850000 0.15849900 10133.82881611 0 75.67262275 0 2970.56676868 0 -249.61101420 0 503.65983730 0 26980
0.15950000 0.15949700 9990.13957782 0 66.16584240 0 2958.29197808 0 -194.25418154 0 -13.60568364 0 27777
0.16050000 0.16050000 9902.92336880 0 117.21525769 0 2650.53420172 0 -157.30728665 0 -251.07679505 0 28224
0.16150000 0.16150500 9826.09352105 0 99.12286831 0 2684.99803686 0 -72.19240488 0 -702.17197734 0 28075
0.16250000 0.16249700 9680.05498675 0 90.36988599 0 2378.82519225 0 266.18310557 0 -1117.61968397 0 28590
0.16350000 0.16349900 9493.72996024 0 155.16481863 0 2252.39035283 0 438.68662795 0 -907.39028961 0 29163
0.16450000 0.16449100 9347.77011050 0 158.78430816 0 1727.73297996 0 661.91583488 0 -1065.34503775 0 28996
0.16550000 0.16550500 9082.92913862 0 196.82941463 0 1557.89798806 0 488.74686598 0 -982.97354919 0 30777
0.16650000 0.16650700 9019.01479857 0 239.03356186 0 1258.58194040 0 228.90798368 0 -718.12358480 0 29211
0.16750000 0.16749900 8708.48058147 0 249.07258703 0 1318.80934701 0 -28.34161472 0 -396.15537778 0 30922
0.16850000 0.16850800 8659.52754754 0 145.24269623 0 1325.21651793 0 -90.52950323 0 -83.94169506 0 30867
0.16950000 0.16949900 8631.70693698 0 57.00673537 0 1445.97482873 0 -84.91524782 0 102.66277404 0 30852
0.17050000 0.17049200 8587.40753245 0 -4.70413365 0 1713.47983483 0 130.32410458 0 414.45965343 0 31257
0.17150000 0.17149500 8677.63623587 0 0.74635673 0 1835.44089526 0 135.66790993 0 371.06174909 0 32608
0.17250000 0.17250900 8745.18130611 0 32.81337039 0 2020.68681931 0 186.98597678 0 828.79678376 0 32361
0.17350000 0.17350400 8626.79477261 0 192.88057402 0 1955.51352637 0 84.62771197 0 698.96389562 0 32508
0.17450000 0.17449800 8570.60275961 0 190.47619883 0 1942.94647885 0 -45.27419376 0 935.56160847 0 32791
0.17550000 0.17549800 8298.28675500 0 145.55631038 0 1872.54628332 0 45.43808245 0 711.08356524 0 33633
0.17650000 0.17650100 8266.44199148 0 88.82609502 0 1689.20002925 0 -41.38796359 0 897.35014038 0 33984
0.17750000 0.17750300 8219.83825354 0 53.77493588 0 1680.65713469 0 20.95156130 0 341.78322613 0 34069
