### header ###
fiducial parameters:
Omega_m = 0.31
Omega_nu = 0
Omega_de = 0.69
Omega_k = 0
H_0 = 100
w_de = -1
zeff = 0
beta = 0
fgrowth = 0
b_1 = 2
gamma = 0.55
Lx = 3500 Ly = 3500 Lz = 3500
nx = 700 ny = 700 nz = 700
xoffset = 857.220397 yoffset = 15.9954215 zoffset = 262.898189
bins = 400 dk = 0.001
kx_ny = 0.628318531 ky_ny = 0.628318531 kz_ny = 0.628318531
############################
A(data) = 3.10391025 (not used)
A(ran) = 3.10281533 (used)
Ngal = 189398
weighted Ngal = 0
Nran = 9360983
weighted Nran = 0
SN(data) = 3449.43968
SN(ran) = 69.6775714
SN(data+ran) = 3519.11726
############################
13 columns: k_central k_mean P_0(k) sigma^{lin}_{P_0(k)} P^img_1(k) sigma^{lin}_{P_1(k)} P_2(k) sigma^{lin}_{P_2(k)} P^img_3(k) sigma^{lin}_{P_3(k)} P_4(k) sigma^{lin}_{P_4(k)} N_modes
### header ###
0.00050000 0 0 0 0 0 0 0 0 0 0 0 0
0.00150000 0.00179520 43182.64588071 0 -55894.36057287 0 -35391.30123303 0 108250.61392165 0 -102719.08969693 0 3
0.00250000 0.00253879 77767.31801729 0 -59835.55753217 0 -6281.96130817 0 -71905.20625457 0 37470.93402477 0 6
0.00350000 0.00331552 92103.19433357 0 -26904.04789860 0 -34858.94401441 0 -31451.34074531 0 42659.73080871 0 7
0.00450000 0.00420575 98898.84213949 0 4477.98299431 0 -26993.07385239 0 -63393.33589503 0 20941.21990533 0 24
0.00550000 0.00557378 71562.81603330 0 16299.84281200 0 -24548.79435093 0 -43182.08384818 0 32877.32969705 0 45
0.00650000 0.00659388 66794.75680623 0 5582.39940993 0 -33083.70804447 0 -9017.91321479 0 17865.44064581 0 40
0.00750000 0.00754703 69051.20503397 0 -20490.13259149 0 -40202.29974590 0 12574.01672070 0 13842.07452966 0 57
0.00850000 0.00846663 83446.31957960 0 -23780.15865395 0 -36354.96222020 0 1000.28190318 0 3658.53955602 0 75
0.00950000 0.00948925 94319.28862518 0 -6467.02738181 0 -42021.59906671 0 -10401.94081735 0 13810.82552063 0 112
0.01050000 0.01054430 95189.98943080 0 5079.56014013 0 -26059.31299616 0 -17617.02226465 0 28087.35120105 0 105
0.01150000 0.01145670 83086.28153669 0 16310.52143019 0 -23517.23983335 0 -8894.56955432 0 44917.19069501 0 144
0.01250000 0.01249090 71199.29338866 0 12758.47579920 0 -12348.30445402 0 8265.80127438 0 32821.68847593 0 169
0.01350000 0.01339930 63184.25979144 0 4952.42838036 0 2082.60032353 0 9661.51915370 0 49034.07902524 0 180
0.01450000 0.01448870 57385.43289233 0 2503.86619098 0 -4398.69144405 0 17524.06208311 0 35297.77901895 0 267
0.01550000 0.01550050 54662.04803323 0 -266.29663614 0 -10761.65288139 0 18891.48724453 0 42193.01899036 0 238
0.01650000 0.01653350 56419.18655550 0 -2887.89178255 0 -6741.36670355 0 8855.73310605 0 48311.52999625 0 315
0.01750000 0.01747870 61736.80119681 0 -7460.30748365 0 -17271.25984817 0 16817.69959117 0 47062.69370004 0 297
0.01850000 0.01844180 68404.30558440 0 -7157.65296272 0 -14974.68249732 0 8446.74202920 0 54635.52009750 0 388
0.01950000 0.01947590 72443.18379856 0 -5427.35711440 0 -9030.14304279 0 -7060.78103472 0 39003.03471941 0 399
0.02050000 0.02045430 77634.56593216 0 -1585.44882300 0 -10637.17391520 0 -1611.81938962 0 39296.97773602 0 462
0.02150000 0.02154770 83087.40560176 0 2257.07770418 0 1564.52997199 0 -11839.88982146 0 41141.68092749 0 571
0.02250000 0.02255340 78179.62508610 0 6190.77714944 0 1465.51107970 0 -15175.55292588 0 31210.00397412 0 510
0.02350000 0.02348930 74314.86455177 0 6068.13040932 0 18143.42193839 0 3250.72874750 0 35901.73918273 0 555
0.02450000 0.02439640 71502.34133237 0 3342.95828675 0 14591.48871390 0 1427.37155177 0 14781.34330475 0 592
0.02550000 0.02547300 68903.95250940 0 3026.19674915 0 19141.02969076 0 3633.50662684 0 15718.81357571 0 837
0.02650000 0.02652900 69077.95778271 0 1945.82408544 0 20858.82593547 0 -306.46734966 0 -1347.33811857 0 723
0.02750000 0.02749970 65185.77006060 0 1368.83024277 0 20155.61082574 0 -4445.02540636 0 -447.15308608 0 826
0.02850000 0.02848090 65820.41720087 0 2794.18971806 0 26478.70167494 0 -6251.75767966 0 -4716.50960282 0 831
0.02950000 0.02946900 62616.60692952 0 1993.46196324 0 24264.18107442 0 -5094.18422673 0 -3651.21065174 0 996
0.03050000 0.03053250 61978.58759403 0 -19.72734203 0 28747.73943150 0 7003.57736315 0 -4486.14370674 0 1041
0.03150000 0.03150510 61645.07748684 0 730.18480303 0 23196.20684847 0 9849.01320789 0 -5832.91979277 0 1036
0.03250000 0.03246190 60664.55552358 0 225.80893627 0 22026.39232690 0 10475.78065200 0 -7844.06329961 0 1059
0.03350000 0.03345080 60418.27286606 0 -150.81356273 0 19217.24130272 0 9514.49144214 0 -699.60573678 0 1302
0.03450000 0.03451200 58576.15502427 0 1299.47542776 0 17283.84937699 0 4549.03514758 0 4146.31635384 0 1339
0.03550000 0.03553350 56558.45821805 0 2548.79507195 0 14451.09298627 0 -183.49125847 0 6204.49074333 0 1365
0.03650000 0.03647120 53545.51419612 0 2910.06958644 0 13936.94562183 0 -2193.18584543 0 5843.31739470 0 1308
0.03750000 0.03744890 51994.07958223 0 4697.35553397 0 15326.17764568 0 805.77817920 0 4208.75816865 0 1579
0.03850000 0.03847530 48564.66945071 0 4214.85060135 0 17353.87863104 0 -463.77913258 0 6929.63636264 0 1662
0.03950000 0.03950240 43279.42788351 0 2784.80377470 0 14732.78369359 0 3239.94896345 0 3530.21628727 0 1683
0.04050000 0.04050350 43541.89707807 0 1036.08787202 0 16896.72136581 0 843.41637410 0 2173.31237493 0 1822
0.04150000 0.04152450 41275.21985817 0 1229.65974607 0 14474.69835280 0 2298.18476390 0 2620.08327889 0 1887
0.04250000 0.04250150 41507.90132830 0 671.90202899 0 14136.24235929 0 1027.88669325 0 2356.73731356 0 1920
0.04350000 0.04349210 38930.86974171 0 642.41218180 0 11662.73716594 0 4864.79626726 0 4910.44454988 0 2005
0.04450000 0.04448520 40334.93942452 0 66.64480653 0 10954.50872598 0 5860.80784723 0 5173.46453634 0 2151
0.04550000 0.04548030 39235.82859605 0 -961.14420547 0 9180.65535608 0 6293.04458979 0 5761.84515820 0 2274
0.04650000 0.04648670 40728.69941963 0 -928.34511070 0 8815.28924472 0 4036.18045798 0 4970.25605242 0 2311
0.04750000 0.04749250 40832.78784540 0 -848.82312710 0 7496.64850746 0 2209.36114183 0 4401.16438721 0 2568
0.04850000 0.04851840 41045.68577024 0 434.41967693 0 7612.62954171 0 -3527.79954737 0 4858.83872238 0 2493
0.04950000 0.04949480 41051.30609561 0 1732.74631018 0 10784.28031131 0 -4281.00183090 0 4781.51428600 0 2644
0.05050000 0.05050630 38682.11414104 0 3078.79175392 0 12343.35856770 0 -3596.43496073 0 4866.07770145 0 2829
0.05150000 0.05149060 38212.25494048 0 2691.48389233 0 13375.13789830 0 -1210.95530325 0 3389.14612060 0 2784
0.05250000 0.05249300 34181.02036883 0 2214.36323140 0 12829.17949229 0 1295.96834473 0 1646.68788819 0 3055
0.05350000 0.05348950 33654.95791462 0 1847.89553627 0 10970.14447115 0 2782.73549496 0 -1286.27890380 0 3009
0.05450000 0.05448610 31817.22392661 0 569.24791025 0 7915.32902524 0 1786.09443855 0 -309.09878600 0 3336
0.05550000 0.05550870 30864.01674462 0 -50.28707436 0 6936.79665716 0 618.62584078 0 -1388.80487912 0 3349
0.05650000 0.05647670 31938.84776752 0 -1002.00846714 0 6629.96061415 0 -353.57466874 0 -864.13963779 0 3324
0.05750000 0.05747970 32813.03317487 0 -445.97394182 0 5346.33450393 0 -1237.05609425 0 -2312.05572691 0 3639
0.05850000 0.05849280 33340.55691367 0 -393.35420762 0 7339.47048829 0 -694.99594592 0 -476.82053555 0 3846
0.05950000 0.05951020 34300.95811213 0 -318.07894187 0 9836.43491972 0 -1540.46373878 0 1204.66053884 0 3787
0.06050000 0.06049470 34151.90708343 0 454.92712012 0 8455.97060345 0 1325.76730982 0 -516.73383817 0 3930
0.06150000 0.06148310 34122.00695249 0 1031.00147757 0 11866.75497671 0 -697.57792339 0 297.46021623 0 4083
0.06250000 0.06249100 33362.70099561 0 1586.48296287 0 12947.88076401 0 -1984.87410608 0 -229.74541216 0 4303
0.06350000 0.06350600 31388.73032074 0 1950.30910508 0 13940.99225610 0 -1340.23402731 0 678.40137324 0 4470
0.06450000 0.06451750 30824.33724754 0 1315.32474529 0 14668.03754538 0 -1626.88186160 0 -2100.68653056 0 4479
0.06550000 0.06550280 30570.52335403 0 126.94291684 0 14549.22386715 0 -508.01783759 0 -2368.85473505 0 4636
0.06650000 0.06648880 30391.45978789 0 -131.12443891 0 14232.91195558 0 813.76578561 0 -3565.34332081 0 4653
0.06750000 0.06749660 30924.04181952 0 -735.31728415 0 15423.18446149 0 1272.84632617 0 -3815.57144673 0 5220
0.06850000 0.06852730 31055.66983958 0 451.21545725 0 14326.32176316 0 853.69819733 0 -1561.27018328 0 5029
0.06950000 0.06949320 30868.73781793 0 506.36883413 0 15230.40730145 0 2689.57298171 0 236.15820340 0 5040
0.07050000 0.07048030 30264.21562161 0 704.71910880 0 15023.69173451 0 1492.43243820 0 2473.70752507 0 5475
0.07150000 0.07148790 30491.95120542 0 428.09119057 0 15489.95392683 0 1849.75024364 0 3722.37521152 0 5509
0.07250000 0.07249820 30004.55658973 0 567.58316988 0 15414.30434741 0 1589.03459059 0 3509.75830294 0 5916
0.07350000 0.07351270 29365.41318916 0 233.18505128 0 14453.45352292 0 -53.19345702 0 2354.18568585 0 5721
0.07450000 0.07449140 29339.44728597 0 470.79891896 0 14152.42889635 0 -999.18031941 0 1964.92195103 0 6028
0.07550000 0.07549160 28538.21370187 0 553.87294818 0 13734.83872169 0 -1362.15329623 0 -1109.10713917 0 6183
0.07650000 0.07648840 28578.68004450 0 519.57884687 0 13619.06001916 0 -1554.90797497 0 -2442.94186402 0 6330
0.07750000 0.07749960 28493.25109895 0 429.13207483 0 13601.63701053 0 -405.32887284 0 -5753.61700186 0 6583
0.07850000 0.07848650 28209.64948100 0 -8.70780614 0 14091.84178891 0 -866.64630290 0 -5676.76467282 0 6549
0.07950000 0.07947320 28354.31665591 0 153.00773775 0 14715.36068496 0 -62.15753875 0 -5831.33486102 0 6828
0.08050000 0.08048110 28574.74581675 0 108.12854045 0 14274.16514376 0 1385.88230993 0 -5916.58395616 0 7147
0.08150000 0.08149960 27691.45548230 0 591.21326585 0 14881.16028324 0 1653.02761520 0 -3743.18165602 0 7386
0.08250000 0.08250610 27606.36375627 0 616.11130722 0 13445.05474585 0 3482.18498670 0 -3115.68356962 0 7227
0.08350000 0.08350160 26384.28020880 0 719.01609246 0 12071.22241350 0 2426.72160501 0 -3201.19119973 0 7798
0.08450000 0.08449610 25683.20082271 0 713.17882254 0 10556.00517627 0 1777.11315862 0 -1331.36515388 0 7371
0.08550000 0.08548940 24945.70172824 0 632.50916850 0 10109.53776988 0 743.23070227 0 -3640.86925307 0 8256
0.08650000 0.08650700 24261.14609873 0 685.16487279 0 9320.83751134 0 -485.66243142 0 -2554.74137619 0 8037
0.08750000 0.08749060 23621.10344610 0 347.96108777 0 9690.28397892 0 -388.96248537 0 -3618.99494675 0 8155
0.08850000 0.08849210 23640.32495885 0 218.60255509 0 10467.30520135 0 -477.51071151 0 -1796.87422260 0 8718
0.08950000 0.08949900 24137.72375370 0 2.62175814 0 10592.71714156 0 295.76962236 0 -2092.22232056 0 8571
0.09050000 0.09049190 23375.04560160 0 478.21774844 0 11295.84232608 0 -365.39308892 0 -2096.61741500 0 8932
0.09150000 0.09150830 23313.22202258 0 828.14145382 0 10715.45380689 0 752.32551277 0 -1282.73809882 0 9285
0.09250000 0.09250820 22118.67806940 0 935.58071758 0 12340.88562454 0 361.81406573 0 -262.80079377 0 9204
0.09350000 0.09350330 21327.33625794 0 943.57506838 0 10413.61985346 0 952.81151108 0 409.27321718 0 9349
0.09450000 0.09448040 20652.44758805 0 537.20643535 0 10620.36914235 0 1779.05779119 0 -1116.12355336 0 9564
0.09550000 0.09549270 20289.71178896 0 481.09310690 0 9873.12440371 0 295.86516789 0 -113.02586717 0 10155
0.09650000 0.09649430 19940.12755123 0 430.71925471 0 9567.03024365 0 1231.13227131 0 -1495.70346757 0 9913
0.09750000 0.09749140 19314.13571202 0 372.65679742 0 8926.12206092 0 247.32129364 0 -420.68697393 0 10476
0.09850000 0.09850240 18851.47052793 0 295.07157795 0 8456.21789777 0 15.68936307 0 -561.13103636 0 10575
0.09950000 0.09950330 19124.28112117 0 162.19359753 0 9114.02077854 0 1086.63595430 0 234.13713440 0 10882
0.10050000 0.10051200 18744.23471996 0 220.54718767 0 9054.65890203 0 1092.24054275 0 669.35040127 0 10875
0.10150000 0.10150300 18395.66214079 0 456.62895465 0 7664.78616110 0 1423.47104597 0 588.69985634 0 11118
0.10250000 0.10250800 17646.02314354 0 373.23793907 0 7649.12793463 0 1015.43654850 0 1974.40906025 0 11575
0.10350000 0.10349800 17449.76138178 0 403.88220109 0 6701.38370890 0 1309.72690122 0 1375.00136002 0 11364
0.10450000 0.10450100 17282.27568588 0 392.70224987 0 6909.03224985 0 821.03623850 0 1912.02344869 0 12093
0.10550000 0.10551000 16769.02757351 0 299.32054393 0 6155.15552728 0 295.54930560 0 1224.35415892 0 12067
0.10650000 0.10649700 16710.23897018 0 216.92657407 0 6025.53958370 0 -29.98893209 0 2047.67562171 0 12054
0.10750000 0.10749900 16386.17100961 0 161.02794205 0 6141.75667160 0 -143.54648203 0 1677.84697201 0 12807
0.10850000 0.10850100 16133.48118118 0 153.31797971 0 5766.77980387 0 614.12620830 0 1631.17579018 0 12736
0.10950000 0.10950300 16345.47985396 0 162.07669476 0 6455.23593919 0 507.82787059 0 1280.82718819 0 12933
0.11050000 0.11050200 15838.97613202 0 278.68383325 0 5210.24394553 0 432.87858372 0 1319.48378606 0 13428
0.11150000 0.11150900 15621.58194689 0 420.62177816 0 5917.75298384 0 420.34301002 0 1841.57829056 0 13453
0.11250000 0.11250000 15323.47988950 0 229.48800126 0 5889.86492937 0 129.20790796 0 1626.88186160 0 13668
0.11350000 0.11349100 15128.67941233 0 229.97921770 0 5726.05492627 0 354.75606114 0 2067.24559464 0 13791
0.11450000 0.11448600 15233.32987064 0 149.66476822 0 6065.98344503 0 -251.31734498 0 2657.81814339 0 14205
0.11550000 0.11549300 15081.69349228 0 85.24426166 0 6475.59275766 0 -312.64858350 0 3144.95422412 0 14776
0.11650000 0.11649800 15432.17698207 0 54.39013669 0 6926.96108777 0 83.98261103 0 3188.48926440 0 14553
0.11750000 0.11747300 15577.06896999 0 -32.60384466 0 7462.53313250 0 -216.92545000 0 3835.06273510 0 14568
0.11850000 0.11849100 15628.66355685 0 -92.58834082 0 7437.36531551 0 369.86012352 0 4513.95307665 0 16015
0.11950000 0.11950300 15951.94467187 0 -70.67446741 0 7718.08932687 0 898.82828595 0 4471.33976973 0 15270
0.12050000 0.12050700 15806.94027744 0 7.30523147 0 7284.34633711 0 843.17245198 0 4765.99094734 0 15999
0.12150000 0.12150000 15794.57556164 0 211.98405994 0 6670.17966247 0 754.60399268 0 4056.06516912 0 15670
0.12250000 0.12250700 15528.05973281 0 207.43047233 0 6590.38228293 0 359.35685948 0 3911.85886089 0 16887
0.12350000 0.12352200 14989.52015628 0 496.43659514 0 5598.42857787 0 23.31670662 0 2491.79373209 0 16407
0.12450000 0.12449800 14657.92095972 0 317.93955780 0 5637.23130419 0 -153.18758816 0 1818.50123461 0 16306
0.12550000 0.12549900 14223.02018294 0 223.99694338 0 4988.22985294 0 -312.58338772 0 704.60445416 0 17523
0.12650000 0.12650100 14178.84442556 0 59.38671835 0 4484.35644327 0 271.68203191 0 155.26823261 0 17154
0.12750000 0.12750600 14131.18406647 0 -50.03371009 0 4960.79142451 0 26.45239855 0 -404.06429963 0 18007
0.12850000 0.12850300 14017.87830710 0 105.73608035 0 4100.72427447 0 87.51869493 0 -515.26693325 0 17496
0.12950000 0.12949900 14130.62203393 0 273.61429977 0 5030.44973709 0 -24.16402688 0 443.75054110 0 18405
0.13050000 0.13049000 13844.09784680 0 364.77597720 0 4842.28124385 0 -342.39022127 0 319.13331490 0 18100
0.13150000 0.13148800 13824.76392754 0 431.86467702 0 6014.26521101 0 133.44450922 0 1763.33212082 0 19059
0.13250000 0.13249300 13349.39680813 0 343.74359561 0 5677.66392487 0 187.53564460 0 1322.13657963 0 18957
0.13350000 0.13349100 13143.80530626 0 251.10714481 0 5471.60031567 0 811.70425026 0 1996.50817958 0 19468
0.13450000 0.13450700 13000.59941594 0 178.94891151 0 5881.33327547 0 651.61265442 0 1801.52785201 0 19953
0.13550000 0.13551000 12899.77077889 0 135.41836749 0 4416.87881693 0 875.82429423 0 1669.78742544 0 19956
0.13650000 0.13649900 12478.35878298 0 154.66123747 0 4753.39017787 0 589.30685148 0 1708.93861193 0 19723
0.13750000 0.13749600 12460.59855483 0 270.18140504 0 3665.41883427 0 26.43272741 0 1237.91038370 0 20946
0.13850000 0.13851100 12190.37331125 0 90.06942340 0 4445.96962103 0 284.31652333 0 1268.12525287 0 20955
0.13950000 0.13949800 12067.17577924 0 196.22129542 0 3762.77411025 0 29.46770311 0 1378.74449671 0 20506
0.14050000 0.14048300 11992.08823236 0 198.60431338 0 4367.74593259 0 318.89051685 0 1528.67229616 0 21447
0.14150000 0.14148400 11739.17359091 0 194.69256692 0 4244.64956643 0 33.26524455 0 1414.70333840 0 21771
0.14250000 0.14249400 11573.71121215 0 318.68481294 0 4306.74292107 0 235.70632924 0 1667.57301724 0 22470
0.14350000 0.14350900 11349.23541705 0 278.76701406 0 4234.90392225 0 57.46355541 0 1753.15933191 0 22519
0.14450000 0.14449900 11125.67011466 0 226.83520769 0 4356.26922819 0 86.11529969 0 1542.18355834 0 22218
0.14550000 0.14550500 10884.36706542 0 147.70327467 0 4055.66050569 0 86.05617387 0 1311.00833541 0 23559
0.14650000 0.14650700 10837.96565920 0 43.95229324 0 3814.89700769 0 -74.99897056 0 486.89440674 0 23044
0.14750000 0.14750500 10803.98517204 0 -53.70041036 0 3627.18938113 0 4.28549809 0 508.77770558 0 23649
0.14850000 0.14849900 11013.67951143 0 -43.86034471 0 3793.67465911 0 -349.63819286 0 -70.77900546 0 23640
0.14950000 0.14949500 10899.06983658 0 37.63628400 0 3835.09645705 0 -177.82147424 0 -140.11021510 0 24457
0.15050000 0.15050000 10888.72843791 0 166.63253050 0 4322.67092316 0 -434.05547985 0 27.85343326 0 24591
0.15150000 0.15149900 10893.44951121 0 147.33120913 0 4285.99267982 0 57.38318476 0 126.38200836 0 25020
0.15250000 0.15250500 10883.50153532 0 160.50525179 0 4822.09303514 0 117.86609137 0 265.99538670 0 25297
0.15350000 0.15350100 10728.63909019 0 3.17851881 0 4362.30545764 0 480.78398900 0 605.45179813 0 25452
0.15450000 0.15450400 10804.45727938 0 55.43754053 0 4849.44153836 0 300.83353551 0 871.86421297 0 26061
0.15550000 0.15549900 10589.44611219 0 152.07363967 0 3989.00344686 0 434.26792815 0 588.02429323 0 26128
0.15650000 0.15649500 10470.44134290 0 292.33672763 0 4211.46716548 0 314.72135949 0 1076.70821157 0 26331
0.15750000 0.15749700 10206.37597593 0 319.94151769 0 3887.94999679 0 6.22564565 0 530.18102864 0 27345
0.15850000 0.15849900 9861.10814808 0 331.60818908 0 3712.23614456 0 0.41683143 0 1264.17978446 0 26980
0.15950000 0.15949700 9837.16556202 0 174.13004454 0 3942.37722763 0 165.09143729 0 617.02966838 0 27777
0.16050000 0.16050000 9540.12012580 0 193.30209843 0 3699.02837995 0 57.02404597 0 544.38696303 0 28224
0.16150000 0.16150500 9541.52520715 0 51.88695618 0 4223.79815933 0 26.13822236 0 612.48057703 0 28075
0.16250000 0.16249700 9408.28977403 0 93.09383288 0 3544.28958199 0 137.54060234 0 602.49438292 0 28590
0.16350000 0.16349900 9460.97470401 0 89.55403956 0 3951.85309619 0 224.32292225 0 753.98463282 0 29163
0.16450000 0.16449100 9350.71516099 0 98.57904563 0 3604.10108453 0 84.35062993 0 164.91720720 0 28996
0.16550000 0.16550500 9202.91184452 0 101.78521643 0 3553.55187819 0 308.71660387 0 170.78932314 0 30777
0.16650000 0.16650700 9092.10150962 0 134.34488534 0 3256.58512653 0 290.77315311 0 109.27441239 0 29211
0.16750000 0.16749900 8919.62496480 0 38.58297160 0 3042.52941466 0 347.82057963 0 -114.27357940 0 30922
0.16850000 0.16850800 9017.05892534 0 30.84220988 0 2971.58966790 0 214.69080864 0 47.85145016 0 30867
0.16950000 0.16949900 8898.13284060 0 61.89664325 0 2700.36400641 0 340.61869471 0 155.04004740 0 30852
0.17050000 0.17049200 8941.17329225 0 74.62274598 0 2557.04570959 0 100.68183416 0 -134.44605120 0 31257
0.17150000 0.17149500 8813.38957474 0 63.60904398 0 2355.46712003 0 73.00409227 0 -166.92703555 0 32608
0.17250000 0.17250900 8843.59320326 0 16.26870621 0 2510.48693426 0 -120.18503762 0 -5.06809468 0 32361
0.17350000 0.17350400 8871.66110813 0 46.57395021 0 2368.18029601 0 -2.07166317 0 -320.11462371 0 32508
0.17450000 0.17449800 8801.64309473 0 142.52133468 0 2430.68955472 0 32.48649227 0 2.55499991 0 32791
0.17550000 0.17549800 8643.76815521 0 217.66171262 0 2565.36379113 0 33.34055691 0 52.29656549 0 33633
0.17650000 0.17650100 8514.93905719 0 197.46788359 0 2434.72494833 0 348.60405299 0 542.27259663 0 33984
0.17750000 0.17750300 8355.13072574 0 169.52362587 0 2485.17298881 0 479.39352051 0 724.26884855 0 34069
