### header ###
fiducial parameters:
Omega_m = 0.31
Omega_nu = 0
Omega_de = 0.69
Omega_k = 0
H_0 = 100
w_de = -1
zeff = 0
beta = 0
fgrowth = 0
b_1 = 2
gamma = 0.55
Lx = 3500 Ly = 3500 Lz = 3500
nx = 700 ny = 700 nz = 700
xoffset = 857.220397 yoffset = 15.9954215 zoffset = 262.898189
bins = 400 dk = 0.001
kx_ny = 0.628318531 ky_ny = 0.628318531 kz_ny = 0.628318531
############################
A(data) = 3.06937928 (not used)
A(ran) = 3.06817206 (used)
Ngal = 187412
weighted Ngal = 0
Nran = 9360983
weighted Nran = 0
SN(data) = 3442.63445
SN(ran) = 68.8996138
SN(data+ran) = 3511.53406
############################
13 columns: k_central k_mean P_0(k) sigma^{lin}_{P_0(k)} P^img_1(k) sigma^{lin}_{P_1(k)} P_2(k) sigma^{lin}_{P_2(k)} P^img_3(k) sigma^{lin}_{P_3(k)} P_4(k) sigma^{lin}_{P_4(k)} N_modes
### header ###
0.00050000 0 0 0 0 0 0 0 0 0 0 0 0
0.00150000 0.00179520 4748.14079398 0 -12288.16697261 0 -12745.43664435 0 32452.32069291 0 -3593.05152486 0 3
0.00250000 0.00253879 15190.50299135 0 -19875.83102905 0 -7413.56885791 0 -8722.09300951 0 7151.71789913 0 6
0.00350000 0.00331552 24481.80007258 0 -20684.82066216 0 -15996.34524226 0 -11304.16040762 0 -7050.70941166 0 7
0.00450000 0.00420575 40279.29820340 0 -20560.49906507 0 -20234.52019387 0 -14734.69460421 0 -4254.30528541 0 24
0.00550000 0.00557378 54648.33443934 0 -14915.66908098 0 -33756.34858421 0 -17500.56912308 0 5435.02323820 0 45
0.00650000 0.00659388 70073.31740494 0 -8008.71635152 0 -24501.24639834 0 -20423.02590663 0 -16870.08102358 0 40
0.00750000 0.00754703 64704.55780280 0 -2454.18251475 0 -29983.08694683 0 -22826.27703292 0 3040.61850403 0 57
0.00850000 0.00846663 64525.26942364 0 4541.71748395 0 -27882.77135775 0 -5921.32751077 0 5819.94808183 0 75
0.00950000 0.00948925 53153.32789212 0 5440.99202373 0 -24698.85703819 0 -2449.49516339 0 16685.28472556 0 112
0.01050000 0.01054430 53258.54038296 0 6406.81121584 0 -14379.93966714 0 -1231.22219652 0 16780.49303725 0 105
0.01150000 0.01145670 46282.25531978 0 2817.35669922 0 -14297.99532331 0 12629.54553531 0 24342.52841002 0 144
0.01250000 0.01249090 46040.58132907 0 612.60534825 0 25.05451123 0 -2706.19790414 0 31214.72504743 0 169
0.01350000 0.01339930 46306.42271885 0 -3731.31152885 0 1786.58902718 0 813.08347811 0 37233.98110736 0 180
0.01450000 0.01448870 60620.15495319 0 -9081.97368331 0 21536.97439407 0 8233.25959052 0 56064.65643144 0 267
0.01550000 0.01550050 64271.23071712 0 -5745.96211872 0 7698.01352466 0 5991.42420873 0 12782.75560478 0 238
0.01650000 0.01653350 76433.72721456 0 -3679.82934850 0 35180.42662532 0 11206.40046821 0 58488.47794857 0 315
0.01750000 0.01747870 73481.25789356 0 -2764.33454972 0 13832.18275702 0 16290.73788490 0 30578.72902907 0 297
0.01850000 0.01844180 85725.92354785 0 1114.81289348 0 39613.28964759 0 12821.08622377 0 81829.01475243 0 388
0.01950000 0.01947590 76438.67310089 0 -101.24330466 0 10785.46057964 0 19712.95399995 0 33070.66888962 0 399
0.02050000 0.02045430 82576.40561953 0 1382.56631796 0 37840.30180779 0 9131.44378718 0 68553.46901960 0 462
0.02150000 0.02154770 78263.48034056 0 3482.22994930 0 21518.53972687 0 3433.25443407 0 57113.74636417 0 571
0.02250000 0.02255340 79922.71279496 0 6403.50646453 0 39067.55605460 0 6566.72071314 0 52738.88509966 0 510
0.02350000 0.02348930 73508.34786182 0 6673.61930159 0 31242.37704822 0 -4220.21239174 0 43004.93119266 0 555
0.02450000 0.02439640 67100.39009961 0 6754.43958035 0 42113.77240270 0 2418.63957714 0 29604.95145624 0 592
0.02550000 0.02547300 61157.00843210 0 3966.19616653 0 36038.87512165 0 2527.59520467 0 27757.66291511 0 837
0.02650000 0.02652900 59277.00959735 0 -702.64858093 0 29973.41998720 0 4616.89495604 0 4052.97399017 0 723
0.02750000 0.02749970 61872.02622510 0 -4455.55789610 0 17808.90017263 0 19324.13989117 0 2024.65476902 0 826
0.02850000 0.02848090 60783.03198228 0 -4371.65767904 0 11175.08401528 0 2452.13671631 0 -12149.12012307 0 831
0.02950000 0.02946900 63679.41045614 0 -775.25868840 0 4991.04001562 0 7097.49300001 0 -10847.37408387 0 996
0.03050000 0.03053250 62805.78708133 0 1743.85207310 0 3096.01243084 0 -143.43295146 0 -6486.06904415 0 1041
0.03150000 0.03150510 59421.00233321 0 3844.25758740 0 -655.63455925 0 -148.58454169 0 -7038.94045035 0 1036
0.03250000 0.03246190 61742.64633519 0 2479.12551872 0 10453.83890177 0 -1854.38139174 0 9330.76300594 0 1059
0.03350000 0.03345080 56096.13025349 0 2706.53512366 0 8618.99376100 0 1698.73210107 0 9971.27776589 0 1302
0.03450000 0.03451200 57213.33852964 0 3534.51021585 0 18304.05083733 0 659.17648830 0 18348.11418820 0 1339
0.03550000 0.03553350 54419.81200998 0 2629.73899786 0 18614.74242354 0 222.59860643 0 18307.08581303 0 1365
0.03650000 0.03647120 52977.18689516 0 2448.78700240 0 22470.39803077 0 4821.63216846 0 24357.14125597 0 1308
0.03750000 0.03744890 52913.45240552 0 -183.01690301 0 19031.54575264 0 3591.77009068 0 18032.02708964 0 1579
0.03850000 0.03847530 51940.46167824 0 -1274.83592135 0 21599.47241214 0 2305.03032020 0 14676.13081390 0 1662
0.03950000 0.03950240 53255.95503329 0 214.70879368 0 20117.16780024 0 833.90003919 0 3620.79345086 0 1683
0.04050000 0.04050350 52908.28170618 0 1530.51576288 0 15400.70316002 0 -1659.83944954 0 2016.83127611 0 1822
0.04150000 0.04152450 51633.14228726 0 2660.50465892 0 16460.47171094 0 -1147.33322011 0 4337.63222928 0 1887
0.04250000 0.04250150 48827.25105179 0 1797.90836247 0 10317.10762628 0 -308.10286434 0 1013.63916845 0 1920
0.04350000 0.04349210 46332.38862204 0 -72.72498691 0 10280.83404637 0 6040.30979876 0 -1670.00099780 0 2005
0.04450000 0.04448520 45606.69221085 0 1681.25288918 0 9231.87900146 0 3009.74043648 0 -5416.89206857 0 2151
0.04550000 0.04548030 43436.79699374 0 2139.14079671 0 9593.28840376 0 5017.39934159 0 -3859.46618784 0 2274
0.04650000 0.04648670 39780.21331095 0 2933.60750908 0 5847.84737694 0 484.92279660 0 -4912.96245565 0 2311
0.04750000 0.04749250 38652.10160359 0 1728.91324828 0 7319.63073975 0 -642.97533840 0 163.32328293 0 2568
0.04850000 0.04851840 37480.26376488 0 221.85897161 0 5656.10435677 0 439.31610439 0 1348.58583080 0 2493
0.04950000 0.04949480 38466.51846002 0 -357.30319259 0 8196.24412766 0 -119.35435353 0 2628.88470841 0 2644
0.05050000 0.05050630 38355.34842429 0 -3.52903602 0 4158.78223550 0 -873.19398195 0 -1372.85439573 0 2829
0.05150000 0.05149060 39527.97310854 0 997.09293057 0 6966.64058485 0 -1541.34050953 0 2055.13941380 0 2784
0.05250000 0.05249300 37077.06162316 0 1503.78549544 0 7605.82894801 0 -2306.78386171 0 -1508.23679313 0 3055
0.05350000 0.05348950 37226.11265185 0 430.67091991 0 8313.74264975 0 1563.18109391 0 -1200.10807529 0 3009
0.05450000 0.05448610 35765.72730888 0 -814.67852644 0 7895.16329783 0 1522.04031223 0 -1471.13140507 0 3336
0.05550000 0.05550870 37790.84294458 0 -51.10078507 0 6206.13187834 0 2386.03044937 0 -2255.48153178 0 3349
0.05650000 0.05647670 37301.64982476 0 88.01227191 0 7394.74076794 0 1728.22756859 0 -1953.62509705 0 3324
0.05750000 0.05747970 36357.77238288 0 1356.04962289 0 3249.18877835 0 1367.84106550 0 2445.31364132 0 3639
0.05850000 0.05849280 35315.98887314 0 1153.42565281 0 8085.70356837 0 269.64072974 0 2579.34716064 0 3846
0.05950000 0.05951020 34336.81578796 0 1026.34222784 0 6107.45020557 0 179.68517413 0 6743.25513287 0 3787
0.06050000 0.06049470 33595.60727876 0 928.28665932 0 8936.45221895 0 318.25654415 0 4665.33092004 0 3930
0.06150000 0.06148310 32947.35895110 0 1584.67321810 0 11258.29855264 0 -2384.31062980 0 7296.58740575 0 4083
0.06250000 0.06249100 31861.28727747 0 1300.14986680 0 12510.05741804 0 -1327.77938630 0 4554.81284205 0 4303
0.06350000 0.06350600 31401.54466257 0 1127.80820979 0 13215.40825141 0 -490.36327155 0 5879.83826892 0 4470
0.06450000 0.06451750 30768.58361991 0 130.62198182 0 12082.91269026 0 1893.75739125 0 2024.96950724 0 4479
0.06550000 0.06550280 30596.82647674 0 -417.45865904 0 9707.22363957 0 2098.89926709 0 4153.78014592 0 4636
0.06650000 0.06648880 30635.83153478 0 -611.21263163 0 8502.67550724 0 3291.81332592 0 -560.95455814 0 4653
0.06750000 0.06749660 31281.49451277 0 -298.04473007 0 6063.47677991 0 2362.47004543 0 -499.70762451 0 5220
0.06850000 0.06852730 31423.01430547 0 -262.54001067 0 4887.12019961 0 1810.84635146 0 -705.00799352 0 5029
0.06950000 0.06949320 31106.81480041 0 519.46306817 0 5786.90056868 0 -685.04797002 0 -116.39693832 0 5040
0.07050000 0.07048030 31094.78730413 0 881.85377928 0 7248.66851169 0 -1188.82246196 0 2219.57889334 0 5475
0.07150000 0.07148790 30167.32121231 0 379.57654201 0 8217.82617706 0 -172.22363017 0 2890.00502489 0 5509
0.07250000 0.07249820 30329.97342839 0 441.82389357 0 9374.95000396 0 863.56748867 0 5214.98750014 0 5916
0.07350000 0.07351270 29938.12434391 0 422.05720926 0 9899.11278820 0 1788.32008740 0 5163.76385475 0 5721
0.07450000 0.07449140 29086.98227056 0 866.85762714 0 8438.82861109 0 1297.03620655 0 4882.52277347 0 6028
0.07550000 0.07549160 28546.98140944 0 1136.28366044 0 8796.00028806 0 -48.80387050 0 4628.41662304 0 6183
0.07650000 0.07648840 27838.37078736 0 864.79496773 0 7012.52492113 0 -2046.84381356 0 1976.56726519 0 6330
0.07750000 0.07749960 26408.56001438 0 459.57063294 0 6973.75591676 0 -1194.20673366 0 -887.42801798 0 6583
0.07850000 0.07848650 26640.56704546 0 503.46424998 0 6705.02567973 0 -2486.79164252 0 -2310.32466669 0 6549
0.07950000 0.07947320 25599.23316174 0 350.60039256 0 8044.81008101 0 -858.95095341 0 -4248.39270313 0 6828
0.08050000 0.08048110 25526.05652549 0 721.09111659 0 8074.62028675 0 -1115.23779008 0 -6173.91617335 0 7147
0.08150000 0.08149960 25117.79609094 0 491.98642152 0 8825.97910356 0 -440.49075239 0 -4348.00734991 0 7386
0.08250000 0.08250610 24848.02047339 0 421.90770860 0 9104.61235388 0 389.45707401 0 -5978.59862624 0 7227
0.08350000 0.08350160 24990.32711165 0 397.96737068 0 9569.22217055 0 231.02459821 0 -3653.64987295 0 7798
0.08450000 0.08449610 24634.44810950 0 400.38073839 0 10612.97279417 0 383.01730520 0 -1577.35555448 0 7371
0.08550000 0.08548940 23948.43119539 0 379.10668281 0 9781.80535717 0 1115.31197837 0 -2704.28699351 0 8256
0.08650000 0.08650700 23865.25037998 0 661.76633423 0 9853.97033486 0 1660.01929995 0 235.31178240 0 8037
0.08750000 0.08749060 22695.77307793 0 642.01313870 0 8402.11664580 0 1406.58758857 0 -2398.02422370 0 8155
0.08850000 0.08849210 22643.27923902 0 852.12113403 0 9554.93530347 0 451.63023726 0 56.19403632 0 8718
0.08950000 0.08949900 21445.02587109 0 644.02409111 0 8099.02373949 0 176.76372901 0 -825.00306414 0 8571
0.09050000 0.09049190 21127.81470746 0 488.36018759 0 8726.24080963 0 324.51196628 0 894.91541543 0 8932
0.09150000 0.09150830 20611.41921288 0 276.46942505 0 8613.21606653 0 309.74175122 0 518.98196831 0 9285
0.09250000 0.09250820 20712.58506946 0 251.36343165 0 8366.94464966 0 478.55609203 0 834.11923188 0 9204
0.09350000 0.09350330 20367.49709202 0 245.27999147 0 9635.08114318 0 597.56086132 0 1399.47225666 0 9349
0.09450000 0.09448040 20060.29010754 0 495.95774342 0 8318.03657833 0 -410.83341950 0 830.33450478 0 9564
0.09550000 0.09549270 19684.73996662 0 546.12701577 0 9305.96613043 0 376.70905201 0 1277.71352794 0 10155
0.09650000 0.09649430 19288.39462184 0 607.52682225 0 8652.78315710 0 189.56458206 0 972.77041052 0 9913
0.09750000 0.09749140 18897.44478942 0 219.71537951 0 7932.05511353 0 901.40689122 0 459.85839360 0 10476
0.09850000 0.09850240 18358.11836735 0 163.88643953 0 6471.51240145 0 914.39995940 0 -1758.66725077 0 10575
0.09950000 0.09950330 18563.48505620 0 109.45527446 0 6211.30257768 0 848.66463393 0 -947.14734718 0 10882
0.10050000 0.10051200 17955.25344515 0 206.94487622 0 4641.48949984 0 534.47495722 0 -3227.26950942 0 10875
0.10150000 0.10150300 17794.73695271 0 464.88184041 0 4857.56852884 0 -212.54384435 0 -2748.79997041 0 11118
0.10250000 0.10250800 17115.68924205 0 621.43487940 0 4162.22187462 0 -201.06489182 0 -3225.98807524 0 11575
0.10350000 0.10349800 16609.97236566 0 648.17638749 0 4690.20648011 0 -443.22672678 0 -3008.68381531 0 11364
0.10450000 0.10450100 16456.31267017 0 209.09296457 0 4693.46626882 0 345.30042574 0 -2175.02095384 0 12093
0.10550000 0.10551000 16177.88175156 0 192.65576101 0 4625.75258882 0 600.04729326 0 -1826.80807550 0 12067
0.10650000 0.10649700 16246.22490801 0 127.33071929 0 4532.01680237 0 799.14507120 0 -672.63829161 0 12054
0.10750000 0.10749900 16187.43630469 0 283.25090964 0 4716.94798820 0 705.05183206 0 -652.71199006 0 12807
0.10850000 0.10850100 15904.28431277 0 405.15913901 0 5059.94520460 0 463.67009826 0 824.36459518 0 12736
0.10950000 0.10950300 15591.68181594 0 396.99280626 0 4823.84657665 0 614.38024700 0 1633.45764228 0 12933
0.11050000 0.11050200 15357.98868725 0 156.29787622 0 5321.88608859 0 582.22748965 0 1793.09736396 0 13428
0.11150000 0.11150900 15334.27091420 0 130.48259775 0 5287.91684208 0 621.41801843 0 2831.62108499 0 13453
0.11250000 0.11250000 15406.21107888 0 -244.10871566 0 4767.39602868 0 1071.33518052 0 2861.00414600 0 13668
0.11350000 0.11349100 15239.51222854 0 -231.22018554 0 4680.47207658 0 491.50307354 0 3630.41544789 0 13791
0.11450000 0.11448600 15819.75461927 0 -96.09373775 0 4816.92233580 0 469.39608575 0 3327.04152531 0 14205
0.11550000 0.11549300 15658.90090731 0 44.20307215 0 4613.65764863 0 -41.97157817 0 2806.05984523 0 14776
0.11650000 0.11649800 15642.37715074 0 424.85613129 0 4778.99638023 0 -802.71060561 0 2531.67556089 0 14553
0.11750000 0.11747300 15299.64970995 0 334.51389730 0 5410.37249114 0 -955.79028353 0 2481.67714644 0 14568
0.11850000 0.11849100 15163.41302309 0 282.53263206 0 5525.56667983 0 -703.07909786 0 2029.71306184 0 16015
0.11950000 0.11950300 15096.86837076 0 51.88189789 0 6006.83514088 0 347.08431701 0 1166.06014423 0 15270
0.12050000 0.12050700 15007.05557142 0 217.20197001 0 5390.81375887 0 -24.68469382 0 773.09711126 0 15999
0.12150000 0.12150000 14749.53226318 0 189.06662123 0 5007.78858521 0 695.62767049 0 -38.08467355 0 15670
0.12250000 0.12250700 14407.47926143 0 264.73306163 0 4332.85495272 0 211.96832303 0 104.18621943 0 16887
0.12350000 0.12352200 14095.88842317 0 131.61902754 0 3937.00419658 0 519.34391727 0 -825.39423879 0 16407
0.12450000 0.12449800 13971.67923259 0 37.82984800 0 2924.08667791 0 730.22976563 0 -185.43251885 0 16306
0.12550000 0.12549900 13802.61984560 0 44.21442521 0 3042.73174637 0 832.29150207 0 -906.63716601 0 17523
0.12650000 0.12650100 13705.50062328 0 119.58478687 0 2014.90912483 0 646.65103119 0 -580.39863578 0 17154
0.12750000 0.12750600 13429.09302181 0 346.97753083 0 2570.27595550 0 334.52176575 0 126.47642983 0 18007
0.12850000 0.12850300 13275.77054584 0 328.65189794 0 2388.62703968 0 -183.68684579 0 293.90030214 0 17496
0.12950000 0.12949900 13054.89175897 0 344.69905093 0 3291.49858770 0 -590.49836046 0 840.81303939 0 18405
0.13050000 0.13049000 12789.94962124 0 332.29386878 0 3244.64755545 0 -511.34282208 0 412.31830946 0 18100
0.13150000 0.13148800 12815.80311792 0 325.92716421 0 4329.69632986 0 -891.98722591 0 686.24622339 0 19059
0.13250000 0.13249300 12470.93995350 0 199.23378982 0 4238.80442805 0 -694.60364721 0 -423.38922637 0 18957
0.13350000 0.13349100 12466.78091273 0 142.32349923 0 4696.53496647 0 -381.93145834 0 -7.68308594 0 19468
0.13450000 0.13450700 12483.07985629 0 -47.35360174 0 4098.80212320 0 260.44587744 0 -1599.61204292 0 19953
0.13550000 0.13551000 12410.57765907 0 -170.46784053 0 4178.41965233 0 566.33320952 0 -978.51663117 0 19956
0.13650000 0.13649900 12611.22327462 0 -86.97352337 0 3166.56999548 0 1036.09012015 0 -1998.34040565 0 19723
0.13750000 0.13749600 12481.50616519 0 33.58807604 0 3211.13917562 0 501.09584487 0 -1499.57025142 0 20946
0.13850000 0.13851100 12400.79829294 0 137.18989404 0 2718.86611751 0 453.31408674 0 -1007.12071509 0 20955
0.13950000 0.13949800 12189.02443316 0 319.56495589 0 3488.37858525 0 288.52727109 0 -639.31763065 0 20506
0.14050000 0.14048300 12038.73693289 0 154.61177861 0 2843.41252761 0 438.60232307 0 -333.14366197 0 21447
0.14150000 0.14148400 11758.73232318 0 166.82474563 0 3015.88907243 0 472.83909706 0 -122.83558306 0 21771
0.14250000 0.14249400 11667.45823925 0 175.98137971 0 2550.06526548 0 539.30281671 0 584.16875003 0 22470
0.14350000 0.14350900 11479.28974601 0 144.97629280 0 2592.97082932 0 624.17535005 0 559.60230786 0 22519
0.14450000 0.14449900 11402.51610152 0 269.01912175 0 2417.69536248 0 -32.67376151 0 699.41801791 0 22218
0.14550000 0.14550500 11072.71540907 0 288.12710393 0 2187.84653633 0 -85.74334656 0 941.93505744 0 23559
0.14650000 0.14650700 10879.75839862 0 205.68367521 0 2371.24899365 0 -387.76648014 0 459.47171521 0 23044
0.14750000 0.14750500 10806.42439325 0 139.35933963 0 2999.82618253 0 -495.20349576 0 1093.85357613 0 23649
0.14850000 0.14849900 10862.96486643 0 169.61017888 0 3065.56150801 0 -621.14149842 0 275.79048975 0 23640
0.14950000 0.14949500 10778.33400708 0 160.61878236 0 3905.12571110 0 -638.13399013 0 1039.32405537 0 24457
0.15050000 0.15050000 10751.43512988 0 218.56883314 0 3839.06440676 0 -247.50001999 0 603.67914751 0 24591
0.15150000 0.15149900 10591.73920494 0 123.63479333 0 4362.58647390 0 -15.50411715 0 596.38508925 0 25020
0.15250000 0.15250500 10506.86105127 0 104.40417565 0 3932.64282409 0 367.20283369 0 422.28539447 0 25297
0.15350000 0.15350100 10437.58492082 0 111.15643454 0 4064.64178563 0 631.84372198 0 485.22404604 0 25452
0.15450000 0.15450400 10220.78649017 0 175.07425920 0 3394.28309798 0 365.36835949 0 114.57482884 0 26061
0.15550000 0.15549900 9989.91476480 0 296.19789115 0 3584.35126119 0 291.01819930 0 363.62605863 0 26128
0.15650000 0.15649500 9783.04182875 0 296.04951456 0 2918.57875905 0 -109.83959231 0 -182.18172266 0 26331
0.15750000 0.15749700 9490.24535851 0 215.86433257 0 3205.84482913 0 40.95823351 0 16.41742002 0 27345
0.15850000 0.15849900 9344.02697380 0 63.21539639 0 2914.80190040 0 40.22028479 0 -61.14284521 0 26980
0.15950000 0.15949700 9400.56744698 0 -126.64953585 0 2754.49898033 0 403.08186676 0 -434.26905221 0 27777
0.16050000 0.16050000 9437.27941227 0 -186.94551044 0 2486.31953519 0 499.07814807 0 -481.05264055 0 28224
0.16150000 0.16150500 9594.50239404 0 -47.79963076 0 2134.36352015 0 350.72403972 0 -728.07718102 0 28075
0.16250000 0.16249700 9675.65989232 0 35.10657555 0 2072.50621918 0 252.22558956 0 -628.69296758 0 28590
0.16350000 0.16349900 9376.52369507 0 267.81075180 0 1978.28708475 0 131.87081812 0 -178.13396433 0 29163
0.16450000 0.16449100 9229.77699977 0 320.40013624 0 2050.60943155 0 -33.15935762 0 -233.17381063 0 28996
0.16550000 0.16550500 9021.40905717 0 281.65136504 0 1964.73085997 0 -27.02589655 0 86.31886787 0 30777
0.16650000 0.16650700 8756.37699424 0 299.21375774 0 2206.06763116 0 100.25187927 0 234.85766011 0 29211
0.16750000 0.16749900 8558.20432185 0 237.15075286 0 2003.45490174 0 30.05671321 0 229.60153183 0 30922
0.16850000 0.16850800 8408.99592405 0 110.51830280 0 2000.55481385 0 151.50261462 0 330.50098499 0 30867
0.16950000 0.16949900 8346.77892225 0 55.81691249 0 2003.61227085 0 131.93264169 0 443.08621864 0 30852
0.17050000 0.17049200 8392.52837072 0 -42.74212478 0 1689.31243576 0 31.94075868 0 -159.74875599 0 31257
0.17150000 0.17149500 8418.85397474 0 -27.81622671 0 1893.65622540 0 -29.74557200 0 -43.26683835 0 32608
0.17250000 0.17250900 8446.82071376 0 55.82253281 0 1887.82232767 0 -265.74809239 0 163.97524067 0 32361
0.17350000 0.17350400 8499.10098031 0 75.21939972 0 1923.47767179 0 111.18700911 0 -225.82692132 0 32508
0.17450000 0.17449800 8329.17606320 0 88.49460823 0 1999.21717641 0 143.64764789 0 194.87803766 0 32791
0.17550000 0.17549800 8370.87887742 0 104.16430016 0 1969.74419019 0 109.13974939 0 38.16436977 0 33633
0.17650000 0.17650100 8241.12804603 0 100.20129634 0 2152.25863611 0 23.64144902 0 77.37535653 0 33984
0.17750000 0.17750300 8183.66583949 0 119.93774330 0 1928.17626379 0 -55.20587072 0 -129.50466114 0 34069
0.17850000 0.17849800 7999.37537076 0 198.91455534 0 2095.48210927 0 -155.65041474 0 -156.95770242 0 34536
