### header ###
fiducial parameters:
Omega_m = 0.31
Omega_nu = 0
Omega_de = 0.69
Omega_k = 0
H_0 = 100
w_de = -1
zeff = 0
beta = 0
fgrowth = 0
b_1 = 2
gamma = 0.55
Lx = 3500 Ly = 3500 Lz = 3500
nx = 700 ny = 700 nz = 700
xoffset = 857.220397 yoffset = 15.9954215 zoffset = 262.898189
bins = 400 dk = 0.001
kx_ny = 0.628318531 ky_ny = 0.628318531 kz_ny = 0.628318531
############################
A(data) = 3.07238068 (not used)
A(ran) = 3.07127068 (used)
Ngal = 187015
weighted Ngal = 0
Nran = 9360983
weighted Nran = 0
SN(data) = 3442.08963
SN(ran) = 68.9691971
SN(data+ran) = 3511.05883
############################
13 columns: k_central k_mean P_0(k) sigma^{lin}_{P_0(k)} P^img_1(k) sigma^{lin}_{P_1(k)} P_2(k) sigma^{lin}_{P_2(k)} P^img_3(k) sigma^{lin}_{P_3(k)} P_4(k) sigma^{lin}_{P_4(k)} N_modes
### header ###
0.00050000 0 0 0 0 0 0 0 0 0 0 0 0
0.00150000 0.00179520 2360.80642913 0 -8515.50108972 0 -6123.53557677 0 14655.22320354 0 3915.82681060 0 3
0.00250000 0.00253879 10474.10579504 0 -15244.23330185 0 -8393.31521628 0 -6177.81667915 0 3085.16520288 0 6
0.00350000 0.00331552 18759.29719194 0 -17331.17251656 0 -17145.58937300 0 8419.74198614 0 547.70070687 0 7
0.00450000 0.00420575 36018.07991779 0 -24069.04337773 0 -29746.35884244 0 4074.11765419 0 4007.69664902 0 24
0.00550000 0.00557378 62738.90520948 0 -26283.33916523 0 -47028.52212181 0 4757.72906905 0 15084.27884195 0 45
0.00650000 0.00659388 88712.67685358 0 -18158.93403639 0 -51070.32290516 0 -19205.10139993 0 -28457.05620359 0 40
0.00750000 0.00754703 88968.28925120 0 -2285.53903183 0 -31475.95777041 0 -29778.73191654 0 2738.80703191 0 57
0.00850000 0.00846663 89271.78682094 0 10698.00831695 0 -28139.39541393 0 -29995.45166264 0 -1100.12810737 0 75
0.00950000 0.00948925 76376.84952187 0 16786.67539515 0 -4850.72297255 0 -21621.72890058 0 25265.27342853 0 112
0.01050000 0.01054430 58660.12268523 0 11510.31394203 0 19516.69223819 0 -4538.63754565 0 76.30164957 0 105
0.01150000 0.01145670 58470.04328137 0 -261.32826852 0 9869.90957760 0 9997.88438617 0 4054.06433329 0 144
0.01250000 0.01249090 63167.51122185 0 -8532.82293250 0 19454.64384616 0 14476.04723089 0 -7681.44480548 0 169
0.01350000 0.01339930 71202.10355135 0 -5773.92885773 0 11108.82037922 0 1839.29643846 0 80.02567716 0 180
0.01450000 0.01448870 73916.27107685 0 -415.45220289 0 14267.87037935 0 -14699.73618044 0 -11269.76401638 0 267
0.01550000 0.01550050 74519.55680158 0 1350.26068776 0 41368.74207225 0 -16243.52715183 0 -19543.89461296 0 238
0.01650000 0.01653350 68912.49540395 0 6600.67871900 0 32461.76283952 0 -15166.33559228 0 -14089.36884575 0 315
0.01750000 0.01747870 73994.95563197 0 2467.28911350 0 46905.54940282 0 -11652.73298679 0 -27441.46341005 0 297
0.01850000 0.01844180 66830.50207556 0 1854.95466493 0 51990.70738701 0 -15572.79752272 0 -30207.78755494 0 388
0.01950000 0.01947590 67602.73478078 0 1851.41385995 0 48272.30012520 0 1721.23588383 0 -37055.81679328 0 399
0.02050000 0.02045430 65648.43524469 0 1338.93011182 0 47004.91675528 0 2204.56138396 0 -33341.79338525 0 462
0.02150000 0.02154770 66822.63362004 0 830.15015811 0 33105.96453292 0 14411.07626967 0 -31079.61242564 0 571
0.02250000 0.02255340 65429.24255543 0 616.22708592 0 29162.96906950 0 17442.67977182 0 -25310.57325097 0 510
0.02350000 0.02348930 66282.07072639 0 -1827.56119910 0 13909.40602754 0 19142.37856885 0 -22941.26888989 0 555
0.02450000 0.02439640 65719.36375080 0 474.61511988 0 17360.17339545 0 14179.63127112 0 -15584.82501900 0 592
0.02550000 0.02547300 66516.32588763 0 -3253.06680285 0 3150.32725517 0 10093.64348975 0 -1401.30448273 0 837
0.02650000 0.02652900 69589.07017145 0 -1953.20919297 0 12264.22438656 0 6453.70721069 0 5073.68127980 0 723
0.02750000 0.02749970 74075.77591072 0 -4796.48683277 0 5975.50744729 0 4341.28544077 0 15725.44555964 0 826
0.02850000 0.02848090 75934.64232211 0 266.85304835 0 14366.78810579 0 295.21995454 0 4691.21813867 0 831
0.02950000 0.02946900 73040.96160443 0 485.10039888 0 9266.33159595 0 1569.72315263 0 14709.40314007 0 996
0.03050000 0.03053250 72256.81380944 0 4115.42704563 0 13431.22874545 0 2139.63538534 0 13773.95618623 0 1041
0.03150000 0.03150510 70817.33607682 0 4718.26314433 0 11094.91569426 0 2692.43934764 0 21213.13124651 0 1036
0.03250000 0.03246190 65047.17283708 0 5463.65317561 0 15835.94115633 0 947.03269254 0 10591.93029600 0 1059
0.03350000 0.03345080 61854.49080996 0 3131.93755057 0 6150.40073202 0 365.35374664 0 15216.69370756 0 1302
0.03450000 0.03451200 58999.14071128 0 1224.10686460 0 9818.56228506 0 -61.16734983 0 12098.53719478 0 1339
0.03550000 0.03553350 59527.00166960 0 733.66603256 0 10809.49309090 0 -3393.03538575 0 4920.32508187 0 1365
0.03650000 0.03647120 55889.63949956 0 1510.10274115 0 15768.72206496 0 -8882.45213284 0 5850.37652336 0 1308
0.03750000 0.03744890 57192.65573230 0 3135.24230189 0 19702.16297525 0 -8589.01494550 0 769.45064416 0 1579
0.03850000 0.03847530 54408.45895274 0 3606.32673337 0 23798.59332115 0 -9385.52745630 0 3166.39014506 0 1662
0.03950000 0.03950240 51435.98127344 0 3974.22199115 0 29408.46488146 0 -3299.45696842 0 -155.78642661 0 1683
0.04050000 0.04050350 48986.98069867 0 2575.73891175 0 29809.86851907 0 961.75232467 0 -1130.89938874 0 1822
0.04150000 0.04152450 48817.92131168 0 2038.94163609 0 30943.71295830 0 6986.77259031 0 -552.79609384 0 1887
0.04250000 0.04250150 46458.95834927 0 2634.48255247 0 30023.89050898 0 4548.37194919 0 -4432.15486128 0 1920
0.04350000 0.04349210 44907.97336141 0 1605.14244308 0 23218.35093041 0 4816.42774717 0 892.90109082 0 2005
0.04450000 0.04448520 42626.79570206 0 1217.99195061 0 21096.79051145 0 3888.72560169 0 -404.18232646 0 2151
0.04550000 0.04548030 42274.85092768 0 786.27002985 0 19967.44233250 0 1869.70239869 0 -179.55703071 0 2274
0.04650000 0.04648670 41500.59490533 0 -128.65824014 0 18744.34712646 0 3733.73950941 0 -1075.62461284 0 2311
0.04750000 0.04749250 41345.24911222 0 -1124.98680646 0 12243.42918270 0 2711.49225063 0 -2293.12647107 0 2568
0.04850000 0.04851840 42975.03106171 0 -1136.82321168 0 10168.04535694 0 4991.97298963 0 -2034.24304409 0 2493
0.04950000 0.04949480 42321.38722170 0 -488.71426809 0 9437.72903830 0 1941.63132272 0 -6705.80128464 0 2644
0.05050000 0.05050630 43357.43799958 0 202.72738406 0 8058.71476597 0 1532.69644912 0 -2339.69648705 0 2829
0.05150000 0.05149060 42092.86479234 0 1005.29298528 0 7647.38563377 0 984.25723150 0 -5390.51026130 0 2784
0.05250000 0.05249300 40582.00892759 0 1783.21683196 0 6860.07921592 0 88.67535789 0 -73.41572490 0 3055
0.05350000 0.05348950 39222.11500215 0 1402.09132828 0 7548.68147970 0 2203.01017416 0 -2602.97500847 0 3009
0.05450000 0.05448610 37884.58997167 0 1340.18906470 0 6998.44038577 0 3489.36776252 0 3014.45026913 0 3336
0.05550000 0.05550870 36443.65095447 0 1216.14848389 0 6800.80726461 0 2040.48160524 0 1175.56973475 0 3349
0.05650000 0.05647670 36278.75060824 0 723.61801487 0 7080.74443042 0 129.94417058 0 3633.75392116 0 3324
0.05750000 0.05747970 35409.62349372 0 358.49470157 0 8767.33662870 0 335.59412383 0 2988.90027002 0 3639
0.05850000 0.05849280 35335.66001191 0 290.73268677 0 7347.88973569 0 -673.41052432 0 2713.16710759 0 3846
0.05950000 0.05951020 34592.65299860 0 582.80301097 0 11636.65885624 0 -1495.61354236 0 1117.35665274 0 3787
0.06050000 0.06049470 34453.04411652 0 1168.12842396 0 8288.54111081 0 -2553.47118265 0 -1100.70700088 0 3930
0.06150000 0.06148310 33978.23902964 0 1353.07085044 0 13026.11569310 0 -1686.23249746 0 -1907.47098514 0 4083
0.06250000 0.06249100 32936.34311338 0 1336.09746784 0 10701.52664063 0 -2707.70415133 0 -1189.36201320 0 4303
0.06350000 0.06350600 31744.27210336 0 1065.03142359 0 15142.84263225 0 354.74144829 0 -959.48958168 0 4470
0.06450000 0.06451750 31378.72614159 0 1128.04426346 0 14456.26368561 0 -549.52843668 0 116.16650498 0 4479
0.06550000 0.06550280 31055.89465260 0 543.37755260 0 16343.11931731 0 -220.42803677 0 2110.07247392 0 4636
0.06650000 0.06648880 30874.13333028 0 251.63882759 0 17633.32120821 0 -31.54935922 0 616.23720250 0 4653
0.06750000 0.06749660 31506.41993390 0 -185.47298519 0 18096.09879881 0 995.63951443 0 3747.85776673 0 5220
0.06850000 0.06852730 31072.08118965 0 235.93339039 0 16847.37490910 0 2033.07401641 0 1085.86709379 0 5029
0.06950000 0.06949320 30854.46219150 0 481.24597975 0 15703.07666469 0 1197.84870450 0 2069.80846300 0 5040
0.07050000 0.07048030 29746.69606196 0 949.58432026 0 15186.00673106 0 1819.08574845 0 578.56191345 0 5475
0.07150000 0.07148790 29757.26227365 0 1050.35338187 0 12548.83766306 0 2272.76965260 0 524.24146879 0 5509
0.07250000 0.07249820 28652.19390028 0 5.88808891 0 11644.30249874 0 1866.13911241 0 58.40743286 0 5916
0.07350000 0.07351270 27878.27509745 0 132.10574772 0 9149.46255030 0 907.19357822 0 -939.42277200 0 5721
0.07450000 0.07449140 28824.96270202 0 -40.04819042 0 10243.33523553 0 1060.67117517 0 -3621.01826388 0 6028
0.07550000 0.07549160 28187.28058605 0 135.80279774 0 8760.55851631 0 -406.07187985 0 -2923.64829253 0 6183
0.07650000 0.07648840 27847.25090144 0 357.92592464 0 9489.82945443 0 -1062.38649847 0 -3741.06841369 0 6330
0.07750000 0.07749960 28052.72999680 0 354.09286274 0 9187.33230261 0 -1726.92365310 0 -4015.27284762 0 6583
0.07850000 0.07848650 27348.05360247 0 333.68883354 0 9882.36421861 0 -779.42110136 0 -6640.22332827 0 6549
0.07950000 0.07947320 27374.13191217 0 396.26778428 0 10314.65716442 0 -1272.54282860 0 -5373.61556325 0 6828
0.08050000 0.08048110 26904.04789860 0 487.37550659 0 11284.03964281 0 82.05989772 0 -6799.57079303 0 7147
0.08150000 0.08149960 26465.99973961 0 962.35482355 0 10127.70266146 0 -269.70704957 0 -5330.66503681 0 7386
0.08250000 0.08250610 25727.71379960 0 682.85267093 0 10979.00210393 0 1152.32406904 0 -5078.06513358 0 7227
0.08350000 0.08350160 24789.79390261 0 720.32450421 0 10851.03853600 0 2343.97917498 0 -3930.39469395 0 7798
0.08450000 0.08449610 24654.23165479 0 213.12273786 0 9479.96016309 0 2706.09673828 0 -3266.79163739 0 7371
0.08550000 0.08548940 24003.62279048 0 343.69750895 0 8780.26337704 0 2560.23805439 0 -3018.14844322 0 8256
0.08650000 0.08650700 23534.88765500 0 687.30172049 0 7424.98935905 0 1540.00287210 0 -1315.04372902 0 8037
0.08750000 0.08749060 23018.60456692 0 308.54687005 0 7520.92831304 0 622.89503993 0 -1838.27353924 0 8155
0.08850000 0.08849210 22457.47128243 0 533.07549620 0 4522.94559723 0 577.25462577 0 -1965.63011203 0 8718
0.08950000 0.08949900 22103.27837790 0 498.27668967 0 6322.84355488 0 -746.35335504 0 -2591.65567319 0 8571
0.09050000 0.09049190 21554.28499620 0 762.53314770 0 4793.46309772 0 -488.84690777 0 -3614.83590598 0 8932
0.09150000 0.09150830 20934.36310838 0 736.16258109 0 5641.71632384 0 -657.32627719 0 -4032.79702211 0 9285
0.09250000 0.09250820 20455.17416772 0 754.25103624 0 5109.88741580 0 -478.25709072 0 -3430.59039984 0 9204
0.09350000 0.09350330 19706.77164205 0 502.09513872 0 6049.74070472 0 477.66133623 0 -3202.28154285 0 9349
0.09450000 0.09448040 19658.21203089 0 343.47719219 0 6167.31791137 0 750.95752558 0 -2460.16254094 0 9564
0.09550000 0.09549270 19203.19048930 0 344.97332280 0 6671.27000559 0 810.59704616 0 -1908.28031200 0 10155
0.09650000 0.09649430 19019.74306937 0 432.19964841 0 6828.76276298 0 367.45799646 0 -686.27432501 0 9913
0.09750000 0.09749140 18580.79565833 0 473.64505172 0 7093.94095438 0 473.63830733 0 451.57965434 0 10476
0.09850000 0.09850240 18103.74244131 0 307.77126514 0 6155.47026550 0 1037.98754200 0 1199.86078098 0 10575
0.09950000 0.09950330 18216.26135512 0 74.40220441 0 7137.92562069 0 962.09516452 0 2937.47429293 0 10882
0.10050000 0.10051200 18095.76157929 0 65.86818997 0 6590.83190896 0 1678.75746472 0 3210.16123901 0 10875
0.10150000 0.10150300 17879.04183319 0 210.52614754 0 6118.10634247 0 1429.10261199 0 3458.62458277 0 11118
0.10250000 0.10250800 17429.07858443 0 263.32348402 0 5626.06933802 0 1195.37576134 0 4525.87940707 0 11575
0.10350000 0.10349800 17165.26051177 0 124.13500228 0 4628.49530760 0 1078.15263519 0 4032.58344974 0 11364
0.10450000 0.10450100 17088.14964776 0 -144.86838256 0 3749.16168221 0 711.67594754 0 3715.00134464 0 12093
0.10550000 0.10551000 17245.85597752 0 -146.89844408 0 3995.77031860 0 472.22423347 0 3703.32230853 0 12067
0.10650000 0.10649700 17137.04647844 0 127.32060270 0 2978.85112827 0 -430.92383455 0 3238.76869512 0 12054
0.10750000 0.10749900 17330.83529704 0 150.41901589 0 3673.06247676 0 -359.49849168 0 2968.80198651 0 12807
0.10850000 0.10850100 17128.50358388 0 233.20303633 0 3470.66331970 0 -254.30398588 0 3217.41145873 0 12736
0.10950000 0.10950300 17037.22949995 0 242.16071089 0 3583.08106766 0 434.99744638 0 2730.74748533 0 12933
0.11050000 0.11050200 16625.14724415 0 306.35606722 0 4312.79039117 0 76.09369753 0 2764.96402616 0 13428
0.11150000 0.11150900 16582.20795836 0 497.05595500 0 4239.69243946 0 -292.12315526 0 3084.74929880 0 13453
0.11250000 0.11250000 15953.18114345 0 585.31866860 0 5214.20065458 0 -813.58256300 0 2387.53669656 0 13668
0.11350000 0.11349100 15814.80873295 0 548.06153176 0 5274.41682055 0 -578.45849946 0 3283.27043136 0 13791
0.11450000 0.11448600 15496.24869124 0 259.72197953 0 6066.66912472 0 -315.52394195 0 2218.30869981 0 14205
0.11550000 0.11549300 15249.06678166 0 239.04705064 0 6021.18945186 0 -436.34857260 0 2866.77059983 0 14776
0.11650000 0.11649800 15418.57579469 0 168.50971917 0 6076.65082257 0 -108.89481562 0 1278.42168894 0 14553
0.11750000 0.11747300 15051.68095483 0 153.03471531 0 5674.76383699 0 -64.63059432 0 659.83743856 0 14568
0.11850000 0.11849100 15135.42380277 0 151.09795119 0 5824.14084455 0 0.19403274 0 755.95736703 0 16015
0.11950000 0.11950300 14692.99179000 0 166.63477863 0 5339.37654113 0 327.48399433 0 -117.42208567 0 15270
0.12050000 0.12050700 14513.25378481 0 367.98405892 0 4923.33757627 0 277.74636298 0 -638.86575649 0 15999
0.12150000 0.12150000 14152.20408333 0 366.78130929 0 4619.19928944 0 348.42195445 0 -871.28082320 0 15670
0.12250000 0.12250700 13695.72125715 0 440.91340086 0 4473.57665922 0 98.44337097 0 -720.95398065 0 16887
0.12350000 0.12352200 13589.38470123 0 357.79553309 0 5024.15497268 0 -48.68190944 0 -116.38232547 0 16407
0.12450000 0.12449800 13187.30662458 0 121.36418188 0 4455.67030261 0 365.55832649 0 -383.63441693 0 16306
0.12550000 0.12549900 13339.72984850 0 80.11964900 0 4800.87068656 0 344.94184898 0 219.57149918 0 17523
0.12650000 0.12650100 13158.53055871 0 -29.87697520 0 4370.24135705 0 810.65549755 0 744.30868067 0 17154
0.12750000 0.12750600 13511.82421119 0 67.02901197 0 4739.13703274 0 856.33862618 0 1025.64643156 0 18007
0.12850000 0.12850300 13128.85524078 0 187.51990769 0 4434.80765485 0 652.37814273 0 1146.38900545 0 17496
0.12950000 0.12949900 13113.68036230 0 185.17848014 0 4181.34222152 0 447.54426072 0 1757.25092878 0 18405
0.13050000 0.13049000 12861.21534688 0 154.69046316 0 3963.13870953 0 -59.63592358 0 1256.23264439 0 18100
0.13150000 0.13148800 12846.37768791 0 77.39300435 0 4804.08551266 0 -575.35832799 0 1747.19054637 0 19059
0.13250000 0.13249300 12885.27033944 0 85.12544799 0 4673.42418857 0 -700.55781990 0 494.73026436 0 18957
0.13350000 0.13349100 12915.50768991 0 100.97914937 0 4872.88953579 0 -569.34008359 0 656.17073829 0 19468
0.13450000 0.13450700 12798.49251580 0 56.60949077 0 4622.60520661 0 -135.51278895 0 -35.51652208 0 19953
0.13550000 0.13551000 12854.02133041 0 28.64960855 0 4893.68473964 0 366.23276553 0 236.24588048 0 19956
0.13650000 0.13649900 12627.40981167 0 52.38570385 0 3937.18404699 0 917.09321932 0 -390.93184738 0 19723
0.13750000 0.13749600 12607.40145337 0 46.95186088 0 3681.57164937 0 980.88840848 0 -892.71337195 0 20946
0.13850000 0.13851100 12418.67092760 0 196.95868211 0 2905.93302698 0 498.60491667 0 -428.21258960 0 20955
0.13950000 0.13949800 12205.32337672 0 269.10567476 0 2998.92693047 0 343.53789171 0 -669.22675412 0 20506
0.14050000 0.14048300 12027.83350168 0 222.61097114 0 2876.13406189 0 -35.43019388 0 -107.24727344 0 21447
0.14150000 0.14148400 11861.13465134 0 137.38435730 0 2578.08820776 0 184.75245948 0 -234.35407896 0 21771
0.14250000 0.14249400 11674.98947524 0 101.29827144 0 2866.88300634 0 134.80800015 0 42.72863600 0 22470
0.14350000 0.14350900 11738.94877790 0 66.32152541 0 2636.21361269 0 252.22221736 0 -229.95561233 0 22519
0.14450000 0.14449900 11655.20592995 0 147.84940313 0 2916.92638339 0 250.61143211 0 -122.37584044 0 22218
0.14550000 0.14550500 11329.33946526 0 244.91579439 0 2592.16150247 0 -50.10340213 0 -33.01929912 0 23559
0.14650000 0.14650700 11255.37598345 0 317.72598543 0 2774.05771260 0 -127.74887149 0 -431.95010597 0 23044
0.14750000 0.14750500 11013.22988540 0 312.83293017 0 2846.99829519 0 -99.35734828 0 -261.88130854 0 23649
0.14850000 0.14849900 10694.95085995 0 207.29108826 0 2761.72671875 0 -214.67619579 0 -391.30953325 0 23640
0.14950000 0.14949500 10607.01524929 0 178.27784466 0 2995.72334501 0 -110.34497197 0 -254.10502636 0 24457
0.15050000 0.15050000 10456.87387747 0 153.01560621 0 2814.93995931 0 125.36135728 0 -505.38415313 0 24591
0.15150000 0.15149900 10359.12517871 0 172.20114887 0 3049.22884249 0 41.49227682 0 -54.81525810 0 25020
0.15250000 0.15250500 10246.60626490 0 156.68680273 0 3130.67859769 0 -107.31055830 0 -12.58851716 0 25297
0.15350000 0.15350100 10235.46678002 0 239.62819228 0 3354.79469197 0 13.36985479 0 224.51626144 0 25452
0.15450000 0.15450400 10057.72961066 0 187.06578540 0 3699.03962060 0 -73.67122489 0 686.05738046 0 26061
0.15550000 0.15549900 10063.45110189 0 231.65070246 0 3929.85514271 0 -118.79344506 0 765.86150438 0 26128
0.15650000 0.15649500 9820.76545260 0 191.86779139 0 4333.12472834 0 39.93432263 0 1117.42634478 0 26331
0.15750000 0.15749700 9793.18089571 0 119.38695141 0 4137.39127716 0 174.54594862 0 1145.37734689 0 27345
0.15850000 0.15849900 9626.08862259 0 30.37909507 0 4154.01619959 0 287.93601286 0 1218.47529859 0 26980
0.15950000 0.15949700 9637.61028959 0 29.66688744 0 3945.29979682 0 179.45136859 0 1124.57090238 0 27777
0.16050000 0.16050000 9661.77768867 0 -43.02078051 0 3808.60224328 0 278.43766300 0 971.06857600 0 28224
0.16150000 0.16150500 9566.69302413 0 25.04518149 0 3570.05315346 0 209.97985192 0 533.21263214 0 28075
0.16250000 0.16249700 9653.95419576 0 -18.52268149 0 3457.72533071 0 -98.89996620 0 383.91543320 0 28590
0.16350000 0.16349900 9587.11728651 0 27.85781711 0 3359.20102705 0 201.29420110 0 538.78687084 0 29163
0.16450000 0.16449100 9649.27808505 0 -34.45236968 0 3285.95694689 0 191.41142097 0 378.04781351 0 28996
0.16550000 0.16550500 9662.69942203 0 58.29019287 0 3342.17144119 0 419.97768887 0 683.89130706 0 30777
0.16650000 0.16650700 9604.28176018 0 79.77051438 0 2999.29787195 0 263.32348402 0 431.70618384 0 29211
0.16750000 0.16749900 9472.57505556 0 174.21547348 0 3038.32541129 0 481.88557277 0 790.50887924 0 30922
0.16850000 0.16850800 9317.07189335 0 252.55943688 0 2797.84292955 0 165.62986446 0 714.76375429 0 30867
0.16950000 0.16949900 9007.40320636 0 280.85889916 0 2628.85098646 0 180.61927221 0 757.20395519 0 30852
0.17050000 0.17049200 8837.81550878 0 162.33410566 0 2333.27807549 0 205.75336724 0 435.49091095 0 31257
0.17150000 0.17149500 8635.27022326 0 149.92667538 0 1963.20213147 0 59.29184726 0 -168.93124358 0 32608
0.17250000 0.17250900 8533.30628048 0 133.38605783 0 1790.47829234 0 73.01454608 0 -208.83555367 0 32361
0.17350000 0.17350400 8287.01238231 0 152.91219222 0 1774.61773416 0 -42.17121213 0 -797.97267133 0 32508
0.17450000 0.17449800 8209.23831991 0 171.43004023 0 1635.44723745 0 -63.50697887 0 -439.15648715 0 32791
0.17550000 0.17549800 8048.33964534 0 104.19408789 0 1694.74167006 0 113.15963091 0 -788.16070730 0 33633
0.17650000 0.17650100 8131.64410791 0 26.34066648 0 1686.27746006 0 290.94738320 0 0.09549574 0 33984
0.17750000 0.17750300 8040.59483699 0 3.12248416 0 1610.75152780 0 322.25259548 0 -520.14649973 0 34069
