### header ###
fiducial parameters:
Omega_m = 0.31
Omega_nu = 0
Omega_de = 0.69
Omega_k = 0
H_0 = 100
w_de = -1
zeff = 0
beta = 0
fgrowth = 0
b_1 = 2
gamma = 0.55
Lx = 3500 Ly = 3500 Lz = 3500
nx = 700 ny = 700 nz = 700
xoffset = 857.220397 yoffset = 15.9954215 zoffset = 262.898189
bins = 400 dk = 0.001
kx_ny = 0.628318531 ky_ny = 0.628318531 kz_ny = 0.628318531
############################
A(data) = 3.0947561 (not used)
A(ran) = 3.09353749 (used)
Ngal = 188477
weighted Ngal = 0
Nran = 9360983
weighted Nran = 0
SN(data) = 3443.77211
SN(ran) = 69.469226
SN(data+ran) = 3513.24133
############################
13 columns: k_central k_mean P_0(k) sigma^{lin}_{P_0(k)} P^img_1(k) sigma^{lin}_{P_1(k)} P_2(k) sigma^{lin}_{P_2(k)} P^img_3(k) sigma^{lin}_{P_3(k)} P_4(k) sigma^{lin}_{P_4(k)} N_modes
### header ###
0.00050000 0 0 0 0 0 0 0 0 0 0 0 0
0.00150000 0.00179520 8754.84826574 0 -7300.22937659 0 12079.20327552 0 -6542.59827667 0 29585.95475651 0 3
0.00250000 0.00253879 20283.75424407 0 -7147.21039819 0 4839.31371206 0 -9557.92531656 0 -19402.26241375 0 6
0.00350000 0.00331552 27815.21504685 0 -8244.99482988 0 3040.29252516 0 -10355.59561439 0 51021.87570051 0 7
0.00450000 0.00420575 39685.11740576 0 -9343.34129411 0 7677.63422488 0 -20788.57186840 0 -4079.46820394 0 24
0.00550000 0.00557378 61403.29108962 0 -16807.13337949 0 16915.94287856 0 -25572.03078698 0 -3966.17368522 0 45
0.00650000 0.00659388 88190.77344014 0 -20839.26720320 0 23959.10981359 0 -7422.76371021 0 -63973.80309878 0 40
0.00750000 0.00754703 95760.45245540 0 -11408.36123990 0 39805.39236859 0 -51002.99140728 0 -29161.39537840 0 57
0.00850000 0.00846663 104946.31223277 0 2608.98875662 0 28120.17390118 0 -16459.01042635 0 -53303.84020540 0 75
0.00950000 0.00948925 101726.54023738 0 -889.82677284 0 40491.52168921 0 -28816.19499445 0 -35926.80583386 0 112
0.01050000 0.01054430 108012.98656520 0 10548.75495655 0 32625.31430766 0 -3609.00200825 0 -31323.30973349 0 105
0.01150000 0.01145670 93545.25741584 0 9428.66907381 0 30280.51456517 0 3073.91331150 0 -31766.97821784 0 144
0.01250000 0.01249090 82012.23735934 0 10196.51792524 0 16577.82410457 0 21882.06237151 0 -19517.25427073 0 169
0.01350000 0.01339930 69983.72941861 0 8093.18984176 0 4201.72152129 0 26613.25226419 0 -26017.72258846 0 180
0.01450000 0.01448870 63654.90583754 0 -459.47845961 0 -6058.68826270 0 15020.09472627 0 -9672.02916213 0 267
0.01550000 0.01550050 58661.58396982 0 -4046.40945014 0 -11096.55682927 0 -2528.33708762 0 -28933.43498157 0 238
0.01650000 0.01653350 68946.89179519 0 -8468.70626073 0 -10110.68431626 0 -20829.60024357 0 -11100.36740987 0 315
0.01750000 0.01747870 72879.77067295 0 -3859.70224150 0 -12336.83899028 0 -21179.74651384 0 -16643.91913087 0 297
0.01850000 0.01844180 75703.87176260 0 4721.10702897 0 9047.54357012 0 -35903.65009335 0 -5816.37355489 0 388
0.01950000 0.01947590 75973.19775412 0 6630.03929871 0 27169.43966236 0 -19160.47601653 0 -19790.28967698 0 399
0.02050000 0.02045430 67377.92176616 0 7306.56910360 0 25632.39308140 0 2137.10623893 0 -17167.39623541 0 462
0.02150000 0.02154770 70248.33433682 0 1200.38909156 0 26750.61301612 0 7129.98972127 0 -19170.03056965 0 571
0.02250000 0.02255340 61903.50004715 0 1574.44422594 0 20762.38115220 0 4612.82584048 0 -29019.98799220 0 510
0.02350000 0.02348930 67331.94750467 0 3099.15981304 0 20555.10355272 0 -1432.36240070 0 -25659.82026918 0 555
0.02450000 0.02439640 61362.48752747 0 1304.89342141 0 27053.43614681 0 -4314.37532292 0 -22788.84566598 0 592
0.02550000 0.02547300 62259.37904929 0 1231.52569409 0 23018.15494089 0 -7003.19518103 0 -8444.88732183 0 837
0.02650000 0.02652900 66253.51947353 0 -4432.51456210 0 36674.08429445 0 -2726.08261528 0 -2969.82488573 0 723
0.02750000 0.02749970 70269.01713417 0 -4411.84300541 0 28882.40242725 0 9564.54605984 0 -4597.58351809 0 826
0.02850000 0.02848090 75108.34208687 0 -1875.72738748 0 46355.54436255 0 5209.45709998 0 2833.07112894 0 831
0.02950000 0.02946900 73265.99943206 0 262.33767896 0 26354.04285833 0 9534.20754352 0 455.84772942 0 996
0.03050000 0.03053250 73639.18903633 0 3714.09085193 0 34289.71746140 0 12124.95272400 0 12660.34491832 0 1041
0.03150000 0.03150510 67171.99304476 0 3466.90894236 0 17182.34630089 0 6641.25746814 0 3251.15589223 0 1036
0.03250000 0.03246190 67081.73061939 0 3319.58897388 0 25859.22941315 0 1085.91767671 0 7892.89268638 0 1059
0.03350000 0.03345080 62276.46483840 0 1616.42805642 0 13599.83850641 0 4639.14020384 0 2443.63878436 0 1302
0.03450000 0.03451200 61931.26445445 0 1475.39161170 0 17679.63268922 0 -3418.07955558 0 -3576.94367236 0 1339
0.03550000 0.03553350 61714.76952138 0 1534.05656786 0 12157.32579810 0 -7289.86549662 0 -3889.51244724 0 1365
0.03650000 0.03647120 59025.55624049 0 3956.15826542 0 24021.72023816 0 -3551.14637893 0 -7326.48753670 0 1308
0.03750000 0.03744890 56539.57392483 0 3571.97530474 0 21650.05534043 0 -6468.60107291 0 -9243.81657253 0 1579
0.03850000 0.03847530 54810.64943589 0 3486.46767463 0 25581.13571407 0 2583.95582744 0 -1385.27531479 0 1662
0.03950000 0.03950240 52087.82660933 0 2781.37537623 0 25219.18676053 0 5278.49717677 0 58.50713743 0 1683
0.04050000 0.04050350 50205.24242490 0 494.62460225 0 19655.51427472 0 12141.02685454 0 1253.50116627 0 1822
0.04150000 0.04152450 47339.88814706 0 -452.31704102 0 18970.84623869 0 7816.69231508 0 1867.44302789 0 1887
0.04250000 0.04250150 49612.52291185 0 650.39754008 0 13068.83016588 0 6340.25532286 0 1598.79147542 0 1920
0.04350000 0.04349210 46322.38444289 0 1671.47352305 0 11902.72505905 0 2704.33195612 0 3343.38543147 0 2005
0.04450000 0.04448520 45358.38623620 0 2658.85228326 0 14641.28479664 0 -458.73994885 0 5455.04283715 0 2151
0.04550000 0.04548030 42531.02535784 0 2513.37578150 0 14437.04217286 0 -3323.47823903 0 4662.30718499 0 2274
0.04650000 0.04648670 41242.84678406 0 2475.77580480 0 14409.50257856 0 363.57772383 0 8227.14467652 0 2311
0.04750000 0.04749250 40263.67369889 0 1280.54617193 0 18103.63003480 0 2564.00367239 0 10867.48360802 0 2568
0.04850000 0.04851840 39320.02107002 0 992.07510409 0 13947.84905304 0 4550.63131998 0 10634.45367772 0 2493
0.04950000 0.04949480 38975.15790559 0 715.45280618 0 14252.24587484 0 4642.25386409 0 8917.97258914 0 2644
0.05050000 0.05050630 36346.64413866 0 1255.42331754 0 10102.43367862 0 2573.97412959 0 6795.34430836 0 2829
0.05150000 0.05149060 36267.62236402 0 1568.88010383 0 7145.69291034 0 2576.76181097 0 4563.94025045 0 2784
0.05250000 0.05249300 33599.42910001 0 1019.02681234 0 8079.46500722 0 1292.79848122 0 4247.07754699 0 3055
0.05350000 0.05348950 34442.59031134 0 -375.27586904 0 5512.06665831 0 1126.68414472 0 829.89611940 0 3009
0.05450000 0.05448610 33502.42228420 0 -442.96481962 0 6067.79318979 0 293.85309141 0 -605.34838414 0 3336
0.05550000 0.05550870 34719.22272583 0 -213.94667756 0 7163.80159867 0 -3317.18347462 0 -3230.74287050 0 3349
0.05650000 0.05647670 35119.61470486 0 705.30587077 0 9690.05916590 0 -4265.87191501 0 -3218.15334168 0 3324
0.05750000 0.05747970 35003.04915678 0 1229.90704038 0 12086.39729199 0 -5026.94265406 0 -2348.77893284 0 3639
0.05850000 0.05849280 34348.16884520 0 1241.79964886 0 14029.56858386 0 -2468.67171354 0 -2913.68907598 0 3846
0.05950000 0.05951020 33772.42271476 0 732.91628116 0 15949.13450919 0 -310.38022018 0 -2292.32838487 0 3787
0.06050000 0.06049470 33015.47729453 0 951.57391544 0 15792.88946403 0 108.58018980 0 -3476.48597678 0 3930
0.06150000 0.06148310 33018.62467674 0 851.12184018 0 16504.75987482 0 1831.30433579 0 -1792.98495745 0 4083
0.06250000 0.06249100 31902.09083963 0 442.50058074 0 14981.87651379 0 2372.49670589 0 -4070.53188661 0 4303
0.06350000 0.06350600 31045.44084742 0 85.83529508 0 13881.19199421 0 2235.02354745 0 -1922.15127500 0 4470
0.06450000 0.06451750 31195.72834769 0 24.81643424 0 12976.31961036 0 2835.71268186 0 -1980.95111897 0 4479
0.06550000 0.06550280 30853.56293944 0 353.29927280 0 10237.74863212 0 2580.90961109 0 -2395.83229680 0 4636
0.06650000 0.06648880 29941.60894563 0 746.37246415 0 10953.38466091 0 2092.86303765 0 -2892.75898432 0 4653
0.06750000 0.06749660 28752.57291131 0 860.68201363 0 7031.63402737 0 1647.96932237 0 -1520.39917722 0 5220
0.06850000 0.06852730 27744.51135375 0 1124.39105197 0 8215.17338349 0 1355.20657408 0 -957.35835430 0 5029
0.06950000 0.06949320 27073.33209861 0 584.61275574 0 7698.02476531 0 -110.54685405 0 -504.92441051 0 5040
0.07050000 0.07048030 26674.96343670 0 443.04800043 0 8258.76462703 0 61.69802095 0 -1477.58353859 0 5475
0.07150000 0.07148790 26683.50633126 0 715.77428879 0 8862.85967861 0 -916.48959638 0 -132.52165179 0 5509
0.07250000 0.07249820 25499.41618325 0 445.69854587 0 9957.09206467 0 84.13132484 0 994.83018758 0 5916
0.07350000 0.07351270 25878.22611289 0 671.87167923 0 10375.62645399 0 383.62879660 0 3669.99377911 0 5721
0.07450000 0.07449140 25498.40452469 0 162.32736127 0 10778.14291601 0 1776.03405615 0 1770.60482184 0 6028
0.07550000 0.07549160 25406.79322123 0 199.90598073 0 9842.99945975 0 2131.56459812 0 3554.66470261 0 6183
0.07650000 0.07648840 25015.16894976 0 98.27914506 0 8794.92118559 0 588.11084625 0 1995.93490640 0 6330
0.07750000 0.07749960 24923.22042678 0 140.85771838 0 8521.78461348 0 907.47122229 0 3604.98909594 0 6583
0.07850000 0.07848650 24245.52159421 0 222.80431033 0 8122.75275318 0 50.40498879 0 2332.51371124 0 6549
0.07950000 0.07947320 24588.69866103 0 314.61682144 0 6557.06499416 0 692.96251220 0 3252.99935895 0 6828
0.08050000 0.08048110 24271.15027788 0 574.19492064 0 7604.77232685 0 -3.89301953 0 646.16318695 0 7147
0.08150000 0.08149960 23690.00863509 0 787.82348778 0 7455.91238922 0 -287.30428829 0 1726.82248725 0 7386
0.08250000 0.08250610 23027.82190052 0 793.68773527 0 7389.37897754 0 -955.44407148 0 -333.27854978 0 7227
0.08350000 0.08350160 22593.59556278 0 345.00367256 0 8513.55645715 0 -1523.20933991 0 760.07256926 0 7798
0.08450000 0.08449610 21984.12748015 0 121.46422367 0 8707.43520095 0 -578.65071459 0 -382.74415739 0 7371
0.08550000 0.08548940 23174.39998606 0 -325.22125134 0 9548.68550166 0 156.79808518 0 242.81941303 0 8256
0.08650000 0.08650700 22997.92176958 0 -565.50814576 0 8628.14365070 0 1444.82828236 0 505.62807525 0 8037
0.08750000 0.08749060 23419.67098501 0 39.29158222 0 9220.90812635 0 1854.79729582 0 529.10754649 0 8155
0.08850000 0.08849210 23250.38678500 0 150.57526093 0 7021.57364497 0 2240.91364843 0 897.76042413 0 8718
0.08950000 0.08949900 22560.43564313 0 648.88230036 0 6455.40454895 0 1281.37798008 0 889.76494926 0 8571
0.09050000 0.09049190 22095.18510937 0 643.83637224 0 5747.97419520 0 1254.81632240 0 2243.10557532 0 8932
0.09150000 0.09150830 20996.74871994 0 719.97491997 0 5403.48197224 0 156.00224710 0 1573.70234299 0 9285
0.09250000 0.09250820 20570.39083771 0 657.00929084 0 5107.41447264 0 -607.38519005 0 2482.68880500 0 9204
0.09350000 0.09350330 19946.19750262 0 782.44933267 0 4800.44354183 0 -713.93756646 0 477.30051134 0 9349
0.09450000 0.09448040 19495.22259529 0 382.95435756 0 5406.40454143 0 -412.27109873 0 291.55100614 0 9564
0.09550000 0.09549270 18857.87769885 0 273.90880482 0 5056.70789719 0 -202.68579366 0 -266.34609501 0 10155
0.09650000 0.09649430 18957.91949035 0 112.70326049 0 6002.13654888 0 455.74656356 0 -689.59706137 0 9913
0.09750000 0.09749140 18839.44303165 0 455.23398989 0 5680.01322088 0 -186.41607579 0 -50.55887330 0 10476
0.09850000 0.09850240 18511.44084332 0 737.51370731 0 4978.60785591 0 244.96750138 0 -717.32100233 0 10575
0.09950000 0.09950330 17549.12873424 0 838.86615869 0 6656.16257101 0 -71.89396560 0 810.48351559 0 10882
0.10050000 0.10051200 17045.77239450 0 672.01218737 0 5575.07050565 0 413.38729535 0 1010.62105373 0 10875
0.10150000 0.10150300 16718.21983220 0 278.95810513 0 6530.43589258 0 1325.68862526 0 1510.28259157 0 11118
0.10250000 0.10250800 16342.55728477 0 160.96162221 0 4945.11071674 0 560.19693829 0 1188.41779853 0 11575
0.10350000 0.10349800 16438.44003551 0 -207.90370373 0 4744.99341177 0 816.59730552 0 510.04003066 0 11364
0.10450000 0.10450100 16510.60501320 0 -236.19080129 0 4016.14961837 0 59.29544426 0 329.98841131 0 12093
0.10550000 0.10551000 16809.38150963 0 -81.24371407 0 4102.19679972 0 -300.43674054 0 121.93745506 0 12067
0.10650000 0.10649700 16840.74292517 0 -137.15055176 0 3914.53413577 0 11.66835749 0 124.57900799 0 12054
0.10750000 0.10749900 16947.64151362 0 278.17687990 0 4422.39797644 0 -446.45504167 0 -497.73376624 0 12807
0.10850000 0.10850100 16633.01569966 0 489.03912290 0 4451.92716591 0 -181.73996508 0 102.66266163 0 12736
0.10950000 0.10950300 16132.13230309 0 655.32094510 0 4812.62840722 0 265.57161417 0 -157.15104161 0 12933
0.11050000 0.11050200 15645.07490692 0 535.82158718 0 4770.54341088 0 746.56692741 0 801.55956298 0 13428
0.11150000 0.11150900 15221.97681340 0 248.69939742 0 4393.36337560 0 1095.40028967 0 420.42506677 0 13453
0.11250000 0.11250000 15011.21461219 0 56.71593973 0 3852.54194698 0 762.15995810 0 454.41904271 0 13668
0.11350000 0.11349100 14759.31162931 0 56.54148484 0 3840.75050437 0 52.03982903 0 930.98441549 0 13791
0.11450000 0.11448600 15024.59098656 0 -67.43783443 0 4012.01305891 0 -602.94288488 0 1571.85887627 0 14205
0.11550000 0.11549300 14896.44756823 0 -27.38110112 0 4222.13454302 0 -469.90079096 0 1798.07697223 0 14776
0.11650000 0.11649800 14995.02807514 0 148.37434152 0 4982.82309994 0 -411.89116474 0 1648.58755816 0 14553
0.11750000 0.11747300 15164.98671419 0 139.89889087 0 5280.71158496 0 669.60219185 0 2232.53936363 0 14568
0.11850000 0.11849100 14890.49002334 0 274.86313606 0 4973.35847202 0 699.89686964 0 2297.28551184 0 16015
0.11950000 0.11950300 14936.23947182 0 218.54185558 0 5116.54188103 0 243.34435141 0 2423.63042606 0 15270
0.12050000 0.12050700 14548.43702160 0 145.37983216 0 4319.32120924 0 433.41139056 0 2213.66631106 0 15999
0.12150000 0.12150000 14427.26280672 0 225.74598863 0 4586.87117794 0 -170.97479388 0 1982.70466049 0 15670
0.12250000 0.12250700 14476.83407644 0 34.04635737 0 4543.70707913 0 -231.33596424 0 2165.06173730 0 16887
0.12350000 0.12352200 14262.58727351 0 304.78012799 0 4513.03134329 0 -809.90687021 0 1264.85422350 0 16407
0.12450000 0.12449800 14276.86289994 0 281.78400472 0 5080.00976616 0 -137.41470706 0 1277.89337835 0 16306
0.12550000 0.12549900 13867.25358730 0 398.80929541 0 5475.70315319 0 -176.09828248 0 1049.44288916 0 17523
0.12650000 0.12650100 13798.34839832 0 386.06014936 0 5254.11620533 0 489.33587608 0 1766.08608025 0 17154
0.12750000 0.12750600 13408.41022446 0 265.98976638 0 5786.42846135 0 701.97414189 0 2005.82667904 0 18007
0.12850000 0.12850300 13170.67046150 0 270.32978162 0 5321.59383167 0 884.24016943 0 2323.57739390 0 17496
0.12950000 0.12949900 13020.49536774 0 128.11644077 0 5125.59060487 0 1002.16471218 0 2844.61527724 0 18405
0.13050000 0.13049000 12929.22128380 0 69.44530225 0 4735.98965054 0 726.96548066 0 3297.46737324 0 18100
0.13150000 0.13148800 12781.51913320 0 -115.50443065 0 4066.50773365 0 1123.13322315 0 4061.78666034 0 19059
0.13250000 0.13249300 12760.61152284 0 -110.37172471 0 4114.35918381 0 649.77143583 0 3423.89097201 0 18957
0.13350000 0.13349100 12880.54926614 0 4.70477436 0 3327.12020987 0 564.95960200 0 3577.02235692 0 19468
0.13450000 0.13450700 12682.26418724 0 149.28820642 0 3685.48339582 0 -121.02021797 0 3564.34290289 0 19953
0.13550000 0.13551000 12746.89792894 0 177.79337261 0 3822.91159166 0 -555.06670529 0 3773.45272844 0 19956
0.13650000 0.13649900 12652.25164979 0 137.69122706 0 4288.39817908 0 -244.80113975 0 3530.23876858 0 19723
0.13750000 0.13749600 12672.70963412 0 71.76683384 0 3909.13862342 0 -261.47439698 0 2600.73811898 0 20946
0.13850000 0.13851100 12460.14892880 0 216.04755518 0 4415.54117950 0 -149.49278627 0 2754.75751529 0 20955
0.13950000 0.13949800 12232.07612546 0 188.66870219 0 3750.03845297 0 267.61966073 0 2317.59736772 0 20506
0.14050000 0.14048300 12161.59724538 0 287.04013300 0 3739.98931122 0 326.32733137 0 1653.96058921 0 21447
0.14150000 0.14148400 11839.88982146 0 202.67792520 0 3308.17971338 0 324.39393945 0 1348.28233323 0 21771
0.14250000 0.14249400 11607.32075784 0 250.33716023 0 3316.90245835 0 45.96864116 0 1021.56832347 0 22470
0.14350000 0.14350900 11281.00466712 0 314.46956892 0 3141.60451020 0 -224.95464682 0 435.91018722 0 22519
0.14450000 0.14449900 11288.98552913 0 143.13282608 0 3267.21878212 0 -288.62281662 0 549.14625455 0 22218
0.14550000 0.14550500 11027.04464515 0 196.57087966 0 3576.57273089 0 -140.94089919 0 145.12466939 0 23559
0.14650000 0.14650700 11131.35788393 0 115.06604527 0 3410.09869356 0 -130.43875921 0 249.09506833 0 23044
0.14750000 0.14750500 10880.18554335 0 164.81042102 0 3585.70013928 0 -300.95605861 0 140.59243902 0 23649
0.14850000 0.14849900 10985.19570248 0 138.09926269 0 3527.02394247 0 85.62464528 0 97.79984372 0 23640
0.14950000 0.14949500 10711.54206043 0 124.44861644 0 3758.21040605 0 58.04188690 0 145.62937461 0 24457
0.15050000 0.15050000 10750.07501114 0 52.61490072 0 3416.02251650 0 494.21431849 0 33.24579823 0 24591
0.15150000 0.15149900 10554.12798760 0 27.69988597 0 3547.70673981 0 469.88392999 0 387.49670452 0 25020
0.15250000 0.15250500 10507.18703014 0 207.22814062 0 3363.20269871 0 367.89188558 0 253.43620764 0 25297
0.15350000 0.15350100 10428.65984414 0 236.03118405 0 3229.71997128 0 65.93844403 0 140.03715087 0 25452
0.15450000 0.15450400 10015.83570539 0 365.99446374 0 3202.42767131 0 -304.23720455 0 513.14132620 0 26061
0.15550000 0.15549900 9887.55739925 0 269.83968925 0 3298.89493588 0 -70.04757631 0 421.06690793 0 26128
0.15650000 0.15649500 9656.83180234 0 112.52003788 0 3254.97771347 0 -130.60961710 0 373.84943047 0 26331
0.15750000 0.15749700 9615.35380115 0 85.80247238 0 3221.99764423 0 67.54338414 0 174.10868730 0 27345
0.15850000 0.15849900 9565.06312978 0 48.29511865 0 3175.41638760 0 80.43202668 0 -5.11754230 0 26980
0.15950000 0.15949700 9602.11231459 0 56.92074439 0 3007.95317301 0 216.48256836 0 -21.79090069 0 27777
0.16050000 0.16050000 9421.29520693 0 170.72974769 0 3209.50928127 0 321.89739092 0 560.60497391 0 28224
0.16150000 0.16150500 9410.36929442 0 145.96547007 0 3188.82648392 0 434.60289954 0 735.33302106 0 28075
0.16250000 0.16249700 9127.73437244 0 227.65689925 0 2656.58167181 0 421.04667476 0 587.26667338 0 28590
0.16350000 0.16349900 9149.51875355 0 185.13913786 0 3111.55825080 0 267.12394804 0 1535.97871914 0 29163
0.16450000 0.16449100 8776.87994117 0 91.97358963 0 2537.58814317 0 384.08067076 0 885.13380116 0 28996
0.16550000 0.16550500 8878.20316686 0 77.69245528 0 2645.58831540 0 199.70140089 0 1467.00608625 0 30777
0.16650000 0.16650700 8681.17704085 0 55.55433089 0 2197.28868294 0 116.26205051 0 727.87822150 0 29211
0.16750000 0.16749900 8755.01687550 0 8.61072064 0 2616.26145764 0 40.60876168 0 1261.33589983 0 30922
0.16850000 0.16850800 8670.57710721 0 92.43715407 0 2245.01648595 0 16.76655463 0 851.43208214 0 30867
0.16950000 0.16949900 8724.47602746 0 7.12294183 0 2293.35128409 0 -38.54958687 0 1107.95497247 0 30852
0.17050000 0.17049200 8644.24026254 0 123.03117038 0 2399.62039610 0 137.80925390 0 959.23779111 0 31257
0.17150000 0.17149500 8629.18903122 0 104.03199770 0 2357.49043716 0 145.61138957 0 1131.66375299 0 32608
0.17250000 0.17250900 8488.18630845 0 151.97022569 0 2456.55429205 0 47.39361846 0 1251.86003126 0 32361
0.17350000 0.17350400 8435.52385977 0 107.61742807 0 2602.53662310 0 -0.37259835 0 1134.04677095 0 32508
0.17450000 0.17449800 8318.11526289 0 67.38916242 0 2464.82741099 0 -19.11326528 0 1095.32160511 0 32791
0.17550000 0.17549800 8301.31049004 0 101.50352573 0 2473.22417709 0 -202.44749186 0 763.82919473 0 33633
0.17650000 0.17650100 8221.95149588 0 134.88780877 0 2398.83355055 0 -177.33700219 0 808.68051521 0 33984
0.17750000 0.17750300 8068.95499878 0 132.90270985 0 2484.77956604 0 -3.31210270 0 575.24592148 0 34069
0.17850000 0.17849800 8077.92503807 0 87.49036849 0 2441.28948836 0 40.24332812 0 566.46922139 0 34536
