### header ###
fiducial parameters:
Omega_m = 0.31
Omega_nu = 0
Omega_de = 0.69
Omega_k = 0
H_0 = 100
w_de = -1
zeff = 0
beta = 0
fgrowth = 0
b_1 = 2
gamma = 0.55
Lx = 3500 Ly = 3500 Lz = 3500
nx = 700 ny = 700 nz = 700
xoffset = 857.220397 yoffset = 15.9954215 zoffset = 262.898189
bins = 400 dk = 0.001
kx_ny = 0.628318531 ky_ny = 0.628318531 kz_ny = 0.628318531
############################
A(data) = 3.10920586 (not used)
A(ran) = 3.10802173 (used)
Ngal = 189837
weighted Ngal = 0
Nran = 9360983
weighted Nran = 0
SN(data) = 3443.78245
SN(ran) = 69.7944875
SN(data+ran) = 3513.57693
############################
13 columns: k_central k_mean P_0(k) sigma^{lin}_{P_0(k)} P^img_1(k) sigma^{lin}_{P_1(k)} P_2(k) sigma^{lin}_{P_2(k)} P^img_3(k) sigma^{lin}_{P_3(k)} P_4(k) sigma^{lin}_{P_4(k)} N_modes
### header ###
0.00050000 0 0 0 0 0 0 0 0 0 0 0 0
0.00150000 0.00179520 9398.04954121 0 -13820.60488677 0 -11707.69976886 0 11381.49608465 0 -26777.81539089 0 3
0.00250000 0.00253879 16642.00822025 0 -9831.26422039 0 5185.08736919 0 -17252.26314843 0 7849.47005261 0 6
0.00350000 0.00331552 24993.69930687 0 -10090.50734820 0 -8057.33216593 0 -3121.78724296 0 -2389.43636654 0 7
0.00450000 0.00420575 29676.44199489 0 -10081.36869915 0 -4304.64091939 0 -9259.53100226 0 5462.66399834 0 24
0.00550000 0.00557378 44409.67531451 0 -11490.53039674 0 -7800.56198128 0 -16541.85402223 0 -19462.73711468 0 45
0.00650000 0.00659388 56828.79586814 0 -22544.13669957 0 -1351.64328780 0 -18869.45556910 0 -24894.78158043 0 40
0.00750000 0.00754703 62648.64278411 0 -9499.09175064 0 -8050.25055597 0 -29156.67430509 0 -37517.47031880 0 57
0.00850000 0.00846663 79031.66641151 0 -15981.73239631 0 -15123.28389998 0 -37705.97603156 0 -47249.51331518 0 75
0.00950000 0.00948925 84945.26035458 0 -15756.24494264 0 -20804.53359244 0 -29983.31175985 0 -32574.50656635 0 112
0.01050000 0.01054430 97088.31052625 0 -12527.70523969 0 -26817.49488797 0 -24279.91798545 0 -51693.61698819 0 105
0.01150000 0.01145670 103064.06526786 0 -6929.71504720 0 -28124.89497449 0 -34677.40750511 0 -50556.51276024 0 144
0.01250000 0.01249090 108377.29605539 0 -1070.86756945 0 -39377.12357574 0 -18134.87904383 0 -53168.83999012 0 169
0.01350000 0.01339930 104822.21544870 0 6340.33400742 0 -36422.63093760 0 -25488.73756506 0 -27471.47594750 0 180
0.01450000 0.01448870 96715.00851548 0 9765.02306563 0 -29522.33267337 0 -17961.09858353 0 -35661.63888311 0 267
0.01550000 0.01550050 92103.19433357 0 9615.00534097 0 -25820.56157464 0 -8432.53384668 0 -30059.97299783 0 238
0.01650000 0.01653350 79745.56013944 0 8914.56667197 0 -16452.71566194 0 -7416.35653929 0 -9645.99581504 0 315
0.01750000 0.01747870 74093.53613888 0 10001.66124482 0 -17865.77786533 0 13630.86270243 0 -11086.54140947 0 297
0.01850000 0.01844180 69204.86472946 0 5479.03038581 0 -16127.63604280 0 4556.81367788 0 -8917.99507045 0 388
0.01950000 0.01947590 64392.18011899 0 3802.73462360 0 -13102.21489855 0 -1007.34103184 0 -3315.40745180 0 399
0.02050000 0.02045430 61376.31352787 0 -1439.89363669 0 -12161.14761935 0 -889.37714681 0 3879.68811850 0 462
0.02150000 0.02154770 61383.84476385 0 -1558.98833118 0 -13278.58070852 0 -5785.45052473 0 -161.33368775 0 571
0.02250000 0.02255340 67029.34918699 0 -1960.97648262 0 -18277.86012113 0 -3348.75846252 0 131.86294966 0 510
0.02350000 0.02348930 62424.61661504 0 5392.38744997 0 -336.51023687 0 -14194.58133659 0 -3407.77187886 0 555
0.02450000 0.02439640 60139.16750841 0 5291.68246007 0 -2112.08455040 0 -4681.58490100 0 399.25217705 0 592
0.02550000 0.02547300 55321.76182463 0 2763.60390742 0 10070.20673298 0 -2837.88212745 0 4854.47734989 0 837
0.02650000 0.02652900 53706.92994062 0 946.06150032 0 8083.20814391 0 -2668.11457946 0 5439.21600092 0 723
0.02750000 0.02749970 55616.37928029 0 -1309.19859064 0 11306.97057030 0 2216.39778918 0 -2224.62594552 0 826
0.02850000 0.02848090 56114.22770117 0 -1296.00206668 0 18758.95997241 0 -3405.89469019 0 1663.30156997 0 831
0.02950000 0.02946900 58641.23839200 0 -2021.77716243 0 20646.71485618 0 -1172.04017042 0 845.12495301 0 996
0.03050000 0.03053250 60760.43827431 0 -2589.78972517 0 18115.20790505 0 -920.22261648 0 878.07467250 0 1041
0.03150000 0.03150510 65172.84331226 0 -2070.99997198 0 13386.49095554 0 -793.30105688 0 -8454.98142619 0 1036
0.03250000 0.03246190 62954.27607748 0 323.44410446 0 18041.24442324 0 916.17485815 0 404.95793136 0 1059
0.03350000 0.03345080 64414.09938792 0 2575.64898655 0 9425.80270787 0 4003.06550092 0 -8006.73799699 0 1302
0.03450000 0.03451200 58481.05911908 0 3492.30157236 0 12534.78684965 0 1256.23264439 0 -3454.03839727 0 1339
0.03550000 0.03553350 55873.22814949 0 4858.46778090 0 5197.35091914 0 -401.38340443 0 -12148.89531006 0 1365
0.03650000 0.03647120 52161.22805860 0 3676.55831914 0 14312.38335625 0 -3657.80891372 0 -6984.09731543 0 1308
0.03750000 0.03744890 48911.89315179 0 3825.19344376 0 9902.36133626 0 -6556.87390310 0 -15370.12859004 0 1579
0.03850000 0.03847530 45961.67196094 0 2588.01370235 0 13848.03207455 0 -7141.53386957 0 -10759.56212036 0 1662
0.03950000 0.03950240 44577.94785595 0 434.49049303 0 13738.43572992 0 -2890.88179565 0 -18487.27344425 0 1683
0.04050000 0.04050350 45300.04725891 0 -1305.62406371 0 15261.20668445 0 -1413.41066357 0 -18127.01058832 0 1822
0.04150000 0.04152450 47638.21501746 0 -3215.37690095 0 14326.43416966 0 1133.64210752 0 -21475.71284759 0 1887
0.04250000 0.04250150 48955.05725060 0 -1724.55187580 0 14777.74629651 0 172.06626106 0 -23067.72621062 0 1920
0.04350000 0.04349210 51100.67266213 0 1099.43231109 0 17823.40061207 0 -1837.47545304 0 -20541.16514581 0 2005
0.04450000 0.04448520 49630.17073350 0 1956.01935565 0 16210.59204519 0 -2268.37455816 0 -17131.53855958 0 2151
0.04550000 0.04548030 48127.18332426 0 3459.11917140 0 19402.48722676 0 -1547.10696336 0 -12452.16806678 0 2274
0.04650000 0.04648670 45483.71949185 0 2232.40447583 0 19504.43992889 0 1483.24882656 0 -11858.88652120 0 2311
0.04750000 0.04749250 43663.97054501 0 1896.92725476 0 19354.60205465 0 3031.18759807 0 -5187.74016276 0 2568
0.04850000 0.04851840 43127.45428562 0 1082.24423205 0 19615.49755812 0 5910.37911696 0 -3849.68682170 0 2493
0.04950000 0.04949480 40595.72252148 0 1279.71436377 0 19705.42276396 0 2584.41669412 0 -3484.74785507 0 2644
0.05050000 0.05050630 40328.86947313 0 1839.54373278 0 16783.64041946 0 180.09770601 0 -3725.90477585 0 2829
0.05150000 0.05149060 38487.76328990 0 1022.91495343 0 19513.43244948 0 -609.57149662 0 -2195.67002924 0 2784
0.05250000 0.05249300 38115.58534420 0 1232.16641118 0 20421.67702854 0 -2711.77326690 0 493.69612450 0 3055
0.05350000 0.05348950 37613.12825652 0 599.22897388 0 22220.63077153 0 1602.59081537 0 -4072.16178097 0 3009
0.05450000 0.05448610 37887.17532134 0 458.65789210 0 19585.70983368 0 1412.20791394 0 -856.60952587 0 3336
0.05550000 0.05550870 36234.12522484 0 689.88144983 0 18766.26639539 0 2698.83527791 0 -3266.99396911 0 3349
0.05650000 0.05647670 36715.67470216 0 289.84017910 0 15590.67015738 0 3233.98017791 0 -1685.91775924 0 3324
0.05750000 0.05747970 35472.79595083 0 -834.46319580 0 13064.55871860 0 4832.08597364 0 -2601.10906045 0 3639
0.05850000 0.05849280 35590.59797049 0 152.74470652 0 12016.48044444 0 3752.74744980 0 -3084.58068904 0 3846
0.05950000 0.05951020 35504.49458589 0 -30.78420812 0 10320.36741499 0 3185.49925131 0 -2435.42186868 0 3787
0.06050000 0.06049470 34498.90597150 0 1082.37687173 0 11155.03069437 0 1413.97269610 0 -2675.47720569 0 3930
0.06150000 0.06148310 33722.06459948 0 1865.83561484 0 9776.51101068 0 -676.42639091 0 -376.92374844 0 4083
0.06250000 0.06249100 32230.54265399 0 1340.49256227 0 10434.12280039 0 269.10005443 0 -1183.47191221 0 4303
0.06350000 0.06350600 31185.38694902 0 578.57315410 0 11379.24795450 0 767.67574541 0 -232.53871387 0 4470
0.06450000 0.06451750 31196.29038023 0 -86.37675723 0 9164.04167430 0 2660.24612395 0 -379.86992300 0 4479
0.06550000 0.06550280 31190.89486788 0 364.28363669 0 8232.16924740 0 1780.02448716 0 -729.06298609 0 4636
0.06650000 0.06648880 30587.49673664 0 905.18374987 0 8837.72558358 0 81.86824462 0 -772.05735107 0 4653
0.06750000 0.06749660 30249.04074313 0 1318.68569986 0 7815.42212154 0 -864.38018772 0 -204.34828590 0 5220
0.06850000 0.06852730 28768.53463535 0 963.01240162 0 9931.63199076 0 -1496.25425945 0 2041.36961665 0 5029
0.06950000 0.06949320 28551.47766973 0 683.08760053 0 10282.83488220 0 -1328.89221072 0 2371.74358229 0 5040
0.07050000 0.07048030 28461.66487039 0 422.72265578 0 13484.05980388 0 -142.28865321 0 4386.77635428 0 5475
0.07150000 0.07148790 29118.11887308 0 431.32287765 0 13952.12050032 0 557.26987283 0 4462.25732394 0 5509
0.07250000 0.07249820 28230.44468485 0 705.88701241 0 13386.60336204 0 605.67661114 0 3551.19134154 0 5916
0.07350000 0.07351270 27680.88927062 0 463.94661827 0 14398.82396037 0 855.38879120 0 5203.66816485 0 5721
0.07450000 0.07449140 27287.80371455 0 506.21034095 0 13118.28902910 0 -252.98320942 0 2870.33388611 0 6028
0.07550000 0.07549160 26989.36443765 0 462.08629057 0 14566.08484325 0 269.54181201 0 3414.05540262 0 6183
0.07650000 0.07648840 27140.55118998 0 7.77965437 0 13880.85477469 0 -1102.28181605 0 2477.70919673 0 6330
0.07750000 0.07749960 26795.57561904 0 224.71072470 0 14954.89895203 0 -1127.51595287 0 2988.66421636 0 6583
0.07850000 0.07848650 27456.86310155 0 -41.65088241 0 15655.07908607 0 -99.92117932 0 1339.36849720 0 6549
0.07950000 0.07947320 27172.13741853 0 50.79964804 0 15226.02344766 0 773.66026786 0 1480.15764761 0 6828
0.08050000 0.08048110 27376.38004231 0 18.99782380 0 15330.67390597 0 698.23325333 0 -535.74964701 0 7147
0.08150000 0.08149960 27048.93988652 0 73.34906784 0 13656.94101212 0 1410.96020171 0 -1045.35129229 0 7386
0.08250000 0.08250610 26808.16514786 0 428.60713644 0 12430.36120436 0 1869.44386372 0 -2163.65665595 0 7227
0.08350000 0.08350160 25830.79056680 0 661.11550055 0 10390.45287230 0 1758.15018083 0 -3303.04273600 0 7798
0.08450000 0.08449610 25461.64759680 0 514.70152852 0 9169.70696227 0 1187.20380826 0 -1498.59231481 0 7371
0.08550000 0.08548940 24436.05062410 0 757.01960852 0 8716.98975407 0 1044.02039924 0 -4515.18954823 0 8256
0.08650000 0.08650700 23771.72816590 0 1128.22411387 0 8092.12197994 0 649.00707158 0 -2898.39055034 0 8037
0.08750000 0.08749060 22674.07862202 0 965.23355421 0 8309.28011141 0 -73.48047105 0 -3357.77346441 0 8155
0.08850000 0.08849210 22135.65145200 0 406.41921596 0 8402.09416450 0 -171.13890738 0 -828.01668260 0 8718
0.08950000 0.08949900 21720.98384654 0 373.03335922 0 8152.14705484 0 -203.50411303 0 -2850.48289692 0 8571
0.09050000 0.09049190 21382.97747906 0 138.69276904 0 8199.45895377 0 776.30406891 0 -1858.12452844 0 8932
0.09150000 0.09150830 21263.60176829 0 584.17999068 0 7117.93974369 0 439.61510570 0 -2583.15774124 0 9285
0.09250000 0.09250820 20331.07738365 0 675.77780536 0 6521.58950046 0 962.06481476 0 -2440.96350949 0 9204
0.09350000 0.09350330 19854.47379266 0 679.12639521 0 6881.40273035 0 1033.55310528 0 -1534.64108170 0 9349
0.09450000 0.09448040 19329.98502955 0 421.47269542 0 6132.39320955 0 1063.36443509 0 -2174.82986278 0 9564
0.09550000 0.09549270 19269.06070259 0 257.73575655 0 6907.93066608 0 996.43760063 0 780.81494205 0 10155
0.09650000 0.09649430 19158.90232542 0 21.69187056 0 7195.21921746 0 914.81698755 0 1803.74226020 0 9913
0.09750000 0.09749140 19323.80267165 0 -16.51869828 0 7940.10341945 0 728.38854704 0 4849.61014813 0 10476
0.09850000 0.09850240 19563.56575174 0 24.54474772 0 8393.00047806 0 976.35505404 0 5221.83305643 0 10575
0.09950000 0.09950330 19734.87326888 0 134.19988095 0 8608.92213795 0 706.75591471 0 7075.79854410 0 10882
0.10050000 0.10051200 19214.54354654 0 313.03751001 0 8837.70310227 0 905.27592321 0 6220.73348364 0 10875
0.10150000 0.10150300 19020.75472794 0 553.02540312 0 8863.91629978 0 -69.72519445 0 6671.23628364 0 11118
0.10250000 0.10250800 18577.31105660 0 613.84294390 0 8213.71209890 0 47.34595810 0 5738.93671201 0 11575
0.10350000 0.10349800 18019.43756082 0 477.00038596 0 8060.37838227 0 124.36655969 0 4407.16689470 0 11364
0.10450000 0.10450100 17392.09684353 0 369.90621019 0 6517.09324016 0 374.24285324 0 2845.63817645 0 12093
0.10550000 0.10551000 17221.57617194 0 197.74215546 0 5934.80505100 0 520.19595859 0 1570.98210551 0 12067
0.10650000 0.10649700 16602.89075570 0 174.87080342 0 4901.31714149 0 603.07102830 0 608.65650765 0 12054
0.10750000 0.10749900 16370.65891160 0 319.78864484 0 4570.25749616 0 578.52257117 0 -809.81694500 0 12807
0.10850000 0.10850100 15812.56060281 0 358.26651636 0 3399.28518756 0 213.73984958 0 -1662.72829678 0 12736
0.10950000 0.10950300 15475.11626786 0 320.70138568 0 3434.19864873 0 379.55181258 0 -1440.91653590 0 12933
0.11050000 0.11050200 15148.01333159 0 372.36566457 0 3049.01527013 0 373.62236932 0 -1323.14823820 0 13428
0.11150000 0.11150900 14925.56085362 0 116.69369150 0 3004.43484933 0 378.36479987 0 -1104.24668180 0 13453
0.11250000 0.11250000 14931.29358550 0 69.86952441 0 2757.53395603 0 40.36360308 0 -1512.47451846 0 13668
0.11350000 0.11349100 14884.30766544 0 143.75331000 0 3859.43246588 0 -385.27892413 0 -101.39584029 0 13791
0.11450000 0.11448600 14867.44668935 0 14.87014445 0 3361.58404501 0 -343.49180504 0 -736.90446404 0 14205
0.11550000 0.11549300 15260.98187144 0 23.48486676 0 4733.68531714 0 -329.40389748 0 1008.46509692 0 14776
0.11650000 0.11649800 14984.46186346 0 -20.36974522 0 4476.85892923 0 -16.84355309 0 651.63288759 0 14553
0.11750000 0.11747300 15462.41433254 0 6.94573297 0 5754.96587995 0 24.25496374 0 1156.66296022 0 14568
0.11850000 0.11849100 15408.57161554 0 39.27809344 0 5346.82909256 0 -140.62503690 0 1263.21308850 0 16015
0.11950000 0.11950300 15366.30676879 0 349.78994164 0 5598.69835349 0 -400.50550961 0 552.08905691 0 15270
0.12050000 0.12050700 15135.98583531 0 408.15589650 0 5882.99689178 0 -788.46532894 0 1130.51720662 0 15999
0.12150000 0.12150000 14988.05887169 0 332.49844862 0 5968.25722757 0 -311.27610004 0 624.25853087 0 15670
0.12250000 0.12250700 14638.58704046 0 159.70716559 0 5869.01352227 0 225.47508895 0 1090.44653489 0 16887
0.12350000 0.12352200 14561.13895693 0 -43.14914874 0 5302.96807341 0 934.54208145 0 63.32398108 0 16407
0.12450000 0.12449800 14505.04810978 0 -60.90364416 0 5101.56933426 0 1147.79408679 0 694.76776071 0 16306
0.12550000 0.12549900 14486.61344258 0 94.79948922 0 4376.97450684 0 966.91290742 0 411.34824131 0 17523
0.12650000 0.12650100 14297.88291681 0 245.75097474 0 4055.63802439 0 705.19796052 0 919.10979206 0 17154
0.12750000 0.12750600 14179.63127112 0 207.41698355 0 3850.18141033 0 351.88632300 0 1353.53171712 0 18007
0.12850000 0.12850300 13900.86313299 0 102.17414295 0 3787.93068658 0 243.99406103 0 1172.22002083 0 17496
0.12950000 0.12949900 13801.72059354 0 263.36395037 0 3533.22878167 0 25.14971954 0 1783.22807262 0 18405
0.13050000 0.13049000 13790.70475582 0 242.76320977 0 3673.84932231 0 98.30005268 0 666.85048055 0 18100
0.13150000 0.13148800 13348.16033654 0 338.84941629 0 3620.10777117 0 18.08463334 0 643.15294068 0 19059
0.13250000 0.13249300 13071.52792205 0 378.04219319 0 3536.18507281 0 -56.78664343 0 154.71182040 0 18957
0.13350000 0.13349100 12545.57787435 0 372.99963727 0 3272.60305382 0 -172.33266449 0 -64.36171796 0 19468
0.13450000 0.13450700 12258.15443516 0 315.44076114 0 3243.82698795 0 -2.42078654 0 -763.46724578 0 19953
0.13550000 0.13551000 12170.92698549 0 116.58128499 0 3524.18005783 0 -108.49341198 0 -355.71826084 0 19956
0.13650000 0.13649900 11933.29962903 0 163.65263399 0 3099.19353499 0 317.71586885 0 -440.19961954 0 19723
0.13750000 0.13749600 12053.68699836 0 -24.40581327 0 3574.60561701 0 271.62695272 0 -482.15984465 0 20946
0.13850000 0.13851100 12077.85439744 0 70.53272280 0 3215.37690095 0 156.71153217 0 -7.35499383 0 20955
0.13950000 0.13949800 11947.35044245 0 247.12121006 0 3429.00546809 0 -8.71002055 0 -325.44494029 0 20506
0.14050000 0.14048300 11770.98463248 0 343.95267172 0 3168.27857439 0 55.78757439 0 564.20423027 0 21447
0.14150000 0.14148400 11489.85595770 0 349.64718538 0 3303.03149535 0 -82.23536428 0 -61.45612215 0 21771
0.14250000 0.14249400 11263.46925198 0 214.68968457 0 3546.31289912 0 75.54683987 0 620.13770831 0 22470
0.14350000 0.14350900 11113.84495009 0 122.88166973 0 3593.20889397 0 59.06714665 0 23.61941735 0 22519
0.14450000 0.14449900 11139.26006140 0 13.32028352 0 3563.96072077 0 102.32993837 0 367.03422393 0 22218
0.14550000 0.14550500 10996.15533694 0 100.77468193 0 3808.37743026 0 308.27372223 0 444.20803559 0 23559
0.14650000 0.14650700 10967.71649059 0 104.18599462 0 3605.10150244 0 96.04607739 0 273.08486512 0 23044
0.14750000 0.14750500 10953.86800889 0 34.65200363 0 3773.94731707 0 186.58468555 0 549.56553082 0 23649
0.14850000 0.14849900 10882.66972716 0 37.09392260 0 3806.96110827 0 145.84856730 0 -44.17733106 0 23640
0.14950000 0.14949500 10925.47412514 0 53.47289959 0 3644.45502065 0 67.69063667 0 404.61621558 0 24457
0.15050000 0.15050000 10797.01596859 0 34.26184065 0 3129.82430824 0 51.90359234 0 -202.11027234 0 24591
0.15150000 0.15149900 10920.08985344 0 51.70339635 0 3083.69267764 0 75.80627409 0 -309.94745513 0 25020
0.15250000 0.15250500 10902.45327245 0 112.46833089 0 3210.16123901 0 -156.50020793 0 -527.29218140 0 25297
0.15350000 0.15350100 10825.46605559 0 185.44375950 0 3199.20160455 0 -357.27846316 0 -1009.23170930 0 25452
0.15450000 0.15450400 10663.35339075 0 310.39595709 0 3375.15151044 0 -366.87235856 0 -558.12978262 0 26061
0.15550000 0.15549900 10362.92451866 0 262.09825309 0 3338.11356628 0 -91.04185209 0 -806.53242686 0 26128
0.15650000 0.15649500 10168.10156019 0 344.08643546 0 3764.26911679 0 185.92036309 0 -195.48278467 0 26331
0.15750000 0.15749700 9986.98095496 0 241.82798763 0 3614.81342468 0 501.42069968 0 -461.48266763 0 27345
0.15850000 0.15849900 9793.06848920 0 112.31354713 0 3657.58410071 0 607.57965331 0 167.01246450 0 26980
0.15950000 0.15949700 9665.00375543 0 38.68188933 0 3126.05869024 0 370.77061623 0 156.09666857 0 27777
0.16050000 0.16050000 9672.18653124 0 -100.40239158 0 3207.31735438 0 571.64554105 0 421.44234566 0 28224
0.16150000 0.16150500 9805.09598549 0 -136.79085094 0 2749.77790702 0 246.67045997 0 330.40881165 0 28075
0.16250000 0.16249700 9850.60938030 0 -51.56693485 0 2757.29790236 0 218.60592729 0 101.91133654 0 28590
0.16350000 0.16349900 9856.16226176 0 150.96306338 0 2671.63290314 0 -318.15987455 0 212.46965605 0 29163
0.16450000 0.16449100 9607.55278954 0 243.46912264 0 2799.51778651 0 45.47618826 0 145.69344632 0 28996
0.16550000 0.16550500 9388.83220762 0 269.34959688 0 2685.35773768 0 -111.47162239 0 -23.43630715 0 30777
0.16650000 0.16650700 9295.14138377 0 193.48419697 0 2419.84232676 0 376.70455575 0 -34.68516355 0 29211
0.16750000 0.16749900 9010.51686661 0 61.03886919 0 2208.83283124 0 605.69572025 0 -35.52798755 0 30922
0.16850000 0.16850800 9026.81581017 0 44.05514519 0 1785.31883365 0 503.83856365 0 20.56735586 0 30867
0.16950000 0.16949900 8820.23513104 0 140.88357187 0 1684.52391855 0 346.88872969 0 -91.47259383 0 30852
0.17050000 0.17049200 8752.19547216 0 196.29773185 0 1353.35186671 0 7.91866750 0 93.69003700 0 31257
0.17150000 0.17149500 8555.73137869 0 190.45708973 0 1537.86714846 0 -66.10986396 0 99.95119186 0 32608
0.17250000 0.17250900 8444.51638036 0 167.27886792 0 1483.10269810 0 -229.41493703 0 228.02671666 0 32361
0.17350000 0.17350400 8353.08492731 0 126.24262429 0 1753.22677581 0 -206.08159424 0 165.44776591 0 32508
0.17450000 0.17449800 8257.69676521 0 108.78229670 0 1671.05761897 0 -91.13188970 0 154.90515959 0 32791
0.17550000 0.17549800 8242.83662494 0 111.97385466 0 2192.61257224 0 -104.61875967 0 388.91527464 0 33633
0.17650000 0.17650100 8108.17362918 0 119.64099012 0 2091.93006364 0 296.77790873 0 609.26575092 0 33984
0.17750000 0.17750300 8079.37508201 0 50.85045578 0 2170.09754882 0 203.81772718 0 310.50274327 0 34069
