### header ###
fiducial parameters:
Omega_m = 0.31
Omega_nu = 0
Omega_de = 0.69
Omega_k = 0
H_0 = 100
w_de = -1
zeff = 0
beta = 0
fgrowth = 0
b_1 = 2
gamma = 0.55
Lx = 3500 Ly = 3500 Lz = 3500
nx = 700 ny = 700 nz = 700
xoffset = 857.220397 yoffset = 15.9954215 zoffset = 262.898189
bins = 400 dk = 0.001
kx_ny = 0.628318531 ky_ny = 0.628318531 kz_ny = 0.628318531
############################
A(data) = 3.0949558 (not used)
A(ran) = 3.0940239 (used)
Ngal = 188528
weighted Ngal = 0
Nran = 9360983
weighted Nran = 0
SN(data) = 3450.49341
SN(ran) = 69.4801489
SN(data+ran) = 3519.97356
############################
13 columns: k_central k_mean P_0(k) sigma^{lin}_{P_0(k)} P^img_1(k) sigma^{lin}_{P_1(k)} P_2(k) sigma^{lin}_{P_2(k)} P^img_3(k) sigma^{lin}_{P_3(k)} P_4(k) sigma^{lin}_{P_4(k)} N_modes
### header ###
0.00050000 0 0 0 0 0 0 0 0 0 0 0 0
0.00150000 0.00179520 24355.56756487 0 -41186.08149787 0 -16708.44046607 0 62183.05503083 0 -43370.81437395 0 3
0.00250000 0.00253879 48379.31112016 0 -52758.55623844 0 -20623.55911567 0 -4465.33726224 0 46352.28457384 0 6
0.00350000 0.00331552 70223.94212474 0 -44674.05541970 0 -22291.55927764 0 -39325.52898888 0 -46246.28523744 0 7
0.00450000 0.00420575 94881.88319427 0 -36430.38698661 0 -39507.17790469 0 -20262.62182070 0 683.94638625 0 24
0.00550000 0.00557378 109240.91525105 0 -9435.63827726 0 -44217.12296749 0 -45096.92870020 0 -12574.01672070 0 45
0.00650000 0.00659388 122162.26807934 0 -4159.95126318 0 -51336.83873399 0 -47853.47347896 0 27195.85519157 0 40
0.00750000 0.00754703 102820.36796001 0 16497.34104534 0 -24931.31369531 0 -64802.57627718 0 -15113.50453385 0 57
0.00850000 0.00846663 99490.43758747 0 19534.78968587 0 -20156.28526478 0 -45433.69859610 0 11284.48926884 0 75
0.00950000 0.00948925 77358.83276972 0 8917.98382980 0 -6628.21831329 0 -12365.27783663 0 -10169.21438461 0 112
0.01050000 0.01054430 84516.65434221 0 -606.78044304 0 -16087.61932619 0 -1189.56434491 0 -19955.75205574 0 105
0.01150000 0.01145670 80146.17693149 0 -11722.53742783 0 -21228.53093801 0 19891.68034658 0 -33140.81055018 0 144
0.01250000 0.01249090 88663.21799036 0 -6545.17238569 0 -28659.38791675 0 -1581.09869117 0 -48734.96530929 0 169
0.01350000 0.01339930 92573.50316015 0 5027.50468659 0 -27047.47860193 0 -18134.65423082 0 -28627.91409470 0 180
0.01450000 0.01448870 84308.58989717 0 8185.43062166 0 -28411.75638115 0 -26985.09299037 0 -12135.63134219 0 267
0.01550000 0.01550050 81176.15775797 0 8715.67459794 0 -34969.88923713 0 -21922.19149462 0 -8006.35581486 0 238
0.01650000 0.01653350 75417.34757547 0 1704.45359229 0 -13955.38028903 0 -4313.20629524 0 -10663.89294198 0 315
0.01750000 0.01747870 72033.68689243 0 2018.16891354 0 -16154.72601106 0 680.22348273 0 -17545.30691299 0 297
0.01850000 0.01844180 77042.29604514 0 2773.55188332 0 -540.47746471 0 -8899.29062763 0 -7207.51648936 0 388
0.01950000 0.01947590 71242.90711350 0 2441.86276155 0 1216.23840909 0 -12595.93598963 0 -6842.22906256 0 399
0.02050000 0.02045430 70833.41020737 0 5267.47009840 0 24370.29281733 0 -10047.38821199 0 14461.99641748 0 462
0.02150000 0.02154770 74891.28512126 0 -108.03872766 0 40580.54764299 0 -12961.25713838 0 23395.50358593 0 571
0.02250000 0.02255340 72843.01374506 0 -1002.19056568 0 44145.96964836 0 7142.02845820 0 28166.82260172 0 510
0.02350000 0.02348930 82149.48570477 0 -2260.02275467 0 54071.46424382 0 12828.84227277 0 35015.86349862 0 555
0.02450000 0.02439640 86819.41405096 0 -2726.07137463 0 57306.63593071 0 13633.11083258 0 33136.76391592 0 592
0.02550000 0.02547300 88799.56708373 0 614.64215417 0 53903.30410889 0 12555.58205350 0 36598.88434106 0 837
0.02650000 0.02652900 87281.17998299 0 6666.91987376 0 52093.10971517 0 9027.45652726 0 30883.57547689 0 723
0.02750000 0.02749970 74997.84649019 0 8663.31564683 0 38324.77385430 0 8742.67464100 0 34270.83316817 0 826
0.02850000 0.02848090 71326.31274192 0 9071.23886186 0 41239.58699535 0 9895.66190843 0 24172.56977097 0 831
0.02950000 0.02946900 61836.05614276 0 6019.73940792 0 41458.55487159 0 11948.92413355 0 19620.78066396 0 996
0.03050000 0.03053250 55906.72528867 0 2469.99811033 0 30723.62101699 0 16137.75262845 0 17610.72750024 0 1041
0.03150000 0.03150510 55129.99632316 0 -816.03976925 0 32931.50963357 0 7981.63762390 0 10463.64074921 0 1036
0.03250000 0.03246190 53449.74385189 0 809.73601232 0 27302.07934098 0 4154.44334432 0 13436.06222526 0 1059
0.03350000 0.03345080 56094.10693636 0 830.85494691 0 26810.86290404 0 2432.52178079 0 8198.41357325 0 1302
0.03450000 0.03451200 53023.94800220 0 403.62591425 0 27054.56021189 0 1953.31035883 0 18622.16125302 0 1339
0.03550000 0.03553350 54031.11030770 0 1440.12969035 0 22254.12791071 0 7870.70364184 0 9044.27254076 0 1365
0.03650000 0.03647120 50762.10426211 0 1325.21651793 0 22320.11053050 0 5023.70534665 0 14284.95616847 0 1308
0.03750000 0.03744890 48936.62258340 0 2626.79394737 0 14556.75510314 0 7036.53495109 0 5993.31263805 0 1579
0.03850000 0.03847530 48708.66218657 0 1893.48761564 0 17136.48444590 0 2734.53558463 0 11251.10453617 0 1662
0.03950000 0.03950240 45432.57453103 0 1872.99590935 0 12745.54905086 0 -4973.38095332 0 8654.90764009 0 1683
0.04050000 0.04050350 45285.88403899 0 493.15544920 0 17534.40348178 0 -5072.65838058 0 8406.86020041 0 1822
0.04150000 0.04152450 46997.49792580 0 -523.68280845 0 23637.85201569 0 -6573.09416211 0 9123.81138533 0 1887
0.04250000 0.04250150 46414.10815286 0 -40.57414047 0 21217.40269379 0 -4363.15974709 0 954.20759990 0 1920
0.04350000 0.04349210 48188.44487074 0 528.10712858 0 30594.69075310 0 -3417.06789702 0 3168.36849959 0 2005
0.04450000 0.04448520 45286.78329105 0 2083.80307316 0 23909.08891783 0 -875.37017194 0 -7198.14178665 0 2151
0.04550000 0.04548030 44253.54267585 0 3312.18138504 0 26406.42429074 0 4528.86942017 0 -6171.46571149 0 2274
0.04650000 0.04648670 39588.33540297 0 1780.00200586 0 19376.29651056 0 1137.59881658 0 -6917.87864198 0 2311
0.04750000 0.04749250 38376.14362814 0 930.33245775 0 13407.62337891 0 6425.07727328 0 -10705.01124236 0 2568
0.04850000 0.04851840 37465.20129290 0 -487.54074416 0 12084.48638137 0 6222.58819101 0 -11005.60872421 0 2493
0.04950000 0.04949480 37690.46393355 0 -98.92390879 0 7005.81425265 0 4252.90020407 0 -12076.84273887 0 2644
0.05050000 0.05050630 37009.50531227 0 -17.21067274 0 6651.57638551 0 2260.31501159 0 -7680.44438757 0 2829
0.05150000 0.05149060 38028.24548802 0 716.20368165 0 5379.80916180 0 114.37924151 0 -1838.79060918 0 2784
0.05250000 0.05249300 37160.01762555 0 171.80997423 0 6396.63842693 0 2675.79194391 0 43.08125521 0 3055
0.05350000 0.05348950 37002.31129580 0 1036.88371009 0 10221.75318613 0 580.85950246 0 2930.23531386 0 3009
0.05450000 0.05448610 37025.24222329 0 821.58590632 0 9184.92680336 0 -62.17473695 0 6906.05347741 0 3336
0.05550000 0.05550870 36007.40129960 0 1639.96597905 0 12275.68985030 0 -738.66587401 0 9111.90753621 0 3349
0.05650000 0.05647670 35611.73039387 0 1030.51925365 0 11322.48266831 0 125.26693581 0 8623.56870585 0 3324
0.05750000 0.05747970 34461.02497854 0 851.73445564 0 13356.02879206 0 -920.87232610 0 5499.40968558 0 3639
0.05850000 0.05849280 34364.01816273 0 430.56750593 0 14750.31910873 0 -1521.29842928 0 3807.95028553 0 3846
0.05950000 0.05951020 34139.20514811 0 642.37396358 0 15080.45702070 0 -1545.58947551 0 5090.42984939 0 3787
0.06050000 0.06049470 33635.96121488 0 210.55649730 0 15603.93412524 0 -55.75385244 0 4202.19362862 0 3930
0.06150000 0.06148310 34257.45679380 0 -994.93472563 0 14600.93086051 0 2342.36052128 0 3935.08204530 0 4083
0.06250000 0.06249100 34152.46911597 0 -494.63134664 0 15372.48912669 0 3840.91911413 0 1602.84935033 0 4303
0.06350000 0.06350600 34838.03640405 0 119.29702621 0 12136.98022028 0 1942.57553738 0 1952.09636855 0 4470
0.06450000 0.06451750 34742.71568585 0 227.90531764 0 13511.82421119 0 909.77218350 0 -884.71452489 0 4479
0.06550000 0.06550280 34182.81887294 0 1382.67872447 0 10843.39489351 0 -857.37051792 0 483.84819039 0 4636
0.06650000 0.06648880 32990.18583039 0 944.73510353 0 11981.97164670 0 -1323.59786422 0 -1481.47280374 0 4653
0.06750000 0.06749660 32008.98942808 0 1217.04773595 0 10774.09628175 0 -807.03488395 0 -997.92473873 0 5220
0.06850000 0.06852730 30777.80095351 0 1427.14673876 0 10097.35290449 0 62.72316830 0 -3283.11306225 0 5029
0.06950000 0.06949320 29184.77593192 0 1664.20082202 0 10907.37667747 0 616.12592006 0 -2985.20209593 0 5040
0.07050000 0.07048030 28384.32919336 0 1057.36529979 0 10037.62008651 0 582.74006333 0 -3141.90800777 0 5475
0.07150000 0.07148790 27509.58175348 0 576.56220168 0 9240.47809927 0 1568.21690543 0 -4017.54345907 0 5509
0.07250000 0.07249820 27109.41458745 0 337.53875641 0 9756.58133693 0 487.12933634 0 -2142.27693826 0 5916
0.07350000 0.07351270 26291.09521424 0 110.97782060 0 7310.76186633 0 966.89604645 0 -4128.33131267 0 5721
0.07450000 0.07449140 26661.24984281 0 439.49707887 0 8083.80389840 0 188.97219976 0 -2683.97513764 0 6028
0.07550000 0.07549160 25961.63174131 0 473.92719205 0 6960.54815215 0 472.96836455 0 -3256.01185334 0 6183
0.07650000 0.07648840 25702.08511593 0 268.83702321 0 7302.44378479 0 1169.23000774 0 -2449.59632925 0 6330
0.07750000 0.07749960 25304.50329958 0 -3.29168968 0 7029.45334113 0 1354.91431716 0 -2468.66047289 0 6583
0.07850000 0.07848650 25347.10536585 0 -243.63436020 0 5420.42163290 0 2639.93426808 0 -1516.80216899 0 6549
0.07950000 0.07947320 25690.84446520 0 -111.26423238 0 6349.87731989 0 1162.80035552 0 -1415.60259046 0 6828
0.08050000 0.08048110 25131.06005880 0 53.43872801 0 4749.01756473 0 -318.13851731 0 -1397.78615905 0 7147
0.08150000 0.08149960 25480.19467050 0 577.71549245 0 6109.27119099 0 -778.21610360 0 -259.42972261 0 7386
0.08250000 0.08250610 25122.40475774 0 296.03152952 0 6417.97318202 0 -1523.41167162 0 300.10401728 0 7227
0.08350000 0.08350160 24808.56578933 0 583.63706725 0 6375.82074178 0 -374.82961521 0 -1402.23745674 0 7798
0.08450000 0.08449610 24336.00883260 0 433.86438878 0 7130.55175381 0 -168.64235885 0 -1400.22538026 0 7371
0.08550000 0.08548940 23718.33507493 0 564.38295662 0 6695.90951199 0 275.07221217 0 -2601.03037590 0 8256
0.08650000 0.08650700 23381.90239855 0 527.87781930 0 6844.01632602 0 1074.73772550 0 -1883.52839909 0 8037
0.08750000 0.08749060 22792.10545469 0 359.04886565 0 5678.51821433 0 337.98051398 0 -2632.80769551 0 8155
0.08850000 0.08849210 22447.80432280 0 351.00505599 0 5489.16945277 0 1306.59075967 0 -1320.87762675 0 8718
0.08950000 0.08949900 22220.51836502 0 406.25959872 0 5109.69632474 0 517.83654601 0 -1982.14262795 0 8571
0.09050000 0.09049190 21580.47571240 0 747.95964403 0 4134.80592749 0 88.93625340 0 -1406.83488289 0 8932
0.09150000 0.09150830 20939.19658820 0 708.41391069 0 5625.72087785 0 -150.65506955 0 -533.09797750 0 9285
0.09250000 0.09250820 20050.28592839 0 1002.34119040 0 5305.87940195 0 431.70618384 0 -123.06938859 0 9204
0.09350000 0.09350330 20196.63920091 0 540.23241852 0 6940.48359060 0 508.16171792 0 1524.51325539 0 9349
0.09450000 0.09448040 19039.30180165 0 598.72651680 0 6166.09268044 0 229.84432989 0 886.87272983 0 9564
0.09550000 0.09549270 19465.09765134 0 325.93840486 0 7682.79368357 0 624.26752339 0 2623.74773103 0 10155
0.09650000 0.09649430 18902.50308225 0 -115.13124105 0 6747.72891186 0 411.90465352 0 3244.01807901 0 9913
0.09750000 0.09749140 19136.08380444 0 25.82528265 0 7156.59634155 0 708.53980598 0 3063.93161365 0 10476
0.09850000 0.09850240 19211.39616434 0 134.32352811 0 6842.13913735 0 389.71336084 0 2726.71209172 0 10575
0.09950000 0.09950330 18873.38979686 0 249.23894866 0 6013.38844026 0 179.65707250 0 2496.80706232 0 10882
0.10050000 0.10051200 18145.10803600 0 503.09330851 0 6507.85342526 0 144.38615864 0 1844.65822886 0 10875
0.10150000 0.10150300 18285.72857664 0 300.31871371 0 5910.98611210 0 -94.68899363 0 2112.83767400 0 11118
0.10250000 0.10250800 17720.32384487 0 329.55452220 0 6036.11703603 0 -161.08864156 0 788.69239008 0 11575
0.10350000 0.10349800 17906.58142748 0 333.36735092 0 6109.03513733 0 -336.85644891 0 748.95668975 0 11364
0.10450000 0.10450100 17556.09793769 0 322.08173759 0 6351.46225164 0 -434.30614636 0 520.09254461 0 12093
0.10550000 0.10551000 17274.85685640 0 467.14008714 0 6309.64703092 0 -497.68767957 0 101.40460800 0 12067
0.10650000 0.10649700 17099.95233103 0 375.31858352 0 7242.48615379 0 397.28731131 0 1924.39940515 0 12054
0.10750000 0.10749900 16645.49282197 0 488.79632484 0 7457.40739576 0 175.61381044 0 973.92707348 0 12807
0.10850000 0.10850100 16127.52363629 0 577.78743261 0 6445.73758932 0 954.15476884 0 1520.74763740 0 12736
0.10950000 0.10950300 15667.78102139 0 385.48575210 0 7215.76712700 0 814.08951635 0 1297.99166186 0 12933
0.11050000 0.11050200 15184.54544647 0 49.20032825 0 5886.57141871 0 447.14858982 0 697.06534972 0 13428
0.11150000 0.11150900 15344.49990637 0 -234.88800987 0 5734.20439805 0 827.61314324 0 1184.24751711 0 13453
0.11250000 0.11250000 15240.97351314 0 -239.33818349 0 4869.47237797 0 502.48631337 0 -444.65428942 0 13668
0.11350000 0.11349100 15627.08986575 0 -277.53166655 0 4045.99354607 0 452.12819809 0 -718.38324383 0 13791
0.11450000 0.11448600 15656.31555765 0 60.20661141 0 3644.67983367 0 370.49634435 0 -1493.34293091 0 14205
0.11550000 0.11549300 15530.30786295 0 316.52098767 0 3653.40257863 0 -117.11409184 0 -1574.57911375 0 14776
0.11650000 0.11649800 15121.37298936 0 402.87728691 0 4062.93320672 0 -467.60882228 0 -1595.62161191 0 14553
0.11750000 0.11747300 14937.25113038 0 607.48747998 0 4480.08499599 0 -948.30850640 0 -1266.28178615 0 14568
0.11850000 0.11849100 14633.64115414 0 576.96574105 0 5488.29268201 0 -468.92735061 0 -731.81469739 0 16015
0.11950000 0.11950300 14159.06088028 0 513.67975337 0 5547.04756338 0 -451.91462573 0 -297.84801868 0 15270
0.12050000 0.12050700 13925.03053206 0 269.12028761 0 6190.60853968 0 264.79488520 0 -219.13873413 0 15999
0.12150000 0.12150000 13842.07452966 0 81.02879283 0 5772.82727396 0 514.17659013 0 -471.25304125 0 15670
0.12250000 0.12250700 13702.35324108 0 2.20932742 0 5903.63472652 0 702.14499978 0 68.77457262 0 16887
0.12350000 0.12352200 13779.35169859 0 -27.02544693 0 5394.84915248 0 618.72138632 0 -40.11709561 0 16407
0.12450000 0.12449800 13768.33586087 0 -3.24600767 0 5691.60233178 0 54.41115671 0 363.60582546 0 16306
0.12550000 0.12549900 13751.36247827 0 63.40457655 0 5412.64310259 0 149.35003000 0 154.95237033 0 17523
0.12650000 0.12650100 13674.36402076 0 281.10619348 0 5434.59609347 0 -170.62071338 0 232.88717404 0 17154
0.12750000 0.12750600 13511.03736564 0 240.89388956 0 6061.62207254 0 -159.84992185 0 -637.18415514 0 18007
0.12850000 0.12850300 13209.33830002 0 295.61450138 0 5448.33216866 0 -230.53338178 0 -349.06042341 0 17496
0.12950000 0.12949900 12988.45951315 0 147.16597157 0 5319.42438608 0 75.06124376 0 -1144.66918589 0 18405
0.13050000 0.13049000 12885.49515246 0 69.76869577 0 4865.39202175 0 230.69861934 0 -1023.98506338 0 18100
0.13150000 0.13148800 12868.07214382 0 132.52052773 0 4530.26326086 0 472.91665755 0 -1574.00584056 0 19059
0.13250000 0.13249300 12679.79124408 0 215.86433257 0 4477.99423496 0 320.81266812 0 -1462.97069264 0 18957
0.13350000 0.13349100 12420.91905775 0 323.08440364 0 4320.42279301 0 361.10365660 0 -812.13476718 0 19468
0.13450000 0.13450700 12305.02794871 0 273.85934595 0 4636.55485417 0 439.16098341 0 -159.34746476 0 19953
0.13550000 0.13551000 12089.88189372 0 152.39624635 0 4882.99488080 0 369.05304480 0 57.00538649 0 19956
0.13650000 0.13649900 12032.77938800 0 225.02995918 0 5238.97504880 0 409.52275963 0 1037.52667532 0 19723
0.13750000 0.13749600 11815.38520287 0 180.11906325 0 4870.40535198 0 37.69833239 0 756.86898380 0 20946
0.13850000 0.13851100 11827.52510566 0 142.61013582 0 5425.88458915 0 164.27199385 0 1592.87889314 0 20955
0.13950000 0.13949800 11630.02687231 0 47.79682060 0 4760.33690002 0 34.67909360 0 1132.39439529 0 20506
0.14050000 0.14048300 11749.06536355 0 42.05475899 0 5150.70221861 0 48.67561467 0 1475.12183608 0 21447
0.14150000 0.14148400 11721.75058228 0 176.25227940 0 4959.90341310 0 201.76406030 0 1146.11922983 0 21771
0.14250000 0.14249400 11563.93184601 0 160.34451048 0 4233.42015635 0 304.23383236 0 972.61866174 0 22470
0.14350000 0.14350900 11439.04821639 0 146.88720343 0 4355.03275661 0 280.31485167 0 757.80195781 0 22519
0.14450000 0.14449900 11285.27611439 0 118.10776536 0 3820.58477696 0 613.24269315 0 312.68118138 0 22218
0.14550000 0.14550500 11072.71540907 0 58.93540622 0 3569.54732418 0 473.70799937 0 -60.03406742 0 23559
0.14650000 0.14650700 11094.80328776 0 -1.63091726 0 2564.03739434 0 554.46083422 0 -247.77654000 0 23044
0.14750000 0.14750500 10945.13402327 0 -17.93805525 0 2323.07156462 0 247.32916210 0 -739.46733240 0 23649
0.14850000 0.14849900 11020.70491814 0 87.99788387 0 1970.20505687 0 230.56597966 0 -1252.92789308 0 23640
0.14950000 0.14949500 10714.90301500 0 150.64045671 0 1713.81705435 0 -341.46961197 0 -1380.62168538 0 24457
0.15050000 0.15050000 10725.81768686 0 261.76665390 0 2208.92275645 0 -311.12435126 0 -1482.56314686 0 24591
0.15150000 0.15149900 10449.21899432 0 306.23466819 0 2509.07061227 0 -544.20149229 0 -979.47770681 0 25020
0.15250000 0.15250500 10311.67839198 0 241.64139283 0 3196.45888577 0 -279.46843067 0 -1131.75367820 0 25297
0.15350000 0.15350100 10215.15492415 0 241.79988600 0 3632.74226259 0 -370.16362109 0 -595.73088338 0 25452
0.15450000 0.15450400 10114.33752775 0 138.77145360 0 4024.11923974 0 -29.62911886 0 -417.02926618 0 26061
0.15550000 0.15549900 10058.48273426 0 86.50478824 0 4248.23533402 0 -15.06674343 0 -326.29810568 0 26128
0.15650000 0.15649500 9940.07371946 0 31.24653609 0 4328.33621113 0 384.99341160 0 -166.97087409 0 26331
0.15750000 0.15749700 9896.33634747 0 45.52205011 0 3666.46421478 0 441.07301810 0 -507.15792781 0 27345
0.15850000 0.15849900 9889.50203182 0 79.57447744 0 3510.06180051 0 374.49464382 0 -106.48459529 0 26980
0.15950000 0.15949700 9790.08971676 0 126.52813682 0 3117.99914367 0 516.48541979 0 -643.39124248 0 27777
0.16050000 0.16050000 9691.23943423 0 83.41181078 0 2800.04609709 0 235.93339039 0 -332.41189561 0 28224
0.16150000 0.16150500 9455.14080628 0 141.77832767 0 2614.85637630 0 137.52261730 0 -615.47845858 0 28075
0.16250000 0.16249700 9441.32604653 0 221.51388363 0 2866.68067462 0 41.39864220 0 -171.81222236 0 28590
0.16350000 0.16349900 9166.03126948 0 279.48529165 0 2733.38903826 0 75.45826354 0 114.16904134 0 29163
0.16450000 0.16449100 9009.41528284 0 271.49318898 0 2936.81109453 0 175.56435157 0 82.07046393 0 28996
0.16550000 0.16550500 8838.96205516 0 116.31712970 0 2985.13465203 0 271.55276442 0 596.59528942 0 30777
0.16650000 0.16650700 8689.06797766 0 45.63861566 0 2621.00501225 0 396.03735094 0 342.15866386 0 29211
0.16750000 0.16749900 8687.15706703 0 -12.80085305 0 2476.82118532 0 548.48193209 0 815.36308207 0 30922
0.16850000 0.16850800 8750.97024123 0 36.30561576 0 2104.67696157 0 309.77547317 0 591.80902034 0 30867
0.16950000 0.16949900 8586.59820560 0 48.48834543 0 2001.61143502 0 391.21848398 0 1011.83729214 0 30852
0.17050000 0.17049200 8598.50205472 0 82.71949910 0 1710.82704126 0 -17.41469055 0 820.68665426 0 31257
0.17150000 0.17149500 8507.39658054 0 85.54933292 0 1792.59153467 0 -13.70696191 0 999.34892917 0 32608
0.17250000 0.17250900 8493.23336062 0 90.00119265 0 2021.49614616 0 -26.17396763 0 907.24078895 0 32361
0.17350000 0.17350400 8329.81678030 0 147.54140930 0 1977.60140506 0 -471.81844598 0 513.02779562 0 32508
0.17450000 0.17449800 8447.64128126 0 124.14736700 0 2474.05598524 0 -307.97134873 0 752.87855279 0 32791
0.17550000 0.17549800 8286.72012539 0 140.08773380 0 2472.70710715 0 -341.80008710 0 459.88312303 0 33633
0.17650000 0.17650100 8272.03983554 0 106.44536541 0 2887.59952563 0 39.90352325 0 723.66634967 0 33984
0.17750000 0.17750300 8227.87531882 0 100.32359462 0 2646.10538533 0 58.79894472 0 431.44989701 0 34069
