### header ###
fiducial parameters:
Omega_m = 0.31
Omega_nu = 0
Omega_de = 0.69
Omega_k = 0
H_0 = 100
w_de = -1
zeff = 0
beta = 0
fgrowth = 0
b_1 = 2
gamma = 0.55
Lx = 3500 Ly = 3500 Lz = 3500
nx = 700 ny = 700 nz = 700
xoffset = 857.220397 yoffset = 15.9954215 zoffset = 262.898189
bins = 400 dk = 0.001
kx_ny = 0.628318531 ky_ny = 0.628318531 kz_ny = 0.628318531
############################
A(data) = 3.10612409 (not used)
A(ran) = 3.10933684 (used)
Ngal = 189124
weighted Ngal = 0
Nran = 9360983
weighted Nran = 0
SN(data) = 3434.55871
SN(ran) = 69.8240199
SN(data+ran) = 3504.38273
############################
13 columns: k_central k_mean P_0(k) sigma^{lin}_{P_0(k)} P^img_1(k) sigma^{lin}_{P_1(k)} P_2(k) sigma^{lin}_{P_2(k)} P^img_3(k) sigma^{lin}_{P_3(k)} P_4(k) sigma^{lin}_{P_4(k)} N_modes
### header ###
0.00050000 0 0 0 0 0 0 0 0 0 0 0 0
0.00150000 0.00179520 1300.27351396 0 -5214.35802370 0 456.61546586 0 1449.48191176 0 25143.76199412 0 3
0.00250000 0.00253879 4191.54873238 0 -6074.23408266 0 -1305.89383932 0 -4051.83868445 0 -14337.33760087 0 6
0.00350000 0.00331552 9258.06971766 0 -6006.82390023 0 4111.56026178 0 -7587.01209869 0 -1086.65056714 0 7
0.00450000 0.00420575 16144.72183191 0 -6753.73141935 0 3141.78436061 0 -10710.74397423 0 -4406.85215648 0 24
0.00550000 0.00557378 24525.18898440 0 -3061.61603960 0 12189.69887221 0 -24953.45777725 0 250.56534544 0 45
0.00650000 0.00659388 32967.25490289 0 -1361.73739216 0 17160.87665799 0 -24214.16017867 0 -11178.02906577 0 40
0.00750000 0.00754703 34157.30259578 0 -3959.08083461 0 25126.22657898 0 -12980.92827716 0 5012.32980811 0 57
0.00850000 0.00846663 40540.19370687 0 -5362.59972554 0 33658.77973587 0 -17308.91602812 0 -14356.78392664 0 75
0.00950000 0.00948925 48307.37095548 0 -9992.32026406 0 30396.63048722 0 -8340.48415784 0 -20242.05142986 0 112
0.01050000 0.01054430 60781.34588467 0 -8605.80847769 0 19858.29561391 0 9983.17037437 0 -22663.73722335 0 105
0.01150000 0.01145670 69762.17619271 0 -14297.54569728 0 9280.42737197 0 51.67641879 0 -36419.82077492 0 144
0.01250000 0.01249090 86522.09883912 0 -16186.53705263 0 144.57162938 0 -5915.50485369 0 -53006.52499357 0 169
0.01350000 0.01339930 105562.07507981 0 -19840.42297924 0 7535.93458177 0 -19605.15615944 0 -50758.61966039 0 180
0.01450000 0.01448870 111353.25833642 0 -6565.58540742 0 -10836.84159413 0 -18185.12475260 0 -56183.69492268 0 267
0.01550000 0.01550050 129618.19170920 0 -592.99041273 0 6680.56602374 0 -25320.91464965 0 -63315.32577896 0 238
0.01650000 0.01653350 111836.26909833 0 9437.34685617 0 1106.25088982 0 -4160.63694287 0 -41740.58279843 0 315
0.01750000 0.01747870 110421.97042335 0 19657.98721788 0 20409.53712575 0 -7704.40945493 0 -33641.13191422 0 297
0.01850000 0.01844180 90737.23045674 0 13348.60996257 0 14279.67306262 0 10534.78282769 0 -21735.82150550 0 388
0.01950000 0.01947590 80271.28537412 0 16828.04098984 0 27424.37762094 0 6752.79844534 0 -23904.36784453 0 399
0.02050000 0.02045430 63265.64210273 0 10401.15397180 0 22028.41564403 0 2564.55446428 0 -8596.54618149 0 462
0.02150000 0.02154770 58995.20648352 0 6845.90475535 0 32241.55849170 0 -3015.96775698 0 3058.00779072 0 571
0.02250000 0.02255340 56725.04466189 0 -1901.13125813 0 23227.68067052 0 8535.59937323 0 12787.25186507 0 510
0.02350000 0.02348930 58659.78546571 0 -3753.21955713 0 27402.90797804 0 11493.22815292 0 19858.74523993 0 555
0.02450000 0.02439640 60778.64812850 0 -5530.64745396 0 13171.68212007 0 16728.33641786 0 13607.59455542 0 592
0.02550000 0.02547300 66305.11406039 0 -3867.23347749 0 18848.32314573 0 19985.53978018 0 25218.51232149 0 837
0.02650000 0.02652900 65597.40269037 0 277.96105941 0 9820.48443634 0 9526.97980510 0 25827.30596508 0 723
0.02750000 0.02749970 67436.93518249 0 2420.70785687 0 15444.09207185 0 6933.26709283 0 43275.38124924 0 826
0.02850000 0.02848090 63478.20280805 0 2555.23596482 0 20258.35037342 0 -4449.84764553 0 32417.47467564 0 831
0.02950000 0.02946900 62651.79016631 0 2856.38423855 0 21653.65234866 0 -3381.27766509 0 42578.23609091 0 996
0.03050000 0.03053250 60899.82234338 0 4857.64721340 0 26368.88051730 0 -7533.74265488 0 31860.61283843 0 1041
0.03150000 0.03150510 57408.02660030 0 2493.96317769 0 21194.13454678 0 -4912.07444424 0 21154.00542367 0 1036
0.03250000 0.03246190 56245.40609520 0 2454.80075054 0 24871.85065294 0 -519.90145354 0 18234.02158328 0 1059
0.03350000 0.03345080 54164.08720585 0 151.31939201 0 20283.86665058 0 599.72131439 0 1407.08217720 0 1302
0.03450000 0.03451200 55259.60102609 0 893.49347311 0 17529.45759546 0 -2999.36531585 0 -485.02059026 0 1339
0.03550000 0.03553350 51547.82574821 0 2011.98655564 0 21047.89368077 0 -3415.21318964 0 -5687.66810402 0 1365
0.03650000 0.03647120 51431.93463917 0 3936.76814291 0 22991.85181818 0 -4340.07145049 0 3360.51618319 0 1308
0.03750000 0.03744890 47848.63999915 0 2127.65285166 0 25995.91572604 0 3746.69997970 0 680.85970356 0 1579
0.03850000 0.03847530 48221.26757088 0 705.67568818 0 30497.00949825 0 9381.73935700 0 5854.17586330 0 1662
0.03950000 0.03950240 49037.78843998 0 -481.58657146 0 27492.04633834 0 8539.92702376 0 13735.73797375 0 1683
0.04050000 0.04050350 49009.91162617 0 19.81029804 0 24607.47054775 0 9535.48897770 0 9486.60338767 0 1822
0.04150000 0.04152450 48750.58981380 0 693.90560280 0 22463.99085986 0 3869.43664503 0 15995.44599020 0 1887
0.04250000 0.04250150 48561.18484898 0 1540.82343960 0 16857.49149476 0 1529.71767668 0 11457.59529010 0 1920
0.04350000 0.04349210 45674.58574127 0 1856.95550076 0 15725.44555964 0 -552.28239611 0 7103.67535791 0 2005
0.04450000 0.04448520 44306.14892127 0 1834.17070173 0 14693.21660302 0 -2210.12550608 0 2214.67796962 0 2151
0.04550000 0.04548030 41441.24426947 0 966.83871913 0 14249.09849263 0 1497.29963997 0 -2195.16419995 0 2274
0.04650000 0.04648670 41026.35185099 0 855.20444452 0 13240.47490254 0 -931.96797243 0 -3853.45243969 0 2311
0.04750000 0.04749250 40212.97836409 0 953.94794087 0 15197.80941433 0 -2473.03308602 0 -5368.82704604 0 2568
0.04850000 0.04851840 39362.28591677 0 1310.70483784 0 14495.38115015 0 -1969.01354790 0 -5680.00198023 0 2493
0.04950000 0.04949480 38709.20410930 0 1802.97789595 0 20296.00655337 0 -1792.63649728 0 -4284.26161961 0 2644
0.05050000 0.05050630 36877.31525967 0 1781.37336524 0 15393.50914356 0 -1772.59441702 0 -4964.96170593 0 2829
0.05150000 0.05149060 37691.36318561 0 1633.22158861 0 20739.22541169 0 618.02783817 0 -5801.55837723 0 2784
0.05250000 0.05249300 35164.80212080 0 1142.75827526 0 19980.81870687 0 42.74324884 0 -3850.00155992 0 3055
0.05350000 0.05348950 34282.07381890 0 720.64935901 0 17613.08803690 0 4495.54089075 0 -4346.06271733 0 3009
0.05450000 0.05448610 34815.44269608 0 240.89838582 0 17658.50026585 0 2499.75211281 0 -2849.14525948 0 3336
0.05550000 0.05550870 33142.04702176 0 331.67338486 0 15602.02321462 0 2116.22110987 0 -3143.72899319 0 3349
0.05650000 0.05647670 33558.73794436 0 933.01560108 0 15515.69501700 0 2686.62793121 0 -1945.58803177 0 3324
0.05750000 0.05747970 32737.72081497 0 394.71657448 0 14220.43483327 0 1208.98818937 0 -1020.40716425 0 3639
0.05850000 0.05849280 33137.43835496 0 -182.60774332 0 14712.66292878 0 1747.70761631 0 1703.56558088 0 3846
0.05950000 0.05951020 33221.96804846 0 79.91079771 0 13864.10620510 0 3250.94231986 0 1755.64351572 0 3787
0.06050000 0.06049470 33084.38248351 0 345.72869453 0 13611.75359619 0 1510.68725499 0 340.64005195 0 3930
0.06150000 0.06148310 32156.12954615 0 503.65196885 0 12387.42191857 0 2034.33296929 0 932.60419326 0 4083
0.06250000 0.06249100 31695.60008570 0 591.95514880 0 12675.63220331 0 515.74915716 0 1391.66000440 0 4303
0.06350000 0.06350600 31723.13967999 0 189.54772108 0 10792.16000748 0 553.70096623 0 1545.85925113 0 4470
0.06450000 0.06451750 30870.76113506 0 -16.92819519 0 9776.19627246 0 436.30473406 0 -1585.34765715 0 4479
0.06550000 0.06550280 30448.00026106 0 -324.35684530 0 8510.71257251 0 554.39676251 0 -1511.69891356 0 4636
0.06650000 0.06648880 30936.63134834 0 -504.47703261 0 7297.59906432 0 1411.56719685 0 -4592.91864803 0 4653
0.06750000 0.06749660 30877.73033851 0 -39.95017195 0 4749.65828183 0 541.63300360 0 -8107.31933973 0 5220
0.06850000 0.06852730 30873.90851726 0 654.70608150 0 4216.68282742 0 -385.24407811 0 -8479.39611957 0 5029
0.06950000 0.06949320 29753.89007843 0 681.07327592 0 5132.62725223 0 -552.00250390 0 -9916.41214967 0 5040
0.07050000 0.07048030 28921.74470481 0 1581.50335460 0 3946.16532692 0 -1735.65763872 0 -7922.71413277 0 5475
0.07150000 0.07148790 27628.84505773 0 869.45871372 0 5176.03864535 0 -1090.08346187 0 -8486.26415717 0 5509
0.07250000 0.07249820 27159.54788971 0 960.20898333 0 6823.92928317 0 -470.76632107 0 -4645.59233736 0 5916
0.07350000 0.07351270 27329.16930924 0 -113.96558557 0 6600.00427996 0 1851.52626646 0 -3185.33064155 0 5721
0.07450000 0.07449140 27370.19768441 0 -483.23782306 0 7368.55005173 0 1626.48843882 0 -1369.29110945 0 6028
0.07550000 0.07549160 28112.19303916 0 -155.95503637 0 6116.73498308 0 1346.12412829 0 45.63906528 0 6183
0.07650000 0.07648840 27632.66687898 0 186.93426979 0 6637.45812819 0 1326.48671146 0 -783.69142457 0 6330
0.07750000 0.07749960 27315.79293487 0 694.70593713 0 5445.42084012 0 -728.98430153 0 177.09308007 0 6583
0.07850000 0.07848650 26736.89942223 0 459.39415472 0 4426.75934893 0 488.60073752 0 -1588.57372391 0 6549
0.07950000 0.07947320 26292.66890534 0 461.60181853 0 4532.20789343 0 278.89628155 0 -1249.46577265 0 6828
0.08050000 0.08048110 25896.09874755 0 312.51369569 0 4649.07693908 0 399.73552504 0 -2215.50977778 0 7147
0.08150000 0.08149960 25532.46369640 0 426.39722450 0 4357.33709001 0 -83.41653186 0 -3939.71319340 0 7386
0.08250000 0.08250610 25155.22745787 0 754.68267723 0 6373.47144577 0 -1567.85720461 0 -3285.36119240 0 7227
0.08350000 0.08350160 24913.32865414 0 850.50023219 0 7214.85663429 0 -956.46809477 0 -2523.37996065 0 7798
0.08450000 0.08449610 24169.42238876 0 999.96154464 0 9956.90097361 0 -1282.45708255 0 -768.68178365 0 7371
0.08550000 0.08548940 23790.16283310 0 1027.20213762 0 10325.45942978 0 -647.79420537 0 -1045.73235035 0 8256
0.08650000 0.08650700 23116.96026082 0 680.16278321 0 11348.89819753 0 480.12191467 0 481.64052659 0 8037
0.08750000 0.08749060 22425.54783436 0 653.58426456 0 10672.53700240 0 1130.97807330 0 -463.71168867 0 8155
0.08850000 0.08849210 22245.02298362 0 282.55174116 0 10123.46493614 0 1789.80385329 0 600.53738563 0 8718
0.08950000 0.08949900 20962.57714172 0 156.41702712 0 7847.66030784 0 1980.01814496 0 -2107.35223644 0 8571
0.09050000 0.09049190 21709.85560231 0 64.90981209 0 7187.67674082 0 1901.73825327 0 -497.65957794 0 8932
0.09150000 0.09150830 20426.28569534 0 128.90665852 0 5178.88252999 0 907.79720116 0 -2250.14222268 0 9285
0.09250000 0.09250820 20967.74784105 0 437.07471863 0 4606.54231672 0 910.12963619 0 -1137.87983285 0 9204
0.09350000 0.09350330 19995.43155282 0 347.92511769 0 4025.23206417 0 834.48792523 0 -1283.27765005 0 9349
0.09450000 0.09448040 19629.99799756 0 386.88746125 0 3936.23983233 0 949.24934887 0 -789.08806099 0 9564
0.09550000 0.09549270 19424.29408918 0 279.07051163 0 2951.18788682 0 827.73341820 0 -150.65619362 0 10155
0.09650000 0.09649430 19439.46896767 0 280.62734176 0 3732.93018256 0 401.09339564 0 1056.00967731 0 9913
0.09750000 0.09749140 18927.34492036 0 497.57864526 0 3981.13499135 0 43.37497341 0 1889.24989031 0 10476
0.09850000 0.09850240 18606.19952898 0 551.55625007 0 4993.47923683 0 -426.09597506 0 2109.99378937 0 10575
0.09950000 0.09950330 18182.53940293 0 592.35981222 0 4527.21704451 0 -577.77281977 0 2910.47424987 0 10882
0.10050000 0.10051200 17658.50026585 0 485.01721807 0 5362.63344749 0 -182.42789291 0 2043.20184272 0 10875
0.10150000 0.10150300 17322.85443502 0 319.81787053 0 5255.00421674 0 -247.34827121 0 2073.55159970 0 11118
0.10250000 0.10250800 17239.33640009 0 205.31273373 0 5970.39295121 0 -273.74244319 0 1489.65599747 0 11575
0.10350000 0.10349800 17107.03394099 0 374.15292804 0 5097.69130976 0 -133.85816516 0 281.22422031 0 11364
0.10450000 0.10450100 16512.17870430 0 531.68727584 0 5478.18733700 0 -204.07738622 0 -61.08057201 0 12093
0.10550000 0.10551000 16189.57202832 0 642.93824425 0 5810.38228806 0 -456.02195951 0 477.90301022 0 12067
0.10650000 0.10649700 15861.56983999 0 463.59590997 0 6310.40015452 0 -26.49488821 0 1524.08611066 0 12054
0.10750000 0.10749900 15856.73636018 0 396.39592770 0 7223.70302641 0 7.54019479 0 2236.66468245 0 12807
0.10850000 0.10850100 15440.49506361 0 188.17860982 0 7487.15015760 0 96.00898324 0 2794.90911971 0 12736
0.10950000 0.10950300 15631.02409350 0 190.06366695 0 8393.62995450 0 305.73108704 0 3934.21651520 0 12933
0.11050000 0.11050200 15354.95371155 0 111.66878340 0 7731.39825733 0 519.35853011 0 3286.74379244 0 13428
0.11150000 0.11150900 15215.45723598 0 162.04971720 0 8124.54001665 0 420.49700694 0 3751.74703188 0 13453
0.11250000 0.11250000 15009.86573411 0 115.31783585 0 6971.72135898 0 358.76560125 0 1979.88325715 0 13668
0.11350000 0.11349100 14969.28698497 0 92.44738306 0 6933.25585218 0 84.74843656 0 1512.29466805 0 13791
0.11450000 0.11448600 14687.59627765 0 29.70656694 0 5846.09383543 0 6.85369453 0 250.42258918 0 14205
0.11550000 0.11549300 14720.98101032 0 -47.53704916 0 5607.06139763 0 302.07450335 0 -15.78873042 0 14776
0.11650000 0.11649800 14622.51290992 0 73.00341783 0 5432.33672267 0 221.09685549 0 -320.06741298 0 14553
0.11750000 0.11747300 14619.92756025 0 7.59853377 0 4653.60692133 0 952.90031222 0 -667.69690155 0 14568
0.11850000 0.11849100 14785.83956504 0 49.91006294 0 5025.31275970 0 482.23628108 0 -13.48608312 0 16015
0.11950000 0.11950300 14774.37410129 0 4.52723953 0 3929.47296059 0 599.39196332 0 -419.24817064 0 15270
0.12050000 0.12050700 14561.70098946 0 32.48963965 0 4462.06623287 0 726.87105919 0 910.53542368 0 15999
0.12150000 0.12150000 14617.56702360 0 153.53604833 0 3304.51526125 0 627.49021795 0 -167.69702013 0 15670
0.12250000 0.12250700 14270.34332252 0 332.84915693 0 3839.86249296 0 439.76123416 0 361.57576393 0 16887
0.12350000 0.12352200 13842.63656220 0 448.31986562 0 3069.54069837 0 39.43613699 0 -54.85583685 0 16407
0.12450000 0.12449800 13540.15065103 0 337.03405119 0 3060.32336477 0 252.29190940 0 193.53815209 0 16306
0.12550000 0.12549900 13371.65329657 0 49.75932581 0 2928.93139837 0 -202.74874130 0 -118.85864083 0 17523
0.12650000 0.12650100 13485.29627546 0 21.07655734 0 3200.05589400 0 -55.04265647 0 -405.38507609 0 17154
0.12750000 0.12750600 13472.59434014 0 -16.92369893 0 3370.65525015 0 -312.29225487 0 -132.22939487 0 18007
0.12850000 0.12850300 13517.44453655 0 34.92582589 0 3431.09622913 0 -281.07809185 0 -244.39422819 0 17496
0.12950000 0.12949900 13476.07894186 0 95.01418565 0 3803.12804637 0 -30.26657616 0 -256.95565539 0 18405
0.13050000 0.13049000 13526.09983762 0 131.43692900 0 3571.95282344 0 -49.69615335 0 -285.65416077 0 18100
0.13150000 0.13148800 13320.17111622 0 183.01128268 0 4091.22592461 0 139.83706729 0 -214.53119140 0 19059
0.13250000 0.13249300 13239.91287001 0 305.79291062 0 3819.74172815 0 66.58298295 0 -295.22557486 0 18957
0.13350000 0.13349100 12758.70061221 0 167.12711913 0 3668.59993842 0 457.72154590 0 -193.69664527 0 19468
0.13450000 0.13450700 12763.53409203 0 195.27932889 0 3403.59035679 0 508.38091061 0 118.58549302 0 19953
0.13550000 0.13551000 12579.63704607 0 73.31365979 0 3339.54112892 0 804.07184841 0 180.56306895 0 19956
0.13650000 0.13649900 12479.37044155 0 154.12730656 0 2944.70203135 0 581.66882931 0 101.09773824 0 19723
0.13750000 0.13749600 12289.40344419 0 42.90129239 0 2962.39481560 0 249.33674232 0 232.04749743 0 20946
0.13850000 0.13851100 12446.77255443 0 177.98783587 0 3022.72338807 0 137.84859617 0 585.66150845 0 20955
0.13950000 0.13949800 12019.51542014 0 240.05870921 0 3090.61691849 0 -329.16896788 0 293.58781205 0 20506
0.14050000 0.14048300 11952.63354829 0 354.83024943 0 3125.92380243 0 -472.94700731 0 573.26981509 0 21447
0.14150000 0.14148400 11565.84275664 0 397.34913489 0 3418.33809055 0 -200.07121830 0 407.74111649 0 21771
0.14250000 0.14249400 11444.78094827 0 355.19332245 0 3809.98484332 0 -52.53655339 0 524.93951320 0 22470
0.14350000 0.14350900 11062.66626732 0 200.54332563 0 3849.00114200 0 32.59080551 0 264.88930667 0 22519
0.14450000 0.14449900 10907.33171487 0 329.86026790 0 3821.06812494 0 23.97147453 0 40.14856944 0 22218
0.14550000 0.14550500 10658.98077761 0 146.68487171 0 3692.62120903 0 196.69115462 0 411.28978992 0 23559
0.14650000 0.14650700 10515.38146453 0 111.40170554 0 3287.50815669 0 127.13625603 0 -98.75957048 0 23044
0.14750000 0.14750500 10565.53724809 0 0.63468311 0 3346.66770149 0 377.92866262 0 150.43700093 0 23649
0.14850000 0.14849900 10488.34769952 0 -120.36039177 0 2630.16614259 0 127.65107783 0 -801.25269321 0 23640
0.14950000 0.14949500 10597.84287829 0 6.61937192 0 2607.25769640 0 -1.36761625 0 -907.04632570 0 24457
0.15050000 0.15050000 10575.46274268 0 148.40918754 0 2490.55726051 0 -76.17586669 0 -1163.93566124 0 24591
0.15150000 0.15149900 10313.20712048 0 202.42501056 0 2282.32420572 0 87.49711288 0 -946.11433138 0 25020
0.15250000 0.15250500 10085.16803910 0 261.54970934 0 2070.21312643 0 305.99074607 0 -822.14007040 0 25297
0.15350000 0.15350100 10042.54349153 0 153.77210200 0 2470.11051683 0 331.95440113 0 -710.59010068 0 25452
0.15450000 0.15450400 9738.06798518 0 164.75983809 0 2205.86529945 0 358.31035490 0 -828.40560912 0 26061
0.15550000 0.15549900 9730.64915569 0 154.01490006 0 2535.27256912 0 -142.79785469 0 -386.33104904 0 26128
0.15650000 0.15649500 9574.44907314 0 152.10848569 0 2326.99455173 0 -39.65364358 0 -326.83091252 0 26331
0.15750000 0.15749700 9602.14603654 0 106.46222639 0 2699.64460476 0 -243.19822296 0 -107.09215246 0 27345
0.15850000 0.15849900 9565.96238183 0 -43.75670591 0 2468.70543549 0 170.16434296 0 -194.28115910 0 26980
0.15950000 0.15949700 9685.51794301 0 -28.37061560 0 2475.30369747 0 288.28447304 0 -284.58405082 0 27777
0.16050000 0.16050000 9709.58417622 0 5.35451770 0 2352.09492481 0 79.67395719 0 -427.74273040 0 28224
0.16150000 0.16150500 9680.62825994 0 -12.13877872 0 2387.45801201 0 95.83475316 0 -566.54228562 0 28075
0.16250000 0.16249700 9664.72273916 0 129.22814113 0 2372.29437417 0 -183.45978465 0 -361.09466408 0 28590
0.16350000 0.16349900 9579.88954809 0 110.57619215 0 2670.96970475 0 -204.85411518 0 55.29916812 0 29163
0.16450000 0.16449100 9668.03873112 0 155.53800823 0 2804.46367283 0 -64.17737128 0 69.10482294 0 28996
0.16550000 0.16550500 9448.86852317 0 149.85585929 0 3108.29846209 0 95.90141022 0 248.46221969 0 30777
0.16650000 0.16650700 9447.85686460 0 111.10236701 0 2978.88485022 0 233.20640852 0 422.83281416 0 29211
0.16750000 0.16749900 9367.68854359 0 114.58494542 0 3240.91565941 0 200.91426710 0 494.82580989 0 30922
0.16850000 0.16850800 9324.47948218 0 147.34919417 0 3236.19458610 0 27.35715853 0 443.52010776 0 30867
0.16950000 0.16949900 9204.14831611 0 250.45406300 0 3082.40000280 0 -129.75869984 0 732.57231724 0 30852
0.17050000 0.17049200 8948.33358677 0 257.37043540 0 3160.58996929 0 -128.62676631 0 387.49108419 0 31257
0.17150000 0.17149500 8797.98988324 0 227.75694105 0 3140.58161099 0 -86.47342682 0 379.48549274 0 32608
0.17250000 0.17250900 8602.52620768 0 110.48458085 0 2944.51094028 0 65.17126962 0 349.91808506 0 32361
0.17350000 0.17350400 8521.09893379 0 20.93784771 0 2861.46501268 0 198.52113256 0 -30.34211333 0 32508
0.17450000 0.17449800 8472.26954701 0 98.46641431 0 2578.89753461 0 176.31635111 0 -68.00121585 0 32791
0.17550000 0.17549800 8338.15734314 0 109.73808923 0 2481.94692205 0 239.45171407 0 -378.88973825 0 33633
0.17650000 0.17650100 8201.56095546 0 182.39641909 0 2324.91503134 0 35.00372360 0 -351.41871193 0 33984
0.17750000 0.17750300 8052.12774464 0 113.74189662 0 2150.41516939 0 52.16696079 0 -540.89112065 0 34069
0.17850000 0.17849800 7966.24917305 0 75.79582029 0 2072.89964195 0 326.45097853 0 -273.02641374 0 34536
