### header ###
fiducial parameters:
Omega_m = 0.31
Omega_nu = 0
Omega_de = 0.69
Omega_k = 0
H_0 = 100
w_de = -1
zeff = 0
beta = 0
fgrowth = 0
b_1 = 2
gamma = 0.55
Lx = 3500 Ly = 3500 Lz = 3500
nx = 700 ny = 700 nz = 700
xoffset = 857.220397 yoffset = 15.9954215 zoffset = 262.898189
bins = 400 dk = 0.001
kx_ny = 0.628318531 ky_ny = 0.628318531 kz_ny = 0.628318531
############################
A(data) = 3.06170198 (not used)
A(ran) = 3.05675041 (used)
Ngal = 187158
weighted Ngal = 0
Nran = 9360983
weighted Nran = 0
SN(data) = 3454.24113
SN(ran) = 68.6431264
SN(data+ran) = 3522.88426
############################
13 columns: k_central k_mean P_0(k) sigma^{lin}_{P_0(k)} P^img_1(k) sigma^{lin}_{P_1(k)} P_2(k) sigma^{lin}_{P_2(k)} P^img_3(k) sigma^{lin}_{P_3(k)} P_4(k) sigma^{lin}_{P_4(k)} N_modes
### header ###
0.00050000 0 0 0 0 0 0 0 0 0 0 0 0
0.00150000 0.00179520 10823.90360514 0 -22904.51196200 0 -8347.13862307 0 39101.16560029 0 -32910.93924273 0 3
0.00250000 0.00253879 21648.81886885 0 -30704.73672376 0 -6122.99602553 0 677.29416915 0 35578.45806770 0 6
0.00350000 0.00331552 38504.96148552 0 -31682.67333736 0 -3206.58671208 0 -30677.08472296 0 -56633.99539097 0 7
0.00450000 0.00420575 58818.72826704 0 -29122.83994639 0 -17568.12543397 0 -1468.17511393 0 8867.26601370 0 24
0.00550000 0.00557378 77854.09584093 0 -7939.03555763 0 -33315.26544953 0 -22329.55267711 0 -3532.08223529 0 45
0.00650000 0.00659388 84863.42841726 0 5345.52517708 0 -37684.39398216 0 -35615.77702813 0 8982.83114386 0 40
0.00750000 0.00754703 82292.35437556 0 -321.09705659 0 -31205.17049430 0 -35392.42529811 0 -11674.65225571 0 57
0.00850000 0.00846663 77272.50457211 0 740.91512822 0 -42413.22333818 0 -33411.82263931 0 -7263.20267308 0 75
0.00950000 0.00948925 86554.13469370 0 -1439.36532610 0 -41694.72094345 0 -28269.00011686 0 -32247.29122357 0 112
0.01050000 0.01054430 73448.54759993 0 -527.97786109 0 -21498.86858809 0 -24478.98990989 0 -29628.66922928 0 105
0.01150000 0.01145670 77906.58967985 0 6001.34970332 0 -28287.20997105 0 -40111.13806847 0 -37642.80357445 0 144
0.01250000 0.01249090 78403.20162914 0 -5199.45292083 0 -26036.83169470 0 -14657.69614671 0 -46656.34417611 0 169
0.01350000 0.01339930 76364.82202558 0 -5713.91502348 0 -24282.61574162 0 -21319.91742846 0 -43144.98970076 0 180
0.01450000 0.01448870 89644.07717315 0 -11584.05261082 0 -20146.05627262 0 -4106.54693155 0 -55310.07154787 0 267
0.01550000 0.01550050 87782.28819257 0 -8718.23746631 0 -2331.22103640 0 -10990.59121483 0 -61489.50688073 0 238
0.01650000 0.01653350 99611.49939584 0 -3741.69789013 0 -18332.71449670 0 -4560.47813002 0 -38079.95248138 0 315
0.01750000 0.01747870 88867.68542716 0 4828.11802393 0 -5415.47574657 0 -2013.04317681 0 -38267.78375509 0 297
0.01850000 0.01844180 95887.24699565 0 4521.22577767 0 -4932.07156189 0 -8792.00985705 0 -8177.21370597 0 388
0.01950000 0.01947590 90759.37453868 0 8153.48469228 0 -4418.89089342 0 -5834.54968713 0 -8183.28365737 0 399
0.02050000 0.02045430 87164.05240237 0 9176.11413318 0 13748.77712860 0 -11005.08041362 0 12466.44369321 0 462
0.02150000 0.02154770 79944.29484436 0 6389.73666738 0 25601.14407237 0 -8411.23281354 0 21754.59339222 0 571
0.02250000 0.02255340 78028.55074028 0 7089.57958189 0 46559.22495379 0 7425.23665337 0 25367.56335018 0 510
0.02350000 0.02348930 77106.48016081 0 3824.13682259 0 41380.31994250 0 -3848.76508834 0 25184.56555628 0 555
0.02450000 0.02439640 75739.16740590 0 1063.82867396 0 53318.45305135 0 5355.90029770 0 12469.02904287 0 592
0.02550000 0.02547300 80260.04472339 0 -1475.51525885 0 50941.05542175 0 -956.71988534 0 16998.89888096 0 837
0.02650000 0.02652900 77762.59694398 0 -1958.16631994 0 43262.22968789 0 437.72892451 0 -7446.53768651 0 723
0.02750000 0.02749970 84032.51951522 0 489.78100585 0 43514.02026426 0 5300.43892699 0 2544.39997751 0 826
0.02850000 0.02848090 79103.71898270 0 1505.03320767 0 38490.12382655 0 1113.57192564 0 -20326.58112336 0 831
0.02950000 0.02946900 77524.51996150 0 6292.05541253 0 47888.09468321 0 8161.38686974 0 6339.95182529 0 996
0.03050000 0.03053250 70171.56069233 0 5667.50237661 0 41232.84260491 0 10807.96436240 0 3297.66970495 0 1041
0.03150000 0.03150510 68588.20263036 0 6005.57618800 0 44039.63309244 0 12998.35128580 0 23451.03240054 0 1036
0.03250000 0.03246190 64489.74896734 0 3385.00956113 0 45592.52899093 0 15522.32700093 0 30008.15359796 0 1059
0.03350000 0.03345080 61597.30472124 0 3074.20556842 0 44804.89659421 0 14784.37828044 0 38282.95863358 0 1302
0.03450000 0.03451200 58896.17635058 0 4030.42524480 0 44099.54576084 0 13373.00217466 0 43995.45733507 0 1339
0.03550000 0.03553350 56096.35506650 0 2583.70853312 0 40298.18249663 0 7659.33444549 0 45619.28173967 0 1365
0.03650000 0.03647120 49977.16962157 0 3477.54259795 0 34516.10416712 0 13582.75271730 0 41536.56498767 0 1308
0.03750000 0.03744890 47478.71018359 0 2265.63183939 0 26692.27403883 0 7020.78679942 0 32745.81408349 0 1579
0.03850000 0.03847530 44471.49889353 0 1980.55769620 0 20120.42758895 0 5773.04084633 0 26805.46739169 0 1662
0.03950000 0.03950240 41794.08829591 0 1542.99288519 0 17976.61068154 0 734.91824105 0 20672.90557238 0 1683
0.04050000 0.04050350 40388.33251549 0 1591.10287032 0 12329.86978682 0 -1399.84319813 0 15131.37716851 0 1822
0.04150000 0.04152450 40505.57250262 0 -893.44401425 0 9929.17028825 0 -1815.20772394 0 12768.03035232 0 1887
0.04250000 0.04250150 40447.79555786 0 1237.80921785 0 16225.31729765 0 -3720.30693179 0 9903.82262086 0 1920
0.04350000 0.04349210 42355.44639342 0 410.79632535 0 13964.59762263 0 244.24585160 0 9721.65663511 0 2005
0.04450000 0.04448520 39327.77711903 0 461.45793820 0 15774.22998381 0 447.63531000 0 4982.77813734 0 2151
0.04550000 0.04548030 40939.34921433 0 1323.27188535 0 16230.37559048 0 -1974.16176593 0 4900.66518375 0 2274
0.04650000 0.04648670 39741.43306593 0 853.34636496 0 17919.95780185 0 -1667.04470666 0 910.43313376 0 2311
0.04750000 0.04749250 39571.69923989 0 697.58017152 0 17474.15359386 0 -2709.46893350 0 -3654.52664371 0 2568
0.04850000 0.04851840 38409.30354780 0 460.18662060 0 17569.24949905 0 -1903.61544194 0 -6073.14373954 0 2493
0.04950000 0.04949480 39245.38314917 0 -277.40577126 0 19165.42190285 0 -361.07105872 0 -6039.86017273 0 2644
0.05050000 0.05050630 38812.28087650 0 -299.44081889 0 19100.33853511 0 3182.08209348 0 -4897.39415438 0 2829
0.05150000 0.05149060 39711.87015450 0 849.60098014 0 21062.28171370 0 2662.30316303 0 -2269.34125413 0 2784
0.05250000 0.05249300 39375.88710415 0 414.15840399 0 19540.52241774 0 4425.05077002 0 903.42458803 0 3055
0.05350000 0.05348950 38679.30397836 0 398.31583085 0 19176.21292755 0 4680.37091072 0 2653.71530587 0 3009
0.05450000 0.05448610 39049.90823296 0 75.85876793 0 19523.66144164 0 3116.62778428 0 9673.98503536 0 3336
0.05550000 0.05550870 37805.34338402 0 -55.58085882 0 17729.87839799 0 2684.61585473 0 6755.82218039 0 3349
0.05650000 0.05647670 38718.08422338 0 570.90815437 0 19874.14493144 0 2060.91710827 0 8670.52090395 0 3324
0.05750000 0.05747970 36635.75367546 0 1417.33365067 0 16526.34192423 0 2424.75449113 0 8789.18845372 0 3639
0.05850000 0.05849280 36194.67054078 0 1313.34639076 0 15051.00651578 0 3604.47202600 0 6202.73720182 0 3846
0.05950000 0.05951020 34129.87540800 0 713.88136321 0 10961.63529855 0 6768.17565554 0 9498.91190022 0 3787
0.06050000 0.06049470 32824.16141909 0 288.55087646 0 8069.08988659 0 5993.43628521 0 3944.10828784 0 3930
0.06150000 0.06148310 32990.52304991 0 -271.51679434 0 3348.03906088 0 4815.76454877 0 8283.88748141 0 4083
0.06250000 0.06249100 32267.07476886 0 -351.32204234 0 1568.86886318 0 3445.88892549 0 6430.23673196 0 4303
0.06350000 0.06350600 32209.29782410 0 414.02801244 0 -448.58177279 0 665.34535742 0 8023.63269504 0 4470
0.06450000 0.06451750 31665.58754825 0 393.42052745 0 685.92923704 0 -2837.28637296 0 6408.92445818 0 4479
0.06550000 0.06550280 31794.85503165 0 1209.62890646 0 1960.62802245 0 -2755.87033972 0 7225.87247201 0 4636
0.06650000 0.06648880 30627.62585975 0 339.64075810 0 5126.89452036 0 -2788.73800245 0 8321.25140444 0 4653
0.06750000 0.06749660 31205.05808780 0 -323.06079827 0 6425.96528469 0 -1553.45793102 0 8554.89957053 0 5220
0.06850000 0.06852730 31528.33920282 0 -1121.34708375 0 7220.34207185 0 871.47978272 0 7988.50566150 0 5029
0.06950000 0.06949320 33418.11740371 0 -876.72916661 0 7064.24315515 0 1119.98584095 0 5361.64427022 0 5040
0.07050000 0.07048030 32904.30725880 0 192.31854149 0 8097.50625164 0 74.11747872 0 5567.67415747 0 5475
0.07150000 0.07148790 32480.42231974 0 1320.43924137 0 6567.88974082 0 -331.32717282 0 3874.66354762 0 5509
0.07250000 0.07249820 31293.74682206 0 2010.90745317 0 7015.04282690 0 -1059.25934944 0 3085.41249720 0 5916
0.07350000 0.07351270 29742.31220817 0 1975.39823751 0 7353.31896999 0 -1426.94440705 0 1295.69856911 0 5721
0.07450000 0.07449140 28029.91147581 0 1226.61352972 0 6968.19179465 0 -925.61700477 0 -1673.94646621 0 6028
0.07550000 0.07549160 27084.01071680 0 830.20636136 0 6853.64956370 0 -316.36811482 0 -3240.48851468 0 6183
0.07650000 0.07648840 26584.13897879 0 90.34200918 0 5619.04393131 0 -769.21796269 0 -6508.84260253 0 6330
0.07750000 0.07749960 26734.76369859 0 51.05031455 0 5795.43222258 0 -974.16537528 0 -6103.35860871 0 6583
0.07850000 0.07848650 26685.19242887 0 8.94249969 0 5243.65115950 0 -856.29815984 0 -8836.47787135 0 6549
0.07950000 0.07947320 26028.96323919 0 347.15738124 0 5075.90692864 0 -824.60851730 0 -6376.67503123 0 6828
0.08050000 0.08048110 26371.46586696 0 817.61458442 0 6020.81851039 0 -439.78821172 0 -8618.99376100 0 7147
0.08150000 0.08149960 25258.97866412 0 903.85398089 0 5837.04511159 0 -136.36145808 0 -6441.79212092 0 7386
0.08250000 0.08250610 24633.77367046 0 1183.59555937 0 6777.48291435 0 624.71827348 0 -6945.65428993 0 7227
0.08350000 0.08350160 23642.68549551 0 774.28187585 0 7116.42225584 0 912.99375400 0 -4893.95451526 0 7798
0.08450000 0.08449610 22905.29880756 0 698.12197088 0 6616.13461375 0 400.33127952 0 -2787.18679265 0 7371
0.08550000 0.08548940 22740.28605482 0 380.12620984 0 7720.03395944 0 319.38398141 0 -3609.33922777 0 8256
0.08650000 0.08650700 22633.83709240 0 -117.90318552 0 7304.90548730 0 83.78320188 0 -837.22839588 0 8037
0.08750000 0.08749060 22629.11601909 0 130.72539581 0 8563.17268947 0 1.63421077 0 -1549.05159594 0 8155
0.08850000 0.08849210 23107.40570770 0 -106.59981196 0 8561.71140488 0 473.04480097 0 924.77508003 0 8718
0.08950000 0.08949900 23000.61952575 0 552.04634244 0 9968.54628776 0 -15.56436703 0 407.20268932 0 8571
0.09050000 0.09049190 22541.66375641 0 881.19282901 0 9747.28531878 0 539.09374060 0 1688.89653168 0 8932
0.09150000 0.09150830 21659.72230005 0 935.69312408 0 10078.19883565 0 605.29667715 0 2075.45126967 0 9285
0.09250000 0.09250820 21188.62662792 0 279.39199424 0 9787.76290206 0 2135.47634457 0 2566.73515052 0 9204
0.09350000 0.09350330 20934.92514092 0 -48.73136830 0 8830.70017687 0 1334.56873934 0 2655.33395958 0 9349
0.09450000 0.09448040 20806.78172259 0 9.46440310 0 7447.09971904 0 1254.52406548 0 959.51880737 0 9564
0.09550000 0.09549270 20566.45660996 0 126.62817861 0 6200.39914647 0 229.87243151 0 338.28850781 0 10155
0.09650000 0.09649430 20359.29141699 0 722.60748037 0 6411.63345501 0 -644.18708055 0 93.49332561 0 9913
0.09750000 0.09749140 19818.72852333 0 858.31023632 0 6022.21235108 0 -888.02939279 0 -124.70265514 0 10476
0.09850000 0.09850240 19077.85723365 0 778.82871907 0 6184.17888746 0 -786.69829864 0 -1012.36223052 0 10575
0.09950000 0.09950330 18529.65069750 0 611.72070904 0 6973.57606635 0 -330.93937037 0 -652.51865087 0 10882
0.10050000 0.10051200 18021.68569097 0 447.70387796 0 7383.64624567 0 256.82076758 0 -2290.04653277 0 10875
0.10150000 0.10150300 17647.70924115 0 157.52872747 0 6850.31109043 0 1147.31073881 0 -1196.51106706 0 11118
0.10250000 0.10250800 17452.45913795 0 109.04701403 0 6525.84970708 0 801.23470817 0 -1138.57675319 0 11575
0.10350000 0.10349800 17333.19583370 0 151.90278178 0 5272.35978147 0 1378.41851784 0 -1448.67258491 0 11364
0.10450000 0.10450100 16800.27658254 0 244.29081421 0 4763.55172613 0 1330.78064004 0 -333.91701874 0 12093
0.10550000 0.10551000 16570.85490112 0 518.29516456 0 3746.41896343 0 792.27141328 0 -246.55692939 0 12067
0.10650000 0.10649700 16013.76825089 0 275.65335381 0 3371.31844854 0 1020.77473353 0 723.89453488 0 12054
0.10750000 0.10749900 15743.20578780 0 167.35418028 0 3285.75461518 0 828.13920569 0 318.24193130 0 12807
0.10850000 0.10850100 15656.20315114 0 -50.78267465 0 2218.78080714 0 858.73400885 0 515.49174626 0 12736
0.10950000 0.10950300 15515.58261049 0 -165.65009763 0 2326.07281837 0 877.30243980 0 -360.99687042 0 12933
0.11050000 0.11050200 15710.94512020 0 54.01065232 0 2243.61140460 0 -97.86065564 0 366.08888520 0 13428
0.11150000 0.11150900 15393.95876959 0 34.87827793 0 1542.57698112 0 311.04791483 0 -195.34115247 0 13453
0.11250000 0.11250000 15518.61758619 0 71.84608043 0 1650.54343139 0 -11.53841557 0 200.34324204 0 13668
0.11350000 0.11349100 15401.04037955 0 344.91262329 0 1565.19317039 0 -185.30999576 0 121.31472301 0 13791
0.11450000 0.11448600 15440.38265710 0 121.61484839 0 2327.75891598 0 -125.46926752 0 169.10996992 0 14205
0.11550000 0.11549300 15200.73198352 0 313.50287295 0 2000.39744474 0 -879.76189418 0 935.28846066 0 14776
0.11650000 0.11649800 15284.69964448 0 231.70690571 0 3034.31249897 0 -35.28496468 0 1569.56578352 0 14553
0.11750000 0.11747300 14883.63322640 0 452.53623371 0 3086.21058340 0 -214.79197449 0 1499.45784491 0 14568
0.11850000 0.11849100 14772.68800368 0 349.34031561 0 3980.11209213 0 325.27295833 0 1926.74870115 0 16015
0.11950000 0.11950300 14232.12511003 0 295.10754803 0 3847.46117285 0 -45.47135478 0 1075.12103169 0 15270
0.12050000 0.12050700 14155.46387204 0 236.21440666 0 4012.03554021 0 398.93856290 0 2317.19270429 0 15999
0.12150000 0.12150000 13952.34531334 0 -23.57501678 0 3768.30451041 0 340.80641358 0 957.05485673 0 15670
0.12250000 0.12250700 13908.05714946 0 33.16767571 0 2979.87402748 0 519.65977955 0 1896.54507263 0 16887
0.12350000 0.12352200 13848.93132661 0 79.57290374 0 3366.58613458 0 -34.38874759 0 623.46156873 0 16407
0.12450000 0.12449800 13869.16449793 0 97.91168819 0 2558.03488685 0 295.18173633 0 1819.77142814 0 16306
0.12550000 0.12549900 13576.23313988 0 128.33226127 0 2595.62362290 0 -36.19770552 0 795.60089402 0 17523
0.12650000 0.12650100 13537.56530136 0 107.46152024 0 2564.11607890 0 512.45564650 0 1428.52933880 0 17154
0.12750000 0.12750600 13394.69663057 0 140.77004130 0 2554.55028513 0 423.53310670 0 1009.94886281 0 18007
0.12850000 0.12850300 13276.89461091 0 241.25808664 0 2701.79156905 0 11.56910255 0 709.30192210 0 17496
0.12950000 0.12949900 13078.27231249 0 386.94366450 0 2185.41855577 0 -323.09002396 0 333.19649303 0 18405
0.13050000 0.13049000 12671.24834952 0 465.61248271 0 2699.03760962 0 -413.01860200 0 540.55952146 0 18100
0.13150000 0.13148800 12427.21382215 0 451.35146913 0 2542.81504576 0 -476.27873619 0 93.40452447 0 19059
0.13250000 0.13249300 12106.63046331 0 218.04052255 0 2554.83130139 0 -107.04258119 0 -257.19395718 0 18957
0.13350000 0.13349100 12039.97340447 0 200.89853019 0 2678.62458789 0 -3.09415772 0 -435.15144329 0 19468
0.13450000 0.13450700 11869.11551336 0 109.09276347 0 2471.48187622 0 -1.38949056 0 -724.11709977 0 19953
0.13550000 0.13551000 11728.49497272 0 192.66700166 0 2527.53900142 0 -56.33982756 0 -550.07810450 0 19956
0.13650000 0.13649900 11654.98111694 0 274.65405996 0 2991.20460342 0 -276.30868375 0 -453.11512723 0 19723
0.13750000 0.13749600 11458.26972914 0 262.94467409 0 3215.07340338 0 -162.40154957 0 511.78795185 0 20946
0.13850000 0.13851100 11403.41535358 0 157.79400683 0 3308.94407763 0 212.64163801 0 541.56218750 0 20955
0.13950000 0.13949800 11281.45429314 0 115.83490578 0 3530.19380597 0 71.92971087 0 847.95759700 0 20506
0.14050000 0.14048300 11129.89659934 0 149.13533357 0 3581.06899118 0 507.90543108 0 962.90786357 0 21447
0.14150000 0.14148400 11076.04264169 0 31.72122877 0 3781.10761159 0 656.18759927 0 1393.35734266 0 21771
0.14250000 0.14249400 11066.54429182 0 27.63390335 0 3612.91375470 0 387.81481493 0 1898.15248569 0 22470
0.14350000 0.14350900 11115.85702658 0 58.08876041 0 3617.69103126 0 296.58344547 0 1960.87531677 0 22519
0.14450000 0.14449900 11027.97761916 0 115.33469683 0 3690.64285451 0 55.45361466 0 2274.95033884 0 22218
0.14550000 0.14550500 10949.79889333 0 155.67402010 0 3473.59712954 0 -237.70828914 0 1992.19176970 0 23559
0.14650000 0.14650700 10972.80850537 0 110.20626234 0 3915.48959108 0 -520.44212884 0 1918.86900499 0 23044
0.14750000 0.14750500 10849.50980750 0 95.21033501 0 3960.93554198 0 -425.25854659 0 1610.21197656 0 23649
0.14850000 0.14849900 10861.81832006 0 60.26989628 0 4142.03366591 0 -255.89678609 0 802.36439357 0 23640
0.14950000 0.14949500 10679.80970342 0 99.42771476 0 3954.35976131 0 -276.04565252 0 431.43978042 0 24457
0.15050000 0.15050000 10614.20926575 0 243.24768182 0 4058.21213341 0 175.50814832 0 -62.78960054 0 24591
0.15150000 0.15149900 10440.37260220 0 263.71803086 0 3905.93503796 0 254.10615042 0 66.82398250 0 25020
0.15250000 0.15250500 10132.82839820 0 309.61697999 0 3666.32932698 0 400.03452634 0 -19.41080531 0 25297
0.15350000 0.15350100 9959.77858019 0 274.42699882 0 3600.85253647 0 455.76342454 0 149.27022138 0 25452
0.15450000 0.15450400 9690.65492039 0 114.45230574 0 3389.74187509 0 338.02884878 0 608.46654065 0 26061
0.15550000 0.15549900 9588.70221826 0 202.41826617 0 3662.76604069 0 116.27666336 0 529.07270048 0 26128
0.15650000 0.15649500 9564.23132162 0 126.72934447 0 3346.47661042 0 -36.51806406 0 756.15183028 0 26331
0.15750000 0.15749700 9411.15613997 0 44.19992477 0 3514.58054211 0 12.48982425 0 718.00330983 0 27345
0.15850000 0.15849900 9434.14327071 0 75.30595273 0 3396.93589156 0 7.75458772 0 700.54995144 0 26980
0.15950000 0.15949700 9380.41296022 0 -58.37876920 0 3413.66197984 0 182.85054138 0 593.40406867 0 27777
0.16050000 0.16050000 9325.47990010 0 59.11896605 0 3432.74860479 0 245.21142350 0 179.14899509 0 28224
0.16150000 0.16150500 9384.84177661 0 99.39635334 0 3143.63906798 0 142.13915256 0 28.35791366 0 28075
0.16250000 0.16249700 9144.68527374 0 155.20303684 0 3037.57228769 0 130.03859205 0 19.06470567 0 28590
0.16350000 0.16349900 9104.58987258 0 196.42924746 0 3059.63768507 0 97.80973549 0 316.94813240 0 29163
0.16450000 0.16449100 8992.27329048 0 64.62553603 0 2800.86666459 0 251.39602953 0 397.41770285 0 28996
0.16550000 0.16550500 8840.74931862 0 -9.06876592 0 2721.00184115 0 350.23956767 0 444.84987674 0 30777
0.16650000 0.16650700 8960.14751069 0 -78.13151510 0 2384.09705744 0 404.03507394 0 106.69097363 0 29211
0.16750000 0.16749900 8890.47795746 0 -35.35780409 0 2227.12136998 0 219.87724488 0 177.44940870 0 30922
0.16850000 0.16850800 9098.50868054 0 39.93005119 0 2002.34207731 0 -2.02620598 0 -219.39502097 0 30867
0.16950000 0.16949900 8898.51502273 0 179.20969460 0 1980.54645555 0 -284.65261879 0 -312.50133097 0 30852
0.17050000 0.17049200 8769.75336861 0 219.69851854 0 1800.41502758 0 -340.19267405 0 -547.56694312 0 31257
0.17150000 0.17149500 8554.89957053 0 145.55293819 0 2131.95802089 0 -126.86872854 0 -486.04011728 0 32608
0.17250000 0.17250900 8541.91661894 0 134.31341152 0 1856.24733976 0 318.20596122 0 -341.61236824 0 32361
0.17350000 0.17350400 8342.94586035 0 93.56391690 0 1957.97522888 0 340.25674576 0 -323.13049030 0 32508
0.17450000 0.17449800 8347.68941496 0 37.38505545 0 1510.06901920 0 584.25417898 0 24.29318195 0 32791
0.17550000 0.17549800 8194.23205118 0 29.69746201 0 1487.53151449 0 507.36587985 0 26.90101292 0 33633
0.17650000 0.17650100 8251.91907073 0 57.91464273 0 1287.05450870 0 394.67161188 0 520.34545925 0 33984
0.17750000 0.17750300 8183.39606387 0 20.91075774 0 1441.78206601 0 173.56913607 0 742.03357297 0 34069
