### header ###
fiducial parameters:
Omega_m = 0.31
Omega_nu = 0
Omega_de = 0.69
Omega_k = 0
H_0 = 100
w_de = -1
zeff = 0
beta = 0
fgrowth = 0
b_1 = 2
gamma = 0.55
Lx = 3500 Ly = 3500 Lz = 3500
nx = 700 ny = 700 nz = 700
xoffset = 857.220397 yoffset = 15.9954215 zoffset = 262.898189
bins = 400 dk = 0.001
kx_ny = 0.628318531 ky_ny = 0.628318531 kz_ny = 0.628318531
############################
A(data) = 3.04974394 (not used)
A(ran) = 3.04869761 (used)
Ngal = 185957
weighted Ngal = 0
Nran = 9360983
weighted Nran = 0
SN(data) = 3444.08312
SN(ran) = 68.4622907
SN(data+ran) = 3512.54541
############################
13 columns: k_central k_mean P_0(k) sigma^{lin}_{P_0(k)} P^img_1(k) sigma^{lin}_{P_1(k)} P_2(k) sigma^{lin}_{P_2(k)} P^img_3(k) sigma^{lin}_{P_3(k)} P_4(k) sigma^{lin}_{P_4(k)} N_modes
### header ###
0.00050000 0 0 0 0 0 0 0 0 0 0 0 0
0.00150000 0.00179520 45811.72168018 0 -63416.04200951 0 -41610.19124995 0 94755.31346704 0 7451.66342324 0 3
0.00250000 0.00253879 77331.74280146 0 -56313.41203212 0 -16340.98359367 0 -71669.26499573 0 -28190.09074873 0 6
0.00350000 0.00331552 108312.66231368 0 -44773.98480470 0 -65454.19680005 0 6047.58249978 0 73421.90725770 0 7
0.00450000 0.00420575 119313.88718411 0 -15021.89323039 0 -47606.51638240 0 -51537.48434954 0 5132.03149774 0 24
0.00550000 0.00557378 120498.65177115 0 8957.74201143 0 -71985.68931380 0 -40828.85361764 0 26400.69155886 0 45
0.00650000 0.00659388 76606.49601630 0 17889.60804488 0 3184.77984966 0 -30484.53237594 0 -27114.36047377 0 40
0.00750000 0.00754703 80848.15556964 0 16921.33839091 0 -56919.84513906 0 -31184.60010347 0 23204.52493001 0 57
0.00850000 0.00846663 64369.36159801 0 5079.16671735 0 -18053.83395206 0 -5631.85827315 0 -4377.07567270 0 75
0.00950000 0.00948925 60844.74315480 0 2163.36439904 0 -27452.92887379 0 -23847.82737135 0 14267.98278586 0 112
0.01050000 0.01054430 66298.81929598 0 -5794.73530224 0 -173.90747965 0 -1509.11356389 0 16329.85534945 0 105
0.01150000 0.01145670 66500.70138311 0 199.95768772 0 -3496.74162940 0 -3464.78445937 0 18288.20151980 0 144
0.01250000 0.01249090 70296.44432195 0 4792.09173833 0 21098.47660906 0 1251.64645890 0 38391.76813266 0 169
0.01350000 0.01339930 61505.69341778 0 8757.56850321 0 24760.45580420 0 6448.77256502 0 38469.89065524 0 180
0.01450000 0.01448870 65624.94228466 0 7527.61650023 0 50470.74659516 0 26721.83695025 0 67631.73565966 0 267
0.01550000 0.01550050 51923.03866961 0 3980.15705473 0 32948.59542268 0 14166.59211627 0 38976.84400320 0 238
0.01650000 0.01653350 61505.91823079 0 -291.16095556 0 57595.18343497 0 32391.28395944 0 81339.93403912 0 315
0.01750000 0.01747870 55948.76532241 0 -5718.40004312 0 39652.29470563 0 24755.50991788 0 47188.36417521 0 297
0.01850000 0.01844180 66983.15011248 0 -9200.85480544 0 32400.38888653 0 27803.29995708 0 60260.79134932 0 388
0.01950000 0.01947590 74618.47452802 0 -10682.08031487 0 18542.24022632 0 11460.74267230 0 27214.62707830 0 399
0.02050000 0.02045430 80139.09532153 0 -5143.18222327 0 13653.68122341 0 1331.19654412 0 23726.09112393 0 462
0.02150000 0.02154770 83768.81384907 0 -105.30859841 0 5876.74708997 0 -9967.38850074 0 3417.88846452 0 571
0.02250000 0.02255340 77659.63258329 0 8191.59049826 0 6912.12342880 0 -8279.11020485 0 6146.82620508 0 510
0.02350000 0.02348930 75684.31303033 0 7589.72109552 0 8028.24136183 0 -6828.29065565 0 -3354.89585782 0 555
0.02450000 0.02439640 65268.95087601 0 7104.52964736 0 15525.36197663 0 7527.44789047 0 -6426.80833349 0 592
0.02550000 0.02547300 61128.45717925 0 4823.29578476 0 18232.11067265 0 7383.53383916 0 -35.04902342 0 837
0.02650000 0.02652900 56504.61550105 0 2224.62594552 0 23061.76866573 0 8662.83229885 0 -1774.08942357 0 723
0.02750000 0.02749970 56105.90961963 0 -118.60572619 0 20462.14337117 0 -467.89208668 0 15699.25484344 0 826
0.02850000 0.02848090 56967.39309165 0 -102.75393571 0 27683.47462028 0 -3862.84962371 0 14352.51247936 0 831
0.02950000 0.02946900 57862.14888984 0 1011.23029700 0 26705.53800669 0 -1135.47433359 0 18111.16127079 0 996
0.03050000 0.03053250 58781.40930662 0 2851.17981727 0 37113.59373804 0 -7780.58734493 0 17231.24313157 0 1041
0.03150000 0.03150510 55210.14216287 0 3595.65935583 0 33124.28679361 0 -3530.01395556 0 4362.51903000 0 1036
0.03250000 0.03246190 54054.60326773 0 3673.06247676 0 40094.61431189 0 -649.05315825 0 8366.49502363 0 1059
0.03350000 0.03345080 51791.52305606 0 1288.76308761 0 31073.43006774 0 62.61154864 0 -10262.37689787 0 1302
0.03450000 0.03451200 50302.36164721 0 388.21385804 0 32560.90537897 0 5262.81646900 0 -6415.01689088 0 1339
0.03550000 0.03553350 52764.06415730 0 -1875.34520536 0 28330.14925684 0 2674.24073411 0 -16585.46774707 0 1365
0.03650000 0.03647120 50664.19819425 0 22.90113977 0 23448.22223786 0 1986.68385085 0 -12056.49716105 0 1308
0.03750000 0.03744890 54067.75482908 0 -66.00262815 0 24337.24530418 0 1162.99144658 0 -15477.81402404 0 1579
0.03850000 0.03847530 51989.47091543 0 1474.75089460 0 21851.93742755 0 -2470.75123393 0 -13016.89835950 0 1662
0.03950000 0.03950240 53223.13233316 0 1628.41059010 0 23197.44332005 0 2415.64956404 0 -12955.63681302 0 1683
0.04050000 0.04050350 49989.08471134 0 1672.72123528 0 26441.83234054 0 829.96243924 0 -8758.34410811 0 1822
0.04150000 0.04152450 48536.11819785 0 3603.58401459 0 25061.03080474 0 7016.59403670 0 -3864.95162539 0 1887
0.04250000 0.04250150 45015.99601494 0 2784.68012754 0 23802.52754890 0 6441.87080547 0 -5884.06475360 0 1920
0.04350000 0.04349210 43175.33945774 0 1810.81262951 0 18187.59769576 0 8125.52919391 0 1867.16201162 0 2005
0.04450000 0.04448520 40174.53533859 0 1010.93691601 0 15316.62309256 0 6809.40636242 0 -1719.94320900 0 2151
0.04550000 0.04548030 39142.30638196 0 1036.93541709 0 11368.00730377 0 4641.70307220 0 791.15296853 0 2274
0.04650000 0.04648670 38225.85612787 0 584.38232240 0 12842.10624064 0 1328.21777168 0 -1729.12682065 0 2311
0.04750000 0.04749250 37338.96878519 0 2344.75477988 0 8757.64718777 0 -1969.06975115 0 846.11750247 0 2568
0.04850000 0.04851840 34754.85558864 0 1509.31589560 0 13731.69133949 0 -212.33589231 0 4555.29619004 0 2493
0.04950000 0.04949480 35902.97565431 0 1529.87504579 0 13028.58863626 0 -803.79645247 0 6919.99188431 0 2644
0.05050000 0.05050630 34781.60833738 0 860.51565200 0 15883.93873495 0 2820.11065864 0 10641.01821775 0 2829
0.05150000 0.05149060 34985.28892863 0 444.62955999 0 19540.74723075 0 1442.15300748 0 11655.31833646 0 2784
0.05250000 0.05249300 34375.93325250 0 442.10153764 0 17925.01609468 0 2449.63005120 0 16390.21764387 0 3055
0.05350000 0.05348950 34895.13890977 0 830.92801114 0 25267.07193264 0 726.61252423 0 20892.88510719 0 3009
0.05450000 0.05448610 34220.81227241 0 462.00985415 0 23012.64702204 0 1047.90741627 0 23161.36083121 0 3336
0.05550000 0.05550870 34334.34284480 0 -496.54562946 0 22915.52779972 0 2012.58231013 0 17068.81572850 0 3349
0.05650000 0.05647670 34956.62526927 0 -228.63933213 0 23490.93671064 0 2017.69680621 0 19666.97973846 0 3324
0.05750000 0.05747970 35972.44287583 0 -215.31129256 0 23437.20640015 0 1427.88862171 0 17583.97475150 0 3639
0.05850000 0.05849280 35108.14924112 0 431.67583409 0 20759.34617650 0 2475.09012511 0 14823.04611896 0 3846
0.05950000 0.05951020 33929.56701197 0 889.72111072 0 16823.88194907 0 3530.18256532 0 10437.43879236 0 3787
0.06050000 0.06049470 32601.59653462 0 750.04028848 0 12522.75935337 0 2815.56943575 0 6447.92951622 0 3930
0.06150000 0.06148310 31976.50394747 0 834.75095645 0 10882.48987675 0 2033.01781316 0 5999.76477157 0 4083
0.06250000 0.06249100 30641.11464062 0 978.80214370 0 8416.33606897 0 1353.17201630 0 1761.98324273 0 4303
0.06350000 0.06350600 29797.50380326 0 662.66221409 0 6785.23896335 0 -1083.65605779 0 1586.85390434 0 4470
0.06450000 0.06451750 30101.78821855 0 129.85536944 0 9797.64343405 0 -945.80521348 0 2076.59781604 0 4479
0.06550000 0.06550280 30395.39401564 0 -316.28043775 0 10268.53677447 0 -1403.96851695 0 545.72122827 0 4636
0.06650000 0.06648880 31089.05457225 0 397.06924268 0 13203.94278767 0 -809.39542060 0 1164.05930840 0 4653
0.06750000 0.06749660 31757.87329075 0 732.05749544 0 17251.58870939 0 -2453.40690985 0 2760.93987320 0 5220
0.06850000 0.06852730 30490.60232734 0 1889.72199764 0 18948.25253072 0 -2139.48925688 0 4486.07626283 0 5029
0.06950000 0.06949320 29857.86609769 0 2195.79367639 0 20524.86620225 0 293.57881953 0 3613.04864251 0 5040
0.07050000 0.07048030 28408.27177942 0 785.74171927 0 21287.09472832 0 278.54669731 0 5184.35672689 0 5475
0.07150000 0.07148790 27937.17610728 0 38.10187175 0 19160.58842303 0 2274.09604939 0 2664.12414845 0 5509
0.07250000 0.07249820 28218.64200159 0 -1053.14668357 0 18052.93470000 0 2932.58460986 0 458.91755113 0 5916
0.07350000 0.07351270 27857.25508059 0 -452.95663405 0 13466.74920176 0 2719.84405412 0 -3077.91498316 0 5721
0.07450000 0.07449140 27990.90641778 0 90.50466139 0 11775.81811229 0 1464.81415936 0 -4144.69770013 0 6028
0.07550000 0.07549160 27579.83582055 0 355.32596213 0 10189.32390877 0 1930.84029801 0 -4437.39300452 0 6183
0.07650000 0.07648840 26708.34816937 0 591.47629707 0 9106.50078321 0 1715.63803977 0 -6697.25839008 0 6330
0.07750000 0.07749960 26088.42628156 0 394.34900520 0 7220.83666048 0 1249.58941981 0 -3678.04208504 0 6583
0.07850000 0.07848650 25490.08644315 0 705.55653728 0 7336.54791910 0 1205.99817628 0 -4340.11641309 0 6549
0.07950000 0.07947320 25470.52771087 0 522.39912614 0 8351.53371751 0 97.49016379 0 -605.56532870 0 6828
0.08050000 0.08048110 24591.39641720 0 780.74974628 0 8377.01627272 0 124.81843385 0 -1599.24110145 0 7147
0.08150000 0.08149960 24511.02576448 0 554.58335731 0 10477.20821464 0 -935.86173385 0 1649.92519560 0 7386
0.08250000 0.08250610 23744.41338462 0 894.42757119 0 10673.55990161 0 -212.57419410 0 2276.20929172 0 7227
0.08350000 0.08350160 23504.53789802 0 576.63863811 0 12038.17490035 0 1014.07530570 0 2340.59573911 0 7798
0.08450000 0.08449610 23024.33729880 0 454.18748531 0 11602.71209104 0 1638.17871558 0 2680.25448225 0 7371
0.08550000 0.08548940 23090.09510557 0 55.69247849 0 11120.45445272 0 1547.15192596 0 444.45757803 0 8256
0.08650000 0.08650700 22716.00624925 0 455.99723007 0 11943.19140168 0 192.45904962 0 3402.64614213 0 8037
0.08750000 0.08749060 22552.79200063 0 166.86970823 0 11152.44534471 0 670.57450814 0 3021.49815714 0 8155
0.08850000 0.08849210 22100.01858919 0 379.59789925 0 11791.55502332 0 138.23864675 0 5073.31033832 0 8718
0.08950000 0.08949900 22606.52231113 0 342.72519266 0 12026.70943661 0 977.26891894 0 4427.54619448 0 8571
0.09050000 0.09049190 21499.99265317 0 310.30940408 0 11788.29523461 0 253.31818081 0 5278.84563694 0 8932
0.09150000 0.09150830 21592.95283471 0 503.97907178 0 11844.61089477 0 751.75673585 0 5448.83799794 0 9285
0.09250000 0.09250820 21094.42997479 0 675.13371607 0 10948.21396157 0 223.17075555 0 4055.90780001 0 9204
0.09350000 0.09350330 20506.20672204 0 853.74878026 0 10997.31312397 0 406.12583498 0 4652.57278146 0 9349
0.09450000 0.09448040 19749.26130181 0 792.54456109 0 10573.32701904 0 -182.29412916 0 2142.69284234 0 9564
0.09550000 0.09549270 19034.58072834 0 839.16066374 0 10180.94962398 0 3.41557289 0 3200.95514606 0 10155
0.09650000 0.09649430 17972.56404727 0 849.56388599 0 9393.72189068 0 390.02135467 0 1526.49160992 0 9913
0.09750000 0.09749140 17535.30273384 0 585.29618730 0 10048.73709008 0 976.92158284 0 2991.78911726 0 10476
0.09850000 0.09850240 17393.89534764 0 303.18395558 0 9636.75600014 0 913.25453709 0 2426.53051395 0 10575
0.09950000 0.09950330 16784.20245199 0 243.42865630 0 9786.47022722 0 1479.33708010 0 3280.62887844 0 10882
0.10050000 0.10051200 16798.02845239 0 171.51209698 0 9618.38877684 0 1229.83959648 0 4289.14006203 0 10875
0.10150000 0.10150300 16701.02163658 0 -100.00604624 0 9659.29350485 0 1074.87373737 0 3712.79817710 0 11118
0.10250000 0.10250800 17085.56429809 0 -190.08052793 0 8726.91524867 0 1000.95521816 0 4937.43335229 0 11575
0.10350000 0.10349800 17275.30648243 0 -364.83780078 0 8642.64409014 0 848.27907961 0 3226.23536956 0 11364
0.10450000 0.10450100 17201.00578110 0 47.66530499 0 7417.25579135 0 316.65362735 0 3843.71803616 0 12093
0.10550000 0.10551000 17092.08387552 0 306.73150495 0 7670.90107510 0 -226.13154295 0 3066.82046089 0 12067
0.10650000 0.10649700 16842.09180326 0 349.88211498 0 7036.14152832 0 257.86952029 0 3185.00466267 0 12054
0.10750000 0.10749900 16483.85226446 0 294.82428363 0 6846.23073422 0 508.17633077 0 2122.35850517 0 12807
0.10850000 0.10850100 16356.83291120 0 -1.47346946 0 6489.28387025 0 579.76466308 0 2302.73722745 0 12736
0.10950000 0.10950300 16193.73106910 0 83.08313415 0 6053.84354224 0 845.81962523 0 2013.58272805 0 12933
0.11050000 0.11050200 16211.04167122 0 115.75397310 0 5245.48338557 0 951.74589739 0 1946.58844969 0 13428
0.11150000 0.11150900 16009.49680361 0 87.32726665 0 5132.39119856 0 629.95304453 0 2995.63341981 0 13453
0.11250000 0.11250000 15871.01198661 0 352.46971278 0 4639.82588353 0 481.94964448 0 1679.09468424 0 13668
0.11350000 0.11349100 15540.19963560 0 306.20881469 0 4580.96983631 0 -0.87429107 0 2654.00756279 0 13791
0.11450000 0.11448600 15212.30985377 0 342.43293574 0 4797.57717589 0 -391.97835197 0 1949.82575710 0 14205
0.11550000 0.11549300 15023.12970197 0 275.39032258 0 4723.18654935 0 -89.80493089 0 2387.73902828 0 14776
0.11650000 0.11649800 14981.31448125 0 87.09312390 0 5454.70561763 0 -259.74221270 0 1643.92268811 0 14553
0.11750000 0.11747300 14867.22187633 0 163.30867008 0 5338.45480777 0 -409.89932143 0 1272.92501073 0 14568
0.11850000 0.11849100 14679.27819611 0 368.21898852 0 5909.38993969 0 -87.34210431 0 1180.72919343 0 16015
0.11950000 0.11950300 14592.50037247 0 316.65250329 0 5741.38717387 0 -336.10444938 0 356.32750411 0 15270
0.12050000 0.12050700 14314.18186037 0 95.33859083 0 5677.01196713 0 218.85322160 0 946.24022666 0 15999
0.12150000 0.12150000 14226.39237816 0 35.25911118 0 5772.05166906 0 387.88338290 0 561.83919736 0 15670
0.12250000 0.12250700 14385.11036648 0 -170.51280313 0 5388.65555393 0 654.38459889 0 990.79929023 0 16887
0.12350000 0.12352200 14314.40667338 0 32.68219200 0 4732.79730573 0 821.69156844 0 475.26820169 0 16407
0.12450000 0.12449800 14340.48498308 0 146.22400503 0 4589.33288045 0 573.89704340 0 1130.53968792 0 16306
0.12550000 0.12549900 14050.36378771 0 35.48729639 0 4061.29207171 0 640.52712467 0 974.17211967 0 17523
0.12650000 0.12650100 13855.00127801 0 77.46123510 0 3789.56058094 0 635.42049704 0 1477.74090770 0 17154
0.12750000 0.12750600 13893.10708398 0 53.01742842 0 3463.48054388 0 554.53389845 0 1152.96478613 0 18007
0.12850000 0.12850300 13803.18187814 0 175.59470133 0 2871.19941622 0 724.65215474 0 1449.30206135 0 17496
0.12950000 0.12949900 13645.02592235 0 247.68661479 0 2716.32573045 0 476.80479864 0 1292.15776413 0 18405
0.13050000 0.13049000 13453.59764040 0 340.84575586 0 2843.50245282 0 29.81683772 0 1711.27666729 0 18100
0.13150000 0.13148800 12980.36624463 0 478.76629219 0 3081.15229057 0 -407.27125729 0 1790.03990696 0 19059
0.13250000 0.13249300 12745.32423784 0 488.18146125 0 3604.17976908 0 -737.89026911 0 1827.16777632 0 18957
0.13350000 0.13349100 12366.28949519 0 337.04866404 0 3929.58536709 0 -382.58678828 0 2452.62006430 0 19468
0.13450000 0.13450700 12325.37352653 0 141.79518865 0 4819.73249848 0 130.45224799 0 2640.69863233 0 19953
0.13550000 0.13551000 12257.03037009 0 -23.67798114 0 4517.92102636 0 130.22406278 0 2700.38648771 0 19956
0.13650000 0.13649900 12373.70832468 0 68.71196219 0 4909.46661327 0 377.21488130 0 2322.14983126 0 19723
0.13750000 0.13749600 12155.30248097 0 177.04811747 0 4289.81450107 0 317.32581827 0 1979.42239047 0 20946
0.13850000 0.13851100 11990.17732173 0 228.59212140 0 4464.06706870 0 84.02274015 0 2238.23837355 0 20955
0.13950000 0.13949800 11775.59329928 0 146.19927560 0 3824.59768927 0 391.64562870 0 2231.85368394 0 20506
0.14050000 0.14048300 11686.45493898 0 69.42832887 0 3818.50525657 0 709.06699250 0 2013.42535894 0 21447
0.14150000 0.14148400 11586.63796049 0 -16.61671676 0 2887.64448824 0 732.96124376 0 1685.09719173 0 21771
0.14250000 0.14249400 11554.15247988 0 64.58731782 0 2899.89679753 0 462.49994652 0 1381.98180412 0 22470
0.14350000 0.14350900 11300.33858637 0 257.84703899 0 2550.24511590 0 13.58308994 0 860.60557720 0 22519
0.14450000 0.14449900 11232.13031774 0 281.03874958 0 2461.70251009 0 -450.86250082 0 854.26697425 0 22218
0.14550000 0.14550500 10910.98492635 0 281.45240552 0 2825.52865230 0 -485.23753482 0 988.14424853 0 23559
0.14650000 0.14650700 10824.46563768 0 117.99535885 0 2403.10499783 0 -175.26422620 0 536.48366150 0 23044
0.14750000 0.14750500 10808.68376405 0 -62.79578290 0 2996.08304584 0 25.80819686 0 719.87825037 0 23649
0.14850000 0.14849900 10917.61691028 0 12.72880048 0 2976.60299812 0 60.98873589 0 470.50104171 0 23640
0.14950000 0.14949500 10925.91251052 0 82.15330753 0 3692.48632123 0 -7.89289269 0 871.55397101 0 24457
0.15050000 0.15050000 11023.04297349 0 248.05530814 0 3539.09640135 0 -265.30408668 0 1006.38332840 0 24591
0.15150000 0.15149900 10608.62266234 0 218.06750012 0 3928.97837196 0 -166.12557715 0 1215.56397005 0 25020
0.15250000 0.15250500 10606.41949480 0 199.25177486 0 4199.27105943 0 1.61654046 0 1746.39246017 0 25297
0.15350000 0.15350100 10520.74325492 0 63.34736163 0 3875.19185821 0 292.10179803 0 1273.34091481 0 25452
0.15450000 0.15450400 10334.46319101 0 87.31040567 0 3620.99578258 0 517.48358957 0 1336.36724346 0 26061
0.15550000 0.15549900 10305.88945685 0 113.98019841 0 3293.16220401 0 385.96685195 0 1117.41735226 0 26128
0.15650000 0.15649500 10093.67721170 0 209.04350571 0 3131.74645951 0 587.21946264 0 1298.85719197 0 26331
0.15750000 0.15749700 9939.19694871 0 181.05203726 0 3012.02228857 0 308.12309751 0 1250.72472554 0 27345
0.15850000 0.15849900 9711.09042342 0 199.61709601 0 2708.04137086 0 183.85657962 0 1593.89055170 0 26980
0.15950000 0.15949700 9714.93472597 0 212.91366176 0 3143.85264035 0 134.07510972 0 1760.85917766 0 27777
0.16050000 0.16050000 9411.23482452 0 254.31972279 0 2856.85634588 0 -24.46932295 0 1948.17338144 0 28224
0.16150000 0.16150500 9301.14389126 0 249.17150475 0 3129.77934563 0 97.20768624 0 2336.08823817 0 28075
0.16250000 0.16249700 9192.97510928 0 104.82997150 0 3099.37338541 0 78.06721858 0 2276.44534539 0 28590
0.16350000 0.16349900 9177.29440151 0 124.47671806 0 2834.15023141 0 171.98195618 0 2387.82895348 0 29163
0.16450000 0.16449100 9027.98483785 0 39.39286049 0 2975.27660134 0 16.78600096 0 2015.31378826 0 28996
0.16550000 0.16550500 9020.53228641 0 21.88846954 0 2828.31633368 0 -111.49972402 0 1935.50516807 0 30777
0.16650000 0.16650700 9062.34750713 0 87.32119670 0 2871.27810077 0 -63.77326989 0 1795.51410386 0 29211
0.16750000 0.16749900 8933.61957496 0 177.37746854 0 3064.34751773 0 -9.58520638 0 1652.87024609 0 30922
0.16850000 0.16850800 8854.77765074 0 205.66344203 0 3214.00554156 0 -117.95039625 0 1683.24248436 0 30867
0.16950000 0.16949900 8586.82301861 0 161.04143083 0 3203.55173638 0 172.05614448 0 1617.39475238 0 30852
0.17050000 0.17049200 8504.77750892 0 127.18234270 0 3218.80529942 0 291.51166386 0 1618.50757680 0 31257
0.17150000 0.17149500 8366.15780411 0 19.52590957 0 2907.11329530 0 357.77979618 0 1461.93655277 0 32608
0.17250000 0.17250900 8333.87465521 0 41.13055268 0 2829.53032396 0 101.53612361 0 1457.24920142 0 32361
0.17350000 0.17350400 8385.60412987 0 64.61564426 0 2760.82746669 0 113.38219579 0 1241.58607649 0 32508
0.17450000 0.17449800 8198.09883503 0 147.30310750 0 2898.51419749 0 -175.64753239 0 1389.53552141 0 32791
0.17550000 0.17549800 8263.36205317 0 110.05788575 0 2870.48001457 0 -138.82203653 0 1352.76735287 0 33633
0.17650000 0.17650100 8154.33898174 0 23.32603636 0 3063.04360224 0 58.34943110 0 1568.18318348 0 33984
0.17750000 0.17750300 8234.37241494 0 -5.46649706 0 2911.47466779 0 198.85385582 0 1152.87486092 0 34069
