### header ###
fiducial parameters:
Omega_m = 0.31
Omega_nu = 0
Omega_de = 0.69
Omega_k = 0
H_0 = 100
w_de = -1
zeff = 0
beta = 0
fgrowth = 0
b_1 = 2
gamma = 0.55
Lx = 3500 Ly = 3500 Lz = 3500
nx = 700 ny = 700 nz = 700
xoffset = 857.220397 yoffset = 15.9954215 zoffset = 262.898189
bins = 400 dk = 0.001
kx_ny = 0.628318531 ky_ny = 0.628318531 kz_ny = 0.628318531
############################
A(data) = 3.10753248 (not used)
A(ran) = 3.10966111 (used)
Ngal = 189945
weighted Ngal = 0
Nran = 9360983
weighted Nran = 0
SN(data) = 3439.31136
SN(ran) = 69.8313019
SN(data+ran) = 3509.14267
############################
13 columns: k_central k_mean P_0(k) sigma^{lin}_{P_0(k)} P^img_1(k) sigma^{lin}_{P_1(k)} P_2(k) sigma^{lin}_{P_2(k)} P^img_3(k) sigma^{lin}_{P_3(k)} P_4(k) sigma^{lin}_{P_4(k)} N_modes
### header ###
0.00050000 0 0 0 0 0 0 0 0 0 0 0 0
0.00150000 0.00179520 3763.11132977 0 -8136.07292430 0 -6033.92510914 0 7802.85507403 0 15859.54652286 0 3
0.00250000 0.00253879 12366.51430821 0 -14339.24851150 0 -4746.10623619 0 1482.50694361 0 19864.02834578 0 6
0.00350000 0.00331552 20184.27448510 0 -10857.79416709 0 3763.63964035 0 -22343.26627101 0 -29872.02931761 0 7
0.00450000 0.00420575 37393.59834774 0 -13986.96651759 0 4531.08382836 0 -14407.81648096 0 1710.89448516 0 24
0.00550000 0.00557378 50940.60579572 0 -9904.83427942 0 20633.11366879 0 -9376.61362027 0 19145.86317058 0 45
0.00650000 0.00659388 73895.70068601 0 -6260.13196445 0 -684.12174040 0 13442.13217666 0 -12678.21755298 0 40
0.00750000 0.00754703 71609.68954685 0 -5305.99180845 0 36735.90787347 0 -1442.92861239 0 -7617.87892560 0 57
0.00850000 0.00846663 84223.61057765 0 2172.49180743 0 32257.63262225 0 -440.82235159 0 -2839.74807547 0 75
0.00950000 0.00948925 83932.47772372 0 9776.57845458 0 71235.03865799 0 -18572.14035727 0 3463.12084306 0 112
0.01050000 0.01054430 74742.45890558 0 12753.41750637 0 52504.40512542 0 -4667.15190546 0 -5571.47349742 0 105
0.01150000 0.01145670 73528.13140711 0 5040.74617315 0 68001.77788173 0 5122.19592835 0 -2393.92138618 0 144
0.01250000 0.01249090 75134.87002260 0 -2109.63408854 0 67207.28868806 0 10036.20376451 0 -30705.18634979 0 169
0.01350000 0.01339930 86768.04427712 0 -6805.85431679 0 64438.94122603 0 19140.13043870 0 -42166.04142860 0 180
0.01450000 0.01448870 90950.91522713 0 -10283.43063669 0 46704.56656775 0 14539.66931403 0 -38653.11326215 0 267
0.01550000 0.01550050 92653.98621938 0 -10693.47833471 0 731.13576208 0 -3119.58407542 0 -59674.92863322 0 238
0.01650000 0.01653350 108582.43793123 0 -11100.76083264 0 6118.80326281 0 19169.24372410 0 -37887.28772785 0 315
0.01750000 0.01747870 102886.80020583 0 -4809.20000875 0 -19244.44367749 0 2922.65911526 0 -48512.62523783 0 297
0.01850000 0.01844180 113437.27498194 0 -4304.92193565 0 -21177.83560322 0 11597.31657869 0 -39905.88378612 0 388
0.01950000 0.01947590 107674.86779121 0 4870.87745931 0 -36195.79460585 0 -16770.93848413 0 -49176.04844397 0 399
0.02050000 0.02045430 103774.92402009 0 6082.77697722 0 -24353.20702821 0 -27672.79600209 0 -34581.74956739 0 462
0.02150000 0.02154770 96925.43349716 0 10647.77384884 0 -14563.83671310 0 -22289.08633448 0 -34777.22448360 0 571
0.02250000 0.02255340 89349.45971749 0 6640.22332827 0 2670.21658115 0 -21560.35494759 0 -16660.66770046 0 510
0.02350000 0.02348930 85133.20403480 0 6626.38608722 0 17292.05505202 0 -9583.14933680 0 -25275.16520117 0 555
0.02450000 0.02439640 84502.04149626 0 6275.39676815 0 30736.77257834 0 -7847.42425418 0 -32456.25492066 0 592
0.02550000 0.02547300 77660.08220932 0 5100.51271309 0 34652.79048001 0 4880.08355226 0 -24035.43383205 0 837
0.02650000 0.02652900 75787.95183007 0 1911.27032509 0 40156.55029742 0 8833.13939808 0 -23627.28580401 0 723
0.02750000 0.02749970 73931.10873582 0 -1167.89237030 0 37279.73055584 0 13519.24304067 0 6043.78315983 0 826
0.02850000 0.02848090 76687.20388855 0 -1862.83436109 0 30670.22792602 0 22420.03991550 0 -10560.63632437 0 831
0.02950000 0.02946900 70015.42805368 0 1167.83616705 0 18311.80688634 0 19838.39966211 0 -1346.34894130 0 996
0.03050000 0.03053250 69228.91972203 0 4995.77232958 0 11007.36226572 0 12470.60273398 0 6766.92794331 0 1041
0.03150000 0.03150510 60958.38613369 0 5730.28141095 0 11279.88060204 0 161.12236351 0 5702.75305731 0 1036
0.03250000 0.03246190 55901.77940235 0 5506.39012969 0 1216.46322211 0 -2640.19280304 0 6497.36589813 0 1059
0.03350000 0.03345080 54925.30407335 0 2762.40115779 0 14533.03733010 0 -12088.75782864 0 2835.92625422 0 1302
0.03450000 0.03451200 53087.34527232 0 1191.11555471 0 14592.38796596 0 -10209.72568985 0 -766.76974896 0 1339
0.03550000 0.03553350 55453.05262517 0 1260.89751445 0 23941.12477242 0 -9836.38995712 0 -9652.11072904 0 1365
0.03650000 0.03647120 53143.32371297 0 2578.65024029 0 23744.75060415 0 -9171.84268590 0 -5178.39918201 0 1308
0.03750000 0.03744890 54681.38195249 0 2367.21360004 0 26521.41614772 0 -2586.68730556 0 -10106.07564946 0 1579
0.03850000 0.03847530 52431.79052169 0 58.01198676 0 28174.01661819 0 6661.43443620 0 -7429.04723397 0 1662
0.03950000 0.03950240 54068.20445511 0 -1674.55346135 0 25110.82688748 0 7264.50658857 0 -6993.21348318 0 1683
0.04050000 0.04050350 53735.48119347 0 -1990.98902008 0 17118.72421775 0 11594.73122902 0 -6955.87204145 0 1822
0.04150000 0.04152450 56694.47009190 0 -1734.33124194 0 21042.27335540 0 3084.14230366 0 -3994.19662750 0 1887
0.04250000 0.04250150 55538.03194470 0 773.33990932 0 10318.31037591 0 109.88095790 0 -8136.75860399 0 1920
0.04350000 0.04349210 53956.69719986 0 3872.03323535 0 19795.46037632 0 -4641.29840878 0 -950.93881867 0 2005
0.04450000 0.04448520 50599.56445254 0 4679.87632209 0 16085.37119605 0 -5521.50880492 0 -7102.30399852 0 2151
0.04550000 0.04548030 46132.30503903 0 4851.56602135 0 21175.47506656 0 -2906.93344489 0 -5903.91574279 0 2274
0.04650000 0.04648670 43040.22683595 0 3550.86536267 0 22682.73392308 0 -1565.51914926 0 -8673.27486338 0 2311
0.04750000 0.04749250 39903.97287550 0 1813.97125236 0 18932.96524573 0 2000.02650326 0 -9365.06947197 0 2568
0.04850000 0.04851840 40142.49948401 0 -279.57072059 0 19885.04836265 0 5294.98721139 0 -8910.13785559 0 2493
0.04950000 0.04949480 39437.37346365 0 -922.20659134 0 12046.94260793 0 3795.28207216 0 -12482.51782375 0 2644
0.05050000 0.05050630 40143.84836210 0 -554.00221567 0 13545.88338290 0 4359.39412910 0 -6680.95944652 0 2829
0.05150000 0.05149060 38651.53957105 0 143.90168659 0 10326.61721680 0 1585.46006365 0 -10780.77322828 0 2784
0.05250000 0.05249300 38759.22500505 0 1242.99115783 0 12046.04335587 0 57.00752221 0 -4165.66151375 0 3055
0.05350000 0.05348950 38000.25626770 0 1126.50429431 0 10767.47553847 0 -1837.41924979 0 -7433.57721621 0 3009
0.05450000 0.05448610 36981.06646592 0 957.72817171 0 14156.58793712 0 -1721.13471798 0 -2106.85764781 0 3336
0.05550000 0.05550870 37496.56270844 0 387.77884485 0 12311.43511963 0 -596.38958551 0 -6647.41734474 0 3349
0.05650000 0.05647670 37973.84073848 0 -644.55914609 0 15924.40507758 0 -2219.69129985 0 -5698.16687181 0 3324
0.05750000 0.05747970 38240.58138032 0 60.43299812 0 13130.09171236 0 -1248.85877751 0 -8791.26797411 0 3639
0.05850000 0.05849280 39103.07651091 0 -166.08623488 0 15776.47811396 0 -1453.38241756 0 -7729.18384914 0 3846
0.05950000 0.05951020 38562.96324329 0 1002.30522032 0 13674.47642727 0 1677.61091835 0 -7459.49815680 0 3787
0.06050000 0.06049470 36912.38608995 0 1583.34682132 0 14036.42538080 0 1835.91300259 0 -6386.53308192 0 3930
0.06150000 0.06148310 35709.74886824 0 2180.55135400 0 13780.81298318 0 4253.86690003 0 -4836.37990221 0 4083
0.06250000 0.06249100 33016.03932707 0 1539.62068997 0 12655.28662549 0 3141.28977198 0 -3999.27740163 0 4303
0.06350000 0.06350600 32457.71620526 0 658.53464714 0 12920.56598274 0 3731.15415974 0 1470.00734000 0 4470
0.06450000 0.06451750 31844.08908185 0 -417.14729302 0 11278.53172395 0 2159.87979731 0 291.13622613 0 4479
0.06550000 0.06550280 32228.85655638 0 14.90330437 0 12092.91686941 0 1115.54690798 0 2829.10317923 0 4636
0.06650000 0.06648880 32195.80904323 0 -156.94870990 0 11138.85539797 0 458.62754235 0 2312.32550252 0 4653
0.06750000 0.06749660 32331.03407152 0 62.46182317 0 9042.66512770 0 213.08227152 0 3567.06314037 0 5220
0.06850000 0.06852730 31857.35304972 0 408.00639584 0 8371.95797989 0 1605.31105285 0 1334.87223691 0 5029
0.06950000 0.06949320 30733.40038312 0 368.16615746 0 7695.87780102 0 627.33397291 0 756.86561160 0 5040
0.07050000 0.07048030 30910.55303865 0 379.22358558 0 6018.19943877 0 2202.09968145 0 -675.24499852 0 5475
0.07150000 0.07148790 30245.33132839 0 293.77890311 0 4210.06208413 0 430.42924592 0 -1259.78469003 0 5509
0.07250000 0.07249820 29647.21630299 0 563.21617707 0 3946.16532692 0 -567.40107134 0 -1192.68924581 0 5916
0.07350000 0.07351270 29139.92573550 0 634.39984596 0 4243.09835663 0 -469.58492868 0 -1969.54185848 0 5721
0.07450000 0.07449140 28585.64924795 0 698.27933999 0 5094.19546738 0 -803.98079914 0 -2611.45045913 0 6028
0.07550000 0.07549160 28097.13056719 0 861.67456309 0 4910.32090272 0 -1163.04764983 0 -2974.04012975 0 6183
0.07650000 0.07648840 27740.57712600 0 653.11665349 0 5262.78274704 0 -1732.49901587 0 -3754.53471326 0 6330
0.07750000 0.07749960 26989.70165717 0 597.60807205 0 6662.04143134 0 -1304.41007343 0 -5245.26981321 0 6583
0.07850000 0.07848650 27041.97068307 0 566.62546644 0 6993.19100187 0 -1209.57270321 0 -5115.97984850 0 6549
0.07950000 0.07947320 26785.34662688 0 397.02990040 0 6778.98916154 0 -470.86299067 0 -4175.72189615 0 6828
0.08050000 0.08048110 26618.98499606 0 396.03510281 0 6254.17441957 0 349.99901775 0 -4800.19624751 0 7147
0.08150000 0.08149960 26388.77646909 0 346.78868790 0 7130.96765788 0 1464.42073658 0 -3261.03642422 0 7386
0.08250000 0.08250610 25705.34490465 0 461.79290959 0 6191.75508606 0 2615.93547877 0 -2809.45452175 0 7227
0.08350000 0.08350160 25578.77517741 0 276.06476163 0 5572.70996900 0 1625.27444854 0 -2217.29704124 0 7798
0.08450000 0.08449610 25015.05654325 0 555.97045361 0 5844.53138498 0 1190.21630265 0 -275.49373657 0 7371
0.08550000 0.08548940 24839.25276582 0 656.33485179 0 6728.95702514 0 264.30591690 0 -352.38540790 0 8256
0.08650000 0.08650700 23810.17119140 0 873.71330002 0 7701.55432964 0 -342.62852306 0 1419.42441171 0 8037
0.08750000 0.08749060 23454.29218926 0 865.13668351 0 8043.57360943 0 -412.36214800 0 767.76454655 0 8155
0.08850000 0.08849210 22853.14218816 0 591.59319984 0 8795.67430919 0 -56.63781721 0 3242.21957489 0 8718
0.08950000 0.08949900 22088.66553195 0 512.25106666 0 9060.18930219 0 372.00483968 0 2594.06117244 0 8571
0.09050000 0.09049190 21938.49043818 0 486.04348948 0 8686.53883124 0 333.64274687 0 2470.61634612 0 8932
0.09150000 0.09150830 21202.90225435 0 524.92490036 0 9076.69057747 0 128.08496695 0 2589.36258044 0 9285
0.09250000 0.09250820 21107.80634916 0 661.55838219 0 8088.56993431 0 -283.10365712 0 2171.89605294 0 9204
0.09350000 0.09350330 20288.36291087 0 667.22479422 0 8879.33847258 0 -224.30493721 0 2010.73884341 0 9349
0.09450000 0.09448040 20189.10796492 0 540.05818844 0 8394.96759193 0 -40.74443633 0 1226.34375410 0 9564
0.09550000 0.09549270 19353.36558307 0 446.47527484 0 8063.68313359 0 529.39867935 0 413.14000103 0 10155
0.09650000 0.09649430 19254.44785664 0 473.33031350 0 8148.17910513 0 572.36381864 0 1207.25712916 0 9913
0.09750000 0.09749140 18652.28619698 0 543.13475454 0 7199.54686799 0 188.78897716 0 131.48076754 0 10476
0.09850000 0.09850240 18318.88849630 0 269.93411072 0 6837.85644942 0 536.47916524 0 -395.79005663 0 10575
0.09950000 0.09950330 18178.04314264 0 164.17195206 0 7292.66441865 0 290.87544303 0 426.95363672 0 10882
0.10050000 0.10051200 17949.07108725 0 12.88718125 0 6692.45863222 0 98.86084874 0 -718.79689977 0 10875
0.10150000 0.10150300 18049.89972430 0 -108.49206310 0 6402.92195069 0 85.91116947 0 -996.85125658 0 11118
0.10250000 0.10250800 18082.94723745 0 184.52652240 0 7509.66518101 0 -480.86716982 0 -1395.27949394 0 11575
0.10350000 0.10349800 18157.02312577 0 309.23030161 0 7448.27998737 0 -530.72732426 0 -1655.14085754 0 11364
0.10450000 0.10450100 17731.22727608 0 365.32339689 0 8023.95867391 0 -309.46073495 0 -698.36814114 0 12093
0.10550000 0.10551000 17500.11949705 0 353.48249541 0 7539.84632822 0 768.27824429 0 -926.69273504 0 12067
0.10650000 0.10649700 17169.64436556 0 180.17976276 0 7012.68229024 0 1273.73433758 0 -699.43263076 0 12054
0.10750000 0.10749900 17036.66746741 0 -32.93375776 0 7067.90760728 0 1486.53109657 0 247.88332618 0 12807
0.10850000 0.10850100 17036.33024789 0 169.87883043 0 6624.52013920 0 982.83641325 0 513.71347532 0 12736
0.10950000 0.10950300 16821.63381893 0 -39.55112885 0 6287.44674573 0 748.69141039 0 1477.47113208 0 12933
0.11050000 0.11050200 16875.13931641 0 171.37720917 0 5700.61733367 0 -44.48970875 0 1803.59613174 0 13428
0.11150000 0.11150900 16833.54890870 0 158.06940277 0 6047.67242499 0 724.86572710 0 2874.15570736 0 13453
0.11250000 0.11250000 16673.14482277 0 207.08875655 0 5330.15920753 0 406.21351205 0 1887.96845613 0 13668
0.11350000 0.11349100 16148.99327919 0 462.88550084 0 5330.21541078 0 931.27105209 0 2306.64897390 0 13791
0.11450000 0.11448600 15777.71458554 0 479.04393627 0 4220.81938688 0 608.08773072 0 1391.72744831 0 14205
0.11550000 0.11549300 15055.95240210 0 646.72859168 0 3771.96896255 0 316.39846458 0 1021.10858086 0 14776
0.11650000 0.11649800 14707.15500992 0 589.00785017 0 3736.03260216 0 -17.90275961 0 239.86649408 0 14553
0.11750000 0.11747300 13934.02305264 0 484.34502715 0 3423.16032971 0 -207.39000599 0 32.88418649 0 14568
0.11850000 0.11849100 13897.04131174 0 281.00165543 0 3660.41674469 0 -312.56090642 0 270.50963204 0 16015
0.11950000 0.11950300 13818.24435011 0 41.38290529 0 3553.05728956 0 189.17115928 0 -116.31375750 0 15270
0.12050000 0.12050700 13776.99116193 0 -87.32434408 0 3868.24513606 0 603.38127026 0 501.70059188 0 15999
0.12150000 0.12150000 14026.87082768 0 -200.33312546 0 3495.34778871 0 806.17497417 0 -50.09744458 0 15670
0.12250000 0.12250700 13975.72586686 0 32.60125932 0 3918.18734725 0 410.04095363 0 1329.15074569 0 16887
0.12350000 0.12352200 14035.97575477 0 196.48882291 0 3015.45068705 0 482.65218515 0 729.92401993 0 16407
0.12450000 0.12449800 13846.68319646 0 358.08779001 0 3394.22689473 0 -442.32635065 0 727.75345028 0 16306
0.12550000 0.12549900 13442.91902221 0 292.72902634 0 2604.68358739 0 -128.37497574 0 449.85646258 0 17523
0.12650000 0.12650100 13172.80618514 0 120.56834381 0 3338.85544923 0 -379.19435989 0 382.10456436 0 17154
0.12750000 0.12750600 13179.88779510 0 93.08439074 0 2597.82679044 0 139.54818256 0 -133.54679914 0 18007
0.12850000 0.12850300 13162.57719298 0 5.34008470 0 3274.03061646 0 102.88792427 0 -467.78754863 0 17496
0.12950000 0.12949900 13122.67288288 0 60.02653619 0 2910.83395069 0 50.37980973 0 186.70046425 0 18405
0.13050000 0.13049000 13166.51142073 0 153.55178525 0 3779.00560990 0 -170.24415158 0 52.55723618 0 18100
0.13150000 0.13148800 13038.36800240 0 191.75426082 0 3475.08089544 0 -174.71793057 0 468.47322832 0 19059
0.13250000 0.13249300 12812.76814223 0 223.23707539 0 3905.31680217 0 -134.98785056 0 -75.40363398 0 18957
0.13350000 0.13349100 12647.19335696 0 196.86988097 0 3996.06257552 0 -481.18303210 0 542.79191469 0 19468
0.13450000 0.13450700 12678.44236599 0 9.53081287 0 3538.71421923 0 348.00380224 0 -30.03220859 0 19953
0.13550000 0.13551000 12742.73888817 0 -67.74313051 0 3657.22439988 0 467.69537529 0 119.64773451 0 19956
0.13650000 0.13649900 12652.25164979 0 -178.80503118 0 2874.77394315 0 664.87100196 0 -429.66263354 0 19723
0.13750000 0.13749600 12866.04882669 0 34.43921812 0 2633.70694757 0 718.36188659 0 -484.05614243 0 20946
0.13850000 0.13851100 12675.74460982 0 215.17752881 0 2803.35084840 0 194.76338302 0 -318.89388904 0 20955
0.13950000 0.13949800 12382.13881272 0 331.74082876 0 2451.61964638 0 -123.91018927 0 -59.45607316 0 20506
0.14050000 0.14048300 12099.66125985 0 337.95016423 0 2786.99570159 0 -138.78943864 0 -228.17172106 0 21447
0.14150000 0.14148400 11912.61683169 0 365.80449674 0 2795.45991159 0 -403.60455702 0 -358.88812434 0 21771
0.14250000 0.14249400 11576.74618785 0 320.01907818 0 3171.25734683 0 -256.46893521 0 -319.76166728 0 22470
0.14350000 0.14350900 11411.73343512 0 300.72787340 0 3001.92818422 0 -228.56964009 0 -490.46668554 0 22519
0.14450000 0.14449900 11153.02985854 0 230.97963561 0 3640.93669697 0 -158.13122635 0 -736.19293085 0 22218
0.14550000 0.14550500 11027.68536224 0 150.02222092 0 3235.83488528 0 107.52828971 0 -444.59696210 0 23559
0.14650000 0.14650700 11010.72322029 0 57.63542496 0 3622.37838262 0 589.55751799 0 -230.75257447 0 23044
0.14750000 0.14750500 11009.23945439 0 -39.50122036 0 3564.84873218 0 543.95757017 0 519.90032948 0 23649
0.14850000 0.14849900 11026.67370368 0 -92.50122578 0 3142.90842569 0 1059.62242246 0 896.16762392 0 23640
0.14950000 0.14949500 11089.63258842 0 -35.58441561 0 2887.13865895 0 861.65882617 0 1579.36763096 0 24457
0.15050000 0.15050000 11134.64015395 0 -22.84628539 0 2301.84921604 0 668.50622840 0 1986.11057766 0 24591
0.15150000 0.15149900 10987.00544725 0 69.57524417 0 2256.49319034 0 300.55701551 0 2005.55690342 0 25020
0.15250000 0.15250500 10941.51453374 0 234.87789328 0 1996.73299260 0 -62.74171537 0 2164.19620719 0 25297
0.15350000 0.15350100 10690.94918829 0 186.51724164 0 1940.82199586 0 -88.31925408 0 1917.03677892 0 25452
0.15450000 0.15450400 10617.50277642 0 266.61137436 0 2139.26444387 0 -497.33022688 0 2136.34187468 0 26061
0.15550000 0.15549900 10318.26541331 0 281.48725154 0 2025.61022433 0 -151.06422924 0 955.03041554 0 26128
0.15650000 0.15649500 10170.76559442 0 238.00279419 0 2280.88540243 0 -136.00288132 0 1061.21859486 0 26331
0.15750000 0.15749700 9907.20605673 0 180.09096162 0 2394.94428540 0 -389.47730718 0 421.70537689 0 27345
0.15850000 0.15849900 9969.68159349 0 227.05215225 0 2697.44143722 0 -232.52747322 0 761.70471174 0 26980
0.15950000 0.15949700 9744.57632195 0 163.49301675 0 2767.72922624 0 -304.49011920 0 -140.99373025 0 27777
0.16050000 0.16050000 9631.81011382 0 180.40232765 0 2841.33300722 0 -59.89378410 0 392.55724548 0 28224
0.16150000 0.16150500 9636.35133671 0 92.01720336 0 3007.26749332 0 80.34581089 0 -49.49213554 0 28075
0.16250000 0.16249700 9459.34480965 0 77.47416185 0 3016.28249520 0 149.73108806 0 269.48111249 0 28590
0.16350000 0.16349900 9614.76928731 0 103.64453247 0 3019.66593107 0 129.09662552 0 544.97484907 0 29163
0.16450000 0.16449100 9445.86726942 0 128.93476014 0 2943.93766710 0 168.78848731 0 229.54195638 0 28996
0.16550000 0.16550500 9373.71353238 0 179.88638178 0 3119.23561525 0 49.76326004 0 629.13922141 0 30777
0.16650000 0.16650700 9229.33861439 0 104.91585007 0 2823.06694979 0 300.38840574 0 525.23739045 0 29211
0.16750000 0.16749900 9174.88890225 0 48.78071476 0 2948.00678266 0 167.04056612 0 1041.61152779 0 30922
0.16850000 0.16850800 9138.18817762 0 116.19235848 0 2624.28728226 0 308.33442175 0 532.28415439 0 30867
0.16950000 0.16949900 8916.83728342 0 187.35804232 0 2516.99527103 0 87.40021847 0 523.02635445 0 30852
0.17050000 0.17049200 8744.75416138 0 219.89522993 0 2515.03939781 0 36.80953414 0 300.63120380 0 31257
0.17150000 0.17149500 8499.51688438 0 146.76243220 0 2150.50509460 0 187.83127371 0 273.74806351 0 32608
0.17250000 0.17250900 8402.94845395 0 5.87138530 0 2228.81870824 0 238.50974754 0 349.90572034 0 32361
0.17350000 0.17350400 8429.36398317 0 -99.70693252 0 1798.62776412 0 312.32372869 0 142.51908655 0 32508
0.17450000 0.17449800 8512.44363272 0 -17.79125235 0 1931.50349641 0 333.83271386 0 110.21435560 0 32791
0.17550000 0.17549800 8425.38479281 0 100.45645911 0 1642.12418399 0 -1.43312676 0 11.19924017 0 33633
0.17650000 0.17650100 8411.82856803 0 192.47478653 0 1590.87805731 0 -38.23462384 0 368.52473422 0 33984
0.17750000 0.17750300 8273.52360144 0 241.69534795 0 1825.16694049 0 -141.40288994 0 538.77338206 0 34069
