### header ###
fiducial parameters:
Omega_m = 0.31
Omega_nu = 0
Omega_de = 0.69
Omega_k = 0
H_0 = 100
w_de = -1
zeff = 0
beta = 0
fgrowth = 0
b_1 = 2
gamma = 0.55
Lx = 3500 Ly = 3500 Lz = 3500
nx = 700 ny = 700 nz = 700
xoffset = 857.220397 yoffset = 15.9954215 zoffset = 262.898189
bins = 400 dk = 0.001
kx_ny = 0.628318531 ky_ny = 0.628318531 kz_ny = 0.628318531
############################
A(data) = 3.05846148 (not used)
A(ran) = 3.06156048 (used)
Ngal = 186920
weighted Ngal = 0
Nran = 9360983
weighted Nran = 0
SN(data) = 3428.86327
SN(ran) = 68.7511424
SN(data+ran) = 3497.61441
############################
13 columns: k_central k_mean P_0(k) sigma^{lin}_{P_0(k)} P^img_1(k) sigma^{lin}_{P_1(k)} P_2(k) sigma^{lin}_{P_2(k)} P^img_3(k) sigma^{lin}_{P_3(k)} P_4(k) sigma^{lin}_{P_4(k)} N_modes
### header ###
0.00050000 0 0 0 0 0 0 0 0 0 0 0 0
0.00150000 0.00179520 37547.37044974 0 -54690.59928609 0 -43948.69622803 0 92606.88789282 0 76488.13196410 0 3
0.00250000 0.00253879 62422.48089140 0 -52571.28699727 0 -13679.64712660 0 -63779.45224764 0 -64171.07651911 0 6
0.00350000 0.00331552 101641.44851135 0 -48273.76140979 0 -58125.85455598 0 30224.76093755 0 20581.51908194 0 7
0.00450000 0.00420575 126539.37747399 0 -31101.75650758 0 -45604.66889372 0 -29707.91581694 0 -21984.35229317 0 24
0.00550000 0.00557378 132774.56643447 0 14137.14161135 0 -51961.59410162 0 -61599.44044488 0 -1135.18207667 0 45
0.00650000 0.00659388 111534.00800017 0 17353.09178549 0 -15251.31491181 0 -29502.54912808 0 -11574.27324469 0 40
0.00750000 0.00754703 84196.85782891 0 24142.66964002 0 -26959.01468067 0 -34906.37956050 0 16319.62635728 0 57
0.00850000 0.00846663 77064.66494009 0 6654.24041973 0 -13192.58973043 0 -13888.61082369 0 6128.22292812 0 75
0.00950000 0.00948925 64770.42801609 0 470.30770252 0 -7301.39840427 0 -10552.32948348 0 7213.81125377 0 112
0.01050000 0.01054430 66882.65869495 0 -1755.53110921 0 3227.62921025 0 2071.17982239 0 21523.71042621 0 105
0.01150000 0.01145670 66960.89362404 0 -2669.44097625 0 3529.23835066 0 -2776.92407854 0 23812.64413456 0 144
0.01250000 0.01249090 69874.35788700 0 -186.67573482 0 18165.00398779 0 -1802.70812033 0 24485.84670684 0 169
0.01350000 0.01339930 77249.34883160 0 903.48416348 0 35111.52143634 0 -948.40067974 0 24448.41533991 0 180
0.01450000 0.01448870 70077.92607174 0 3001.13009802 0 42123.32695582 0 -1085.13195523 0 34850.73833938 0 267
0.01550000 0.01550050 81168.17689595 0 2828.70975645 0 49517.20219365 0 1926.59133204 0 19511.07191283 0 238
0.01650000 0.01653350 77054.32354142 0 -3607.83298057 0 48906.04801341 0 18648.68918874 0 40715.77267129 0 315
0.01750000 0.01747870 86009.07553976 0 -789.03073367 0 50341.47911176 0 33563.68383068 0 32225.70917417 0 297
0.01850000 0.01844180 88319.70370402 0 -3758.15420280 0 39665.33386048 0 30400.11508895 0 42463.13182742 0 388
0.01950000 0.01947590 83642.35652835 0 -1431.37322343 0 11593.71957045 0 41279.15408593 0 20675.71573506 0 399
0.02050000 0.02045430 86973.74818549 0 -1055.54993470 0 12802.98877609 0 29325.62128558 0 38072.19643237 0 462
0.02150000 0.02154770 80361.54779949 0 -38.77788449 0 -12849.86228964 0 18572.58998329 0 24743.25760858 0 571
0.02250000 0.02255340 82571.68454622 0 668.52084125 0 -14326.09695014 0 3413.47088878 0 22536.71787009 0 510
0.02350000 0.02348930 78260.33295835 0 1202.61474041 0 -24324.99299488 0 -10026.06469756 0 18246.04907956 0 555
0.02450000 0.02439640 75169.82844637 0 1537.06906226 0 -15833.46821317 0 -11631.71296992 0 16597.94486938 0 592
0.02550000 0.02547300 75059.78247572 0 672.03242054 0 -20983.70956509 0 -2248.55729093 0 22402.05487433 0 837
0.02650000 0.02652900 75170.84010494 0 266.78335632 0 -13160.55387584 0 -5114.78833952 0 10966.77227593 0 723
0.02750000 0.02749970 78070.47836750 0 2742.17922713 0 -7125.35857317 0 -5736.25019648 0 18587.65245527 0 826
0.02850000 0.02848090 73631.88261336 0 5763.90219728 0 -4212.20904842 0 491.00736084 0 16746.20905252 0 831
0.02950000 0.02946900 67167.60919098 0 7552.06491557 0 7042.89715941 0 -9294.95029271 0 31333.31391264 0 996
0.03050000 0.03053250 63409.29761907 0 6285.27730014 0 9838.43575555 0 -3026.97235405 0 28502.01880652 0 1041
0.03150000 0.03150510 58201.39172890 0 4702.51499266 0 27462.70823993 0 -4526.84610304 0 24969.19468827 0 1036
0.03250000 0.03246190 57710.51251147 0 2700.35276576 0 15711.95677876 0 1576.65863413 0 26262.43155487 0 1059
0.03350000 0.03345080 56059.37332560 0 -257.87514061 0 23683.15183814 0 4256.59837816 0 12057.73363263 0 1302
0.03450000 0.03451200 54854.48797374 0 948.49622527 0 17183.13314644 0 -1063.73425250 0 8018.09105422 0 1339
0.03550000 0.03553350 54215.11976017 0 280.15073817 0 15170.04500702 0 348.69397820 0 -6667.83036647 0 1365
0.03650000 0.03647120 50322.03278599 0 1458.57559820 0 12147.77124498 0 -4083.70592927 0 -4656.46204661 0 1308
0.03750000 0.03744890 52307.69373762 0 115.91134221 0 8897.22234790 0 -1186.21463099 0 -7648.66706795 0 1579
0.03850000 0.03847530 51433.05870424 0 305.15781385 0 9545.58308206 0 -685.79659736 0 -10761.07960820 0 1662
0.03950000 0.03950240 51654.04989762 0 -202.51268763 0 6738.94996364 0 2268.65557443 0 -8959.01220496 0 1683
0.04050000 0.04050350 50704.10250434 0 480.84693664 0 10784.49388368 0 4050.80454458 0 -6257.82763105 0 1822
0.04150000 0.04152450 50518.40695426 0 1193.80207023 0 10795.08257667 0 1064.09170519 0 1256.49117936 0 1887
0.04250000 0.04250150 49690.30821491 0 2751.05934120 0 12529.16652428 0 2584.59654453 0 -1329.63409367 0 1920
0.04350000 0.04349210 49501.91490866 0 1360.71449294 0 17807.66370105 0 1748.14600168 0 4061.83162295 0 2005
0.04450000 0.04448520 48098.96929093 0 1362.29942469 0 17751.34804089 0 -2073.51787774 0 1703.12719551 0 2151
0.04550000 0.04548030 47980.60523873 0 2416.16663398 0 20718.87983387 0 -2170.24367728 0 5383.50733590 0 2274
0.04650000 0.04648670 45189.66406873 0 2252.82873820 0 23008.03835524 0 -2470.02059163 0 1812.36383931 0 2311
0.04750000 0.04749250 44609.19686498 0 2708.13129606 0 20777.89325021 0 -1338.57041100 0 1172.91694118 0 2568
0.04850000 0.04851840 42199.53856778 0 1818.13029313 0 23994.29305037 0 1088.64578265 0 1917.50888625 0 2493
0.04950000 0.04949480 42354.88436088 0 1612.98841729 0 21335.09230694 0 3438.56002121 0 1862.46341962 0 2644
0.05050000 0.05050630 39368.91790070 0 1476.71800848 0 20933.57626283 0 6193.22761130 0 -52.40087873 0 2829
0.05150000 0.05149060 39095.09564889 0 217.74714157 0 19718.01229278 0 1984.39075810 0 5531.70407513 0 2784
0.05250000 0.05249300 38591.73930916 0 -290.95187946 0 15949.47172871 0 5187.70644081 0 1821.78350462 0 3055
0.05350000 0.05348950 38594.66187835 0 150.32684255 0 17349.38237075 0 430.55289308 0 3707.16661108 0 3009
0.05450000 0.05448610 37504.31875744 0 575.35720393 0 14005.17637177 0 247.53823820 0 152.37488911 0 3336
0.05550000 0.05550870 37509.26464377 0 884.71002863 0 16389.20598531 0 -3229.92230300 0 -2330.70396647 0 3349
0.05650000 0.05647670 35953.44617609 0 1106.20817535 0 12877.73910345 0 -3453.52132734 0 -4967.35596453 0 3324
0.05750000 0.05747970 35475.60611352 0 782.78880032 0 17289.13248283 0 -4003.38023914 0 -7484.57604858 0 3639
0.05850000 0.05849280 34811.73328134 0 417.82847645 0 14310.47244562 0 -1458.28334128 0 -12404.84492720 0 3846
0.05950000 0.05951020 35138.04937206 0 -281.59178959 0 15860.55818143 0 2028.92621629 0 -10117.91205468 0 3787
0.06050000 0.06049470 34316.69502315 0 423.34089157 0 12525.11989002 0 2614.09201205 0 -10717.31975491 0 3930
0.06150000 0.06148310 34440.22977468 0 134.51124697 0 11882.04226170 0 8044.47286149 0 -7929.52596712 0 4083
0.06250000 0.06249100 32472.21664470 0 875.79057227 0 8076.63236323 0 7622.34146394 0 -5554.38770831 0 4303
0.06350000 0.06350600 31792.38208849 0 930.57413174 0 5577.48724556 0 6011.55621419 0 -2515.82624336 0 4470
0.06450000 0.06451750 30878.62959057 0 450.20829495 0 4149.20520108 0 2956.50471461 0 1294.75435445 0 4479
0.06550000 0.06550280 30210.93493715 0 671.89978086 0 2190.00474127 0 358.39016352 0 2022.31671366 0 4636
0.06650000 0.06648880 30496.67227873 0 -25.56067773 0 4036.77621247 0 -1105.84959859 0 3523.52810009 0 4653
0.06750000 0.06749660 30364.14500661 0 -119.47800068 0 2537.67806838 0 -1890.89102532 0 1503.67308894 0 5220
0.06850000 0.06852730 30313.67448483 0 444.31482177 0 6229.47870991 0 -1590.61952234 0 4945.43669561 0 5029
0.06950000 0.06949320 30994.97032563 0 887.19870870 0 5662.62393420 0 -2505.61973249 0 -1151.87444301 0 5040
0.07050000 0.07048030 30450.24839121 0 853.03949519 0 9125.69981465 0 -737.54967739 0 3568.27713065 0 5475
0.07150000 0.07148790 29199.61359088 0 1245.43037904 0 9656.80932104 0 -1638.01010582 0 1338.19946952 0 5509
0.07250000 0.07249820 28538.66332790 0 525.37115419 0 9503.58801093 0 194.66446529 0 466.57355835 0 5916
0.07350000 0.07351270 28287.65959708 0 294.26674736 0 11675.77632079 0 286.14874940 0 1714.33412428 0 5721
0.07450000 0.07449140 28077.79664793 0 184.82102745 0 8486.52269214 0 496.89970995 0 -677.44816606 0 6028
0.07550000 0.07549160 28194.47460252 0 24.78125101 0 10799.11797028 0 689.84435569 0 1150.78409989 0 6183
0.07650000 0.07648840 28024.85318299 0 173.20156679 0 8811.65851453 0 -38.30622678 0 -1259.16645423 0 6330
0.07750000 0.07749960 27502.05051749 0 660.58831403 0 8979.49267060 0 248.71963059 0 115.73036773 0 6583
0.07850000 0.07848650 26919.44759010 0 629.28197768 0 8562.82422930 0 -948.36470965 0 -901.90260392 0 6549
0.07950000 0.07947320 26399.00546125 0 767.39472914 0 8598.22103845 0 203.68958377 0 -1018.10058272 0 6828
0.08050000 0.08048110 25602.83016998 0 993.84101032 0 8800.95741504 0 355.27650326 0 -1470.89535140 0 7147
0.08150000 0.08149960 24684.91863129 0 764.99709834 0 7582.85305792 0 860.25824109 0 -2190.31947949 0 7386
0.08250000 0.08250610 23928.53524360 0 551.68214536 0 7210.40533660 0 2028.36418376 0 -1309.82806708 0 7227
0.08350000 0.08350160 23522.52293919 0 379.90027276 0 7076.14700427 0 1200.70382978 0 -1697.29329778 0 7798
0.08450000 0.08449610 23381.34036601 0 32.89475271 0 6462.78965648 0 680.74729705 0 -202.90161415 0 7371
0.08550000 0.08548940 23319.62919350 0 -118.19319431 0 6054.00091135 0 384.71351940 0 -1681.00559487 0 8256
0.08650000 0.08650700 23696.97783854 0 265.92681873 0 7945.37528465 0 -914.38422249 0 125.87505502 0 8037
0.08750000 0.08749060 23334.80407199 0 606.13860189 0 7448.71837275 0 -1258.62690300 0 -390.26977305 0 8155
0.08850000 0.08849210 23242.51832948 0 418.44558818 0 9260.71127058 0 -189.10821164 0 1562.90007764 0 8718
0.08950000 0.08949900 22985.89427330 0 281.36922471 0 8981.61715358 0 0.94847374 0 1598.56666241 0 8571
0.09050000 0.09049190 22714.65737116 0 134.39884047 0 8736.80702131 0 1133.95684574 0 1222.10602877 0 8932
0.09150000 0.09150830 22720.50250954 0 15.18825486 0 9337.91205980 0 1542.22852094 0 989.99558370 0 9285
0.09250000 0.09250820 22303.13714790 0 264.37560893 0 7095.30107311 0 100.29200839 0 -120.00631127 0 9204
0.09350000 0.09350330 22477.81686026 0 626.65391354 0 7615.18116942 0 628.87731425 0 60.74998447 0 9349
0.09450000 0.09448040 21279.67589884 0 1002.74023350 0 6582.04172009 0 -942.48360119 0 -508.56862948 0 9564
0.09550000 0.09549270 20401.21904421 0 937.12630705 0 7066.85098611 0 331.05402500 0 -1072.29400803 0 10155
0.09650000 0.09649430 19615.04793209 0 636.00838308 0 7095.96427151 0 201.04465865 0 -1013.70886048 0 9913
0.09750000 0.09749140 19015.24680908 0 362.69870494 0 6506.75184149 0 1541.44167539 0 -1045.21528042 0 10476
0.09850000 0.09850240 18851.02090190 0 158.71124393 0 5948.08025951 0 1731.70092966 0 -889.64242617 0 10575
0.09950000 0.09950330 18613.39354545 0 -119.12954051 0 5914.43699187 0 1224.48904673 0 288.54188394 0 10882
0.10050000 0.10051200 18813.58953497 0 -77.90557802 0 5389.55480599 0 719.89173916 0 304.73066912 0 10875
0.10150000 0.10150300 18885.64210615 0 -63.90871973 0 5142.87872570 0 262.52314969 0 1030.21013576 0 11118
0.10250000 0.10250800 19007.26594706 0 289.88064544 0 5892.42779774 0 -191.41479317 0 2313.47204890 0 11575
0.10350000 0.10349800 18604.62583788 0 558.86492117 0 5461.20271375 0 -671.14665726 0 1448.22295888 0 11364
0.10450000 0.10450100 18327.76861037 0 574.01394616 0 6359.96018359 0 -149.53774887 0 2225.06433090 0 12093
0.10550000 0.10551000 17979.64565723 0 607.39980290 0 5922.26048478 0 282.07401351 0 2125.14618655 0 12067
0.10650000 0.10649700 17003.84476728 0 362.39633144 0 5523.25110578 0 752.19624529 0 2089.40091723 0 12054
0.10750000 0.10749900 17142.21717778 0 133.07469181 0 5223.37302558 0 1205.43614374 0 2029.62313664 0 12807
0.10850000 0.10850100 16611.20883724 0 -46.25145594 0 4326.05435903 0 776.28383574 0 1203.12056969 0 12736
0.10950000 0.10950300 16937.18770844 0 79.98487359 0 3885.55573818 0 628.28268383 0 1112.81767798 0 12933
0.11050000 0.11050200 16588.95234880 0 154.92202057 0 3903.19231918 0 -1.67776829 0 1292.42753975 0 13428
0.11150000 0.11150900 16444.50998690 0 294.00034393 0 3982.89977351 0 -317.71362072 0 1244.34003592 0 13453
0.11250000 0.11250000 16259.37646936 0 235.49500501 0 4046.02726802 0 -402.69968463 0 329.14086625 0 13668
0.11350000 0.11349100 16254.54298955 0 298.59664602 0 4951.76518197 0 -304.14278309 0 1263.74139908 0 13791
0.11450000 0.11448600 15785.47063455 0 414.03588090 0 4369.01612612 0 -408.97309181 0 522.25412174 0 14205
0.11550000 0.11549300 15698.46799789 0 553.47952541 0 5199.56532733 0 280.97130567 0 1324.95798296 0 14776
0.11650000 0.11649800 15165.54874673 0 393.46661412 0 4861.32290619 0 360.81702001 0 1426.89944444 0 14553
0.11750000 0.11747300 14756.27665362 0 347.46649914 0 4261.91520596 0 998.98360802 0 757.60187423 0 14568
0.11850000 0.11849100 14595.31053515 0 175.46430978 0 4330.03354939 0 640.45293637 0 861.28001624 0 16015
0.11950000 0.11950300 14077.90338200 0 140.43619397 0 3689.54127073 0 532.79785213 0 520.68492690 0 15270
0.12050000 0.12050700 13944.58926433 0 196.34494258 0 3508.25205575 0 -87.18866943 0 795.37832914 0 15999
0.12150000 0.12150000 14048.90250311 0 170.83765794 0 4381.41456388 0 -130.72876800 0 1096.81099134 0 15670
0.12250000 0.12250700 13890.40932781 0 57.18501209 0 3649.15361266 0 54.26851285 0 1086.64157462 0 16887
0.12350000 0.12352200 13958.97729727 0 -7.71750481 0 4372.97283518 0 52.43819769 0 961.99062647 0 16407
0.12450000 0.12449800 14015.85498997 0 81.22808956 0 4119.31631078 0 489.76414487 0 1597.47631929 0 16306
0.12550000 0.12549900 13925.48015809 0 295.38294397 0 4750.87227210 0 260.95620298 0 1497.25467737 0 17523
0.12650000 0.12650100 13529.02240681 0 484.37762504 0 4258.18330991 0 165.19934753 0 2165.07297795 0 17154
0.12750000 0.12750600 13074.33808474 0 496.12860131 0 4638.54444935 0 136.35021743 0 2421.74199674 0 18007
0.12850000 0.12850300 12846.49009442 0 457.52595857 0 3960.63204441 0 12.76803035 0 2167.25366419 0 17496
0.12950000 0.12949900 12440.59019652 0 259.40162098 0 4393.80176098 0 117.28719786 0 2352.37594108 0 18405
0.13050000 0.13049000 12292.66323290 0 68.44657043 0 3912.85927881 0 -4.19223441 0 1783.65521734 0 18100
0.13150000 0.13148800 12260.96459784 0 70.23338427 0 4293.43399061 0 -117.02753883 0 1605.68199432 0 19059
0.13250000 0.13249300 12306.26442029 0 -67.11455332 0 3601.95412024 0 -425.76999619 0 473.76420262 0 18957
0.13350000 0.13349100 12329.30775429 0 -56.26350354 0 4011.20373205 0 -572.06594139 0 351.95039471 0 19468
0.13450000 0.13450700 12357.97141365 0 -99.74975940 0 3450.82357116 0 113.34959791 0 -197.51284619 0 19953
0.13550000 0.13551000 12423.61681392 0 32.30102153 0 3703.45719634 0 413.55365698 0 -266.37307257 0 19956
0.13650000 0.13649900 12563.78772854 0 42.43727833 0 2970.26327111 0 742.06167459 0 -157.85920261 0 19723
0.13750000 0.13749600 12282.99627328 0 195.81325980 0 3415.87638804 0 875.57362771 0 13.00700659 0 20946
0.13850000 0.13851100 12168.34163582 0 357.08287584 0 2757.45527147 0 435.67413355 0 674.19062548 0 20955
0.13950000 0.13949800 11777.72902292 0 237.59925483 0 3362.75307268 0 391.85020855 0 1137.44144747 0 20506
0.14050000 0.14048300 11804.93139769 0 212.78551834 0 3401.91549983 0 54.85774776 0 2070.83136222 0 21447
0.14150000 0.14148400 11651.15929569 0 124.67567758 0 3580.38331149 0 -221.88032884 0 1694.39320989 0 21771
0.14250000 0.14249400 11732.31679396 0 98.60815891 0 4000.95225859 0 -242.69239367 0 2322.00370280 0 22470
0.14350000 0.14350900 11574.61046421 0 148.94536658 0 4077.43364616 0 -101.34492015 0 1828.11199098 0 22519
0.14450000 0.14449900 11559.66039874 0 145.69569445 0 3791.34784441 0 46.87306392 0 1936.86528681 0 22218
0.14550000 0.14550500 11497.83681972 0 86.54907640 0 3734.23409804 0 425.16187699 0 1255.54696470 0 23559
0.14650000 0.14650700 11330.35112382 0 187.10287955 0 3212.54425697 0 233.41548462 0 930.50781190 0 23044
0.14750000 0.14750500 11027.47178988 0 136.27602914 0 2898.62660400 0 399.71529186 0 314.78430714 0 23649
0.14850000 0.14849900 10846.65468222 0 103.71804633 0 2633.54957846 0 119.52521142 0 21.14377643 0 23640
0.14950000 0.14949500 10673.70603007 0 268.27499067 0 2496.04269807 0 85.39016531 0 -452.04389321 0 24457
0.15050000 0.15050000 10585.59056899 0 156.92622860 0 2394.59582522 0 15.65732722 0 -113.01462651 0 24591
0.15150000 0.15149900 10298.93149405 0 142.33923614 0 2212.46356143 0 -67.72256012 0 -416.75836650 0 25020
0.15250000 0.15250500 10362.41868938 0 54.42228495 0 2245.31998352 0 86.29245234 0 -191.27878129 0 25297
0.15350000 0.15350100 10273.78615836 0 50.29213266 0 2295.18351016 0 68.56100026 0 -327.59640084 0 25452
0.15450000 0.15450400 10382.89915501 0 58.06571707 0 2273.26424123 0 -112.91121253 0 -522.86673721 0 26061
0.15550000 0.15549900 10237.50133781 0 221.53636493 0 2469.57096560 0 -231.47422424 0 -299.72071109 0 26128
0.15650000 0.15649500 10103.89496322 0 301.05497633 0 2691.24783866 0 -266.10666915 0 -196.61921446 0 26331
0.15750000 0.15749700 9893.18896526 0 221.94664868 0 2791.58188709 0 -105.31275745 0 -233.95503586 0 27345
0.15850000 0.15849900 9673.46796543 0 63.65277011 0 2813.00656738 0 180.03138617 0 -128.37947200 0 26980
0.15950000 0.15949700 9811.85161657 0 11.79852423 0 2915.30772969 0 409.59245166 0 -179.66718909 0 27777
0.16050000 0.16050000 9715.18202029 0 84.41144185 0 2548.48033373 0 302.80064939 0 -63.34938495 0 28224
0.16150000 0.16150500 9658.58534386 0 155.36490221 0 2394.57334392 0 509.78936415 0 -198.22887564 0 28075
0.16250000 0.16249700 9422.52043786 0 89.66206221 0 2391.79690319 0 230.85936065 0 276.82687775 0 28590
0.16350000 0.16349900 9331.65101735 0 192.31179710 0 2261.03441324 0 162.41841054 0 311.42335257 0 29163
0.16450000 0.16449100 9307.84331910 0 170.31496768 0 2475.74208285 0 48.99676006 0 435.14582297 0 28996
0.16550000 0.16550500 8943.16288743 0 255.28754282 0 2464.29910041 0 -39.01270168 0 465.92497280 0 30777
0.16650000 0.16650700 8984.06761544 0 268.63356743 0 2814.77134955 0 -146.54998391 0 844.60226276 0 29211
0.16750000 0.16749900 8681.08711564 0 129.07189608 0 2949.22077294 0 -119.40830865 0 891.30491841 0 30922
0.16850000 0.16850800 8680.37895464 0 174.44927902 0 2907.27066441 0 -180.45291058 0 921.99976336 0 30867
0.16950000 0.16949900 8608.22521760 0 28.80203177 0 2906.73111318 0 -12.59537396 0 684.11499601 0 30852
0.17050000 0.17049200 8634.55082161 0 -14.12623818 0 2836.61193392 0 216.07228461 0 701.74820481 0 31257
0.17150000 0.17149500 8601.59323367 0 -64.62025292 0 2499.13387702 0 497.00986833 0 563.17346260 0 32608
0.17250000 0.17250900 8600.70522226 0 -34.70303619 0 1917.95851228 0 623.47168532 0 457.43828150 0 32361
0.17350000 0.17350400 8599.21021572 0 -24.46055524 0 1239.25926179 0 904.84877848 0 372.01720440 0 32508
0.17450000 0.17449800 8511.35328960 0 63.74775361 0 1037.19282799 0 671.44116231 0 725.08941605 0 32791
0.17550000 0.17549800 8405.85978249 0 110.99063494 0 658.73248259 0 674.38846093 0 704.42572781 0 33633
0.17650000 0.17650100 8293.11605566 0 133.47036271 0 764.73968744 0 203.29391286 0 1152.97602678 0 33984
0.17750000 0.17750300 8157.89102737 0 166.62578611 0 898.92383148 0 -164.79918037 0 1329.27439284 0 34069
