### header ###
fiducial parameters:
Omega_m = 0.31
Omega_nu = 0
Omega_de = 0.69
Omega_k = 0
H_0 = 100
w_de = -1
zeff = 0
beta = 0
fgrowth = 0
b_1 = 2
gamma = 0.55
Lx = 3500 Ly = 3500 Lz = 3500
nx = 700 ny = 700 nz = 700
xoffset = 857.220397 yoffset = 15.9954215 zoffset = 262.898189
bins = 400 dk = 0.001
kx_ny = 0.628318531 ky_ny = 0.628318531 kz_ny = 0.628318531
############################
A(data) = 3.09910189 (not used)
A(ran) = 3.10142816 (used)
Ngal = 188705
weighted Ngal = 0
Nran = 9360983
weighted Nran = 0
SN(data) = 3433.74053
SN(ran) = 69.6464207
SN(data+ran) = 3503.38695
############################
13 columns: k_central k_mean P_0(k) sigma^{lin}_{P_0(k)} P^img_1(k) sigma^{lin}_{P_1(k)} P_2(k) sigma^{lin}_{P_2(k)} P^img_3(k) sigma^{lin}_{P_3(k)} P_4(k) sigma^{lin}_{P_4(k)} N_modes
### header ###
0.00050000 0 0 0 0 0 0 0 0 0 0 0 0
0.00150000 0.00179520 2381.10704435 0 -7347.74360723 0 -7320.46254791 0 1903.44683218 0 8406.74779390 0 3
0.00250000 0.00253879 8259.59643518 0 -10237.35520935 0 -5960.00658994 0 2636.62951676 0 7895.66912711 0 6
0.00350000 0.00331552 15895.06697917 0 -14044.51864933 0 -13419.76328170 0 -3479.68956224 0 -14989.74496930 0 7
0.00450000 0.00420575 25071.14739040 0 -12676.98108140 0 -17243.04581483 0 -1267.14731625 0 -1042.50853172 0 24
0.00550000 0.00557378 39077.56023375 0 -12525.23229653 0 -31120.41598779 0 -3852.04735835 0 2462.37694913 0 45
0.00650000 0.00659388 39494.81318889 0 -1104.05559073 0 -6224.21808537 0 -23725.07946537 0 -4326.40281920 0 40
0.00750000 0.00754703 46205.14445577 0 -2130.09207287 0 -22365.52275945 0 -12366.28949519 0 694.00227239 0 57
0.00850000 0.00846663 42617.12874244 0 506.99269025 0 -2437.08548499 0 -17020.48093036 0 1886.41724633 0 75
0.00950000 0.00948925 43498.62057276 0 1298.25019683 0 -2626.38928395 0 -15571.22383161 0 11310.56757854 0 112
0.01050000 0.01054430 45240.24699702 0 -7899.98553699 0 23851.19956657 0 -5490.21483328 0 8260.68677830 0 105
0.01150000 0.01145670 54752.31045860 0 -5519.30563738 0 35817.99633478 0 -23305.35356707 0 -1676.49809392 0 144
0.01250000 0.01249090 69984.29145115 0 -7274.73558073 0 49206.62301396 0 -6693.27919972 0 20298.81671605 0 169
0.01350000 0.01339930 78463.33911055 0 -5281.75696548 0 78297.53951227 0 -21802.02893831 0 34033.65543774 0 180
0.01450000 0.01448870 100836.28069949 0 -6869.27406822 0 74382.08364314 0 5217.23563028 0 19063.69401373 0 267
0.01550000 0.01550050 122793.99265042 0 -11170.22805416 0 87477.55415126 0 22500.52297473 0 -6371.09966847 0 238
0.01650000 0.01653350 127627.47246475 0 -6741.64771982 0 71327.66162001 0 33306.83496148 0 12094.60296702 0 315
0.01750000 0.01747870 136643.59841607 0 2962.83320098 0 89295.84181350 0 34427.75265237 0 -3098.08071057 0 297
0.01850000 0.01844180 121319.21927451 0 1273.47580262 0 61261.77129692 0 25897.11040612 0 13209.00108049 0 388
0.01950000 0.01947590 125020.76556023 0 13598.60203483 0 19956.20168177 0 30227.57110023 0 -22961.38965470 0 399
0.02050000 0.02045430 100306.95845657 0 12099.66125985 0 21391.74518663 0 16970.90966064 0 -4118.32713352 0 462
0.02150000 0.02154770 90086.84640544 0 9508.33156554 0 8244.51148190 0 12755.89044953 0 -6104.29158272 0 571
0.02250000 0.02255340 79348.31554260 0 6047.27900221 0 14027.43286022 0 -5538.30233711 0 -8707.27783184 0 510
0.02350000 0.02348930 74521.80493173 0 8580.76430787 0 1204.68302014 0 -7641.21451652 0 -13992.81165597 0 555
0.02450000 0.02439640 67240.44860772 0 8484.52185631 0 15516.93148858 0 -14513.47859783 0 -12166.65553821 0 592
0.02550000 0.02547300 60537.53617032 0 4831.82743867 0 20337.93418060 0 -5079.06555150 0 -6164.17052916 0 837
0.02650000 0.02652900 60519.77594216 0 1067.24470772 0 29141.49942660 0 -302.59831768 0 -15133.28807913 0 723
0.02750000 0.02749970 59962.91410495 0 42.07206959 0 23845.01720867 0 3472.33817666 0 -14803.59979319 0 826
0.02850000 0.02848090 59203.27092855 0 -769.61026140 0 25680.50306653 0 5801.83939350 0 -18705.00484891 0 831
0.02950000 0.02946900 58177.78636236 0 -1401.22579817 0 14392.64160247 0 3876.51825499 0 -15733.87604769 0 996
0.03050000 0.03053250 60816.19190194 0 -496.67040068 0 13973.81495623 0 6839.74487875 0 -12132.03433396 0 1041
0.03150000 0.03150510 60488.97655916 0 629.98789054 0 7321.85638860 0 6961.33499770 0 -17248.10410766 0 1036
0.03250000 0.03246190 55110.99962343 0 4020.38734370 0 11884.17798534 0 1203.19925425 0 -6524.07368427 0 1059
0.03350000 0.03345080 53549.22361086 0 5677.43911186 0 4071.16136305 0 994.64471684 0 -13388.06464664 0 1302
0.03450000 0.03451200 47626.86196022 0 4603.96820770 0 14494.14467857 0 -6457.73136365 0 -2931.20200982 0 1339
0.03550000 0.03553350 46263.59583957 0 2636.76440457 0 10170.16983993 0 -5758.99003291 0 -5384.96862049 0 1365
0.03650000 0.03647120 45114.46411534 0 -109.67952544 0 23373.02228447 0 -9516.72833163 0 -4148.18230186 0 1308
0.03750000 0.03744890 47429.70094640 0 -1456.79957539 0 19412.60381242 0 -5317.55843806 0 -7154.86528134 0 1579
0.03850000 0.03847530 48460.35621193 0 -587.70505875 0 22511.31399943 0 -3677.37888664 0 -10864.29126322 0 1662
0.03950000 0.03950240 49218.20088421 0 204.35952655 0 19304.35634588 0 1232.02028272 0 -12112.13838216 0 1683
0.04050000 0.04050350 47962.05816502 0 2013.79630041 0 20400.20738565 0 4081.61516823 0 -14569.68185148 0 1822
0.04150000 0.04152450 46492.23067544 0 2249.62515275 0 15467.92225139 0 5211.42421385 0 -15345.96119096 0 1887
0.04250000 0.04250150 44031.98944995 0 2320.75599057 0 15863.03112459 0 4898.90040158 0 -14921.17699984 0 1920
0.04350000 0.04349210 40853.24582973 0 2674.78028534 0 10929.38587160 0 927.60547588 0 -10986.87055944 0 2005
0.04450000 0.04448520 39023.15548422 0 1122.60828476 0 10456.53665795 0 1405.80074302 0 -10067.13803533 0 2151
0.04550000 0.04548030 37051.43293949 0 1043.75849208 0 9599.56068687 0 1391.80613286 0 -10237.26528414 0 2274
0.04650000 0.04648670 36609.00092672 0 638.84552332 0 7035.12986975 0 2468.89652655 0 -8288.50738886 0 2311
0.04750000 0.04749250 37193.62717124 0 -718.27533358 0 8635.28146391 0 3045.92409118 0 -4994.37848889 0 2568
0.04850000 0.04851840 37331.32514269 0 -854.72559280 0 7400.85568194 0 2143.65953830 0 -2378.49921338 0 2493
0.04950000 0.04949480 40340.44734338 0 -1125.15541622 0 8528.59644782 0 1904.49221270 0 -1651.71245906 0 2644
0.05050000 0.05050630 40126.42535346 0 -77.41852063 0 12072.57129159 0 -2637.76482249 0 3058.55858260 0 2829
0.05150000 0.05149060 41546.34435380 0 585.63902715 0 13518.11897560 0 -1284.52536228 0 5492.22690977 0 2784
0.05250000 0.05249300 41677.07312180 0 613.20222681 0 21224.93392978 0 -1392.25575889 0 11945.66434484 0 3055
0.05350000 0.05348950 41040.40266440 0 201.43246110 0 19419.12338985 0 -423.90404817 0 7895.50051735 0 3009
0.05450000 0.05448610 42372.53218253 0 400.60442734 0 23644.59640613 0 2713.04346043 0 13568.92671690 0 3336
0.05550000 0.05550870 41875.02098118 0 808.36577699 0 23238.69650824 0 2420.32567475 0 10630.12602719 0 3349
0.05650000 0.05647670 39912.40336354 0 1741.58146166 0 20797.56438899 0 1227.55774438 0 9243.54679692 0 3324
0.05750000 0.05747970 38698.30067809 0 1980.35536448 0 20669.19615764 0 1218.90244332 0 7604.17657236 0 3639
0.05850000 0.05849280 37808.94039225 0 1112.07467096 0 19071.67487575 0 303.27612892 0 7542.63400961 0 3846
0.05950000 0.05951020 35189.98117844 0 1444.69339455 0 20455.62379375 0 461.55797999 0 7768.36875759 0 3787
0.06050000 0.06049470 35098.25746848 0 1158.69751800 0 19795.68518933 0 1814.44335970 0 5947.76552129 0 3930
0.06150000 0.06148310 33513.43812191 0 88.42199363 0 17370.73960714 0 2431.45391897 0 5361.12720029 0 4083
0.06250000 0.06249100 33656.75641873 0 1336.05250523 0 18562.58580414 0 811.92456702 0 4874.41826429 0 4303
0.06350000 0.06350600 32436.02174935 0 233.03779876 0 17456.50577221 0 2360.58161611 0 7044.24603749 0 4470
0.06450000 0.06451750 31982.34908585 0 341.93947117 0 16319.62635728 0 987.55636249 0 5830.75034718 0 4479
0.06550000 0.06550280 31970.09677655 0 150.21443604 0 14384.43592743 0 2439.20996797 0 7798.16772267 0 4636
0.06650000 0.06648880 31159.30863932 0 -231.03021854 0 10767.48677912 0 3473.92310841 0 4988.12868708 0 4653
0.06750000 0.06749660 31478.31830707 0 185.04921266 0 9439.13411964 0 1924.42188645 0 2210.23791258 0 5220
0.06850000 0.06852730 31567.90629339 0 374.08885633 0 7226.63683626 0 796.77666609 0 185.61686552 0 5029
0.06950000 0.06949320 29718.81924815 0 983.04773748 0 7280.86173538 0 325.58769655 0 261.78688707 0 5040
0.07050000 0.07048030 28832.38153150 0 988.19595552 0 6050.03296164 0 153.50345045 0 413.36256592 0 5475
0.07150000 0.07148790 28546.98140944 0 1000.67082970 0 5926.07106538 0 384.78770769 0 -773.68274916 0 5509
0.07250000 0.07249820 27194.84353301 0 628.80200189 0 6297.88931026 0 1128.44892688 0 -455.66001055 0 5916
0.07350000 0.07351270 27257.00433155 0 487.33279212 0 7398.09048186 0 -179.84816357 0 758.48651344 0 5721
0.07450000 0.07449140 26580.20475104 0 513.17055189 0 7902.42475820 0 234.69354661 0 951.73465674 0 6028
0.07550000 0.07549160 26283.00194571 0 518.62901188 0 10058.96608224 0 -783.33059969 0 5451.68188258 0 6183
0.07650000 0.07648840 26369.33014332 0 569.74587108 0 10748.51256069 0 -379.62937307 0 5627.28332830 0 6330
0.07750000 0.07749960 26173.74282061 0 864.70729065 0 13041.96501063 0 -643.72508980 0 7370.38227780 0 6583
0.07850000 0.07848650 25600.58203983 0 995.97111363 0 12459.69930277 0 -285.32143750 0 6835.20365585 0 6549
0.07950000 0.07947320 25028.99495016 0 721.54748701 0 14637.57538190 0 832.13862922 0 8621.02831878 0 6828
0.08050000 0.08048110 24484.61023526 0 274.37866402 0 14008.66097350 0 967.62444062 0 6666.65009814 0 7147
0.08150000 0.08149960 24545.98418825 0 -36.85629524 0 12215.55236889 0 1486.23883965 0 3868.32382061 0 7386
0.08250000 0.08250610 24305.32185610 0 -418.94017681 0 10743.88141259 0 1059.01317919 0 1983.59267190 0 7227
0.08350000 0.08350160 24247.43250484 0 -123.35040486 0 9223.38106951 0 196.14373493 0 31.90377694 0 7798
0.08450000 0.08449610 24091.97430523 0 -376.55280697 0 6727.81047877 0 607.99780552 0 -1199.72589317 0 7371
0.08550000 0.08548940 24235.96704109 0 199.76434853 0 6383.04848020 0 344.47311385 0 -4620.67181469 0 8256
0.08650000 0.08650700 23373.13469098 0 781.82322842 0 5165.94454100 0 -886.98288821 0 -4970.58203129 0 8037
0.08750000 0.08749060 22785.58587727 0 1055.52183307 0 5691.44496267 0 -702.51032093 0 -6142.46483260 0 8155
0.08850000 0.08849210 21680.51750391 0 1155.49393254 0 6394.97481062 0 -751.54428755 0 -4132.18685587 0 8718
0.08950000 0.08949900 20741.81076136 0 802.54536805 0 6631.03971662 0 156.28663557 0 -4482.42305135 0 8571
0.09050000 0.09049190 20460.23246055 0 370.76499591 0 7555.06616931 0 350.90389013 0 -2791.15474236 0 8932
0.09150000 0.09150830 20505.30746998 0 192.95813451 0 7859.48547241 0 866.51591136 0 -3390.88842146 0 9285
0.09250000 0.09250820 19877.51712666 0 468.69242101 0 8095.59534101 0 132.59584009 0 -1657.81613241 0 9204
0.09350000 0.09350330 20094.23687275 0 485.02396246 0 8200.47061234 0 685.35483978 0 -1379.55382356 0 9349
0.09450000 0.09448040 19157.66585384 0 642.30764374 0 8429.98221896 0 50.52222878 0 -517.65669559 0 9564
0.09550000 0.09549270 19067.85305450 0 608.19114471 0 8420.15789022 0 -407.41401355 0 -609.59622605 0 10155
0.09650000 0.09649430 18477.83129763 0 255.57642754 0 8241.11680538 0 490.15419545 0 -24.40851103 0 9913
0.09750000 0.09749140 18274.03829988 0 505.91246371 0 8778.75712984 0 360.79341464 0 82.94464934 0 10476
0.09850000 0.09850240 17997.18107238 0 260.46498654 0 7378.48678698 0 288.74758785 0 -1623.82440460 0 10575
0.09950000 0.09950330 17425.93120223 0 442.57476904 0 8302.07485429 0 134.73493592 0 -93.28042768 0 10882
0.10050000 0.10051200 17216.18065959 0 480.09606118 0 7704.55558339 0 199.65981048 0 -1493.20804310 0 10875
0.10150000 0.10150300 16768.57794748 0 196.31459282 0 7285.56032739 0 489.83608503 0 -828.37188716 0 11118
0.10250000 0.10250800 16685.28472556 0 361.00698701 0 7465.00607566 0 449.17752728 0 -771.74598504 0 11575
0.10350000 0.10349800 16349.18926870 0 196.53603364 0 7125.79695855 0 207.74183835 0 -622.84558107 0 11364
0.10450000 0.10450100 15979.93389219 0 325.58994468 0 7384.18579690 0 240.74551297 0 321.47811465 0 12093
0.10550000 0.10551000 16145.17145794 0 134.54609299 0 7202.01981115 0 1011.75298726 0 1049.32486232 0 12067
0.10650000 0.10649700 16026.58259273 0 15.39778059 0 7101.40474646 0 454.41904271 0 1284.40171513 0 12054
0.10750000 0.10749900 16161.24558848 0 85.36251331 0 7151.40316091 0 964.08700783 0 1610.48175218 0 12807
0.10850000 0.10850100 15938.00626497 0 244.42232982 0 6967.49487430 0 844.18186242 0 1959.70628909 0 12736
0.10950000 0.10950300 15578.30544157 0 203.48163173 0 6075.31318513 0 676.94346084 0 1944.02558132 0 12933
0.11050000 0.11050200 15439.93303107 0 219.95705350 0 6040.62453698 0 1060.20356410 0 2600.00747668 0 13428
0.11150000 0.11150900 15279.75375816 0 182.83480446 0 5128.20967649 0 748.87013674 0 1900.22076542 0 13453
0.11250000 0.11250000 14773.58725574 0 211.26241016 0 4873.18179271 0 405.48174569 0 1643.16956451 0 13668
0.11350000 0.11349100 14476.60926343 0 362.11194297 0 4420.09364304 0 451.58752279 0 2046.57403794 0 13791
0.11450000 0.11448600 14212.67878427 0 310.59828880 0 4120.81131733 0 20.64075731 0 1287.06574935 0 14205
0.11550000 0.11549300 14063.06572304 0 149.28820642 0 3916.62489680 0 215.48327451 0 1764.65851761 0 14776
0.11650000 0.11649800 14032.04152702 0 -94.57894766 0 3985.09170040 0 163.35812894 0 1148.42356323 0 14553
0.11750000 0.11747300 14031.36708797 0 -136.17261515 0 3885.04990890 0 -60.55057533 0 971.79134984 0 14568
0.11850000 0.11849100 14413.88643235 0 -172.80926808 0 4169.08991222 0 -297.83452990 0 787.51774208 0 16015
0.11950000 0.11950300 14603.62861669 0 15.38552828 0 4442.67611036 0 -699.54166507 0 0.90003216 0 15270
0.12050000 0.12050700 14672.87102519 0 -37.73924836 0 5191.76431573 0 -604.27490200 0 414.03475683 0 15999
0.12150000 0.12150000 14594.29887658 0 115.54939325 0 5222.99084346 0 -689.81625406 0 -758.54608889 0 15670
0.12250000 0.12250700 14733.57053914 0 178.09911831 0 5758.49544428 0 27.95538596 0 -180.77888945 0 16887
0.12350000 0.12352200 14547.65017605 0 218.76891672 0 5813.50718896 0 -204.49778655 0 -1020.06769660 0 16407
0.12450000 0.12449800 14398.26192783 0 343.66603512 0 5644.25671090 0 481.35726219 0 -863.31232590 0 16306
0.12550000 0.12549900 14123.76523698 0 173.30610484 0 5529.06252221 0 293.09547155 0 -769.13140968 0 17523
0.12650000 0.12650100 13953.91900444 0 219.65692813 0 5273.04546116 0 598.05207775 0 -14.41276237 0 17154
0.12750000 0.12750600 13596.57871770 0 201.06713995 0 4648.99825453 0 979.71488454 0 -252.11767931 0 18007
0.12850000 0.12850300 13513.62271530 0 104.84121215 0 4498.55338515 0 899.32624677 0 222.23890560 0 17496
0.12950000 0.12949900 13340.29188103 0 80.91818482 0 3802.09390650 0 648.76652165 0 -260.93934200 0 18405
0.13050000 0.13049000 13021.84424582 0 167.29348076 0 3569.34499247 0 137.23710477 0 46.43389170 0 18100
0.13150000 0.13148800 13167.18585978 0 51.84851316 0 3572.61602183 0 205.19358283 0 -61.06843210 0 19059
0.13250000 0.13249300 12830.86558990 0 185.65620780 0 3037.39243727 0 -311.33342736 0 -942.65333502 0 18957
0.13350000 0.13349100 12902.46853506 0 272.87241682 0 3396.25021186 0 -414.10220073 0 -1074.09813247 0 19468
0.13450000 0.13450700 12466.55609971 0 291.77919135 0 3009.27956980 0 -423.18577059 0 -1328.80228551 0 19953
0.13550000 0.13551000 12399.56182136 0 305.43883012 0 3217.91728801 0 -205.99504123 0 -1456.61972498 0 19956
0.13650000 0.13649900 12355.38606398 0 139.81908225 0 3411.48129360 0 -60.88150008 0 -1089.09990494 0 19723
0.13750000 0.13749600 12200.82711643 0 49.85161155 0 3625.22226725 0 124.44974050 0 -1499.12062539 0 20946
0.13850000 0.13851100 12277.48835442 0 83.17305936 0 3470.53967254 0 176.90086494 0 -927.94831573 0 20955
0.13950000 0.13949800 12126.07678907 0 149.15107048 0 4103.72552822 0 96.20805517 0 -1053.59293741 0 20506
0.14050000 0.14048300 11994.33636250 0 264.23397673 0 3844.90954514 0 237.19683953 0 -178.17105848 0 21447
0.14150000 0.14148400 11758.28269715 0 285.06177847 0 3742.37232917 0 441.10786412 0 -161.79792662 0 21771
0.14250000 0.14249400 11464.56449355 0 250.59681927 0 3861.55694887 0 560.83877944 0 433.62046666 0 22470
0.14350000 0.14350900 11305.28447269 0 143.51500821 0 3553.87785706 0 629.06166092 0 808.51752578 0 22519
0.14450000 0.14449900 11091.88071857 0 128.69870648 0 3322.94992844 0 580.31320683 0 956.52879428 0 22218
0.14550000 0.14550500 11190.71976044 0 45.74247927 0 2959.80946593 0 485.24877547 0 948.88402772 0 23559
0.14650000 0.14650700 10966.59242552 0 88.41176463 0 3007.40238112 0 132.70712253 0 891.23972264 0 23044
0.14750000 0.14750500 11101.24418063 0 65.68620383 0 2797.12352790 0 -25.90576571 0 1025.66554067 0 23649
0.14850000 0.14849900 10994.52544259 0 39.40668649 0 2954.04301210 0 59.21383714 0 801.84507550 0 23640
0.14950000 0.14949500 10972.28019479 0 81.73088387 0 2958.28073743 0 11.48693339 0 963.66885562 0 24457
0.15050000 0.15050000 10840.41612106 0 139.67295379 0 2930.04422279 0 15.15812992 0 381.31209849 0 24591
0.15150000 0.15149900 10733.49505131 0 241.55259169 0 3131.25187088 0 -32.08508863 0 431.35772367 0 25020
0.15250000 0.15250500 10479.15284722 0 307.09795017 0 3142.25646794 0 -235.09258971 0 52.37603689 0 25297
0.15350000 0.15350100 10220.11205112 0 292.44801007 0 2986.87695289 0 -288.39800361 0 -98.14425726 0 25452
0.15450000 0.15450400 9966.11830721 0 310.40270148 0 3134.23064332 0 -186.85108897 0 -152.56822831 0 26061
0.15550000 0.15549900 9690.68864235 0 166.54822562 0 2984.29160322 0 -17.44537753 0 -468.87901581 0 26128
0.15650000 0.15649500 9695.73569452 0 133.07806400 0 3185.61165781 0 132.69925407 0 -83.34234356 0 26331
0.15750000 0.15749700 9618.80468092 0 132.28672219 0 3112.77224108 0 246.88178420 0 -281.52771788 0 27345
0.15850000 0.15849900 9484.44518273 0 36.41937115 0 3104.02701481 0 155.91119783 0 496.42423043 0 26980
0.15950000 0.15949700 9604.39416668 0 111.86414591 0 3143.88636230 0 335.00623780 0 362.44241811 0 27777
0.16050000 0.16050000 9537.10763141 0 24.59420658 0 3055.79338252 0 170.17670768 0 947.80492525 0 28224
0.16150000 0.16150500 9481.81487046 0 70.07342981 0 3152.01335278 0 240.76237394 0 933.04257864 0 28075
0.16250000 0.16249700 9442.70864657 0 123.67863186 0 3169.40263946 0 171.09506884 0 1049.94197405 0 28590
0.16350000 0.16349900 9188.14162946 0 180.52260261 0 2884.75564100 0 151.89940959 0 1078.92824009 0 29163
0.16450000 0.16449100 9045.71134405 0 240.91637086 0 2867.20898521 0 119.32175564 0 763.95509002 0 28996
0.16550000 0.16550500 8883.76728897 0 167.90047590 0 2989.94565054 0 128.93588421 0 809.50557898 0 30777
0.16650000 0.16650700 8753.40946244 0 63.43616277 0 2608.62905579 0 160.73793326 0 479.39239644 0 29211
0.16750000 0.16749900 8860.66775172 0 -65.91832327 0 2505.30499427 0 229.36547817 0 733.28047824 0 30922
0.16850000 0.16850800 8862.97208512 0 -39.84237411 0 2470.72875262 0 274.26400938 0 640.48103800 0 30867
0.16950000 0.16949900 8923.94137468 0 -48.12437316 0 2255.84123260 0 160.38610089 0 570.97110201 0 30852
0.17050000 0.17049200 8956.75283417 0 143.15530738 0 2315.31551562 0 78.85934724 0 404.52966257 0 31257
0.17150000 0.17149500 8814.65976828 0 149.63217034 0 2139.29816582 0 -17.77989929 0 469.06336248 0 32608
0.17250000 0.17250900 8576.58278579 0 153.34046101 0 1898.55714912 0 218.19114727 0 408.26942707 0 32361
0.17350000 0.17350400 8588.49787557 0 50.74535569 0 1973.68965860 0 177.69333082 0 295.08731486 0 32508
0.17450000 0.17449800 8512.48859533 0 18.00201455 0 1483.01277289 0 160.64575992 0 198.05014929 0 32791
0.17550000 0.17549800 8423.53008544 0 49.28081131 0 1686.61467958 0 69.98631477 0 -136.12090816 0 33633
0.17650000 0.17650100 8403.36435803 0 147.56726280 0 1550.67024964 0 -199.46534722 0 151.89266520 0 33984
0.17750000 0.17750300 8320.59944670 0 173.56576387 0 1758.86958248 0 -153.56639809 0 2.05758988 0 34069
