### header ###
fiducial parameters:
Omega_m = 0.31
Omega_nu = 0
Omega_de = 0.69
Omega_k = 0
H_0 = 100
w_de = -1
zeff = 0
beta = 0
fgrowth = 0
b_1 = 2
gamma = 0.55
Lx = 3500 Ly = 3500 Lz = 3500
nx = 700 ny = 700 nz = 700
xoffset = 857.220397 yoffset = 15.9954215 zoffset = 262.898189
bins = 400 dk = 0.001
kx_ny = 0.628318531 ky_ny = 0.628318531 kz_ny = 0.628318531
############################
A(data) = 3.08275176 (not used)
A(ran) = 3.08780865 (used)
Ngal = 188752
weighted Ngal = 0
Nran = 9360983
weighted Nran = 0
SN(data) = 3432.61658
SN(ran) = 69.3405778
SN(data+ran) = 3501.95716
############################
13 columns: k_central k_mean P_0(k) sigma^{lin}_{P_0(k)} P^img_1(k) sigma^{lin}_{P_1(k)} P_2(k) sigma^{lin}_{P_2(k)} P^img_3(k) sigma^{lin}_{P_3(k)} P_4(k) sigma^{lin}_{P_4(k)} N_modes
### header ###
0.00050000 0 0 0 0 0 0 0 0 0 0 0 0
0.00150000 0.00179520 11008.99216008 0 -15118.33801366 0 2022.58648928 0 4153.29679794 0 44932.47798001 0 3
0.00250000 0.00253879 23764.64655594 0 -20639.74565272 0 -2180.91105483 0 132.91170237 0 -9034.97652260 0 6
0.00350000 0.00331552 35432.66682772 0 -19796.69684790 0 710.64180767 0 -11523.57790989 0 4594.35745133 0 7
0.00450000 0.00420575 54483.88371914 0 -18481.65311888 0 -520.15661632 0 -16004.88813681 0 2471.41443232 0 24
0.00550000 0.00557378 69123.25760516 0 -7461.84745280 0 1941.79993248 0 -18251.21977890 0 15335.73219880 0 45
0.00650000 0.00659388 84244.85540753 0 4178.57702144 0 6948.08227049 0 2664.60749643 0 -7875.64952816 0 40
0.00750000 0.00754703 66104.35603833 0 9311.73258425 0 7790.33298911 0 4621.70595455 0 1313.00917124 0 57
0.00850000 0.00846663 67563.84212925 0 12120.56887021 0 17065.78075281 0 1312.10991918 0 7804.85590986 0 75
0.00950000 0.00948925 57116.55652685 0 2515.99485312 0 12661.01935736 0 9657.85470156 0 6750.33674283 0 112
0.01050000 0.01054430 47951.04232731 0 3930.97920779 0 4975.16821679 0 16165.96666179 0 -8601.77308408 0 105
0.01150000 0.01145670 53672.87076890 0 -5797.66911208 0 -10528.33069417 0 14672.42139916 0 12949.34204861 0 144
0.01250000 0.01249090 55644.36850061 0 -7142.82654441 0 -12982.16474874 0 7696.17005794 0 -2117.13160258 0 169
0.01350000 0.01339930 66886.14329668 0 -8245.36577135 0 -33202.63412920 0 5525.42055137 0 -1006.64298743 0 180
0.01450000 0.01448870 70779.90470989 0 -9010.46066336 0 -32561.69222452 0 -1795.89628599 0 -8842.32300973 0 267
0.01550000 0.01550050 70750.22939196 0 -2167.82693738 0 -41813.08499565 0 -10975.76479652 0 -13725.17176206 0 238
0.01650000 0.01653350 72019.52367250 0 832.34096094 0 -28150.86087768 0 -6224.34173253 0 -6153.04228494 0 315
0.01750000 0.01747870 70075.67794159 0 2367.20235939 0 -32496.60885679 0 -8090.96419291 0 -962.59312535 0 297
0.01850000 0.01844180 71407.91986623 0 2279.48032109 0 -26990.93812875 0 -944.26187214 0 12248.93710156 0 388
0.01950000 0.01947590 64927.34750029 0 -565.62504852 0 -14260.33914336 0 -9063.52777546 0 16132.91914864 0 399
0.02050000 0.02045430 69287.48351234 0 285.57547621 0 -14282.03359928 0 -12820.18697171 0 17901.52313465 0 462
0.02150000 0.02154770 70270.70323178 0 -2.73841361 0 2703.88233009 0 -19168.68169156 0 14998.96230290 0 571
0.02250000 0.02255340 74645.22727676 0 3192.95180274 0 2928.81899186 0 -14598.12069783 0 13207.76460891 0 510
0.02350000 0.02348930 72219.15762949 0 609.15896474 0 19625.38933076 0 -10078.78334948 0 10343.60184006 0 555
0.02450000 0.02439640 70697.62314654 0 2743.83160278 0 16835.45981933 0 3312.20386635 0 -6125.03058332 0 592
0.02550000 0.02547300 71990.97241965 0 2106.85764781 0 23572.09420892 0 -138.98615003 0 -8847.80844728 0 837
0.02650000 0.02652900 66679.65254275 0 1630.24281617 0 19302.10821574 0 4606.68844518 0 -17920.07020836 0 723
0.02750000 0.02749970 65202.29381717 0 3288.64346241 0 18184.22550054 0 7120.77238767 0 -11307.30778983 0 826
0.02850000 0.02848090 61819.64479270 0 928.36197168 0 13944.81407735 0 7406.63337641 0 -14873.17942122 0 831
0.02950000 0.02946900 58983.62861327 0 1055.73090918 0 9522.66339522 0 9783.23291981 0 -10781.29029822 0 996
0.03050000 0.03053250 58926.30129454 0 567.71131330 0 9791.85449892 0 2920.99549896 0 -4804.55762000 0 1041
0.03150000 0.03150510 56812.72173759 0 2223.16466092 0 6295.40512645 0 1027.34376982 0 -7334.98546865 0 1036
0.03250000 0.03246190 57322.82246776 0 2281.08773414 0 9504.62215080 0 -361.51731255 0 2836.02742008 0 1059
0.03350000 0.03345080 54649.90813044 0 2260.92200673 0 6600.60003444 0 -797.86026482 0 -3291.95945438 0 1302
0.03450000 0.03451200 53485.26430820 0 1295.76601302 0 7567.49832902 0 -242.56087806 0 -1144.68042654 0 1339
0.03550000 0.03553350 51297.27164341 0 1263.75263973 0 6956.32166748 0 -3463.87396666 0 -13241.48656111 0 1365
0.03650000 0.03647120 52520.02962993 0 531.83790056 0 8129.72195663 0 -4168.04453170 0 -13300.38757094 0 1308
0.03750000 0.03744890 50989.72743941 0 1430.72126569 0 9461.77279021 0 -8404.20740683 0 -11609.90610750 0 1579
0.03850000 0.03847530 50147.69029316 0 1571.97128278 0 11792.90390140 0 -6305.13952998 0 -10660.45330286 0 1662
0.03950000 0.03950240 49202.46397319 0 1821.37884120 0 19643.93640447 0 -407.15323045 0 -6069.38936220 0 1683
0.04050000 0.04050350 47909.90154563 0 1956.06431825 0 16659.31882237 0 3693.95884647 0 -5822.66831930 0 1822
0.04150000 0.04152450 47622.81532596 0 865.01416042 0 21966.81687802 0 5761.56414193 0 720.48974177 0 1887
0.04250000 0.04250150 47887.75746369 0 690.56038514 0 22166.33842850 0 4440.94505015 0 -55.63796133 0 1920
0.04350000 0.04349210 46699.62068142 0 152.23100878 0 21154.90467573 0 1278.71394586 0 3597.26676888 0 2005
0.04450000 0.04448520 46055.64380105 0 2336.84136177 0 22401.49284179 0 530.55646637 0 137.98123585 0 2151
0.04550000 0.04548030 43430.72704235 0 3300.25505462 0 19554.57323115 0 -2756.81455438 0 -2599.09698397 0 2274
0.04650000 0.04648670 40210.05579490 0 3375.74726493 0 18161.85660558 0 955.55198173 0 -4759.68494228 0 2311
0.04750000 0.04749250 39276.85697121 0 504.32978009 0 17596.22706080 0 3194.39060603 0 -3643.27475233 0 2568
0.04850000 0.04851840 37466.10054496 0 -224.03403752 0 13128.18080174 0 5598.82200065 0 -5193.31552553 0 2493
0.04950000 0.04949480 38754.16671222 0 -368.80575048 0 13513.51030880 0 4100.47698016 0 -2809.82546323 0 2644
0.05050000 0.05050630 37306.14608506 0 -1.22399446 0 13567.01580628 0 3263.29579502 0 494.31323622 0 2829
0.05150000 0.05149060 38929.07123760 0 94.36065422 0 13124.47138700 0 2740.36948236 0 8706.67083670 0 2784
0.05250000 0.05249300 38355.23601778 0 204.30107517 0 16007.13626696 0 2074.21479809 0 11578.43228546 0 3055
0.05350000 0.05348950 39739.74696832 0 -168.67720487 0 17474.37840688 0 505.31670922 0 11025.35854754 0 3009
0.05450000 0.05448610 40096.75003553 0 575.57414849 0 19642.58752638 0 2031.29799360 0 16381.00031027 0 3336
0.05550000 0.05550870 37943.82820103 0 1838.13865144 0 17826.66040079 0 201.70785704 0 11522.00421879 0 3349
0.05650000 0.05647670 37696.42147844 0 1620.54213459 0 20291.28548006 0 -1834.02457327 0 13717.75293258 0 3324
0.05750000 0.05747970 35549.34478231 0 1311.13198256 0 18828.98922647 0 -195.25797165 0 6675.04686424 0 3639
0.05850000 0.05849280 34768.34436952 0 1168.43192153 0 18254.02994158 0 -306.36618380 0 3529.27207261 0 3846
0.05950000 0.05951020 33176.66822601 0 763.47399017 0 16851.19673035 0 -283.28800379 0 2069.06658005 0 3787
0.06050000 0.06049470 32816.63018310 0 1012.17226353 0 15804.91696031 0 210.28222542 0 -4151.90295725 0 3930
0.06150000 0.06148310 31642.54421425 0 841.22332315 0 14471.10134457 0 160.61653423 0 -3413.57205464 0 4083
0.06250000 0.06249100 31129.63332139 0 -355.04831805 0 12132.14674047 0 232.13292638 0 -7053.55329630 0 4303
0.06350000 0.06350600 31764.95490071 0 -892.21653519 0 11178.65854221 0 2572.92874907 0 -6057.80025130 0 4470
0.06450000 0.06451750 32230.87987351 0 -985.65669252 0 9257.40651927 0 987.13933435 0 -8658.87558980 0 4479
0.06550000 0.06550280 33857.40203428 0 -557.82403692 0 7860.55333423 0 -189.40833701 0 -7570.75811773 0 4636
0.06650000 0.06648880 32868.78680249 0 586.93732231 0 10355.98903716 0 -333.46739272 0 -8126.29355816 0 4653
0.06750000 0.06749660 33003.89942428 0 1066.92210104 0 8358.31182990 0 -839.34388634 0 -6358.62254616 0 5220
0.06850000 0.06852730 31333.65113216 0 559.77091762 0 9086.16644603 0 1486.40744941 0 -6212.38168015 0 5029
0.06950000 0.06949320 31271.60274012 0 703.23759103 0 7859.69904477 0 932.90881490 0 -5580.51098061 0 5040
0.07050000 0.07048030 30212.73344127 0 796.50351828 0 7418.85196376 0 3190.83856040 0 -5863.32575300 0 5475
0.07150000 0.07148790 29672.50776713 0 845.72745189 0 5710.39669980 0 1251.56777434 0 -4407.48163292 0 5509
0.07250000 0.07249820 28465.14947212 0 1259.96454044 0 5049.41271487 0 710.31133254 0 -3234.27243483 0 5916
0.07350000 0.07351270 27700.33559638 0 475.63801910 0 4877.66681235 0 627.86790382 0 -2092.68318724 0 5721
0.07450000 0.07449140 27335.68888667 0 261.63738641 0 5130.26671558 0 -683.06849143 0 -837.79380061 0 6028
0.07550000 0.07549160 27742.93766265 0 17.88983286 0 7597.01627784 0 476.53277489 0 813.01378607 0 6183
0.07650000 0.07648840 27324.67304895 0 284.05911243 0 8800.49654836 0 170.98491046 0 6.55151211 0 6330
0.07750000 0.07749960 27651.55117221 0 602.40895398 0 8828.50824998 0 720.17949981 0 3311.28213299 0 6583
0.07850000 0.07848650 26714.98015330 0 1108.37200061 0 9430.29896816 0 1206.06562018 0 3613.04864251 0 6549
0.07950000 0.07947320 25631.49382934 0 1397.86484360 0 8691.16997935 0 822.57733171 0 5296.06631386 0 6828
0.08050000 0.08048110 24681.99606210 0 1370.10043630 0 8771.20341255 0 779.67176787 0 4918.42541190 0 7147
0.08150000 0.08149960 23133.70883041 0 1245.73387661 0 7326.70110906 0 261.00228965 0 4580.66633874 0 7386
0.08250000 0.08250610 22408.46204525 0 815.67332403 0 9164.64866944 0 -525.17669093 0 4671.76057226 0 7227
0.08350000 0.08350160 22070.11845824 0 445.67606457 0 9012.00063251 0 -1017.62847539 0 4132.88377622 0 7798
0.08450000 0.08449610 21925.45128333 0 115.89560530 0 10143.57446030 0 -138.87261946 0 4876.95865135 0 7371
0.08550000 0.08548940 21975.35977258 0 -28.49561164 0 10207.81477922 0 -216.82990447 0 3479.79072809 0 8256
0.08650000 0.08650700 21960.18489409 0 -33.65877974 0 10530.43269585 0 1009.89153549 0 3458.88311773 0 8037
0.08750000 0.08749060 22384.06983316 0 -7.94900601 0 10298.93149405 0 1279.65816052 0 2132.28399976 0 8155
0.08850000 0.08849210 21901.05907125 0 -136.32099174 0 8822.06735711 0 779.89545682 0 2792.40245459 0 8718
0.08950000 0.08949900 22122.94951668 0 -39.90408528 0 8436.64792484 0 1070.15378813 0 1105.18415207 0 8571
0.09050000 0.09049190 22055.84283181 0 158.96640670 0 6995.91123935 0 1022.62382058 0 1743.72842595 0 8932
0.09150000 0.09150830 21387.36133284 0 586.40451546 0 6228.11859117 0 1061.52658869 0 -225.41551350 0 9285
0.09250000 0.09250820 21196.15786391 0 716.16883563 0 5707.72142493 0 1162.38445144 0 1291.92171047 0 9204
0.09350000 0.09350330 20075.46498603 0 751.66231438 0 5229.61158674 0 1172.37738994 0 1201.88409811 0 9349
0.09450000 0.09448040 19599.42342757 0 517.55890193 0 5508.69446309 0 437.83571069 0 782.19192177 0 9564
0.09550000 0.09549270 19266.13813340 0 243.92998932 0 4876.76756029 0 197.56118099 0 276.27496180 0 10155
0.09650000 0.09649430 18844.72613749 0 266.56978396 0 5115.79999809 0 -392.82027671 0 167.21592027 0 9913
0.09750000 0.09749140 18844.27651146 0 120.68861877 0 5103.44652293 0 -658.53914340 0 340.99413245 0 10476
0.09850000 0.09850240 18646.77827812 0 91.47866378 0 4878.22884489 0 -201.03004580 0 -2095.08868650 0 10575
0.09950000 0.09950330 18550.67071437 0 -1.44626709 0 5268.79649519 0 551.09538339 0 -586.73386653 0 10882
0.10050000 0.10051200 18200.18722458 0 375.43211409 0 3891.38963591 0 107.13666543 0 -2586.37256734 0 10875
0.10150000 0.10150300 18132.63091368 0 463.65323729 0 4964.89426202 0 214.27940082 0 -1101.81308091 0 11118
0.10250000 0.10250800 17522.71320502 0 674.83359070 0 4355.28005093 0 382.49236681 0 -85.00764597 0 11575
0.10350000 0.10349800 17227.53371682 0 665.46226019 0 5469.52079529 0 210.49242559 0 73.40965495 0 11364
0.10450000 0.10450100 16664.93914774 0 560.81517408 0 5114.41739805 0 187.40862525 0 978.77516614 0 12093
0.10550000 0.10551000 16208.23150854 0 528.24538858 0 5688.01656420 0 138.34318481 0 1456.93446320 0 12067
0.10650000 0.10649700 15727.46887677 0 435.30431614 0 5212.97542366 0 778.77026768 0 1879.30191441 0 12054
0.10750000 0.10749900 15362.82216706 0 355.05169025 0 4874.20469192 0 608.15292650 0 1497.29963997 0 12807
0.10850000 0.10850100 15090.23638683 0 150.66068988 0 4300.09969649 0 858.29899567 0 1651.20662978 0 12736
0.10950000 0.10950300 14924.54919506 0 58.15103361 0 3911.33055031 0 776.40523477 0 1417.99684906 0 12933
0.11050000 0.11050200 14900.38179599 0 -166.77865896 0 3485.05135264 0 -57.75772324 0 834.55424507 0 13428
0.11150000 0.11150900 15287.73462018 0 -301.77437798 0 3664.89052368 0 -89.66757013 0 771.76172195 0 13453
0.11250000 0.11250000 15596.51529576 0 -255.86194007 0 3915.24229676 0 -658.32444697 0 944.35179734 0 13668
0.11350000 0.11349100 15772.20666668 0 156.22481199 0 4208.94925971 0 -598.21843938 0 769.36746335 0 13791
0.11450000 0.11448600 15774.34239032 0 339.81386412 0 5080.87529626 0 -474.26778377 0 1107.98532223 0 14205
0.11550000 0.11549300 15438.92137251 0 491.01185710 0 5367.68049967 0 -133.24330157 0 1354.41972853 0 14776
0.11650000 0.11649800 14980.41522919 0 514.98704105 0 4968.13156943 0 368.54159519 0 1359.83772218 0 14553
0.11750000 0.11747300 14695.01510713 0 339.60029175 0 5772.17531622 0 425.65421749 0 2039.90833206 0 14568
0.11850000 0.11849100 14360.49334138 0 449.07523735 0 5833.89772938 0 184.21290824 0 2095.50459057 0 16015
0.11950000 0.11950300 14478.18295453 0 33.07392868 0 6122.54639951 0 -515.29278675 0 1614.31481408 0 15270
0.12050000 0.12050700 14199.63962942 0 120.91792804 0 6141.49813664 0 -11.60170043 0 2038.97535805 0 15999
0.12150000 0.12150000 14342.17108069 0 -101.05547339 0 6498.63609166 0 -234.10341245 0 1798.59404216 0 15670
0.12250000 0.12250700 14530.11476091 0 -292.32323885 0 6391.52393085 0 246.82670501 0 2117.68239447 0 16887
0.12350000 0.12352200 14700.86024551 0 -47.95655025 0 6489.09277919 0 1016.69325325 0 1340.36891512 0 16407
0.12450000 0.12449800 14687.48387114 0 100.91496525 0 5646.16762153 0 796.72608316 0 1745.93159349 0 16306
0.12550000 0.12549900 14427.15040021 0 350.02149905 0 5402.23426001 0 852.93046088 0 1643.91144746 0 17523
0.12650000 0.12650100 14101.95837456 0 357.45381731 0 4994.70446776 0 611.31492155 0 2429.67789615 0 17154
0.12750000 0.12750600 13630.63788941 0 363.97901506 0 4771.90352962 0 255.94512088 0 1467.56811879 0 18007
0.12850000 0.12850300 13373.56420720 0 162.35546290 0 3887.19687319 0 460.44852776 0 1502.11063848 0 17496
0.12950000 0.12949900 13251.82795978 0 70.09276373 0 4542.30199779 0 75.51334273 0 1252.74804267 0 18405
0.13050000 0.13049000 13302.63570108 0 -79.84301658 0 3541.42321605 0 204.19204085 0 975.73007386 0 18100
0.13150000 0.13148800 13191.01603933 0 24.44785331 0 4232.41973844 0 583.54826611 0 1643.51802468 0 19059
0.13250000 0.13249300 13380.30859764 0 -0.99958161 0 2913.85768574 0 696.91360093 0 1647.17123617 0 18957
0.13350000 0.13349100 13134.36315964 0 23.88469671 0 2816.86211058 0 952.87558279 0 1502.76259623 0 19468
0.13450000 0.13450700 13113.00592325 0 104.76556257 0 2610.34887535 0 859.85694986 0 1889.49718463 0 19953
0.13550000 0.13551000 12868.07214382 0 109.54295154 0 2291.37292956 0 185.88214488 0 1395.05468092 0 19956
0.13650000 0.13649900 12529.16652428 0 255.37297176 0 2066.22269542 0 -296.43956514 0 1281.98497522 0 19723
0.13750000 0.13749600 12625.94852708 0 183.77677100 0 2383.25400864 0 -845.72407970 0 1036.96014652 0 20946
0.13850000 0.13851100 12368.76243835 0 310.33300945 0 2667.64247213 0 -1108.65414095 0 788.40687756 0 20955
0.13950000 0.13949800 12315.25694087 0 301.50235423 0 3211.93726183 0 -901.55189562 0 499.78293687 0 20506
0.14050000 0.14048300 12147.65883847 0 158.73147710 0 3770.04681127 0 -271.36504556 0 733.88072899 0 21447
0.14150000 0.14148400 12146.53477340 0 222.55926415 0 3922.23398152 0 19.07864408 0 540.11214356 0 21771
0.14250000 0.14249400 12126.86363462 0 231.99017011 0 3930.68695087 0 174.15477397 0 555.17349147 0 22470
0.14350000 0.14350900 11836.63003275 0 375.63894206 0 4419.25059424 0 242.51254326 0 1013.35253185 0 22519
0.14450000 0.14449900 11401.61684946 0 422.61362147 0 4209.34268249 0 142.34373240 0 1127.75200654 0 22218
0.14550000 0.14550500 11195.71060937 0 298.73827822 0 4209.84851177 0 443.76178175 0 1568.75645667 0 23559
0.14650000 0.14650700 10899.22720569 0 55.30883508 0 3641.39756365 0 496.95141695 0 1128.98847812 0 23044
0.14750000 0.14750500 10854.96152311 0 -100.52817446 0 3218.62544901 0 719.62308760 0 1270.29469846 0 23649
0.14850000 0.14849900 10914.09858661 0 -110.99187142 0 2814.50157393 0 648.56531401 0 265.01857415 0 23640
0.14950000 0.14949500 11019.25487419 0 77.98212685 0 2569.19685303 0 -20.74585740 0 313.13642774 0 24457
0.15050000 0.15050000 10766.38519535 0 216.55226040 0 2303.87253317 0 -66.40852805 0 451.04909562 0 24591
0.15150000 0.15149900 10504.96138130 0 281.13654324 0 2397.90057654 0 37.60098835 0 358.04170334 0 25020
0.15250000 0.15250500 10428.69356609 0 211.16461650 0 2433.92686213 0 145.11792500 0 380.15655959 0 25297
0.15350000 0.15350100 10052.49146742 0 205.79046139 0 2294.93621584 0 277.94195030 0 446.82148688 0 25452
0.15450000 0.15450400 10040.89111587 0 138.54102026 0 2151.29194015 0 260.36269662 0 421.73797478 0 26061
0.15550000 0.15549900 9828.52150161 0 144.40301962 0 2296.73471996 0 -136.94259973 0 346.79093603 0 26128
0.15650000 0.15649500 9707.15619567 0 114.69622786 0 2269.89204601 0 -193.67191583 0 296.08998091 0 26331
0.15750000 0.15749700 9730.18828901 0 82.22198790 0 2536.08189597 0 -472.70196113 0 211.82107050 0 27345
0.15850000 0.15849900 9796.75542264 0 73.56646203 0 2709.23287983 0 -198.72121614 0 192.94914199 0 26980
0.15950000 0.15949700 9761.47102000 0 125.61989224 0 3089.39168756 0 -55.51408936 0 339.49125744 0 27777
0.16050000 0.16050000 9739.09088439 0 205.59599813 0 2917.10623380 0 218.80151461 0 429.68174265 0 28224
0.16150000 0.16150500 9506.57802402 0 246.93573932 0 3093.96663240 0 206.00853001 0 349.06267154 0 28075
0.16250000 0.16249700 9284.28291517 0 284.95049603 0 3044.67637895 0 220.27628798 0 492.35736299 0 28590
0.16350000 0.16349900 9000.38904030 0 263.24030321 0 2967.04844500 0 138.44435066 0 580.97640523 0 29163
0.16450000 0.16449100 8785.84998045 0 231.99241824 0 2858.54244349 0 199.13262396 0 340.90645537 0 28996
0.16550000 0.16550500 8655.26734091 0 118.46409399 0 2423.83275777 0 155.52789164 0 139.85842453 0 30777
0.16650000 0.16650700 8419.98928046 0 50.50030951 0 2383.25400864 0 344.31349661 0 -28.96266067 0 29211
0.16750000 0.16749900 8425.22742370 0 -32.62430265 0 1753.62019859 0 221.29918720 0 -228.31897358 0 30922
0.16850000 0.16850800 8441.71745832 0 -66.20732040 0 1651.83610622 0 354.61780113 0 -760.32773203 0 30867
0.16950000 0.16949900 8471.50518276 0 3.46880861 0 1317.08952745 0 61.70487775 0 -812.76311956 0 30852
0.17050000 0.17049200 8457.56677585 0 86.51254429 0 1567.27269077 0 -200.16676383 0 -858.80707308 0 31257
0.17150000 0.17149500 8352.46669152 0 173.33757866 0 1555.02038147 0 -375.45571946 0 -1091.19516223 0 32608
0.17250000 0.17250900 8325.73642408 0 169.57083660 0 1847.20985658 0 -350.69706216 0 -551.40562535 0 32361
0.17350000 0.17350400 8160.27404532 0 130.76586215 0 1897.83774747 0 -161.01108107 0 -728.70440933 0 32508
0.17450000 0.17449800 8288.18140999 0 -17.78001170 0 2236.57475725 0 70.54913415 0 -96.89463411 0 32791
0.17550000 0.17549800 8326.87172981 0 -83.65831825 0 2139.78151380 0 288.68464020 0 -216.87037081 0 33633
0.17650000 0.17650100 8400.20573517 0 64.75525314 0 2118.55916522 0 263.70679021 0 317.48768364 0 33984
0.17750000 0.17750300 8284.37082939 0 102.62129604 0 2245.45487132 0 215.87782135 0 149.88733311 0 34069
0.17850000 0.17849800 8225.13260004 0 221.17891224 0 2152.60709629 0 15.39317192 0 206.58629946 0 34536
