### header ###
fiducial parameters:
Omega_m = 0.31
Omega_nu = 0
Omega_de = 0.69
Omega_k = 0
H_0 = 100
w_de = -1
zeff = 0
beta = 0
fgrowth = 0
b_1 = 2
gamma = 0.55
Lx = 3500 Ly = 3500 Lz = 3500
nx = 700 ny = 700 nz = 700
xoffset = 857.220397 yoffset = 15.9954215 zoffset = 262.898189
bins = 400 dk = 0.001
kx_ny = 0.628318531 ky_ny = 0.628318531 kz_ny = 0.628318531
############################
A(data) = 3.0489672 (not used)
A(ran) = 3.04826524 (used)
Ngal = 185896
weighted Ngal = 0
Nran = 9360983
weighted Nran = 0
SN(data) = 3447.73487
SN(ran) = 68.4525814
SN(data+ran) = 3516.18746
############################
13 columns: k_central k_mean P_0(k) sigma^{lin}_{P_0(k)} P^img_1(k) sigma^{lin}_{P_1(k)} P_2(k) sigma^{lin}_{P_2(k)} P^img_3(k) sigma^{lin}_{P_3(k)} P_4(k) sigma^{lin}_{P_4(k)} N_modes
### header ###
0.00050000 0 0 0 0 0 0 0 0 0 0 0 0
0.00150000 0.00179520 50395.09701575 0 -62960.00880935 0 -77423.69132444 0 96883.39346343 0 -20877.14819616 0 3
0.00250000 0.00253879 85356.78057784 0 -56574.30753559 0 8368.14739929 0 -103575.62728263 0 16005.67498237 0 6
0.00350000 0.00331552 120666.13746704 0 -40061.90401827 0 -53124.10220022 0 -9401.42173643 0 22998.25898910 0 7
0.00450000 0.00420575 142552.80850536 0 -18690.39200296 0 -5999.66360571 0 -84750.23506440 0 18365.42479032 0 24
0.00550000 0.00557378 158994.50832958 0 634.82024629 0 -8273.02901280 0 -62415.51168795 0 14007.76172144 0 45
0.00650000 0.00659388 132179.93601080 0 12276.92632188 0 47386.19962807 0 14463.23288906 0 9176.19281774 0 40
0.00750000 0.00754703 139970.83103245 0 17318.47058124 0 11665.77214164 0 -34706.63319701 0 -41455.74470891 0 57
0.00850000 0.00846663 116520.58547745 0 15782.99769138 0 26480.27536604 0 3686.22527877 0 -57821.45773419 0 75
0.00950000 0.00948925 106157.04272300 0 24888.48681602 0 41360.19917770 0 -31134.91642724 0 -56675.47339216 0 112
0.01050000 0.01054430 77156.05143054 0 12399.78663437 0 32730.41439199 0 -33491.74366600 0 -15502.88067517 0 105
0.01150000 0.01145670 79752.30452987 0 4836.17757050 0 45410.88007512 0 -11525.60122702 0 -39443.33100854 0 144
0.01250000 0.01249090 73166.74448611 0 -3908.14944615 0 43986.91444051 0 -5506.33392643 0 -26942.37851759 0 169
0.01350000 0.01339930 84137.73200606 0 -10732.24733908 0 36381.49015593 0 18252.45625048 0 -59299.49089881 0 180
0.01450000 0.01448870 83646.74038213 0 -3525.67506438 0 21831.81666275 0 12928.20962523 0 -35891.95981659 0 267
0.01550000 0.01550050 88332.40563935 0 -3626.96456812 0 9246.48060676 0 10738.49714089 0 -59228.89961222 0 238
0.01650000 0.01653350 82461.41376255 0 5971.04490895 0 -6634.91774113 0 -8503.92321947 0 -39734.01423644 0 315
0.01750000 0.01747870 79326.39627368 0 12641.12340557 0 -10200.04748957 0 -13622.76943390 0 -47621.69126089 0 297
0.01850000 0.01844180 68334.61354987 0 3585.86874904 0 -5956.34213780 0 -17381.41822533 0 -24250.46748053 0 388
0.01950000 0.01947590 73771.37908893 0 346.16145959 0 -1906.99887781 0 -10865.68510391 0 -42538.89381335 0 399
0.02050000 0.02045430 75702.97251054 0 -5074.35571884 0 9906.63278354 0 -12604.14166466 0 -33472.18493373 0 462
0.02150000 0.02154770 82267.73735046 0 -2898.36806903 0 17031.94639411 0 -4683.88923440 0 -38112.99999453 0 571
0.02250000 0.02255340 89821.00501565 0 475.95388138 0 48151.91275587 0 -6663.57015984 0 -22867.41781459 0 510
0.02350000 0.02348930 86025.37448332 0 7068.28978941 0 43933.40894303 0 -8793.38121644 0 -15245.24496041 0 555
0.02450000 0.02439640 86131.93585225 0 6916.29371022 0 54512.32256549 0 5064.23913318 0 -6970.64225651 0 592
0.02550000 0.02547300 78176.25289088 0 3682.32477297 0 46796.62749723 0 10663.72433222 0 2338.07783335 0 837
0.02650000 0.02652900 77561.05207638 0 662.97807637 0 39508.07715675 0 25385.43598484 0 -5919.65265381 0 723
0.02750000 0.02749970 74476.72992230 0 -2481.78955294 0 25695.79035152 0 23500.71607678 0 -5167.72056381 0 826
0.02850000 0.02848090 73795.88370752 0 -1591.26023943 0 8107.96005682 0 13320.84555527 0 -22851.68090357 0 831
0.02950000 0.02946900 73978.20706238 0 896.39468506 0 -9282.58557691 0 607.71116893 0 -20621.76061155 0 996
0.03050000 0.03053250 68578.87289025 0 3781.08513029 0 -9592.22054194 0 -5629.08183242 0 -27151.34221468 0 1041
0.03150000 0.03150510 62953.93885796 0 3695.82479449 0 -8962.10338391 0 -5407.40495935 0 -25351.48921963 0 1036
0.03250000 0.03246190 61453.19957887 0 4152.13901092 0 -9764.65212416 0 -4153.98247764 0 -24097.03259805 0 1059
0.03350000 0.03345080 57468.83852076 0 2192.91606981 0 -4330.30332500 0 252.10756272 0 -26045.82421529 0 1302
0.03450000 0.03451200 54143.40440850 0 2455.89109366 0 -3065.05567872 0 -1127.53843417 0 -23562.09002977 0 1339
0.03550000 0.03553350 52618.94735636 0 3322.82628129 0 1787.73557356 0 -8323.26348092 0 -18127.57262085 0 1365
0.03650000 0.03647120 48751.03943983 0 3898.76350279 0 8688.19120690 0 -10047.47813720 0 -14559.67767233 0 1308
0.03750000 0.03744890 47198.93038690 0 4986.37514557 0 15523.11384648 0 -12145.63552134 0 -8376.55540604 0 1579
0.03850000 0.03847530 46853.05556390 0 3228.05635497 0 22942.84258100 0 -10569.10053437 0 -5422.31006222 0 1662
0.03950000 0.03950240 45118.96037563 0 753.22026857 0 29768.61533088 0 -2873.12156749 0 -6500.15357951 0 1683
0.04050000 0.04050350 45651.99203330 0 -36.05798423 0 32086.88713764 0 2025.35168936 0 -4689.83553863 0 1822
0.04150000 0.04152450 48923.47102204 0 -1030.22025234 0 32229.64340193 0 6794.49001890 0 -5164.96660438 0 1887
0.04250000 0.04250150 46705.46581980 0 305.05215173 0 28557.32280811 0 6904.35613915 0 -6205.63728971 0 1920
0.04350000 0.04349210 46726.48583667 0 466.30378273 0 24221.80382117 0 7018.31385626 0 -3613.75680351 0 2005
0.04450000 0.04448520 43172.97892108 0 896.13952229 0 19171.60426075 0 9492.31363824 0 -5884.54810158 0 2151
0.04550000 0.04548030 42069.25942581 0 1161.78869695 0 13273.97204172 0 7371.31525181 0 -2420.49428451 0 2274
0.04650000 0.04648670 41024.55334687 0 -154.78488463 0 8225.70587323 0 7536.37296715 0 -5765.77938595 0 2311
0.04750000 0.04749250 39821.35409262 0 -826.14174206 0 2215.31868671 0 4818.14756673 0 -6039.07332718 0 2568
0.04850000 0.04851840 40513.89058416 0 -265.50304620 0 -3368.00245657 0 1930.69416956 0 -7166.71292721 0 2493
0.04950000 0.04949480 40800.52717780 0 -77.19516890 0 137.66986983 0 -1364.16537271 0 -7739.35663805 0 2644
0.05050000 0.05050630 40480.61825800 0 943.92352855 0 -4480.68075048 0 -3197.88644841 0 -6315.12122783 0 2829
0.05150000 0.05149060 39988.61497550 0 1302.17318393 0 380.83212270 0 -3192.99676534 0 -5670.77340598 0 2784
0.05250000 0.05249300 38700.43640173 0 1165.28453933 0 -676.62197823 0 -2893.26481360 0 -7341.55000868 0 3055
0.05350000 0.05348950 38814.41660014 0 748.97355073 0 3718.55339027 0 -722.93233518 0 -4391.35129912 0 3009
0.05450000 0.05448610 38068.37461113 0 976.28761013 0 3824.84498358 0 -962.50882047 0 -3651.19941109 0 3336
0.05550000 0.05550870 38343.65814753 0 1146.67002172 0 8625.70442949 0 -516.72821784 0 -880.16655760 0 3349
0.05650000 0.05647670 37127.41973843 0 1275.53284170 0 10047.47813720 0 -1933.81907046 0 1865.30730425 0 3324
0.05750000 0.05747970 36403.97145739 0 1756.52028648 0 13679.64712660 0 -180.74067123 0 5285.73615584 0 3639
0.05850000 0.05849280 34946.17146409 0 1558.37009539 0 15607.30632046 0 -215.23035987 0 7308.67110529 0 3846
0.05950000 0.05951020 34288.03136379 0 1184.32620167 0 15905.07115832 0 2572.87254582 0 8371.98046119 0 3787
0.06050000 0.06049470 33423.51291607 0 748.29573949 0 17203.47872426 0 3311.22592973 0 8878.86636525 0 3930
0.06150000 0.06148310 32735.69749784 0 508.69002851 0 15851.11603481 0 1572.11741124 0 6741.40042550 0 4083
0.06250000 0.06249100 32422.64537498 0 413.44911893 0 15321.23175936 0 892.33568608 0 5223.31682233 0 4303
0.06350000 0.06350600 32295.73842823 0 356.61189257 0 14516.17635400 0 -2131.17117534 0 5289.71534620 0 4470
0.06450000 0.06451750 32056.20016115 0 204.89458152 0 12410.91487859 0 -45.65738755 0 2004.57896681 0 4479
0.06550000 0.06550280 31370.85768608 0 39.32901359 0 13492.49029193 0 -65.25962114 0 1255.26594843 0 4636
0.06650000 0.06648880 31816.32467455 0 -597.89021238 0 9605.78800737 0 1510.66477369 0 -3069.63062357 0 4653
0.06750000 0.06749660 31779.90496618 0 -599.14017274 0 9099.13815698 0 3926.13448732 0 -3500.97935472 0 5220
0.06850000 0.06852730 31593.31016405 0 35.22033094 0 7018.76348229 0 1107.79085897 0 -4191.62741694 0 5029
0.06950000 0.06949320 31645.57918994 0 -89.83055957 0 5845.57676549 0 1402.87817383 0 -5856.24414304 0 5040
0.07050000 0.07048030 30968.89201594 0 1261.97661692 0 6432.82208163 0 -1585.68487667 0 -3531.32911170 0 5475
0.07150000 0.07148790 30225.66018961 0 1322.72109347 0 8802.19388662 0 -3092.10068438 0 -2534.96907155 0 5509
0.07250000 0.07249820 29686.44617404 0 1653.49972253 0 10930.52117732 0 -2089.90674651 0 537.85052463 0 5916
0.07350000 0.07351270 29240.97918557 0 1156.34822200 0 13928.29032077 0 -2364.29103085 0 981.64378021 0 5721
0.07450000 0.07449140 28707.38549537 0 969.80625092 0 14477.50851549 0 -1176.86240958 0 450.43760422 0 6028
0.07550000 0.07549160 28108.14640490 0 640.54173752 0 17163.57441416 0 135.93993368 0 1787.63440770 0 6183
0.07650000 0.07648840 27812.40488417 0 226.69919581 0 16180.69191425 0 845.58244750 0 -21.03609100 0 6330
0.07750000 0.07749960 27810.26916053 0 3.39720567 0 16496.32938677 0 2186.45269564 0 339.69920948 0 6583
0.07850000 0.07848650 27307.02522730 0 -143.82749830 0 12577.27650941 0 2914.44219958 0 -2349.63322230 0 6549
0.07950000 0.07947320 27712.47549917 0 316.54908930 0 11958.14146715 0 1914.47391055 0 -1889.18244641 0 6828
0.08050000 0.08048110 26421.82398224 0 611.87583002 0 10798.54469709 0 1248.35294823 0 -4341.21799686 0 7147
0.08150000 0.08149960 25815.05365578 0 1139.29615484 0 9753.61380514 0 125.01514523 0 -3527.39488394 0 7386
0.08250000 0.08250610 24538.67776528 0 814.92806889 0 10039.78953210 0 267.17340690 0 -3295.09559593 0 7227
0.08350000 0.08350160 24145.14258318 0 827.77500861 0 9580.88996601 0 69.20419029 0 -2500.08933233 0 7798
0.08450000 0.08449610 23644.82121915 0 326.80281090 0 9006.84117382 0 460.04049214 0 -1560.06743365 0 7371
0.08550000 0.08548940 23107.18089468 0 350.90951046 0 9215.63626115 0 1611.14495057 0 -2429.70037746 0 8256
0.08650000 0.08650700 22713.08368006 0 530.49351873 0 8337.32553498 0 690.13773667 0 -811.58172717 0 8037
0.08750000 0.08749060 21936.46712105 0 648.22247416 0 8277.62643895 0 2034.41165385 0 -782.07052274 0 8155
0.08850000 0.08849210 21093.98034876 0 805.44995219 0 6883.75202636 0 790.11658053 0 243.97157973 0 8718
0.08950000 0.08949900 20589.05031793 0 715.04926682 0 6944.55270616 0 1399.92188269 0 588.80776659 0 8571
0.09050000 0.09049190 19971.60137327 0 366.22040082 0 6745.08735894 0 906.93504325 0 791.29347666 0 8932
0.09150000 0.09150830 19546.36755612 0 231.81481596 0 5413.83461157 0 131.46503062 0 945.20608680 0 9285
0.09250000 0.09250820 19589.08202890 0 146.20489593 0 6084.22702116 0 584.05859166 0 869.30471680 0 9204
0.09350000 0.09350330 19287.38296328 0 104.81535865 0 5491.23773250 0 -60.54169521 0 407.94906852 0 9349
0.09450000 0.09448040 19263.89000325 0 239.68102334 0 4918.21183954 0 755.40545107 0 230.24562112 0 9564
0.09550000 0.09549270 18903.73955383 0 359.18937378 0 5124.44405850 0 64.84382947 0 -344.90250670 0 10155
0.09650000 0.09649430 18954.99692116 0 503.43952055 0 5093.40862183 0 -288.00570490 0 -360.90694522 0 9913
0.09750000 0.09749140 18083.62167650 0 709.65600260 0 5123.47736254 0 -353.07783198 0 -731.71577966 0 10476
0.09850000 0.09850240 17918.27170424 0 709.42107300 0 6282.07371468 0 -924.20405497 0 279.21551603 0 10575
0.09950000 0.09950330 17083.76579397 0 519.56423402 0 5724.79597339 0 -564.45040052 0 -599.54033991 0 10882
0.10050000 0.10051200 17141.54273873 0 198.67063321 0 7347.67616333 0 384.77197078 0 113.69356182 0 10875
0.10150000 0.10150300 16768.80276049 0 -66.73731708 0 6188.73135101 0 914.87768706 0 -452.35413517 0 11118
0.10250000 0.10250800 16869.85621056 0 -76.78331145 0 5693.29967004 0 1266.50659916 0 -314.74608892 0 11575
0.10350000 0.10349800 16830.73874602 0 24.31251587 0 5266.18866422 0 1164.27288076 0 -801.34711468 0 11364
0.10450000 0.10450100 16624.81002463 0 234.37318807 0 3876.84423387 0 758.55957767 0 -1047.78938943 0 12093
0.10550000 0.10551000 16564.33532370 0 211.48497505 0 4213.64785172 0 -240.61849361 0 -1263.89876819 0 12067
0.10650000 0.10649700 16023.66002354 0 553.27044930 0 3886.55615610 0 -360.29657788 0 -707.04929570 0 12054
0.10750000 0.10749900 15642.15233773 0 386.87734466 0 3613.28469618 0 -245.92183263 0 -1662.63837157 0 12807
0.10850000 0.10850100 15728.48053534 0 156.08205573 0 4774.55632319 0 -10.23670325 0 -586.28536457 0 12736
0.10950000 0.10950300 15498.27200837 0 -172.72496320 0 3678.73900538 0 376.86866925 0 -1317.21317461 0 12933
0.11050000 0.11050200 15943.06455779 0 -293.63502279 0 4606.78961103 0 1034.58612109 0 -269.81046356 0 13428
0.11150000 0.11150900 15824.92531861 0 -225.38179155 0 3294.84830162 0 941.20891140 0 -126.88671358 0 13453
0.11250000 0.11250000 16188.11074373 0 107.08630732 0 3785.39029952 0 1469.09684729 0 475.17602835 0 13668
0.11350000 0.11349100 15588.87165326 0 373.77186998 0 2877.05579525 0 125.49849322 0 1125.45891379 0 13791
0.11450000 0.11448600 15347.75969508 0 496.22189871 0 3352.63648703 0 287.26607008 0 1095.13838251 0 14205
0.11550000 0.11549300 14872.72979519 0 544.65898678 0 3528.33909860 0 -374.61829098 0 2075.72104529 0 14776
0.11650000 0.11649800 14701.98431059 0 399.37919641 0 3714.57419991 0 -301.42366968 0 1380.80153579 0 14553
0.11750000 0.11747300 14466.04305174 0 151.50711088 0 4174.55286848 0 -385.55432007 0 1959.31286632 0 14568
0.11850000 0.11849100 14513.02897180 0 16.61682916 0 3515.19877790 0 -81.78899804 0 1326.73400578 0 16015
0.11950000 0.11950300 14610.71022665 0 -25.39364166 0 4425.07325132 0 115.87649619 0 1419.98644424 0 15270
0.12050000 0.12050700 14482.90402784 0 192.43994051 0 3428.62328597 0 -17.14772510 0 631.38060717 0 15999
0.12150000 0.12150000 14493.58264603 0 209.69658752 0 3724.79195143 0 125.95823583 0 442.11165423 0 15670
0.12250000 0.12250700 14146.02172543 0 185.67306877 0 3523.34824968 0 91.34815982 0 720.26830095 0 16887
0.12350000 0.12352200 13977.97399700 0 91.71449263 0 3715.01258529 0 -80.73664831 0 372.33868701 0 16407
0.12450000 0.12449800 14091.95419541 0 -58.76612202 0 3522.87614235 0 372.18244196 0 396.44426250 0 16306
0.12550000 0.12549900 13929.86401187 0 144.17258628 0 3868.36878321 0 344.93847679 0 219.74460521 0 17523
0.12650000 0.12650100 13745.85455941 0 397.91004336 0 3679.46964768 0 -57.38981675 0 734.10891420 0 17154
0.12750000 0.12750600 13196.41155168 0 439.59712066 0 3384.44752859 0 361.93434069 0 909.20565470 0 18007
0.12850000 0.12850300 12903.14297410 0 329.71413944 0 3633.58531140 0 199.84977748 0 1350.38433492 0 17496
0.12950000 0.12949900 12681.70215470 0 243.94235403 0 3566.52358913 0 357.72696512 0 1272.30677494 0 18405
0.13050000 0.13049000 12640.11174700 0 55.20070002 0 3572.49237467 0 302.44207263 0 1109.84002960 0 18100
0.13150000 0.13148800 12536.81016678 0 97.17126653 0 3738.07840059 0 -80.16258828 0 1795.58154777 0 19059
0.13250000 0.13249300 12568.17158232 0 10.70467402 0 3757.12006293 0 -155.55936547 0 1680.36487778 0 18957
0.13350000 0.13349100 12547.93841101 0 98.02150935 0 3888.89421145 0 -88.17098989 0 1902.88479965 0 19468
0.13450000 0.13450700 12591.55213584 0 73.66155793 0 4260.91478804 0 151.64199869 0 1532.10069463 0 19953
0.13550000 0.13551000 12513.09239374 0 -3.58731879 0 3813.30083528 0 125.46589533 0 1339.73943867 0 19956
0.13650000 0.13649900 12658.20919468 0 34.68527596 0 3906.21605423 0 79.21972250 0 1217.45239937 0 19723
0.13750000 0.13749600 12416.08557793 0 136.76836964 0 3643.02745801 0 -83.86211125 0 878.54565577 0 20946
0.13850000 0.13851100 12484.31632787 0 107.65193686 0 3569.64849004 0 304.88129384 0 919.96408152 0 20955
0.13950000 0.13949800 12273.89134618 0 -6.98292829 0 3143.23440456 0 265.94255564 0 799.53174958 0 20506
0.14050000 0.14048300 12445.08645682 0 12.37112298 0 3051.79171086 0 659.06857805 0 671.66147906 0 21447
0.14150000 0.14148400 12195.65641710 0 91.54768137 0 2946.80403303 0 324.22532968 0 532.51009147 0 21771
0.14250000 0.14249400 12170.92698549 0 99.50066658 0 2488.21920516 0 493.88496743 0 744.06700668 0 22470
0.14350000 0.14350900 12209.03279147 0 216.50167747 0 2756.83703568 0 47.95789912 0 617.18591343 0 22519
0.14450000 0.14449900 11902.94987206 0 279.52013766 0 2524.27921271 0 -416.48297056 0 157.34213267 0 22218
0.14550000 0.14550500 11881.70504218 0 329.00597844 0 3131.57784975 0 -660.57032899 0 569.92459743 0 23559
0.14650000 0.14650700 11582.25410671 0 244.30879925 0 3260.24957867 0 -610.29089827 0 -192.38823352 0 23044
0.14750000 0.14750500 11501.77104747 0 222.04107015 0 3590.26384348 0 -506.14851738 0 -4.71964574 0 23649
0.14850000 0.14849900 11353.95649036 0 156.35070728 0 3787.22252559 0 -155.75158059 0 -560.41275878 0 23640
0.14950000 0.14949500 11157.43619363 0 155.34354497 0 3906.51955180 0 268.84489166 0 -149.76031375 0 24457
0.15050000 0.15050000 10998.74068661 0 248.71063807 0 3629.48247388 0 373.92586689 0 -797.56575977 0 24591
0.15150000 0.15149900 10790.31654076 0 254.05107124 0 3506.07136950 0 645.56630839 0 -324.46025928 0 25020
0.15250000 0.15250500 10546.07968167 0 165.67370299 0 3256.96730865 0 510.03216220 0 -255.47076542 0 25297
0.15350000 0.15350100 10316.68048155 0 81.83193732 0 2719.12465248 0 569.87963482 0 -335.28500594 0 25452
0.15450000 0.15450400 10361.60936253 0 16.76138393 0 2464.23165650 0 333.76414590 0 -308.61094175 0 26061
0.15550000 0.15549900 10195.37137887 0 -6.08346266 0 2062.61444653 0 431.87704174 0 -617.93791296 0 26128
0.15650000 0.15649500 10144.27138064 0 208.17347934 0 2141.05170733 0 -16.66066770 0 -297.15334646 0 26331
0.15750000 0.15749700 10011.95768089 0 261.95662090 0 1729.03689544 0 74.63353700 0 -300.39177794 0 27345
0.15850000 0.15849900 9610.52032133 0 361.99054395 0 1942.48561217 0 73.46417210 0 49.74268965 0 26980
0.15950000 0.15949700 9408.26729273 0 335.12876089 0 2094.59409786 0 104.39844292 0 438.02904988 0 27777
0.16050000 0.16050000 9061.90912176 0 258.17526599 0 2155.29361181 0 103.89025310 0 416.75611837 0 28224
0.16150000 0.16150500 9071.99198546 0 209.01765221 0 2311.04406834 0 -162.31274843 0 565.88245942 0 28075
0.16250000 0.16249700 8929.98884478 0 80.09210940 0 2438.26575331 0 -360.67426375 0 588.40085503 0 28590
0.16350000 0.16349900 8958.86607650 0 40.12001818 0 2631.39137352 0 -371.48889381 0 516.53712678 0 29163
0.16450000 0.16449100 9021.39781652 0 -17.25619738 0 2576.31218494 0 -79.62708368 0 358.41152075 0 28996
0.16550000 0.16550500 9058.77298020 0 -14.92297550 0 2542.45534494 0 227.83225341 0 334.28346396 0 30777
0.16650000 0.16650700 8996.31992474 0 56.01924420 0 2184.53054436 0 461.02966941 0 -55.94707922 0 29211
0.16750000 0.16749900 9005.42485183 0 98.28375373 0 2156.38395493 0 498.21374202 0 174.31101902 0 30922
0.16850000 0.16850800 8655.85185475 0 133.78959720 0 1673.26078651 0 413.68180040 0 -344.66532897 0 30867
0.16950000 0.16949900 8661.75319638 0 104.83727792 0 1647.03634836 0 149.17017959 0 172.34952546 0 30852
0.17050000 0.17049200 8384.07540138 0 80.77891316 0 1484.42909488 0 145.16401167 0 -167.46658679 0 31257
0.17150000 0.17149500 8480.46398139 0 48.12156300 0 1466.44405371 0 69.58873295 0 114.87832641 0 32608
0.17250000 0.17250900 8392.29231706 0 108.34289966 0 1401.00098516 0 19.15035943 0 210.14284135 0 32361
0.17350000 0.17350400 8249.24379586 0 158.41224262 0 1434.55432759 0 114.71870917 0 181.60620134 0 32508
0.17450000 0.17449800 8191.97268038 0 133.87390208 0 1458.23837868 0 -138.67590807 0 580.91120945 0 32791
0.17550000 0.17549800 8185.09340214 0 86.05313889 0 1642.91102954 0 -30.22048949 0 127.86689833 0 33633
0.17650000 0.17650100 8213.99311516 0 25.84000790 0 1955.90694914 0 -189.90517377 0 867.20271512 0 33984
0.17750000 0.17750300 8160.92600306 0 19.21296986 0 2076.44044693 0 -42.83789512 0 695.27471405 0 34069
