### header ###
fiducial parameters:
Omega_m = 0.31
Omega_nu = 0
Omega_de = 0.69
Omega_k = 0
H_0 = 100
w_de = -1
zeff = 0
beta = 0
fgrowth = 0
b_1 = 2
gamma = 0.55
Lx = 3500 Ly = 3500 Lz = 3500
nx = 700 ny = 700 nz = 700
xoffset = 857.220397 yoffset = 15.9954215 zoffset = 262.898189
bins = 400 dk = 0.001
kx_ny = 0.628318531 ky_ny = 0.628318531 kz_ny = 0.628318531
############################
A(data) = 3.07102581 (not used)
A(ran) = 3.06424474 (used)
Ngal = 187297
weighted Ngal = 0
Nran = 9360983
weighted Nran = 0
SN(data) = 3468.3598
SN(ran) = 68.811421
SN(data+ran) = 3537.17122
############################
13 columns: k_central k_mean P_0(k) sigma^{lin}_{P_0(k)} P^img_1(k) sigma^{lin}_{P_1(k)} P_2(k) sigma^{lin}_{P_2(k)} P^img_3(k) sigma^{lin}_{P_3(k)} P_4(k) sigma^{lin}_{P_4(k)} N_modes
### header ###
0.00050000 0 0 0 0 0 0 0 0 0 0 0 0
0.00150000 0.00179520 19372.47468931 0 -15519.06721222 0 -8246.07393235 0 37284.90125518 0 -47988.81091376 0 3
0.00250000 0.00253879 33596.28171780 0 -19073.81059939 0 7264.82132679 0 1176.58139331 0 50791.66717353 0 6
0.00350000 0.00331552 49286.88126018 0 -17970.76554316 0 11530.99673937 0 -8002.71384402 0 -61041.00491656 0 7
0.00450000 0.00420575 65102.58924519 0 -12113.48726025 0 12833.11372005 0 12194.53235202 0 -2501.13471285 0 24
0.00550000 0.00557378 76904.93529321 0 870.37819895 0 13089.73777624 0 11391.27545079 0 -6445.87247713 0 45
0.00650000 0.00659388 78318.78434215 0 7430.67712832 0 32864.06572918 0 -6023.95465194 0 5040.47639754 0 40
0.00750000 0.00754703 76488.80640315 0 -571.83663212 0 21770.10549023 0 18517.06116868 0 -1454.39407613 0 57
0.00850000 0.00846663 73254.42156181 0 -2622.46629684 0 21563.16511027 0 14504.93570327 0 5592.14505411 0 75
0.00950000 0.00948925 88862.06510179 0 -18620.02552938 0 -4683.61945878 0 28656.91497359 0 -120.56047535 0 112
0.01050000 0.01054430 90488.25004304 0 -6218.64272260 0 10761.99010091 0 -2771.91074831 0 -30464.52401764 0 105
0.01150000 0.01145670 99067.11468094 0 5284.90434768 0 -1346.57375432 0 -9360.10110435 0 -21558.78125649 0 144
0.01250000 0.01249090 88572.16871944 0 15503.21789469 0 16177.54453204 0 -45575.78042134 0 -19020.64232143 0 169
0.01350000 0.01339930 85353.74560214 0 16223.96841956 0 31640.18367759 0 -39012.25205301 0 13811.61236618 0 180
0.01450000 0.01448870 76309.74283700 0 -1417.58094499 0 40076.62927072 0 -962.66506551 0 -9201.14706236 0 267
0.01550000 0.01550050 79782.87909986 0 -1121.49321221 0 43044.38587672 0 -4185.96212897 0 -36339.11290267 0 238
0.01650000 0.01653350 85751.10260548 0 -1225.92785002 0 49836.09945489 0 7554.35800832 0 -37912.01715946 0 315
0.01750000 0.01747870 88404.45821053 0 8529.56314379 0 68039.54646818 0 -7705.40987284 0 -40090.34286462 0 297
0.01850000 0.01844180 75385.87375342 0 14231.78789051 0 47894.27704111 0 4507.27613011 0 -13140.99514357 0 388
0.01950000 0.01947590 60673.99767019 0 1337.81728740 0 39818.31911693 0 10325.54935498 0 -25409.94060343 0 399
0.02050000 0.02045430 67936.69451399 0 -4465.97797933 0 30978.10934954 0 16768.35313446 0 -25235.82292361 0 462
0.02150000 0.02154770 70621.97356712 0 -4336.63181137 0 26870.88797894 0 16565.68420178 0 -29318.98930164 0 571
0.02250000 0.02255340 74060.03899970 0 -1535.19187359 0 12403.60845562 0 6049.61705756 0 -17784.17074102 0 510
0.02350000 0.02348930 75364.51651703 0 -4783.39147467 0 -2755.96026492 0 9184.76943425 0 -10095.94782315 0 555
0.02450000 0.02439640 77758.43790321 0 -4132.80509166 0 -5252.67740204 0 7272.89211401 0 -17237.20067645 0 592
0.02550000 0.02547300 83573.00171334 0 -2281.52611952 0 -10029.02098870 0 8024.97033247 0 -12394.61593503 0 837
0.02650000 0.02652900 79450.94268378 0 3911.89258284 0 -12714.86207436 0 -3610.58694000 0 -18676.45359605 0 723
0.02750000 0.02749970 73618.16901947 0 9698.36600679 0 -5776.62661391 0 -13378.28528050 0 -3633.60779270 0 826
0.02850000 0.02848090 64653.86246801 0 10030.36986679 0 -1915.67666018 0 -10051.54725276 0 -15325.05358060 0 831
0.02950000 0.02946900 59371.20625047 0 6153.21089470 0 9936.48795188 0 -12211.05610860 0 -7123.50386580 0 996
0.03050000 0.03053250 54858.53460801 0 1120.96827382 0 11343.16546566 0 -1161.04681400 0 -15894.72975965 0 1041
0.03150000 0.03150510 56708.18368579 0 -19.47577627 0 22916.53945829 0 -5916.57271551 0 -12834.68741115 0 1036
0.03250000 0.03246190 57311.69422354 0 -934.11156453 0 16406.29177442 0 -1349.64245197 0 -11961.17644285 0 1059
0.03350000 0.03345080 58713.40336969 0 -767.41159012 0 22408.68685826 0 1033.07088137 0 -12929.89572284 0 1302
0.03450000 0.03451200 59443.70844769 0 -491.08379727 0 17466.28513835 0 2.36122233 0 -9899.41628577 0 1339
0.03550000 0.03553350 60791.46247033 0 -538.16863505 0 19411.59215386 0 5268.96510495 0 -8058.80469117 0 1365
0.03650000 0.03647120 59536.66862923 0 829.13737548 0 14523.81999650 0 5591.48185572 0 -7769.34669420 0 1308
0.03750000 0.03744890 58956.08901898 0 1868.03878238 0 12369.88650343 0 3277.35784908 0 -3749.81363995 0 1579
0.03850000 0.03847530 54769.39624771 0 4410.13442650 0 12419.57017966 0 2999.36531585 0 -3187.32023672 0 1662
0.03950000 0.03950240 49864.53830124 0 4060.47150421 0 11949.26135307 0 2723.29493390 0 -1686.99686171 0 1683
0.04050000 0.04050350 45692.79559545 0 2265.50819223 0 10747.44469887 0 3329.34585871 0 -1648.57631751 0 1822
0.04150000 0.04152450 44302.43950653 0 1424.31409477 0 10945.93210948 0 185.10204372 0 1007.43320518 0 1887
0.04250000 0.04250150 42860.48883076 0 237.13051969 0 11340.01808345 0 3385.86385059 0 2254.39118866 0 1920
0.04350000 0.04349210 44412.93510322 0 15.96138682 0 11453.99828187 0 453.05105552 0 7077.09121893 0 2005
0.04450000 0.04448520 43934.98263414 0 474.09917401 0 10707.69775788 0 -118.11450975 0 7084.01545978 0 2151
0.04550000 0.04548030 44290.07479073 0 1425.31451269 0 11920.48528720 0 315.32048618 0 11583.04095226 0 2274
0.04650000 0.04648670 42346.56627934 0 1417.34489132 0 13412.00723270 0 -177.60115748 0 6533.30225852 0 2311
0.04750000 0.04749250 40943.39584859 0 2252.41283413 0 13939.19375198 0 -1333.62452468 0 6933.33453673 0 2568
0.04850000 0.04851840 39717.15326035 0 1357.93805221 0 11581.69207417 0 -195.96613265 0 2978.19917053 0 2493
0.04950000 0.04949480 38691.78110067 0 907.87363759 0 13158.08093268 0 41.83601592 0 1748.57314641 0 2644
0.05050000 0.05050630 37827.48746596 0 313.86707004 0 10965.60324825 0 2540.94909774 0 794.46221610 0 2829
0.05150000 0.05149060 36655.20000123 0 1065.80815256 0 10479.07416267 0 458.64327926 0 -1114.06988647 0 2784
0.05250000 0.05249300 37206.66632609 0 528.73660502 0 10191.72940803 0 2326.82594197 0 2924.19908441 0 3055
0.05350000 0.05348950 36074.17076494 0 1174.31078187 0 11142.23883384 0 1283.50246307 0 3108.74808812 0 3009
0.05450000 0.05448610 36579.77523482 0 285.97002305 0 11856.18876502 0 897.54347957 0 8288.29381650 0 3336
0.05550000 0.05550870 36488.27633787 0 13.17022084 0 14691.86772493 0 -934.64999170 0 6311.42305374 0 3349
0.05650000 0.05647670 36807.73563165 0 561.03773896 0 17057.23785825 0 -3278.76293042 0 9634.66523910 0 3324
0.05750000 0.05747970 37474.75584602 0 520.17347729 0 20851.85673202 0 -1381.73450981 0 11549.54381308 0 3639
0.05850000 0.05849280 36920.59176498 0 735.91191458 0 21073.18514491 0 -1016.94391976 0 8384.96341278 0 3846
0.05950000 0.05951020 36455.90326377 0 848.61517507 0 22654.63229625 0 2165.64625113 0 11376.32538531 0 3787
0.06050000 0.06049470 35970.30715219 0 453.69626887 0 20327.93000145 0 4216.81771522 0 7223.73674837 0 3930
0.06150000 0.06148310 35150.52649438 0 680.35499834 0 18621.82403350 0 2919.42180785 0 7750.79962049 0 4083
0.06250000 0.06249100 34643.57314641 0 416.84379545 0 15981.50758329 0 4700.14321536 0 5775.65991795 0 4303
0.06350000 0.06350600 33782.08967438 0 4.04671295 0 13857.58662767 0 3611.86837418 0 6785.56494222 0 4470
0.06450000 0.06451750 32942.97509732 0 -40.00749927 0 10553.76828677 0 1564.97959802 0 3253.31409717 0 4479
0.06550000 0.06550280 34164.83383177 0 70.19865066 0 11245.70902382 0 1743.58229749 0 3636.64276839 0 4636
0.06650000 0.06648880 32737.27118894 0 398.60246744 0 8475.74290809 0 985.24978096 0 634.09410026 0 4653
0.06750000 0.06749660 32671.40097565 0 832.98954649 0 8280.91994962 0 -666.76617567 0 -779.01081761 0 5220
0.06850000 0.06852730 31828.91420337 0 902.52983223 0 8270.70219810 0 -1166.92567434 0 -1616.30440926 0 5029
0.06950000 0.06949320 30956.63970664 0 1092.98804602 0 7454.06892250 0 -1128.52761144 0 -4253.24866424 0 5040
0.07050000 0.07048030 30081.77986025 0 1080.82566193 0 6729.83379590 0 364.68380386 0 -3012.64052437 0 5475
0.07150000 0.07148790 28740.09578900 0 686.86333511 0 6024.64033164 0 1236.69639342 0 -5614.33409866 0 5509
0.07250000 0.07249820 28689.51286071 0 -14.00438953 0 4743.46468327 0 1718.08850163 0 -4481.22030172 0 5916
0.07350000 0.07351270 28471.66904954 0 -84.31994295 0 5559.54716699 0 1161.95730671 0 -5976.19312699 0 5721
0.07450000 0.07449140 28594.75417505 0 133.77498435 0 4785.89813978 0 921.29385050 0 -3467.90936027 0 6028
0.07550000 0.07549160 27847.58812096 0 330.67521507 0 5870.01394018 0 -652.56024128 0 -3633.65275530 0 6183
0.07650000 0.07648840 28367.13099774 0 361.12051758 0 5020.71533355 0 -902.36796686 0 -4560.48937067 0 6330
0.07750000 0.07749960 28090.49858325 0 496.52876848 0 7905.38104935 0 -889.68963690 0 -2395.32646752 0 6583
0.07850000 0.07848650 27894.01200848 0 976.21679403 0 6346.72993768 0 -1257.07569320 0 -4788.96683743 0 6549
0.07950000 0.07947320 26874.37258067 0 1120.79854000 0 9185.23030093 0 -68.22299389 0 -1396.27991185 0 6828
0.08050000 0.08048110 25882.94718619 0 1084.63511846 0 8380.53459639 0 394.46141171 0 -3315.90204044 0 7147
0.08150000 0.08149960 24526.87508201 0 845.29131465 0 8170.12085536 0 885.31589970 0 -2316.09112052 0 7386
0.08250000 0.08250610 23921.67844665 0 971.32598690 0 9368.47538914 0 610.45388770 0 -3166.32270116 0 7227
0.08350000 0.08350160 23198.67979163 0 646.26547687 0 7610.57250262 0 689.09797648 0 -2244.12847454 0 7798
0.08450000 0.08449610 22616.86370980 0 605.07298820 0 8657.41430520 0 -12.01344547 0 42.93568878 0 7371
0.08550000 0.08548940 22717.57994035 0 353.19361068 0 7908.58463480 0 43.71657679 0 -594.03804138 0 8256
0.08650000 0.08650700 22301.78826981 0 -329.21168235 0 7953.36738732 0 1124.23368286 0 1099.77402687 0 8037
0.08750000 0.08749060 22547.05926876 0 1.66649391 0 7699.26123689 0 733.03318392 0 -79.75331619 0 8155
0.08850000 0.08849210 22702.18024885 0 -218.14281248 0 6601.78030277 0 732.43630537 0 -168.10055949 0 8718
0.08950000 0.08949900 22495.12746238 0 312.36869129 0 7012.61484634 0 505.42686760 0 -493.77143686 0 8571
0.09050000 0.09049190 22190.61823408 0 351.07249989 0 6915.91152810 0 120.49865177 0 -614.19927253 0 8932
0.09150000 0.09150830 21764.70997788 0 339.76328119 0 6412.07184038 0 -58.75904041 0 -648.24945172 0 9285
0.09250000 0.09250820 21685.80060975 0 603.69825661 0 7157.48435296 0 318.14638577 0 -279.06376724 0 9204
0.09350000 0.09350330 20951.67371051 0 603.09575773 0 6918.18213955 0 1010.44569958 0 521.53134790 0 9349
0.09450000 0.09448040 20220.69419347 0 684.58148301 0 6972.63185169 0 718.40235293 0 289.28713908 0 9564
0.09550000 0.09549270 19786.91748176 0 328.50576948 0 6780.00082011 0 1058.32412730 0 868.44368296 0 10155
0.09650000 0.09649430 19530.85545811 0 452.76441892 0 6322.93348009 0 656.68218790 0 595.79045882 0 9913
0.09750000 0.09749140 19097.41596592 0 212.09983864 0 5457.89796243 0 510.60206319 0 1640.06714491 0 10476
0.09850000 0.09850240 19019.51825636 0 196.35393510 0 5402.15557546 0 565.09786200 0 1503.59440438 0 10575
0.09950000 0.09950330 18704.55522288 0 315.98930489 0 5008.49674621 0 29.17218640 0 1361.58002304 0 10882
0.10050000 0.10051200 18752.89002102 0 303.60885218 0 5035.93517464 0 173.65344095 0 1184.29247972 0 10875
0.10150000 0.10150300 17973.57570584 0 535.54506717 0 5426.42414039 0 103.16961498 0 1093.39945384 0 11118
0.10250000 0.10250800 17858.92106838 0 649.74783046 0 4698.70441206 0 -69.27028532 0 2370.03500338 0 11575
0.10350000 0.10349800 16929.31925293 0 405.07146194 0 4732.35892035 0 791.95217880 0 1006.54856597 0 11364
0.10450000 0.10450100 16991.14283195 0 199.59236657 0 4905.58858877 0 415.23188613 0 1980.53521490 0 12093
0.10550000 0.10551000 16792.29572052 0 -136.17486328 0 4264.20829871 0 782.74046552 0 1258.55945910 0 12067
0.10650000 0.10649700 16811.18001375 0 -9.14488761 0 4073.79167532 0 1.93659551 0 1993.47320389 0 12054
0.10750000 0.10749900 16670.55947310 0 38.17965705 0 3426.18406476 0 802.04628315 0 920.47215893 0 12807
0.10850000 0.10850100 16651.78758638 0 67.39096092 0 3368.02493788 0 340.78280821 0 1930.28950613 0 12736
0.10950000 0.10950300 16748.00755664 0 326.49144487 0 3569.44615832 0 313.85358126 0 1482.28213059 0 12933
0.11050000 0.11050200 16240.82939566 0 204.56972672 0 3533.67840770 0 323.52278901 0 1085.55010743 0 13428
0.11150000 0.11150900 16083.01065939 0 588.45256203 0 4354.67305579 0 -550.37036142 0 2211.76664108 0 13453
0.11250000 0.11250000 15485.90729256 0 688.31562719 0 4712.83391003 0 -978.61554890 0 1501.13270187 0 13668
0.11350000 0.11349100 15220.96515484 0 675.14945299 0 5600.23832264 0 -879.79224393 0 2332.05284456 0 13791
0.11450000 0.11448600 14701.30987154 0 382.41705445 0 5588.19958571 0 -777.66193952 0 1047.23972161 0 14205
0.11550000 0.11549300 14464.35695413 0 172.07974985 0 5757.82100524 0 -416.05357770 0 634.00080285 0 14776
0.11650000 0.11649800 14429.28612385 0 70.85150766 0 5615.17714746 0 361.84329142 0 -145.61363770 0 14553
0.11750000 0.11747300 14154.22740046 0 145.14377850 0 4714.66613610 0 369.20142139 0 -1410.13963420 0 14568
0.11850000 0.11849100 14095.32639063 0 47.26794798 0 4480.86060089 0 880.66901469 0 -1262.57237141 0 16015
0.11950000 0.11950300 13863.54417256 0 107.31561659 0 3589.51071988 0 868.66849597 0 -1431.37322343 0 15270
0.12050000 0.12050700 13767.54901532 0 145.41692631 0 3269.71420658 0 940.79637952 0 -661.52690836 0 15999
0.12150000 0.12150000 13663.79780907 0 249.27604281 0 3522.74125454 0 716.53190865 0 -165.27016363 0 15670
0.12250000 0.12250700 13401.21620799 0 300.29286021 0 3398.65571112 0 482.38240953 0 760.62673334 0 16887
0.12350000 0.12352200 13137.28572883 0 247.02791266 0 3159.37597901 0 309.54616390 0 983.09045196 0 16407
0.12450000 0.12449800 13007.56861940 0 179.74474958 0 3557.31749619 0 140.22486974 0 1834.89010337 0 16306
0.12550000 0.12549900 12959.57104077 0 199.86551439 0 3443.84312706 0 -237.60824735 0 1474.37995313 0 17523
0.12650000 0.12650100 12895.72414462 0 -5.53724572 0 3846.31462648 0 -157.23422243 0 1733.40950858 0 17154
0.12750000 0.12750600 12874.59172125 0 76.80309500 0 3637.83427737 0 -420.20587408 0 736.68864354 0 18007
0.12850000 0.12850300 12834.68741115 0 136.40417256 0 3627.60528521 0 -501.96699530 0 523.15000161 0 17496
0.12950000 0.12949900 12756.22766905 0 186.24746603 0 4091.65306933 0 -631.68860100 0 -55.15686148 0 18405
0.13050000 0.13049000 12809.05872749 0 256.06089959 0 4222.82022271 0 -498.57569098 0 -25.59496171 0 18100
0.13150000 0.13148800 12471.38957953 0 257.55253394 0 4829.63551178 0 -392.73147556 0 -82.28279982 0 19059
0.13250000 0.13249300 12592.00176187 0 226.63400004 0 5072.75954644 0 -223.79573573 0 -60.01214816 0 18957
0.13350000 0.13349100 12248.48747553 0 176.58725079 0 5296.18996102 0 121.58449863 0 68.08282297 0 19468
0.13450000 0.13450700 12349.54092560 0 150.34145540 0 5061.51889571 0 214.63685351 0 -4.56712135 0 19953
0.13550000 0.13551000 12146.30996039 0 18.85079609 0 5215.86427089 0 276.22213074 0 -299.97250167 0 19956
0.13650000 0.13649900 11990.17732173 0 39.70006747 0 4950.38258193 0 477.50171899 0 -359.82671868 0 19723
0.13750000 0.13749600 12053.01255932 0 58.30064667 0 4495.55213140 0 303.15472989 0 -965.16273811 0 20946
0.13850000 0.13851100 11748.39092451 0 88.51585306 0 3893.17689938 0 523.69292504 0 -799.42945966 0 20955
0.13950000 0.13949800 11875.63509078 0 81.91702905 0 3684.46049660 0 412.80615371 0 -534.05343282 0 20506
0.14050000 0.14048300 11633.84869356 0 -58.60481868 0 3408.61492767 0 744.74819012 0 -647.25690226 0 21447
0.14150000 0.14148400 11777.39180340 0 13.95077162 0 3118.46001035 0 393.84879625 0 -541.02488440 0 21771
0.14250000 0.14249400 11720.06448467 0 82.06484360 0 3318.29629904 0 131.96748771 0 -182.19183924 0 22470
0.14350000 0.14350900 11668.80711733 0 213.53526974 0 3101.64399685 0 -145.87554486 0 110.11195328 0 22519
0.14450000 0.14449900 11551.00509767 0 357.94278562 0 3654.14446158 0 -9.89956241 0 399.19260160 0 22218
0.14550000 0.14550500 11213.06617410 0 319.63577199 0 3588.53278327 0 -35.95299655 0 677.11207060 0 23559
0.14650000 0.14650700 10968.69442721 0 247.99573269 0 3404.41092429 0 409.13046092 0 716.42512247 0 23044
0.14750000 0.14750500 10917.65063224 0 186.54646734 0 3686.36016658 0 83.49521641 0 942.35208558 0 23649
0.14850000 0.14849900 10642.46826169 0 66.11436022 0 3209.10461784 0 329.38029211 0 616.90377309 0 23640
0.14950000 0.14949500 10495.08084931 0 71.67443570 0 3468.38146760 0 102.10141594 0 971.86553814 0 24457
0.15050000 0.15050000 10558.59052594 0 132.61719732 0 3116.44793387 0 -212.48539296 0 66.52936504 0 24591
0.15150000 0.15149900 10580.28498185 0 110.05395152 0 3701.23154749 0 -325.37974451 0 524.13018635 0 25020
0.15250000 0.15250500 10263.92810767 0 238.82673389 0 3278.33578569 0 -381.52342272 0 -378.58174442 0 25297
0.15350000 0.15350100 10301.85406324 0 203.21298018 0 3737.37023960 0 -253.89819839 0 -56.22584736 0 25452
0.15450000 0.15450400 10108.75092433 0 93.32763842 0 3857.74636827 0 -150.30885751 0 -429.50189224 0 26061
0.15550000 0.15549900 10141.24764560 0 36.89260254 0 3608.94580499 0 579.42856762 0 -171.06921534 0 26128
0.15650000 0.15649500 9975.50425057 0 -22.94846291 0 3424.65533626 0 878.98628928 0 -144.17371034 0 26331
0.15750000 0.15749700 10016.56634769 0 56.78001144 0 3164.94010112 0 836.14816934 0 331.79253576 0 27345
0.15850000 0.15849900 9929.04664110 0 128.24795639 0 2935.30484734 0 753.69349997 0 747.66064272 0 26980
0.15950000 0.15949700 9650.03120865 0 187.23214703 0 2487.33119375 0 552.83318799 0 974.15076243 0 27777
0.16050000 0.16050000 9619.91750534 0 123.74382764 0 2525.38079648 0 306.34707470 0 1616.96760765 0 28224
0.16150000 0.16150500 9490.45893087 0 28.28957051 0 2420.80902273 0 338.34695920 0 1661.24453088 0 28075
0.16250000 0.16249700 9502.76744342 0 36.31651919 0 2253.53689920 0 208.82318895 0 1655.34318925 0 28590
0.16350000 0.16349900 9443.09082869 0 52.41526677 0 2033.93954652 0 180.76652473 0 1667.39316683 0 29163
0.16450000 0.16449100 9395.45295090 0 130.12626912 0 1949.11759610 0 -100.94149319 0 1415.43398070 0 28996
0.16550000 0.16550500 9341.90249081 0 56.86397910 0 1829.51707233 0 176.28712541 0 1382.19537649 0 30777
0.16650000 0.16650700 9226.44976716 0 96.94622870 0 1622.09334439 0 -162.87140877 0 731.96869430 0 29211
0.16750000 0.16749900 9288.02605186 0 93.41677678 0 1543.27390146 0 -222.79869001 0 274.36517524 0 30922
0.16850000 0.16850800 9134.01789619 0 106.15681791 0 1731.61100446 0 -605.26183113 0 -238.00953858 0 30867
0.16950000 0.16949900 9125.82346181 0 221.80501648 0 1867.42054659 0 -585.14668665 0 -275.31950648 0 30852
0.17050000 0.17049200 8952.53759014 0 139.02549231 0 1782.46370837 0 -402.78623764 0 -503.67557421 0 31257
0.17150000 0.17149500 8854.23809950 0 102.52766141 0 2136.44304054 0 30.54084804 0 -480.20059923 0 32608
0.17250000 0.17250900 8884.92507600 0 45.49720827 0 2036.26636122 0 409.97126159 0 -348.95026503 0 32361
0.17350000 0.17350400 8786.37829104 0 56.89949956 0 2009.87331330 0 508.01334133 0 -125.07809288 0 32508
0.17450000 0.17449800 8774.76669883 0 129.05615917 0 1865.64452377 0 362.45253469 0 81.09297694 0 32791
0.17550000 0.17549800 8535.73426104 0 184.68951184 0 2068.20104995 0 191.05621641 0 523.88289203 0 33633
0.17650000 0.17650100 8424.71035377 0 257.72563996 0 2046.96746072 0 -157.89404862 0 618.60335948 0 33984
0.17750000 0.17750300 8205.88860599 0 222.22092056 0 2098.80934189 0 -29.09664923 0 536.15880670 0 34069
