### header ###
fiducial parameters:
Omega_m = 0.31
Omega_nu = 0
Omega_de = 0.69
Omega_k = 0
H_0 = 100
w_de = -1
zeff = 0
beta = 0
fgrowth = 0
b_1 = 2
gamma = 0.55
Lx = 3500 Ly = 3500 Lz = 3500
nx = 700 ny = 700 nz = 700
xoffset = 857.220397 yoffset = 15.9954215 zoffset = 262.898189
bins = 400 dk = 0.001
kx_ny = 0.628318531 ky_ny = 0.628318531 kz_ny = 0.628318531
############################
A(data) = 3.10133099 (not used)
A(ran) = 3.09288894 (used)
Ngal = 188712
weighted Ngal = 0
Nran = 9360983
weighted Nran = 0
SN(data) = 3475.61264
SN(ran) = 69.454662
SN(data+ran) = 3545.0673
############################
13 columns: k_central k_mean P_0(k) sigma^{lin}_{P_0(k)} P^img_1(k) sigma^{lin}_{P_1(k)} P_2(k) sigma^{lin}_{P_2(k)} P^img_3(k) sigma^{lin}_{P_3(k)} P_4(k) sigma^{lin}_{P_4(k)} N_modes
### header ###
0.00050000 0 0 0 0 0 0 0 0 0 0 0 0
0.00150000 0.00179520 20906.59870108 0 -21634.54324242 0 -28853.85117440 0 37029.06404454 0 7173.67089001 0 3
0.00250000 0.00253879 30535.22771074 0 -21194.80898582 0 2255.95363911 0 -31848.81015516 0 -6439.00443954 0 6
0.00350000 0.00331552 48159.89361789 0 -19351.45467245 0 -20795.65347836 0 6652.98146685 0 -8917.00589318 0 7
0.00450000 0.00420575 63204.15574323 0 -15549.75418872 0 -4472.52003805 0 -24948.73670394 0 4418.83469016 0 24
0.00550000 0.00557378 77235.86005073 0 -5123.90450726 0 -12790.06202775 0 -26178.01426788 0 11662.62475943 0 45
0.00650000 0.00659388 82578.76615618 0 -6052.23612918 0 33081.68472734 0 -11040.87064555 0 30262.86674353 0 40
0.00750000 0.00754703 93797.27280523 0 -22373.05399544 0 -25707.59303479 0 31225.74088514 0 342.62964713 0 57
0.00850000 0.00846663 110482.10790477 0 -28092.18468086 0 -4778.24325663 0 9994.90561373 0 -10576.47440125 0 75
0.00950000 0.00948925 135350.92358201 0 -21465.25904241 0 -52798.79776806 0 8434.60212641 0 -30995.53235817 0 112
0.01050000 0.01054430 136651.46687159 0 -1411.16253342 0 -26329.53823974 0 -37349.53499688 0 -49971.43688969 0 105
0.01150000 0.01145670 132141.71779831 0 17642.53854181 0 -31999.88450099 0 -50346.08777856 0 -22885.85248179 0 144
0.01250000 0.01249090 110971.52583759 0 24520.01828506 0 -11251.89138172 0 -46857.88904372 0 -28720.19983720 0 169
0.01350000 0.01339930 93070.45232897 0 20651.09870996 0 3056.00695489 0 -46028.32901977 0 -13121.99844384 0 180
0.01450000 0.01448870 76800.84686744 0 13580.39218065 0 15460.84064143 0 -4832.92902244 0 -16881.32167431 0 267
0.01550000 0.01550050 79958.90769031 0 5145.76757293 0 29340.00931851 0 9199.19118913 0 -29698.92329635 0 238
0.01650000 0.01653350 69392.24637715 0 929.67038342 0 27181.57956515 0 12067.73781178 0 -5978.81219861 0 315
0.01750000 0.01747870 76395.28418906 0 666.15580834 0 29269.75525144 0 6136.68713813 0 -1318.92175352 0 297
0.01850000 0.01844180 66746.53441460 0 1722.13513589 0 36741.30338582 0 13465.84994970 0 11533.58208904 0 388
0.01950000 0.01947590 73914.02294671 0 2239.12638496 0 25231.10185030 0 6066.28694260 0 7073.05582532 0 399
0.02050000 0.02045430 70392.55188570 0 1725.74338478 0 33161.26853451 0 -3674.15281988 0 17738.75851207 0 462
0.02150000 0.02154770 66893.22490664 0 -160.68510220 0 20873.55118793 0 7022.27056532 0 5241.69528627 0 571
0.02250000 0.02255340 66159.54763342 0 -1618.79983372 0 24254.40170829 0 8583.69811771 0 -387.23479736 0 510
0.02350000 0.02348930 70449.65439141 0 -3810.29958154 0 10080.99775768 0 4740.08124740 0 -1708.08432248 0 555
0.02450000 0.02439640 70724.71311480 0 -1825.81889823 0 4430.91838970 0 7493.44492201 0 -19915.06090010 0 592
0.02550000 0.02547300 73032.08149035 0 -2269.12768176 0 -5002.73029238 0 572.45149571 0 -10210.17531588 0 837
0.02650000 0.02652900 71255.83386184 0 -871.88444614 0 -18203.89663932 0 5842.31697678 0 -17727.63026785 0 723
0.02750000 0.02749970 72351.23527558 0 -1181.93194306 0 -14922.41347142 0 -4030.58261391 0 -12247.25100395 0 826
0.02850000 0.02848090 71829.89389467 0 1247.85835960 0 -19827.15901138 0 -173.82205071 0 -12703.84623664 0 831
0.02950000 0.02946900 69274.21954447 0 55.84490171 0 -14674.21990328 0 -4844.01230406 0 -13097.04419921 0 996
0.03050000 0.03053250 68749.05634232 0 2804.66600454 0 -7453.73170297 0 -9379.70479922 0 -8915.10622321 0 1041
0.03150000 0.03150510 67385.90262817 0 3172.12287694 0 3352.92874394 0 -13756.19595808 0 -11988.26641111 0 1036
0.03250000 0.03246190 65746.34131255 0 3249.02016859 0 7006.75846731 0 -11154.22136752 0 -541.80498556 0 1059
0.03350000 0.03345080 66791.83423704 0 2507.00233253 0 20206.75578657 0 -5111.14636868 0 2771.98943287 0 1302
0.03450000 0.03451200 61150.03922865 0 2795.35874574 0 22461.63032320 0 1943.67712115 0 10501.16204135 0 1339
0.03550000 0.03553350 60750.32168866 0 1915.65417888 0 21549.33910988 0 7399.99015183 0 5446.25264828 0 1365
0.03650000 0.03647120 58173.85213461 0 2701.38690562 0 19031.54575264 0 8568.41083271 0 10233.91557022 0 1308
0.03750000 0.03744890 54521.31508608 0 3153.54208128 0 11003.15826235 0 9366.89045739 0 1357.09500340 0 1579
0.03850000 0.03847530 52329.27578703 0 3737.39272090 0 9561.97195082 0 3005.57015506 0 7488.57772024 0 1662
0.03950000 0.03950240 50653.18235653 0 1552.37882855 0 9285.26085178 0 586.11900294 0 10435.60656629 0 1683
0.04050000 0.04050350 48254.76471006 0 1357.62331399 0 12996.66518819 0 -1874.14245573 0 8139.14162195 0 1822
0.04150000 0.04152450 50262.56974363 0 311.13334378 0 15093.49617555 0 -1205.95321367 0 15394.40839561 0 1887
0.04250000 0.04250150 48596.25567926 0 572.12664091 0 21786.29202729 0 -2753.13886159 0 13055.22897850 0 1920
0.04350000 0.04349210 52133.68846431 0 2903.03293909 0 28403.10108008 0 75.51109460 0 30248.02908456 0 2005
0.04450000 0.04448520 48339.96884260 0 1932.76244929 0 28870.93696351 0 2537.19472040 0 22268.29113063 0 2151
0.04550000 0.04548030 47571.55795863 0 2773.01233208 0 31801.37460908 0 5549.04839921 0 32830.23137048 0 2274
0.04650000 0.04648670 46234.14533465 0 688.11554360 0 25343.84557714 0 5847.03805009 0 24920.52267061 0 2311
0.04750000 0.04749250 43551.45163120 0 816.48939528 0 23335.70332404 0 7339.87515172 0 20320.96079799 0 2568
0.04850000 0.04851840 41819.60457307 0 1258.12107372 0 18329.90433401 0 3874.06779313 0 17255.29812413 0 2493
0.04950000 0.04949480 38989.88315805 0 1707.63469645 0 13414.36776935 0 3365.33842235 0 6929.82745370 0 2644
0.05050000 0.05050630 37694.73538083 0 2022.13686325 0 11918.01234404 0 -758.82710516 0 6340.27780416 0 2829
0.05150000 0.05149060 35787.08454527 0 1395.76284192 0 9172.19114608 0 -1981.27709784 0 -2488.36533362 0 2784
0.05250000 0.05249300 35858.46267741 0 809.33696922 0 14346.89215399 0 -3526.73168555 0 1070.84171595 0 3055
0.05350000 0.05348950 35104.66463939 0 370.42777638 0 12446.88496093 0 -4382.99949563 0 -6031.71070095 0 3009
0.05450000 0.05448610 36171.17758075 0 -1102.68872760 0 14816.97616756 0 -2026.86917721 0 -4170.92213829 0 3336
0.05550000 0.05550870 36333.15535778 0 -875.12737388 0 14376.45506542 0 -352.38540790 0 -6916.48480129 0 3349
0.05650000 0.05647670 38126.93840143 0 -983.80198515 0 13266.55321224 0 2139.95012356 0 -9161.31019617 0 3324
0.05750000 0.05747970 36839.77148623 0 -133.07918807 0 11444.66854176 0 1830.45004634 0 -10054.88572603 0 3639
0.05850000 0.05849280 38337.02616360 0 394.48726521 0 12717.22261101 0 2374.67739213 0 -9756.91855645 0 3846
0.05950000 0.05951020 37167.66126805 0 1282.99663378 0 10792.09256357 0 -79.29806983 0 -7288.46041528 0 3787
0.06050000 0.06049470 36364.40436681 0 1519.92706989 0 11652.17095425 0 2347.51997996 0 -4378.41331013 0 3930
0.06150000 0.06148310 34547.69039567 0 1582.91967659 0 12234.99869465 0 1132.57424570 0 -2616.09284788 0 4083
0.06250000 0.06249100 33494.55382869 0 965.57526999 0 12353.36274685 0 2098.11242154 0 -1695.10137088 0 4303
0.06350000 0.06350600 33361.35211752 0 1131.61879039 0 14056.88336513 0 1821.05286232 0 3595.74928104 0 4470
0.06450000 0.06451750 31906.36228690 0 788.73285643 0 12773.42586467 0 1134.13669615 0 -182.22893339 0 4479
0.06550000 0.06550280 31947.50306858 0 114.81875096 0 11909.24463647 0 1041.31702274 0 4429.65943682 0 4636
0.06650000 0.06648880 30883.91269641 0 239.19992349 0 11101.34534648 0 56.54699275 0 -1135.83403441 0 4653
0.06750000 0.06749660 32406.00921190 0 -251.31284872 0 11167.19307846 0 355.37429693 0 909.82389049 0 5220
0.06850000 0.06852730 31312.18148926 0 -335.59637196 0 10619.00902362 0 -527.84522142 0 -1771.14437308 0 5029
0.06950000 0.06949320 32334.74348626 0 -19.03491795 0 8623.34389283 0 1134.08049290 0 -2180.85485157 0 5040
0.07050000 0.07048030 31849.59700071 0 -283.56564786 0 9850.86791526 0 259.96927385 0 -1670.43938318 0 5475
0.07150000 0.07148790 31922.43641745 0 -91.42088683 0 8348.07159708 0 2743.65175237 0 -4029.68336185 0 5509
0.07250000 0.07249820 31047.80138407 0 702.45973800 0 8264.90202233 0 618.73712323 0 -2353.08410207 0 5916
0.07350000 0.07351270 30703.05062615 0 1275.40919454 0 8311.86546108 0 1121.35045595 0 -912.74533562 0 5721
0.07450000 0.07449140 29257.61534865 0 1218.31792948 0 8355.49042657 0 -437.32650921 0 -306.95406984 0 6028
0.07550000 0.07549160 28586.88571953 0 851.72546312 0 9672.02916213 0 31.09006623 0 3567.15306558 0 6183
0.07650000 0.07648840 28337.23086680 0 346.58073586 0 7912.53010321 0 861.44300568 0 1913.13627311 0 6330
0.07750000 0.07749960 28398.71722630 0 91.51587033 0 9908.03786488 0 489.04137103 0 3361.46039785 0 6583
0.07850000 0.07848650 28255.39892948 0 391.70408009 0 8093.93172471 0 379.69232072 0 2990.31659201 0 6549
0.07950000 0.07947320 27239.58132292 0 980.40618456 0 8754.35367710 0 385.02488542 0 2906.11287739 0 6828
0.08050000 0.08048110 26384.16780229 0 1293.10197879 0 7020.52826445 0 -113.82058117 0 268.14572319 0 7147
0.08150000 0.08149960 25329.68235722 0 1370.99968836 0 8341.25976274 0 -479.90834231 0 2085.30932036 0 7386
0.08250000 0.08250610 24289.02291254 0 1300.19482940 0 7388.90687021 0 -488.71988842 0 -227.35115355 0 7227
0.08350000 0.08350160 23219.36258898 0 605.63164854 0 8739.34740838 0 -423.53423076 0 -37.33143755 0 7798
0.08450000 0.08449610 22878.43365231 0 423.14755238 0 8605.40381427 0 361.87588931 0 998.04613775 0 7371
0.08550000 0.08548940 22864.04561937 0 313.37248140 0 9311.81126881 0 187.74696883 0 -555.33086058 0 8256
0.08650000 0.08650700 22784.91143823 0 110.50189145 0 9430.10787710 0 1092.06181640 0 1620.07002725 0 8037
0.08750000 0.08749060 22585.83951378 0 721.83075141 0 10076.09683396 0 772.01800879 0 69.27242104 0 8155
0.08850000 0.08849210 21677.48252821 0 918.46008245 0 9515.63798851 0 177.39882577 0 2175.30197011 0 8718
0.08950000 0.08949900 20988.99267094 0 971.49796886 0 9628.65149096 0 729.20237016 0 1710.37741523 0 8571
0.09050000 0.09049190 20479.56637981 0 835.45237306 0 10309.46398379 0 -135.68139871 0 3430.14077382 0 8932
0.09150000 0.09150830 19742.74172439 0 354.58969950 0 8760.17633418 0 596.90890357 0 1914.04676582 0 9285
0.09250000 0.09250820 19877.17990713 0 -66.23901903 0 10251.10252519 0 223.61026499 0 2966.67750353 0 9204
0.09350000 0.09350330 19931.92187619 0 -244.43694267 0 8786.16471867 0 559.41121680 0 2969.61131337 0 9349
0.09450000 0.09448040 20267.68011353 0 -326.02608193 0 9204.37312912 0 1157.16878950 0 1999.89161546 0 9564
0.09550000 0.09549270 20119.75314991 0 -51.36527758 0 7972.07183013 0 1299.39674320 0 2829.50784266 0 10155
0.09650000 0.09649430 20254.41614567 0 112.89772375 0 7822.54869411 0 1501.59356855 0 2169.28822197 0 9913
0.09750000 0.09749140 19653.82817711 0 315.56440830 0 6592.32691551 0 1457.21547946 0 2817.27801466 0 10476
0.09850000 0.09850240 19461.05101707 0 378.90997143 0 5768.45466083 0 1148.51348844 0 1132.61920831 0 10575
0.09950000 0.09950330 18701.96987321 0 431.29365196 0 5167.87793292 0 388.06210925 0 937.31290185 0 10882
0.10050000 0.10051200 18282.58119444 0 609.14772409 0 4765.17037983 0 -188.02686104 0 369.36665896 0 10875
0.10150000 0.10150300 17662.99652614 0 728.43688184 0 5680.45160626 0 -833.68534277 0 -499.79305345 0 11118
0.10250000 0.10250800 17117.82496569 0 694.19898378 0 4841.08973487 0 -481.97774611 0 -165.13639989 0 11575
0.10350000 0.10349800 16738.67781653 0 312.88351310 0 5983.80304753 0 -401.98590331 0 -867.14201560 0 11364
0.10450000 0.10450100 16584.00646248 0 79.54311602 0 5120.47610879 0 426.50963101 0 -1065.49341434 0 12093
0.10550000 0.10551000 16557.92815278 0 -0.06041108 0 6122.64756536 0 462.62246961 0 -903.20876754 0 12067
0.10650000 0.10649700 16688.31970126 0 -91.59275638 0 5138.77588818 0 1026.62998850 0 372.65342523 0 12054
0.10750000 0.10749900 16916.72972411 0 -174.39195170 0 5191.75307508 0 763.93822904 0 58.51612995 0 12807
0.10850000 0.10850100 16876.03856847 0 43.97499935 0 4667.81510385 0 494.64146322 0 731.63484697 0 12736
0.10950000 0.10950300 16856.92946222 0 189.58818742 0 4189.40176809 0 527.61253995 0 871.28981572 0 12933
0.11050000 0.11050200 16520.04715982 0 468.17197888 0 4840.62886819 0 -489.26618404 0 856.98721173 0 13428
0.11150000 0.11150900 16074.24295182 0 467.15020373 0 4230.23905220 0 -417.54633612 0 726.51697870 0 13453
0.11250000 0.11250000 15734.77529975 0 432.15918207 0 5450.31052319 0 -474.87477891 0 105.35131288 0 13668
0.11350000 0.11349100 15524.91235060 0 245.09002447 0 5054.18999143 0 -546.16523398 0 -16.22194510 0 13791
0.11450000 0.11448600 15648.67191515 0 -2.07289964 0 5623.07932492 0 73.68707421 0 -262.82777133 0 14205
0.11550000 0.11549300 15695.32061568 0 -105.75103042 0 5699.76304421 0 7.63269410 0 -194.74427391 0 14776
0.11650000 0.11649800 15771.98185367 0 -121.62271684 0 5415.97033521 0 484.73732586 0 -246.92337461 0 14553
0.11750000 0.11747300 15848.53068515 0 10.82974874 0 5451.73808583 0 654.04850343 0 402.05671941 0 14568
0.11850000 0.11849100 15956.77815169 0 175.85660849 0 5381.27044640 0 651.01577587 0 846.94706250 0 16015
0.11950000 0.11950300 15534.69171674 0 277.95206689 0 4702.96461869 0 581.38668898 0 1113.61239198 0 15270
0.12050000 0.12050700 15416.44007105 0 164.90371842 0 4547.38277192 0 1043.42576882 0 1873.67034840 0 15999
0.12150000 0.12150000 15160.04082787 0 152.38388163 0 4213.54668586 0 471.33734613 0 1208.77461701 0 15670
0.12250000 0.12250700 15080.90664673 0 177.56069114 0 3555.15929125 0 713.88248727 0 1846.18695736 0 16887
0.12350000 0.12352200 14833.49992414 0 226.79923760 0 3938.28563076 0 39.81460970 0 1276.30844660 0 16407
0.12450000 0.12449800 14792.47154897 0 195.44793865 0 3314.93534447 0 -512.90414846 0 1097.37864420 0 16306
0.12550000 0.12549900 14398.93636688 0 238.57719144 0 3833.77006026 0 -66.28027222 0 710.69126653 0 17523
0.12650000 0.12650100 14363.86553660 0 414.46302562 0 4197.04541059 0 -750.34041386 0 437.51984840 0 17154
0.12750000 0.12750600 13995.28459913 0 374.08436007 0 4116.42746355 0 -423.47015905 0 -88.69693994 0 18007
0.12850000 0.12850300 13808.80220350 0 297.16009085 0 5023.82899380 0 -90.11281231 0 537.36717665 0 17496
0.12950000 0.12949900 13400.09214292 0 327.98645142 0 4195.87638291 0 334.25311420 0 471.74538175 0 18405
0.13050000 0.13049000 13099.96676840 0 286.20832485 0 4382.21265008 0 820.27974270 0 287.04238113 0 18100
0.13150000 0.13148800 12890.44103878 0 199.32371502 0 3554.70966522 0 683.66424591 0 505.87536956 0 19059
0.13250000 0.13249300 12586.38143651 0 209.08622018 0 2898.54791945 0 864.02610722 0 188.65296528 0 18957
0.13350000 0.13349100 12370.89816199 0 -22.51592267 0 2325.33093542 0 637.04477107 0 521.58305489 0 19468
0.13450000 0.13450700 12467.34294526 0 -138.34655700 0 2373.54208640 0 256.76568839 0 648.96098491 0 19953
0.13550000 0.13551000 12560.97756585 0 -75.58730621 0 2158.10377449 0 426.20276125 0 714.55355412 0 19956
0.13650000 0.13649900 12696.20259415 0 30.67517381 0 2118.97506930 0 147.57737938 0 923.65101496 0 19723
0.13750000 0.13749600 12507.47206837 0 220.20097562 0 2637.57373142 0 -82.49097667 0 1236.25800805 0 20946
0.13850000 0.13851100 12452.16806678 0 372.69051938 0 3122.14694379 0 -109.28947486 0 2000.26255693 0 20955
0.13950000 0.13949800 12333.91642109 0 346.02207552 0 3392.40590931 0 -37.89257083 0 2252.31166827 0 20506
0.14050000 0.14048300 11967.92083329 0 155.37501879 0 3865.65978639 0 -210.46544803 0 2412.81692006 0 21447
0.14150000 0.14148400 11862.82074895 0 53.18862354 0 3683.51628194 0 -240.29139068 0 1970.41862924 0 21771
0.14250000 0.14249400 11954.43205241 0 38.58308401 0 3988.45265497 0 -64.69163105 0 1710.72587540 0 22470
0.14350000 0.14350900 12026.82184312 0 86.38159070 0 3592.50073297 0 -424.66504023 0 999.89072854 0 22519
0.14450000 0.14449900 11882.49188773 0 156.53842614 0 3843.45950119 0 -148.25743875 0 522.45195720 0 22218
0.14550000 0.14550500 11852.02972425 0 202.88138098 0 3731.18788169 0 -639.58965440 0 336.25057784 0 23559
0.14650000 0.14650700 11663.52401149 0 173.16672077 0 3658.00000478 0 23.96068350 0 -538.72841945 0 23044
0.14750000 0.14750500 11412.85750019 0 295.14126998 0 3787.05391583 0 -235.87606307 0 -124.98591954 0 23649
0.14850000 0.14849900 11325.40523750 0 261.91165829 0 3863.19808388 0 20.84151533 0 -701.04341601 0 23640
0.14950000 0.14949500 11046.45724896 0 268.11087717 0 4033.64007091 0 198.44919240 0 -206.04337603 0 24457
0.15050000 0.15050000 10857.26585651 0 287.32114927 0 4294.46813047 0 66.18675001 0 -375.40963279 0 24591
0.15150000 0.15149900 10598.84329620 0 264.56107967 0 4273.60548272 0 351.63790462 0 18.18883417 0 25020
0.15250000 0.15250500 10273.05551607 0 269.35858940 0 4204.79021894 0 365.74379722 0 286.72651885 0 25297
0.15350000 0.15350100 10116.31588227 0 358.37442661 0 4136.01991777 0 384.24703239 0 652.26236403 0 25452
0.15450000 0.15450400 9790.44941758 0 207.86323738 0 3848.23677775 0 628.85146075 0 859.29604139 0 26061
0.15550000 0.15549900 9590.06233700 0 133.81769882 0 3587.80214097 0 648.81148426 0 834.88134800 0 26128
0.15650000 0.15649500 9493.66251633 0 78.32609077 0 3003.60304118 0 445.40404083 0 883.58371543 0 26331
0.15750000 0.15749700 9423.04874844 0 -46.20334595 0 2754.27416731 0 388.03175949 0 650.81007196 0 27345
0.15850000 0.15849900 9487.82861860 0 -80.87468351 0 2216.02684771 0 55.37290679 0 530.39347694 0 26980
0.15950000 0.15949700 9557.98151982 0 -34.84556764 0 2327.46665906 0 -89.97207936 0 137.80588170 0 27777
0.16050000 0.16050000 9649.28932570 0 25.01258360 0 2040.16686702 0 -13.08085766 0 32.08542585 0 28224
0.16150000 0.16150500 9498.90065957 0 80.50273037 0 2026.04860971 0 -50.53920216 0 -184.28822060 0 28075
0.16250000 0.16249700 9567.91825506 0 107.40745271 0 2011.14350684 0 297.23877541 0 16.36560062 0 28590
0.16350000 0.16349900 9345.67934946 0 29.10755266 0 2090.42381644 0 349.36392098 0 132.52952025 0 29163
0.16450000 0.16449100 9458.37811369 0 32.97006507 0 1861.42927975 0 245.24851765 0 72.29615609 0 28996
0.16550000 0.16550500 9331.62853605 0 53.86991938 0 2080.01497387 0 307.76114856 0 335.81556465 0 30777
0.16650000 0.16650700 9309.34956630 0 115.52466382 0 1956.32285322 0 84.21945154 0 310.71519157 0 29211
0.16750000 0.16749900 9320.97239915 0 128.58517591 0 1969.89031865 0 -12.17103939 0 797.74898238 0 30922
0.16850000 0.16850800 9200.74239893 0 156.16748467 0 2293.37376539 0 -126.69674658 0 775.93087931 0 30867
0.16950000 0.16949900 9136.65944912 0 164.88236118 0 1940.23748203 0 78.99209932 0 936.74637306 0 30852
0.17050000 0.17049200 9079.11855802 0 126.16393974 0 2365.15656096 0 70.84667418 0 1100.49567665 0 31257
0.17150000 0.17149500 8850.66357257 0 160.37823243 0 2150.24655963 0 86.30144487 0 916.67843931 0 32608
0.17250000 0.17250900 8830.79010208 0 56.47291687 0 1972.64427808 0 304.80036116 0 1030.26296681 0 32361
0.17350000 0.17350400 8679.41225868 0 68.29628293 0 1839.93715555 0 98.75046555 0 167.88811119 0 32508
0.17450000 0.17449800 8646.28606098 0 51.16676769 0 1584.93175307 0 -135.25200586 0 180.56531708 0 32791
0.17550000 0.17549800 8683.03174822 0 42.54372729 0 1746.94325206 0 -80.97719824 0 -328.56422087 0 33633
0.17650000 0.17650100 8461.95062964 0 129.20228763 0 1414.98435467 0 -131.52460607 0 15.10507405 0 33984
0.17750000 0.17750300 8516.14180681 0 100.52401542 0 1581.31226353 0 64.91914183 0 -250.64627813 0 34069
