### header ###
fiducial parameters:
Omega_m = 0.31
Omega_nu = 0
Omega_de = 0.69
Omega_k = 0
H_0 = 100
w_de = -1
zeff = 0
beta = 0
fgrowth = 0
b_1 = 2
gamma = 0.55
Lx = 3500 Ly = 3500 Lz = 3500
nx = 700 ny = 700 nz = 700
xoffset = 857.220397 yoffset = 15.9954215 zoffset = 262.898189
bins = 400 dk = 0.001
kx_ny = 0.628318531 ky_ny = 0.628318531 kz_ny = 0.628318531
############################
A(data) = 3.07784998 (not used)
A(ran) = 3.07712563 (used)
Ngal = 187875
weighted Ngal = 0
Nran = 9360983
weighted Nran = 0
SN(data) = 3444.98914
SN(ran) = 69.1006772
SN(data+ran) = 3514.08982
############################
13 columns: k_central k_mean P_0(k) sigma^{lin}_{P_0(k)} P^img_1(k) sigma^{lin}_{P_1(k)} P_2(k) sigma^{lin}_{P_2(k)} P^img_3(k) sigma^{lin}_{P_3(k)} P_4(k) sigma^{lin}_{P_4(k)} N_modes
### header ###
0.00050000 0 0 0 0 0 0 0 0 0 0 0 0
0.00150000 0.00179520 23776.56164571 0 -35362.18794764 0 -29640.69672557 0 31235.52025128 0 -19439.24415465 0 3
0.00250000 0.00253879 37961.02639664 0 -28903.08522460 0 -4454.04040825 0 -39488.51842448 0 -12276.92632188 0 6
0.00350000 0.00331552 54736.34873456 0 -20912.55624597 0 -26288.50986457 0 -991.17247983 0 30361.22243742 0 7
0.00450000 0.00420575 61935.98552776 0 -14739.19086450 0 -20698.87147557 0 -20323.09652163 0 16374.70554586 0 24
0.00550000 0.00557378 68495.80448135 0 4195.29186907 0 -13422.79825740 0 -26933.27359050 0 -5370.56934690 0 45
0.00650000 0.00659388 58538.16162480 0 2743.40445806 0 -19162.61174016 0 7842.82682803 0 19251.86250697 0 40
0.00750000 0.00754703 50095.75848678 0 13825.88799261 0 3843.43701989 0 -31730.78332249 0 -1826.51581858 0 57
0.00850000 0.00846663 47551.32478731 0 4464.79771100 0 -15109.90752561 0 -2345.58658804 0 6038.96092067 0 75
0.00950000 0.00948925 53800.45215470 0 -18037.64741501 0 -2644.86891375 0 13972.35367164 0 -9093.37170315 0 112
0.01050000 0.01054430 63363.66057710 0 -13331.52417346 0 -4126.72389962 0 -10905.26343513 0 -18414.88365354 0 105
0.01150000 0.01145670 75834.03849807 0 -6111.05845446 0 2923.90682749 0 -14527.64181775 0 -32715.12710700 0 144
0.01250000 0.01249090 73612.09906807 0 8030.00614400 0 5350.51602600 0 -23954.72595980 0 -15679.35889164 0 169
0.01350000 0.01339930 64372.62138672 0 17392.43406305 0 -535.28316001 0 -28958.61403921 0 -9969.62539024 0 180
0.01450000 0.01448870 56688.06292098 0 3078.34212789 0 12723.62978193 0 -363.35628301 0 -799.11921770 0 267
0.01550000 0.01550050 53575.75154659 0 629.74509249 0 8590.26265773 0 8665.30524201 0 -12305.92720077 0 238
0.01650000 0.01653350 55672.13290792 0 -4092.50735879 0 2747.06891019 0 14856.88047766 0 -9717.75612931 0 315
0.01750000 0.01747870 56719.53674303 0 -3343.10441521 0 -4004.53802617 0 8829.56487115 0 -763.32111732 0 297
0.01850000 0.01844180 55673.36937950 0 -681.50941317 0 -5708.37338267 0 4974.06663302 0 5442.54323353 0 388
0.01950000 0.01947590 56964.35811595 0 -4238.02882315 0 -2805.67766311 0 2864.85968920 0 -5153.73719430 0 399
0.02050000 0.02045430 61936.32274728 0 -6573.54378813 0 -5136.89869951 0 1321.23732757 0 8391.31438045 0 462
0.02150000 0.02154770 66796.78012336 0 -2903.15658625 0 -6286.16531155 0 146.46680309 0 8198.89692123 0 571
0.02250000 0.02255340 73031.18223829 0 -2090.40133514 0 -6466.27425821 0 1886.79942845 0 23345.81990970 0 510
0.02350000 0.02348930 74749.09088951 0 -1345.07874777 0 -4292.00642796 0 8523.84165256 0 22130.70556568 0 555
0.02450000 0.02439640 71095.65458892 0 1421.91983617 0 -1704.52103620 0 -1364.97469957 0 12149.12012307 0 592
0.02550000 0.02547300 74192.56627182 0 1955.07514099 0 -3826.14889907 0 -5121.71258037 0 16762.39558958 0 837
0.02650000 0.02652900 69294.34030928 0 3102.11610418 0 13285.21269245 0 -10765.29485223 0 10899.90164473 0 723
0.02750000 0.02749970 71224.47244630 0 6046.86309813 0 20963.02676775 0 -18532.68567320 0 18834.60955183 0 826
0.02850000 0.02848090 64023.14955549 0 4030.11050658 0 19881.90098044 0 -6020.84099169 0 4252.09087722 0 831
0.02950000 0.02946900 60097.01506817 0 2953.51470152 0 25148.82028695 0 -4852.25170105 0 2787.09686745 0 996
0.03050000 0.03053250 61629.79020185 0 348.06225362 0 21216.72825475 0 5497.53249691 0 -4034.35947256 0 1041
0.03150000 0.03150510 59281.28104462 0 -1531.83091902 0 25221.88451671 0 2176.49347909 0 -12106.40565029 0 1036
0.03250000 0.03246190 61612.25478671 0 -33.33437456 0 14951.07713078 0 4167.93212519 0 -9973.99800337 0 1059
0.03350000 0.03345080 59145.15676427 0 186.16765741 0 21603.29423338 0 -4968.30017919 0 -14645.44383741 0 1302
0.03450000 0.03451200 58222.41174576 0 3642.20689051 0 9258.39569653 0 -2348.21690031 0 -11309.89313949 0 1339
0.03550000 0.03553350 55028.60565357 0 3617.47745890 0 18558.42676337 0 579.46004144 0 -13845.10950536 0 1365
0.03650000 0.03647120 52747.76521374 0 2259.56188799 0 12640.78618604 0 4432.91922553 0 -12538.38385788 0 1308
0.03750000 0.03744890 51213.75360848 0 2844.68272114 0 14223.80702849 0 4865.32457785 0 -10069.85827280 0 1579
0.03850000 0.03847530 47906.19213089 0 2195.29908776 0 12721.83127781 0 3286.02439079 0 -7638.84273921 0 1662
0.03950000 0.03950240 44811.19135862 0 1317.91009496 0 11430.73013485 0 1816.08449470 0 -4327.77417859 0 1683
0.04050000 0.04050350 47272.78146220 0 438.43258924 0 14532.36289105 0 -3018.33953429 0 -2317.83342138 0 1822
0.04150000 0.04152450 47115.63716498 0 42.00957157 0 14175.47223035 0 -1527.97537582 0 6184.28005332 0 1887
0.04250000 0.04250150 48003.76097923 0 -96.69117834 0 15684.41718447 0 -1610.13329201 0 487.03491487 0 1920
0.04350000 0.04349210 47060.89519592 0 -436.33171162 0 17532.60497766 0 2773.37203291 0 8410.51341189 0 2005
0.04450000 0.04448520 48427.98313782 0 653.88214180 0 17408.05856756 0 3907.71106077 0 1063.46447688 0 2151
0.04550000 0.04548030 46103.41656665 0 2287.23637009 0 15008.29204300 0 6712.19721490 0 11649.92282411 0 2274
0.04650000 0.04648670 42285.19232635 0 1879.11082335 0 7406.23995364 0 4807.37902333 0 2042.89834515 0 2311
0.04750000 0.04749250 41690.11227665 0 2029.10606670 0 6041.43386383 0 3362.26972470 0 6272.22690464 0 2568
0.04850000 0.04851840 38261.15177116 0 1798.24558199 0 2354.42173951 0 -141.00159870 0 91.88849790 0 2493
0.04950000 0.04949480 38275.76461711 0 869.87236966 0 2880.78769129 0 -855.36855803 0 3113.64901183 0 2644
0.05050000 0.05050630 36418.02227080 0 1164.84615395 0 4555.64465021 0 -3325.33294640 0 -2329.75975181 0 2829
0.05150000 0.05149060 37113.03170550 0 989.68309361 0 5586.96311413 0 -5004.25902088 0 -2371.27147496 0 2784
0.05250000 0.05249300 35791.24358604 0 1353.05960979 0 9530.39696292 0 -1880.94304942 0 -2865.68025671 0 3055
0.05350000 0.05348950 34967.52870047 0 639.59302659 0 7989.75337373 0 -2937.75530920 0 -6180.09853125 0 3009
0.05450000 0.05448610 35301.71324671 0 859.67822352 0 13179.88779510 0 51.71059037 0 1878.80732578 0 3336
0.05550000 0.05550870 35790.56914700 0 -352.42924643 0 9523.38279687 0 3216.53468797 0 -2084.25269919 0 3349
0.05650000 0.05647670 34870.85910419 0 -31.13514124 0 12129.56139080 0 2362.53748934 0 3240.99434397 0 3324
0.05750000 0.05747970 35180.76384484 0 420.47789783 0 9708.38142660 0 3909.84678441 0 2578.51535248 0 3639
0.05850000 0.05849280 33474.32065737 0 506.08444567 0 7834.02539850 0 2920.86061115 0 2375.37431247 0 3846
0.05950000 0.05951020 34138.86792859 0 630.46786633 0 9856.43203737 0 1290.47166652 0 6517.99249222 0 3787
0.06050000 0.06049470 32513.69464590 0 -15.57077421 0 7729.30749629 0 -438.22913346 0 563.11950748 0 3930
0.06150000 0.06148310 34075.35825196 0 955.53736888 0 11937.23385679 0 -388.16552324 0 7664.42646028 0 4083
0.06250000 0.06249100 33224.55339813 0 639.12766365 0 11756.93381907 0 -1662.45852116 0 3308.58437681 0 4303
0.06350000 0.06350600 32268.98567949 0 782.56623544 0 12488.36296213 0 -1939.49559908 0 4934.03867577 0 4470
0.06450000 0.06451750 32766.15966132 0 711.15887760 0 14521.23464683 0 349.28186423 0 3482.14002410 0 4479
0.06550000 0.06550280 31733.59348517 0 465.66194157 0 12695.64056161 0 940.59179967 0 2623.59036191 0 4636
0.06650000 0.06648880 32400.50129304 0 372.13523123 0 13419.98809472 0 1330.65699288 0 2081.04911373 0 4653
0.06750000 0.06749660 30971.02773958 0 442.66244611 0 11442.19559860 0 1106.99389683 0 1305.14071572 0 5220
0.06850000 0.06852730 30598.84979387 0 770.69048794 0 9496.76493593 0 2347.34012955 0 3318.24009579 0 5029
0.06950000 0.06949320 29950.93868574 0 47.26671151 0 10215.79564124 0 2241.30707120 0 1789.19685815 0 5040
0.07050000 0.07048030 29579.88480511 0 541.69370312 0 7485.44157869 0 2600.00747668 0 3159.91553024 0 5475
0.07150000 0.07148790 29130.25877587 0 -323.18107323 0 6960.21093263 0 1683.20876241 0 1140.17292560 0 5509
0.07250000 0.07249820 29489.06034720 0 -105.53341142 0 6151.14261497 0 65.17003315 0 1606.09789840 0 5916
0.07350000 0.07351270 29645.86742490 0 -174.49086943 0 6756.86756091 0 -1319.87720883 0 -180.28430081 0 5721
0.07450000 0.07449140 29596.74578121 0 310.15877936 0 6944.94612894 0 -1499.36791971 0 -150.41564369 0 6028
0.07550000 0.07549160 29072.36942461 0 509.34198625 0 7460.89199749 0 -1233.45908601 0 -1115.97967303 0 6183
0.07650000 0.07648840 29465.23016765 0 761.46191369 0 8254.50442040 0 -674.85719607 0 -2346.63196855 0 6330
0.07750000 0.07749960 27968.87474234 0 1228.29962733 0 7748.51776839 0 656.69118042 0 -4118.96785061 0 6583
0.07850000 0.07848650 27161.00917431 0 1361.50133849 0 7099.44887323 0 626.77643663 0 -3452.13872730 0 6549
0.07950000 0.07947320 26200.49556935 0 694.31925874 0 7847.40177287 0 353.09806515 0 -2755.17341937 0 6828
0.08050000 0.08048110 25825.39505445 0 823.18095466 0 7726.20507669 0 -210.65091876 0 -2835.42042494 0 7147
0.08150000 0.08149960 24590.27235213 0 687.36129594 0 6986.86251551 0 684.15321422 0 -2265.83417110 0 7386
0.08250000 0.08250610 24670.19337883 0 774.75735537 0 8161.90393968 0 431.66571750 0 -669.57296616 0 7227
0.08350000 0.08350160 23641.44902393 0 548.81915162 0 7838.85887832 0 966.52847717 0 -767.67462135 0 7798
0.08450000 0.08449610 24179.76378744 0 266.45400525 0 9230.35027296 0 -61.61832474 0 1342.06625338 0 7371
0.08550000 0.08548940 23656.28668289 0 -122.62538289 0 7057.49876471 0 -444.25749445 0 -1704.67840531 0 8256
0.08650000 0.08650700 24394.12299688 0 51.98666075 0 9788.60595086 0 -788.45296422 0 1672.81116048 0 8037
0.08750000 0.08749060 23942.69846352 0 -7.01091751 0 8395.93428790 0 -1400.03428920 0 -1030.22362454 0 8155
0.08850000 0.08849210 24569.92677431 0 370.11303816 0 10317.43360515 0 -280.86676762 0 869.62507535 0 8718
0.08950000 0.08949900 23565.01259896 0 510.55485246 0 8995.82533611 0 48.56051041 0 -1121.35158001 0 8571
0.09050000 0.09049190 23240.15779283 0 765.95592585 0 9429.23110634 0 2427.53093186 0 -147.57513125 0 8932
0.09150000 0.09150830 21935.23064947 0 793.27183119 0 8306.91957476 0 1890.11542042 0 -947.52053678 0 9285
0.09250000 0.09250820 21208.52257971 0 760.89538489 0 8329.24350711 0 2157.98012734 0 113.38894018 0 9204
0.09350000 0.09350330 20644.69153905 0 460.53732890 0 7193.06101252 0 1212.12433093 0 173.38029314 0 9349
0.09450000 0.09448040 19888.08333834 0 585.05788551 0 7546.90545688 0 110.48356919 0 371.03814372 0 9564
0.09550000 0.09549270 19937.65460807 0 336.48213524 0 7807.83468230 0 -736.67627883 0 786.36782351 0 10155
0.09650000 0.09649430 19460.15176501 0 392.71573865 0 7749.42826110 0 -953.53990525 0 412.50827646 0 9913
0.09750000 0.09749140 19255.34710870 0 476.38215017 0 8287.27091728 0 -153.33484069 0 891.42968964 0 10476
0.09850000 0.09850240 19074.82225796 0 174.38295918 0 8222.18754955 0 469.28255517 0 -281.51422910 0 10575
0.09950000 0.09950330 18559.77564146 0 50.04180336 0 7125.30236992 0 1201.28834362 0 95.14525164 0 10882
0.10050000 0.10051200 18492.66895660 0 19.47285370 0 5922.46281649 0 1458.09225022 0 -907.14411936 0 10875
0.10150000 0.10150300 18655.54598569 0 58.96912817 0 5259.90514046 0 1189.09223758 0 -710.23489611 0 11118
0.10250000 0.10250800 18068.55920452 0 416.88988212 0 4751.63663635 0 368.66187015 0 -940.59517187 0 11575
0.10350000 0.10349800 17658.61267236 0 559.32803598 0 4790.52928788 0 574.24550357 0 -405.99431936 0 11364
0.10450000 0.10450100 17107.14634750 0 400.03565041 0 3838.23259860 0 84.24463059 0 -931.16089371 0 12093
0.10550000 0.10551000 16908.63645559 0 528.99513999 0 4267.19831180 0 374.09110446 0 -331.81164486 0 12067
0.10650000 0.10649700 16569.95564906 0 231.32809578 0 3915.35470327 0 75.62788496 0 6.57009291 0 12054
0.10750000 0.10749900 16049.85073974 0 387.79233363 0 4310.81203664 0 -229.03050677 0 -1094.27734866 0 12807
0.10850000 0.10850100 16228.80189938 0 241.74817901 0 4244.50343797 0 -767.64202346 0 -340.11511356 0 12736
0.10950000 0.10950300 15847.40662007 0 11.34563841 0 5536.90849642 0 -1065.78454719 0 -1238.44993494 0 12933
0.11050000 0.11050200 16266.12085980 0 192.80413760 0 5098.33202685 0 -889.72897918 0 -1735.15180944 0 13428
0.11150000 0.11150900 16127.86085581 0 129.36977333 0 6233.46914092 0 -1118.23567163 0 -2309.41417398 0 13453
0.11250000 0.11250000 16171.02495462 0 257.81444110 0 6189.13601444 0 -913.57601971 0 -2438.35567852 0 13668
0.11350000 0.11349100 15810.53728568 0 527.20562839 0 7340.97673549 0 127.39366693 0 -1187.58599038 0 13791
0.11450000 0.11448600 15708.02255101 0 285.94304549 0 6287.80644655 0 655.67165340 0 -2389.75110476 0 14205
0.11550000 0.11549300 15234.67874873 0 186.68247921 0 7378.38562112 0 1327.89179280 0 -880.99386950 0 14776
0.11650000 0.11649800 15133.17567263 0 166.37849179 0 6440.46572413 0 1320.12450315 0 -1231.84043231 0 14553
0.11750000 0.11747300 14911.39763370 0 45.86264183 0 6380.00226385 0 1039.55111651 0 317.42023973 0 14568
0.11850000 0.11849100 14704.00762772 0 217.51108790 0 5130.95239527 0 788.65529594 0 137.43943649 0 16015
0.11950000 0.11950300 14487.96232067 0 382.37883624 0 5533.48009795 0 401.30359581 0 1049.68343908 0 15270
0.12050000 0.12050700 14130.50962742 0 349.90347221 0 5210.58116505 0 362.34574851 0 992.31340588 0 15999
0.12150000 0.12150000 13927.72828823 0 177.03575275 0 5292.22201131 0 595.29699426 0 1704.83577442 0 15670
0.12250000 0.12250700 13793.62732501 0 -112.16056187 0 4522.66458096 0 405.84931497 0 1219.48695715 0 16887
0.12350000 0.12352200 13974.15217575 0 -57.98006332 0 4599.60683522 0 232.42181110 0 1253.51240692 0 16407
0.12450000 0.12449800 14066.66273127 0 -91.31522472 0 4654.86587421 0 262.78618092 0 1491.76923981 0 16306
0.12550000 0.12549900 14155.01424602 0 123.67413560 0 4518.85400037 0 -102.75202480 0 1205.48110634 0 17523
0.12650000 0.12650100 13889.06044972 0 230.81327398 0 4703.07702520 0 150.81243866 0 1769.76177304 0 17154
0.12750000 0.12750600 13997.53272927 0 281.67497041 0 4677.83052365 0 84.62951048 0 1781.86795388 0 18007
0.12850000 0.12850300 13552.40296033 0 275.78486942 0 4789.03428134 0 78.19749772 0 1071.10025092 0 17496
0.12950000 0.12949900 13574.77185528 0 296.80151410 0 5575.80114795 0 -216.59047861 0 2105.67737948 0 18405
0.13050000 0.13049000 13261.27010639 0 299.01142603 0 4814.21333897 0 -380.48928285 0 879.34823823 0 18100
0.13150000 0.13148800 13321.07036828 0 160.46815764 0 5829.18789673 0 -103.17737103 0 1824.53746405 0 19059
0.13250000 0.13249300 13010.26637557 0 122.73778940 0 4878.28504814 0 191.70030570 0 581.89926265 0 18957
0.13350000 0.13349100 13014.87504237 0 34.07558306 0 4952.96793160 0 522.45982565 0 414.44279245 0 19468
0.13450000 0.13450700 12721.04443226 0 199.87338284 0 4450.56704717 0 400.26158749 0 -33.05571882 0 19953
0.13550000 0.13551000 12539.95754899 0 299.66225971 0 4293.42274996 0 425.46874675 0 -433.42263121 0 19956
0.13650000 0.13649900 12194.53235202 0 369.34192952 0 4004.69539528 0 32.79381166 0 -503.73964592 0 19723
0.13750000 0.13749600 11881.03060314 0 301.25393585 0 3883.77971537 0 41.54139847 0 -390.46873257 0 20946
0.13850000 0.13851100 11572.92436660 0 274.20555800 0 3871.66229388 0 117.19839672 0 -149.91880693 0 20955
0.13950000 0.13949800 11523.91512941 0 66.37334481 0 3885.46581298 0 258.70470064 0 -626.80004200 0 20506
0.14050000 0.14048300 11420.61354919 0 -59.69190202 0 3668.22899695 0 303.38066697 0 -127.24416627 0 21447
0.14150000 0.14148400 11653.29501933 0 -197.24644277 0 3472.94517180 0 341.52131896 0 -852.81693031 0 21771
0.14250000 0.14249400 11717.02950897 0 -195.02753831 0 3109.88339384 0 292.95383935 0 -534.03319964 0 22470
0.14350000 0.14350900 11950.83504418 0 5.79342015 0 3034.35746158 0 170.11376003 0 -316.03201937 0 22519
0.14450000 0.14449900 11982.53367924 0 137.33377437 0 3306.62850358 0 155.56835799 0 -274.29548320 0 22218
0.14550000 0.14550500 11625.75542503 0 301.24831553 0 3542.86201935 0 -142.28752915 0 407.39265631 0 23559
0.14650000 0.14650700 11580.00597656 0 266.34609501 0 3735.32444116 0 -18.77042544 0 679.55241588 0 23044
0.14750000 0.14750500 11338.21957934 0 271.96304818 0 3871.37003696 0 177.53146545 0 1436.71253253 0 23649
0.14850000 0.14849900 11167.26052237 0 233.97526903 0 3723.94890262 0 594.09312056 0 1372.70826727 0 23640
0.14950000 0.14949500 10991.77148316 0 165.57141307 0 3775.71209924 0 519.15395027 0 2151.41558731 0 24457
0.15050000 0.15050000 10865.61766000 0 154.95124626 0 3456.02799245 0 719.59611004 0 1977.54520180 0 24591
0.15150000 0.15149900 10773.81526548 0 188.87440610 0 3245.08594083 0 175.67001369 0 1860.35017728 0 25020
0.15250000 0.15250500 10593.06560173 0 260.58638557 0 3145.54997861 0 -177.32463748 0 1660.04178125 0 25297
0.15350000 0.15350100 10388.56444298 0 206.52335182 0 3188.80400262 0 -695.06451389 0 1223.16264994 0 25452
0.15450000 0.15450400 10207.21902474 0 153.25390800 0 3543.67134620 0 -506.30026616 0 1282.76058012 0 26061
0.15550000 0.15549900 10092.78920029 0 105.80802052 0 3771.98020320 0 -331.05627313 0 480.88852705 0 26128
0.15650000 0.15649500 10010.84485647 0 103.22334529 0 3697.11746933 0 -100.48804534 0 400.91354523 0 26331
0.15750000 0.15749700 9922.93172710 0 127.33071929 0 3479.07132645 0 401.80830103 0 -157.23309836 0 27345
0.15850000 0.15849900 9778.54556846 0 176.47484428 0 3214.82610906 0 302.13745100 0 -31.51586208 0 26980
0.15950000 0.15949700 9519.19003414 0 191.11129560 0 2789.97447403 0 546.10003820 0 -489.27068030 0 27777
0.16050000 0.16050000 9308.00068821 0 166.82586969 0 2496.95319078 0 423.33302311 0 -519.11348393 0 28224
0.16150000 0.16150500 9136.60324586 0 145.31014013 0 2205.46063602 0 237.39917124 0 -480.82220721 0 28075
0.16250000 0.16249700 8989.55305300 0 140.49352129 0 2388.72820554 0 -19.75049777 0 -448.16586871 0 28590
0.16350000 0.16349900 9004.03101114 0 53.47863232 0 2134.08250388 0 208.50845073 0 -86.29526251 0 29163
0.16450000 0.16449100 8912.21737597 0 -13.99528460 0 2444.60548033 0 183.48339001 0 367.39954508 0 28996
0.16550000 0.16550500 9065.14642917 0 -30.14596398 0 2073.23686147 0 234.79021621 0 541.10019676 0 30777
0.16650000 0.16650700 9140.42506711 0 9.21256756 0 2493.05268498 0 490.68700229 0 1021.11307712 0 29211
0.16750000 0.16749900 9113.15524844 0 110.66544292 0 2031.70265702 0 282.51239889 0 1246.93662624 0 30922
0.16850000 0.16850800 8997.26413940 0 153.82156086 0 2366.41551384 0 77.17493572 0 1437.17339921 0 30867
0.16950000 0.16949900 8999.47854760 0 194.32050138 0 2292.32838487 0 -60.83844839 0 1670.42814253 0 30852
0.17050000 0.17049200 8780.12848923 0 116.42279182 0 2220.33201694 0 -173.56576387 0 1308.96253697 0 31257
0.17150000 0.17149500 8786.33332843 0 135.88485449 0 2476.07930237 0 -269.67220356 0 945.38144095 0 32608
0.17250000 0.17250900 8671.86978204 0 107.95363593 0 2417.08836734 0 -226.97908802 0 1014.36643855 0 32361
0.17350000 0.17350400 8541.74800918 0 140.62616097 0 2495.76168180 0 -182.13226379 0 352.81929701 0 32508
0.17450000 0.17449800 8527.66347381 0 123.87084699 0 2422.38271383 0 68.45556295 0 547.53884150 0 32791
0.17550000 0.17549800 8298.01697938 0 120.27383876 0 2271.42077451 0 311.05578329 0 327.33786587 0 33633
0.17650000 0.17650100 8257.24713918 0 121.84415766 0 2360.14323073 0 489.93500276 0 671.78512622 0 33984
0.17750000 0.17750300 8093.59450518 0 82.23952332 0 2131.27234120 0 420.50487539 0 686.68573283 0 34069
