### header ###
fiducial parameters:
Omega_m = 0.31
Omega_nu = 0
Omega_de = 0.69
Omega_k = 0
H_0 = 100
w_de = -1
zeff = 0
beta = 0
fgrowth = 0
b_1 = 2
gamma = 0.55
Lx = 3500 Ly = 3500 Lz = 3500
nx = 700 ny = 700 nz = 700
xoffset = 857.220397 yoffset = 15.9954215 zoffset = 262.898189
bins = 400 dk = 0.001
kx_ny = 0.628318531 ky_ny = 0.628318531 kz_ny = 0.628318531
############################
A(data) = 3.07354373 (not used)
A(ran) = 3.07073022 (used)
Ngal = 187134
weighted Ngal = 0
Nran = 9360983
weighted Nran = 0
SN(data) = 3447.36129
SN(ran) = 68.9570604
SN(data+ran) = 3516.31835
############################
13 columns: k_central k_mean P_0(k) sigma^{lin}_{P_0(k)} P^img_1(k) sigma^{lin}_{P_1(k)} P_2(k) sigma^{lin}_{P_2(k)} P^img_3(k) sigma^{lin}_{P_3(k)} P_4(k) sigma^{lin}_{P_4(k)} N_modes
### header ###
0.00050000 0 0 0 0 0 0 0 0 0 0 0 0
0.00150000 0.00179520 25718.72127902 0 -29092.60259592 0 -24445.94239674 0 75435.33261664 0 -12660.90695085 0 3
0.00250000 0.00253879 50188.26904230 0 -33153.40007900 0 7646.04799633 0 -30540.06119055 0 17470.44417912 0 6
0.00350000 0.00331552 60652.97765333 0 -17276.99258004 0 -10493.42847365 0 -17715.15314553 0 37812.76221350 0 7
0.00450000 0.00420575 70235.63240150 0 -800.71426604 0 3374.63444051 0 -24584.08999423 0 22030.43896116 0 24
0.00550000 0.00557378 64941.17350069 0 4538.94104322 0 2557.77635188 0 2536.70013176 0 30269.72354047 0 45
0.00650000 0.00659388 61922.38434038 0 4090.05689693 0 16466.99128837 0 33050.66053132 0 -10584.34285676 0 40
0.00750000 0.00754703 61730.61883891 0 -984.41797281 0 2896.11993889 0 14599.91920195 0 3331.90872708 0 57
0.00850000 0.00846663 60466.38285119 0 920.88469081 0 7512.62147215 0 15230.85692748 0 -4537.00765130 0 75
0.00950000 0.00948925 61396.32188617 0 1230.16557535 0 9225.35942403 0 -101.99743992 0 10583.60097381 0 112
0.01050000 0.01054430 63028.80159183 0 -2002.26339276 0 3109.36632391 0 -16727.54957231 0 -2251.82832029 0 105
0.01150000 0.01145670 63072.07809714 0 -1279.72560442 0 12714.97448087 0 -10529.14002102 0 -13267.34005779 0 144
0.01250000 0.01249090 66325.34723171 0 65.99993039 0 8819.94287412 0 -16890.98863394 0 -18867.09503245 0 169
0.01350000 0.01339930 62577.48946498 0 2956.53843657 0 11257.06208106 0 -10042.63341673 0 -17979.42084422 0 180
0.01450000 0.01448870 63755.39725508 0 2719.22581833 0 10802.43396224 0 -5095.27456985 0 -16272.52803072 0 267
0.01550000 0.01550050 62959.10955730 0 176.36243777 0 18468.27674451 0 891.94113924 0 -39515.04636020 0 238
0.01650000 0.01653350 64555.84399363 0 277.21917646 0 11979.27389052 0 7271.54323593 0 -3707.07668588 0 315
0.01750000 0.01747870 61477.70419746 0 -911.28967135 0 6373.97727506 0 20539.70386122 0 -15971.27859113 0 297
0.01850000 0.01844180 62582.43535130 0 1163.55347912 0 5320.33487879 0 9557.63305964 0 21248.31448330 0 388
0.01950000 0.01947590 60837.99876436 0 2967.25077671 0 9403.28768446 0 16579.62260869 0 13004.30883068 0 399
0.02050000 0.02045430 60742.79045267 0 4578.49689314 0 14565.86003023 0 9860.56859684 0 34881.65012889 0 462
0.02150000 0.02154770 54843.58454253 0 2539.16183427 0 11702.52906953 0 4823.29578476 0 31168.18875340 0 571
0.02250000 0.02255340 53916.45567024 0 2476.60761296 0 17688.17558378 0 5168.83338823 0 36002.23060026 0 510
0.02350000 0.02348930 52872.31162384 0 -2076.28307782 0 19362.80772968 0 1188.26042942 0 38949.41681542 0 555
0.02450000 0.02439640 54966.55726153 0 -2665.39434198 0 17127.37951881 0 3641.35260105 0 27288.92777963 0 592
0.02550000 0.02547300 57494.80442395 0 -3378.52370566 0 11899.91489636 0 1072.80320951 0 23416.52360280 0 837
0.02650000 0.02652900 59564.77025606 0 -2605.54911749 0 9736.16831520 0 3140.72773944 0 12745.77386387 0 723
0.02750000 0.02749970 62163.27148554 0 295.56841471 0 10857.08600610 0 -4401.37795958 0 10684.55325803 0 826
0.02850000 0.02848090 61930.92723493 0 -137.80925390 0 15059.77422335 0 -3011.90988207 0 3978.85313925 0 831
0.02950000 0.02946900 60434.68421613 0 1393.97557845 0 9557.31832142 0 -6715.56941012 0 11418.92745158 0 996
0.03050000 0.03053250 62112.35133773 0 1274.68979289 0 20646.04041713 0 -4131.18643796 0 8783.97279178 0 1041
0.03150000 0.03150510 62215.87773096 0 1792.52409077 0 25225.93115097 0 -2010.82876862 0 6521.26352158 0 1036
0.03250000 0.03246190 62050.97738474 0 1865.77941158 0 26908.54415889 0 1551.16483827 0 10371.23135955 0 1059
0.03350000 0.03345080 59742.70975713 0 3611.73348637 0 27790.37320874 0 868.56283385 0 5926.02610278 0 1302
0.03450000 0.03451200 58169.35587431 0 4786.92103900 0 31173.47185924 0 943.68185456 0 5789.76693461 0 1339
0.03550000 0.03553350 54186.79332032 0 3091.51617054 0 30577.94218352 0 4360.10229009 0 2769.64013686 0 1365
0.03650000 0.03647120 52458.99289646 0 2109.91510481 0 23186.65229535 0 3250.21167756 0 -2633.63950367 0 1308
0.03750000 0.03744890 50783.79871802 0 10.71848878 0 22767.26361658 0 4019.80282986 0 -2656.25569294 0 1579
0.03850000 0.03847530 48612.77943584 0 559.55734526 0 19110.34271427 0 6029.73234642 0 -3283.75377935 0 1662
0.03950000 0.03950240 47610.11339063 0 1460.00316085 0 11816.39686143 0 9204.81151450 0 -3598.13229899 0 1683
0.04050000 0.04050350 44378.87593150 0 1160.48478147 0 9099.14939763 0 8607.57325986 0 -6628.63421737 0 1822
0.04150000 0.04152450 42411.87446009 0 1516.24013645 0 5517.96799994 0 2774.32748822 0 -613.18424177 0 1887
0.04250000 0.04250150 42010.13360296 0 455.61279982 0 5274.10208233 0 5442.70060264 0 -3747.52054721 0 1920
0.04350000 0.04349210 39999.74321972 0 -172.09661082 0 4017.62214362 0 165.63773291 0 277.38891028 0 2005
0.04450000 0.04448520 41502.61822246 0 393.80046145 0 5935.92911607 0 -3763.94313792 0 -2241.26210860 0 2151
0.04550000 0.04548030 42317.56540046 0 -387.04595442 0 10322.52561993 0 -2789.65973581 0 -84.67053885 0 2274
0.04650000 0.04648670 41667.85578820 0 689.07437111 0 9426.49962822 0 -3818.44905332 0 -674.95836192 0 2311
0.04750000 0.04749250 42598.58166873 0 1133.00139043 0 12021.53873727 0 -1431.57555515 0 -1436.82493904 0 2568
0.04850000 0.04851840 40264.01091841 0 1041.89704032 0 13079.05915804 0 1239.61896261 0 -481.80576415 0 2493
0.04950000 0.04949480 41087.61339747 0 1419.33448650 0 14214.25247537 0 520.85353666 0 -2107.25107059 0 2644
0.05050000 0.05050630 39238.63875873 0 1014.96331710 0 11931.95075095 0 978.86284322 0 1427.79869650 0 2829
0.05150000 0.05149060 37151.02510497 0 1787.27470688 0 13143.58049324 0 1080.09951589 0 3191.50175880 0 2784
0.05250000 0.05249300 37386.85395731 0 2130.64286476 0 14735.48144976 0 166.91916709 0 6387.94940391 0 3055
0.05350000 0.05348950 36701.28666922 0 1384.36482208 0 17397.60476238 0 1586.95507020 0 8654.51421731 0 3009
0.05450000 0.05448610 34359.85912196 0 734.98118870 0 13765.18847866 0 3247.18794252 0 9165.51419954 0 3336
0.05550000 0.05550870 35408.94905468 0 -307.75665230 0 14627.23398322 0 3998.76033169 0 10035.90026694 0 3349
0.05650000 0.05647670 34661.33337456 0 -348.50738339 0 12481.73097820 0 4596.20091805 0 7531.28095237 0 3324
0.05750000 0.05747970 35018.89847432 0 122.07346694 0 9461.28944223 0 1753.40662623 0 5305.17124095 0 3639
0.05850000 0.05849280 35337.23370302 0 -476.23377358 0 9404.31058367 0 1501.49240269 0 5813.99053694 0 3846
0.05950000 0.05951020 34496.32062183 0 874.86321859 0 7492.59063255 0 -476.12136708 0 5278.63206457 0 3787
0.06050000 0.06049470 34728.10283990 0 728.37843046 0 7455.79998271 0 1549.02911463 0 660.98061274 0 3930
0.06150000 0.06148310 32093.06949555 0 805.77930326 0 6241.91086962 0 1652.80280218 0 1948.15090014 0 4083
0.06250000 0.06249100 32285.17221654 0 1322.48503980 0 5981.73476780 0 854.84024744 0 1771.74012757 0 4303
0.06350000 0.06350600 31272.50199218 0 822.55260228 0 7538.74474445 0 -429.39060979 0 1690.66131385 0 4470
0.06450000 0.06451750 30851.53962231 0 454.75289004 0 7067.49170321 0 -1556.85260754 0 403.13919408 0 4479
0.06550000 0.06550280 31764.84249420 0 -6.03965784 0 9383.47041722 0 -3232.29408030 0 918.61969969 0 4636
0.06650000 0.06648880 31773.72260828 0 -276.97300621 0 10621.88663020 0 -3455.82566074 0 -1459.58725677 0 4653
0.06750000 0.06749660 32211.54595425 0 -203.58504571 0 13702.57805409 0 -4018.79117130 0 -1918.88024564 0 5220
0.06850000 0.06852730 32994.56968417 0 -236.75508196 0 14614.53204790 0 -2111.44383331 0 -4093.82251493 0 5029
0.06950000 0.06949320 33171.72233969 0 129.56198846 0 16194.51791465 0 -151.13279721 0 -4716.38595566 0 5040
0.07050000 0.07048030 33632.02698713 0 -183.72169181 0 15677.67279404 0 2572.02949701 0 -2849.37007250 0 5475
0.07150000 0.07148790 33461.16909601 0 705.33734459 0 15744.89188541 0 2823.78635143 0 -1234.98781451 0 5509
0.07250000 0.07249820 32791.90075149 0 1303.16236120 0 14852.27181086 0 2956.01012598 0 -1455.57434446 0 5916
0.07350000 0.07351270 31639.17201903 0 1400.86609735 0 14232.01270352 0 1000.17062074 0 1319.67487712 0 5721
0.07450000 0.07449140 30180.92239970 0 1400.49515588 0 13209.67551954 0 1933.77410786 0 1243.12604564 0 6028
0.07550000 0.07549160 29297.85687827 0 559.96987714 0 13701.56639553 0 1068.17543360 0 1910.05633481 0 6183
0.07650000 0.07648840 28374.66223373 0 521.55495327 0 12307.27607885 0 1066.00936020 0 -276.15356277 0 6330
0.07750000 0.07749960 27993.60417395 0 518.15802862 0 11928.24133621 0 180.45291058 0 -18.60754841 0 6583
0.07850000 0.07848650 27375.70560327 0 1076.16641220 0 10803.25452975 0 540.25714795 0 -2091.91882299 0 6549
0.07950000 0.07947320 26337.96872779 0 949.55734270 0 11356.87905955 0 -214.00625301 0 -390.39454428 0 6828
0.08050000 0.08048110 25536.39792416 0 1043.89900022 0 10770.62292067 0 -484.10110503 0 -2435.41062803 0 7147
0.08150000 0.08149960 24738.64894178 0 1018.82560470 0 11510.76356806 0 -69.46384932 0 -1301.70107660 0 7386
0.08250000 0.08250610 23888.85574652 0 676.93222019 0 11059.76617943 0 1043.55728443 0 -1352.64370571 0 7227
0.08350000 0.08350160 22943.40461353 0 681.08002031 0 10319.78290116 0 2112.54541708 0 -1427.24790462 0 7798
0.08450000 0.08449610 22622.82125469 0 537.38628576 0 9586.18431250 0 2193.43313974 0 -1365.19951258 0 7371
0.08550000 0.08548940 21457.05336737 0 563.62308863 0 8333.59363894 0 2160.54299570 0 -2221.11886249 0 8256
0.08650000 0.08650700 21011.47397240 0 780.16073618 0 7815.41088089 0 791.86112953 0 -1267.43957317 0 8037
0.08750000 0.08749060 20250.93154394 0 536.91417843 0 6530.51457714 0 473.29659155 0 -1138.11588651 0 8155
0.08850000 0.08849210 20205.74412800 0 85.53989078 0 6934.91946848 0 76.14652859 0 558.82220670 0 8718
0.08950000 0.08949900 20003.74963436 0 -1.25966104 0 6217.30508517 0 42.87993516 0 -573.17651768 0 8571
0.09050000 0.09049190 20165.95222441 0 18.81538804 0 6619.37192116 0 -9.48163502 0 -341.56178531 0 8932
0.09150000 0.09150830 20238.00479560 0 -11.94645119 0 6923.35283888 0 523.43439007 0 -126.17405633 0 9285
0.09250000 0.09250820 19916.07255866 0 301.09319455 0 6460.35043527 0 199.75198382 0 -1055.35996770 0 9204
0.09350000 0.09350330 19727.90406543 0 300.16471680 0 6487.24931247 0 203.72442978 0 -692.69273658 0 9349
0.09450000 0.09448040 19384.16496607 0 545.66614909 0 6745.13232154 0 -93.14374137 0 -1490.16182676 0 9564
0.09550000 0.09549270 18980.73801134 0 592.36768068 0 7124.59420892 0 -528.12960988 0 -603.57123726 0 10155
0.09650000 0.09649430 18388.46812432 0 607.37732160 0 6442.16306239 0 -511.61372176 0 -2642.28356408 0 9913
0.09750000 0.09749140 18226.71516030 0 326.69490065 0 7805.26057328 0 -500.76424568 0 -1178.50354459 0 10476
0.09850000 0.09850240 17942.10188379 0 408.04124186 0 7110.76820852 0 -504.68273652 0 -2564.36337321 0 10575
0.09950000 0.09950330 17801.36893664 0 26.24410929 0 8429.68996204 0 629.44384305 0 -1698.56349131 0 10882
0.10050000 0.10051200 17978.07196613 0 28.21605665 0 7464.29791466 0 763.73140107 0 -1489.55483162 0 10875
0.10150000 0.10150300 18187.93491528 0 -175.08212766 0 8066.35840846 0 1334.69238650 0 -395.81253793 0 11118
0.10250000 0.10250800 18066.08626136 0 -39.61767350 0 6894.19459089 0 840.84676135 0 -165.20271973 0 11575
0.10350000 0.10349800 18407.68963707 0 204.40898541 0 7468.91782211 0 1078.79110415 0 225.72912765 0 11364
0.10450000 0.10450100 17762.13906559 0 511.64969184 0 6732.73388379 0 356.64561452 0 2146.23364732 0 12093
0.10550000 0.10551000 17128.05395786 0 601.15337329 0 5945.01156186 0 650.48296902 0 1607.63786755 0 12067
0.10650000 0.10649700 16868.95695851 0 367.67943728 0 6343.58255548 0 475.96512203 0 2127.31563214 0 12054
0.10750000 0.10749900 16168.21479194 0 493.09137749 0 5313.77033876 0 75.34990367 0 925.55180899 0 12807
0.10850000 0.10850100 15866.29091330 0 315.52056976 0 5592.60592079 0 391.81086627 0 1078.26728983 0 12736
0.10950000 0.10950300 15759.16751183 0 225.80668814 0 5024.39102634 0 314.63031022 0 660.90080412 0 12933
0.11050000 0.11050200 15406.66070491 0 14.61835387 0 4592.35661550 0 851.85023435 0 710.30796034 0 13428
0.11150000 0.11150900 15558.97152232 0 -153.27414117 0 4482.97384323 0 1043.80233062 0 1198.98401022 0 13453
0.11250000 0.11250000 15454.09625100 0 -76.49397710 0 3709.58335099 0 1038.43042364 0 1047.25995478 0 13668
0.11350000 0.11349100 15676.66113547 0 182.48859242 0 4318.12970026 0 460.72954403 0 2245.55603718 0 13791
0.11450000 0.11448600 15458.14288526 0 425.45076171 0 4272.88608107 0 -264.98148001 0 2325.29721347 0 14205
0.11550000 0.11549300 15228.72120384 0 548.88771958 0 5436.75429841 0 -372.85238475 0 3394.73272401 0 14776
0.11650000 0.11649800 14723.90357951 0 514.61722364 0 5597.73165753 0 -905.62325931 0 3332.84170109 0 14553
0.11750000 0.11747300 14733.45813263 0 285.59346125 0 6246.76683073 0 139.89327054 0 3385.65027822 0 14568
0.11850000 0.11849100 14230.66382543 0 230.14108307 0 6295.21403538 0 30.32435310 0 3106.60112383 0 16015
0.11950000 0.11950300 14380.16448016 0 36.69566634 0 6180.04232799 0 612.14897783 0 2605.62780205 0 15270
0.12050000 0.12050700 13982.58266380 0 -45.58409850 0 5635.56768789 0 582.13419225 0 2420.76406012 0 15999
0.12150000 0.12150000 14267.19594031 0 -54.29695170 0 5050.94144337 0 1196.61223292 0 2191.78076408 0 15670
0.12250000 0.12250700 14175.35982384 0 -229.09457848 0 4612.48862095 0 687.99077238 0 2137.46593975 0 16887
0.12350000 0.12352200 14271.01776156 0 -1.30488218 0 3989.34066638 0 648.60128409 0 2066.46998973 0 16407
0.12450000 0.12449800 14129.61037536 0 136.67057598 0 4132.09693066 0 341.75287637 0 1966.05725675 0 16306
0.12550000 0.12549900 14064.52700763 0 365.29304713 0 3929.76521751 0 -283.91635616 0 2009.04150515 0 17523
0.12650000 0.12650100 13704.15174520 0 474.92311371 0 4004.03219689 0 -475.55146609 0 1855.66282593 0 17154
0.12750000 0.12750600 13491.14141384 0 345.06999240 0 4554.77912010 0 -508.14598101 0 1986.60516629 0 18007
0.12850000 0.12850300 13131.44059045 0 181.52414459 0 4070.43072075 0 -237.95558345 0 1148.56969169 0 17496
0.12950000 0.12949900 13112.33148421 0 181.06552604 0 4390.27219665 0 422.15163072 0 1309.83930773 0 18405
0.13050000 0.13049000 12874.36690823 0 14.48886157 0 3633.16940732 0 365.42681087 0 351.92341715 0 18100
0.13150000 0.13148800 12965.52858566 0 -4.50752342 0 3643.90422877 0 710.64630393 0 1392.01970522 0 19059
0.13250000 0.13249300 12818.05124807 0 72.71318423 0 2965.90189863 0 249.54357029 0 640.95764159 0 18957
0.13350000 0.13349100 12906.73998234 0 23.43675677 0 3180.98050971 0 410.78396064 0 977.78374075 0 19468
0.13450000 0.13450700 12760.16189681 0 36.21692703 0 3301.34539774 0 128.57843152 0 1745.89787154 0 19953
0.13550000 0.13551000 12785.11614143 0 46.56405843 0 3124.00165116 0 -439.55777838 0 1193.24003770 0 19956
0.13650000 0.13649900 13050.28309217 0 -18.71478422 0 3955.18032881 0 280.86227136 0 1845.91718174 0 19723
0.13750000 0.13749600 12814.22942682 0 71.35688731 0 3656.97710557 0 -425.17536577 0 340.73784561 0 20946
0.13850000 0.13851100 13008.46787145 0 182.95732756 0 4142.14607242 0 -309.70690520 0 1275.61152625 0 20955
0.13950000 0.13949800 12751.39418924 0 330.89440776 0 4226.86685698 0 -328.85310559 0 271.91920964 0 20506
0.14050000 0.14048300 12419.23296014 0 513.69886247 0 4009.59631900 0 -239.47082317 0 390.93521958 0 21447
0.14150000 0.14148400 12064.25321005 0 360.22576178 0 4021.84862829 0 34.17506282 0 -203.91102459 0 21771
0.14250000 0.14249400 11739.28599742 0 420.16877993 0 4160.17607619 0 35.72919519 0 -166.24023179 0 22470
0.14350000 0.14350900 11420.83836221 0 343.58060618 0 4184.63573218 0 33.97205667 0 -113.46762474 0 22519
0.14450000 0.14449900 11187.42624978 0 304.90152701 0 4417.66566249 0 -197.30714228 0 -123.31668291 0 22218
0.14550000 0.14550500 11055.24743783 0 128.46040468 0 4332.40532669 0 -304.92850457 0 44.61043334 0 23559
0.14650000 0.14650700 11015.68034726 0 120.87521357 0 5085.41651916 0 -62.72181942 0 252.58529038 0 23044
0.14750000 0.14750500 11086.31659645 0 -21.92117984 0 4734.67449440 0 190.15021996 0 484.51700911 0 23649
0.14850000 0.14849900 11082.87695733 0 13.32511700 0 4998.98715569 0 563.70514538 0 225.00635381 0 23640
0.14950000 0.14949500 10995.52586050 0 65.09910464 0 4286.23997414 0 506.96121642 0 526.38843308 0 24457
0.15050000 0.15050000 10987.26398221 0 110.89306610 0 4055.22212032 0 645.81472677 0 537.97866805 0 24591
0.15150000 0.15149900 10833.26706720 0 159.71953030 0 3820.01150377 0 768.08602916 0 555.03860366 0 25020
0.15250000 0.15250500 10514.61710028 0 218.67786745 0 3108.93917918 0 484.78453660 0 538.80148368 0 25297
0.15350000 0.15350100 10299.53848919 0 231.32809578 0 3119.56159412 0 227.87721601 0 535.75414327 0 25452
0.15450000 0.15450400 10119.42954253 0 216.90409277 0 3073.96951475 0 163.49414082 0 644.93233569 0 26061
0.15550000 0.15549900 9986.72242000 0 71.95814972 0 2987.85488950 0 284.28392544 0 610.88777682 0 26128
0.15650000 0.15649500 9944.64866431 0 -63.49056752 0 2467.85114604 0 141.78282393 0 603.31944668 0 26331
0.15750000 0.15749700 9946.48089038 0 -2.74945193 0 2764.22214321 0 175.51938897 0 -34.35480083 0 27345
0.15850000 0.15849900 10006.92186936 0 91.80318137 0 2274.55691607 0 -100.03875653 0 357.54599065 0 26980
0.15950000 0.15949700 9615.81466783 0 227.49503388 0 2302.70350550 0 65.46836002 0 -503.72615714 0 27777
0.16050000 0.16050000 9596.97533720 0 240.58814386 0 1855.88763894 0 25.58686845 0 170.33857305 0 28224
0.16150000 0.16150500 9289.80207468 0 130.99966768 0 1862.99173020 0 351.00280786 0 -314.02668728 0 28075
0.16250000 0.16249700 9212.85982042 0 149.16118707 0 1738.99611199 0 246.48948549 0 -163.02877788 0 28590
0.16350000 0.16349900 9103.43208556 0 142.05035142 0 1857.66366176 0 133.41528353 0 116.71617280 0 29163
0.16450000 0.16449100 8956.15707968 0 198.37275597 0 2069.71853780 0 -36.04483267 0 291.84551119 0 28996
0.16550000 0.16550500 8909.71071086 0 116.60938662 0 2223.71545281 0 -168.40855332 0 518.46714651 0 30777
0.16650000 0.16650700 8981.30241536 0 -38.96886314 0 2649.88224397 0 -173.01272386 0 633.70629781 0 29211
0.16750000 0.16749900 8949.78363071 0 -7.20939368 0 2770.37077916 0 -22.08203355 0 713.82965622 0 30922
0.16850000 0.16850800 9208.59961379 0 -23.61244815 0 2956.95434064 0 -99.39331837 0 786.04521684 0 30867
0.16950000 0.16949900 9026.80456952 0 123.86073040 0 2995.26247834 0 86.66316901 0 964.78617631 0 30852
0.17050000 0.17049200 9003.12051843 0 266.96545486 0 2904.12328221 0 -88.96806444 0 728.51781453 0 31257
0.17150000 0.17149500 8714.76410523 0 246.32537199 0 2946.30944440 0 137.74743032 0 824.40056526 0 32608
0.17250000 0.17250900 8552.23553631 0 220.10655416 0 3004.85075341 0 6.35867875 0 759.22614826 0 32361
0.17350000 0.17350400 8421.49552766 0 69.93235964 0 2978.07552337 0 86.96756583 0 582.07461680 0 32508
0.17450000 0.17449800 8455.13879530 0 33.78984572 0 2869.92922268 0 -132.44409130 0 700.30265713 0 32791
0.17550000 0.17549800 8448.47308941 0 47.04212331 0 2924.13164051 0 -122.81647395 0 258.00890436 0 33633
0.17650000 0.17650100 8350.87051912 0 105.16572974 0 2840.98454705 0 115.39202414 0 692.69273658 0 33984
0.17750000 0.17750300 8236.32828817 0 120.46830201 0 2971.30865163 0 189.90067751 0 475.08385502 0 34069
0.17850000 0.17849800 8266.05980935 0 94.02141138 0 2642.18239822 0 383.60294311 0 423.18239839 0 34536
