### header ###
fiducial parameters:
Omega_m = 0.31
Omega_nu = 0
Omega_de = 0.69
Omega_k = 0
H_0 = 100
w_de = -1
zeff = 0
beta = 0
fgrowth = 0
b_1 = 2
gamma = 0.55
Lx = 3500 Ly = 3500 Lz = 3500
nx = 700 ny = 700 nz = 700
xoffset = 857.220397 yoffset = 15.9954215 zoffset = 262.898189
bins = 400 dk = 0.001
kx_ny = 0.628318531 ky_ny = 0.628318531 kz_ny = 0.628318531
############################
A(data) = 3.06727235 (not used)
A(ran) = 3.06067773 (used)
Ngal = 186792
weighted Ngal = 0
Nran = 9360983
weighted Nran = 0
SN(data) = 3467.54886
SN(ran) = 68.7313192
SN(data+ran) = 3536.28018
############################
13 columns: k_central k_mean P_0(k) sigma^{lin}_{P_0(k)} P^img_1(k) sigma^{lin}_{P_1(k)} P_2(k) sigma^{lin}_{P_2(k)} P^img_3(k) sigma^{lin}_{P_3(k)} P_4(k) sigma^{lin}_{P_4(k)} N_modes
### header ###
0.00050000 0 0 0 0 0 0 0 0 0 0 0 0
0.00150000 0.00179520 17071.73829769 0 -14385.33517949 0 2992.91318233 0 11793.80315346 0 34268.24781850 0 3
0.00250000 0.00253879 34601.75792569 0 -24331.06294627 0 -9967.98425523 0 969.01378505 0 3979.42641244 0 6
0.00350000 0.00331552 49488.08890826 0 -25204.79872759 0 408.34249130 0 950.13736027 0 -4846.79998544 0 7
0.00450000 0.00420575 71970.06480929 0 -23422.70596070 0 -5987.55742488 0 13490.12975528 0 7279.28804428 0 24
0.00550000 0.00557378 92100.04695136 0 -9075.62271565 0 24701.44238786 0 19920.68122546 0 28241.23570956 0 45
0.00650000 0.00659388 102263.16890328 0 4867.23548847 0 -4169.62946346 0 31602.30268463 0 -34397.40289540 0 40
0.00750000 0.00754703 97916.63407862 0 8655.23361896 0 46952.87254239 0 34875.80499051 0 49084.66195353 0 57
0.00850000 0.00846663 92257.75328112 0 17368.37907048 0 43104.29854512 0 26153.84686881 0 23652.01523561 0 75
0.00950000 0.00948925 89062.37349782 0 15498.38441488 0 65494.10111015 0 35877.12215763 0 70683.57233313 0 112
0.01050000 0.01054430 68038.75962263 0 14047.89084455 0 53371.95854883 0 31779.00571412 0 38847.80133281 0 105
0.01150000 0.01145670 70405.47863404 0 5249.14783771 0 53962.42993173 0 39603.39787495 0 56877.80510532 0 144
0.01250000 0.01249090 65053.24278848 0 -4618.34499999 0 35902.52602828 0 37628.30313501 0 29658.23214071 0 169
0.01350000 0.01339930 76504.43090766 0 -10958.22938137 0 21676.47086964 0 35858.12545789 0 13381.65747572 0 180
0.01450000 0.01448870 74578.57021792 0 -5224.03622397 0 1419.07595153 0 6500.72685270 0 121.64295002 0 267
0.01550000 0.01550050 77298.35806879 0 25.55797997 0 -14526.96737870 0 -3854.11563809 0 -24536.42963513 0 238
0.01650000 0.01653350 70369.05892567 0 5044.53427245 0 -8722.66628269 0 -23390.44529310 0 -10125.71306629 0 315
0.01750000 0.01747870 67340.15317970 0 4618.94075447 0 -23272.75567995 0 -15101.81425709 0 -24475.95493420 0 297
0.01850000 0.01844180 62108.64192299 0 -380.76018254 0 -6983.97366828 0 -9710.21365267 0 -12927.75999921 0 388
0.01950000 0.01947590 66956.73458327 0 -3874.49493786 0 -11502.55789302 0 -7905.65082496 0 -29433.98115862 0 399
0.02050000 0.02045430 69360.99736812 0 -3140.60409229 0 -6065.90476047 0 -4738.79981322 0 -24800.69733381 0 462
0.02150000 0.02154770 71528.41964207 0 2692.45058829 0 7395.38148503 0 -11229.99459410 0 -23218.68814994 0 571
0.02250000 0.02255340 69384.82754767 0 4660.95830691 0 15148.68777063 0 -10929.61068461 0 -14828.44163131 0 510
0.02350000 0.02348930 67037.33004901 0 3200.12333791 0 22736.68904659 0 -515.84357863 0 -10649.28009603 0 555
0.02450000 0.02439640 66205.74670793 0 1999.99278131 0 22361.13890567 0 9985.90185249 0 -12577.72613544 0 592
0.02550000 0.02547300 64388.35829774 0 608.00454991 0 24416.82911135 0 7519.64687886 0 -9153.04831788 0 837
0.02650000 0.02652900 65432.61475065 0 2102.27146231 0 19621.79232253 0 4205.32977018 0 -10325.47067043 0 723
0.02750000 0.02749970 60999.97654139 0 1607.72779275 0 17576.89314154 0 -1248.38667018 0 -5239.82933825 0 826
0.02850000 0.02848090 63103.55191919 0 2035.10857420 0 13936.15877628 0 -5092.32951936 0 -12973.62185419 0 831
0.02950000 0.02946900 61378.67406452 0 1397.52762408 0 19847.39218270 0 -5697.71724578 0 -8393.14660651 0 996
0.03050000 0.03053250 60836.53747976 0 3419.86681905 0 22565.26912294 0 -6329.82399898 0 -9872.37128011 0 1041
0.03150000 0.03150510 58279.28943846 0 4081.55896498 0 28847.44400348 0 -3630.53909505 0 -7097.97634799 0 1036
0.03250000 0.03246190 55406.06670511 0 2242.12763871 0 26378.32266391 0 2199.24455617 0 5774.64825938 0 1059
0.03350000 0.03345080 55452.71540565 0 710.61820230 0 32680.61830925 0 10701.95378536 0 7248.60106778 0 1302
0.03450000 0.03451200 55654.37267976 0 485.59161532 0 31836.44543936 0 11151.51237069 0 11973.42875214 0 1339
0.03550000 0.03553350 55178.78074733 0 202.61272943 0 32158.49008280 0 8657.69532147 0 13070.85348301 0 1365
0.03650000 0.03647120 54171.50603533 0 883.19029265 0 28508.31357093 0 645.36510074 0 15291.66884793 0 1308
0.03750000 0.03744890 54470.17012525 0 -70.11681872 0 28617.46028952 0 314.79329966 0 19884.14911059 0 1579
0.03850000 0.03847530 54715.10390468 0 -891.35437728 0 26426.09542952 0 557.51379496 0 15095.96911871 0 1662
0.03950000 0.03950240 54989.71300204 0 -329.48707829 0 25668.81278977 0 360.29432975 0 6749.67354444 0 1683
0.04050000 0.04050350 56844.86999868 0 -753.84075249 0 21408.26894320 0 634.52574124 0 -1437.43193418 0 1822
0.04150000 0.04152450 54629.89977214 0 1588.02293202 0 17953.56734754 0 439.90399042 0 -5112.63013458 0 1887
0.04250000 0.04250150 53797.41717900 0 2500.29166405 0 18179.72924025 0 1909.34817382 0 -8522.85247530 0 1920
0.04350000 0.04349210 48670.66878710 0 2140.50091545 0 14246.73795598 0 5029.30319071 0 -8313.11317331 0 2005
0.04450000 0.04448520 48014.21478441 0 3252.63965812 0 16553.43189249 0 7409.11756022 0 -6789.10574720 0 2151
0.04550000 0.04548030 45215.51756541 0 1545.39838445 0 12443.17554619 0 8140.41181548 0 -2796.64017992 0 2274
0.04650000 0.04648670 42729.08562372 0 1581.84057412 0 10108.00904138 0 7715.00938857 0 -142.69556477 0 2311
0.04750000 0.04749250 41577.93058236 0 1211.03398780 0 8383.01878021 0 1095.95895001 0 5323.45977969 0 2568
0.04850000 0.04851840 41627.83907160 0 261.69246560 0 8205.09051979 0 2164.91560884 0 5994.86384785 0 2493
0.04950000 0.04949480 41656.83995049 0 -9.94935850 0 7165.67878734 0 -1262.11150473 0 5050.30072628 0 2644
0.05050000 0.05050630 42069.82145834 0 -79.92260039 0 6617.50597314 0 -623.65041166 0 3481.85900783 0 2829
0.05150000 0.05149060 40899.10768471 0 246.55243313 0 4810.54888683 0 -487.67900416 0 -1001.97249705 0 2784
0.05250000 0.05249300 40377.54149079 0 1656.18623805 0 4201.56415218 0 -927.69202889 0 -2635.62909885 0 3055
0.05350000 0.05348950 38860.05364211 0 1678.81366797 0 3047.30669122 0 -1331.60120755 0 -6607.58047855 0 3009
0.05450000 0.05448610 37372.01629834 0 850.92512879 0 2162.27405591 0 329.65231586 0 -4555.09385832 0 3336
0.05550000 0.05550870 36668.35156258 0 556.24472549 0 2252.25546502 0 -604.64921567 0 -11035.47513320 0 3349
0.05650000 0.05647670 37071.32889129 0 257.21756255 0 3447.01299056 0 -3173.32562656 0 -8704.61379762 0 3324
0.05750000 0.05747970 36703.42239286 0 709.02765022 0 5444.66771652 0 -3832.49986673 0 -9429.79313888 0 3639
0.05850000 0.05849280 36658.34738343 0 1327.03750335 0 8173.96515791 0 -4757.78527230 0 -8039.68434428 0 3846
0.05950000 0.05951020 36273.35509589 0 1188.20422617 0 11504.46880365 0 -2665.49550784 0 -4029.09884802 0 3787
0.06050000 0.06049470 35619.59884938 0 628.98747263 0 15357.87628074 0 1228.97406637 0 -5783.79814908 0 3930
0.06150000 0.06148310 36016.39382018 0 135.20479512 0 14217.73707709 0 1727.83414581 0 -2411.80526149 0 4083
0.06250000 0.06249100 34785.43015863 0 153.02122653 0 14176.03426288 0 3229.39399241 0 -3985.02425650 0 4303
0.06350000 0.06350600 35439.41121816 0 1038.15952395 0 15100.35297249 0 2107.91426898 0 -1918.74535783 0 4470
0.06450000 0.06451750 34001.28236364 0 862.11519659 0 13305.33345726 0 1421.33532233 0 -3323.96158701 0 4479
0.06550000 0.06550280 33129.00786691 0 1452.20214924 0 14417.37103408 0 -490.70723547 0 -624.23042924 0 4636
0.06650000 0.06648880 31971.22084162 0 1117.56348072 0 12362.58008045 0 429.10622133 0 -2151.25821820 0 4653
0.06750000 0.06749660 31797.55278783 0 942.99954706 0 14509.31955706 0 -260.44812557 0 -248.58249466 0 5220
0.06850000 0.06852730 30962.26003201 0 1051.19081035 0 15335.39497928 0 669.09636257 0 2395.84353745 0 5029
0.06950000 0.06949320 30787.24310013 0 414.23371635 0 15414.86637994 0 946.71683026 0 1862.65451068 0 5040
0.07050000 0.07048030 30224.08649850 0 337.63092975 0 16287.25328318 0 1556.36925956 0 4984.63284471 0 5475
0.07150000 0.07148790 30038.50335493 0 84.21945154 0 15489.72911381 0 2079.35177547 0 4151.11611170 0 5509
0.07250000 0.07249820 29837.18330034 0 223.60801686 0 15490.51595936 0 2476.42776254 0 5644.99859385 0 5916
0.07350000 0.07351270 29438.58982542 0 196.65968080 0 13697.40735476 0 2170.33360249 0 3812.18801086 0 5721
0.07450000 0.07449140 29006.72402434 0 150.02222092 0 11563.70703300 0 1426.96688835 0 2239.47484514 0 6028
0.07550000 0.07549160 28325.42818353 0 515.41530984 0 9786.43650527 0 1039.80740335 0 3439.41431067 0 6183
0.07650000 0.07648840 28326.43984210 0 566.90648271 0 10138.31383576 0 457.15501710 0 604.34796623 0 6330
0.07750000 0.07749960 27057.59518758 0 546.04945528 0 9497.43937498 0 559.32353972 0 2365.43757723 0 6583
0.07850000 0.07848650 27463.94471151 0 581.60700573 0 10474.46549587 0 292.44014161 0 1921.03845058 0 6549
0.07950000 0.07947320 26486.23291093 0 314.59996046 0 10193.38178369 0 255.65511210 0 3070.22637806 0 6828
0.08050000 0.08048110 26625.05494745 0 795.74140216 0 11693.76136196 0 631.42107351 0 3221.32320519 0 7147
0.08150000 0.08149960 25784.70389881 0 1102.07386401 0 11825.83900805 0 -1330.08371970 0 2889.45423300 0 7386
0.08250000 0.08250610 25492.33457329 0 804.28654484 0 12250.73560568 0 -937.02626526 0 2262.66430759 0 7227
0.08350000 0.08350160 24570.82602637 0 793.47753510 0 12940.46193453 0 -723.52808967 0 1950.53391810 0 7798
0.08450000 0.08449610 24066.57043457 0 471.83867915 0 11031.96805017 0 688.29876621 0 648.06285692 0 7371
0.08550000 0.08548940 23605.92856762 0 228.59661766 0 11373.96484866 0 376.81021787 0 -1477.81959225 0 8256
0.08650000 0.08650700 23165.63227849 0 59.68189784 0 9569.55939007 0 2073.74269076 0 -1622.59917367 0 8037
0.08750000 0.08749060 22756.58499838 0 -62.11257615 0 8482.08263510 0 2042.42623782 0 -3283.06809965 0 8155
0.08850000 0.08849210 22626.41826292 0 139.12328597 0 6478.85254638 0 1437.37573092 0 -3168.31229634 0 8718
0.08950000 0.08949900 22224.56499929 0 610.02449485 0 6222.09360238 0 1092.60698796 0 -3541.81663883 0 8571
0.09050000 0.09049190 21469.98011571 0 820.34493848 0 5162.61730838 0 409.67001215 0 -2032.48950257 0 8932
0.09150000 0.09150830 20570.61565073 0 818.21933142 0 5356.33868308 0 76.13011724 0 -2005.84916034 0 9285
0.09250000 0.09250820 20064.67396133 0 834.92181435 0 5117.16011682 0 -133.49846434 0 -2371.75482294 0 9204
0.09350000 0.09350330 19234.43949834 0 754.71752325 0 6154.12138741 0 -795.93474135 0 -1971.38532520 0 9349
0.09450000 0.09448040 19068.30268053 0 514.14511631 0 6131.76373310 0 -441.74296088 0 -2519.59186135 0 9564
0.09550000 0.09549270 18656.33283124 0 11.02843849 0 6528.37885350 0 -386.61318937 0 -1941.46271296 0 10155
0.09650000 0.09649430 18878.56049619 0 -126.00095030 0 6556.67157139 0 872.48582096 0 -1468.17511393 0 9913
0.09750000 0.09749140 19022.55323206 0 -183.58230774 0 6477.39126178 0 761.77440378 0 -1330.01627579 0 10476
0.09850000 0.09850240 18729.73428051 0 254.92671793 0 6138.22710728 0 650.88426025 0 -1917.13794477 0 10575
0.09950000 0.09950330 18779.53036325 0 309.89462407 0 6026.34891055 0 371.28543804 0 -1356.75778388 0 10882
0.10050000 0.10051200 18247.06073813 0 339.81836038 0 6429.78710594 0 -324.82670450 0 -1121.61236311 0 10875
0.10150000 0.10150300 18356.09505022 0 219.53440504 0 6706.04857895 0 -64.79673114 0 -1209.02191132 0 11118
0.10250000 0.10250800 17863.97936121 0 427.44822535 0 6372.58343437 0 -422.50346309 0 -640.35851491 0 11575
0.10350000 0.10349800 17891.06932947 0 380.42633521 0 6429.82082789 0 132.42498220 0 -277.12475499 0 11364
0.10450000 0.10450100 17568.46265350 0 217.60438531 0 6821.68115302 0 265.63006555 0 182.99666984 0 12093
0.10550000 0.10551000 17706.38543796 0 161.25500319 0 6400.26915712 0 650.40540853 0 329.23191552 0 12067
0.10650000 0.10649700 17294.86521470 0 166.00642626 0 7150.16668933 0 658.26711965 0 510.43120530 0 12054
0.10750000 0.10749900 17211.79680580 0 475.59418056 0 6424.34663098 0 87.63998155 0 296.87120613 0 12807
0.10850000 0.10850100 16914.25678095 0 256.13846008 0 6534.90967157 0 274.94519281 0 1038.40232201 0 12736
0.10950000 0.10950300 16719.90592981 0 247.24935348 0 6713.31003932 0 5.23353457 0 841.86741243 0 12933
0.11050000 0.11050200 16602.77834920 0 78.31350124 0 6753.41668113 0 390.13938151 0 582.37361811 0 13428
0.11150000 0.11150900 16263.87272966 0 198.94602916 0 6805.75315094 0 504.19264415 0 847.32924462 0 13453
0.11250000 0.11250000 16285.79199858 0 242.28323399 0 6177.38953442 0 543.53604577 0 529.41329219 0 13668
0.11350000 0.11349100 15985.66662406 0 113.63623450 0 5901.93738826 0 554.73285796 0 764.73181899 0 13791
0.11450000 0.11448600 16117.63186365 0 116.66896207 0 5089.21585911 0 790.66400022 0 -130.43763515 0 14205
0.11550000 0.11549300 15727.91850280 0 105.25846510 0 5334.36321090 0 643.95664721 0 328.28770086 0 14776
0.11650000 0.11649800 15681.71942830 0 289.02298379 0 4379.38000610 0 127.63534092 0 21.31530876 0 14553
0.11750000 0.11747300 15332.58481659 0 269.07195281 0 4885.35541745 0 90.49892866 0 -555.49609815 0 14568
0.11850000 0.11849100 15063.59604460 0 229.24745133 0 4245.24532092 0 -294.43198492 0 -42.65602139 0 16015
0.11950000 0.11950300 14807.08439492 0 86.30897610 0 4593.90782530 0 18.05507042 0 -725.78858453 0 15270
0.12050000 0.12050700 15077.42204500 0 92.60688789 0 4601.83248406 0 13.20034578 0 362.17601468 0 15999
0.12150000 0.12150000 14721.20582334 0 168.09044290 0 4726.81727954 0 74.82474047 0 -737.04272404 0 15670
0.12250000 0.12250700 14984.12464393 0 255.88779357 0 5450.79387117 0 -92.10420599 0 1515.30716244 0 16887
0.12350000 0.12352200 14737.95439292 0 268.51778873 0 5227.32973464 0 -1.52452450 0 1041.82622422 0 16407
0.12450000 0.12449800 14606.55118588 0 273.67499928 0 5998.57326259 0 642.55943432 0 2384.11953874 0 16306
0.12550000 0.12549900 14423.89061150 0 202.50369511 0 5557.41144335 0 689.63078332 0 2335.79598125 0 17523
0.12650000 0.12650100 14059.24390179 0 188.06283112 0 5176.73556570 0 905.59628175 0 2164.03883808 0 17154
0.12750000 0.12750600 14058.90668227 0 248.12724830 0 5037.55382835 0 616.25518755 0 2331.46833072 0 18007
0.12850000 0.12850300 13480.46279565 0 117.56034567 0 4321.65926459 0 930.00535481 0 1881.57252586 0 17496
0.12950000 0.12949900 13447.07806298 0 156.81607022 0 4220.76318363 0 491.60536346 0 2200.03140172 0 18405
0.13050000 0.13049000 13211.81124318 0 51.67012403 0 3330.23387012 0 527.65525442 0 1089.44386885 0 18100
0.13150000 0.13148800 13140.43311104 0 159.44638249 0 3460.01842346 0 292.44238974 0 1544.97123972 0 19059
0.13250000 0.13249300 12978.68014702 0 118.33257838 0 2567.33090501 0 -1.76211813 0 680.35499834 0 18957
0.13350000 0.13349100 12866.72326574 0 89.83381936 0 3241.36528544 0 171.32662625 0 1330.15116360 0 19468
0.13450000 0.13450700 12820.86141075 0 41.57793058 0 2502.59599745 0 -243.38594182 0 547.30840816 0 19953
0.13550000 0.13551000 12821.87306932 0 -11.99770856 0 3070.96826101 0 -248.72637498 0 917.62265397 0 19956
0.13650000 0.13649900 12882.79739628 0 40.44228764 0 3022.20631814 0 -316.72444345 0 453.65018220 0 19723
0.13750000 0.13749600 12769.15441739 0 195.85372614 0 3163.52377913 0 1.19154270 0 241.86508178 0 20946
0.13850000 0.13851100 12644.94522681 0 280.87913234 0 3150.38345842 0 300.36367631 0 594.50677651 0 20955
0.13950000 0.13949800 12229.71558881 0 296.78128092 0 3029.08559638 0 366.78355742 0 349.29422894 0 20506
0.14050000 0.14048300 12028.05831470 0 275.14527640 0 2801.68723210 0 541.18225351 0 422.88227302 0 21447
0.14150000 0.14148400 11685.78049994 0 218.59243851 0 2375.01461165 0 459.51218156 0 271.20655238 0 21771
0.14250000 0.14249400 11663.07438546 0 129.40012309 0 2028.69016263 0 264.73081350 0 767.89606217 0 22470
0.14350000 0.14350900 11482.54953472 0 11.61294108 0 1532.86505888 0 395.89347062 0 604.16923988 0 22519
0.14450000 0.14449900 11633.39906753 0 25.60103167 0 1505.96618168 0 295.71566724 0 631.04788391 0 22218
0.14550000 0.14550500 11423.87333791 0 114.78165681 0 1082.27570588 0 -71.40128788 0 93.77018284 0 23559
0.14650000 0.14650700 11338.55679886 0 225.46272423 0 1452.80914438 0 -122.72205249 0 77.58870408 0 23044
0.14750000 0.14750500 11163.74219869 0 219.68952602 0 1300.93671235 0 -378.88861419 0 -151.56331413 0 23649
0.14850000 0.14849900 10988.23067818 0 307.88029946 0 1874.35602809 0 -423.50612914 0 -19.24466849 0 23640
0.14950000 0.14949500 10869.07978043 0 130.27352165 0 1998.55397802 0 -282.83050930 0 149.65127944 0 24457
0.15050000 0.15050000 10791.56425299 0 121.39115944 0 2254.09893174 0 -73.56252780 0 -168.11966859 0 24591
0.15150000 0.15149900 10837.57223643 0 76.29569202 0 2957.37024472 0 -151.01364631 0 -44.09965817 0 25020
0.15250000 0.15250500 10792.51970830 0 225.36605464 0 2911.02504176 0 -143.83986301 0 92.03383952 0 25297
0.15350000 0.15350100 10484.25610265 0 316.20512539 0 2905.74193591 0 -234.06969050 0 -2.32836591 0 25452
0.15450000 0.15450400 10362.37372678 0 319.53460613 0 2928.95387967 0 30.26297915 0 478.47291121 0 26061
0.15550000 0.15549900 9919.23355301 0 297.36354663 0 2656.25569294 0 470.21440512 0 -140.32491153 0 26128
0.15650000 0.15649500 9781.73791327 0 277.36980118 0 2435.26449957 0 617.14095082 0 438.55174014 0 26331
0.15750000 0.15749700 9370.11652415 0 178.83088467 0 2060.32135378 0 591.61905334 0 -211.67044579 0 27345
0.15850000 0.15849900 9209.71243822 0 253.92967221 0 1950.81493436 0 122.16901247 0 460.73179216 0 26980
0.15950000 0.15949700 9077.09524089 0 194.35534740 0 1926.18666861 0 -138.67028774 0 362.36373355 0 27777
0.16050000 0.16050000 8936.69951326 0 92.62341165 0 2240.75627932 0 -357.88433423 0 600.23051586 0 28224
0.16150000 0.16150500 8953.87522758 0 47.09776453 0 2602.61530765 0 -457.44839808 0 860.30095557 0 28075
0.16250000 0.16249700 9023.85951903 0 -34.00825157 0 2875.67319521 0 -198.54136573 0 301.24381927 0 28590
0.16350000 0.16349900 9196.96554029 0 -39.53741526 0 3053.01694179 0 -318.37906724 0 670.97242717 0 29163
0.16450000 0.16449100 9125.21646667 0 12.17980710 0 2863.85927129 0 -12.98317641 0 -153.76985387 0 28996
0.16550000 0.16550500 9162.27689213 0 81.43705326 0 2974.17501756 0 -72.75646073 0 -203.75140735 0 30777
0.16650000 0.16650700 9028.83912730 0 99.93354404 0 2563.89126588 0 12.76241003 0 -801.65061225 0 29211
0.16750000 0.16749900 8848.95499366 0 133.55579166 0 2571.51242708 0 106.97232712 0 -665.66346783 0 30922
0.16850000 0.16850800 8821.68517498 0 51.49645597 0 2214.84657938 0 201.29195297 0 -923.68024065 0 30867
0.16950000 0.16949900 8856.38506379 0 -43.66745515 0 2245.15137375 0 271.03344636 0 -801.16951240 0 30852
0.17050000 0.17049200 8811.15268525 0 -8.14650425 0 2195.24288451 0 147.03895221 0 -851.72883532 0 31257
0.17150000 0.17149500 8922.06418601 0 -27.02915634 0 2011.09854423 0 352.20218529 0 -394.36249399 0 32608
0.17250000 0.17250900 8975.51348024 0 18.71849363 0 2101.30476635 0 97.86369061 0 -118.41575919 0 32361
0.17350000 0.17350400 8910.02544908 0 84.34647089 0 2152.19119221 0 204.09986752 0 -190.73360973 0 32508
0.17450000 0.17449800 8873.06618947 0 130.69504605 0 2215.41985257 0 185.09754746 0 -41.01735933 0 32791
0.17550000 0.17549800 8792.35831723 0 132.96340937 0 1912.58548123 0 -20.42696013 0 -4.74427401 0 33633
0.17650000 0.17650100 8668.18284860 0 199.67891959 0 1983.60391255 0 0.04465202 0 6.01482724 0 33984
0.17750000 0.17750300 8463.73789311 0 113.00900619 0 1981.00732223 0 16.97506870 0 138.32519977 0 34069
0.17850000 0.17849800 8414.02049492 0 80.02163052 0 1868.97175639 0 219.72437203 0 130.19708522 0 34536
