### header ###
fiducial parameters:
Omega_m = 0.31
Omega_nu = 0
Omega_de = 0.69
Omega_k = 0
H_0 = 100
w_de = -1
zeff = 0
beta = 0
fgrowth = 0
b_1 = 2
gamma = 0.55
Lx = 3500 Ly = 3500 Lz = 3500
nx = 700 ny = 700 nz = 700
xoffset = 857.220397 yoffset = 15.9954215 zoffset = 262.898189
bins = 400 dk = 0.001
kx_ny = 0.628318531 ky_ny = 0.628318531 kz_ny = 0.628318531
############################
A(data) = 3.05355227 (not used)
A(ran) = 3.04887776 (used)
Ngal = 186200
weighted Ngal = 0
Nran = 9360983
weighted Nran = 0
SN(data) = 3455.03299
SN(ran) = 68.4663363
SN(data+ran) = 3523.49932
############################
13 columns: k_central k_mean P_0(k) sigma^{lin}_{P_0(k)} P^img_1(k) sigma^{lin}_{P_1(k)} P_2(k) sigma^{lin}_{P_2(k)} P^img_3(k) sigma^{lin}_{P_3(k)} P_4(k) sigma^{lin}_{P_4(k)} N_modes
### header ###
0.00050000 0 0 0 0 0 0 0 0 0 0 0 0
0.00150000 0.00179520 20163.25446824 0 -21484.59296167 0 -67.46807179 0 71922.40445019 0 -16059.40529286 0 3
0.00250000 0.00253879 34740.01792968 0 -21237.41105209 0 20713.03469549 0 -6621.96851148 0 11322.14544879 0 6
0.00350000 0.00331552 56500.34405378 0 -22216.92135679 0 17715.15314553 0 34512.84437841 0 -25071.14739040 0 7
0.00450000 0.00420575 67542.70970587 0 -10113.68557000 0 25332.15530038 0 36084.28735060 0 -7740.64931288 0 24
0.00550000 0.00557378 81742.68655481 0 3468.04424808 0 13157.06927412 0 52145.04152155 0 5523.99298873 0 45
0.00650000 0.00659388 62570.52026153 0 7016.53783344 0 11314.38939979 0 33312.68009986 0 -21641.73725888 0 40
0.00750000 0.00754703 80220.25281981 0 6528.30016894 0 -9620.52450048 0 40314.59384670 0 1027.83611032 0 57
0.00850000 0.00846663 67080.49414781 0 -656.39105505 0 -15280.09097768 0 11851.69250473 0 -6963.34707418 0 75
0.00950000 0.00948925 76605.14713821 0 -1212.27045939 0 -31550.03365873 0 16128.08566883 0 1480.92201186 0 112
0.01050000 0.01054430 79960.03175538 0 -4758.98802193 0 -27345.69306582 0 -27154.15237736 0 -32076.88295849 0 105
0.01150000 0.01145670 82545.71864303 0 -2155.05755815 0 -24005.64610761 0 -31315.44127798 0 -39921.73310365 0 144
0.01250000 0.01249090 80457.65536324 0 3102.21727004 0 -8811.98449340 0 -35788.20861034 0 -51039.74833517 0 169
0.01350000 0.01339930 75721.06995822 0 8891.53457863 0 -10019.11797540 0 -29121.94069433 0 -58121.02107617 0 180
0.01450000 0.01448870 68137.67734906 0 1690.90860816 0 135.30034065 0 -7240.82253748 0 -51208.69531565 0 267
0.01550000 0.01550050 67782.81000549 0 1936.66295509 0 -6289.33517505 0 9359.87629133 0 -50197.37396939 0 238
0.01650000 0.01653350 63464.93884019 0 -7239.87832282 0 -18224.46703016 0 24850.94304258 0 -29514.80143738 0 315
0.01750000 0.01747870 66344.79355747 0 -7651.84817211 0 -31286.10317957 0 25932.29364290 0 -22451.85095707 0 297
0.01850000 0.01844180 74605.21056015 0 -5956.18476869 0 -43468.15840928 0 12926.63593413 0 4754.60416815 0 388
0.01950000 0.01947590 75543.58008318 0 -2552.63937450 0 -28940.74140455 0 -3192.00758808 0 14354.42338998 0 399
0.02050000 0.02045430 79511.08016519 0 2414.48053637 0 -34902.89495877 0 -16772.73698825 0 32490.65131190 0 462
0.02150000 0.02154770 80042.65053826 0 3616.36463448 0 -8934.38393921 0 -6250.57741133 0 51143.49954141 0 571
0.02250000 0.02255340 73277.57730232 0 4551.53057204 0 -7810.31886611 0 -12248.59988204 0 45624.67725202 0 510
0.02350000 0.02348930 77012.62072721 0 1841.89302878 0 12048.85351855 0 7165.56638083 0 56968.96678275 0 555
0.02450000 0.02439640 72374.72823560 0 3023.51023362 0 3727.21993198 0 -3392.65320363 0 26846.15854733 0 592
0.02550000 0.02547300 71769.41919374 0 4295.53599229 0 15782.21084583 0 -2638.92260951 0 33751.06547837 0 837
0.02650000 0.02652900 65146.09056352 0 4504.71326175 0 9056.45740615 0 -8333.31262267 0 7865.54418315 0 723
0.02750000 0.02749970 60618.91848161 0 4273.11089408 0 19788.82839239 0 -11234.26604138 0 8346.56534989 0 826
0.02850000 0.02848090 58423.73180036 0 3369.34009401 0 12410.57765907 0 -5516.99006333 0 -12885.15793294 0 831
0.02950000 0.02946900 56760.45271169 0 1753.14809126 0 16525.77989169 0 -4434.87509875 0 -16192.49459751 0 996
0.03050000 0.03053250 53897.79619003 0 -423.13855986 0 9985.83440859 0 776.59182957 0 -23881.21210402 0 1041
0.03150000 0.03150510 56121.08449811 0 -725.99653657 0 8478.81160574 0 1265.23640563 0 -18995.12604427 0 1036
0.03250000 0.03246190 53827.65452947 0 -726.07297299 0 6159.49441846 0 3995.79279990 0 -20828.81339802 0 1059
0.03350000 0.03345080 56172.56667846 0 -255.97097438 0 4312.49813425 0 2002.28587406 0 -11460.63026580 0 1302
0.03450000 0.03451200 55480.81703247 0 -490.34753464 0 7818.65942896 0 2217.79162988 0 -1774.28051463 0 1339
0.03550000 0.03553350 56220.67666359 0 2177.38149050 0 7232.40329008 0 101.76093663 0 2371.53000992 0 1365
0.03650000 0.03647120 56048.69470740 0 1968.03561128 0 16541.06717668 0 -2274.62435997 0 11052.57216296 0 1308
0.03750000 0.03744890 52941.55403234 0 2918.83729402 0 13535.99161026 0 -62.61806821 0 9715.36187070 0 1579
0.03850000 0.03847530 53525.95546385 0 2873.11032684 0 20623.67152218 0 1372.80943313 0 15722.07336442 0 1662
0.03950000 0.03950240 51186.32642070 0 189.92315882 0 17734.14984527 0 1383.11710985 0 6764.26390909 0 1683
0.04050000 0.04050350 51015.01890356 0 -756.40474492 0 17175.82672346 0 6858.80902239 0 5336.44273128 0 1822
0.04150000 0.04152450 50950.38516186 0 -1183.15717399 0 12223.53323091 0 7328.56705708 0 6923.11678522 0 1887
0.04250000 0.04250150 50952.63329200 0 -149.20165341 0 4996.63785969 0 7129.01178466 0 693.45934896 0 1920
0.04350000 0.04349210 49263.05108063 0 671.67496784 0 4633.77841344 0 2227.80704968 0 2951.23284942 0 2005
0.04450000 0.04448520 47818.62746169 0 2894.32143477 0 2726.57720391 0 2018.71970543 0 1237.40455442 0 2151
0.04550000 0.04548030 45277.45355094 0 3131.12822372 0 6235.50369870 0 -1571.51041610 0 6735.62273102 0 2274
0.04650000 0.04648670 43260.43118377 0 2973.14087770 0 5230.75813311 0 -1644.19246372 0 7104.83314493 0 2311
0.04750000 0.04749250 41165.06148101 0 2048.12524774 0 10289.87152956 0 -3118.24643798 0 8062.10944249 0 2568
0.04850000 0.04851840 41645.03726722 0 353.43416061 0 14259.32748480 0 359.47376225 0 9318.34208688 0 2493
0.04950000 0.04949480 40875.16509865 0 -58.38371508 0 10432.48166539 0 -309.13138388 0 4842.33744710 0 2644
0.05050000 0.05050630 42377.36566234 0 593.97396967 0 14052.61191786 0 -201.60107086 0 8304.41290964 0 2829
0.05150000 0.05149060 40061.79161176 0 665.05085237 0 7895.97262468 0 1009.17663011 0 4028.44689027 0 2784
0.05250000 0.05249300 40610.22296092 0 721.96901141 0 13790.92956884 0 3086.72765333 0 10197.40593665 0 3055
0.05350000 0.05348950 39361.72388423 0 629.33593280 0 9726.34398646 0 374.06637503 0 3345.89209659 0 3009
0.05450000 0.05448610 40102.37036090 0 682.64022263 0 11531.78358492 0 1856.85433490 0 5555.46681078 0 3336
0.05550000 0.05550870 37990.70171457 0 -216.47245178 0 9524.69795300 0 -133.12977100 0 3844.74093538 0 3349
0.05650000 0.05647670 38855.44497531 0 114.86708575 0 11547.74530896 0 -251.08578757 0 2692.79904847 0 3324
0.05750000 0.05747970 38655.58620531 0 -220.66071824 0 9976.67327824 0 -583.53477733 0 2193.90524707 0 3639
0.05850000 0.05849280 38575.44036560 0 666.09848102 0 10669.33341694 0 566.97729881 0 213.09013997 0 3846
0.05950000 0.05951020 37220.82954601 0 1404.57551209 0 7564.06993055 0 106.02991096 0 -2375.43051573 0 3787
0.06050000 0.06049470 36606.75279657 0 1618.79983372 0 10174.35136200 0 365.04013249 0 -5016.48884888 0 3930
0.06150000 0.06148310 34622.10350351 0 1165.57679625 0 7692.13466433 0 103.00044318 0 -5275.96803035 0 4083
0.06250000 0.06249100 33169.58661605 0 1469.50151071 0 6237.47081258 0 -148.86668202 0 -6187.35999162 0 4303
0.06350000 0.06350600 32261.56685000 0 1013.59645398 0 8177.69705395 0 -748.77121901 0 -6657.91611252 0 4470
0.06450000 0.06451750 31279.47119564 0 1313.41383466 0 7790.42291432 0 -576.35762184 0 -6163.96819745 0 4479
0.06550000 0.06550280 29978.70309305 0 1380.77905449 0 9179.37392189 0 -431.82196255 0 -7799.02201213 0 4636
0.06650000 0.06648880 29435.21763020 0 1169.46606140 0 9240.59050578 0 -1175.60345670 0 -6512.67566443 0 4653
0.06750000 0.06749660 29166.67848424 0 768.95942773 0 11522.34143831 0 -502.53577223 0 -3831.21843255 0 5220
0.06850000 0.06852730 28590.37032126 0 131.34812786 0 12089.76948721 0 237.56328474 0 -3042.68678377 0 5029
0.06950000 0.06949320 28629.71259882 0 -657.15879149 0 13481.24964120 0 812.86653355 0 -3185.61165781 0 5040
0.07050000 0.07048030 30293.10409399 0 -854.43333588 0 13861.40844892 0 39.41893880 0 -100.23198332 0 5475
0.07150000 0.07148790 30228.13313277 0 80.81375918 0 12760.94874236 0 517.51056713 0 -2093.48127344 0 5509
0.07250000 0.07249820 30852.66368738 0 761.65862508 0 15986.45346962 0 -474.77586119 0 889.67952032 0 5916
0.07350000 0.07351270 29571.79153658 0 1372.93308028 0 12199.70305136 0 -371.88568878 0 -676.22967952 0 5721
0.07450000 0.07449140 28109.49528299 0 1367.93099071 0 13226.42408913 0 1347.39432182 0 -439.82193367 0 6028
0.07550000 0.07549160 27202.26236249 0 622.37347374 0 11646.66303539 0 1182.28040323 0 -1326.40802691 0 6183
0.07650000 0.07648840 26965.30944508 0 -161.63381312 0 10179.48833938 0 2011.08730358 0 -4290.26412710 0 6330
0.07750000 0.07749960 27161.00917431 0 -283.38354932 0 9295.50108460 0 80.66189799 0 -5440.67728551 0 6583
0.07850000 0.07848650 26586.83673497 0 578.58327069 0 8775.81207935 0 -687.61308652 0 -6179.70510847 0 6549
0.07950000 0.07947320 25614.85766626 0 1120.82888975 0 9574.38162923 0 -1364.95221826 0 -5782.61788075 0 6828
0.08050000 0.08048110 24974.25298110 0 1160.43981886 0 10644.12063735 0 -687.82665888 0 -5510.94259323 0 7147
0.08150000 0.08149960 23972.26137494 0 907.94894995 0 9658.46169670 0 1822.42422171 0 -3489.49140968 0 7386
0.08250000 0.08250610 23557.03173694 0 278.22071844 0 10547.39483781 0 2388.45842992 0 -3822.74298190 0 7227
0.08350000 0.08350160 22934.41209295 0 394.41532504 0 8097.92215572 0 2701.20705521 0 -2773.94530609 0 7798
0.08450000 0.08449610 22947.22643478 0 690.43673798 0 9839.11019460 0 -23.28815537 0 -382.84757138 0 7371
0.08550000 0.08548940 22232.09623528 0 517.25765249 0 8524.15639078 0 234.59238076 0 -375.06229668 0 8256
0.08650000 0.08650700 22305.16046503 0 259.81527693 0 10073.77001926 0 -332.61422733 0 1124.14375765 0 8037
0.08750000 0.08749060 22292.79574922 0 -167.83415606 0 9349.61357722 0 -716.21604637 0 974.79035546 0 8155
0.08850000 0.08849210 22681.27263849 0 -202.37555170 0 11244.69736525 0 655.48168640 0 595.93658728 0 8718
0.08950000 0.08949900 23014.22071314 0 143.25647324 0 10031.44896926 0 485.82879305 0 319.38285735 0 8571
0.09050000 0.09049190 22512.88769054 0 338.51219676 0 9777.72500096 0 878.93795448 0 664.06392323 0 8932
0.09150000 0.09150830 21808.54851573 0 827.32987884 0 8668.03672014 0 850.47213057 0 -392.49542190 0 9285
0.09250000 0.09250820 20975.72870307 0 652.37139834 0 8376.71277515 0 1090.52409538 0 -368.62252788 0 9204
0.09350000 0.09350330 20203.04637182 0 568.57009901 0 7272.31884083 0 1083.50206087 0 -938.81015653 0 9349
0.09450000 0.09448040 19917.98346929 0 51.98351337 0 6566.76567574 0 1022.90483685 0 -1068.72510142 0 9564
0.09550000 0.09549270 19521.30090499 0 -105.10536744 0 5477.69274837 0 1459.03646488 0 -1291.71937875 0 10155
0.09650000 0.09649430 19729.02813050 0 12.54141883 0 5588.30075156 0 818.02936443 0 -1219.03733113 0 9913
0.09750000 0.09749140 19299.29805305 0 643.03041759 0 5022.59252222 0 168.17362372 0 -392.22115002 0 10476
0.09850000 0.09850240 18917.56555423 0 796.36188608 0 6030.48547002 0 94.39774837 0 -135.93094116 0 10575
0.09950000 0.09950330 18477.71889113 0 787.62790046 0 5776.04210007 0 -620.82226394 0 1493.99488866 0 10882
0.10050000 0.10051200 17902.42238671 0 436.05519161 0 6716.27757112 0 -238.93464413 0 643.46767890 0 10875
0.10150000 0.10150300 17691.77259201 0 313.23759360 0 5798.70325195 0 8.59183635 0 983.68733051 0 11118
0.10250000 0.10250800 17562.84232813 0 241.40084290 0 6615.77491293 0 747.06039197 0 1021.77290332 0 11575
0.10350000 0.10349800 17157.61686928 0 329.25439682 0 6215.47285910 0 -231.16735448 0 531.68277958 0 11364
0.10450000 0.10450100 17026.88810128 0 255.46964136 0 5594.14588994 0 984.97550908 0 611.29356431 0 12093
0.10550000 0.10551000 16648.75261069 0 243.49610020 0 5589.20000362 0 990.44520973 0 244.32341209 0 12067
0.10650000 0.10649700 16419.78055530 0 376.50109997 0 4803.93938421 0 1211.22507887 0 1886.20367396 0 12054
0.10750000 0.10749900 15890.00868634 0 419.58763829 0 4914.01907681 0 787.80437868 0 1133.40605386 0 12807
0.10850000 0.10850100 15709.59624211 0 384.13012963 0 4973.86430131 0 225.86289140 0 2048.35006076 0 12736
0.10950000 0.10950300 15048.87079214 0 429.06238279 0 4721.34308263 0 -484.80027351 0 1306.51207511 0 12933
0.11050000 0.11050200 14986.59758709 0 326.11937933 0 5282.99343706 0 -584.94210680 0 1910.12377872 0 13428
0.11150000 0.11150900 14566.53446928 0 106.44963686 0 5391.52191987 0 -133.17585767 0 789.12178294 0 13453
0.11250000 0.11250000 14798.31668735 0 25.37767994 0 5524.76859363 0 -111.28570203 0 606.50954336 0 13668
0.11350000 0.11349100 14690.29403383 0 97.19251136 0 5404.08896738 0 359.87168128 0 -44.68035018 0 13791
0.11450000 0.11448600 14526.40534617 0 122.55007053 0 4968.28893854 0 174.37509072 0 -247.80014536 0 14205
0.11550000 0.11549300 14321.15106382 0 188.17860982 0 5133.54898559 0 98.46810040 0 -358.24628319 0 14776
0.11650000 0.11649800 14230.55141893 0 359.21972354 0 4952.90048769 0 204.66976851 0 -91.46618666 0 14553
0.11750000 0.11747300 13677.28658995 0 316.55695776 0 4861.60392246 0 -141.77720360 0 -387.41015151 0 14568
0.11850000 0.11849100 13751.58729128 0 230.59745349 0 4979.34973886 0 288.66553110 0 746.18586935 0 16015
0.11950000 0.11950300 13396.27032167 0 192.17915742 0 5250.26066213 0 329.26563747 0 739.84389420 0 15270
0.12050000 0.12050700 13571.51206657 0 -15.57909229 0 4955.20482109 0 605.33826756 0 1353.28442281 0 15999
0.12150000 0.12150000 13540.03824452 0 -143.98486741 0 5089.58680058 0 459.38179001 0 1088.54911305 0 15670
0.12250000 0.12250700 13801.60818703 0 -48.47002317 0 5046.87232780 0 -31.27059108 0 1031.08016212 0 16887
0.12350000 0.12352200 13829.26018783 0 -49.23652314 0 4986.24025776 0 -207.67214632 0 594.83949977 0 16407
0.12450000 0.12449800 13960.32617535 0 79.32392333 0 5149.21845271 0 -501.48139919 0 808.96377961 0 16306
0.12550000 0.12549900 13817.23269155 0 79.73656762 0 4642.98450639 0 -238.16353549 0 -383.58833026 0 17523
0.12650000 0.12650100 13927.50347522 0 -68.66205371 0 4596.14471479 0 -35.26282060 0 -794.78482278 0 17154
0.12750000 0.12750600 13900.18869394 0 46.24976984 0 4759.56129512 0 343.09613413 0 -814.19742659 0 18007
0.12850000 0.12850300 13761.92868995 0 306.00873111 0 4395.51033989 0 198.63578720 0 -1117.25099063 0 17496
0.12950000 0.12949900 13427.40692420 0 434.71080978 0 4603.54106297 0 66.96561470 0 -637.16954230 0 18405
0.13050000 0.13049000 13164.15088408 0 422.79796814 0 4516.76323933 0 149.07575812 0 -355.42825205 0 18100
0.13150000 0.13148800 12924.72502351 0 161.23589409 0 4533.65793738 0 496.82552166 0 202.37330357 0 19059
0.13250000 0.13249300 12688.78376466 0 15.55829708 0 4469.12536153 0 573.80262193 0 420.39022075 0 18957
0.13350000 0.13349100 12835.24944369 0 73.62974689 0 3954.49464911 0 645.66635018 0 744.02204408 0 19468
0.13450000 0.13450700 12672.70963412 0 84.87410704 0 3620.77096956 0 994.21082772 0 851.39723612 0 19953
0.13550000 0.13551000 12420.46943172 0 286.93109869 0 2866.68067462 0 488.01060336 0 1236.42661781 0 19956
0.13650000 0.13649900 12257.70480913 0 113.96783370 0 2595.80347331 0 737.41478958 0 1197.19674675 0 19723
0.13750000 0.13749600 11903.28709158 0 158.12335790 0 2294.74512478 0 269.76774909 0 554.82165911 0 20946
0.13850000 0.13851100 11990.51454126 0 159.97019681 0 1839.38636367 0 145.87329673 0 350.89826980 0 20955
0.13950000 0.13949800 11615.18921335 0 147.58524784 0 2448.14628531 0 -668.36684433 0 -195.40972044 0 20506
0.14050000 0.14048300 11676.22594682 0 201.49428468 0 2212.95815006 0 -620.68737613 0 -171.14789990 0 21447
0.14150000 0.14148400 11478.27808744 0 132.78131082 0 3031.15387612 0 -418.96490624 0 -186.89492751 0 21771
0.14250000 0.14249400 11342.82824614 0 151.03612761 0 2681.74948880 0 -68.96274111 0 -559.95751242 0 22470
0.14350000 0.14350900 11384.64346686 0 52.77755294 0 3183.49841548 0 233.02543404 0 -65.74566687 0 22519
0.14450000 0.14449900 11229.84846564 0 54.27750537 0 2923.52464537 0 592.01247611 0 -211.14663146 0 22218
0.14550000 0.14550500 11394.08561347 0 52.61422628 0 3248.85155883 0 606.10263181 0 623.77855508 0 23559
0.14650000 0.14650700 11275.60915476 0 152.50415660 0 2761.65927484 0 81.40805238 0 300.05118622 0 23044
0.14750000 0.14750500 11109.11263614 0 233.18729941 0 3177.25985432 0 -145.35510273 0 1318.01126081 0 23649
0.14850000 0.14849900 10872.81167647 0 186.03389366 0 2865.73645996 0 109.02509476 0 1264.44956008 0 23640
0.14950000 0.14949500 10850.02687744 0 86.73713249 0 3004.38988673 0 224.15206436 0 1579.13157729 0 24457
0.15050000 0.15050000 10845.80039276 0 -0.87823654 0 2933.79860014 0 371.69572179 0 1298.08158707 0 24591
0.15150000 0.15149900 10691.48873953 0 83.67945068 0 2272.36498917 0 302.49715182 0 1108.71821266 0 25020
0.15250000 0.15250500 10626.28172464 0 127.52405848 0 2442.58216319 0 37.32255744 0 920.54522316 0 25297
0.15350000 0.15350100 10604.80084109 0 206.21985425 0 2105.73358274 0 -181.08238702 0 530.75992215 0 25452
0.15450000 0.15450400 10347.30001415 0 269.53506762 0 2255.06562770 0 -329.24428024 0 240.43976727 0 26061
0.15550000 0.15549900 10091.04689943 0 221.27108557 0 2090.40133514 0 -357.18404169 0 -236.47518975 0 26128
0.15650000 0.15649500 9862.07484404 0 338.17385318 0 2544.84960354 0 -263.90462567 0 -134.18077184 0 26331
0.15750000 0.15749700 9763.64046559 0 250.08986592 0 2452.75495211 0 -96.44208552 0 -632.23377256 0 27345
0.15850000 0.15849900 9464.20077077 0 182.63809308 0 2757.57891863 0 58.86133033 0 -526.35695926 0 26980
0.15950000 0.15949700 9527.87905716 0 129.98126473 0 2448.58467068 0 62.01523212 0 -943.29517617 0 27777
0.16050000 0.16050000 9329.22303679 0 122.08470759 0 2894.40011933 0 130.50170686 0 -882.93288175 0 28224
0.16150000 0.16150500 9293.15178859 0 190.60209412 0 2702.73578371 0 -16.80331156 0 -627.01361436 0 28075
0.16250000 0.16249700 9064.83169095 0 150.51680955 0 2797.67431979 0 13.17280619 0 -621.99241568 0 28590
0.16350000 0.16349900 9110.10903209 0 52.29487940 0 3056.09688009 0 332.36356081 0 131.09858541 0 29163
0.16450000 0.16449100 9037.58435357 0 -96.04146872 0 2530.78754948 0 501.45666976 0 -306.28412705 0 28996
0.16550000 0.16550500 9152.65489511 0 -23.38190240 0 2639.36099489 0 473.33705789 0 221.93428397 0 30777
0.16650000 0.16650700 9131.63487824 0 94.17990456 0 2167.98430649 0 -17.57835443 0 -175.19116197 0 29211
0.16750000 0.16749900 8948.26614286 0 165.93561016 0 2480.00228948 0 -80.94415073 0 521.58530302 0 30922
0.16850000 0.16850800 8829.82340611 0 203.01289659 0 2392.96593087 0 -129.38775837 0 157.13193250 0 30867
0.16950000 0.16949900 8783.51192510 0 160.42094691 0 2641.86766000 0 -328.34053192 0 267.86583098 0 30852
0.17050000 0.17049200 8637.43966885 0 115.67416448 0 2802.91246303 0 -296.53061441 0 -37.92393225 0 31257
0.17150000 0.17149500 8631.63949307 0 71.39712884 0 2869.37843080 0 -213.71287202 0 -285.34841507 0 32608
0.17250000 0.17250900 8646.30854228 0 62.27073211 0 3158.09454482 0 -262.49167587 0 -11.77952753 0 32361
0.17350000 0.17350400 8677.54631066 0 43.99736825 0 3280.12304916 0 -305.49503337 0 -406.35739238 0 32508
0.17450000 0.17449800 8669.14954456 0 85.44153508 0 3558.56520842 0 -98.21709667 0 -268.71000385 0 32791
0.17550000 0.17549800 8602.23395076 0 100.04786146 0 3403.38802508 0 -91.09783053 0 -280.92746713 0 33633
0.17650000 0.17650100 8511.80291563 0 142.31225858 0 3337.64145895 0 289.56365909 0 -80.09480716 0 33984
0.17750000 0.17750300 8397.17075948 0 125.67946769 0 3241.81491147 0 461.88733106 0 -259.46681676 0 34069
