### header ###
fiducial parameters:
Omega_m = 0.31
Omega_nu = 0
Omega_de = 0.69
Omega_k = 0
H_0 = 100
w_de = -1
zeff = 0
beta = 0
fgrowth = 0
b_1 = 2
gamma = 0.55
Lx = 3500 Ly = 3500 Lz = 3500
nx = 700 ny = 700 nz = 700
xoffset = 857.220397 yoffset = 15.9954215 zoffset = 262.898189
bins = 400 dk = 0.001
kx_ny = 0.628318531 ky_ny = 0.628318531 kz_ny = 0.628318531
############################
A(data) = 3.0793014 (not used)
A(ran) = 3.08197172 (used)
Ngal = 188196
weighted Ngal = 0
Nran = 9360983
weighted Nran = 0
SN(data) = 3433.94298
SN(ran) = 69.2095022
SN(data+ran) = 3503.15249
############################
13 columns: k_central k_mean P_0(k) sigma^{lin}_{P_0(k)} P^img_1(k) sigma^{lin}_{P_1(k)} P_2(k) sigma^{lin}_{P_2(k)} P^img_3(k) sigma^{lin}_{P_3(k)} P_4(k) sigma^{lin}_{P_4(k)} N_modes
### header ###
0.00050000 0 0 0 0 0 0 0 0 0 0 0 0
0.00150000 0.00179520 1863.95842617 0 -2727.79119419 0 -4990.75899935 0 7100.84271393 0 -3392.66444428 0 3
0.00250000 0.00253879 5917.25839521 0 -3224.62795650 0 5735.05868751 0 -4133.49077136 0 9300.08727009 0 6
0.00350000 0.00331552 11883.27873328 0 -6229.47870991 0 -4500.47553642 0 11682.63311773 0 -7180.65133412 0 7
0.00450000 0.00420575 15548.18049761 0 -3879.64315590 0 -1193.56601657 0 3208.50886335 0 -3685.31478606 0 24
0.00550000 0.00557378 27193.38224841 0 -8074.78889651 0 -15103.05072867 0 2782.38703479 0 -8376.39803693 0 45
0.00650000 0.00659388 23491.16152365 0 -6501.90712103 0 -654.62290069 0 -8792.39203918 0 -10249.23657717 0 40
0.00750000 0.00754703 40823.79532481 0 -6421.15428617 0 -23750.82055554 0 -4496.97969404 0 -16334.57642275 0 57
0.00850000 0.00846663 38733.59632139 0 -5423.33296143 0 -12005.91423276 0 -13294.76724557 0 -18460.40828900 0 75
0.00950000 0.00948925 44575.47491279 0 -1714.37908689 0 -15401.82722510 0 -8886.16154758 0 -2637.87722899 0 112
0.01050000 0.01054430 51095.27714978 0 -4782.45850066 0 -6827.26775643 0 -4033.95480913 0 -11526.50047908 0 105
0.01150000 0.01145670 53507.07117062 0 -5471.10572704 0 -3694.77941398 0 2690.38230856 0 281.44341300 0 144
0.01250000 0.01249090 59367.04720970 0 -3737.62877456 0 7282.45790779 0 5134.21218398 0 8478.06972279 0 169
0.01350000 0.01339930 64269.99424554 0 90.63336684 0 21803.04059687 0 5765.98171767 0 37724.63551177 0 180
0.01450000 0.01448870 66589.27771087 0 240.78935150 0 30606.15621685 0 1736.15222735 0 38515.86491673 0 267
0.01550000 0.01550050 71920.38113306 0 393.88027007 0 41728.55530215 0 2056.37588538 0 23412.58937504 0 238
0.01650000 0.01653350 73835.45079810 0 -1241.37250413 0 63722.91177447 0 -4303.28080065 0 49938.95140908 0 315
0.01750000 0.01747870 75396.32755860 0 3946.01919846 0 67488.19254983 0 6096.25451745 0 35911.96817489 0 297
0.01850000 0.01844180 80512.06011278 0 192.34327092 0 87406.06361261 0 10533.87233498 0 51624.59939270 0 388
0.01950000 0.01947590 77526.09365260 0 1958.40237361 0 79687.44597516 0 5107.47067589 0 22353.15804365 0 399
0.02050000 0.02045430 79759.49854634 0 -672.76306284 0 71373.97310102 0 17012.05044231 0 22793.67914580 0 462
0.02150000 0.02154770 79237.37031989 0 -2430.27365064 0 67392.30979909 0 19192.62427762 0 11102.72794652 0 571
0.02250000 0.02255340 81923.88584459 0 -1446.15467914 0 41267.23899615 0 6546.70111419 0 -15848.41827864 0 510
0.02350000 0.02348930 81445.82096901 0 1909.71911529 0 50809.76462121 0 3408.16530164 0 -15334.15850770 0 555
0.02450000 0.02439640 77624.78656602 0 1663.03179435 0 21672.08701586 0 -10360.40661290 0 -37283.66478360 0 592
0.02550000 0.02547300 73777.67385334 0 6224.08319756 0 33522.31823599 0 -5159.57109203 0 -26559.52195369 0 837
0.02650000 0.02652900 72226.12683294 0 3964.47634696 0 20323.88336718 0 3006.77290468 0 -42340.49632795 0 723
0.02750000 0.02749970 66086.82062319 0 126.59895292 0 20850.17063441 0 10985.58912525 0 -31185.27454251 0 826
0.02850000 0.02848090 64528.64161886 0 3152.38429425 0 13653.00678437 0 9653.47084778 0 -39629.92581068 0 831
0.02950000 0.02946900 64421.18099788 0 1732.16179634 0 12362.01804791 0 8942.09502561 0 -27160.44714177 0 996
0.03050000 0.03053250 59077.37564036 0 4258.99263677 0 13632.21158052 0 1138.40814343 0 -19214.31873353 0 1041
0.03150000 0.03150510 56154.13201126 0 4861.01940862 0 9270.01852939 0 306.33470998 0 -16045.69169897 0 1036
0.03250000 0.03246190 50325.62979423 0 2521.09810855 0 13911.09212515 0 -3674.88346218 0 -3333.89832226 0 1059
0.03350000 0.03345080 50992.42519559 0 2594.06117244 0 24084.66788225 0 -2715.72997596 0 -2712.84112872 0 1302
0.03450000 0.03451200 50297.75298041 0 1963.24709407 0 25044.84426769 0 2849.66232942 0 1352.23904229 0 1339
0.03550000 0.03553350 50677.01253608 0 1871.25360849 0 32509.87282465 0 636.37145609 0 4393.56570732 0 1365
0.03650000 0.03647120 46538.54215645 0 2549.58191750 0 26258.49732712 0 -312.44287959 0 613.31800551 0 1308
0.03750000 0.03744890 47492.08655796 0 1835.85679934 0 30012.98707778 0 1527.80676605 0 3934.87971359 0 1579
0.03850000 0.03847530 44949.45136261 0 1935.20167050 0 24958.96569611 0 4309.96898783 0 -429.13207483 0 1662
0.03950000 0.03950240 44313.56775076 0 806.85952980 0 25028.09569810 0 4875.99195539 0 1669.50640917 0 1683
0.04050000 0.04050350 42835.64699265 0 -367.97956266 0 18719.50528835 0 3537.69132001 0 -2133.93637542 0 1822
0.04150000 0.04152450 43490.30249122 0 -1050.24884381 0 16893.91120313 0 7123.50386580 0 -829.14861613 0 1887
0.04250000 0.04250150 43552.01366373 0 -1113.02787815 0 13328.03957174 0 4126.75762157 0 -4837.91987136 0 1920
0.04350000 0.04349210 44923.93508545 0 -2225.69380734 0 11792.11705585 0 2273.62394206 0 -2064.15441568 0 2005
0.04450000 0.04448520 45559.59388429 0 -186.28905643 0 11318.43603405 0 -410.58724925 0 -2665.40558263 0 2151
0.04550000 0.04548030 46384.43283493 0 -41.01803377 0 11066.84778939 0 -1331.41011648 0 2384.11953874 0 2274
0.04650000 0.04648670 46279.33275059 0 457.73278655 0 16049.17630069 0 -1722.95570340 0 1815.12903939 0 2311
0.04750000 0.04749250 46805.84483083 0 909.45407308 0 12698.33831779 0 410.42088762 0 2603.81805728 0 2568
0.04850000 0.04851840 45109.51822902 0 1183.11221139 0 20367.27227900 0 1833.92340741 0 5986.48956306 0 2493
0.04950000 0.04949480 44461.38230787 0 1191.55394009 0 15375.52410239 0 3122.79890153 0 4845.65343907 0 2644
0.05050000 0.05050630 43723.43358738 0 1376.57505112 0 20619.96210744 0 3396.03663950 0 7474.38077837 0 2829
0.05150000 0.05149060 42235.39624361 0 1939.55180233 0 16968.43671747 0 67.13692221 0 8170.30070577 0 2784
0.05250000 0.05249300 41016.68489136 0 1087.07433967 0 17411.20594977 0 924.05118212 0 5226.21691022 0 3055
0.05350000 0.05348950 40307.62464325 0 947.31146068 0 13822.85301691 0 -921.00946203 0 5566.46016719 0 3009
0.05450000 0.05448610 39777.40314827 0 535.97446002 0 13916.26282449 0 -1270.51951147 0 2209.65339875 0 3336
0.05550000 0.05550870 38957.06045792 0 299.99048671 0 12786.24020650 0 -243.38481776 0 -1897.00593931 0 3349
0.05650000 0.05647670 39051.14470454 0 769.42141847 0 11889.01146515 0 678.65428788 0 -2562.99201382 0 3324
0.05750000 0.05747970 37932.25033077 0 857.98875371 0 10838.21295352 0 430.03807128 0 -3599.67226814 0 3639
0.05850000 0.05849280 37782.41245653 0 1431.63175840 0 13199.44652737 0 641.29710924 0 -2997.82534670 0 3846
0.05950000 0.05951020 36152.96772656 0 1380.90270165 0 13861.18363591 0 1944.90235208 0 -560.86688107 0 3787
0.06050000 0.06049470 35474.70686146 0 1731.66720771 0 12783.09282430 0 2186.16043872 0 -1824.52622340 0 3930
0.06150000 0.06148310 34057.03599126 0 781.19937231 0 14969.84901750 0 2007.78255227 0 2849.60612616 0 4083
0.06250000 0.06249100 32669.37765852 0 380.20152219 0 12823.55916693 0 2225.49147563 0 -1572.43214946 0 4303
0.06350000 0.06350600 33145.30681047 0 221.33403322 0 13140.43311104 0 378.30859661 0 2629.16572468 0 4470
0.06450000 0.06451750 31982.01186632 0 305.66364313 0 12888.41772165 0 -600.14508692 0 -2332.56991449 0 4479
0.06550000 0.06550280 32136.12118785 0 622.08234088 0 13614.56375887 0 -1044.84546301 0 354.92804309 0 4636
0.06650000 0.06648880 31735.95402182 0 696.44936206 0 13698.30660682 0 -1714.71630641 0 -880.43858135 0 4653
0.06750000 0.06749660 31460.33326590 0 336.28767198 0 14208.85696302 0 716.97029403 0 791.36204463 0 5220
0.06850000 0.06852730 31502.82292566 0 348.90867462 0 15107.32217594 0 1416.47936122 0 1472.00817583 0 5029
0.06950000 0.06949320 31507.88121849 0 23.78150753 0 14384.43592743 0 2442.82945751 0 744.89319451 0 5040
0.07050000 0.07048030 31090.96548288 0 914.85520576 0 13856.68737561 0 1809.28390101 0 3378.93960974 0 5475
0.07150000 0.07148790 30080.09376264 0 884.26489886 0 12388.99560967 0 1907.58339165 0 1165.32950193 0 5509
0.07250000 0.07249820 29162.85666299 0 986.23895823 0 11332.71166048 0 465.45623766 0 3618.32050770 0 5916
0.07350000 0.07351270 28533.94225459 0 625.10270374 0 10047.39945264 0 1728.73339787 0 1083.49082022 0 5721
0.07450000 0.07449140 28082.63012774 0 152.56148392 0 9786.58263373 0 702.22480840 0 938.96640158 0 6028
0.07550000 0.07549160 27188.77358161 0 749.94811514 0 8762.16592936 0 965.77310544 0 997.72353108 0 6183
0.07650000 0.07648840 26726.22080403 0 582.69959698 0 8546.32295403 0 457.77325289 0 761.95650232 0 6330
0.07750000 0.07749960 25980.29122153 0 600.33168172 0 8612.20440796 0 422.49559464 0 1658.72662512 0 6583
0.07850000 0.07848650 25717.03518141 0 687.18256959 0 8494.95318019 0 1127.14501140 0 2153.76488331 0 6549
0.07950000 0.07947320 25660.94433426 0 -193.26388021 0 8092.17818319 0 1189.11471888 0 4860.25504437 0 6828
0.08050000 0.08048110 26038.29297930 0 134.67311234 0 8362.60575848 0 1063.24640825 0 3960.54211921 0 7147
0.08150000 0.08149960 25451.53101114 0 -16.09144115 0 8651.46800096 0 -83.81343923 0 4022.41066083 0 7386
0.08250000 0.08250610 25554.94499786 0 536.96363729 0 8699.83652106 0 129.87785074 0 3428.21862254 0 7227
0.08350000 0.08350160 25114.98592825 0 52.80273200 0 8850.82094168 0 -389.71785710 0 1754.49696935 0 7798
0.08450000 0.08449610 25586.41881991 0 494.15024679 0 9507.38735088 0 -988.71864578 0 2201.68377738 0 7371
0.08550000 0.08548940 24827.67489557 0 597.85873856 0 8543.07440596 0 -531.02632557 0 -412.28795971 0 8256
0.08650000 0.08650700 24182.23673060 0 875.03520054 0 8956.75283417 0 -478.11995478 0 -560.60497391 0 8037
0.08750000 0.08749060 23090.88195112 0 1147.63671768 0 8481.37447410 0 268.49643149 0 -2071.58448582 0 8155
0.08850000 0.08849210 22295.94313143 0 945.96033446 0 7818.01871186 0 731.73826096 0 -1206.29043320 0 8718
0.08950000 0.08949900 21294.73837082 0 499.22427653 0 6509.60696678 0 1268.54115694 0 -3017.18174726 0 8571
0.09050000 0.09049190 21065.99112844 0 306.94507732 0 6376.06803609 0 1659.95185605 0 -1034.58387296 0 8932
0.09150000 0.09150830 20368.84597011 0 230.32318161 0 5592.67336470 0 994.53343440 0 -2466.09760452 0 9285
0.09250000 0.09250820 20507.10597410 0 358.13162855 0 5806.26820989 0 47.93159600 0 -1040.96519038 0 9204
0.09350000 0.09350330 20200.68583517 0 684.69276546 0 6488.00243607 0 -153.54166866 0 -467.25361772 0 9349
0.09450000 0.09448040 19717.11304072 0 820.55401458 0 6310.65868949 0 -331.77230259 0 -595.23404661 0 9564
0.09550000 0.09549270 19131.25032462 0 421.42548469 0 7811.26308077 0 503.86104495 0 1029.03211556 0 10155
0.09650000 0.09649430 18945.89199407 0 156.49683574 0 6021.33558032 0 317.32019794 0 -237.62735645 0 9913
0.09750000 0.09749140 18782.90255847 0 113.30463530 0 7113.60085250 0 1114.59932112 0 549.15075081 0 10476
0.09850000 0.09850240 18618.56424478 0 123.52463495 0 6007.16111975 0 963.53059562 0 -209.87981012 0 10575
0.09950000 0.09950330 18174.89576043 0 201.37288565 0 5875.90404117 0 880.63641680 0 371.73731219 0 10882
0.10050000 0.10051200 17992.68481208 0 100.45218766 0 4681.33760668 0 360.74620391 0 117.97400162 0 10875
0.10150000 0.10150300 17799.45802602 0 153.29100215 0 5582.32072537 0 1065.98463077 0 769.74402515 0 11118
0.10250000 0.10250800 17549.91557979 0 357.36389210 0 4777.87231516 0 -300.32433404 0 382.08095900 0 11575
0.10350000 0.10349800 16945.05616395 0 375.16683473 0 4863.72840544 0 153.81369241 0 328.76992478 0 11364
0.10450000 0.10450100 17061.39689902 0 611.27895147 0 5837.13503679 0 -946.94389140 0 1006.62050613 0 12093
0.10550000 0.10551000 16406.96621346 0 412.51614492 0 5176.72432505 0 -122.62763102 0 765.52990519 0 12067
0.10650000 0.10649700 16287.25328318 0 278.76589000 0 6588.04422758 0 82.38441531 0 2159.90227861 0 12054
0.10750000 0.10749900 16045.80410548 0 287.93601286 0 5086.52934358 0 735.41507781 0 1050.48040122 0 12807
0.10850000 0.10850100 15987.80234770 0 252.85843819 0 5770.92760399 0 720.30427104 0 1041.39795543 0 12736
0.10950000 0.10950300 15553.12638394 0 533.34976808 0 5199.45292083 0 369.64317896 0 1519.06153979 0 12933
0.11050000 0.11050200 15064.27048365 0 530.97461858 0 5170.90166797 0 310.01265090 0 1918.58798872 0 13428
0.11150000 0.11150900 14868.00872188 0 323.72174853 0 5383.95696192 0 257.37942792 0 2672.64456170 0 13453
0.11250000 0.11250000 14683.21242386 0 31.47415927 0 4926.63108693 0 799.27883494 0 2322.54325404 0 13668
0.11350000 0.11349100 14652.63785388 0 -203.34449579 0 5243.23525542 0 534.12762111 0 2861.68982570 0 13791
0.11450000 0.11448600 14950.40269174 0 -234.93746873 0 4692.69066392 0 440.67847126 0 2170.20995533 0 14205
0.11550000 0.11549300 15280.87782323 0 -89.82651293 0 4902.34004070 0 73.37896797 0 2819.18892528 0 14776
0.11650000 0.11649800 15093.94580157 0 90.66663917 0 4697.24312747 0 -558.98856833 0 2099.77603785 0 14553
0.11750000 0.11747300 15099.79093996 0 96.26549489 0 4976.66322334 0 -482.15422432 0 2337.34719105 0 14568
0.11850000 0.11849100 14994.35363610 0 96.76592866 0 4761.68577811 0 -291.67690143 0 1927.33321499 0 16015
0.11950000 0.11950300 14806.18514286 0 89.75558443 0 4717.58870529 0 249.80210526 0 587.80510055 0 15270
0.12050000 0.12050700 14737.16754737 0 196.82716649 0 4566.79537573 0 573.05287053 0 728.58188624 0 15999
0.12150000 0.12150000 14502.46276011 0 208.53430423 0 3845.26924596 0 371.41807771 0 -562.28769932 0 15670
0.12250000 0.12250700 14286.30504655 0 376.95634633 0 3837.85041648 0 300.87512592 0 498.67573277 0 16887
0.12350000 0.12352200 13814.75974839 0 455.76454860 0 3656.35886978 0 38.92783477 0 140.59468715 0 16407
0.12450000 0.12449800 13632.54880004 0 416.57851609 0 4048.61261769 0 57.40319312 0 1327.41968547 0 16306
0.12550000 0.12549900 13384.35523190 0 245.09452073 0 3922.29018477 0 223.56305426 0 952.81375921 0 17523
0.12650000 0.12650100 13157.18168063 0 84.81734175 0 3918.19858790 0 157.19150795 0 741.90093329 0 17154
0.12750000 0.12750600 13266.66561874 0 39.77976368 0 4388.67602425 0 -50.67734976 0 1301.55494814 0 18007
0.12850000 0.12850300 13231.70719497 0 105.64559311 0 4624.11145381 0 -335.99766320 0 1094.67414363 0 17496
0.12950000 0.12949900 13223.16430042 0 207.30232891 0 4654.27011972 0 -113.59014783 0 815.18435573 0 18405
0.13050000 0.13049000 12930.23294237 0 155.21427749 0 4129.41041514 0 136.02761076 0 713.85888191 0 18100
0.13150000 0.13148800 12936.30289376 0 154.65449308 0 3947.30063265 0 636.37707642 0 877.82400599 0 19059
0.13250000 0.13249300 12536.02332123 0 141.53552961 0 3699.05086125 0 773.86709584 0 193.48532103 0 18957
0.13350000 0.13349100 12386.97229254 0 99.92410189 0 3199.33649236 0 952.78116133 0 464.15906657 0 19468
0.13450000 0.13450700 12234.43666212 0 43.96679368 0 2783.39869336 0 482.18569815 0 484.54061448 0 19953
0.13550000 0.13551000 12295.24858257 0 72.37776321 0 2856.97999304 0 197.57804196 0 1072.00512330 0 19956
0.13650000 0.13649900 12268.72064685 0 68.80806976 0 2637.70861923 0 -237.15749725 0 909.06065031 0 19723
0.13750000 0.13749600 12243.20436969 0 90.84255535 0 2903.88722854 0 -304.69807123 0 488.79857297 0 20946
0.13850000 0.13851100 11991.86341934 0 332.87613449 0 2775.81125411 0 -432.00743328 0 482.78819703 0 20955
0.13950000 0.13949800 11829.21120327 0 364.20157994 0 2826.87753038 0 -709.60092341 0 -308.23887622 0 20506
0.14050000 0.14048300 11689.60232119 0 291.76457850 0 3387.95461162 0 -438.94066665 0 -440.47951174 0 21447
0.14150000 0.14148400 11378.79832848 0 162.60500534 0 3202.61876237 0 -307.31826692 0 -1251.96119712 0 21771
0.14250000 0.14249400 11417.91579302 0 -5.40403276 0 3361.93250518 0 87.78813333 0 -1099.72231988 0 22470
0.14350000 0.14350900 11395.77171108 0 -91.93020072 0 3298.09684968 0 408.08620446 0 -1454.51772329 0 22519
0.14450000 0.14449900 11520.43052769 0 -33.08865393 0 2947.61335989 0 690.94481539 0 -988.16335763 0 22218
0.14550000 0.14550500 11479.28974601 0 61.65676776 0 2891.06164606 0 726.75528049 0 -702.44624922 0 23559
0.14650000 0.14650700 11310.11795251 0 160.84584350 0 2505.92323006 0 809.35270613 0 -620.70536117 0 23044
0.14750000 0.14750500 11019.53589046 0 224.21838420 0 2248.86078850 0 614.31280310 0 -24.76405281 0 23649
0.14850000 0.14849900 10868.00067796 0 333.57530296 0 2155.56338743 0 203.58392165 0 -74.20549302 0 23640
0.14950000 0.14949500 10496.23863633 0 248.83540930 0 2010.66015886 0 125.75815225 0 37.38190807 0 24457
0.15050000 0.15050000 10381.30298261 0 250.75194025 0 2079.34053482 0 -212.47190418 0 -54.02256741 0 24591
0.15150000 0.15149900 10159.09779896 0 101.92943398 0 2096.92091256 0 -204.38200785 0 178.89383232 0 25020
0.15250000 0.15250500 10229.03712780 0 128.50087103 0 2329.07407211 0 -158.26274197 0 -229.56218955 0 25297
0.15350000 0.15350100 10116.73178635 0 44.89662030 0 2283.69556511 0 -255.49999112 0 76.34166629 0 25452
0.15450000 0.15450400 10213.35642004 0 88.55283480 0 2411.61417043 0 12.73104861 0 -242.40126082 0 26061
0.15550000 0.15549900 10052.70503979 0 170.65443533 0 2340.65194237 0 -22.52469037 0 84.74764971 0 26128
0.15650000 0.15649500 9952.86558000 0 270.95026555 0 2372.03583921 0 -86.28548314 0 -74.46953591 0 26331
0.15750000 0.15749700 9643.59031578 0 295.05134478 0 2929.42598700 0 -46.62768052 0 61.30695871 0 27345
0.15850000 0.15849900 9287.68883234 0 390.86665161 0 2725.62174860 0 -298.86642164 0 -31.91749053 0 26980
0.15950000 0.15949700 9149.74356657 0 189.46791246 0 2914.20614591 0 -101.95450063 0 39.54415965 0 27777
0.16050000 0.16050000 8895.85098851 0 168.08707071 0 3002.54642001 0 -125.03987467 0 140.32491153 0 28224
0.16150000 0.16150500 9033.05437133 0 22.25379069 0 3189.80442054 0 326.10364242 0 132.92856335 0 28075
0.16250000 0.16249700 8862.06159241 0 -2.76699858 0 3115.59364441 0 323.31258885 0 152.03542146 0 28590
0.16350000 0.16349900 8999.92817362 0 54.65541605 0 2850.78639449 0 267.50613016 0 549.74538124 0 29163
0.16450000 0.16449100 8810.68057792 0 88.36905016 0 2575.51409874 0 317.19317859 0 41.76587426 0 28996
0.16550000 0.16550500 8835.23015911 0 150.18296222 0 2563.27303009 0 59.08940314 0 246.90651363 0 30777
0.16650000 0.16650700 8553.02238186 0 180.15840553 0 2315.49536603 0 -32.25763262 0 -294.70288460 0 29211
0.16750000 0.16749900 8437.10879152 0 132.14958625 0 2591.95917076 0 -155.00744952 0 -1.74427922 0 30922
0.16850000 0.16850800 8354.34388019 0 51.10348282 0 1986.91990451 0 24.35118371 0 -297.15784272 0 30867
0.16950000 0.16949900 8338.80930088 0 70.67828923 0 2470.30160790 0 130.60174865 0 -113.63735856 0 30852
0.17050000 0.17049200 8287.39456444 0 -1.55976394 0 1779.13647575 0 207.66202973 0 -284.47052024 0 31257
0.17150000 0.17149500 8276.85083405 0 50.20119579 0 2188.99308270 0 278.47925340 0 -105.44573434 0 32608
0.17250000 0.17250900 8320.76805646 0 51.15103078 0 1774.06694227 0 119.76913354 0 73.34839340 0 32361
0.17350000 0.17350400 8301.04071443 0 19.56851164 0 2024.07025518 0 80.29376668 0 -22.40722557 0 32508
0.17450000 0.17449800 8244.06185587 0 120.08836802 0 2117.18780583 0 -226.72504931 0 343.31869902 0 32791
0.17550000 0.17549800 8293.44203453 0 96.40296805 0 2350.47627110 0 -232.80174509 0 326.08902958 0 33633
0.17650000 0.17650100 8165.50094791 0 153.39891240 0 2553.57234851 0 -193.06716883 0 538.14952594 0 33984
0.17750000 0.17750300 8174.21245223 0 181.52302052 0 3022.58850026 0 -357.24698934 0 710.46420539 0 34069
0.17850000 0.17849800 8110.65781299 0 115.61009277 0 3026.27543370 0 -275.16888176 0 340.61757065 0 34536
