### header ###
fiducial parameters:
Omega_m = 0.31
Omega_nu = 0
Omega_de = 0.69
Omega_k = 0
H_0 = 100
w_de = -1
zeff = 0
beta = 0
fgrowth = 0
b_1 = 2
gamma = 0.55
Lx = 3500 Ly = 3500 Lz = 3500
nx = 700 ny = 700 nz = 700
xoffset = 857.220397 yoffset = 15.9954215 zoffset = 262.898189
bins = 400 dk = 0.001
kx_ny = 0.628318531 ky_ny = 0.628318531 kz_ny = 0.628318531
############################
A(data) = 3.06451461 (not used)
A(ran) = 3.06296566 (used)
Ngal = 187251
weighted Ngal = 0
Nran = 9360983
weighted Nran = 0
SN(data) = 3446.52276
SN(ran) = 68.7826976
SN(data+ran) = 3515.30546
############################
13 columns: k_central k_mean P_0(k) sigma^{lin}_{P_0(k)} P^img_1(k) sigma^{lin}_{P_1(k)} P_2(k) sigma^{lin}_{P_2(k)} P^img_3(k) sigma^{lin}_{P_3(k)} P_4(k) sigma^{lin}_{P_4(k)} N_modes
### header ###
0.00050000 0 0 0 0 0 0 0 0 0 0 0 0
0.00150000 0.00179520 9998.41269676 0 -17270.47300262 0 4489.81939953 0 20143.92054898 0 -7901.94141022 0 3
0.00250000 0.00253879 17251.70111590 0 -15810.76209869 0 -8891.81559489 0 -1059.02217171 0 1934.87569163 0 6
0.00350000 0.00331552 25660.26989521 0 -11835.61837418 0 -179.62335055 0 1089.69341129 0 10998.06624757 0 7
0.00450000 0.00420575 29004.25108118 0 -7559.40506050 0 -6631.82656217 0 1018.72443884 0 -3404.62449666 0 24
0.00550000 0.00557378 36530.54118462 0 -6800.12158492 0 10854.73671009 0 -6074.43641438 0 14005.17637177 0 45
0.00650000 0.00659388 37578.73186528 0 -8732.00726345 0 560.15309975 0 -17573.74575934 0 3894.81803438 0 40
0.00750000 0.00754703 56807.55103825 0 -9385.31388394 0 47502.09073711 0 -26532.09476591 0 27188.88598812 0 57
0.00850000 0.00846663 70036.56047705 0 -10629.27173773 0 63132.77761109 0 -35474.70686146 0 20477.20584315 0 75
0.00950000 0.00948925 88921.41573765 0 -3352.72641223 0 102930.07671115 0 -34702.13693672 0 39685.56703179 0 112
0.01050000 0.01054430 96998.72253993 0 4499.02549248 0 102042.29011642 0 6062.13914248 0 13151.89857478 0 105
0.01150000 0.01145670 104075.16180112 0 8188.69041037 0 118632.70374981 0 14277.87455850 0 17068.92813501 0 144
0.01250000 0.01249090 99465.70815586 0 10490.31481340 0 95024.52705204 0 50820.66805242 0 -11036.10460964 0 169
0.01350000 0.01339930 92625.77218605 0 4728.09871372 0 78662.29862849 0 47221.63650137 0 9828.46529836 0 180
0.01450000 0.01448870 89857.76194354 0 1248.82505556 0 35146.47986011 0 59194.61562749 0 -21294.06393177 0 267
0.01550000 0.01550050 80246.21872299 0 -2169.80529190 0 8542.74842709 0 34351.20382089 0 -29575.83817085 0 238
0.01650000 0.01653350 86403.84719343 0 -6214.51740379 0 -26374.38843615 0 22391.03903661 0 -17626.68922428 0 315
0.01750000 0.01747870 89472.32002998 0 -10044.92650948 0 -30299.62367142 0 728.69654087 0 -19023.00285809 0 297
0.01850000 0.01844180 94755.31346704 0 -1211.07895041 0 -41033.32105444 0 -18468.38915102 0 -17117.48774617 0 388
0.01950000 0.01947590 93337.41778383 0 7158.28243916 0 -19996.89283742 0 -26268.05188024 0 -27374.35672518 0 399
0.02050000 0.02045430 88165.48197599 0 17367.03019240 0 -5273.96719452 0 -38694.81607636 0 -8609.18067291 0 462
0.02150000 0.02154770 73415.94971282 0 13640.08003603 0 23180.58234396 0 -23171.25260385 0 5111.46110690 0 571
0.02250000 0.02255340 66818.58698578 0 8027.39831303 0 36496.81923243 0 -728.37168607 0 -6403.94484991 0 510
0.02350000 0.02348930 63250.91685027 0 1211.52857644 0 41998.21851319 0 12781.18191367 0 2814.90623736 0 555
0.02450000 0.02439640 60929.72247432 0 -1729.34039301 0 39028.43859006 0 15931.37428103 0 -11462.54117642 0 592
0.02550000 0.02547300 67344.98665951 0 -2527.17930060 0 37069.98001320 0 12973.62185419 0 3083.72639959 0 837
0.02650000 0.02652900 65548.73067270 0 -4546.98934915 0 24890.84735268 0 7068.14366095 0 -10679.11278307 0 723
0.02750000 0.02749970 71897.33779906 0 -2254.21133824 0 29266.38305622 0 4432.25602713 0 -6159.48317781 0 826
0.02850000 0.02848090 73458.43937258 0 -1455.03479322 0 24067.46968663 0 -4459.96423119 0 -13867.81561984 0 831
0.02950000 0.02946900 68759.84736702 0 2523.58229236 0 21054.18844518 0 844.59439430 0 -7724.86743926 0 996
0.03050000 0.03053250 70033.41309485 0 3663.46296104 0 17711.10651127 0 82.40712142 0 -10678.79804485 0 1041
0.03150000 0.03150510 66345.58040302 0 2785.80419261 0 20527.90117795 0 8115.41260825 0 -13068.71775937 0 1036
0.03250000 0.03246190 65480.83714229 0 1420.45855157 0 17820.81526241 0 2384.78273713 0 -6696.69635754 0 1059
0.03350000 0.03345080 64035.85149082 0 1608.67200741 0 19714.07806503 0 4638.22971113 0 -7868.44427104 0 1302
0.03450000 0.03451200 65188.69262979 0 2772.38285564 0 27105.92998573 0 -6246.40712991 0 9884.29761054 0 1339
0.03550000 0.03553350 61137.56210634 0 4330.58434127 0 24011.49124599 0 -468.18996392 0 3650.98583873 0 1365
0.03650000 0.03647120 62369.76223947 0 4447.65571864 0 43288.53281060 0 -3759.32323047 0 20783.96320160 0 1308
0.03750000 0.03744890 57997.03669861 0 4373.65851487 0 41037.03046918 0 4115.80922776 0 17852.40149096 0 1579
0.03850000 0.03847530 54194.88658885 0 4146.78846117 0 42561.37511481 0 7346.75442997 0 20757.32285937 0 1662
0.03950000 0.03950240 51614.25799403 0 2868.91756412 0 42539.23103287 0 9018.21671236 0 21119.94625195 0 1683
0.04050000 0.04050350 47772.09116767 0 2586.95708118 0 35769.99875616 0 6279.10618289 0 13485.52108848 0 1822
0.04150000 0.04152450 46705.35341330 0 821.13065996 0 38173.92432149 0 8789.68304235 0 16927.07112278 0 1887
0.04250000 0.04250150 43911.93930014 0 -390.61373697 0 24392.21208625 0 3181.74487396 0 4118.57442784 0 1920
0.04350000 0.04349210 46142.42162469 0 -558.01175578 0 27914.24517979 0 4387.25970226 0 10100.79254361 0 2005
0.04450000 0.04448520 45516.54219199 0 -1133.91188314 0 21424.90510628 0 3313.75507615 0 -1314.43673388 0 2151
0.04550000 0.04548030 46860.24958037 0 -871.83498728 0 22327.41695347 0 4283.86819683 0 4026.40109184 0 2274
0.04650000 0.04648670 47281.88638929 0 913.10391238 0 21637.35340510 0 76.55692475 0 -869.54301860 0 2311
0.04750000 0.04749250 46688.26762419 0 1372.37104775 0 22030.66377418 0 -316.77502638 0 2249.55770884 0 2568
0.04850000 0.04851840 45555.32243701 0 1566.91298995 0 23568.49720068 0 859.13642415 0 3914.93879919 0 2493
0.04950000 0.04949480 45872.75841365 0 1304.69108970 0 27006.56263326 0 -783.76673693 0 6817.31978054 0 2644
0.05050000 0.05050630 44529.50065130 0 1752.64226198 0 26016.26130386 0 -615.21205516 0 4151.82427270 0 2829
0.05150000 0.05149060 43195.12300302 0 1222.03858487 0 27302.86618653 0 2431.35275311 0 2607.65111918 0 2784
0.05250000 0.05249300 41408.64638235 0 2075.79972984 0 24002.72353842 0 2483.05974648 0 2152.20243286 0 3055
0.05350000 0.05348950 40545.81403224 0 1640.75282460 0 23477.56033627 0 2867.89466490 0 3127.49749353 0 3009
0.05450000 0.05448610 38300.15682920 0 1541.59904450 0 20004.19926039 0 6196.26258700 0 -867.25891837 0 3336
0.05550000 0.05550870 37288.49826341 0 1660.63753574 0 19121.80817801 0 1632.06380158 0 277.90935241 0 3349
0.05650000 0.05647670 35039.01923912 0 972.81312499 0 17204.60278933 0 3264.15008447 0 735.66686839 0 3324
0.05750000 0.05747970 34946.50868361 0 -74.52809970 0 16924.82299264 0 2521.06438660 0 1085.40847524 0 3639
0.05850000 0.05849280 35057.45390632 0 -1069.66594389 0 14605.53952731 0 1835.83431804 0 486.44702884 0 3846
0.05950000 0.05951020 36386.54844875 0 -1257.15437775 0 14102.74522012 0 1452.70797852 0 -468.46198767 0 3787
0.06050000 0.06049470 37406.52509608 0 -694.29228118 0 13412.90648476 0 310.58929628 0 -1779.40625137 0 3930
0.06150000 0.06148310 37106.73694109 0 520.89962333 0 10917.60566963 0 847.67995293 0 -4141.99994396 0 4083
0.06250000 0.06249100 37031.87420722 0 843.43548321 0 10087.94447983 0 110.80505180 0 -3589.40955402 0 4303
0.06350000 0.06350600 35837.66747356 0 1235.43744054 0 10076.52397869 0 1455.07975583 0 -3010.03269340 0 4470
0.06450000 0.06451750 34399.65102554 0 1499.34543840 0 9827.99319102 0 1624.38643714 0 -2692.65292001 0 4479
0.06550000 0.06550280 33275.47354594 0 762.65005047 0 9213.21952125 0 2851.80929371 0 -1017.44750092 0 4636
0.06650000 0.06648880 33129.23267993 0 772.66771840 0 9232.95810393 0 2767.76294819 0 -274.48545020 0 4653
0.06750000 0.06749660 31917.71534414 0 964.28709141 0 8955.26906827 0 225.74486457 0 3147.08994776 0 5220
0.06850000 0.06852730 30981.36913825 0 1276.73559133 0 9033.97610469 0 564.46501337 0 4240.35563785 0 5029
0.06950000 0.06949320 30337.84188390 0 819.86608676 0 11226.07160699 0 78.77133294 0 5539.67369650 0 5040
0.07050000 0.07048030 29827.85356024 0 1310.88468825 0 10159.41253718 0 -744.36375986 0 4409.22393379 0 5475
0.07150000 0.07148790 28747.73943150 0 891.22735792 0 12605.37813624 0 230.68737869 0 4897.39415438 0 5509
0.07250000 0.07249820 28283.05093028 0 997.77411401 0 12575.36559879 0 -588.21650836 0 4810.21166731 0 5916
0.07350000 0.07351270 27968.76233584 0 658.65154991 0 12688.33413864 0 -1157.03390169 0 2954.23410317 0 5721
0.07450000 0.07449140 27002.74081202 0 899.54768759 0 14057.67021068 0 -783.85104181 0 2334.42462186 0 6028
0.07550000 0.07549160 27085.92162743 0 420.63526694 0 15642.60196375 0 -412.42846784 0 2347.99208729 0 6183
0.07650000 0.07648840 26569.63853935 0 25.85653166 0 14870.48166504 0 -544.65898678 0 1776.29259111 0 6330
0.07750000 0.07749960 27041.29624402 0 -166.44143944 0 14746.27247447 0 1093.73554930 0 1605.67075367 0 6583
0.07850000 0.07848650 26894.49334548 0 -234.98018321 0 14809.10771205 0 1369.85314198 0 1346.62995757 0 6549
0.07950000 0.07947320 27462.03380088 0 -161.06728432 0 12549.96172814 0 2989.03515783 0 2725.41941689 0 6828
0.08050000 0.08048110 26816.82044893 0 -145.97109039 0 11112.20381509 0 2842.40086904 0 1184.56225533 0 7147
0.08150000 0.08149960 26942.04129807 0 247.00093510 0 9194.66120689 0 2741.65091654 0 2178.07841084 0 7386
0.08250000 0.08250610 26320.43331264 0 472.33439185 0 8171.16623588 0 1799.30220316 0 1531.43749624 0 7227
0.08350000 0.08350160 25726.14010850 0 963.38109496 0 7783.52115477 0 308.17368044 0 2036.85087506 0 7798
0.08450000 0.08449610 25009.21140487 0 620.67276328 0 7038.05243894 0 -287.82585449 0 2281.36875041 0 7371
0.08550000 0.08548940 24091.07505317 0 859.12743163 0 6517.21688732 0 -231.64733026 0 -345.46791144 0 8256
0.08650000 0.08650700 23452.49368514 0 353.35097979 0 7258.22306481 0 -422.85754359 0 1254.25428987 0 8037
0.08750000 0.08749060 23211.94375950 0 480.95147470 0 7872.14244513 0 -258.53721494 0 -2026.56567964 0 8155
0.08850000 0.08849210 23185.86544980 0 448.30412871 0 7971.41987239 0 1.64847515 0 -442.86927409 0 8718
0.08950000 0.08949900 22445.10656663 0 833.97872375 0 7705.72461106 0 418.60070916 0 -426.38036353 0 8571
0.09050000 0.09049190 21712.21613897 0 573.88805088 0 7503.31421335 0 388.70619854 0 -1386.56798962 0 8932
0.09150000 0.09150830 21477.51135170 0 494.81569331 0 7364.53713942 0 997.85729482 0 -574.57035837 0 9285
0.09250000 0.09250820 20861.97331768 0 227.21963794 0 6749.08903060 0 850.58004081 0 -1296.83387483 0 9204
0.09350000 0.09350330 20351.08574195 0 297.94806047 0 5970.96622440 0 -245.55763554 0 -1077.13535630 0 9349
0.09450000 0.09448040 20649.52501886 0 82.23660075 0 6660.51270284 0 -320.97116130 0 -2255.94239846 0 9564
0.09550000 0.09549270 20078.05033570 0 449.79014274 0 6085.51969600 0 -150.55502776 0 -1790.57945819 0 10155
0.09650000 0.09649430 19765.44783887 0 578.62935735 0 6561.24651623 0 18.69072922 0 -2428.31777742 0 9913
0.09750000 0.09749140 19200.82995265 0 476.32032660 0 6169.97070494 0 359.70531965 0 -1638.66206356 0 10476
0.09850000 0.09850240 18698.71008450 0 467.44808097 0 5339.26413462 0 1405.89066823 0 -3067.34877147 0 10575
0.09950000 0.09950330 18536.73230746 0 383.26122732 0 5472.02746040 0 984.45843915 0 -1590.24858087 0 10882
0.10050000 0.10051200 18206.03236296 0 243.49834833 0 4445.60992020 0 1075.56953365 0 -1698.96815474 0 10875
0.10150000 0.10150300 17820.36563638 0 88.99425515 0 4223.20240484 0 361.21718718 0 -2246.51149249 0 11118
0.10250000 0.10250800 17791.02753797 0 217.54256173 0 3725.23033681 0 -257.58625589 0 -2177.35900920 0 11575
0.10350000 0.10349800 17495.17361073 0 362.55257648 0 3157.76856595 0 -339.67335598 0 -3262.96981614 0 11364
0.10450000 0.10450100 17203.14150474 0 618.26726403 0 4175.84554331 0 -785.26623974 0 -2388.71696489 0 12093
0.10550000 0.10551000 16405.84214839 0 553.26145678 0 3525.34908551 0 -555.06670529 0 -3197.58295084 0 12067
0.10650000 0.10649700 16445.40923896 0 528.75009380 0 4858.60266871 0 -169.49777237 0 -1774.28051463 0 12054
0.10750000 0.10749900 15951.27023283 0 483.35584989 0 4220.71822103 0 44.08021184 0 -2886.90260529 0 12807
0.10850000 0.10850100 15710.94512020 0 372.45446571 0 5934.49031278 0 38.34208446 0 -640.49227865 0 12736
0.10950000 0.10950300 15553.12638394 0 114.49614428 0 4929.19395530 0 718.39223635 0 -908.03213077 0 12933
0.11050000 0.11050200 15494.11296760 0 64.56191395 0 6151.77209141 0 247.34939527 0 373.06483305 0 13428
0.11150000 0.11150900 15621.58194689 0 -93.12463227 0 5953.30716210 0 788.84526293 0 763.53693781 0 13453
0.11250000 0.11250000 15716.90266509 0 -43.28920725 0 5800.45679346 0 217.44814026 0 567.67646728 0 13668
0.11350000 0.11349100 15739.83359258 0 177.09195601 0 6260.71647829 0 464.36027422 0 1463.03813654 0 13791
0.11450000 0.11448600 15354.16686600 0 156.98917624 0 5090.56473719 0 369.74434482 0 787.31653444 0 14205
0.11550000 0.11549300 15399.24187543 0 168.81996113 0 5207.20896983 0 450.14534730 0 998.80712981 0 14776
0.11650000 0.11649800 15005.48188032 0 209.39533808 0 4678.97707003 0 321.19597431 0 -757.97618790 0 14553
0.11750000 0.11747300 14790.67304485 0 259.26111285 0 4455.78270911 0 -90.42395352 0 -101.15529037 0 14568
0.11850000 0.11849100 14276.52568042 0 432.99773461 0 4114.84253179 0 -407.06218118 0 -1407.02597395 0 16015
0.11950000 0.11950300 14289.11520924 0 385.35536056 0 4508.40019519 0 -370.34459557 0 -828.73046392 0 15270
0.12050000 0.12050700 13706.84950137 0 140.52611918 0 4390.44080641 0 -111.79344222 0 -1363.67078408 0 15999
0.12150000 0.12150000 13901.98719806 0 227.03529127 0 4791.64211231 0 198.08949157 0 -1996.51942024 0 15670
0.12250000 0.12250700 13783.17351983 0 -202.00573429 0 4495.46220619 0 533.16429734 0 -1098.84779725 0 16887
0.12350000 0.12352200 13798.23599181 0 30.65898728 0 4723.19779000 0 391.83671977 0 -1386.95017174 0 16407
0.12450000 0.12449800 13814.19771585 0 72.80929179 0 3972.37852443 0 235.65574631 0 -652.21402923 0 16306
0.12550000 0.12549900 13622.43221438 0 198.05014929 0 4152.53243369 0 706.42431551 0 -496.87610459 0 17523
0.12650000 0.12650100 13311.74062818 0 247.09086030 0 3722.09419525 0 626.78430509 0 -458.79277991 0 17154
0.12750000 0.12750600 13251.15352074 0 75.55099891 0 3131.15070502 0 733.66715663 0 -89.34867287 0 18007
0.12850000 0.12850300 13199.10930785 0 -29.32011337 0 3220.19914011 0 301.13928121 0 -557.00684161 0 17496
0.12950000 0.12949900 13072.87680014 0 104.99790682 0 2800.48448247 0 -124.98479548 0 -450.03294080 0 18405
0.13050000 0.13049000 13139.87107850 0 268.92470028 0 3455.58960707 0 -349.49543659 0 -373.85392673 0 18100
0.13150000 0.13148800 12835.24944369 0 438.90132438 0 3482.44352167 0 -448.83581149 0 236.71911187 0 19059
0.13250000 0.13249300 12647.19335696 0 334.47118283 0 3767.51766486 0 44.31772679 0 -374.90380351 0 18957
0.13350000 0.13349100 12288.39178563 0 197.95347970 0 3687.68656336 0 142.95634787 0 -193.54040022 0 19468
0.13450000 0.13450700 12238.70810940 0 153.42139370 0 3721.89186354 0 356.46688818 0 -550.00279214 0 19953
0.13550000 0.13551000 12031.31810341 0 155.98313800 0 3728.53508812 0 -187.97290591 0 -589.16971554 0 19956
0.13650000 0.13649900 12000.29390739 0 259.96365352 0 3974.76154238 0 -177.94399733 0 -447.42286170 0 19723
0.13750000 0.13749600 11762.89136395 0 229.30028239 0 3548.85328619 0 -145.05160516 0 -339.57106606 0 20946
0.13850000 0.13851100 11772.89554310 0 44.78005476 0 4002.17748952 0 50.03921801 0 577.63231163 0 20955
0.13950000 0.13949800 11769.63575439 0 -24.22326511 0 4032.86446601 0 507.70534750 0 653.47410618 0 20506
0.14050000 0.14048300 11769.07372186 0 61.19185445 0 4000.31154149 0 677.33463549 0 908.12318004 0 21447
0.14150000 0.14148400 11799.76069835 0 87.01522619 0 3872.43789878 0 528.89172600 0 972.23085929 0 21771
0.14250000 0.14249400 11570.90104947 0 294.36229289 0 3811.40116531 0 251.46909376 0 733.08039466 0 22470
0.14350000 0.14350900 11431.74179342 0 296.42045604 0 3679.26731597 0 58.15710357 0 1352.29524554 0 22519
0.14450000 0.14449900 11090.64424699 0 296.00117976 0 3556.28335632 0 -75.48591554 0 878.01959331 0 22218
0.14550000 0.14550500 10825.76955316 0 252.74153543 0 3209.03717394 0 108.32997292 0 410.44336892 0 23559
0.14650000 0.14650700 10646.15519513 0 260.92248103 0 3401.21857948 0 -20.03848325 0 28.14805071 0 23044
0.14750000 0.14750500 10342.14055546 0 225.20868553 0 3193.58127918 0 36.12486610 0 -213.77357154 0 23649
0.14850000 0.14849900 10212.92927531 0 143.79040415 0 3252.59469552 0 18.03539928 0 -483.64361055 0 23640
0.14950000 0.14949500 10085.84247814 0 43.78357107 0 2719.63048176 0 90.73531955 0 -750.62592638 0 24457
0.15050000 0.15050000 10168.05659759 0 36.04865449 0 3159.31977575 0 -54.92249391 0 -654.22385758 0 24591
0.15150000 0.15149900 10089.51817093 0 -30.86840060 0 2940.32941821 0 12.98475010 0 -787.58406192 0 25020
0.15250000 0.15250500 10239.71574600 0 65.73881008 0 2894.82726405 0 152.19391464 0 -519.36864670 0 25297
0.15350000 0.15350100 10019.14045671 0 44.31514144 0 2605.26810122 0 238.11520069 0 -675.23713006 0 25452
0.15450000 0.15450400 10018.22996400 0 56.67052751 0 2507.73297483 0 580.71787026 0 -409.06189295 0 26061
0.15550000 0.15549900 10005.13460589 0 57.88957608 0 2219.78122505 0 544.59716320 0 -290.52585879 0 26128
0.15650000 0.15649500 9943.78313420 0 114.26458688 0 2182.41730202 0 509.62862284 0 212.81024777 0 26331
0.15750000 0.15749700 9813.98734021 0 70.80924281 0 1622.13830699 0 533.83311606 0 186.14967237 0 27345
0.15850000 0.15849900 9769.90150805 0 114.32753452 0 1839.88095230 0 260.77522850 0 900.55035364 0 26980
0.15950000 0.15949700 9603.88833740 0 170.09577499 0 1503.06609380 0 -57.17556994 0 574.96040896 0 27777
0.16050000 0.16050000 9441.84311646 0 215.38098459 0 1673.42939627 0 -205.52855423 0 973.58872989 0 28224
0.16150000 0.16150500 9317.93742346 0 191.78573464 0 1615.79857998 0 -163.06137576 0 500.27640143 0 28075
0.16250000 0.16249700 9094.97911621 0 190.14909590 0 1692.68463098 0 -70.44515813 0 523.44787885 0 28590
0.16350000 0.16349900 8905.73152050 0 218.08773329 0 1584.74066201 0 -175.90381922 0 152.76606376 0 29163
0.16450000 0.16449100 8735.64923429 0 183.12706138 0 1529.95373034 0 87.89300860 0 -45.45696674 0 28996
0.16550000 0.16550500 8635.10161350 0 184.58160159 0 1988.14513544 0 -175.22375985 0 -237.58351792 0 30777
0.16650000 0.16650700 8536.36373748 0 81.75280314 0 1790.18603542 0 -64.04832861 0 -275.83657642 0 29211
0.16750000 0.16749900 8598.86175554 0 -17.77326731 0 2139.80399510 0 -137.84972024 0 -356.29827842 0 30922
0.16850000 0.16850800 8619.72440330 0 -40.16531800 0 2051.05905758 0 -88.35151475 0 -130.13750977 0 30867
0.16950000 0.16949900 8735.77288145 0 -94.51026728 0 2208.66422148 0 -5.26662705 0 -99.60947608 0 30852
0.17050000 0.17049200 8902.08954966 0 -4.06518134 0 2143.72698221 0 151.07209769 0 -425.77449245 0 31257
0.17150000 0.17149500 8818.66143994 0 124.76785092 0 2073.18065822 0 90.60492800 0 -432.37725069 0 32608
0.17250000 0.17250900 8708.23328716 0 187.38614395 0 2150.98844258 0 57.64902615 0 -93.94059110 0 32361
0.17350000 0.17350400 8438.34526310 0 314.72360762 0 2228.78498629 0 -165.22070477 0 -429.30742898 0 32508
0.17450000 0.17449800 8359.54830148 0 265.91670215 0 2206.64090435 0 -195.40859637 0 -206.99433508 0 32791
0.17550000 0.17549800 8077.75642830 0 185.91024650 0 2484.92569450 0 105.02679529 0 -307.69482872 0 33633
0.17650000 0.17650100 7971.10513417 0 169.51238522 0 2443.66126566 0 87.72226312 0 148.59465827 0 33984
0.17750000 0.17750300 7869.87183369 0 40.99566487 0 2328.01745094 0 291.06428596 0 37.78702112 0 34069
