### header ###
fiducial parameters:
Omega_m = 0.31
Omega_nu = 0
Omega_de = 0.69
Omega_k = 0
H_0 = 100
w_de = -1
zeff = 0
beta = 0
fgrowth = 0
b_1 = 2
gamma = 0.55
Lx = 3500 Ly = 3500 Lz = 3500
nx = 700 ny = 700 nz = 700
xoffset = 857.220397 yoffset = 15.9954215 zoffset = 262.898189
bins = 400 dk = 0.001
kx_ny = 0.628318531 ky_ny = 0.628318531 kz_ny = 0.628318531
############################
A(data) = 3.01498652 (not used)
A(ran) = 3.0168467 (used)
Ngal = 184647
weighted Ngal = 0
Nran = 9360983
weighted Nran = 0
SN(data) = 3435.62568
SN(ran) = 67.747039
SN(data+ran) = 3503.37272
############################
13 columns: k_central k_mean P_0(k) sigma^{lin}_{P_0(k)} P^img_1(k) sigma^{lin}_{P_1(k)} P_2(k) sigma^{lin}_{P_2(k)} P^img_3(k) sigma^{lin}_{P_3(k)} P_4(k) sigma^{lin}_{P_4(k)} N_modes
### header ###
0.00050000 0 0 0 0 0 0 0 0 0 0 0 0
0.00150000 0.00179520 12299.40762334 0 -19921.58047752 0 -19791.52614856 0 32898.68693344 0 -2580.61735417 0 3
0.00250000 0.00253879 28287.99681660 0 -30400.33990197 0 -26967.66998174 0 -4603.77711664 0 37810.85130288 0 6
0.00350000 0.00331552 38435.94389003 0 -23457.10235194 0 -34821.40024097 0 -21477.39894520 0 -51047.95401020 0 7
0.00450000 0.00420575 54706.33619711 0 -18878.22327667 0 -48762.84212310 0 -8798.79921010 0 7136.58798325 0 24
0.00550000 0.00557378 52830.94602915 0 -1726.45154577 0 -43093.61992692 0 -18769.41377759 0 13973.92736274 0 45
0.00650000 0.00659388 61305.38502175 0 4086.51609195 0 -38019.59018695 0 -21272.59428888 0 9353.60400822 0 40
0.00750000 0.00754703 42711.32539556 0 2681.60336034 0 -11878.78247299 0 -17148.06231616 0 6440.84790625 0 57
0.00850000 0.00846663 47837.06212889 0 -141.16458814 0 -1081.00551234 0 -22785.92309679 0 10209.96174351 0 75
0.00950000 0.00948925 47956.21302664 0 -5241.83017408 0 11986.24309398 0 -12914.72084436 0 22294.25703382 0 112
0.01050000 0.01054430 62915.04620643 0 -13060.84930386 0 25869.57081182 0 -11238.18902848 0 4705.06662038 0 105
0.01150000 0.01145670 71722.20846067 0 -14453.56592943 0 23607.95188475 0 259.85461921 0 7167.02766543 0 144
0.01250000 0.01249090 83115.61963509 0 -8949.76114941 0 19481.05937537 0 157.88168391 0 -3941.20819995 0 169
0.01350000 0.01339930 94354.47186197 0 -3769.32740962 0 9074.66726033 0 9180.67783738 0 -1387.11878151 0 180
0.01450000 0.01448870 91183.70910377 0 5344.59220306 0 13055.11657199 0 -6229.20893429 0 7751.84500101 0 267
0.01550000 0.01550050 87555.78908034 0 6965.82001734 0 11508.51543791 0 4495.14746797 0 -2696.95808924 0 238
0.01650000 0.01653350 84565.43876638 0 2130.76651192 0 15022.79248245 0 3541.97400794 0 24059.26401160 0 315
0.01750000 0.01747870 84874.21944196 0 4045.81369565 0 17334.54471178 0 4182.63489635 0 1861.72153667 0 297
0.01850000 0.01844180 84891.19282456 0 5264.25527229 0 25658.47139110 0 2029.45452688 0 13415.94146045 0 388
0.01950000 0.01947590 74903.64983706 0 4395.38669274 0 29122.50272687 0 -987.89358201 0 6070.25489230 0 399
0.02050000 0.02045430 77547.56329550 0 3118.79722987 0 31381.19908475 0 -3920.25562699 0 6271.23772738 0 462
0.02150000 0.02154770 70334.43772142 0 979.97679170 0 34047.48143814 0 -4869.73091293 0 -13775.41747083 0 571
0.02250000 0.02255340 74040.81748695 0 1425.31451269 0 27458.32438614 0 -1762.21929640 0 -22315.72667671 0 510
0.02350000 0.02348930 69408.09569468 0 1704.63344270 0 22297.96644856 0 -5146.17223636 0 -22380.47282493 0 555
0.02450000 0.02439640 68166.79063446 0 4930.01452280 0 28212.90926971 0 1648.92477768 0 -28046.43523239 0 592
0.02550000 0.02547300 62295.01191211 0 3755.55761248 0 20381.09827940 0 6482.87669934 0 -19206.78749754 0 837
0.02650000 0.02652900 56216.06799679 0 4535.68125451 0 16512.40351732 0 14274.83958281 0 -22003.34899290 0 723
0.02750000 0.02749970 56819.69094104 0 2828.15896457 0 16864.91032424 0 10043.37529968 0 -3837.81669453 0 826
0.02850000 0.02848090 52611.41612037 0 2079.90256736 0 9416.42800516 0 14076.44209741 0 -6791.46628386 0 831
0.02950000 0.02946900 53482.34173901 0 -1234.22345026 0 10146.00244086 0 10726.32351614 0 11953.08317432 0 996
0.03050000 0.03053250 52142.23135886 0 -529.98431725 0 3916.19775207 0 3987.62084682 0 9606.50740902 0 1041
0.03150000 0.03150510 54117.55091182 0 -281.93462944 0 6524.02872166 0 1035.47525656 0 8419.42724792 0 1036
0.03250000 0.03246190 53999.07445312 0 889.87285951 0 2263.56355965 0 -4398.72516600 0 19247.92827921 0 1059
0.03350000 0.03345080 53285.85516423 0 2442.88566076 0 9880.27345757 0 -4617.40078532 0 -1987.36953054 0 1302
0.03450000 0.03451200 52372.66469885 0 1400.14669570 0 9296.55770576 0 -7323.38511710 0 14348.46584510 0 1339
0.03550000 0.03553350 50185.23406660 0 1949.72459124 0 18088.90478234 0 -1262.92083158 0 1359.97260999 0 1365
0.03650000 0.03647120 52030.27447758 0 236.38076829 0 16682.02493685 0 -2894.71485755 0 5202.02702984 0 1308
0.03750000 0.03744890 51189.81102243 0 1071.79829533 0 18823.03168158 0 931.03499842 0 -1315.08869162 0 1579
0.03850000 0.03847530 51213.75360848 0 1209.77503492 0 19436.43399197 0 -364.83555265 0 -1186.05726188 0 1662
0.03950000 0.03950240 48139.99766609 0 1492.63476992 0 16576.13800696 0 109.12929559 0 -1596.58830788 0 1683
0.04050000 0.04050350 50330.23846103 0 1104.19609887 0 18674.54268542 0 3516.48021208 0 -5592.92065901 0 1822
0.04150000 0.04152450 47506.92421692 0 1362.85021658 0 14851.70977832 0 1114.58583234 0 -5521.10414149 0 1887
0.04250000 0.04250150 45971.67614009 0 1522.64730737 0 15472.41851169 0 3714.12457388 0 -5453.52534930 0 1920
0.04350000 0.04349210 44698.44763179 0 1856.78689100 0 14255.50566355 0 645.64386888 0 -2225.88489840 0 2005
0.04450000 0.04448520 44393.48877745 0 1614.07876042 0 14881.60990927 0 3316.10437215 0 157.95699627 0 2151
0.04550000 0.04548030 41514.87053175 0 1885.20325605 0 18365.53719683 0 2488.44401818 0 6242.87756558 0 2274
0.04650000 0.04648670 41814.54628024 0 1040.76510679 0 18007.29765803 0 3702.08583695 0 6466.51031187 0 2311
0.04750000 0.04749250 40069.21044124 0 905.71093639 0 19249.16475079 0 2710.94145875 0 8960.56341476 0 2568
0.04850000 0.04851840 39382.63149459 0 891.68934867 0 18933.19005874 0 1817.59074190 0 12904.37944569 0 2493
0.04950000 0.04949480 38909.51250533 0 -17.77877523 0 16205.42134586 0 4189.88511607 0 8507.75628137 0 2644
0.05050000 0.05050630 38947.61831130 0 83.54433805 0 16381.00031027 0 1958.39113296 0 12557.94259016 0 2829
0.05150000 0.05149060 38906.02790360 0 -541.32388571 0 12633.25495005 0 4085.59435859 0 5729.85426622 0 2784
0.05250000 0.05249300 38798.79209563 0 -362.18388314 0 11074.82865141 0 2929.44846831 0 6680.68967090 0 3055
0.05350000 0.05348950 38118.17069386 0 210.67227600 0 8462.08551745 0 -1147.92897460 0 1945.17212770 0 3009
0.05450000 0.05448610 38462.24701274 0 726.70469756 0 7572.68026901 0 664.39439837 0 -923.42282975 0 3336
0.05550000 0.05550870 36516.60277771 0 1794.37879814 0 7638.43807579 0 -930.22117531 0 -4697.65903154 0 3349
0.05650000 0.05647670 35105.56389145 0 2020.97907623 0 7507.14727525 0 -1510.85586475 0 -5517.70946497 0 3324
0.05750000 0.05747970 33540.64049668 0 1325.36264639 0 9364.84465896 0 -47.90326956 0 -2586.95708118 0 3639
0.05850000 0.05849280 33030.42736000 0 170.92533502 0 8816.09857157 0 1586.97755150 0 -4513.96431730 0 3846
0.05950000 0.05951020 33146.76809507 0 -548.52914283 0 8579.22433872 0 846.67391469 0 -2486.36449779 0 3787
0.06050000 0.06049470 34410.32964374 0 -506.39356356 0 8041.50532970 0 1362.69284747 0 -1252.50074835 0 3930
0.06150000 0.06148310 34032.08174664 0 -393.38006111 0 8738.78537584 0 787.31091411 0 295.81121277 0 4083
0.06250000 0.06249100 34898.73591800 0 98.99337601 0 10005.76408234 0 923.82412098 0 2389.97591777 0 4303
0.06350000 0.06350600 35390.51438748 0 102.97762466 0 11148.67972671 0 713.25638303 0 5929.11728173 0 4470
0.06450000 0.06451750 35610.38151578 0 934.19924160 0 12487.68852309 0 438.11223070 0 5770.16323974 0 4479
0.06550000 0.06550280 33125.86048471 0 1661.64919431 0 13291.39505035 0 -493.13409196 0 7627.27610961 0 4636
0.06650000 0.06648880 33333.25049070 0 1959.35782892 0 14414.67327790 0 -740.46212999 0 7841.16321172 0 4653
0.06750000 0.06749660 30866.26487477 0 1511.06943712 0 12433.95821259 0 167.93532192 0 6061.85812621 0 5220
0.06850000 0.06852730 30298.72441936 0 894.77041103 0 14685.46055401 0 -483.33898891 0 6209.89749634 0 5029
0.06950000 0.06949320 29392.27834441 0 124.78808409 0 12159.91114777 0 28.80652803 0 1881.19034374 0 5040
0.07050000 0.07048030 29412.73632874 0 282.30781904 0 12403.60845562 0 1215.23799118 0 2203.71833516 0 5475
0.07150000 0.07148790 28665.68268116 0 484.89019871 0 11527.51213765 0 -850.01463608 0 -1975.53312532 0 5509
0.07250000 0.07249820 28489.54168420 0 774.64382480 0 9720.34147897 0 628.20849553 0 -1469.17553184 0 5916
0.07350000 0.07351270 27891.42665881 0 983.68283425 0 11181.14272602 0 97.35122935 0 -2864.72480140 0 5721
0.07450000 0.07449140 26991.94978731 0 730.15445327 0 9452.39808750 0 1743.32376252 0 -2466.49102730 0 6028
0.07550000 0.07549160 26510.84993603 0 161.57760987 0 9645.32137600 0 1839.98211816 0 556.38972988 0 6183
0.07650000 0.07648840 26775.23004122 0 -356.50735452 0 8051.82424707 0 3455.61208837 0 760.79871530 0 6330
0.07750000 0.07749960 26538.16471730 0 -357.19977860 0 7213.50775620 0 2976.06344689 0 1125.42519184 0 6583
0.07850000 0.07848650 26516.80748092 0 169.90131173 0 5921.76589615 0 1910.94434622 0 2788.24341382 0 6549
0.07950000 0.07947320 25959.49601767 0 847.40568105 0 4992.11911809 0 1070.11444585 0 1226.09645978 0 6828
0.08050000 0.08048110 24894.78158043 0 1368.32441348 0 4952.90048769 0 -1805.24850740 0 506.70380552 0 7147
0.08150000 0.08149960 23570.85773734 0 1107.43790254 0 5621.25833951 0 -1326.64408057 0 -20.69010377 0 7386
0.08250000 0.08250610 22931.03989773 0 457.61026345 0 5662.56773094 0 -1287.43669082 0 -1399.03387128 0 7227
0.08350000 0.08350160 22243.11207299 0 278.37134316 0 6430.41658238 0 -20.28296740 0 -539.31405736 0 7798
0.08450000 0.08449610 22948.12568684 0 60.72547985 0 5855.13131862 0 651.32489376 0 -1718.23463009 0 7371
0.08550000 0.08548940 22748.82894938 0 -135.37003269 0 6290.06581735 0 890.96432670 0 -265.74359613 0 8256
0.08650000 0.08650700 22830.77329321 0 -55.38414744 0 5672.71803855 0 747.81463964 0 -768.85039341 0 8037
0.08750000 0.08749060 23151.69387158 0 -6.08705967 0 6443.70303154 0 -20.96336399 0 27.71348716 0 8155
0.08850000 0.08849210 22689.14109400 0 351.17591388 0 6288.26731323 0 -664.51692146 0 1430.82243155 0 8718
0.08950000 0.08949900 22963.63778485 0 810.46665462 0 7009.63607389 0 -1757.84668326 0 -25.67645643 0 8571
0.09050000 0.09049190 21603.96867243 0 1037.06918083 0 7908.59587545 0 -684.99626303 0 -785.22914559 0 8932
0.09150000 0.09150830 20682.90975153 0 1003.65859466 0 7764.77174935 0 -854.15119555 0 -1698.63093521 0 9285
0.09250000 0.09250820 19939.11589266 0 514.04619858 0 7239.73219436 0 209.04125758 0 -2978.15420792 0 9204
0.09350000 0.09350330 19791.63855507 0 55.83759529 0 7926.05260604 0 -173.71414046 0 -2294.21681420 0 9349
0.09450000 0.09448040 19842.33388987 0 -9.69311662 0 7486.65556896 0 632.06965906 0 -3659.18027311 0 9564
0.09550000 0.09549270 19728.35369146 0 29.49119607 0 7611.88765876 0 983.45240091 0 -1815.02787353 0 10155
0.09650000 0.09649430 19615.16033859 0 162.20146598 0 6614.78573567 0 1474.57104419 0 -2333.34551939 0 9913
0.09750000 0.09749140 19389.67288493 0 273.30630594 0 6198.33086673 0 1456.02397049 0 -82.70005278 0 10476
0.09850000 0.09850240 19018.05697176 0 390.40241273 0 6345.81944498 0 966.95337377 0 -1155.37028538 0 10575
0.09950000 0.09950330 18754.35130561 0 374.96113082 0 5492.90134881 0 820.54614613 0 499.82565134 0 10882
0.10050000 0.10051200 18200.18722458 0 371.59343187 0 5178.05072183 0 592.53741450 0 527.42819327 0 10875
0.10150000 0.10150300 18010.66985325 0 251.23641229 0 4341.60017899 0 125.24782670 0 72.37135604 0 11118
0.10250000 0.10250800 17787.65534275 0 98.64840044 0 4102.39913143 0 397.45030074 0 372.64106051 0 11575
0.10350000 0.10349800 17916.69801314 0 108.80556485 0 3669.42050593 0 329.08915926 0 -847.42928641 0 11364
0.10450000 0.10450100 17707.73431605 0 -8.97514254 0 3524.56223996 0 301.23707487 0 286.88613609 0 12093
0.10550000 0.10551000 17354.55307008 0 322.52124703 0 3749.03803505 0 -3.47000012 0 -723.56293568 0 12067
0.10650000 0.10649700 17184.93165055 0 541.79486897 0 4450.63449108 0 -714.36246306 0 163.17827853 0 12054
0.10750000 0.10749900 16662.69101759 0 890.94296946 0 4646.64895853 0 -1270.24973586 0 -807.20574184 0 12807
0.10850000 0.10850100 16087.73173270 0 597.00894536 0 5237.73857722 0 -111.15294994 0 616.07308900 0 12736
0.10950000 0.10950300 15746.12835699 0 469.39496168 0 5714.51077797 0 -383.32192684 0 -161.76532873 0 12933
0.11050000 0.11050200 15575.72009191 0 22.71544422 0 5091.50895186 0 177.06947471 0 -492.64624772 0 13428
0.11150000 0.11150900 15571.11142511 0 157.64338211 0 5856.92982273 0 396.00362899 0 -553.38173175 0 13453
0.11250000 0.11250000 15380.13276919 0 189.01941050 0 4694.83762821 0 333.87992460 0 -1196.48858576 0 13668
0.11350000 0.11349100 15283.80039242 0 164.47769776 0 4978.19195184 0 434.00714505 0 -1107.26142432 0 13791
0.11450000 0.11448600 14977.60506651 0 204.57759517 0 4048.41028597 0 243.34435141 0 -1103.70713056 0 14205
0.11550000 0.11549300 14823.83296451 0 244.59880804 0 4376.47991821 0 524.40445823 0 -1448.30164343 0 14776
0.11650000 0.11649800 14577.99993302 0 289.54792218 0 3950.88640023 0 -168.24219169 0 -1370.81983795 0 14553
0.11750000 0.11747300 14284.95616847 0 273.75480790 0 3453.31899562 0 -135.67128213 0 -1672.63131007 0 14568
0.11850000 0.11849100 14126.46299316 0 219.07353836 0 4505.96097398 0 187.05566881 0 -618.35381704 0 16015
0.11950000 0.11950300 14004.16471321 0 220.41229986 0 3339.68725738 0 15.21219745 0 -1417.22124416 0 15270
0.12050000 0.12050700 14190.75951534 0 -60.34734436 0 4292.48977595 0 643.42271630 0 111.74263448 0 15999
0.12150000 0.12150000 13859.38513179 0 138.45671538 0 3763.39234604 0 338.63022360 0 -600.33055766 0 15670
0.12250000 0.12250700 13847.69485503 0 186.21824033 0 3992.78030550 0 905.71318452 0 546.31923089 0 16887
0.12350000 0.12352200 13516.88250402 0 234.87114889 0 3808.43363352 0 474.94447095 0 174.92138635 0 16407
0.12450000 0.12449800 13184.15924238 0 256.39362285 0 3102.91419039 0 176.36693403 0 462.71689108 0 16306
0.12550000 0.12549900 13022.06905884 0 174.12217608 0 3096.30468776 0 144.68853214 0 -104.01603598 0 17523
0.12650000 0.12650100 12869.64583493 0 63.97638845 0 2592.31887158 0 171.10855762 0 159.76449290 0 17154
0.12750000 0.12750600 12755.21601048 0 -17.86735156 0 2376.49837755 0 -18.56359746 0 -467.52114520 0 18007
0.12850000 0.12850300 12873.24284316 0 -7.07538264 0 2461.34280926 0 -34.93122140 0 -605.70808496 0 17496
0.12950000 0.12949900 12814.45423984 0 24.32769075 0 2343.23729203 0 50.30303609 0 -948.27928071 0 18405
0.13050000 0.13049000 12910.33699057 0 98.16123064 0 2730.89361379 0 -287.05699398 0 -816.01616388 0 18100
0.13150000 0.13148800 12897.63505525 0 70.94975094 0 2667.67619408 0 -122.61077004 0 -247.64839658 0 19059
0.13250000 0.13249300 12926.74834064 0 84.35332769 0 3306.62850358 0 -27.09513896 0 -748.80831316 0 18957
0.13350000 0.13349100 12965.30377265 0 118.50006407 0 3349.11816335 0 -338.67631026 0 -21.82304896 0 19468
0.13450000 0.13450700 12728.23844873 0 362.14116867 0 4141.70768704 0 -478.21100405 0 -905.55918760 0 19953
0.13550000 0.13551000 12656.97272310 0 264.79825740 0 4042.63259150 0 -490.32168115 0 -111.35460721 0 19956
0.13650000 0.13649900 12393.15465044 0 256.02155731 0 4605.15971668 0 -391.78501277 0 -836.35949357 0 19723
0.13750000 0.13749600 12528.60449175 0 36.94003809 0 4072.86994196 0 -140.81837610 0 -1150.93022835 0 20946
0.13850000 0.13851100 12427.10141565 0 2.26331627 0 4538.54762045 0 81.69097956 0 -1215.02441881 0 20955
0.13950000 0.13949800 12521.52288179 0 85.59508237 0 4259.79072297 0 194.87803766 0 -1312.71691432 0 20506
0.14050000 0.14048300 12253.88298788 0 188.34721958 0 4206.80229542 0 329.86251603 0 -801.95523388 0 21447
0.14150000 0.14148400 12119.21999213 0 341.17398286 0 4204.19446445 0 514.03158573 0 -772.90714426 0 21771
0.14250000 0.14249400 11841.68832558 0 355.91834442 0 4096.30669874 0 322.77303761 0 -840.65791841 0 22470
0.14350000 0.14350900 11454.78512742 0 299.16429888 0 4264.62420278 0 360.86310668 0 -317.73272982 0 22519
0.14450000 0.14449900 11217.85469131 0 240.54430532 0 3925.23523526 0 243.58377728 0 -3.25467422 0 22218
0.14550000 0.14550500 10882.64724586 0 150.35606824 0 3518.00894058 0 547.84458720 0 269.44514241 0 23559
0.14650000 0.14650700 10921.31508437 0 132.18106008 0 3441.92097578 0 449.85084225 0 -284.10182690 0 23044
0.14750000 0.14750500 10615.38953408 0 125.75140786 0 2995.35240354 0 549.77685506 0 205.92984546 0 23649
0.14850000 0.14849900 10540.50431891 0 274.27862223 0 2816.35628130 0 291.62744256 0 -186.57344490 0 23640
0.14950000 0.14949500 10219.53877794 0 172.76430548 0 2226.24459922 0 259.90520214 0 79.38181268 0 24457
0.15050000 0.15050000 10150.12775967 0 189.88831280 0 2721.78868670 0 -36.33798884 0 -109.21967042 0 24591
0.15150000 0.15149900 9930.42924114 0 38.31668059 0 2376.43093364 0 124.52842506 0 -23.88537114 0 25020
0.15250000 0.15250500 9938.56747227 0 121.04494740 0 2501.71922669 0 -217.84830743 0 -51.83423753 0 25297
0.15350000 0.15350100 9914.59116426 0 129.77893301 0 2679.72617167 0 -216.51629032 0 -306.40215389 0 25452
0.15450000 0.15450400 9935.66738438 0 213.09800843 0 3116.81887534 0 -331.08662289 0 167.97354013 0 26061
0.15550000 0.15549900 9736.15707455 0 241.49863656 0 3300.10892616 0 -105.00408918 0 70.98504659 0 26128
0.15650000 0.15649500 9675.69361427 0 173.06780304 0 3583.91287582 0 -70.93064184 0 664.18532226 0 26331
0.15750000 0.15749700 9572.40327470 0 119.11155547 0 3927.94423209 0 43.81425805 0 721.80827010 0 27345
0.15850000 0.15849900 9621.74973141 0 61.52615140 0 3764.04430378 0 454.80796923 0 1423.12258580 0 26980
0.15950000 0.15949700 9679.77397049 0 -67.11489054 0 3763.75204686 0 422.99355546 0 1451.23545328 0 27777
0.16050000 0.16050000 9623.67188269 0 -150.92596923 0 3270.72586515 0 535.22470862 0 1211.15763496 0 28224
0.16150000 0.16150500 9831.51151470 0 -42.86228733 0 3005.23293553 0 340.49841975 0 881.23329536 0 28075
0.16250000 0.16249700 9616.70267923 0 57.65408444 0 2461.65754748 0 182.68867601 0 415.20715670 0 28590
0.16350000 0.16349900 9461.09835117 0 301.83058123 0 2410.05171998 0 -107.06708581 0 515.89640969 0 29163
0.16450000 0.16449100 9239.91606673 0 286.98505381 0 2055.88129675 0 -220.81359109 0 -182.00524444 0 28996
0.16550000 0.16550500 8931.18035375 0 195.03203457 0 2036.52489619 0 -41.30905422 0 -398.42936142 0 30777
0.16650000 0.16650700 8841.28886986 0 148.94873877 0 2251.81707964 0 -227.13420900 0 -784.60528948 0 29211
0.16750000 0.16749900 8804.56566392 0 -11.98860363 0 2171.95225619 0 5.47758034 0 -508.96654851 0 30922
0.16850000 0.16850800 8832.89210376 0 -29.50614614 0 2495.51438749 0 -106.65938740 0 -956.24328175 0 30867
0.16950000 0.16949900 8947.18704039 0 77.37041064 0 2423.94516428 0 -206.47052076 0 -427.88773479 0 30852
0.17050000 0.17049200 8773.82248417 0 159.30137809 0 2600.07492059 0 -31.51159063 0 -684.26224853 0 31257
0.17150000 0.17149500 8744.70919878 0 166.55159782 0 2609.20232898 0 77.46112269 0 -420.60491718 0 32608
0.17250000 0.17250900 8577.38087200 0 104.77152011 0 2553.92080868 0 84.93907800 0 -433.53616178 0 32361
0.17350000 0.17350400 8463.89526222 0 16.16428056 0 2355.89426476 0 177.62701098 0 -637.79901874 0 32508
0.17450000 0.17449800 8488.56849057 0 -0.50001674 0 2190.08342582 0 151.83196568 0 -763.20871081 0 32791
0.17550000 0.17549800 8539.51111968 0 50.55538870 0 2346.20482383 0 -163.18389886 0 -963.67222782 0 33633
0.17650000 0.17650100 8438.60379807 0 192.61641873 0 2224.08639428 0 -68.06877216 0 -673.52967522 0 33984
0.17750000 0.17750300 8400.91389617 0 137.45854559 0 2642.80063401 0 47.23816026 0 -639.94485896 0 34069
0.17850000 0.17849800 8173.39188472 0 92.25831531 0 2257.26879524 0 172.63391393 0 -190.60771445 0 34536
