### header ###
fiducial parameters:
Omega_m = 0.31
Omega_nu = 0
Omega_de = 0.69
Omega_k = 0
H_0 = 100
w_de = -1
zeff = 0
beta = 0
fgrowth = 0
b_1 = 2
gamma = 0.55
Lx = 3500 Ly = 3500 Lz = 3500
nx = 700 ny = 700 nz = 700
xoffset = 857.220397 yoffset = 15.9954215 zoffset = 262.898189
bins = 400 dk = 0.001
kx_ny = 0.628318531 ky_ny = 0.628318531 kz_ny = 0.628318531
############################
A(data) = 3.02890364 (not used)
A(ran) = 3.02711538 (used)
Ngal = 184718
weighted Ngal = 0
Nran = 9360983
weighted Nran = 0
SN(data) = 3449.43287
SN(ran) = 67.9776349
SN(data+ran) = 3517.4105
############################
13 columns: k_central k_mean P_0(k) sigma^{lin}_{P_0(k)} P^img_1(k) sigma^{lin}_{P_1(k)} P_2(k) sigma^{lin}_{P_2(k)} P^img_3(k) sigma^{lin}_{P_3(k)} P_4(k) sigma^{lin}_{P_4(k)} N_modes
### header ###
0.00050000 0 0 0 0 0 0 0 0 0 0 0 0
0.00150000 0.00179520 18477.71889113 0 -25882.04793414 0 -9460.31150561 0 -1348.29357388 0 -26752.63633325 0 3
0.00250000 0.00253879 33943.16819936 0 -25965.79078208 0 -16550.84654282 0 -9453.19617370 0 2680.40061071 0 6
0.00350000 0.00331552 53035.75068547 0 -21880.37627390 0 -12574.80356625 0 -26096.63195659 0 7208.70799834 0 7
0.00450000 0.00420575 65847.61957564 0 -11354.63092940 0 -15895.62901171 0 -23882.89820163 0 3537.71380131 0 24
0.00550000 0.00557378 73421.23281866 0 4911.07402632 0 13005.32048925 0 -26529.95904227 0 15469.15872298 0 45
0.00650000 0.00659388 59676.83954385 0 8285.11271234 0 -8497.65093636 0 15061.12310144 0 26915.62576885 0 40
0.00750000 0.00754703 65500.73309408 0 -2485.24043272 0 30825.91093864 0 29180.05485861 0 32907.34223450 0 57
0.00850000 0.00846663 59709.43743097 0 -7035.26475756 0 4933.17314566 0 42134.11798053 0 15307.40575896 0 75
0.00950000 0.00948925 75522.89728583 0 -12389.22042268 0 15029.42446638 0 51394.72808525 0 22040.55554682 0 112
0.01050000 0.01054430 74401.75478192 0 -6139.12635933 0 -21135.57075647 0 19249.16475079 0 23625.48729989 0 105
0.01150000 0.01145670 78623.96800950 0 215.07299076 0 -31285.42874052 0 14664.77775667 0 29114.07223882 0 144
0.01250000 0.01249090 78868.56456940 0 349.83040798 0 -29382.16175875 0 -4825.36406450 0 29284.81772342 0 169
0.01350000 0.01339930 76758.80683370 0 -281.13654324 0 -31891.97425397 0 -15356.75221567 0 36075.74445604 0 180
0.01450000 0.01448870 75474.89970721 0 -133.74913085 0 -29336.07509076 0 -14701.87190408 0 11745.46835532 0 267
0.01550000 0.01550050 76748.12821551 0 4599.66303847 0 -21444.68865157 0 -19266.58775943 0 -4404.94124586 0 238
0.01650000 0.01653350 70810.81649940 0 4025.92898451 0 -20340.96915629 0 -12278.72482600 0 -15863.70556363 0 315
0.01750000 0.01747870 64186.36380411 0 4030.63881717 0 -9097.14856180 0 -8831.12732160 0 -20792.28128314 0 297
0.01850000 0.01844180 61185.78449797 0 -2754.72379334 0 -23317.83068938 0 -3379.00705364 0 -22665.64813397 0 388
0.01950000 0.01947590 64387.90867171 0 -5708.47454853 0 -18238.85506309 0 3289.67760228 0 -40691.38045920 0 399
0.02050000 0.02045430 69265.45183690 0 -4109.98657068 0 -22476.58038868 0 -11410.49696354 0 -36850.45010442 0 462
0.02150000 0.02154770 68336.74927351 0 1096.79300630 0 -21187.61496935 0 -17199.09487047 0 -30209.47365255 0 571
0.02250000 0.02255340 71965.45614249 0 2520.25505974 0 -7272.59985709 0 -20896.03248939 0 -25371.72239095 0 510
0.02350000 0.02348930 69734.86141143 0 1585.70735797 0 -4321.99648411 0 -20745.52017610 0 -19956.08927527 0 555
0.02450000 0.02439640 71831.46758577 0 -655.86836479 0 6998.64271748 0 -7524.92998470 0 -20421.67702854 0 592
0.02550000 0.02547300 72729.25835966 0 1147.40066402 0 15316.84790557 0 -8039.98784185 0 -14933.42930914 0 837
0.02650000 0.02652900 72793.44247533 0 2326.66857286 0 18575.06292646 0 -3745.21621381 0 -17777.08913106 0 723
0.02750000 0.02749970 72079.66115391 0 6368.88526028 0 34325.12551120 0 -4994.55833930 0 -1860.01295776 0 826
0.02850000 0.02848090 68980.50134087 0 4178.93672226 0 23626.49895846 0 2659.93138573 0 -11495.47628306 0 831
0.02950000 0.02946900 66951.90110345 0 1691.16714313 0 32492.11259650 0 6727.13603972 0 7370.07878023 0 996
0.03050000 0.03053250 64600.24456402 0 2240.74503867 0 27277.34990937 0 5815.45182153 0 -1882.79775679 0 1041
0.03150000 0.03150510 61356.08035655 0 2810.34253316 0 25374.30774062 0 10382.67434200 0 -1188.32787333 0 1036
0.03250000 0.03246190 58586.72123596 0 4282.33946833 0 25346.99295934 0 6861.10211513 0 6345.81944498 0 1059
0.03350000 0.03345080 52113.56769950 0 4854.01648321 0 12828.61745976 0 3726.44432708 0 -6949.79084940 0 1302
0.03450000 0.03451200 51710.36555778 0 1114.51726437 0 17979.42084422 0 3364.63026136 0 4511.68246520 0 1339
0.03550000 0.03553350 46871.15301158 0 -380.72758465 0 8754.58973077 0 75.32865884 0 -7431.02558850 0 1365
0.03650000 0.03647120 50798.97359651 0 88.66119467 0 17844.87025497 0 434.86705483 0 -3249.14381575 0 1308
0.03750000 0.03744890 50237.27827948 0 -287.57406391 0 11184.81841881 0 -1328.95965462 0 -3820.18011353 0 1579
0.03850000 0.03847530 49055.32385512 0 1447.32370682 0 13952.57012635 0 1512.19350219 0 -973.58535770 0 1662
0.03950000 0.03950240 48847.37181660 0 2419.56131050 0 11995.23561456 0 6079.10128443 0 4220.39224216 0 1683
0.04050000 0.04050350 46028.21661326 0 1870.20822797 0 15098.55446837 0 4720.16281431 0 6358.26284533 0 1822
0.04150000 0.04152450 44928.43134574 0 2688.76365485 0 16847.59972212 0 5735.90173631 0 10702.81931547 0 1887
0.04250000 0.04250150 41607.60590029 0 1501.78465961 0 13692.79868796 0 1758.74593532 0 10846.71088547 0 1920
0.04350000 0.04349210 40249.28566595 0 1216.48570341 0 15120.02411127 0 3544.86285518 0 14856.88047766 0 2005
0.04450000 0.04448520 41232.95501142 0 -52.93301114 0 12691.25670783 0 1045.76382417 0 14210.43065412 0 2151
0.04550000 0.04548030 40135.86750008 0 -551.32244453 0 12712.27672469 0 632.72386493 0 11868.21626130 0 2274
0.04650000 0.04648670 41515.09534477 0 33.40552787 0 13611.41637666 0 920.39572250 0 7065.31101696 0 2311
0.04750000 0.04749250 40093.26543381 0 550.94475867 0 10352.30210372 0 -1033.02704283 0 6591.55131061 0 2568
0.04850000 0.04851840 40419.58152453 0 1114.16543200 0 12782.30597875 0 1830.64113740 0 7374.59752183 0 2493
0.04950000 0.04949480 38434.48260543 0 450.74110179 0 7899.82816788 0 991.78959156 0 4944.41379639 0 2644
0.05050000 0.05050630 39351.94451810 0 -219.35455462 0 9681.50503070 0 3293.07227880 0 4630.51862473 0 2829
0.05150000 0.05149060 39492.34024573 0 -837.05978611 0 6716.67099389 0 2302.63606159 0 984.22350955 0 2784
0.05250000 0.05249300 39920.72144509 0 577.82789896 0 5938.17724622 0 -1145.75952901 0 -273.53673928 0 3055
0.05350000 0.05348950 39874.40996407 0 1314.63906559 0 8093.97668731 0 -3274.79498071 0 -2986.30367970 0 3009
0.05450000 0.05448610 37415.29280366 0 2353.32015574 0 7915.90229843 0 -4164.09906330 0 -1946.54348709 0 3336
0.05550000 0.05550870 36225.69473679 0 2012.30129386 0 10697.35635921 0 -2423.16955938 0 -2943.19578415 0 3349
0.05650000 0.05647670 34787.67828878 0 1752.05774814 0 12978.79255352 0 -194.65659684 0 -754.54554129 0 3324
0.05750000 0.05747970 34476.98670257 0 1140.22912885 0 15545.93236747 0 862.35462245 0 790.41333371 0 3639
0.05850000 0.05849280 34570.62132316 0 1024.10983460 0 16373.91870031 0 1871.97301014 0 4286.80200668 0 3846
0.05950000 0.05951020 33834.92073282 0 364.86702647 0 18476.48241954 0 3378.91712843 0 9091.46079253 0 3787
0.06050000 0.06049470 32740.08135162 0 329.02508755 0 16676.85423751 0 2362.00917875 0 8054.26346828 0 3930
0.06150000 0.06148310 33707.22694052 0 -195.01292547 0 17692.78425058 0 2150.32524419 0 11589.67293619 0 4083
0.06250000 0.06249100 33288.84992031 0 207.57997298 0 16443.27351532 0 1539.63193062 0 7643.50760927 0 4303
0.06350000 0.06350600 34149.32173377 0 -320.14834566 0 14283.60729038 0 1974.84744563 0 8740.13425393 0 4470
0.06450000 0.06451750 32980.96849679 0 -277.08428865 0 13204.95444623 0 -128.35249444 0 2912.62121416 0 4479
0.06550000 0.06550280 34068.50145501 0 0.91814534 0 12281.08536265 0 562.79914893 0 2202.23456926 0 4636
0.06650000 0.06648880 33488.03425126 0 164.52603255 0 12723.74218844 0 136.36483028 0 1937.35987544 0 4653
0.06750000 0.06749660 33895.39543375 0 716.41725401 0 14382.86223633 0 215.98460754 0 3859.15144961 0 5220
0.06850000 0.06852730 32944.66119493 0 614.85797466 0 14739.19086450 0 1064.46377073 0 5733.67608747 0 5029
0.06950000 0.06949320 32963.20826863 0 228.24703342 0 14025.18473007 0 2130.19323873 0 5236.40093978 0 5040
0.07050000 0.07048030 32073.73557629 0 1128.60629599 0 15595.61604370 0 2581.91002900 0 8997.72500608 0 5475
0.07150000 0.07148790 31076.35263693 0 868.91579029 0 13352.31937732 0 2096.44880523 0 7093.22155273 0 5509
0.07250000 0.07249820 29933.96530314 0 1006.03599229 0 14191.54636089 0 1118.38292415 0 10282.20540576 0 5916
0.07350000 0.07351270 29181.96576923 0 781.13979686 0 12574.80356625 0 656.92273783 0 6189.36082745 0 5721
0.07450000 0.07449140 28440.64485352 0 548.72248202 0 11149.74758853 0 -2.37208080 0 5304.98014989 0 6028
0.07550000 0.07549160 28041.82656559 0 485.08578604 0 11030.34939647 0 -72.75454982 0 3233.72164294 0 6183
0.07650000 0.07648840 26913.93967124 0 766.35496895 0 9358.28011893 0 -58.53411499 0 249.00401906 0 6330
0.07750000 0.07749960 26926.30438705 0 477.88727331 0 9210.33067401 0 993.25986867 0 -1697.52935144 0 6583
0.07850000 0.07848650 25906.55255273 0 230.60981820 0 8212.83532814 0 1439.26416025 0 -1983.42406213 0 6549
0.07950000 0.07947320 26122.93507930 0 322.21100507 0 6792.43297982 0 1221.98238162 0 -3291.80208527 0 6828
0.08050000 0.08048110 25429.38692920 0 124.68354604 0 6658.95025239 0 1587.13492061 0 -2855.84468732 0 7147
0.08150000 0.08149960 25364.07874845 0 525.65891485 0 5730.37133615 0 387.75636355 0 -17.16627217 0 7386
0.08250000 0.08250610 24951.54686662 0 433.63732764 0 5904.74755094 0 852.99340853 0 -654.08222539 0 7227
0.08350000 0.08350160 24290.37179063 0 776.28833200 0 6550.18571592 0 889.51765495 0 2160.29570139 0 7798
0.08450000 0.08449610 23782.29437759 0 1039.37913456 0 6236.51535727 0 -113.79472768 0 2710.63796118 0 7371
0.08550000 0.08548940 22991.17737914 0 984.09424207 0 8641.02543643 0 -421.70425282 0 3111.02994021 0 8256
0.08650000 0.08650700 22238.39099969 0 1185.47274804 0 9283.01272163 0 -665.10480749 0 4865.72924127 0 8037
0.08750000 0.08749060 21741.66664388 0 1079.61504385 0 9989.24032576 0 -797.26226220 0 4077.37744291 0 8155
0.08850000 0.08849210 21084.08857612 0 544.65898678 0 11159.60563922 0 -843.36354304 0 6274.60992259 0 8718
0.08950000 0.08949900 20927.95593747 0 162.47236567 0 10979.47421126 0 382.69020227 0 4383.39291841 0 8571
0.09050000 0.09049190 20919.18822990 0 138.13860496 0 12275.91466332 0 705.45087516 0 5474.44420031 0 8932
0.09150000 0.09150830 20787.11058381 0 -103.41151378 0 11564.94350458 0 1311.99751267 0 4921.74140387 0 9285
0.09250000 0.09250820 20896.48211542 0 -34.66740333 0 11055.70830451 0 1806.50746028 0 5000.66201265 0 9204
0.09350000 0.09350330 20658.06791342 0 -216.66916317 0 9625.48162746 0 3096.92292355 0 5371.60348677 0 9349
0.09450000 0.09448040 20628.28018898 0 -183.77901913 0 7691.48270659 0 2158.30610621 0 3481.61171351 0 9564
0.09550000 0.09549270 20334.67439188 0 159.12714801 0 7343.64076971 0 2224.55850162 0 4752.38975995 0 10155
0.09650000 0.09649430 19852.00084950 0 556.17053719 0 5919.42784080 0 1.05913008 0 2083.25228128 0 9913
0.09750000 0.09749140 19324.02748466 0 868.29081011 0 5794.06086319 0 -906.46630812 0 3367.68771835 0 10476
0.09850000 0.09850240 18127.57262085 0 977.91525636 0 4919.98786235 0 -1293.91130564 0 401.47894996 0 10575
0.09950000 0.09950330 17966.49409588 0 558.40742669 0 6302.37432990 0 -1526.04198389 0 1695.68588472 0 10882
0.10050000 0.10051200 17705.03655988 0 -81.70671647 0 6475.22181619 0 -337.77593414 0 55.08301040 0 10875
0.10150000 0.10150300 18119.59175884 0 66.31331974 0 6142.62220171 0 868.05475644 0 -365.75278975 0 11118
0.10250000 0.10250800 17593.75411764 0 72.33752168 0 5711.32967381 0 928.63287136 0 -550.73905476 0 11575
0.10350000 0.10349800 17452.23432494 0 483.00176939 0 5436.20350652 0 21.43378522 0 -603.41274409 0 11364
0.10450000 0.10450100 17262.94176663 0 490.48129839 0 5645.65055159 0 599.18738348 0 342.82635851 0 12093
0.10550000 0.10551000 16436.30431187 0 467.67289399 0 4768.03674577 0 901.24952211 0 81.54440148 0 12067
0.10650000 0.10649700 16355.48403311 0 261.78126674 0 4886.87290530 0 308.70536322 0 1148.44604453 0 12054
0.10750000 0.10749900 15984.43015248 0 69.79016541 0 4960.66777735 0 498.04063600 0 815.02698662 0 12807
0.10850000 0.10850100 15992.97304704 0 247.16280047 0 4637.18433061 0 66.37503091 0 1421.60509795 0 12736
0.10950000 0.10950300 15851.79047386 0 116.37333295 0 5032.05715014 0 -84.92648847 0 1499.14310669 0 12933
0.11050000 0.11050200 15865.16684823 0 110.01573331 0 5276.61998809 0 -481.81026041 0 1180.18964220 0 13428
0.11150000 0.11150900 15989.93807134 0 280.58462729 0 5784.27025641 0 -173.91085185 0 1828.94379914 0 13453
0.11250000 0.11250000 15730.95347850 0 323.14510315 0 6552.66989973 0 -683.20899956 0 1590.58580039 0 13668
0.11350000 0.11349100 15562.56853055 0 168.00501396 0 6870.19580158 0 96.68510838 0 1847.67072326 0 13791
0.11450000 0.11448600 15281.21504275 0 160.94813343 0 6343.95349695 0 247.30892893 0 886.75245487 0 14205
0.11550000 0.11549300 15514.23373241 0 -4.46366241 0 7059.81433876 0 194.10355682 0 896.57565954 0 14776
0.11650000 0.11649800 15172.63035669 0 152.32880245 0 5977.42959857 0 206.46377637 0 -460.61488939 0 14553
0.11750000 0.11747300 15114.74100543 0 291.58360403 0 6282.98420739 0 -12.77005367 0 -177.65848480 0 14568
0.11850000 0.11849100 14960.51927740 0 306.98329553 0 5704.82133704 0 -31.60353916 0 -495.61265545 0 16015
0.11950000 0.11950300 14539.55690752 0 44.12146503 0 5408.74259679 0 517.66343998 0 -926.78378431 0 15270
0.12050000 0.12050700 14663.31647207 0 30.69675586 0 4548.32698658 0 872.24302290 0 -673.65781863 0 15999
0.12150000 0.12150000 14435.46848175 0 -168.11742046 0 3967.92722674 0 1605.81688213 0 -703.72993153 0 15670
0.12250000 0.12250700 14544.95241987 0 -22.61596446 0 3752.39898962 0 1320.51792592 0 -19.40687108 0 16887
0.12350000 0.12352200 14259.21507829 0 249.72454477 0 3366.82218825 0 871.97549542 0 285.30682466 0 16407
0.12450000 0.12449800 13994.16053405 0 402.92224952 0 3178.06918117 0 629.11449198 0 1669.20291160 0 16306
0.12550000 0.12549900 13615.46301093 0 543.02909242 0 3516.05306735 0 95.16660888 0 1819.98500051 0 17523
0.12650000 0.12650100 13437.74832287 0 273.94252677 0 3583.90163516 0 -262.59284173 0 3177.69823970 0 17154
0.12750000 0.12750600 13206.19091781 0 144.09390172 0 4417.51953403 0 -90.41630988 0 2856.42920116 0 18007
0.12850000 0.12850300 13366.59500374 0 59.01532725 0 4334.01273975 0 -477.34884614 0 2915.45385814 0 17496
0.12950000 0.12949900 13107.27319138 0 126.21115047 0 4962.39883756 0 -72.37686396 0 2347.93588404 0 18405
0.13050000 0.13049000 13089.62536973 0 316.12082051 0 4857.32123453 0 -484.67100602 0 2589.91337232 0 18100
0.13150000 0.13148800 12773.76308419 0 348.24772436 0 4628.36041979 0 -99.03395476 0 1633.83982440 0 19059
0.13250000 0.13249300 12510.39463756 0 231.70240945 0 4521.00096466 0 253.52276065 0 1416.20958560 0 18957
0.13350000 0.13349100 12250.51079266 0 151.10694371 0 4090.46156036 0 397.50537993 0 811.35803822 0 19468
0.13450000 0.13450700 12128.21251271 0 218.90155640 0 3842.35791742 0 656.40791602 0 872.18569558 0 19953
0.13550000 0.13551000 11860.90983833 0 142.94061096 0 3369.92460785 0 706.10845323 0 812.83056346 0 19956
0.13650000 0.13649900 11627.44152264 0 178.52626304 0 3427.28564853 0 647.50419658 0 1369.97678914 0 19723
0.13750000 0.13749600 11670.49321494 0 21.81079665 0 2887.16114026 0 536.56347012 0 1536.87797119 0 20946
0.13850000 0.13851100 11645.42656381 0 34.92886086 0 3188.11832293 0 434.64786214 0 2085.47793012 0 20955
0.13950000 0.13949800 11777.61661641 0 53.71322471 0 3154.74483091 0 122.53096142 0 2125.96675405 0 20506
0.14050000 0.14048300 11663.29919848 0 22.53334567 0 3089.56029732 0 -28.35454147 0 2393.40431625 0 21447
0.14150000 0.14148400 11708.59902092 0 45.12053407 0 3283.95611106 0 -111.77354627 0 1768.23304454 0 21771
0.14250000 0.14249400 11698.48243526 0 63.10422636 0 3661.66445692 0 -602.63039479 0 1741.26672344 0 22470
0.14350000 0.14350900 11646.55062889 0 80.33434542 0 3503.75579545 0 -195.19502401 0 907.93883336 0 22519
0.14450000 0.14449900 11694.32339449 0 78.09116116 0 3678.13201024 0 -375.34106482 0 780.06631471 0 22218
0.14550000 0.14550500 11391.83748332 0 91.90457204 0 2835.88129162 0 -157.91203366 0 -358.65993913 0 23559
0.14650000 0.14650700 11404.87663817 0 181.83326248 0 3229.70873063 0 93.41374180 0 -514.69815632 0 23044
0.14750000 0.14750500 11129.82915543 0 253.92630001 0 2624.12991315 0 -7.11037479 0 -762.45333908 0 23649
0.14850000 0.14849900 11033.95764535 0 211.59962969 0 2408.90517360 0 187.00733402 0 -1097.30895216 0 23640
0.14950000 0.14949500 10649.83088792 0 124.04957334 0 2251.50234142 0 375.98852630 0 -935.43683725 0 24457
0.15050000 0.15050000 10807.09883230 0 154.66460967 0 2361.88553160 0 405.96284554 0 -615.32108947 0 24591
0.15150000 0.15149900 10510.22200584 0 175.02480034 0 2014.79671832 0 110.16613321 0 -625.17801610 0 25020
0.15250000 0.15250500 10413.52992825 0 271.50330556 0 2193.88276577 0 -51.14271270 0 -331.80490047 0 25297
0.15350000 0.15350100 10266.81695491 0 249.22321175 0 2288.16934410 0 -169.25272619 0 -416.48072243 0 25452
0.15450000 0.15450400 10029.12215455 0 160.76266269 0 2424.75449113 0 -1.75564352 0 -162.87140877 0 26061
0.15550000 0.15549900 10197.07995778 0 66.29117565 0 2453.46311310 0 -0.41870188 0 -115.00309763 0 26128
0.15650000 0.15649500 9874.76553872 0 -18.02460826 0 2369.21443587 0 378.70539158 0 -415.26560809 0 26331
0.15750000 0.15749700 10098.79170778 0 103.11048916 0 2175.43685792 0 296.50363685 0 -197.83657693 0 27345
0.15850000 0.15849900 9862.22097250 0 89.79829890 0 2235.81039300 0 300.94256983 0 158.24026067 0 26980
0.15950000 0.15949700 9805.53437086 0 330.54707166 0 2585.04617056 0 -183.57219115 0 332.89074733 0 27777
0.16050000 0.16050000 9647.55826549 0 352.38091164 0 2749.86783223 0 -357.51451682 0 633.98956220 0 28224
0.16150000 0.16150500 9483.51220872 0 273.88182726 0 3328.94119528 0 -500.92273885 0 1002.21304698 0 28075
0.16250000 0.16249700 9304.83082470 0 205.28912837 0 3717.03590242 0 -204.66639631 0 1155.93231792 0 28590
0.16350000 0.16349900 9293.75878373 0 31.05566984 0 3881.04823724 0 -32.78762930 0 1402.01264372 0 29163
0.16450000 0.16449100 9267.96149031 0 28.20155621 0 4120.29424740 0 274.82604192 0 1238.73095121 0 28996
0.16550000 0.16550500 9242.68126681 0 67.61442506 0 3497.11257087 0 397.33901830 0 1032.54144672 0 30777
0.16650000 0.16650700 9145.57328515 0 69.47936142 0 3371.64442741 0 321.38369318 0 921.54564107 0 29211
0.16750000 0.16749900 9142.18984928 0 35.42401153 0 3049.74591243 0 356.90414949 0 732.55995253 0 30922
0.16850000 0.16850800 9118.41587298 0 93.26143098 0 3010.65092919 0 -44.20194809 0 435.78878819 0 30867
0.16950000 0.16949900 8937.63248727 0 84.10614578 0 2618.21733087 0 40.05291150 0 392.14471360 0 30852
0.17050000 0.17049200 8836.46663069 0 135.54089058 0 2892.05082332 0 28.59430455 0 57.26279739 0 31257
0.17150000 0.17149500 8707.27783184 0 150.51456142 0 2461.35404991 0 51.55277163 0 37.55816147 0 32608
0.17250000 0.17250900 8538.98280910 0 141.90422296 0 2534.58688943 0 453.30734235 0 -147.32109255 0 32361
0.17350000 0.17350400 8328.56906807 0 102.78810729 0 2194.79325848 0 291.88934973 0 -46.05946562 0 32508
0.17450000 0.17449800 8313.38294893 0 85.75054057 0 2014.18972318 0 286.87377137 0 21.17390138 0 32791
0.17550000 0.17549800 8215.49936236 0 73.82061314 0 1833.29393097 0 400.49764115 0 -163.04226666 0 33633
0.17650000 0.17650100 8185.64419402 0 4.30277497 0 1611.92055547 0 28.87666970 0 -30.95293029 0 33984
0.17750000 0.17750300 8153.09126950 0 19.48297029 0 1452.12346468 0 433.51480455 0 -6.02230228 0 34069
