### header ###
fiducial parameters:
Omega_m = 0.31
Omega_nu = 0
Omega_de = 0.69
Omega_k = 0
H_0 = 100
w_de = -1
zeff = 0
beta = 0
fgrowth = 0
b_1 = 2
gamma = 0.55
Lx = 3500 Ly = 3500 Lz = 3500
nx = 700 ny = 700 nz = 700
xoffset = 857.220397 yoffset = 15.9954215 zoffset = 262.898189
bins = 400 dk = 0.001
kx_ny = 0.628318531 ky_ny = 0.628318531 kz_ny = 0.628318531
############################
A(data) = 3.02774812 (not used)
A(ran) = 3.03336666 (used)
Ngal = 185475
weighted Ngal = 0
Nran = 9360983
weighted Nran = 0
SN(data) = 3426.00417
SN(ran) = 68.1180152
SN(data+ran) = 3494.12219
############################
13 columns: k_central k_mean P_0(k) sigma^{lin}_{P_0(k)} P^img_1(k) sigma^{lin}_{P_1(k)} P_2(k) sigma^{lin}_{P_2(k)} P^img_3(k) sigma^{lin}_{P_3(k)} P_4(k) sigma^{lin}_{P_4(k)} N_modes
### header ###
0.00050000 0 0 0 0 0 0 0 0 0 0 0 0
0.00150000 0.00179520 11560.55965080 0 -13862.86973352 0 -13304.77142472 0 25302.81720197 0 36598.99674757 0 3
0.00250000 0.00253879 20269.02899162 0 -16044.11800787 0 -7214.27212045 0 -9137.82847679 0 -1680.84822576 0 6
0.00350000 0.00331552 28951.08280322 0 -13513.17308928 0 -11428.48200471 0 -17830.03259601 0 -16617.72841467 0 7
0.00450000 0.00420575 41003.75814302 0 -14346.44252796 0 -15497.70997583 0 -8386.95300796 0 2790.27797160 0 24
0.00550000 0.00557378 52128.96739100 0 -9568.78378517 0 -15050.21967023 0 -9899.78722724 0 9966.28691697 0 45
0.00650000 0.00659388 76926.06771658 0 -16927.63315532 0 -10908.69183360 0 -22650.58566199 0 -35037.33314151 0 40
0.00750000 0.00754703 73419.65912756 0 -9258.78911931 0 -4125.85836951 0 -18210.19140373 0 -11471.19647748 0 57
0.00850000 0.00846663 86793.22333475 0 -3187.79234406 0 -6651.08179688 0 -17830.70703505 0 -17303.85773529 0 75
0.00950000 0.00948925 81207.96879954 0 -3333.99948811 0 -8993.89194418 0 -8585.77763809 0 7320.76604548 0 112
0.01050000 0.01054430 90386.85937345 0 5107.92030192 0 -2491.11929305 0 -783.17323058 0 -18432.41906868 0 105
0.01150000 0.01145670 78079.24607507 0 4200.21527409 0 -18710.40036126 0 14074.53118678 0 5672.16724667 0 144
0.01250000 0.01249090 69851.65177253 0 8822.19100427 0 -11801.78401548 0 11123.61307558 0 -587.47462541 0 169
0.01350000 0.01339930 61616.97586002 0 9417.38346047 0 -9291.49941294 0 -3622.08612570 0 24027.45297003 0 180
0.01450000 0.01448870 53131.29621668 0 8410.76070621 0 -4479.26442849 0 -4529.01554863 0 30093.69495002 0 267
0.01550000 0.01550050 50699.38143103 0 2446.38150314 0 4443.14821769 0 -6476.50325037 0 29095.30035210 0 238
0.01650000 0.01653350 52124.47113071 0 -2018.86583389 0 22507.82939771 0 -5843.77826138 0 53159.84746954 0 315
0.01750000 0.01747870 58363.03228641 0 -4198.55165779 0 30639.87816904 0 4370.37624486 0 37870.65156477 0 297
0.01850000 0.01844180 61916.53920200 0 -5495.09327570 0 32929.71112945 0 18061.70240757 0 49544.51697493 0 388
0.01950000 0.01947590 65501.63234614 0 -2607.32514031 0 19275.35546700 0 22644.40330409 0 38107.71688868 0 399
0.02050000 0.02045430 64770.65282910 0 -4302.28038273 0 10107.61561861 0 25993.44278288 0 34688.53574933 0 462
0.02150000 0.02154770 65396.64466831 0 -4781.42436079 0 -16216.66199659 0 24272.27434295 0 28643.65100573 0 571
0.02250000 0.02255340 65613.92644694 0 -4402.62567181 0 -30903.80864821 0 13425.15879405 0 4291.06221330 0 510
0.02350000 0.02348930 68259.86322251 0 -3866.64896365 0 -42605.21365266 0 -2690.64084353 0 8209.69918659 0 555
0.02450000 0.02439640 69477.11329017 0 -1599.79189334 0 -40521.53422666 0 -13936.72080882 0 -4267.35568091 0 592
0.02550000 0.02547300 70377.82663324 0 1029.21983443 0 -33690.59077743 0 -23447.66020533 0 1720.56144479 0 837
0.02650000 0.02652900 70440.21224480 0 2815.25469753 0 -17481.01039081 0 -26274.12183163 0 -6584.13248112 0 723
0.02750000 0.02749970 70177.85545674 0 5829.17665608 0 -6860.14665982 0 -24214.38499169 0 -3185.27443829 0 826
0.02850000 0.02848090 68045.84123259 0 5422.82713215 0 12358.19622667 0 -16062.10304904 0 -257.13775393 0 831
0.02950000 0.02946900 64662.40536256 0 6602.33109466 0 21853.39871215 0 -9506.58926467 0 5126.22008131 0 996
0.03050000 0.03053250 61060.67605534 0 5082.62883778 0 32086.99954415 0 1784.45330354 0 308.29845166 0 1041
0.03150000 0.03150510 58966.54282416 0 2997.90403126 0 32977.93352109 0 2902.70696022 0 -4894.30297543 0 1036
0.03250000 0.03246190 54354.84104875 0 1144.00598750 0 28926.57818463 0 6989.60523429 0 -1561.06785157 0 1059
0.03350000 0.03345080 56386.13904235 0 -255.57867567 0 32214.46852344 0 3223.32404102 0 -12589.75363172 0 1302
0.03450000 0.03451200 55910.77192294 0 -1532.49411741 0 25489.29959760 0 4173.50748796 0 -7835.02581642 0 1339
0.03550000 0.03553350 59196.30172510 0 -1127.69580329 0 22940.81926387 0 3589.65684834 0 -9761.33613219 0 1365
0.03650000 0.03647120 58842.89566611 0 993.02943533 0 27402.57075852 0 4375.15352142 0 -479.51604360 0 1308
0.03750000 0.03744890 56977.95930334 0 2004.85998308 0 24197.97364162 0 4103.65808432 0 5368.75960214 0 1579
0.03850000 0.03847530 56944.46216416 0 1947.36405459 0 25314.39507222 0 9256.63091437 0 11034.57588114 0 1662
0.03950000 0.03950240 54234.90330545 0 3780.27580344 0 23648.30582087 0 6888.34945251 0 15581.34041727 0 1683
0.04050000 0.04050350 49562.83923562 0 3833.25299033 0 25129.48636770 0 5446.90460602 0 16912.45827683 0 1822
0.04150000 0.04152450 47879.66419516 0 2753.15010224 0 28578.11801196 0 2600.24353035 0 19820.30221443 0 1887
0.04250000 0.04250150 45110.86710711 0 3040.77587314 0 26629.32639473 0 -1030.61817138 0 16838.83201455 0 1920
0.04350000 0.04349210 42146.81991585 0 1350.42929752 0 26139.12161635 0 -1322.03541377 0 18107.11463652 0 2005
0.04450000 0.04448520 41094.58260092 0 1607.09831631 0 26015.47445831 0 1195.93779387 0 10569.58388235 0 2151
0.04550000 0.04548030 40981.95128060 0 398.03256645 0 28135.23637316 0 2004.32043184 0 13622.43221438 0 2274
0.04650000 0.04648670 40371.69635241 0 208.73551188 0 23864.01390840 0 5098.24210164 0 10664.63482493 0 2311
0.04750000 0.04749250 39642.17811997 0 -148.87117828 0 23421.69430214 0 4788.48348945 0 9815.21257114 0 2568
0.04850000 0.04851840 40061.11717272 0 -234.04046480 0 17913.43822443 0 4377.79507434 0 9234.57675763 0 2493
0.04950000 0.04949480 40116.08395479 0 274.74398517 0 18749.96745183 0 2719.72040697 0 4877.54316519 0 2644
0.05050000 0.05050630 39101.16560029 0 884.77972066 0 14628.47045480 0 11.88136782 0 6727.39457469 0 2829
0.05150000 0.05149060 37572.32469437 0 1585.11160348 0 16276.46225848 0 274.94856501 0 3408.32267075 0 2784
0.05250000 0.05249300 37786.68390381 0 1282.20978823 0 17641.75169626 0 -4422.61154881 0 1183.47191221 0 3055
0.05350000 0.05348950 37080.77103790 0 1762.59023787 0 22238.27859318 0 -2724.26162986 0 -44.72688648 0 3009
0.05450000 0.05448610 36972.52357136 0 1670.41690188 0 23429.45035114 0 -2400.95803354 0 2698.93644376 0 3336
0.05550000 0.05550870 34916.94577219 0 794.24189935 0 22897.65516506 0 2908.69822706 0 2322.11610931 0 3349
0.05650000 0.05647670 36272.11862431 0 -390.60811664 0 23656.84871543 0 4695.97293393 0 6578.51215576 0 3324
0.05750000 0.05747970 36168.03019854 0 -1228.52444034 0 21357.23638888 0 7795.08778437 0 6019.40218840 0 3639
0.05850000 0.05849280 37457.44524390 0 -908.54020818 0 19383.60293354 0 7380.66747322 0 7943.73414964 0 3846
0.05950000 0.05951020 36860.11706405 0 62.53050354 0 15328.65058884 0 4693.36510296 0 6364.04053981 0 3787
0.06050000 0.06049470 36625.29987028 0 1545.73560397 0 12864.92476162 0 -402.42204056 0 5945.03404316 0 3930
0.06150000 0.06148310 35055.76780871 0 1202.31124284 0 14013.38204680 0 -703.02177054 0 4549.69834597 0 4083
0.06250000 0.06249100 33379.89919123 0 1101.51745180 0 13482.26129977 0 -3695.85851645 0 2707.05219359 0 4303
0.06350000 0.06350600 34152.91874200 0 433.47658633 0 14747.50894605 0 -732.93314213 0 2867.29891041 0 4470
0.06450000 0.06451750 32935.89348736 0 144.06580009 0 15839.53816456 0 -574.03642747 0 -471.07094270 0 4479
0.06550000 0.06550280 33178.46673013 0 412.01481189 0 16282.30739686 0 785.25612316 0 -159.11590736 0 4636
0.06650000 0.06648880 32535.27669530 0 1237.24718531 0 13718.42737162 0 2608.28059562 0 -1910.52844214 0 4653
0.06750000 0.06749660 31045.77806694 0 1086.86189137 0 14700.52302599 0 2339.75269031 0 281.93912570 0 5220
0.06850000 0.06852730 29945.43076688 0 1278.80387106 0 11476.59198983 0 1066.29599680 0 154.86019699 0 5029
0.06950000 0.06949320 28691.98580387 0 511.24840061 0 14210.31824761 0 1317.88761365 0 487.51713879 0 5040
0.07050000 0.07048030 27892.43831737 0 740.58128089 0 12067.40059226 0 -830.21085762 0 -495.75316358 0 5475
0.07150000 0.07148790 27873.32921113 0 659.45076017 0 12176.54731085 0 -266.16736866 0 556.70221997 0 5509
0.07250000 0.07249820 27457.42513408 0 724.20140465 0 13996.07144468 0 -1195.65677760 0 592.26539076 0 5916
0.07350000 0.07351270 27236.54634722 0 698.32317853 0 14141.30065212 0 -651.19450221 0 -37.60851959 0 5721
0.07450000 0.07449140 26824.80131094 0 406.57883320 0 15782.09843933 0 -44.68405960 0 375.94918402 0 6028
0.07550000 0.07549160 26539.73840841 0 395.97889956 0 15834.36746523 0 242.62157757 0 664.46746260 0 6183
0.07650000 0.07648840 27410.10199451 0 41.88873458 0 17407.15931551 0 510.18053879 0 1944.01434067 0 6330
0.07750000 0.07749960 26609.09322342 0 166.75055733 0 15893.49328807 0 1676.72290694 0 3030.51315903 0 6583
0.07850000 0.07848650 27589.39037367 0 53.59160086 0 16370.09687906 0 2186.76743386 0 4152.13901092 0 6549
0.07950000 0.07947320 26587.73598703 0 175.41035466 0 14826.86794021 0 2055.70144633 0 5229.65654934 0 6828
0.08050000 0.08048110 26852.56571825 0 367.05445710 0 14332.95374709 0 2824.42706853 0 4336.59808941 0 7147
0.08150000 0.08149960 26013.90076721 0 671.79749094 0 11687.69141056 0 2318.44041652 0 5420.54528005 0 7386
0.08250000 0.08250610 25313.38341366 0 552.76349596 0 10599.51773525 0 1997.37370969 0 3986.05839637 0 7227
0.08350000 0.08350160 24046.44966977 0 591.52125968 0 10000.53717975 0 1463.39783737 0 3261.95815758 0 7798
0.08450000 0.08449610 23265.89888301 0 332.88512701 0 6736.82548065 0 1523.43415292 0 2430.16124414 0 7371
0.08550000 0.08548940 22887.20135988 0 250.67213163 0 7418.76203855 0 1038.68333828 0 1104.81208653 0 8256
0.08650000 0.08650700 22597.97941657 0 202.31372812 0 5455.88588595 0 189.17115928 0 1072.67956235 0 8037
0.08750000 0.08749060 22601.91364433 0 66.40133403 0 5712.73475516 0 729.05848983 0 578.13476872 0 8155
0.08850000 0.08849210 22217.03376330 0 422.69905041 0 5248.09121654 0 -64.10700481 0 1485.39579085 0 8718
0.08950000 0.08949900 22474.21985202 0 191.18323576 0 5819.85815662 0 34.27690312 0 1099.65824817 0 8571
0.09050000 0.09049190 22321.90903462 0 60.97209973 0 6236.17813775 0 -392.73372369 0 1624.39767779 0 8932
0.09150000 0.09150830 22178.70314430 0 223.10668384 0 6005.83472297 0 -351.48727990 0 375.56925003 0 9285
0.09250000 0.09250820 22177.57907923 0 195.81325980 0 5770.05083323 0 -362.48513258 0 273.30405781 0 9204
0.09350000 0.09350330 21266.97396351 0 743.44202650 0 5141.68721672 0 -452.90267893 0 -506.19347998 0 9349
0.09450000 0.09448040 20923.79689670 0 801.01326735 0 5490.68694062 0 503.30238461 0 -1686.25497876 0 9564
0.09550000 0.09549270 19794.44871775 0 668.95810256 0 5326.73080905 0 130.90637028 0 -2496.26751108 0 10155
0.09650000 0.09649430 19462.73711468 0 863.92943762 0 4708.94464488 0 164.81716541 0 -2805.28424033 0 9913
0.09750000 0.09749140 18685.33371013 0 142.46850362 0 4925.29344950 0 203.59291417 0 -3255.97813139 0 10476
0.09850000 0.09850240 18538.08118555 0 443.30091507 0 5224.13738983 0 -388.67360065 0 -2420.96639184 0 10575
0.09950000 0.09950330 18286.96504822 0 551.90246211 0 6146.37657906 0 -223.25730856 0 -1433.50894707 0 10882
0.10050000 0.10051200 17916.13598060 0 598.49158720 0 5468.97000340 0 -421.00283622 0 -665.64211060 0 10875
0.10150000 0.10150300 17471.56824419 0 369.26436903 0 6126.82908743 0 390.36531859 0 -859.50286936 0 11118
0.10250000 0.10250800 17256.42218920 0 381.86626257 0 5811.07920840 0 578.64846646 0 -458.14082217 0 11575
0.10350000 0.10349800 16704.84345783 0 400.26383562 0 5818.71161025 0 152.20852748 0 -1746.40370082 0 11364
0.10450000 0.10450100 16705.63030338 0 271.98777761 0 5444.22933114 0 553.54134899 0 -1083.33457518 0 12093
0.10550000 0.10551000 16301.86612913 0 124.91735157 0 5936.56983316 0 -575.98443224 0 -2157.40685415 0 12067
0.10650000 0.10649700 16587.71587722 0 167.43736109 0 6029.60869926 0 -543.83504708 0 -1638.49345380 0 12054
0.10750000 0.10749900 16384.03528597 0 36.18061973 0 6594.18162288 0 -600.34854270 0 -2459.31949213 0 12807
0.10850000 0.10850100 16346.94113856 0 320.30346664 0 6759.21685691 0 -280.99153884 0 -2292.24970032 0 12736
0.10950000 0.10950300 16172.14901969 0 283.21493956 0 6912.30327921 0 256.56897700 0 -2443.32404614 0 12933
0.11050000 0.11050200 15775.24164238 0 313.39945897 0 6341.79529201 0 611.92753701 0 -2839.38837465 0 13428
0.11150000 0.11150900 15657.55202923 0 209.93151712 0 5895.06935066 0 763.54031001 0 -2890.57829808 0 13453
0.11250000 0.11250000 15030.66093796 0 172.80252369 0 6012.68027926 0 1001.64202192 0 -3082.05154263 0 13668
0.11350000 0.11349100 15021.55601087 0 292.51432991 0 4951.10198358 0 -69.02973539 0 -3034.68344045 0 13791
0.11450000 0.11448600 14724.80283157 0 176.78283811 0 5257.42095665 0 134.25046388 0 -2715.11174017 0 14205
0.11550000 0.11549300 14672.87102519 0 134.08410224 0 4863.39118592 0 142.36171744 0 -2009.07522710 0 14776
0.11650000 0.11649800 14779.09517460 0 103.55674299 0 5134.74049457 0 316.71994719 0 -1997.02524952 0 14553
0.11750000 0.11747300 14628.92008083 0 28.40197702 0 4911.05154502 0 388.34649771 0 -1567.48626314 0 14568
0.11850000 0.11849100 14676.80525295 0 55.68618372 0 4994.11995392 0 429.27033483 0 -1613.75278154 0 16015
0.11950000 0.11950300 14603.85342970 0 76.72339878 0 4619.81752523 0 255.05261322 0 -1637.92018062 0 15270
0.12050000 0.12050700 14604.07824272 0 -3.43603087 0 4799.76910278 0 277.67217468 0 -1115.79083010 0 15999
0.12150000 0.12150000 14558.10398123 0 67.13163911 0 4581.57683144 0 78.03439588 0 -1946.82450335 0 15670
0.12250000 0.12250700 14535.06064723 0 84.84499375 0 4385.36003228 0 239.77207261 0 -1742.66056413 0 16887
0.12350000 0.12352200 14349.36509715 0 215.54622216 0 4404.99744911 0 287.37173220 0 -2028.60023742 0 16407
0.12450000 0.12449800 14171.20078307 0 371.26745299 0 4407.25681991 0 81.43806492 0 -1129.70787977 0 16306
0.12550000 0.12549900 13959.31451679 0 357.09636462 0 4660.44123697 0 121.41251668 0 -1115.04220276 0 17523
0.12650000 0.12650100 13536.89086232 0 411.61801692 0 4808.94147378 0 95.67682201 0 -417.82510426 0 17154
0.12750000 0.12750600 13360.41264584 0 341.89001231 0 4850.99274817 0 284.64250220 0 296.63627653 0 18007
0.12850000 0.12850300 13075.46214981 0 277.22929304 0 4864.05438431 0 322.50551012 0 829.05307060 0 17496
0.12950000 0.12949900 12781.85635272 0 331.10798013 0 5080.44815154 0 285.11573360 0 1170.39903541 0 18405
0.13050000 0.13049000 12669.56225191 0 268.82915475 0 5005.25943880 0 515.23433536 0 780.97006303 0 18100
0.13150000 0.13148800 12366.85152773 0 192.51300474 0 4623.31336761 0 374.86108903 0 1768.05319413 0 19059
0.13250000 0.13249300 12296.37264765 0 133.44788141 0 4221.29149421 0 710.49567921 0 1419.27828325 0 18957
0.13350000 0.13349100 12268.94545986 0 -62.65268942 0 4120.60898562 0 463.76227160 0 1908.70745673 0 19468
0.13450000 0.13450700 12258.71646770 0 -82.97960776 0 3626.59362664 0 544.57130970 0 1423.35863946 0 19953
0.13550000 0.13551000 12346.73076292 0 37.06278600 0 4054.52519997 0 140.30805055 0 1784.45330354 0 19956
0.13650000 0.13649900 12191.94700235 0 130.73776052 0 3531.87990358 0 -160.13431031 0 1262.65105596 0 19723
0.13750000 0.13749600 12099.32404033 0 285.80815768 0 3843.59438900 0 -478.49988877 0 752.04000025 0 20946
0.13850000 0.13851100 11909.13222996 0 200.26455749 0 3855.48699748 0 -281.94587009 0 886.63330397 0 20955
0.13950000 0.13949800 11731.19272889 0 87.91144327 0 3796.66467220 0 -134.29767461 0 457.15052084 0 20506
0.14050000 0.14048300 11844.38608175 0 23.99103326 0 3525.80995219 0 32.61418606 0 18.50469645 0 21447
0.14150000 0.14148400 11683.75718281 0 134.06948940 0 3317.05982746 0 217.05134529 0 -475.45030023 0 21771
0.14250000 0.14249400 11528.41138970 0 336.90365964 0 3243.92815381 0 185.76973837 0 -390.08655045 0 22470
0.14350000 0.14350900 11182.22182849 0 397.13106626 0 3065.51654540 0 -72.28210527 0 -631.51886717 0 22519
0.14450000 0.14449900 10826.18545724 0 317.23926526 0 3619.66938579 0 99.02462502 0 -22.14396953 0 22218
0.14550000 0.14550500 10582.93777542 0 266.03023272 0 3161.87140347 0 307.12492773 0 -98.69347545 0 23559
0.14650000 0.14650700 10473.39763405 0 34.43292335 0 3479.91437525 0 500.04484403 0 -181.56236280 0 23044
0.14750000 0.14750500 10320.41237760 0 61.58673851 0 2808.84752661 0 671.26131190 0 285.20903100 0 23649
0.14850000 0.14849900 10281.17126590 0 130.11615254 0 2791.24466757 0 492.13592217 0 18.57450089 0 23640
0.14950000 0.14949500 10028.62756592 0 70.90613722 0 2157.35065089 0 539.98849640 0 48.33491055 0 24457
0.15050000 0.15050000 9989.79111765 0 144.39852336 0 1996.50817958 0 23.61818088 0 79.31931466 0 24591
0.15150000 0.15149900 9857.14019837 0 134.35387786 0 2246.01690386 0 -96.25245574 0 166.15255472 0 25020
0.15250000 0.15250500 9851.38498520 0 75.82291025 0 2394.47217807 0 -158.32681368 0 296.23273717 0 25297
0.15350000 0.15350100 9863.70473840 0 13.10142805 0 2653.98508149 0 -273.62104416 0 573.36423655 0 25452
0.15450000 0.15450400 10029.26828301 0 -54.11350428 0 2900.72860569 0 -4.30667548 0 997.87977612 0 26061
0.15550000 0.15549900 10049.59137954 0 -17.00687974 0 3052.97197919 0 -83.05199755 0 660.06562377 0 26128
0.15650000 0.15649500 10178.30807106 0 39.61149114 0 3108.29846209 0 265.65591905 0 1031.65343531 0 26331
0.15750000 0.15749700 10143.46205379 0 136.14114133 0 3062.51529166 0 20.63232682 0 898.30559569 0 27345
0.15850000 0.15849900 9980.39393364 0 211.63672383 0 3090.26845831 0 -57.18860910 0 1177.14342585 0 26980
0.15950000 0.15949700 9842.07772639 0 232.33975435 0 3097.23766177 0 20.25025710 0 964.21627531 0 27777
0.16050000 0.16050000 9547.77500895 0 262.39950253 0 3278.34702634 0 -35.88251767 0 1523.50159682 0 28224
0.16150000 0.16150500 9426.29729650 0 108.86491548 0 2971.49974269 0 356.50285826 0 1320.27063161 0 28075
0.16250000 0.16249700 9395.73396716 0 66.81128056 0 3267.48855774 0 373.12103630 0 1481.91118912 0 28590
0.16350000 0.16349900 9337.41747117 0 26.05908818 0 2981.69501290 0 574.67152423 0 1609.64994403 0 29163
0.16450000 0.16449100 9297.53564238 0 88.24967445 0 3035.54897055 0 378.73911353 0 1672.47394096 0 28996
0.16550000 0.16550500 9116.58364691 0 179.31872892 0 2832.57654031 0 5.85260217 0 1520.41041787 0 30777
0.16650000 0.16650700 9051.60144503 0 248.56226148 0 2928.51549429 0 -359.52771737 0 1345.89931528 0 29211
0.16750000 0.16749900 8837.63565837 0 262.84013604 0 3131.82514407 0 -639.80097863 0 1595.17198589 0 30922
0.16850000 0.16850800 8661.26984840 0 189.02503082 0 3351.01783332 0 -487.26984447 0 1233.00945998 0 30867
0.16950000 0.16949900 8691.37231106 0 50.56033458 0 3382.87383749 0 -105.12942243 0 1486.95824130 0 30852
0.17050000 0.17049200 8613.75561776 0 4.36136124 0 3298.31042204 0 333.58991581 0 1004.44993648 0 31257
0.17150000 0.17149500 8589.70062520 0 -6.58083897 0 2947.56839728 0 487.86447490 0 682.80546020 0 32608
0.17250000 0.17250900 8663.07959317 0 34.39931381 0 2747.36116711 0 572.29862286 0 968.57202747 0 32361
0.17350000 0.17350400 8533.85707237 0 40.76703004 0 2578.80760940 0 387.49333232 0 356.26118427 0 32508
0.17450000 0.17449800 8444.70747142 0 137.04938591 0 2554.88750465 0 198.75718623 0 735.46116448 0 32791
0.17550000 0.17549800 8235.20422309 0 175.47892263 0 2318.30552871 0 17.51911620 0 460.23495540 0 33633
0.17650000 0.17650100 8061.88462947 0 246.82445688 0 2438.97391431 0 -129.05053885 0 958.67575857 0 33984
0.17750000 0.17750300 7937.29325677 0 185.01773884 0 2176.97682707 0 -36.18556561 0 562.27421054 0 34069
