### header ###
fiducial parameters:
Omega_m = 0.31
Omega_nu = 0
Omega_de = 0.69
Omega_k = 0
H_0 = 100
w_de = -1
zeff = 0
beta = 0
fgrowth = 0
b_1 = 2
gamma = 0.55
Lx = 3500 Ly = 3500 Lz = 3500
nx = 700 ny = 700 nz = 700
xoffset = 857.220397 yoffset = 15.9954215 zoffset = 262.898189
bins = 400 dk = 0.001
kx_ny = 0.628318531 ky_ny = 0.628318531 kz_ny = 0.628318531
############################
A(data) = 3.09017653 (not used)
A(ran) = 3.08613324 (used)
Ngal = 188296
weighted Ngal = 0
Nran = 9360983
weighted Nran = 0
SN(data) = 3460.67942
SN(ran) = 69.3029542
SN(data+ran) = 3529.98237
############################
13 columns: k_central k_mean P_0(k) sigma^{lin}_{P_0(k)} P^img_1(k) sigma^{lin}_{P_1(k)} P_2(k) sigma^{lin}_{P_2(k)} P^img_3(k) sigma^{lin}_{P_3(k)} P_4(k) sigma^{lin}_{P_4(k)} N_modes
### header ###
0.00050000 0 0 0 0 0 0 0 0 0 0 0 0
0.00150000 0.00179520 22627.87954751 0 -27841.40576306 0 -1114.02717200 0 58170.03031336 0 -30345.59793291 0 3
0.00250000 0.00253879 44047.16432843 0 -34404.93413139 0 13983.93154189 0 -48422.70003198 0 18778.85592421 0 6
0.00350000 0.00331552 52338.83034015 0 -16404.15605078 0 -9167.57123863 0 -505.89672680 0 30096.95473874 0 7
0.00450000 0.00420575 65478.92623166 0 -4778.14209078 0 6816.30812197 0 -37062.22396419 0 8139.38891626 0 24
0.00550000 0.00557378 62297.37244876 0 -1971.67758212 0 67.41760126 0 -19330.54706209 0 26907.42009382 0 45
0.00650000 0.00659388 76813.54880276 0 -4605.96904353 0 -5791.11581270 0 9138.81765406 0 -7372.55172339 0 40
0.00750000 0.00754703 73926.94969505 0 -13700.55473696 0 -26351.56991517 0 11695.11024005 0 3721.79069768 0 57
0.00850000 0.00846663 85162.76694622 0 -15281.43985577 0 -26164.52548701 0 9150.92383489 0 -20880.74520440 0 75
0.00950000 0.00948925 91746.75329889 0 -6874.84943098 0 -33380.12400424 0 -1060.37667012 0 -12476.33546585 0 112
0.01050000 0.01054430 92833.49941156 0 -2380.44384595 0 -18631.60339963 0 -19472.29166780 0 9566.79418999 0 105
0.01150000 0.01145670 90373.25818607 0 3023.65636208 0 -22233.44511336 0 -19924.05342068 0 2555.97784777 0 144
0.01250000 0.01249090 91849.71765958 0 2560.97993734 0 4520.27032236 0 -21918.03245385 0 8601.79556538 0 169
0.01350000 0.01339930 82942.06398781 0 7333.20944584 0 -13507.10313788 0 -6540.03540831 0 -4175.17110427 0 180
0.01450000 0.01448870 84330.28435309 0 3586.01487750 0 14635.66447127 0 -16400.67144905 0 -3029.54646306 0 267
0.01550000 0.01550050 84811.60901739 0 4055.54809919 0 3741.10213564 0 -31399.52134544 0 -23020.62788406 0 238
0.01650000 0.01653350 78533.70558413 0 3071.49657159 0 17420.87290940 0 -10813.25870890 0 -27548.92403103 0 315
0.01750000 0.01747870 77830.71528741 0 643.64528118 0 4379.35752479 0 -15425.65740465 0 -47344.72162688 0 297
0.01850000 0.01844180 76339.08093541 0 2298.12856065 0 9340.35128101 0 -15815.48317200 0 -35813.27526147 0 388
0.01950000 0.01947590 77788.11322114 0 3890.18688628 0 21015.29579365 0 2614.54163808 0 -35483.36216252 0 399
0.02050000 0.02045430 73789.58894311 0 5721.53618468 0 30263.20396305 0 -8150.29234747 0 -18614.18039100 0 462
0.02150000 0.02154770 71808.31184527 0 5765.90303311 0 28935.68311172 0 7342.35933553 0 -3212.08339029 0 571
0.02250000 0.02255340 63291.15837989 0 2734.13092120 0 35918.82497184 0 8667.18243069 0 -3962.72280545 0 510
0.02350000 0.02348930 64530.77734250 0 4700.14321536 0 24445.26795770 0 8476.69836340 0 10273.31405103 0 555
0.02450000 0.02439640 63342.97777976 0 -1519.75846013 0 37153.27323512 0 21643.31094999 0 10051.49104951 0 592
0.02550000 0.02547300 60701.64967099 0 2355.89426476 0 16099.08478994 0 10426.64776766 0 14134.66866819 0 837
0.02650000 0.02652900 58599.76039080 0 1515.95912018 0 13767.77382833 0 6620.23745127 0 8415.45929822 0 723
0.02750000 0.02749970 53557.99131843 0 889.60308389 0 6102.35819079 0 -435.77754754 0 3967.25278769 0 826
0.02850000 0.02848090 55749.46858495 0 -217.23119570 0 5300.46140829 0 1255.00741346 0 5111.70840122 0 831
0.02950000 0.02946900 57207.71820428 0 99.56743604 0 1551.74935211 0 -483.48848957 0 7836.86928314 0 996
0.03050000 0.03053250 57007.74702777 0 -1121.82143921 0 5251.73318738 0 -2985.51683415 0 5071.75912852 0 1041
0.03150000 0.03150510 58192.39920831 0 -831.84412418 0 9451.95970212 0 -1349.74361783 0 -2430.47598236 0 1036
0.03250000 0.03246190 58330.20958627 0 845.49814262 0 6365.31073334 0 -1384.62335704 0 966.32052513 0 1059
0.03350000 0.03345080 58065.04263553 0 609.45684198 0 10623.39287740 0 801.39882167 0 1047.75004716 0 1302
0.03450000 0.03451200 54982.85620509 0 463.85107274 0 5892.25918798 0 282.26847677 0 494.49870696 0 1339
0.03550000 0.03553350 54378.67122830 0 1985.86328334 0 6547.25190607 0 -2335.85218450 0 -9262.75706902 0 1365
0.03650000 0.03647120 54901.81111332 0 1317.19069331 0 8640.10370307 0 -3660.75396421 0 -3389.71939379 0 1308
0.03750000 0.03744890 51270.85611420 0 2289.33837178 0 10992.08622138 0 -5209.20980566 0 -4971.27895164 0 1579
0.03850000 0.03847530 51121.69267900 0 2432.90396291 0 14192.67042596 0 -4397.58986028 0 660.32303467 0 1662
0.03950000 0.03950240 49580.59946378 0 1816.79265570 0 20621.53579854 0 -1487.29546082 0 3070.78841060 0 1683
0.04050000 0.04050350 49698.85110947 0 1183.64052197 0 23529.82936217 0 5369.69257615 0 3694.27358469 0 1822
0.04150000 0.04152450 46986.25727506 0 2393.95510813 0 23159.67473360 0 4445.90217712 0 6227.61276189 0 1887
0.04250000 0.04250150 45287.90735612 0 2363.47046335 0 19757.35457034 0 5681.10356400 0 5841.36152147 0 1920
0.04350000 0.04349210 43190.62674273 0 2452.60882365 0 20513.62555152 0 3573.13309176 0 5487.29226409 0 2005
0.04450000 0.04448520 40249.39807246 0 2224.00770973 0 14475.59760486 0 -2002.20718951 0 -208.45224748 0 2151
0.04550000 0.04548030 39503.69330297 0 757.45349764 0 15506.92730943 0 -2267.59895326 0 -4520.67498578 0 2274
0.04650000 0.04648670 38836.67308859 0 371.43943495 0 13370.64163801 0 -3030.53564033 0 -5234.99585844 0 2311
0.04750000 0.04749250 39103.86335646 0 -1048.17269562 0 11928.80336874 0 -921.76708189 0 -8621.57911067 0 2568
0.04850000 0.04851840 40524.00716982 0 -1879.96511281 0 14743.79953130 0 -946.10871105 0 -7702.08264022 0 2493
0.04950000 0.04949480 42334.42637655 0 -1587.93300681 0 12650.45314567 0 3547.52688940 0 -7027.53118986 0 2644
0.05050000 0.05050630 42520.23433313 0 -554.04043388 0 13128.18080174 0 3433.55793164 0 -4794.62088475 0 2829
0.05150000 0.05149060 43716.91400996 0 485.16447059 0 11973.65356516 0 -264.15079592 0 -1413.95021480 0 2784
0.05250000 0.05249300 41320.07005459 0 1481.94491107 0 13034.43377464 0 954.52795845 0 -2241.84662244 0 3055
0.05350000 0.05348950 41058.83733160 0 2196.49059674 0 12188.68721364 0 1005.39077894 0 -2153.64123615 0 3009
0.05450000 0.05448610 39065.98236350 0 1047.72419366 0 11455.68437947 0 -29.32966792 0 -819.85372204 0 3336
0.05550000 0.05550870 38619.95334250 0 777.35844195 0 10916.27927285 0 943.39296983 0 -2278.89580725 0 3349
0.05650000 0.05647670 38386.93465284 0 318.26441260 0 8781.34247951 0 3345.68976487 0 -3014.87741386 0 3324
0.05750000 0.05747970 37904.03629744 0 595.22617816 0 7498.99780347 0 2887.76813539 0 -1537.36131918 0 3639
0.05850000 0.05849280 36566.06164093 0 1383.84775214 0 8285.03402778 0 1715.55935521 0 1194.95985726 0 3846
0.05950000 0.05951020 35906.23544302 0 895.86187822 0 6889.40607368 0 1790.05114761 0 5243.28021803 0 3787
0.06050000 0.06049470 34379.41785423 0 292.94484683 0 8574.72807842 0 2994.59927994 0 5371.76085588 0 3930
0.06150000 0.06148310 34953.14066754 0 217.84605930 0 5250.67656621 0 731.83605462 0 7259.58318355 0 4083
0.06250000 0.06249100 33696.77313534 0 76.52320279 0 7623.85895179 0 725.08829199 0 5085.79870128 0 4303
0.06350000 0.06350600 33904.05073482 0 375.07915766 0 7254.98575740 0 -1215.23799118 0 5826.80487877 0 4470
0.06450000 0.06451750 33327.51775882 0 124.04732521 0 6378.36112884 0 -141.15334749 0 3800.73378777 0 4479
0.06550000 0.06550280 33594.25840067 0 183.33276529 0 6292.15657839 0 -723.49099552 0 3127.14903336 0 4636
0.06650000 0.06648880 32554.16098853 0 312.42152235 0 5954.57735563 0 -990.75657575 0 -1004.24535663 0 4653
0.06750000 0.06749660 32776.27624698 0 301.47874887 0 5843.92438984 0 -59.16055646 0 -2040.43664264 0 5220
0.06850000 0.06852730 32316.42122557 0 775.58241914 0 6049.52713236 0 -1453.39365822 0 -3246.56970673 0 5029
0.06950000 0.06949320 31561.94874851 0 1502.79631818 0 5235.36679991 0 -1680.81450381 0 -4613.87122099 0 5040
0.07050000 0.07048030 30857.38476069 0 1402.31614129 0 8065.97622634 0 -2236.81081091 0 -2995.04890597 0 5475
0.07150000 0.07148790 29841.45474762 0 1697.02352216 0 8218.66922587 0 -3133.14030020 0 -5470.33012214 0 5509
0.07250000 0.07249820 28886.89868754 0 1513.77843394 0 10462.85390366 0 -2201.72873998 0 -3036.40326001 0 5916
0.07350000 0.07351270 28256.74780757 0 1182.87615772 0 11781.55084417 0 -983.75702254 0 -4153.01578167 0 5721
0.07450000 0.07449140 27452.14202824 0 934.52746860 0 12169.69051391 0 -32.60732927 0 -4370.52237332 0 6028
0.07550000 0.07549160 26999.81824283 0 541.40594246 0 13666.15834572 0 1398.48307939 0 -2712.20041163 0 6183
0.07650000 0.07648840 26000.29957983 0 485.39153174 0 11516.04667390 0 3235.89108853 0 -3978.72949209 0 6330
0.07750000 0.07749960 25590.46545417 0 319.64701264 0 11616.65049794 0 3001.32118908 0 -846.16920947 0 6583
0.07850000 0.07848650 25315.51913729 0 321.08469187 0 9523.43900012 0 4024.97352920 0 -637.16729417 0 6549
0.07950000 0.07947320 24760.56821071 0 28.62937538 0 9619.91750534 0 3095.76513652 0 1184.33744232 0 6828
0.08050000 0.08048110 24187.63224295 0 204.90132591 0 7255.01947935 0 2250.29959179 0 1167.15048735 0 7147
0.08150000 0.08149960 24023.96836830 0 528.56687119 0 5906.16387293 0 716.78931955 0 1980.31040188 0 7386
0.08250000 0.08250610 23248.70068739 0 324.33886026 0 5450.02950692 0 640.67774939 0 1761.32004434 0 7227
0.08350000 0.08350160 23145.96113971 0 319.05800254 0 4486.54837016 0 12.54670194 0 1933.90899566 0 7798
0.08450000 0.08449610 22767.71324261 0 41.99866814 0 4395.80259681 0 1003.63161710 0 1250.60107838 0 7371
0.08550000 0.08548940 22856.06475735 0 156.56652777 0 3321.19638693 0 516.09312108 0 -485.56913402 0 8256
0.08650000 0.08650700 22454.88593276 0 75.32202686 0 2786.14141214 0 55.68854426 0 -688.40105613 0 8037
0.08750000 0.08749060 22514.46138164 0 293.95762946 0 2456.74538311 0 -257.53679703 0 -2098.26979065 0 8155
0.08850000 0.08849210 22269.19038269 0 220.11442261 0 2644.09330885 0 -1078.90575879 0 -914.11894314 0 8718
0.08950000 0.08949900 22193.20358375 0 317.29884070 0 2642.57582100 0 -737.25629640 0 -2015.34751021 0 8571
0.09050000 0.09049190 22279.30696835 0 306.03121241 0 3350.34339428 0 -1234.96533321 0 -1767.10897947 0 8932
0.09150000 0.09150830 22039.88110778 0 143.15418332 0 3528.83368723 0 -323.84876789 0 -2867.71481449 0 9285
0.09250000 0.09250820 21787.07887284 0 493.31619050 0 4168.59532359 0 -782.23800843 0 -3504.43023450 0 9204
0.09350000 0.09350330 21740.54257881 0 489.14253688 0 5393.32042398 0 -645.81922303 0 -2879.97836444 0 9349
0.09450000 0.09448040 20801.94824277 0 392.11773603 0 5713.37547225 0 -481.89568936 0 -3788.11053699 0 9564
0.09550000 0.09549270 21265.84989844 0 686.94426780 0 7035.19731366 0 -1205.32373723 0 -2653.55793676 0 10155
0.09650000 0.09649430 20012.29252892 0 566.35569082 0 7272.21767497 0 -632.54289045 0 -3273.63719369 0 9913
0.09750000 0.09749140 20154.14954115 0 532.07620235 0 8789.01984396 0 -661.72924008 0 -1928.85070284 0 10476
0.09850000 0.09850240 19737.34621204 0 361.50607190 0 8821.30299286 0 131.92477324 0 -2904.33685457 0 10575
0.09950000 0.09950330 19685.41440566 0 4.80201723 0 8453.39649443 0 634.09185213 0 -1821.03038102 0 10882
0.10050000 0.10051200 19305.36800445 0 -99.01214790 0 7732.36495329 0 1666.94354080 0 -2142.67036104 0 10875
0.10150000 0.10150300 19499.71885559 0 95.52181344 0 6426.98818390 0 1976.79207820 0 -1569.82431849 0 11118
0.10250000 0.10250800 19002.65728026 0 -27.70809165 0 5145.58772252 0 1983.82872556 0 -1257.40167207 0 11575
0.10350000 0.10349800 18977.47822263 0 260.54029890 0 4743.80190279 0 1686.60343893 0 -134.60679250 0 11364
0.10450000 0.10450100 18194.56689921 0 553.36262264 0 3234.54221045 0 986.48400441 0 91.26632789 0 12093
0.10550000 0.10551000 17836.66457994 0 635.42274517 0 4078.00691935 0 180.13704829 0 971.42602869 0 12067
0.10650000 0.10649700 17485.73146412 0 564.80110882 0 4278.55136904 0 -484.33266244 0 1488.47572915 0 12054
0.10750000 0.10749900 17343.42482586 0 411.33362846 0 4698.53580230 0 -418.79517241 0 1925.80448649 0 12807
0.10850000 0.10850100 17246.41801005 0 247.18752990 0 5503.26522878 0 -490.99724426 0 1891.70035217 0 12736
0.10950000 0.10950300 17070.38941961 0 198.12995791 0 5122.47694462 0 -266.93060884 0 990.69362811 0 12933
0.11050000 0.11050200 17025.42681668 0 203.67384686 0 6071.62625169 0 198.23224784 0 1474.22258402 0 13428
0.11150000 0.11150900 16840.74292517 0 354.54361284 0 5494.90218464 0 176.99641048 0 608.49239415 0 13453
0.11250000 0.11250000 16378.07774108 0 399.98281935 0 4724.45674289 0 973.90346811 0 495.60029073 0 13668
0.11350000 0.11349100 15910.69148369 0 392.03680335 0 5153.27632762 0 840.42860914 0 953.05430914 0 13791
0.11450000 0.11448600 15485.57007304 0 335.99991133 0 3898.06658245 0 377.08561381 0 -123.59095479 0 14205
0.11550000 0.11549300 15430.15366494 0 332.49620049 0 4483.61456032 0 223.47537718 0 874.43382573 0 14776
0.11650000 0.11649800 14777.97110953 0 364.80857508 0 4134.25513560 0 -714.16237948 0 612.34344109 0 14553
0.11750000 0.11747300 14701.08505853 0 411.90465352 0 4480.39973422 0 -34.77767411 0 1071.14858572 0 14568
0.11850000 0.11849100 14455.02721403 0 180.03588243 0 4365.71137481 0 -214.04334715 0 1092.55865317 0 16015
0.11950000 0.11950300 14315.75555147 0 251.27238238 0 4037.67546452 0 693.76397060 0 653.26390601 0 15270
0.12050000 0.12050700 14128.93593632 0 38.82442078 0 3917.52414886 0 438.83500454 0 875.87375309 0 15999
0.12150000 0.12150000 14098.36136633 0 -15.25626080 0 3669.60035634 0 860.33804971 0 42.97570550 0 15670
0.12250000 0.12250700 14105.78019581 0 -7.30008325 0 3664.51958221 0 412.46893418 0 819.17141454 0 16887
0.12350000 0.12352200 13998.20716832 0 -6.78984763 0 3078.88167912 0 150.80344614 0 -359.57605217 0 16407
0.12450000 0.12449800 14025.07232356 0 93.59201852 0 3553.20341802 0 -329.82654594 0 880.29357696 0 16306
0.12550000 0.12549900 13786.20849553 0 82.41802485 0 3231.90065752 0 -167.91284062 0 -469.15103956 0 17523
0.12650000 0.12650100 13850.39261121 0 179.53117722 0 3838.90703765 0 -494.38742452 0 434.61414019 0 17154
0.12750000 0.12750600 13674.81364679 0 157.24658714 0 3376.41046332 0 -148.62388397 0 -118.50118814 0 18007
0.12850000 0.12850300 13584.88844094 0 229.29016581 0 3621.92875659 0 58.73037675 0 -625.97385417 0 17496
0.12950000 0.12949900 13465.62513668 0 113.48673385 0 2953.14376005 0 63.30138737 0 -515.32538463 0 18405
0.13050000 0.13049000 13339.05540945 0 72.30143919 0 3029.64762892 0 300.09052850 0 -1186.12470578 0 18100
0.13150000 0.13148800 13322.75646589 0 183.89817002 0 2632.12201582 0 -2.20443774 0 -553.43119061 0 19059
0.13250000 0.13249300 13084.11745087 0 200.70069474 0 2392.03295686 0 61.34450249 0 -819.09610218 0 18957
0.13350000 0.13349100 12935.29123520 0 287.85845237 0 2888.20652077 0 129.10674210 0 -537.62458755 0 19468
0.13450000 0.13450700 12826.93136215 0 222.10514186 0 2863.03870379 0 367.51869598 0 -233.32331129 0 19953
0.13550000 0.13551000 12502.63858856 0 165.15213680 0 3186.53339117 0 417.72393840 0 -228.91472807 0 19956
0.13650000 0.13649900 12283.78311883 0 196.12125363 0 2937.31692382 0 343.26699202 0 199.84977748 0 19723
0.13750000 0.13749600 12301.76816000 0 207.49566810 0 2774.93448336 0 432.96176453 0 234.99254792 0 20946
0.13850000 0.13851100 11931.50112492 0 254.90536069 0 2877.08951720 0 94.11099937 0 385.03949827 0 20955
0.13950000 0.13949800 11977.13816689 0 139.61787460 0 2886.61034837 0 -113.84868280 0 389.57622490 0 20506
0.14050000 0.14048300 11723.32427338 0 85.37791300 0 2829.24930769 0 -121.20906090 0 528.55787867 0 21447
0.14150000 0.14148400 11732.09198095 0 117.93353527 0 2936.49635631 0 -145.57092323 0 375.35792579 0 21771
0.14250000 0.14249400 11543.92348771 0 92.92882013 0 2924.03047465 0 33.31908727 0 157.32077544 0 22470
0.14350000 0.14350900 11482.99916075 0 221.14856248 0 2977.55845343 0 179.10965281 0 390.06182102 0 22519
0.14450000 0.14449900 11417.80338651 0 155.38850758 0 2805.38540619 0 294.12286703 0 215.66649712 0 22218
0.14550000 0.14550500 11226.52123302 0 147.18508067 0 2554.52780382 0 350.96009338 0 238.82336169 0 23559
0.14650000 0.14650700 11049.73951898 0 96.50390909 0 2284.68474238 0 283.59599762 0 -384.13462589 0 23044
0.14750000 0.14750500 10896.51820886 0 77.29543550 0 2137.19616413 0 163.18951918 0 186.13730765 0 23649
0.14850000 0.14849900 10837.01020389 0 207.88909088 0 1720.35911308 0 174.88878846 0 -165.58714998 0 23640
0.14950000 0.14949500 10614.26546901 0 201.36052093 0 1902.81735574 0 165.52307827 0 -115.35605406 0 24457
0.15050000 0.15050000 10461.56122883 0 284.88979652 0 1828.57285766 0 144.13324400 0 165.63660885 0 24591
0.15150000 0.15149900 10266.04135001 0 205.91748074 0 1965.28165185 0 185.97544228 0 440.81111094 0 25020
0.15250000 0.15250500 10219.41513078 0 235.02064955 0 2310.27970409 0 -55.37931396 0 603.73759889 0 25297
0.15350000 0.15350100 10014.74536227 0 182.64146527 0 2188.97060140 0 -229.39582792 0 382.55306633 0 25452
0.15450000 0.15450400 10047.64674696 0 202.36655918 0 2691.85483380 0 -198.72796053 0 680.09309118 0 26061
0.15550000 0.15549900 9870.77510771 0 174.50323414 0 2410.16412649 0 -407.09927533 0 667.20456105 0 26128
0.15650000 0.15649500 9830.19635857 0 129.71261318 0 2960.59631148 0 -68.87483922 0 561.70880581 0 26331
0.15750000 0.15749700 9693.16158551 0 26.02154441 0 2477.90028779 0 -119.64323825 0 -130.03072359 0 27345
0.15850000 0.15849900 9803.54477568 0 12.84570325 0 2978.68251851 0 55.82624223 0 220.19647936 0 26980
0.15950000 0.15949700 9787.51560774 0 -5.17788211 0 2593.66774967 0 84.73000189 0 -321.41404294 0 27777
0.16050000 0.16050000 9839.59354258 0 -30.42034826 0 2835.39794364 0 -178.02605408 0 -341.39654774 0 28224
0.16150000 0.16150500 9806.83828635 0 71.63801599 0 2777.46362977 0 -211.76486725 0 -738.32753042 0 28075
0.16250000 0.16249700 9691.31811879 0 173.52642159 0 2795.72968721 0 -48.39190065 0 -566.20619017 0 28590
0.16350000 0.16349900 9669.52249702 0 162.78260763 0 2865.14070547 0 138.15771407 0 -204.11560443 0 29163
0.16450000 0.16449100 9303.16720839 0 160.00391877 0 2616.99209994 0 450.15771202 0 -511.20118988 0 28996
0.16550000 0.16550500 9351.09734311 0 255.14366249 0 2558.49575353 0 543.42363926 0 -103.73546934 0 30777
0.16650000 0.16650700 8897.82934304 0 272.92749601 0 2160.82401197 0 489.68883251 0 -430.36292608 0 29211
0.16750000 0.16749900 8819.06610336 0 236.67752147 0 1986.33539067 0 470.17731097 0 293.26970164 0 30922
0.16850000 0.16850800 8519.79501830 0 183.28667862 0 1728.87952633 0 191.57665854 0 111.28795016 0 30867
0.16950000 0.16949900 8464.85071753 0 201.67525916 0 1693.95482451 0 -70.16976219 0 273.48053602 0 30852
0.17050000 0.17049200 8313.05697006 0 69.18867819 0 1729.17178325 0 -372.00933594 0 245.77907636 0 31257
0.17150000 0.17149500 8306.59359589 0 108.95573994 0 1968.99106660 0 -376.74614616 0 372.52303368 0 32608
0.17250000 0.17250900 8251.08726258 0 62.71811001 0 2181.75410363 0 -183.45079212 0 470.03792690 0 32361
0.17350000 0.17350400 8229.84243270 0 60.19188616 0 2460.47727916 0 115.56400610 0 173.48033493 0 32508
0.17450000 0.17449800 8224.60428945 0 78.66825617 0 2282.39164963 0 296.43282075 0 317.56412006 0 32791
0.17550000 0.17549800 8118.13284573 0 85.66735976 0 2323.29637764 0 457.49785695 0 250.02467014 0 33633
0.17650000 0.17650100 8018.38331114 0 0.10690387 0 2155.36105572 0 291.45883280 0 675.06177591 0 33984
0.17750000 0.17750300 8084.78183501 0 -9.54261555 0 2008.87289539 0 249.98982413 0 609.97616005 0 34069
0.17850000 0.17849800 8073.23768671 0 60.60992596 0 1864.27316439 0 85.07700078 0 800.41638880 0 34536
