### header ###
fiducial parameters:
Omega_m = 0.31
Omega_nu = 0
Omega_de = 0.69
Omega_k = 0
H_0 = 100
w_de = -1
zeff = 0
beta = 0
fgrowth = 0
b_1 = 2
gamma = 0.55
Lx = 3500 Ly = 3500 Lz = 3500
nx = 700 ny = 700 nz = 700
xoffset = 857.220397 yoffset = 15.9954215 zoffset = 262.898189
bins = 400 dk = 0.001
kx_ny = 0.628318531 ky_ny = 0.628318531 kz_ny = 0.628318531
############################
A(data) = 3.11623321 (not used)
A(ran) = 3.11463331 (used)
Ngal = 190363
weighted Ngal = 0
Nran = 9360983
weighted Nran = 0
SN(data) = 3456.07303
SN(ran) = 69.9429589
SN(data+ran) = 3526.01599
############################
13 columns: k_central k_mean P_0(k) sigma^{lin}_{P_0(k)} P^img_1(k) sigma^{lin}_{P_1(k)} P_2(k) sigma^{lin}_{P_2(k)} P^img_3(k) sigma^{lin}_{P_3(k)} P_4(k) sigma^{lin}_{P_4(k)} N_modes
### header ###
0.00050000 0 0 0 0 0 0 0 0 0 0 0 0
0.00150000 0.00179520 13182.58555128 0 -14527.97903727 0 -2165.20786576 0 14943.54589479 0 -30614.13707887 0 3
0.00250000 0.00253879 28309.12923997 0 -18237.73099802 0 -7636.57212776 0 -10240.71616391 0 34763.96051574 0 6
0.00350000 0.00331552 34674.70974893 0 -15952.95633044 0 -21251.68667852 0 -4690.37508987 0 7705.09513462 0 7
0.00450000 0.00420575 40919.45326253 0 -9899.04534430 0 -25567.87174621 0 -12060.43138880 0 6740.07402871 0 24
0.00550000 0.00557378 49974.69667841 0 -16442.59907628 0 -41015.22360676 0 5123.84830401 0 4255.75532936 0 45
0.00650000 0.00659388 47628.32324482 0 -10554.67877948 0 -26637.86928929 0 -16203.73524825 0 -22598.54144911 0 40
0.00750000 0.00754703 64360.14426441 0 -17569.47431206 0 -51012.54596040 0 -7573.91674059 0 -2936.17037744 0 57
0.00850000 0.00846663 66927.62129787 0 -9850.77799006 0 -38973.80902751 0 -23972.37378145 0 -15317.74715763 0 75
0.00950000 0.00948925 81894.32293317 0 -8659.19032802 0 -43711.18127808 0 -33793.10551210 0 5667.13143514 0 112
0.01050000 0.01054430 80871.98574919 0 -7749.47322371 0 -607.69430795 0 -41075.02386865 0 -7982.73920768 0 105
0.01150000 0.01145670 89841.80021951 0 -1467.15221471 0 -1133.40605386 0 -36999.61353962 0 -6720.89747857 0 144
0.01250000 0.01249090 96312.59321931 0 -2648.35351548 0 32158.60248931 0 -27010.15964150 0 -5490.94547558 0 169
0.01350000 0.01339930 96069.79516352 0 3688.14743004 0 44957.31981812 0 -30115.16459292 0 10621.51568873 0 180
0.01450000 0.01448870 101897.84775452 0 6659.66965404 0 59878.94644399 0 -9278.37033288 0 2444.40314861 0 267
0.01550000 0.01550050 94792.74483397 0 11487.27060803 0 57280.55762101 0 1658.27699909 0 -39241.78614093 0 238
0.01650000 0.01653350 95911.97642725 0 7718.39282444 0 63457.18279119 0 12734.08358711 0 6143.42028791 0 315
0.01750000 0.01747870 85506.73085859 0 9552.19258469 0 71014.04746462 0 7447.72919548 0 -19055.03871267 0 297
0.01850000 0.01844180 81893.76090064 0 3890.51286515 0 51376.06860504 0 19937.99182759 0 3728.13042469 0 388
0.01950000 0.01947590 79071.45831510 0 2943.17330285 0 43217.15467846 0 27395.60155506 0 -12252.87132932 0 399
0.02050000 0.02045430 77078.15372097 0 2991.93524572 0 45206.97467086 0 15507.82656149 0 -4692.98292084 0 462
0.02150000 0.02154770 74698.39555471 0 2002.04982040 0 38409.86558033 0 11119.35286895 0 -5316.25452257 0 571
0.02250000 0.02255340 71471.99157540 0 3634.95667078 0 43024.82714445 0 496.07577026 0 -2478.13634146 0 510
0.02350000 0.02348930 66507.33336704 0 4926.69853084 0 37728.79455254 0 -6553.92885261 0 -174.14240925 0 555
0.02450000 0.02439640 70862.97311879 0 1787.00493126 0 48865.80648379 0 -8677.06296268 0 5125.99526830 0 592
0.02550000 0.02547300 67814.05901452 0 64.31360797 0 48270.50162108 0 -4952.11364214 0 -2762.00773502 0 837
0.02650000 0.02652900 74723.34979934 0 13.57938052 0 49168.40480147 0 868.74718053 0 -20880.97001741 0 723
0.02750000 0.02749970 65940.69216369 0 505.92145623 0 43873.04664861 0 3393.50749308 0 -12012.77102970 0 826
0.02850000 0.02848090 70438.63855370 0 1372.64082336 0 39852.60310166 0 6173.43282536 0 -29397.56145025 0 831
0.02950000 0.02946900 68259.75081600 0 1696.98980021 0 32855.97246066 0 6907.81825957 0 -22575.72292812 0 996
0.03050000 0.03053250 63253.61460645 0 3108.00620517 0 26860.54658027 0 11286.84980550 0 -24265.19273299 0 1041
0.03150000 0.03150510 60901.50844099 0 2727.39777142 0 22453.53705468 0 8373.30685797 0 -17092.30868853 0 1036
0.03250000 0.03246190 55917.62871988 0 3978.12249695 0 18242.90169735 0 6192.22719339 0 -9742.05841619 0 1059
0.03350000 0.03345080 54825.03746883 0 3413.69570180 0 13034.77099416 0 6619.73162199 0 -3452.72324113 0 1302
0.03450000 0.03451200 50727.82027738 0 2037.75012712 0 16035.91233283 0 3442.43804572 0 2339.16817647 0 1339
0.03550000 0.03553350 50419.37682132 0 1221.21801737 0 12862.00219243 0 3418.76523528 0 3273.10888310 0 1365
0.03650000 0.03647120 48652.34652641 0 -189.25321603 0 19193.18631015 0 -259.64217091 0 4981.12576168 0 1308
0.03750000 0.03744890 49830.92875556 0 1034.54115848 0 16569.16880351 0 -2431.98222955 0 3308.85415243 0 1579
0.03850000 0.03847530 47555.82104760 0 1274.90336526 0 16073.90573230 0 -2151.88769464 0 671.36809808 0 1662
0.03950000 0.03950240 46445.24475538 0 1847.20985658 0 19860.31893104 0 -1337.94093456 0 1461.26211373 0 1683
0.04050000 0.04050350 45862.75423450 0 1359.75903763 0 14781.45571125 0 -1915.81154799 0 -8275.91786004 0 1822
0.04150000 0.04152450 44259.27540773 0 1120.94242033 0 22958.80430503 0 232.98159551 0 230.43558812 0 1887
0.04250000 0.04250150 43608.77894992 0 -263.96420112 0 14738.62883197 0 -703.53884047 0 -12212.40498669 0 1920
0.04350000 0.04349210 44624.70896299 0 -925.75638884 0 17125.80582771 0 61.45499808 0 -5089.30578431 0 2005
0.04450000 0.04448520 44729.58423431 0 45.93997751 0 17377.37159107 0 767.21712686 0 -13072.76439364 0 2151
0.04550000 0.04548030 44186.54839750 0 19.94406178 0 16413.14857136 0 464.07700982 0 -9000.60261267 0 2274
0.04650000 0.04648670 43752.09724674 0 803.59299669 0 14879.36177912 0 1159.63049201 0 -10591.89657405 0 2311
0.04750000 0.04749250 42736.84167272 0 2119.51462053 0 12362.91729997 0 1260.02074369 0 -11588.09924509 0 2568
0.04850000 0.04851840 39995.47177245 0 1964.13510548 0 13889.28526273 0 1389.27698645 0 -11842.47517113 0 2493
0.04950000 0.04949480 40827.84195908 0 1914.23785688 0 15350.45745126 0 -1687.13174952 0 -8296.67934194 0 2644
0.05050000 0.05050630 38502.15132283 0 1740.55856244 0 14956.69745615 0 702.40690694 0 -3678.27813870 0 2829
0.05150000 0.05149060 38913.89635911 0 1417.38985392 0 17979.08362470 0 1728.78960112 0 2657.51464582 0 2784
0.05250000 0.05249300 36901.59506525 0 1195.97151583 0 18206.70680200 0 3161.09579857 0 5205.05076489 0 3055
0.05350000 0.05348950 37187.44481334 0 794.16883512 0 19264.56444229 0 5157.67142206 0 7948.52266685 0 3009
0.05450000 0.05448610 36350.46595991 0 622.60278301 0 17485.05702507 0 4296.07554353 0 11565.73035013 0 3336
0.05550000 0.05550870 35969.52030664 0 241.90892032 0 17653.44197302 0 2341.28141881 0 10858.67093785 0 3349
0.05650000 0.05647670 35524.39053769 0 -105.35805727 0 15746.46557651 0 2275.55733398 0 10314.80329288 0 3324
0.05750000 0.05747970 35713.79550251 0 -500.74176437 0 13768.22345436 0 732.85445758 0 6115.13881067 0 3639
0.05850000 0.05849280 35707.83795762 0 -568.25760892 0 12321.55170528 0 -136.75263273 0 3086.61524683 0 3846
0.05950000 0.05951020 36362.26864318 0 -509.46001308 0 11455.34715995 0 1069.00049736 0 988.87601489 0 3787
0.06050000 0.06049470 36577.07747865 0 -507.75705449 0 10402.85131006 0 44.11865487 0 -3229.64128673 0 3930
0.06150000 0.06148310 36183.20507703 0 62.79117424 0 8605.68483054 0 116.31712970 0 -4871.04606907 0 4083
0.06250000 0.06249100 35750.77724341 0 863.91032852 0 9303.57187182 0 -1208.02149341 0 -8565.66811393 0 4303
0.06350000 0.06350600 35251.13031842 0 1578.17612198 0 8824.51781897 0 -1810.25059697 0 -6673.85535526 0 4470
0.06450000 0.06451750 34223.17280907 0 2047.74306562 0 10211.18697444 0 -2447.67417797 0 -6991.67351403 0 4479
0.06550000 0.06550280 32802.12974366 0 754.27126942 0 10797.40939137 0 367.62997842 0 -6152.37908655 0 4636
0.06650000 0.06648880 31971.10843511 0 359.21859948 0 9137.99708655 0 2311.99952365 0 -5041.52177806 0 4653
0.06750000 0.06749660 31567.56907387 0 211.24442512 0 9343.46494127 0 3718.09252359 0 -5745.68110245 0 5220
0.06850000 0.06852730 31862.74856207 0 -63.07589992 0 7549.11986508 0 4852.94862139 0 -2913.36309711 0 5029
0.06950000 0.06949320 30090.09794179 0 1050.36462252 0 6347.04467590 0 2077.87925023 0 -1778.54072126 0 5040
0.07050000 0.07048030 30851.98924834 0 1342.41471355 0 5945.19141227 0 1789.84881590 0 1750.86623916 0 5475
0.07150000 0.07148790 28076.11055032 0 1544.76890801 0 5501.92759135 0 629.33368467 0 2642.92428117 0 5509
0.07250000 0.07249820 28125.11978751 0 1101.78722742 0 6775.52704112 0 83.79657826 0 6599.73450434 0 5916
0.07350000 0.07351270 27534.19877858 0 171.65035699 0 7584.77520920 0 822.45705675 0 6213.60691108 0 5721
0.07450000 0.07449140 27421.45505175 0 -132.62281765 0 6779.40506562 0 808.85924156 0 7250.23096214 0 6028
0.07550000 0.07549160 27903.79137461 0 -195.98748989 0 8375.08288079 0 -358.05968838 0 6510.04535215 0 6183
0.07650000 0.07648840 27877.60065841 0 -93.63979129 0 7749.37205785 0 -1340.99839156 0 4613.74757384 0 6330
0.07750000 0.07749960 28186.60614700 0 750.98787534 0 9193.55962312 0 -2914.48716218 0 4200.36140255 0 6583
0.07850000 0.07848650 27576.23881231 0 764.99709834 0 10543.42688810 0 -2144.68243752 0 3053.55649303 0 6549
0.07950000 0.07947320 26768.03602475 0 846.98190852 0 11026.99968255 0 -1602.00630153 0 3715.13623245 0 6828
0.08050000 0.08048110 26374.38843615 0 943.10633324 0 11616.65049794 0 305.38712312 0 588.09848153 0 7147
0.08150000 0.08149960 25665.77781407 0 853.59365928 0 11909.91907551 0 825.77080059 0 1678.67878017 0 7386
0.08250000 0.08250610 24260.47165968 0 986.73354686 0 10660.91416954 0 1776.73097649 0 -108.21936491 0 7227
0.08350000 0.08350160 24115.35485875 0 916.54579963 0 11625.41820551 0 475.07598656 0 1854.89846168 0 7798
0.08450000 0.08449610 22834.03308192 0 650.27614105 0 11096.10720324 0 701.54924529 0 1419.51433691 0 7371
0.08550000 0.08548940 22778.72908032 0 278.86031146 0 10508.15372611 0 1124.30112676 0 1168.24083047 0 8256
0.08650000 0.08650700 22205.34348654 0 -106.92309307 0 9644.86050932 0 756.25861647 0 1441.74834406 0 8037
0.08750000 0.08749060 22417.79178535 0 -122.10718889 0 9525.03517252 0 1100.55637616 0 586.77320881 0 8155
0.08850000 0.08849210 22716.34346877 0 37.84895711 0 9828.65638942 0 780.03259276 0 1853.70695270 0 8718
0.08950000 0.08949900 22722.30101365 0 297.12299671 0 8691.87814034 0 -42.31475524 0 404.41388387 0 8571
0.09050000 0.09049190 21855.08480976 0 557.74872456 0 9421.54250124 0 -256.08787715 0 103.87676432 0 8932
0.09150000 0.09150830 21467.95679858 0 707.93505897 0 9056.00778012 0 -432.41322078 0 48.94246772 0 9285
0.09250000 0.09250820 20686.16954024 0 874.19439987 0 9055.81668906 0 -1216.44074081 0 -1437.57806264 0 9204
0.09350000 0.09350330 20717.86817530 0 470.26611211 0 9418.51876620 0 -373.81458445 0 -1134.44019372 0 9349
0.09450000 0.09448040 19804.56530341 0 220.33473937 0 9209.70119757 0 -341.14138497 0 -2776.84539398 0 9564
0.09550000 0.09549270 20107.83806013 0 159.79371860 0 9458.07461612 0 498.81062058 0 -2202.98769286 0 10155
0.09650000 0.09649430 19544.56905200 0 91.99191189 0 9262.40860884 0 1129.39314155 0 -2626.44548720 0 9913
0.09750000 0.09749140 19755.10644019 0 299.96350915 0 8728.96104710 0 769.24044399 0 -2265.37330442 0 10476
0.09850000 0.09850240 19273.78177589 0 501.52411366 0 8892.10785181 0 633.96708090 0 -2182.72079959 0 10575
0.09950000 0.09950330 18937.91113205 0 574.56473805 0 8897.51460481 0 -40.54671328 0 -1601.56791615 0 10882
0.10050000 0.10051200 18136.22792192 0 700.43417274 0 9013.91154313 0 5.65000068 0 -1558.86468402 0 10875
0.10150000 0.10150300 17868.13840198 0 453.14884918 0 8965.64418890 0 49.46313466 0 -1310.10908335 0 11118
0.10250000 0.10250800 17585.09881658 0 93.70656075 0 8720.14837693 0 649.66352558 0 -977.06433910 0 11575
0.10350000 0.10349800 17380.63137978 0 -29.71915647 0 7608.97633022 0 878.10727039 0 -2738.78455061 0 11364
0.10450000 0.10450100 17575.99388949 0 -145.33599363 0 7438.79287815 0 1032.34585939 0 -1970.17133492 0 12093
0.10550000 0.10551000 17470.89380515 0 69.12078466 0 6415.18550064 0 852.45722949 0 -2979.68293642 0 12067
0.10650000 0.10649700 17366.46815986 0 240.56791068 0 7002.07111595 0 33.36798410 0 -1726.06936365 0 12054
0.10750000 0.10749900 16974.05704284 0 362.29628965 0 6088.25117413 0 -99.12601569 0 -3189.10750019 0 12807
0.10850000 0.10850100 16876.48819450 0 398.48781280 0 6733.02614071 0 96.17377118 0 -2034.99616769 0 12736
0.10950000 0.10950300 16308.83533258 0 436.12825584 0 6493.67896469 0 -74.76741315 0 -2593.39797405 0 12933
0.11050000 0.11050200 16216.99921611 0 191.43952260 0 6392.07472273 0 230.81777024 0 -1832.46212282 0 13428
0.11150000 0.11150900 15968.24361543 0 116.49698011 0 6119.94980919 0 262.87385799 0 -2412.92932657 0 13453
0.11250000 0.11250000 16152.36547441 0 55.77678337 0 6034.76815795 0 334.52963421 0 -3065.73011777 0 13668
0.11350000 0.11349100 16158.09820628 0 22.18185053 0 5759.48462155 0 204.12122475 0 -2465.97395736 0 13791
0.11450000 0.11448600 16053.33534146 0 268.94605752 0 5460.79805032 0 155.25024757 0 -2140.17493658 0 14205
0.11550000 0.11549300 15680.93258275 0 579.11382940 0 5728.79764505 0 -78.31125311 0 -1487.34042342 0 14776
0.11650000 0.11649800 15392.04785896 0 671.30065418 0 5924.75590924 0 -252.52121867 0 -1674.05887272 0 14553
0.11750000 0.11747300 14954.33691950 0 560.63757179 0 6346.48264337 0 734.04709062 0 -641.28811672 0 14568
0.11850000 0.11849100 14275.17680233 0 304.32150944 0 5963.36754450 0 705.27327288 0 13.93222455 0 16015
0.11950000 0.11950300 14191.65876740 0 64.47288799 0 5757.32641660 0 1105.55958980 0 168.88066065 0 15270
0.12050000 0.12050700 14120.05582224 0 -60.65196599 0 5405.85374955 0 1014.36081822 0 1060.45085842 0 15999
0.12150000 0.12150000 14138.26567643 0 73.12459205 0 5237.81726177 0 900.12208485 0 874.43382573 0 15670
0.12250000 0.12250700 14135.34310724 0 4.05733536 0 4607.08186795 0 833.03001283 0 1994.96821043 0 16887
0.12350000 0.12352200 13973.47773671 0 164.34843027 0 5042.11753254 0 -99.80809838 0 1489.40870316 0 16407
0.12450000 0.12449800 14003.26546115 0 180.40007952 0 4536.01847403 0 -18.68971756 0 1708.77000217 0 16306
0.12550000 0.12549900 13742.48236419 0 213.98377171 0 4808.93023313 0 -344.32136506 0 1403.86735109 0 17523
0.12650000 0.12650100 13474.28043775 0 319.54022646 0 4663.28512161 0 -390.54966526 0 1604.92887072 0 17154
0.12750000 0.12750600 13208.43904796 0 282.13246489 0 4914.01907681 0 137.88793845 0 977.98607246 0 18007
0.12850000 0.12850300 12967.43949629 0 358.93645914 0 4872.27130000 0 27.54791237 0 1148.52472909 0 17496
0.12950000 0.12949900 12684.51231739 0 208.71303058 0 4709.75397173 0 16.68607157 0 767.66675289 0 18405
0.13050000 0.13049000 12624.93686851 0 55.38189931 0 4961.63447331 0 287.52685318 0 833.59878975 0 18100
0.13150000 0.13148800 12682.60140676 0 -87.73867447 0 4621.95324887 0 209.12781059 0 1191.14927666 0 19059
0.13250000 0.13249300 12826.93136215 0 -202.79033171 0 4514.64999699 0 154.06997924 0 594.93954156 0 18957
0.13350000 0.13349100 13281.84049723 0 -215.13593841 0 4638.19598918 0 350.29015060 0 1192.61056126 0 19468
0.13450000 0.13450700 13210.91199112 0 34.03151971 0 4515.39187994 0 343.11973950 0 545.10411655 0 19953
0.13550000 0.13551000 13147.85194052 0 176.57151388 0 4032.67337495 0 131.81461486 0 616.81946821 0 19956
0.13650000 0.13649900 12856.83149309 0 319.37836109 0 4390.72182268 0 -24.45549695 0 113.69468588 0 19723
0.13750000 0.13749600 12503.31302760 0 216.25101096 0 4165.77392025 0 251.40839425 0 -14.52438203 0 20946
0.13850000 0.13851100 12441.71426160 0 184.99076128 0 4059.25751393 0 -256.75219961 0 78.19907141 0 20955
0.13950000 0.13949800 12306.71404632 0 80.92391756 0 4271.14378021 0 -73.26442574 0 -295.58302756 0 20506
0.14050000 0.14048300 12215.10274286 0 135.78930896 0 4406.12151418 0 -147.04569660 0 65.25377600 0 21447
0.14150000 0.14148400 12263.99957354 0 104.98475526 0 4697.74895675 0 80.83815139 0 170.03507548 0 21771
0.14250000 0.14249400 12214.76552334 0 81.18953413 0 4538.28908548 0 385.22272088 0 520.86365325 0 22470
0.14350000 0.14350900 12151.48065972 0 181.64217142 0 4411.95541191 0 396.36557795 0 515.93013164 0 22519
0.14450000 0.14449900 11936.55941775 0 289.42652315 0 4072.19550292 0 395.75183842 0 172.65302303 0 22218
0.14550000 0.14550500 11514.24816978 0 341.80570743 0 4082.84039916 0 535.68220311 0 326.11600714 0 23559
0.14650000 0.14650700 11239.09952119 0 349.43361301 0 3225.81946548 0 577.79754920 0 -303.88649625 0 23044
0.14750000 0.14750500 10776.43433710 0 272.53632136 0 2981.72873485 0 231.66194311 0 -528.23752013 0 23649
0.14850000 0.14849900 10545.74246215 0 294.73548249 0 2544.70347508 0 27.80779622 0 -1218.94740592 0 23640
0.14950000 0.14949500 10202.85765225 0 208.17235528 0 2643.55375761 0 -57.13263066 0 -1240.31588296 0 24457
0.15050000 0.15050000 10249.03424546 0 166.83261408 0 2639.12494123 0 -88.04217204 0 -993.54987746 0 24591
0.15150000 0.15149900 10120.86834582 0 72.42767170 0 2661.69616789 0 6.89918544 0 -533.51837784 0 25020
0.15250000 0.15250500 10131.83922093 0 27.44146341 0 3134.77019456 0 328.54960802 0 -215.81936997 0 25297
0.15350000 0.15350100 10257.37480830 0 -27.16921485 0 2909.01296528 0 435.47854623 0 77.41087698 0 25452
0.15450000 0.15450400 10194.82058698 0 92.65466066 0 2972.30906954 0 422.10554405 0 209.86856947 0 26061
0.15550000 0.15549900 10238.44555247 0 88.31689354 0 2624.57953918 0 361.30936051 0 327.92350378 0 26128
0.15650000 0.15649500 9986.62125414 0 94.86041355 0 2391.05502024 0 237.03047790 0 303.39527982 0 26331
0.15750000 0.15749700 9899.83218985 0 83.47498324 0 2214.56556312 0 -0.23533876 0 -29.95195034 0 27345
0.15850000 0.15849900 9890.14274892 0 146.62642033 0 2242.00399155 0 -334.05190655 0 -43.90036143 0 26980
0.15950000 0.15949700 9804.17425213 0 203.11855871 0 2402.55420594 0 -473.21116260 0 -456.43561545 0 27777
0.16050000 0.16050000 9584.02610756 0 199.88012723 0 2451.14753905 0 -499.66041377 0 -546.73963123 0 28224
0.16150000 0.16150500 9687.81103576 0 82.67498613 0 2856.63153287 0 -414.85644840 0 -752.29965928 0 28075
0.16250000 0.16249700 9668.17361893 0 -44.33582424 0 3002.86115823 0 -2.98669710 0 -886.73334576 0 28590
0.16350000 0.16349900 9695.06125548 0 46.57203930 0 3015.36076184 0 213.02831639 0 -504.96375279 0 29163
0.16450000 0.16449100 9630.43875443 0 71.21424345 0 2725.21708517 0 359.73679347 0 -939.13163914 0 28996
0.16550000 0.16550500 9472.66498077 0 165.86816625 0 2563.12690163 0 446.71245257 0 -827.24444990 0 30777
0.16650000 0.16650700 9303.11100514 0 246.54681281 0 2211.68795653 0 391.42643601 0 -911.62239461 0 29211
0.16750000 0.16749900 9007.85283239 0 259.41173757 0 2193.84904382 0 310.14416651 0 -739.80904819 0 30922
0.16850000 0.16850800 8844.29012360 0 299.22162620 0 2299.81465826 0 -166.11658463 0 -682.08493449 0 30867
0.16950000 0.16949900 8571.16479214 0 236.77194293 0 2175.81904005 0 -54.72207311 0 -375.27024872 0 30852
0.17050000 0.17049200 8591.46540736 0 75.01954095 0 2457.15004654 0 -139.86404485 0 -130.74450491 0 31257
0.17150000 0.17149500 8557.43995760 0 -73.93920200 0 2510.04854888 0 113.79360361 0 -108.97698477 0 32608
0.17250000 0.17250900 8798.31586211 0 -207.04042175 0 2574.80593774 0 216.64780593 0 123.20202827 0 32361
0.17350000 0.17350400 8970.50015001 0 -95.72043574 0 2483.07098713 0 216.79056219 0 -209.34475515 0 32508
0.17450000 0.17449800 8987.63090172 0 -37.47700398 0 2344.13654409 0 57.09474966 0 -344.20671042 0 32791
0.17550000 0.17549800 8944.48928422 0 111.17464440 0 2116.42344158 0 20.26397070 0 -507.74131758 0 33633
0.17650000 0.17650100 8872.04329026 0 155.06028057 0 2250.17594463 0 -5.15436667 0 -237.57902166 0 33984
0.17750000 0.17750300 8705.42312447 0 165.42753274 0 1922.46601322 0 128.89429380 0 -338.87189759 0 34069
