### header ###
fiducial parameters:
Omega_m = 0.31
Omega_nu = 0
Omega_de = 0.69
Omega_k = 0
H_0 = 100
w_de = -1
zeff = 0
beta = 0
fgrowth = 0
b_1 = 2
gamma = 0.55
Lx = 3500 Ly = 3500 Lz = 3500
nx = 700 ny = 700 nz = 700
xoffset = 857.220397 yoffset = 15.9954215 zoffset = 262.898189
bins = 400 dk = 0.001
kx_ny = 0.628318531 ky_ny = 0.628318531 kz_ny = 0.628318531
############################
A(data) = 3.07126096 (not used)
A(ran) = 3.06534367 (used)
Ngal = 187119
weighted Ngal = 0
Nran = 9360983
weighted Nran = 0
SN(data) = 3460.36583
SN(ran) = 68.8360988
SN(data+ran) = 3529.20193
############################
13 columns: k_central k_mean P_0(k) sigma^{lin}_{P_0(k)} P^img_1(k) sigma^{lin}_{P_1(k)} P_2(k) sigma^{lin}_{P_2(k)} P^img_3(k) sigma^{lin}_{P_3(k)} P_4(k) sigma^{lin}_{P_4(k)} N_modes
### header ###
0.00050000 0 0 0 0 0 0 0 0 0 0 0 0
0.00150000 0.00179520 6618.49515041 0 -8251.53688861 0 -737.70030211 0 21519.10175941 0 27423.70318189 0 3
0.00250000 0.00253879 12758.58820570 0 -10032.76412539 0 8323.24099962 0 -20837.58110559 0 -13887.82397814 0 6
0.00350000 0.00331552 30732.16391154 0 -23209.13359681 0 -17703.12564925 0 59254.19107636 0 23345.81990970 0 7
0.00450000 0.00420575 48858.16284130 0 -27336.92535825 0 -4699.94088364 0 8354.51248995 0 -5452.49120943 0 24
0.00550000 0.00557378 91332.76013246 0 -29826.27986913 0 -28155.58195099 0 24394.57262290 0 30893.13003001 0 45
0.00650000 0.00659388 97870.09778459 0 -23902.56934041 0 -17546.43097806 0 11048.34567829 0 -24881.63001908 0 40
0.00750000 0.00754703 131041.25809175 0 -20227.10136439 0 -52866.12926594 0 21122.75641463 0 43439.83196944 0 57
0.00850000 0.00846663 139974.20322767 0 -19497.02109941 0 -41128.19214661 0 18551.23274691 0 22050.89694549 0 75
0.00950000 0.00948925 154012.65192560 0 -5814.33899711 0 -27415.49750686 0 3876.90043712 0 77229.79009933 0 112
0.01050000 0.01054430 142895.64835265 0 -1642.38271896 0 -40233.66116144 0 20632.32682324 0 20717.08132975 0 105
0.01150000 0.01145670 141370.29204846 0 13618.49798662 0 -13573.98500973 0 5254.38598095 0 65715.09230352 0 144
0.01250000 0.01249090 118407.89073519 0 15172.96757621 0 -29432.40746752 0 19025.36339474 0 45660.98455388 0 169
0.01350000 0.01339930 101405.73206552 0 14309.79800658 0 -12445.53608285 0 6820.56832860 0 63438.97293700 0 180
0.01450000 0.01448870 96270.44077907 0 2543.83794498 0 -30877.61793200 0 4003.75118062 0 39120.27470653 0 267
0.01550000 0.01550050 86082.58939554 0 -584.89939233 0 -26797.14931015 0 -3446.39475477 0 10898.99115202 0 238
0.01650000 0.01653350 91944.36393874 0 -3908.46418437 0 -31593.42257055 0 -19805.91418150 0 32927.23818629 0 315
0.01750000 0.01747870 90973.84615462 0 2036.92955961 0 -13658.73951624 0 -16971.80891269 0 15203.99177223 0 297
0.01850000 0.01844180 92046.54145388 0 82.92396654 0 -19548.84049928 0 -6874.72578382 0 36026.62281235 0 388
0.01950000 0.01947590 86259.06761202 0 7534.90044190 0 -15.30088618 0 3355.40168711 0 31250.58272326 0 399
0.02050000 0.02045430 83719.69220538 0 5413.18265382 0 3955.95593371 0 6392.31077640 0 33239.61587011 0 462
0.02150000 0.02154770 78862.49461801 0 6103.62838433 0 2131.07000949 0 17666.48112787 0 39322.04438715 0 571
0.02250000 0.02255340 74292.72046983 0 3837.51319696 0 -2630.68321253 0 3588.49906131 0 43504.12849162 0 510
0.02350000 0.02348930 68142.84804840 0 4680.91046195 0 -3049.59978397 0 945.89513869 0 40527.94139757 0 555
0.02450000 0.02439640 60821.13778826 0 4936.88256040 0 -6654.49895470 0 -10092.12600190 0 26853.91459634 0 592
0.02550000 0.02547300 61757.82121367 0 3125.36176990 0 -9820.18093877 0 -7687.66088534 0 30215.76841696 0 837
0.02650000 0.02652900 58561.76699133 0 380.52412887 0 -2204.56138396 0 -4075.51149488 0 14055.42208054 0 723
0.02750000 0.02749970 63662.54948004 0 -1759.30796786 0 -2689.32568739 0 -7539.35173959 0 13522.27801637 0 826
0.02850000 0.02848090 64234.47378923 0 -2833.00368503 0 760.92685871 0 -2542.72512056 0 4199.58579765 0 831
0.02950000 0.02946900 69316.82161074 0 -1878.12164609 0 3925.33640112 0 -7706.52269726 0 15355.17852456 0 996
0.03050000 0.03053250 70279.35853284 0 1744.43658694 0 16509.36854162 0 -8064.21144417 0 15285.37408352 0 1041
0.03150000 0.03150510 70301.27780176 0 2643.92469909 0 21455.70448929 0 -2751.00313795 0 20562.40997569 0 1036
0.03250000 0.03246190 64403.75798924 0 4281.73247320 0 28136.92247077 0 1012.40831719 0 13341.52835261 0 1059
0.03350000 0.03345080 63297.90277033 0 3720.22824723 0 22520.64373954 0 618.37629834 0 17923.77962310 0 1302
0.03450000 0.03451200 58947.43371791 0 3248.87404013 0 17035.65580885 0 2043.05571426 0 -1663.00931305 0 1339
0.03550000 0.03553350 57200.41178130 0 3200.71909240 0 18713.99736949 0 -2248.09642425 0 -1219.59936366 0 1365
0.03650000 0.03647120 50808.41574312 0 3383.04244725 0 14932.41765057 0 -600.78692807 0 -3486.71496894 0 1308
0.03750000 0.03744890 50439.38517963 0 1500.86292625 0 15312.80127131 0 1242.68766026 0 -4937.63568400 0 1579
0.03850000 0.03847530 48254.65230355 0 1618.69866787 0 16579.95982821 0 1357.37601967 0 -6795.26562380 0 1662
0.03950000 0.03950240 47862.69081256 0 2559.46244949 0 18577.19865009 0 784.78738802 0 -4312.73418791 0 1683
0.04050000 0.04050350 45812.84574526 0 2818.68309600 0 21778.42357177 0 488.89749070 0 201.32117866 0 1822
0.04150000 0.04152450 44922.69861387 0 1766.17600546 0 27086.93328599 0 -312.82955797 0 14105.55538280 0 1887
0.04250000 0.04250150 44776.00812183 0 864.68143716 0 29579.99721162 0 1883.52839909 0 10196.52916589 0 1920
0.04350000 0.04349210 44688.66826565 0 -466.23071850 0 27031.06725186 0 2814.70390564 0 13189.10512870 0 2005
0.04450000 0.04448520 46157.70890968 0 -649.01044378 0 29114.07223882 0 3809.74878965 0 10046.84866076 0 2151
0.04550000 0.04548030 45616.58398349 0 531.44335372 0 23348.96729191 0 3017.12554401 0 6468.24137209 0 2274
0.04650000 0.04648670 44800.62514693 0 875.92096382 0 21743.35274149 0 961.94678793 0 3079.84837509 0 2311
0.04750000 0.04749250 43802.11814250 0 1044.76003406 0 18232.89751820 0 654.20250035 0 -186.29580083 0 2568
0.04850000 0.04851840 42588.01545704 0 538.22483830 0 16450.80475131 0 731.73713690 0 -3542.46859657 0 2493
0.04950000 0.04949480 41659.76251968 0 1699.22668970 0 14857.21769718 0 1436.62260733 0 -3580.38331149 0 2644
0.05050000 0.05050630 39697.93174760 0 781.51523459 0 13674.92605329 0 2696.95808924 0 -3979.92100107 0 2829
0.05150000 0.05149060 40241.19239743 0 688.88890037 0 13149.31322511 0 1485.11477458 0 -2720.36112406 0 2784
0.05250000 0.05249300 39558.43527203 0 -109.69470032 0 12228.59152374 0 5865.22542297 0 -1131.24784892 0 3055
0.05350000 0.05348950 38595.89834993 0 -230.27821901 0 9733.97638831 0 3805.11764155 0 -1146.38900545 0 3009
0.05450000 0.05448610 39173.44298449 0 617.21176692 0 8495.82995094 0 3305.85289868 0 -601.99192583 0 3336
0.05550000 0.05550870 37205.76707403 0 1890.96970987 0 8484.51061566 0 578.36745019 0 475.80775292 0 3349
0.05650000 0.05647670 36180.17010133 0 2407.34272315 0 8896.43550234 0 -170.27562540 0 2255.33540332 0 3324
0.05750000 0.05747970 33844.81250546 0 1862.89056435 0 8201.98810018 0 136.58514703 0 3041.43907154 0 3639
0.05850000 0.05849280 32442.31651376 0 1430.00186404 0 9881.83590803 0 9.81227876 0 5878.55683474 0 3846
0.05950000 0.05951020 32011.23755822 0 721.21139155 0 11363.51104348 0 2151.44930926 0 7814.34301907 0 3787
0.06050000 0.06049470 31468.98856696 0 443.47289703 0 11612.71627019 0 1451.30289718 0 7901.36813703 0 3930
0.06150000 0.06148310 31630.74153098 0 131.44929371 0 12663.04267449 0 1929.60382643 0 9445.66493771 0 4083
0.06250000 0.06249100 31056.34427863 0 114.68161502 0 9347.18559666 0 1697.45066689 0 7318.56287793 0 4303
0.06350000 0.06350600 31661.20369446 0 41.04546096 0 12754.20435192 0 1909.84276245 0 10708.55204734 0 4470
0.06450000 0.06451750 31204.60846177 0 505.45496923 0 7821.22229732 0 1227.34417202 0 6193.66599668 0 4479
0.06550000 0.06550280 30580.19031366 0 54.63507047 0 10067.36284834 0 1563.38342562 0 6884.01056132 0 4636
0.06650000 0.06648880 30547.48002003 0 288.73522313 0 6898.67961053 0 -358.76672532 0 4939.82761089 0 4653
0.06750000 0.06749660 30264.66524764 0 540.28187739 0 7146.03012986 0 -862.94588068 0 2704.21954961 0 5220
0.06850000 0.06852730 29989.26930473 0 718.98686677 0 6907.64964981 0 -1045.18380659 0 2355.99543061 0 5029
0.06950000 0.06949320 29123.51438543 0 793.31454567 0 7864.84726281 0 -1868.76942468 0 190.75384290 0 5040
0.07050000 0.07048030 29086.30783151 0 535.82383531 0 8351.35386710 0 -1099.15466701 0 1101.14313813 0 5475
0.07150000 0.07148790 28311.71458964 0 447.87361179 0 7494.70387489 0 687.64905660 0 -976.60347242 0 5509
0.07250000 0.07249820 28016.87232097 0 394.16465853 0 7601.92844221 0 1141.08341831 0 -1669.48392787 0 5916
0.07350000 0.07351270 27816.22670542 0 93.62585288 0 6583.87394616 0 1172.26498343 0 -2142.72656429 0 5721
0.07450000 0.07449140 27071.42118798 0 246.23881898 0 6295.76482727 0 1347.52920963 0 -2530.77630883 0 6028
0.07550000 0.07549160 27209.90600499 0 -55.02512105 0 4231.44180183 0 1294.79931705 0 -2386.81729492 0 6183
0.07650000 0.07648840 26936.19615969 0 -90.88661870 0 4454.84973510 0 131.95062674 0 -4732.71862117 0 6330
0.07750000 0.07749960 26263.21840042 0 436.28899715 0 3931.93466310 0 -1236.29173000 0 -3653.22272822 0 6583
0.07850000 0.07848650 26492.52767534 0 438.20440403 0 4468.07998101 0 -1117.36002494 0 -4818.57471146 0 6549
0.07950000 0.07947320 26043.23886562 0 120.72234072 0 5221.51831821 0 -1340.00921429 0 -3596.16518511 0 6828
0.08050000 0.08048110 26079.77098049 0 346.53015293 0 6303.14993480 0 -409.03154319 0 -3228.66335011 0 7147
0.08150000 0.08149960 25849.11282749 0 745.33832428 0 6815.37514796 0 -80.04613514 0 -2956.04384793 0 7386
0.08250000 0.08250610 25549.77429853 0 1107.04897602 0 8231.60721486 0 -1203.78376808 0 -455.94777121 0 7227
0.08350000 0.08350160 24684.58141176 0 1288.18981442 0 9679.65032333 0 59.41043612 0 -1019.27972698 0 7798
0.08450000 0.08449610 24215.50905676 0 845.68810962 0 10216.32395183 0 -377.55210082 0 1195.88159062 0 7371
0.08550000 0.08548940 23163.49655485 0 404.78707347 0 10062.95651325 0 986.81447954 0 -441.76769031 0 8256
0.08650000 0.08650700 23092.79286175 0 -79.75927373 0 10336.55395205 0 988.81194318 0 1325.74482851 0 8037
0.08750000 0.08749060 23137.08102563 0 24.96211308 0 9020.07141973 0 1377.83400400 0 -1031.87937239 0 8155
0.08850000 0.08849210 23090.09510557 0 129.51702585 0 8271.51152495 0 1404.83404706 0 189.41170921 0 8718
0.08950000 0.08949900 22614.84039267 0 481.89006903 0 7611.42679208 0 482.43636466 0 -845.83536214 0 8571
0.09050000 0.09049190 22157.57072093 0 486.14465533 0 7140.61213621 0 672.32917372 0 220.80459857 0 8932
0.09150000 0.09150830 21627.68644547 0 620.59745092 0 7088.61288593 0 943.64476041 0 -427.54601901 0 9285
0.09250000 0.09250820 21317.55689180 0 542.92343031 0 6739.48951488 0 587.99956380 0 -75.02684737 0 9204
0.09350000 0.09350330 20476.19418459 0 678.16756771 0 6949.04896645 0 898.23365552 0 506.73078308 0 9349
0.09450000 0.09448040 19957.66296637 0 613.85868081 0 6506.67315694 0 127.77697312 0 -121.25851976 0 9564
0.09550000 0.09549270 19349.09413579 0 271.35268084 0 6178.77213446 0 559.93952738 0 822.87071270 0 10155
0.09650000 0.09649430 18861.81192660 0 650.83480139 0 5501.98379460 0 738.65238523 0 -171.00064738 0 9913
0.09750000 0.09749140 18800.21316060 0 55.40584189 0 5097.30912763 0 1047.95125480 0 185.53143658 0 10476
0.09850000 0.09850240 17935.69471288 0 77.72269263 0 3579.77631635 0 426.86258744 0 -1282.64817361 0 10575
0.09950000 0.09950330 18332.26487067 0 37.91977321 0 3341.54196475 0 1756.40787997 0 387.50344891 0 10882
0.10050000 0.10051200 18014.94130053 0 187.15121435 0 2363.63907311 0 684.08914251 0 -404.42737265 0 10875
0.10150000 0.10150300 17652.43031446 0 281.82671919 0 2041.15604429 0 415.95241184 0 265.99875890 0 11118
0.10250000 0.10250800 17554.29943357 0 663.73232404 0 2492.78290936 0 -509.01825551 0 359.22309574 0 11575
0.10350000 0.10349800 16477.33268704 0 560.14635536 0 2270.83626067 0 -33.22253008 0 409.38787182 0 11364
0.10450000 0.10450100 16359.98029341 0 653.17847707 0 3100.01410250 0 -1065.68900166 0 1191.55394009 0 12093
0.10550000 0.10551000 16020.17542181 0 99.95512609 0 3417.67489215 0 197.54769221 0 1135.40688969 0 12067
0.10650000 0.10649700 16042.54431676 0 70.22798876 0 4259.99305468 0 429.71996086 0 1801.62901786 0 12054
0.10750000 0.10749900 16280.95851877 0 -69.97136470 0 3709.02131845 0 70.63400106 0 705.54192443 0 12807
0.10850000 0.10850100 16544.43937190 0 -8.60943921 0 4409.65107851 0 -372.63319206 0 1244.22762941 0 12736
0.10950000 0.10950300 16425.17606765 0 274.75410175 0 5446.60110845 0 -1465.21882278 0 1112.01509552 0 12933
0.11050000 0.11050200 16518.92309474 0 294.25775484 0 6306.53337067 0 -1544.58905760 0 985.78820813 0 13428
0.11150000 0.11150900 16413.14857136 0 492.77776333 0 7708.53477374 0 -643.64752931 0 1959.21170046 0 13453
0.11250000 0.11250000 15909.34260560 0 448.12765050 0 7533.31551015 0 -286.38367900 0 1124.82943735 0 13668
0.11350000 0.11349100 15800.75791954 0 306.66518511 0 7792.50243470 0 680.79787998 0 1844.78187602 0 13791
0.11450000 0.11448600 15405.42423333 0 151.87018390 0 7283.68313872 0 1551.43461389 0 1113.37409019 0 14205
0.11550000 0.11549300 15382.94293187 0 -70.63141571 0 6397.24542207 0 1438.10637322 0 1881.84230148 0 14776
0.11650000 0.11649800 15379.79554966 0 -241.39072632 0 4913.94039226 0 1157.56221228 0 424.43348282 0 14553
0.11750000 0.11747300 15519.51683825 0 -168.04098404 0 4076.27585913 0 407.23753533 0 398.02020173 0 14568
0.11850000 0.11849100 15202.75530065 0 -5.45054658 0 3622.97413711 0 -36.54549125 0 -889.66378341 0 16015
0.11950000 0.11950300 15428.01794130 0 296.21812432 0 3777.13966188 0 -661.40663340 0 -768.35917698 0 15270
0.12050000 0.12050700 14799.55315893 0 394.02527446 0 3103.09404080 0 -151.62738584 0 -1340.77357854 0 15999
0.12150000 0.12150000 14548.54942811 0 593.30290282 0 3931.51875902 0 136.95046818 0 -1413.29825706 0 15670
0.12250000 0.12250700 13978.76084255 0 348.41521006 0 3512.26496806 0 396.26441209 0 -1069.88963284 0 16887
0.12350000 0.12352200 13706.17506233 0 543.41914300 0 3747.23953094 0 627.42052592 0 -734.03584997 0 16407
0.12450000 0.12449800 13407.73578542 0 343.47269593 0 3780.25332213 0 638.71737990 0 -58.43508486 0 16306
0.12550000 0.12549900 13005.32048925 0 247.28532356 0 3305.65056697 0 362.22659761 0 558.73340556 0 17523
0.12650000 0.12650100 12758.47579920 0 81.98851959 0 3560.49860034 0 384.62696639 0 637.19089953 0 17154
0.12750000 0.12750600 12847.83897251 0 42.63736191 0 3171.53836310 0 514.95219503 0 1053.39060569 0 18007
0.12850000 0.12850300 12679.45402456 0 104.19869655 0 3069.18099754 0 419.75175179 0 792.67720077 0 17496
0.12950000 0.12949900 12644.94522681 0 32.93735477 0 2533.82252518 0 533.16317328 0 992.15266458 0 18405
0.13050000 0.13049000 12563.90013504 0 -55.24161598 0 2567.55571802 0 307.98708564 0 1065.57884328 0 18100
0.13150000 0.13148800 12529.27893079 0 83.34560335 0 2537.14975779 0 128.04337654 0 1230.63768268 0 19059
0.13250000 0.13249300 12654.83699946 0 214.01299740 0 2749.83411027 0 -308.87509705 0 988.14986885 0 18957
0.13350000 0.13349100 12264.33679306 0 402.64572951 0 3104.40919693 0 -461.97276000 0 853.14178512 0 19468
0.13450000 0.13450700 12125.28994352 0 390.13825744 0 3092.08944373 0 -463.92188884 0 1246.14978069 0 19953
0.13550000 0.13551000 11926.44283209 0 170.69714981 0 3115.44751595 0 -323.91733585 0 910.12289180 0 19956
0.13650000 0.13649900 11759.18194921 0 43.16421121 0 3021.80165471 0 67.84598246 0 292.65258991 0 19723
0.13750000 0.13749600 11758.50751017 0 89.85573863 0 3084.47952319 0 37.81714607 0 -11.71455657 0 20946
0.13850000 0.13851100 11634.18591308 0 55.45249059 0 2985.29202114 0 156.05170597 0 -497.79446575 0 20955
0.13950000 0.13949800 11671.84209303 0 77.00205452 0 2870.79475279 0 86.04740616 0 8.87822565 0 20506
0.14050000 0.14048300 11616.08846541 0 6.10094187 0 3215.07340338 0 278.09145095 0 219.39389690 0 21447
0.14150000 0.14148400 11554.82691892 0 58.29322785 0 2866.09616079 0 255.05148915 0 124.25190505 0 21771
0.14250000 0.14249400 11472.32054256 0 105.00712415 0 3323.92786506 0 136.43115012 0 565.39798738 0 22470
0.14350000 0.14350900 11540.88851202 0 203.12642716 0 3465.76239598 0 -182.81119910 0 306.50894007 0 22519
0.14450000 0.14449900 11313.49014773 0 219.17245608 0 3366.83342890 0 -281.96385513 0 205.80732236 0 22218
0.14550000 0.14550500 11029.89977044 0 153.68779712 0 3729.80528165 0 -478.12557510 0 -186.63302035 0 23559
0.14650000 0.14650700 11089.32909085 0 227.41185307 0 3396.86844765 0 -459.82804384 0 -792.00163766 0 23044
0.14750000 0.14750500 10832.32285254 0 195.47041995 0 3615.06071899 0 -349.86750213 0 -1047.90067188 0 23649
0.14850000 0.14849900 10904.01572290 0 39.22739811 0 3464.81818132 0 166.84160660 0 -1250.46619057 0 23640
0.14950000 0.14949500 10727.26773081 0 46.21436179 0 3420.46257354 0 275.28353640 0 -1213.19219275 0 24457
0.15050000 0.15050000 10746.07333948 0 24.59724156 0 3034.32373963 0 491.26252361 0 -1407.58800649 0 24591
0.15150000 0.15149900 10608.04938915 0 82.46703409 0 3052.47739056 0 584.71729379 0 -745.86326267 0 25020
0.15250000 0.15250500 10531.62420483 0 125.84358119 0 2913.75651988 0 256.75444774 0 -634.37736465 0 25297
0.15350000 0.15350100 10488.30273692 0 186.26095481 0 2811.37667303 0 259.61744148 0 -277.99140916 0 25452
0.15450000 0.15450400 10301.32575266 0 121.26189196 0 2764.85161965 0 136.22094995 0 -276.16030716 0 26061
0.15550000 0.15549900 10230.19491483 0 179.57276762 0 2750.82328754 0 -6.54296922 0 -51.94147334 0 26128
0.15650000 0.15649500 10027.21124393 0 190.96291901 0 2767.78542949 0 -13.66177449 0 -104.30728124 0 26331
0.15750000 0.15749700 9864.96369128 0 170.33520085 0 2747.05766954 0 206.88530077 0 -455.47566388 0 27345
0.15850000 0.15849900 9675.32267280 0 209.92926899 0 2693.55217206 0 105.43775348 0 -270.96150620 0 26980
0.15950000 0.15949700 9659.32722681 0 175.78466833 0 2543.91662953 0 122.30727247 0 -386.10173976 0 27777
0.16050000 0.16050000 9420.06997600 0 143.58582431 0 2568.78094895 0 179.80769722 0 -524.21111903 0 28224
0.16150000 0.16150500 9387.55077343 0 136.73914395 0 2321.36298571 0 89.23356861 0 -380.31842496 0 28075
0.16250000 0.16249700 9201.18078431 0 121.68566449 0 2332.50247059 0 452.39122932 0 -542.96164852 0 28590
0.16350000 0.16349900 9141.77394520 0 146.88945156 0 2078.11530389 0 263.31336744 0 160.30741633 0 29163
0.16450000 0.16449100 8938.49801738 0 151.60040828 0 2078.37383886 0 254.42875710 0 -159.99042998 0 28996
0.16550000 0.16550500 8914.57791262 0 135.44422098 0 2067.96499628 0 12.66045732 0 330.41330791 0 30777
0.16650000 0.16650700 8782.65763565 0 207.30008078 0 2241.81290049 0 -199.42263275 0 -1.33126399 0 29211
0.16750000 0.16749900 8558.40665356 0 208.81981676 0 2335.36883652 0 -301.80922400 0 377.19239999 0 30922
0.16850000 0.16850800 8492.67132809 0 217.98319524 0 2697.04801444 0 -639.47387570 0 119.24194702 0 30867
0.16950000 0.16949900 8403.85894666 0 76.93584708 0 2570.46704656 0 -40.10607978 0 235.68946827 0 30852
0.17050000 0.17049200 8378.84849879 0 -7.66268416 0 2566.55530011 0 98.12110152 0 -435.35939533 0 31257
0.17150000 0.17149500 8449.11380650 0 -54.38620246 0 2371.50752862 0 216.63094495 0 -395.84288769 0 32608
0.17250000 0.17250900 8472.87654215 0 -71.36700390 0 2173.45850339 0 435.16718020 0 -593.07359354 0 32361
0.17350000 0.17350400 8411.33397940 0 83.20116099 0 1991.13514854 0 286.33084794 0 -741.97174939 0 32508
0.17450000 0.17449800 8373.65531815 0 93.33966591 0 1873.49049799 0 223.05385278 0 -515.61539342 0 32791
0.17550000 0.17549800 8138.90556828 0 197.57466977 0 1718.49316506 0 292.82457187 0 -436.93983082 0 33633
0.17650000 0.17650100 8079.37508201 0 156.20345475 0 1729.34039301 0 301.22695829 0 78.30293502 0 33984
0.17750000 0.17750300 8032.07442373 0 34.48597922 0 1609.66118468 0 372.72536539 0 177.33475406 0 34069
