### header ###
fiducial parameters:
Omega_m = 0.31
Omega_nu = 0
Omega_de = 0.69
Omega_k = 0
H_0 = 100
w_de = -1
zeff = 0
beta = 0
fgrowth = 0
b_1 = 2
gamma = 0.55
Lx = 3500 Ly = 3500 Lz = 3500
nx = 700 ny = 700 nz = 700
xoffset = 857.220397 yoffset = 15.9954215 zoffset = 262.898189
bins = 400 dk = 0.001
kx_ny = 0.628318531 ky_ny = 0.628318531 kz_ny = 0.628318531
############################
A(data) = 3.0658331 (not used)
A(ran) = 3.05990308 (used)
Ngal = 187178
weighted Ngal = 0
Nran = 9360983
weighted Nran = 0
SN(data) = 3463.28837
SN(ran) = 68.7139234
SN(data+ran) = 3532.00229
############################
13 columns: k_central k_mean P_0(k) sigma^{lin}_{P_0(k)} P^img_1(k) sigma^{lin}_{P_1(k)} P_2(k) sigma^{lin}_{P_2(k)} P^img_3(k) sigma^{lin}_{P_3(k)} P_4(k) sigma^{lin}_{P_4(k)} N_modes
### header ###
0.00050000 0 0 0 0 0 0 0 0 0 0 0 0
0.00150000 0.00179520 41419.66222006 0 -58851.43856067 0 -59854.21701238 0 104867.85249066 0 19621.34269650 0 3
0.00250000 0.00253879 65165.98651531 0 -53125.33867180 0 -15227.14751274 0 -77453.14182936 0 -37696.98351097 0 6
0.00350000 0.00331552 99099.82497456 0 -42542.26600857 0 -68164.31769130 0 12459.58689626 0 22668.00867062 0 7
0.00450000 0.00420575 112817.91512667 0 -16688.20729475 0 -45065.11765863 0 -46938.37210295 0 319.00067522 0 24
0.00550000 0.00557378 103524.93194783 0 24695.48484297 0 -46968.38464040 0 -58265.46343806 0 19407.54551959 0 45
0.00650000 0.00659388 62370.54908502 0 25595.74856002 0 14830.57735495 0 -13040.27891302 0 28850.02935315 0 40
0.00750000 0.00754703 50478.39023766 0 17286.99675919 0 -9500.96893931 0 -18944.20589646 0 13078.60953202 0 57
0.00850000 0.00846663 44513.76374028 0 -4540.46977172 0 14167.26655531 0 10239.29984192 0 9868.70682797 0 75
0.00950000 0.00948925 50537.06643448 0 -4351.69428335 0 13492.60269844 0 -2161.65582012 0 6854.60501901 0 112
0.01050000 0.01054430 56960.98592073 0 -8013.78588499 0 28027.10131313 0 -21845.97988267 0 9562.65763052 0 105
0.01150000 0.01145670 68528.96440101 0 -3251.67296216 0 14781.11849173 0 -8244.19674368 0 10029.07719195 0 144
0.01250000 0.01249090 72258.61231355 0 -1897.66913771 0 31603.08953018 0 -13125.59545207 0 -5851.62423559 0 169
0.01350000 0.01339930 72087.41720292 0 -3454.08335987 0 17209.99830168 0 -5302.36107827 0 -18925.65882276 0 180
0.01450000 0.01448870 80632.89710814 0 -11560.78446381 0 13403.12711862 0 14642.07164219 0 -17766.97254540 0 267
0.01550000 0.01550050 81944.23142242 0 -7717.22379676 0 824.59278039 0 15137.22230689 0 -30651.90566533 0 238
0.01650000 0.01653350 94312.43182823 0 -4188.65988514 0 -8365.04497969 0 5393.17429552 0 -32028.88537987 0 315
0.01750000 0.01747870 91242.94733312 0 3779.62384569 0 -11862.48352943 0 -1891.07087573 0 -24497.42457709 0 297
0.01850000 0.01844180 84368.39015906 0 13556.67440760 0 -6558.24526249 0 -15567.28960386 0 -6587.57212025 0 388
0.01950000 0.01947590 78320.02081373 0 9628.77513812 0 4096.38538329 0 -9191.31149297 0 5077.88528317 0 399
0.02050000 0.02045430 74665.46044807 0 1929.14295975 0 13608.94343350 0 -6046.68324772 0 13060.73689735 0 462
0.02150000 0.02154770 76882.90361777 0 -2978.05304207 0 17262.04251457 0 10568.48229858 0 -3572.23383971 0 571
0.02250000 0.02255340 81422.77763501 0 -1273.36339611 0 22704.09115947 0 -1599.12869494 0 5019.43389937 0 510
0.02350000 0.02348930 77840.15743403 0 188.11678624 0 17190.66438243 0 6794.16404003 0 1331.42135713 0 555
0.02450000 0.02439640 77361.64293241 0 3954.55085237 0 15441.50672218 0 1225.96157198 0 -9578.13600658 0 592
0.02550000 0.02547300 70796.76568599 0 6160.24754206 0 13941.32947562 0 -1385.25283348 0 -4619.95241304 0 837
0.02650000 0.02652900 62503.07635714 0 4740.69948319 0 7042.42505208 0 -769.93286808 0 -13930.20123140 0 723
0.02750000 0.02749970 62453.61749392 0 6296.73152323 0 18295.17072325 0 -7452.49523139 0 1192.10473197 0 826
0.02850000 0.02848090 55994.51477088 0 2844.51411138 0 9968.93971054 0 -3732.70536954 0 -7850.96505916 0 831
0.02950000 0.02946900 57218.28441596 0 1851.36889735 0 29802.78690911 0 -332.54228716 0 11007.36226572 0 996
0.03050000 0.03053250 56274.40697408 0 1455.85536073 0 26615.27558132 0 1933.59425744 0 10941.46957114 0 1041
0.03150000 0.03150510 57944.76767271 0 -175.13158652 0 35024.63120619 0 6762.37547976 0 12479.82006758 0 1036
0.03250000 0.03246190 56277.21713677 0 -567.57754956 0 32923.30395854 0 7934.15711522 0 8848.20187006 0 1059
0.03350000 0.03345080 58122.48236077 0 -3708.79650544 0 22767.60083610 0 8307.95371462 0 2694.08048265 0 1302
0.03450000 0.03451200 60174.35074520 0 -1116.59004036 0 19794.33631125 0 407.17346362 0 -2998.76956136 0 1339
0.03550000 0.03553350 61398.57001631 0 515.99420335 0 9336.60814432 0 -2043.05571426 0 -14946.35605748 0 1365
0.03650000 0.03647120 56707.39684024 0 1595.12702328 0 9190.68201653 0 -4763.18078465 0 -22920.13646652 0 1308
0.03750000 0.03744890 54796.93584200 0 4833.03018830 0 5191.95540679 0 -7058.79143954 0 -30072.78733966 0 1579
0.03850000 0.03847530 49126.47717425 0 4866.11142340 0 8186.85818430 0 -7050.02373197 0 -34228.23110190 0 1662
0.03950000 0.03950240 45710.44341710 0 6360.81447305 0 11977.81260593 0 -4682.41670915 0 -24336.57086513 0 1683
0.04050000 0.04050350 42317.34058744 0 3482.82570379 0 17446.27678005 0 -913.32647726 0 -20387.61785683 0 1822
0.04150000 0.04152450 40063.59011588 0 1433.19420885 0 22719.26603796 0 4469.85600383 0 -2459.19584497 0 1887
0.04250000 0.04250150 39794.60134388 0 1236.19056414 0 23384.15052870 0 9688.80021302 0 -182.19408737 0 1920
0.04350000 0.04349210 40928.33337661 0 197.13740846 0 30165.97233422 0 7655.25408928 0 13960.77580138 0 2005
0.04450000 0.04448520 40104.50608454 0 253.53962163 0 24857.12540048 0 8543.27673768 0 14464.35695413 0 2151
0.04550000 0.04548030 40289.41478906 0 616.94199131 0 25710.96523001 0 2836.31967700 0 18458.72219139 0 2274
0.04650000 0.04648670 38935.36600201 0 647.53342227 0 16797.12920033 0 3789.85283786 0 11593.83197696 0 2311
0.04750000 0.04749250 38522.15968114 0 423.02952555 0 17345.33573649 0 2155.29361181 0 8387.14409902 0 2568
0.04850000 0.04851840 36157.01436083 0 334.35765225 0 9687.65366665 0 643.31255792 0 3229.39399241 0 2493
0.04950000 0.04949480 37019.50949142 0 972.14992660 0 8461.88318574 0 587.49598265 0 -3251.58303695 0 2644
0.05050000 0.05050630 35777.75480516 0 1357.57835138 0 9781.27704659 0 -2970.43188087 0 -3094.60734950 0 2829
0.05150000 0.05149060 35128.71963196 0 1424.03307851 0 11954.09483289 0 -3571.09853398 0 -3875.97870376 0 2784
0.05250000 0.05249300 34235.76233789 0 1150.73913728 0 14614.19482838 0 -2319.17105882 0 -2267.80128498 0 3055
0.05350000 0.05348950 33536.36904940 0 784.00279060 0 17868.36321500 0 -1931.97560374 0 -2122.31354257 0 3009
0.05450000 0.05448610 33941.59450826 0 560.27562284 0 21513.70624706 0 1446.66050843 0 2378.51045403 0 3336
0.05550000 0.05550870 33766.91479590 0 696.30323360 0 18852.36977999 0 4138.85256175 0 -2486.47690430 0 3349
0.05650000 0.05647670 32620.14360832 0 329.72875228 0 16609.07311361 0 5635.26419032 0 2638.46174283 0 3324
0.05750000 0.05747970 31897.70698584 0 171.14452770 0 12370.56094247 0 6152.31164264 0 -1177.16590715 0 3639
0.05850000 0.05849280 30752.05986334 0 -306.19982217 0 9390.48458327 0 5056.34819637 0 675.35178470 0 3846
0.05950000 0.05951020 31325.67027014 0 -318.64209847 0 8283.71887165 0 4650.60566758 0 -386.64691132 0 3787
0.06050000 0.06049470 31195.61594118 0 -56.91017818 0 4353.40286226 0 2965.89065797 0 1847.51335415 0 3930
0.06150000 0.06148310 30603.45846067 0 301.22133796 0 5275.06877829 0 215.07636296 0 2020.39456239 0 4083
0.06250000 0.06249100 30816.35638552 0 397.53010936 0 4966.59160028 0 -656.21345276 0 4218.76234780 0 4303
0.06350000 0.06350600 30176.20132639 0 318.24417943 0 6972.82294275 0 492.51023584 0 2899.00878613 0 4470
0.06450000 0.06451750 29925.87203461 0 601.11403101 0 4918.45913385 0 -793.38536176 0 3146.34806481 0 4479
0.06550000 0.06550280 30413.49146332 0 287.25932569 0 3549.23546831 0 -403.70572287 0 410.41976356 0 4636
0.06650000 0.06648880 29002.22776404 0 878.32084275 0 4676.85258704 0 -2034.88376118 0 -2464.80492969 0 4653
0.06750000 0.06749660 28505.95303427 0 1134.22662136 0 2668.94638761 0 -2280.61562681 0 -4663.81343219 0 5220
0.06850000 0.06852730 27299.83121084 0 586.54165140 0 5105.72837503 0 -2154.10210283 0 -4691.52163624 0 5029
0.06950000 0.06949320 27318.60309756 0 362.54470803 0 4590.91781220 0 -793.20438729 0 -5216.20149041 0 5040
0.07050000 0.07048030 27393.80305095 0 -197.15089724 0 6150.89532065 0 1289.80846813 0 -3486.01804860 0 5475
0.07150000 0.07148790 27484.51510235 0 -208.11277983 0 6607.73784766 0 1248.66768645 0 -2426.01344402 0 5509
0.07250000 0.07249820 28411.64397464 0 -486.83145909 0 7618.07001666 0 1642.32651570 0 350.09568734 0 5916
0.07350000 0.07351270 28756.84435859 0 100.11373167 0 7409.47726105 0 413.71327422 0 467.19629040 0 5721
0.07450000 0.07449140 28617.23547651 0 319.40533865 0 8782.19676897 0 -705.17660328 0 1502.26800759 0 6028
0.07550000 0.07549160 27646.60528589 0 670.91060360 0 7647.00345164 0 -1611.94303678 0 578.46861605 0 6183
0.07650000 0.07648840 27732.59626398 0 1121.73151401 0 11239.79644154 0 -1969.86783735 0 12.38955764 0 6330
0.07750000 0.07749960 26333.02284146 0 1244.18266681 0 10118.67641893 0 -1181.42611378 0 -48.95595650 0 6583
0.07850000 0.07848650 25357.78398404 0 1300.02621964 0 11472.32054256 0 -46.81865917 0 -881.66044009 0 6549
0.07950000 0.07947320 24680.30996449 0 793.97774406 0 10567.67297173 0 -246.49173362 0 149.36689098 0 6828
0.08050000 0.08048110 24036.67030363 0 423.97936053 0 10155.33218096 0 1136.95809949 0 -770.17791427 0 7147
0.08150000 0.08149960 24107.26159022 0 -62.89425100 0 10582.33078028 0 1628.97262263 0 -386.45357213 0 7386
0.08250000 0.08250610 23823.43515926 0 32.05024262 0 9583.14933680 0 568.67913333 0 -1209.39285280 0 7227
0.08350000 0.08350160 23901.33286883 0 52.04848433 0 9231.50805998 0 866.51815949 0 -85.12533558 0 7798
0.08450000 0.08449610 23807.13621570 0 264.66674179 0 8226.58264398 0 1496.97366110 0 2257.20135134 0 7371
0.08550000 0.08548940 23690.12104159 0 42.67760344 0 8058.25389929 0 2448.31489507 0 2203.69585386 0 8256
0.08650000 0.08650700 23425.29131037 0 -300.04219370 0 7262.64064055 0 3122.39423810 0 4169.28100328 0 8037
0.08750000 0.08749060 23519.60037000 0 29.79874027 0 6536.15738380 0 2614.02456814 0 3267.71337075 0 8155
0.08850000 0.08849210 23041.98512044 0 515.17588398 0 6205.16518238 0 1366.97553540 0 5641.36786366 0 8718
0.08950000 0.08949900 22438.81180222 0 1119.30016125 0 5980.71186858 0 -225.98316636 0 5604.53225122 0 8571
0.09050000 0.09049190 21211.66996192 0 1154.07761055 0 6122.04057022 0 -1087.80160978 0 5183.86213826 0 8932
0.09150000 0.09150830 20546.22343864 0 1056.77966189 0 6787.44213089 0 -991.84467075 0 5313.34319403 0 9285
0.09250000 0.09250820 19482.18344045 0 565.95215146 0 6569.22737825 0 -622.90628058 0 3590.51113779 0 9204
0.09350000 0.09350330 19355.27649369 0 224.08911671 0 6342.76198798 0 401.97129047 0 4296.52516956 0 9349
0.09450000 0.09448040 19310.98832981 0 -24.40941028 0 5946.58525296 0 798.58191460 0 2654.52463273 0 9564
0.09550000 0.09549270 19061.22107057 0 -70.92839371 0 5320.46976660 0 971.78235732 0 1840.31933768 0 10155
0.09650000 0.09649430 19082.46590045 0 226.21247564 0 5149.99405761 0 63.54958094 0 1609.62746273 0 9913
0.09750000 0.09749140 18709.16388968 0 460.36085069 0 5224.73314432 0 225.91010213 0 1383.63417978 0 10476
0.09850000 0.09850240 18254.25475459 0 708.16324418 0 4319.43361575 0 -502.82128476 0 861.67793528 0 10575
0.09950000 0.09950330 17914.56228950 0 594.88221425 0 5532.86186216 0 -446.67311029 0 1733.67928419 0 10882
0.10050000 0.10051200 17526.08540024 0 655.36590770 0 5493.82308217 0 -57.39678595 0 1130.49472532 0 10875
0.10150000 0.10150300 16965.96377431 0 377.21150910 0 5642.25587507 0 -2.24076752 0 214.11416325 0 11118
0.10250000 0.10250800 16686.97082317 0 544.11493928 0 6009.12823363 0 -155.30869895 0 1263.48286412 0 11575
0.10350000 0.10349800 16475.30936991 0 326.73087073 0 5770.02835193 0 46.71636925 0 219.55239008 0 11364
0.10450000 0.10450100 16252.29485940 0 384.69553436 0 6717.09813862 0 -69.61391201 0 1567.55370704 0 12093
0.10550000 0.10551000 16029.39275541 0 342.88705803 0 6622.81156029 0 -48.10324074 0 976.58323925 0 12067
0.10650000 0.10649700 15787.38154517 0 287.39983382 0 7421.53847928 0 183.73518059 0 2254.67220492 0 12054
0.10750000 0.10749900 15480.73659323 0 224.05764289 0 7413.62506117 0 354.58520324 0 1529.12192219 0 12807
0.10850000 0.10850100 15547.50605857 0 43.22412388 0 7372.96762747 0 521.17614334 0 2198.09800979 0 12736
0.10950000 0.10950300 15294.47901062 0 -144.98078906 0 6433.64264914 0 604.30637582 0 1965.10180144 0 12933
0.11050000 0.11050200 15586.96074264 0 -136.84030980 0 6867.68913646 0 611.83423961 0 1695.79829123 0 13428
0.11150000 0.11150900 15737.02342989 0 -378.85938850 0 6193.03652024 0 317.67315437 0 1393.23369550 0 13453
0.11250000 0.11250000 15770.40816257 0 -99.84609178 0 6472.91748279 0 64.90239326 0 732.19912764 0 13668
0.11350000 0.11349100 16159.78430389 0 29.75771190 0 5700.16770764 0 56.88084008 0 1681.66879326 0 13791
0.11450000 0.11448600 15622.36879244 0 215.78227582 0 5220.37177184 0 731.81244926 0 778.42405564 0 14205
0.11550000 0.11549300 15654.96667956 0 355.28999204 0 5420.84877762 0 542.21751744 0 1669.69750023 0 14776
0.11650000 0.11649800 15151.38552681 0 309.35619690 0 5042.46599272 0 1113.94286712 0 968.48210227 0 14553
0.11750000 0.11747300 14890.49002334 0 501.96587124 0 4403.00785393 0 435.62917095 0 1482.79920053 0 14568
0.11850000 0.11849100 14150.40557922 0 423.46903499 0 4081.51400238 0 232.65224444 0 967.57160956 0 16015
0.11950000 0.11950300 13954.81825650 0 355.78233255 0 3903.20355983 0 -176.26914037 0 637.50114149 0 15270
0.12050000 0.12050700 13746.86621797 0 157.89404862 0 4233.28526854 0 21.63555490 0 898.39552089 0 15999
0.12150000 0.12150000 13655.92935356 0 -59.93852189 0 3679.36848182 0 50.77840321 0 486.48637112 0 15670
0.12250000 0.12250700 13947.39942701 0 -159.58239436 0 3721.29610905 0 386.05677716 0 571.96140334 0 16887
0.12350000 0.12352200 14092.29141494 0 -120.36488803 0 3664.69943262 0 147.93258395 0 28.53293060 0 16407
0.12450000 0.12449800 14138.37808293 0 3.05593951 0 3387.08908152 0 71.99355777 0 -105.03039230 0 16306
0.12550000 0.12549900 14283.49488387 0 166.65276367 0 3734.68372407 0 -221.47454135 0 132.01582251 0 17523
0.12650000 0.12650100 14036.20056779 0 101.23937043 0 3404.19735193 0 -138.50954644 0 344.80021678 0 17154
0.12750000 0.12750600 14015.51777044 0 165.48036380 0 3531.18298324 0 20.50553228 0 -217.73590092 0 18007
0.12850000 0.12850300 13680.09675263 0 254.37592604 0 3376.26433486 0 -340.45008495 0 -239.35167228 0 17496
0.12950000 0.12949900 13651.32068676 0 436.52842301 0 3742.96808366 0 -183.80262449 0 -742.45959363 0 18405
0.13050000 0.13049000 13265.65396018 0 552.27227952 0 3880.37379819 0 -327.33786587 0 -982.58574674 0 18100
0.13150000 0.13148800 12940.12471501 0 413.17821924 0 4196.50585935 0 -339.08322182 0 -274.04818889 0 19059
0.13250000 0.13249300 12403.15882959 0 321.19035399 0 4107.91829094 0 347.37207767 0 -438.71922584 0 18957
0.13350000 0.13349100 12473.18808364 0 27.86692204 0 4133.72682502 0 914.78101746 0 363.88346953 0 19468
0.13450000 0.13450700 12285.35680993 0 -86.66687842 0 3670.21859213 0 1041.98359333 0 242.46420846 0 19953
0.13550000 0.13551000 12468.46701034 0 -60.56934721 0 3405.86096824 0 839.99696815 0 821.35434891 0 19956
0.13650000 0.13649900 12421.14387076 0 -8.38978565 0 3160.47756278 0 274.29548320 0 495.25407869 0 19723
0.13750000 0.13749600 12263.54994751 0 118.64619253 0 2820.71765378 0 -68.50873123 0 309.18871120 0 20946
0.13850000 0.13851100 12274.90300475 0 194.20135048 0 3279.12263124 0 -743.02387429 0 313.16452937 0 20955
0.13950000 0.13949800 12132.93358602 0 65.01940843 0 2934.58544569 0 -338.67855839 0 51.48060666 0 20506
0.14050000 0.14048300 12139.45316344 0 67.03103528 0 3596.43496073 0 -132.51265927 0 255.00877468 0 21447
0.14150000 0.14148400 12123.15421988 0 51.17103914 0 3078.96036368 0 499.39738255 0 -203.84358068 0 21771
0.14250000 0.14249400 12181.94282320 0 67.55338832 0 3303.69469374 0 412.14070718 0 -60.63757796 0 22470
0.14350000 0.14350900 11967.69602027 0 265.56824198 0 2994.07096936 0 355.92508881 0 -169.99573320 0 22519
0.14450000 0.14449900 11689.04028865 0 368.50899730 0 2607.44878747 0 298.65734553 0 246.21633768 0 22218
0.14550000 0.14550500 11377.44945039 0 338.40541058 0 2673.63373897 0 7.28001869 0 149.14994642 0 23559
0.14650000 0.14650700 11090.50935918 0 292.37157364 0 2511.75712779 0 132.56549033 0 185.58539170 0 23044
0.14750000 0.14750500 10849.97067418 0 316.74130443 0 2642.00254781 0 29.87135488 0 297.35230598 0 23649
0.14850000 0.14849900 10517.51718817 0 215.71145972 0 2300.61274446 0 233.94829147 0 215.09659613 0 23640
0.14950000 0.14949500 10343.37702704 0 245.09227260 0 2763.72755458 0 82.23109283 0 615.07941548 0 24457
0.15050000 0.15050000 10152.89295975 0 150.09753328 0 2527.87622094 0 400.48190424 0 462.94957255 0 24591
0.15150000 0.15149900 10086.49443589 0 134.51686730 0 2691.43892973 0 577.82003050 0 784.26020150 0 25020
0.15250000 0.15250500 9925.50583612 0 143.07325063 0 2335.14402351 0 139.23344434 0 660.07236816 0 25297
0.15350000 0.15350100 9834.91743187 0 167.55876012 0 2594.16233830 0 -13.74281958 0 727.35440718 0 25452
0.15450000 0.15450400 9668.67944821 0 139.18286142 0 2181.72038168 0 -182.44250575 0 722.93121111 0 26061
0.15550000 0.15549900 9572.36955275 0 104.17037011 0 2293.81215077 0 -254.29948962 0 485.93670330 0 26128
0.15650000 0.15649500 9426.08372414 0 108.47801229 0 2104.01376318 0 -141.01396342 0 201.42009638 0 26331
0.15750000 0.15749700 9418.06914017 0 120.41434689 0 2296.33005653 0 -226.81272638 0 -295.33011292 0 27345
0.15850000 0.15849900 9217.92935390 0 216.47357584 0 2126.74235895 0 -1.68382700 0 -305.13308442 0 26980
0.15950000 0.15949700 9010.75292028 0 238.03314394 0 2503.76502512 0 47.39474252 0 -429.69635549 0 27777
0.16050000 0.16050000 9012.58514635 0 120.62342299 0 2286.84294732 0 223.83282988 0 -275.62525218 0 28224
0.16150000 0.16150500 8758.06309185 0 49.86847253 0 2358.09743230 0 119.40044019 0 -539.87159363 0 28075
0.16250000 0.16249700 8958.80987325 0 -72.00592249 0 2187.01472817 0 518.93138539 0 -80.81533287 0 28590
0.16350000 0.16349900 8938.84647755 0 -106.30114787 0 2081.16152024 0 198.69985891 0 223.05722498 0 29163
0.16450000 0.16449100 9100.72308873 0 36.44117801 0 2148.04339209 0 104.04795943 0 329.70739505 0 28996
0.16550000 0.16550500 9025.63554185 0 79.00659976 0 1996.60934544 0 -25.27752574 0 221.78703144 0 30777
0.16650000 0.16650700 8916.30897284 0 179.09953623 0 1961.16757369 0 105.88917802 0 276.39973302 0 29211
0.16750000 0.16749900 8798.58563773 0 257.36931133 0 2180.70872311 0 -239.68327147 0 253.01355917 0 30922
0.16850000 0.16850800 8656.99840112 0 156.90599542 0 2047.21475503 0 125.57155745 0 356.32975224 0 30867
0.16950000 0.16949900 8544.61437512 0 109.52541612 0 2402.36311488 0 206.74254450 0 688.97095712 0 30852
0.17050000 0.17049200 8497.14510708 0 20.74023707 0 1996.11475681 0 208.78721887 0 694.27317207 0 31257
0.17150000 0.17149500 8448.06842599 0 46.02484442 0 2259.07854001 0 162.14863492 0 548.99787796 0 32608
0.17250000 0.17250900 8427.50927580 0 134.03239525 0 2273.85999572 0 -194.71617229 0 775.01251814 0 32361
0.17350000 0.17350400 8355.04080054 0 121.44511456 0 2072.93336390 0 -171.10181323 0 723.22234397 0 32508
0.17450000 0.17449800 8234.26000843 0 89.89080946 0 2499.36993069 0 -203.09607741 0 628.39846253 0 32791
0.17550000 0.17549800 8300.10774041 0 77.90243064 0 2348.74521089 0 -251.20269034 0 139.33461020 0 33633
0.17650000 0.17650100 8188.11713718 0 101.51150659 0 2591.41961952 0 41.72394664 0 357.94053749 0 33984
0.17750000 0.17750300 8164.29819828 0 99.32081617 0 2443.75119087 0 44.25736450 0 243.64672492 0 34069
0.17850000 0.17849800 8101.18194443 0 44.83929299 0 2520.14265324 0 377.86796310 0 549.44075960 0 34536
