### header ###
fiducial parameters:
Omega_m = 0.31
Omega_nu = 0
Omega_de = 0.69
Omega_k = 0
H_0 = 100
w_de = -1
zeff = 0
beta = 0
fgrowth = 0
b_1 = 2
gamma = 0.55
Lx = 3500 Ly = 3500 Lz = 3500
nx = 700 ny = 700 nz = 700
xoffset = 857.220397 yoffset = 15.9954215 zoffset = 262.898189
bins = 400 dk = 0.001
kx_ny = 0.628318531 ky_ny = 0.628318531 kz_ny = 0.628318531
############################
A(data) = 3.04016959 (not used)
A(ran) = 3.0366094 (used)
Ngal = 185258
weighted Ngal = 0
Nran = 9360983
weighted Nran = 0
SN(data) = 3454.93778
SN(ran) = 68.1908349
SN(data+ran) = 3523.12861
############################
13 columns: k_central k_mean P_0(k) sigma^{lin}_{P_0(k)} P^img_1(k) sigma^{lin}_{P_1(k)} P_2(k) sigma^{lin}_{P_2(k)} P^img_3(k) sigma^{lin}_{P_3(k)} P_4(k) sigma^{lin}_{P_4(k)} N_modes
### header ###
0.00050000 0 0 0 0 0 0 0 0 0 0 0 0
0.00150000 0.00179520 34449.89673431 0 -49175.82363095 0 -44689.34270469 0 101437.99273312 0 6180.69428574 0 3
0.00250000 0.00253879 57600.24172780 0 -45431.90009198 0 -4824.91443847 0 -61638.33309640 0 -43043.59903117 0 6
0.00350000 0.00331552 84702.68711180 0 -38410.76483239 0 -41692.58521981 0 27764.40730555 0 59795.09118954 0 7
0.00450000 0.00420575 97581.43787382 0 -19791.97577459 0 -31853.86844799 0 -17328.24994737 0 9246.49184741 0 24
0.00550000 0.00557378 106683.44239673 0 4513.55965387 0 -30529.83219839 0 -21100.38751968 0 17751.23563438 0 45
0.00650000 0.00659388 77542.39259616 0 12961.81917092 0 -26744.31825171 0 19129.22700749 0 -15106.64773690 0 40
0.00750000 0.00754703 79924.17407955 0 17282.61290541 0 -6743.36753938 0 -20531.83540571 0 7603.89555609 0 57
0.00850000 0.00846663 67101.17694516 0 8318.96955234 0 -20639.18362019 0 3061.04276641 0 -10105.89579905 0 75
0.00950000 0.00948925 68187.02380577 0 386.72896807 0 11278.75653697 0 -24199.65973923 0 -2043.06695491 0 112
0.01050000 0.01054430 70154.58730973 0 -13247.89373202 0 -8292.79007679 0 -18384.98352259 0 -46716.81887704 0 105
0.01150000 0.01145670 83474.87083246 0 -15273.79621327 0 9001.19836716 0 -28273.15915763 0 -42793.94417843 0 144
0.01250000 0.01249090 99209.08409967 0 -14151.08001826 0 -1279.48955076 0 -30855.47385006 0 -70879.83409489 0 169
0.01350000 0.01339930 112175.96156342 0 -4837.84118681 0 23234.53746747 0 -32023.82708704 0 -62667.41467083 0 180
0.01450000 0.01448870 105149.99282401 0 15050.21967023 0 18215.81172909 0 -32916.22234858 0 -68099.34673007 0 267
0.01550000 0.01550050 95061.62119946 0 18914.98020456 0 53737.72932362 0 -20551.50654449 0 -65985.65476662 0 238
0.01650000 0.01653350 81592.06183502 0 18036.41094343 0 41475.64066070 0 -870.44227066 0 -30516.90545005 0 315
0.01750000 0.01747870 70923.67263274 0 11751.20108719 0 63486.07126356 0 14365.77644722 0 -32123.53165903 0 297
0.01850000 0.01844180 66613.22029693 0 2725.73415511 0 51728.57541196 0 24890.17291363 0 -16752.95344296 0 388
0.01950000 0.01947590 68460.62124456 0 -4631.73261501 0 40098.88575917 0 26088.42628156 0 -21462.22406671 0 399
0.02050000 0.02045430 71089.35982451 0 -6065.85979787 0 26688.78943710 0 19918.99512785 0 -19786.13063621 0 462
0.02150000 0.02154770 77857.69284917 0 -7167.05014673 0 16736.42968639 0 4211.80438500 0 -21388.14817839 0 571
0.02250000 0.02255340 83720.59145744 0 -6433.27170766 0 7472.02024171 0 2351.34180121 0 -27421.45505175 0 510
0.02350000 0.02348930 81413.67270792 0 -461.73558227 0 -1498.76092457 0 -7559.13528488 0 -28628.58853375 0 555
0.02450000 0.02439640 84061.29558109 0 3257.29328753 0 3164.23194012 0 -13318.03539259 0 -34723.49417310 0 592
0.02550000 0.02547300 75184.10407280 0 5946.59649361 0 5519.82270731 0 -8699.84776171 0 -29322.02427734 0 837
0.02650000 0.02652900 74310.25588497 0 7841.41050604 0 10376.17724587 0 57.20636933 0 -23663.25588635 0 723
0.02750000 0.02749970 66435.73042188 0 4517.41519707 0 15193.87518657 0 -1352.07043253 0 -19118.21116978 0 826
0.02850000 0.02848090 65288.50960828 0 2444.11089169 0 17068.81572850 0 6385.43149815 0 -14557.31713568 0 831
0.02950000 0.02946900 66080.30104577 0 -942.63085372 0 16532.29946911 0 6578.36602730 0 -12042.33394113 0 996
0.03050000 0.03053250 63235.17993925 0 1235.15642427 0 17198.19561842 0 2623.14073589 0 -12728.91288777 0 1041
0.03150000 0.03150510 60133.43477654 0 3619.41085082 0 7704.82535900 0 -700.86356560 0 -23020.74029056 0 1036
0.03250000 0.03246190 59101.31822642 0 4910.23097752 0 16698.09906739 0 -3008.38031774 0 -12401.58513849 0 1059
0.03350000 0.03345080 54876.74446219 0 3161.08455792 0 3264.09388122 0 -2056.97163987 0 -17991.78556002 0 1302
0.03450000 0.03451200 53830.57709866 0 -161.93618663 0 10699.88550562 0 3703.90682237 0 -10752.71656406 0 1339
0.03550000 0.03553350 54007.72975418 0 -1773.17893086 0 7875.13245823 0 4580.10430620 0 -12273.89134618 0 1365
0.03650000 0.03647120 54380.02010639 0 -1325.85723502 0 6186.56190542 0 7460.66718447 0 -10074.36577375 0 1308
0.03750000 0.03744890 55859.40214909 0 886.64566868 0 6933.35701803 0 1542.13859574 0 -8381.88347448 0 1579
0.03850000 0.03847530 54380.69454543 0 2254.84081468 0 8045.31591030 0 -2007.19803843 0 -4345.20842787 0 1662
0.03950000 0.03950240 51366.40164541 0 2723.23873065 0 12140.35241550 0 -4386.83255753 0 -2186.94728427 0 1683
0.04050000 0.04050350 50963.31191020 0 2771.71965725 0 12006.92589132 0 -3820.59601761 0 -2565.18394072 0 1822
0.04150000 0.04152450 46740.87386961 0 2191.61215432 0 13297.01537572 0 -1210.55063982 0 -2152.34856132 0 1887
0.04250000 0.04250150 47205.00033829 0 1506.06734754 0 9946.78438795 0 573.66548599 0 -8506.50856914 0 1920
0.04350000 0.04349210 45576.56726689 0 660.54222736 0 8127.41762323 0 3993.81444537 0 -5217.57284980 0 2005
0.04450000 0.04448520 43938.35482936 0 1904.76198832 0 5680.23803389 0 2904.59538954 0 -10486.97634013 0 2151
0.04550000 0.04548030 42896.34650659 0 1529.98745230 0 9376.22019750 0 -284.05911243 0 -6409.93611674 0 2274
0.04650000 0.04648670 40570.20624432 0 2956.13377314 0 11647.56228745 0 -4063.92238398 0 -6806.97838186 0 2311
0.04750000 0.04749250 39734.23904946 0 2703.24161299 0 14099.03580537 0 -4353.95365414 0 545.64928811 0 2568
0.04850000 0.04851840 38463.37107781 0 1036.98375189 0 19082.80311997 0 -3786.23334832 0 2915.08291667 0 2493
0.04950000 0.04949480 38892.08949669 0 80.44101920 0 20553.41745511 0 1740.85081936 0 1030.65863772 0 2644
0.05050000 0.05050630 38691.66869416 0 224.73545413 0 22717.80475336 0 3038.42657714 0 1787.97162722 0 2829
0.05150000 0.05149060 38678.06750677 0 -625.84009042 0 19454.08181362 0 4933.08322045 0 2316.57446850 0 2784
0.05250000 0.05249300 38066.12648098 0 -814.00745960 0 17481.46001684 0 4318.14094091 0 2911.07000436 0 3055
0.05350000 0.05348950 40208.59451031 0 -1395.63919476 0 13567.46543231 0 6337.36647563 0 543.36069162 0 3009
0.05450000 0.05448610 40384.51069425 0 -1403.23787465 0 12724.30422097 0 3057.65933054 0 738.05663074 0 3336
0.05550000 0.05550870 40677.44205230 0 104.47791432 0 10538.17750421 0 -153.83392558 0 -956.88175071 0 3349
0.05650000 0.05647670 40493.20778682 0 1566.95795255 0 11932.62518999 0 -3611.04780668 0 665.26554880 0 3324
0.05750000 0.05747970 40289.30238255 0 1928.69333372 0 14923.31272348 0 -1597.63368840 0 4317.74751814 0 3639
0.05850000 0.05849280 38522.15968114 0 1042.88958978 0 17015.87226356 0 -253.53062911 0 265.82677694 0 3846
0.05950000 0.05951020 38247.77539679 0 468.88126394 0 16748.34477616 0 157.73218325 0 3629.94334056 0 3787
0.06050000 0.06049470 37496.22548892 0 1139.64461501 0 16213.96424041 0 1918.31821310 0 -232.46227744 0 3930
0.06150000 0.06148310 36807.73563165 0 1647.03634836 0 17108.15800606 0 753.70474062 0 3074.77884161 0 4083
0.06250000 0.06249100 34195.85802779 0 2050.64315351 0 13567.12821278 0 799.29906811 0 -560.96692286 0 4303
0.06350000 0.06350600 33470.16161660 0 1386.98389370 0 13799.58486990 0 2663.58459722 0 837.95116972 0 4470
0.06450000 0.06451750 31421.89024040 0 871.04139734 0 11680.27258108 0 1617.15869872 0 -2665.19201027 0 4479
0.06550000 0.06550280 30470.25674951 0 354.14007348 0 10743.43178656 0 1116.53496117 0 -1427.24790462 0 4636
0.06650000 0.06648880 30613.91226585 0 53.58991477 0 9598.93121043 0 2162.22909331 0 -1123.56036788 0 4653
0.06750000 0.06749660 30530.84385695 0 -399.09705607 0 9049.53316530 0 283.56677193 0 -1256.62606717 0 5220
0.06850000 0.06852730 32105.20939833 0 -772.74190670 0 8587.17147878 0 2886.22816624 0 3138.36720279 0 5029
0.06950000 0.06949320 31447.63133057 0 -411.91926636 0 8795.41577422 0 1472.90742788 0 -1398.53928265 0 5040
0.07050000 0.07048030 32935.66867434 0 -141.30509627 0 8002.73632533 0 1795.07571849 0 3754.11880918 0 5475
0.07150000 0.07148790 32215.59258851 0 -31.13379236 0 6753.91126976 0 822.90218652 0 -451.48635694 0 5509
0.07250000 0.07249820 31918.50218969 0 908.88642022 0 8436.95142241 0 -190.82915526 0 2989.12508304 0 5916
0.07350000 0.07351270 30547.03039400 0 1081.31912650 0 5658.27380236 0 -658.15696128 0 -1519.16270564 0 5721
0.07450000 0.07449140 29789.18572172 0 1271.01410011 0 9092.95579907 0 -1480.37121997 0 -12.25062320 0 6028
0.07550000 0.07549160 28716.37801596 0 1585.42634170 0 7978.88366448 0 -1886.22615526 0 -1016.14470950 0 6183
0.07650000 0.07648840 27624.46120395 0 1113.23358205 0 9290.43155112 0 -637.53711157 0 -365.28630274 0 6330
0.07750000 0.07749960 26258.38492061 0 948.49397714 0 7920.80322215 0 323.87686951 0 -1196.93821179 0 6583
0.07850000 0.07848650 26076.62359829 0 689.31042478 0 8851.86632220 0 1072.46598998 0 -958.93654167 0 6549
0.07950000 0.07947320 25378.80400091 0 564.01201514 0 8162.63458197 0 1377.84524465 0 -708.76686713 0 6828
0.08050000 0.08048110 24781.81304059 0 788.36303902 0 8360.58244135 0 1226.26506955 0 11.33743273 0 7147
0.08150000 0.08149960 23579.96266443 0 603.21266050 0 6617.34860403 0 1116.52821678 0 969.48139612 0 7386
0.08250000 0.08250610 22825.04056134 0 550.06798791 0 6506.45958457 0 1132.29322943 0 902.30052296 0 7227
0.08350000 0.08350160 22565.94356199 0 626.36727694 0 5941.35835037 0 1249.39832875 0 1607.12079761 0 7798
0.08450000 0.08449610 21835.97570352 0 460.75427346 0 4997.50338979 0 1729.22798650 0 1160.25996845 0 7371
0.08550000 0.08548940 21485.49221372 0 30.70428710 0 4623.05483264 0 1160.90068554 0 864.91187050 0 8256
0.08650000 0.08650700 21225.38355581 0 -182.54254755 0 3467.07755212 0 438.39999135 0 882.43716905 0 8037
0.08750000 0.08749060 21584.18512714 0 -61.87888302 0 4560.73666499 0 -148.07084395 0 -502.70663012 0 8155
0.08850000 0.08849210 22020.88440804 0 22.63024008 0 3803.46526589 0 -1132.07965707 0 71.56495176 0 8718
0.08950000 0.08949900 21496.62045795 0 423.78152508 0 4606.71092648 0 -1580.62658384 0 -323.60934202 0 8571
0.09050000 0.09049190 21509.77201930 0 688.09081417 0 5422.71472564 0 -563.32071512 0 -170.16883922 0 8932
0.09150000 0.09150830 20613.77974954 0 638.00359858 0 5467.50871881 0 72.99847194 0 -892.14009876 0 9285
0.09250000 0.09250820 20204.17043690 0 633.02511437 0 5758.14698411 0 323.25863372 0 -1093.25782164 0 9204
0.09350000 0.09350330 19879.99006982 0 588.89656773 0 5690.03988133 0 443.27056532 0 -292.79197398 0 9349
0.09450000 0.09448040 19126.97887735 0 591.72359139 0 5874.46523787 0 452.25296932 0 -199.25289892 0 9564
0.09550000 0.09549270 18852.48218650 0 612.88973672 0 6116.79118633 0 -636.93686083 0 833.61789886 0 10155
0.09650000 0.09649430 18373.74287186 0 711.30050980 0 6133.21377705 0 -418.64005143 0 534.45359998 0 9913
0.09750000 0.09749140 18167.36452444 0 608.07536601 0 7495.47947979 0 -306.95182171 0 1665.20123994 0 10476
0.09850000 0.09850240 17740.78182920 0 290.21224464 0 7068.68321218 0 404.77583282 0 2249.02939826 0 10575
0.09950000 0.09950330 17321.61796344 0 122.20610662 0 7923.01763034 0 943.40533455 0 2060.93958958 0 10882
0.10050000 0.10051200 17739.43295111 0 -43.32562696 0 7528.95413767 0 1061.37146771 0 2366.06705367 0 10875
0.10150000 0.10150300 17484.04536651 0 -335.99429100 0 6880.43603439 0 1848.56997531 0 2346.54204335 0 11118
0.10250000 0.10250800 17755.16986214 0 -25.31922855 0 6855.90893450 0 678.92406350 0 3759.42439633 0 11575
0.10350000 0.10349800 17750.56119534 0 -5.68133962 0 5676.39373134 0 657.10258824 0 1754.04734332 0 11364
0.10450000 0.10450100 17596.11465429 0 296.06300334 0 6885.19082965 0 102.77821552 0 3501.84488483 0 12093
0.10550000 0.10551000 17078.93231416 0 513.91580703 0 5105.63844982 0 -118.07966373 0 1779.23764161 0 12067
0.10650000 0.10649700 16745.53461348 0 493.60844742 0 6824.10913358 0 124.83979108 0 3864.58068392 0 12054
0.10750000 0.10749900 16333.00273165 0 340.78280821 0 5408.29297076 0 117.66263559 0 2163.46556489 0 12807
0.10850000 0.10850100 16260.83775396 0 594.07063926 0 6323.59667848 0 57.41994169 0 2396.16951633 0 12736
0.10950000 0.10950300 15578.41784808 0 398.50692191 0 5558.79404339 0 -149.57484302 0 1425.08969968 0 12933
0.11050000 0.11050200 15396.76893227 0 452.38448493 0 6688.56936706 0 -746.00377080 0 2121.20071814 0 13428
0.11150000 0.11150900 15345.51156493 0 216.23527405 0 6424.48151879 0 -843.11287653 0 1245.34045384 0 13453
0.11250000 0.11250000 15148.57536413 0 151.43292258 0 7334.64824913 0 -233.05465974 0 1214.76588385 0 13668
0.11350000 0.11349100 15159.92842137 0 82.28516036 0 7691.31409682 0 -527.61928434 0 1826.48209663 0 13791
0.11450000 0.11448600 15378.44667158 0 -28.38028256 0 8211.77870697 0 130.97718638 0 1332.10703683 0 14205
0.11550000 0.11549300 15311.78961274 0 75.49783063 0 8402.48758727 0 627.36994299 0 2381.81520534 0 14776
0.11650000 0.11649800 15206.12749587 0 189.28693798 0 7660.63836098 0 793.46741852 0 2476.45024385 0 14553
0.11750000 0.11747300 15065.39454872 0 240.02386319 0 7861.73360256 0 1068.13271913 0 2960.15792610 0 14568
0.11850000 0.11849100 14830.12772892 0 210.16532265 0 7341.24651111 0 645.05261065 0 2892.27563634 0 16015
0.11950000 0.11950300 14756.38906012 0 31.31386759 0 6595.73283268 0 988.93221814 0 2141.37768621 0 15270
0.12050000 0.12050700 14287.99114416 0 174.32113560 0 6005.67735386 0 254.66705890 0 1935.14546724 0 15999
0.12150000 0.12150000 14343.63236528 0 238.31303615 0 5869.21585398 0 -335.66156774 0 791.33057081 0 15670
0.12250000 0.12250700 14003.82749368 0 259.19704114 0 5962.16479488 0 -31.46348065 0 1100.79242983 0 16887
0.12350000 0.12352200 13870.85059554 0 246.23207459 0 6022.18986978 0 -15.38260571 0 818.96121437 0 16407
0.12450000 0.12449800 13605.34642527 0 230.55249088 0 5668.88497665 0 437.15003099 0 1196.64595487 0 16306
0.12550000 0.12549900 13522.27801637 0 182.86403016 0 5864.52850263 0 814.40537863 0 1096.57606174 0 17523
0.12650000 0.12650100 13394.58422406 0 162.05308939 0 5541.37103476 0 878.13762015 0 1445.43527750 0 17154
0.12750000 0.12750600 13215.40825141 0 126.75182577 0 5195.51869307 0 809.93272371 0 1923.51139374 0 18007
0.12850000 0.12850300 12992.61855392 0 168.06458940 0 4543.50474742 0 349.30209740 0 2016.47157528 0 17496
0.12950000 0.12949900 13059.61283228 0 55.48295276 0 4582.68965587 0 150.76522793 0 1885.99010160 0 18405
0.13050000 0.13049000 12735.20765218 0 160.39172122 0 4107.56983077 0 -83.42102812 0 1127.22369595 0 18100
0.13150000 0.13148800 12957.77253666 0 111.70677680 0 4549.34988580 0 -277.15173255 0 1168.67921585 0 19059
0.13250000 0.13249300 12584.69533890 0 -25.48424130 0 3906.85677132 0 -100.28335309 0 178.03504660 0 18957
0.13350000 0.13349100 12879.76242058 0 -41.44382962 0 4517.05549625 0 159.20470850 0 382.11805314 0 19468
0.13450000 0.13450700 12789.83721474 0 -67.29586502 0 4116.75344242 0 257.51993605 0 165.97382837 0 19953
0.13550000 0.13551000 12928.20962523 0 34.28263585 0 4204.70029374 0 540.94957204 0 -120.52338120 0 19956
0.13650000 0.13649900 12826.14451660 0 230.98300781 0 4149.07031327 0 219.60522114 0 869.63968819 0 19723
0.13750000 0.13749600 12651.46480424 0 373.57178639 0 3864.27718635 0 421.28497655 0 395.11224539 0 20946
0.13850000 0.13851100 12165.41906663 0 327.94935727 0 4003.69497736 0 254.71876589 0 1059.03790862 0 20955
0.13950000 0.13949800 12084.71119438 0 355.92059255 0 4012.73246055 0 176.80869161 0 1146.69250302 0 20506
0.14050000 0.14048300 11604.39818865 0 434.27017628 0 4070.02605733 0 168.75251723 0 1089.02234445 0 21447
0.14150000 0.14148400 11316.41271692 0 398.42374109 0 4027.89609839 0 -202.90723448 0 776.18604208 0 21771
0.14250000 0.14249400 11008.34020233 0 319.21874385 0 4175.13738231 0 -340.05216591 0 771.22217072 0 22470
0.14350000 0.14350900 10808.31282258 0 4.97301001 0 3885.91543901 0 88.56171491 0 556.94839022 0 22519
0.14450000 0.14449900 10953.33969831 0 -86.31010017 0 3958.15910125 0 106.18143494 0 685.41216710 0 22218
0.14550000 0.14550500 11013.29732931 0 -176.84578576 0 3574.76298612 0 148.29678103 0 -98.65087338 0 23559
0.14650000 0.14650700 11181.28885448 0 56.11962321 0 3788.70629148 0 428.99156669 0 -165.41067177 0 23044
0.14750000 0.14750500 10940.15441500 0 164.84751517 0 3439.66160498 0 89.45163723 0 2.10658787 0 23649
0.14850000 0.14849900 10848.92529367 0 153.56302590 0 3613.91417262 0 234.03259635 0 16.63650030 0 23640
0.14950000 0.14949500 10725.26689498 0 166.49876676 0 3439.24570091 0 269.75763250 0 375.56025751 0 24457
0.15050000 0.15050000 10536.80614482 0 234.92173182 0 3127.67734395 0 349.54601952 0 39.28348896 0 24591
0.15150000 0.15149900 10425.92836601 0 116.61275881 0 3425.83560459 0 30.36717998 0 510.27046400 0 25020
0.15250000 0.15250500 10247.87645843 0 265.54126441 0 3102.75682128 0 39.65712819 0 592.00348359 0 25297
0.15350000 0.15350100 10034.86612708 0 134.33589282 0 2997.47688653 0 183.61602969 0 406.30680945 0 25452
0.15450000 0.15450400 9920.22273027 0 122.74790598 0 3033.13223065 0 257.05569718 0 379.17862298 0 26061
0.15550000 0.15549900 9817.50566389 0 86.94373565 0 2645.17241132 0 250.85985049 0 282.96539711 0 26128
0.15650000 0.15649500 9752.32113030 0 125.45015842 0 2322.91419551 0 196.58099624 0 222.02758137 0 26331
0.15750000 0.15749700 9710.07876486 0 32.63790384 0 2291.24928240 0 271.73935923 0 -121.18095927 0 27345
0.15850000 0.15849900 9513.77204049 0 71.06361873 0 1904.67206311 0 289.50071145 0 237.85666573 0 26980
0.15950000 0.15949700 9548.93279598 0 23.66404273 0 2049.75514210 0 183.93076791 0 53.75009404 0 27777
0.16050000 0.16050000 9514.42399823 0 -12.24219271 0 2138.89350239 0 114.66812624 0 465.80807003 0 28224
0.16150000 0.16150500 9649.25560375 0 105.36794904 0 2206.70834825 0 58.34291152 0 673.61173197 0 28075
0.16250000 0.16249700 9577.76506510 0 140.44069023 0 2265.86789305 0 -148.73516641 0 733.18718084 0 28590
0.16350000 0.16349900 9469.09045383 0 221.72970412 0 2499.99940713 0 -196.75972259 0 1225.29837358 0 29163
0.16450000 0.16449100 9304.83082470 0 255.63600299 0 2891.67988185 0 -90.74453688 0 1026.36358508 0 28996
0.16550000 0.16550500 9176.26026164 0 146.48141594 0 2413.92974448 0 94.62379785 0 715.92266538 0 30777
0.16650000 0.16650700 9068.35001462 0 49.99830204 0 2641.99130716 0 10.72463742 0 379.42142103 0 29211
0.16750000 0.16749900 8986.69792771 0 78.98445568 0 2333.44668525 0 -49.62724816 0 -123.43583381 0 30922
0.16850000 0.16850800 8929.49425614 0 149.22413471 0 2328.32094851 0 -174.07046909 0 -104.73555003 0 30867
0.16950000 0.16949900 8654.50297666 0 184.95141900 0 2159.12667371 0 -66.86411162 0 -406.89694362 0 30852
0.17050000 0.17049200 8593.09530172 0 193.90010104 0 2164.22992914 0 99.09049523 0 -394.91890620 0 31257
0.17150000 0.17149500 8494.68340457 0 109.80620758 0 2234.57392142 0 246.36921053 0 -184.79629802 0 32608
0.17250000 0.17250900 8355.77144283 0 99.53663666 0 2217.80287053 0 329.93670432 0 260.99891745 0 32361
0.17350000 0.17350400 8361.43673080 0 61.42936940 0 2179.58465804 0 149.13982983 0 -48.88469078 0 32508
0.17450000 0.17449800 8274.19804048 0 97.79085120 0 2151.52799382 0 152.26922700 0 385.52509438 0 32791
0.17550000 0.17549800 8243.20756641 0 87.42787048 0 2339.77517161 0 -155.06927309 0 343.12648389 0 33633
0.17650000 0.17650100 8255.41491311 0 85.40781313 0 2449.43896014 0 9.36438379 0 545.18392517 0 33984
0.17750000 0.17750300 8190.46643318 0 108.21441903 0 2415.76197055 0 -105.23272401 0 302.57583638 0 34069
