### header ###
fiducial parameters:
Omega_m = 0.31
Omega_nu = 0
Omega_de = 0.69
Omega_k = 0
H_0 = 100
w_de = -1
zeff = 0
beta = 0
fgrowth = 0
b_1 = 2
gamma = 0.55
Lx = 3500 Ly = 3500 Lz = 3500
nx = 700 ny = 700 nz = 700
xoffset = 857.220397 yoffset = 15.9954215 zoffset = 262.898189
bins = 400 dk = 0.001
kx_ny = 0.628318531 ky_ny = 0.628318531 kz_ny = 0.628318531
############################
A(data) = 3.07517591 (not used)
A(ran) = 3.07514395 (used)
Ngal = 187458
weighted Ngal = 0
Nran = 9360983
weighted Nran = 0
SN(data) = 3443.59362
SN(ran) = 69.0561762
SN(data+ran) = 3512.6498
############################
13 columns: k_central k_mean P_0(k) sigma^{lin}_{P_0(k)} P^img_1(k) sigma^{lin}_{P_1(k)} P_2(k) sigma^{lin}_{P_2(k)} P^img_3(k) sigma^{lin}_{P_3(k)} P_4(k) sigma^{lin}_{P_4(k)} N_modes
### header ###
0.00050000 0 0 0 0 0 0 0 0 0 0 0 0
0.00150000 0.00179520 3852.66559414 0 -11826.85066661 0 -11810.10209702 0 20063.88711578 0 6680.45361724 0 3
0.00250000 0.00253879 9723.99469046 0 -13986.51689156 0 -7322.67695610 0 -11106.65093363 0 -60.28214859 0 6
0.00350000 0.00331552 18569.21778808 0 -14363.64072358 0 -16908.29923606 0 -1950.48895549 0 -10939.15399708 0 7
0.00450000 0.00420575 27471.36354099 0 -14883.52081989 0 -19660.34775453 0 -14241.00522411 0 -10320.90696623 0 24
0.00550000 0.00557378 37056.60363883 0 -6225.85922037 0 -27820.83537222 0 -26136.31145367 0 -17648.15886718 0 45
0.00650000 0.00659388 40660.58107620 0 -6482.79801478 0 -28416.36504795 0 -24997.18390859 0 -23681.12852101 0 40
0.00750000 0.00754703 35635.33576040 0 1086.36055835 0 -28566.87736123 0 -30584.46176094 0 -21632.85714481 0 57
0.00850000 0.00846663 38307.12603265 0 -1006.56317881 0 -28827.54805169 0 -23505.54955659 0 -29572.46597563 0 75
0.00950000 0.00948925 36454.77919869 0 -4906.22930586 0 -18651.16213190 0 -14041.59608014 0 -24893.65751536 0 112
0.01050000 0.01054430 44818.04815556 0 -8511.08351398 0 -25160.96018974 0 -14230.21419941 0 -21902.74516886 0 105
0.01150000 0.01145670 52023.19286762 0 -11773.34516913 0 -10051.51353081 0 -3368.99163384 0 -11002.98965259 0 144
0.01250000 0.01249090 64893.51314159 0 -11519.30646261 0 -9177.35060476 0 -2869.62572511 0 -6936.87534171 0 169
0.01350000 0.01339930 76268.93927485 0 -9638.37465384 0 3662.20400816 0 3306.35872797 0 -462.55614978 0 180
0.01450000 0.01448870 85120.16487995 0 965.98667780 0 15620.79510134 0 -8088.67110016 0 11489.63114468 0 267
0.01550000 0.01550050 84136.27072147 0 6126.10968579 0 26779.05186247 0 -10434.83096139 0 -16981.02624629 0 238
0.01650000 0.01653350 76100.21710738 0 11346.65006738 0 38844.09191807 0 -13569.93837547 0 7907.75282665 0 315
0.01750000 0.01747870 74884.42832431 0 6728.45119586 0 41877.15670481 0 -8683.24532058 0 -16896.83377232 0 297
0.01850000 0.01844180 64904.19175979 0 3399.90342335 0 39819.44318200 0 -3601.34712510 0 -12912.36030770 0 388
0.01950000 0.01947590 68113.50994999 0 457.22358507 0 49378.71737665 0 -1466.98360495 0 -30577.15533796 0 399
0.02050000 0.02045430 66937.40066401 0 -210.25862005 0 39995.92139848 0 4478.89348702 0 -30277.70440249 0 462
0.02150000 0.02154770 65357.97682980 0 306.15935583 0 31818.34799168 0 6295.43884840 0 -31363.21404358 0 571
0.02250000 0.02255340 66587.47920675 0 1423.99935655 0 24947.16301284 0 15690.26232285 0 -18753.22724054 0 510
0.02350000 0.02348930 64013.70740888 0 -215.12132556 0 19429.68960153 0 13477.09060043 0 -12146.75958642 0 555
0.02450000 0.02439640 65394.05931864 0 -36.14835906 0 2612.20358272 0 19854.47379266 0 -10069.04894595 0 592
0.02550000 0.02547300 65459.25509288 0 -1578.92924558 0 4118.20348636 0 19182.50769196 0 21942.64947895 0 837
0.02650000 0.02652900 63358.04025174 0 376.06159053 0 -2011.09854423 0 11228.98293553 0 19327.51208639 0 723
0.02750000 0.02749970 65242.08572076 0 1490.06066090 0 4479.05085613 0 7161.45230267 0 38106.59282361 0 826
0.02850000 0.02848090 62176.08582738 0 3367.41794274 0 9506.12839799 0 -3169.80730289 0 37534.33129490 0 831
0.02950000 0.02946900 61878.09617650 0 5037.57630965 0 14339.24851150 0 -3311.10228257 0 50159.15575690 0 996
0.03050000 0.03053250 56876.34382073 0 4825.54391491 0 29813.35312079 0 -9972.82897569 0 45647.27095999 0 1041
0.03150000 0.03150510 56387.37551393 0 3192.11999459 0 38319.15352893 0 -7390.00845398 0 45008.01515292 0 1036
0.03250000 0.03246190 53750.20644593 0 1871.57958736 0 42183.23962422 0 -351.22874494 0 41857.14834651 0 1059
0.03350000 0.03345080 57266.16958808 0 -748.95106943 0 47580.88769873 0 2918.58999970 0 28466.94797624 0 1302
0.03450000 0.03451200 56632.42169986 0 -598.51744069 0 43408.13333438 0 2375.32934987 0 26330.32508529 0 1339
0.03550000 0.03553350 57675.44168119 0 491.35919321 0 43084.96462586 0 6787.89175692 0 14253.93197245 0 1365
0.03650000 0.03647120 55676.62916821 0 1668.66336036 0 36732.08605223 0 7540.43084206 0 12827.83061421 0 1308
0.03750000 0.03744890 53168.50277060 0 3844.39247520 0 31823.74350403 0 6190.60853968 0 7163.61050761 0 1579
0.03850000 0.03847530 49233.71298222 0 4492.57335896 0 27141.33803553 0 3998.02968940 0 9066.89997068 0 1662
0.03950000 0.03950240 44483.97601584 0 3290.52065109 0 24179.31416141 0 737.48897787 0 2166.79279751 0 1683
0.04050000 0.04050350 42300.92923737 0 2295.71182074 0 20705.61586601 0 2203.49352215 0 2605.65028335 0 1822
0.04150000 0.04152450 42840.14325294 0 87.33839490 0 23767.79393814 0 -1332.41053440 0 -688.08519385 0 1887
0.04250000 0.04250150 42338.47301081 0 -676.73663287 0 21409.50541478 0 -116.77237605 0 -900.86509186 0 1920
0.04350000 0.04349210 43432.86276598 0 -717.57504104 0 25900.37019483 0 -1313.39135336 0 723.06722299 0 2005
0.04450000 0.04448520 44269.50439989 0 -415.73434322 0 22027.51639197 0 1174.25457861 0 -1733.04980775 0 2151
0.04550000 0.04548030 45830.26875389 0 -635.83977331 0 26310.87875952 0 3370.82385991 0 1020.12502392 0 2274
0.04650000 0.04648670 46268.31691288 0 -230.94254146 0 23722.49411570 0 380.99623620 0 -111.18734633 0 2311
0.04750000 0.04749250 46100.60640397 0 551.02456729 0 24217.19515437 0 1911.59630396 0 -370.44913362 0 2568
0.04850000 0.04851840 45549.02767260 0 2800.38331661 0 24569.25233526 0 -1192.58807996 0 -174.30315056 0 2493
0.04950000 0.04949480 43389.13663464 0 2934.15830096 0 23988.11069247 0 -698.38500211 0 696.13462384 0 2644
0.05050000 0.05050630 39293.83035382 0 3543.43529253 0 25441.75164500 0 3213.37606512 0 3331.13312218 0 2829
0.05150000 0.05149060 37102.01586778 0 1499.81754573 0 23635.26666603 0 1016.50328625 0 4232.49842299 0 2784
0.05250000 0.05249300 36416.33617319 0 482.89610727 0 22399.58193117 0 7812.49955235 0 3853.84586247 0 3055
0.05350000 0.05348950 35686.36831472 0 -93.53424158 0 21618.58151838 0 3567.98487373 0 4686.18232715 0 3009
0.05450000 0.05448610 35666.13514341 0 338.93372117 0 20156.95970383 0 3683.25774698 0 5272.78692619 0 3336
0.05550000 0.05550870 35448.51614525 0 731.63597104 0 20015.10269160 0 -538.96447312 0 4839.57224702 0 3349
0.05650000 0.05647670 34308.15212859 0 902.39606849 0 18036.41094343 0 1135.27200188 0 4788.83194962 0 3324
0.05750000 0.05747970 34438.76849009 0 658.84826130 0 19138.55674760 0 1974.16176593 0 6414.70215265 0 3639
0.05850000 0.05849280 33825.70339922 0 34.57995106 0 16624.58521161 0 3243.20875216 0 5975.59737250 0 3846
0.05950000 0.05951020 33259.73663492 0 361.89162622 0 16572.65340524 0 5193.16939707 0 5718.54617158 0 3787
0.06050000 0.06049470 34145.49991252 0 -92.38454782 0 14749.86948270 0 1341.41429563 0 4649.83006268 0 3930
0.06150000 0.06148310 32922.17989346 0 117.56371787 0 13568.13987135 0 118.70127172 0 7023.09113282 0 4083
0.06250000 0.06249100 34121.55732646 0 298.52920211 0 17097.81660739 0 -2084.03912683 0 4619.05316098 0 4303
0.06350000 0.06350600 34405.38375742 0 61.92339600 0 17601.73497966 0 -3679.99795826 0 4909.48909457 0 4470
0.06450000 0.06451750 34080.41654478 0 484.90481156 0 18476.14520002 0 -1085.26459491 0 1185.51771065 0 4479
0.06550000 0.06550280 34420.44622940 0 448.94259768 0 20645.36597809 0 -398.03144238 0 1932.36902651 0 4636
0.06650000 0.06648880 33004.12423729 0 1053.51650098 0 18857.76529234 0 841.52569665 0 -288.58235028 0 4653
0.06750000 0.06749660 32825.73511019 0 1127.67332198 0 19140.80487775 0 3372.67856728 0 -640.06400986 0 5220
0.06850000 0.06852730 30776.00244940 0 940.89192505 0 17215.05659451 0 3734.07672893 0 1524.37836758 0 5029
0.06950000 0.06949320 30698.77917887 0 576.66111941 0 14890.26521033 0 4293.08553043 0 -126.50565552 0 5040
0.07050000 0.07048030 29486.69981055 0 156.70029152 0 12953.72590239 0 3513.91734371 0 2842.06364952 0 5475
0.07150000 0.07148790 29323.48556194 0 246.20397296 0 10476.16283413 0 2633.17863699 0 876.29078123 0 5509
0.07250000 0.07249820 29369.01019740 0 132.54525716 0 11142.64349727 0 -526.79984090 0 3007.28997462 0 5916
0.07350000 0.07351270 28934.10942062 0 250.74294773 0 10206.17364422 0 -466.91639819 0 1215.91243022 0 5721
0.07450000 0.07449140 29491.75810338 0 313.02514530 0 11203.61278683 0 -2340.05618788 0 1991.82082823 0 6028
0.07550000 0.07549160 28387.70138858 0 270.71196375 0 11664.64807656 0 -1626.60084533 0 -1207.04355680 0 6183
0.07650000 0.07648840 29082.71082328 0 406.94977467 0 12779.15859654 0 -1213.51817162 0 -1238.05651216 0 6330
0.07750000 0.07749960 28544.05884025 0 403.93165995 0 13444.82993283 0 -902.55568573 0 -1644.93434667 0 6583
0.07850000 0.07848650 28421.76056030 0 502.27049287 0 13623.10665342 0 229.68583671 0 -1014.86777157 0 6549
0.07950000 0.07947320 28218.64200159 0 732.06423983 0 15086.63937860 0 1026.30625776 0 407.45785209 0 6828
0.08050000 0.08048110 27707.30479983 0 885.14841401 0 14359.93130884 0 2084.35386505 0 830.52784398 0 7147
0.08150000 0.08149960 26359.77559020 0 1013.85161675 0 12978.11811448 0 2167.38855200 0 1589.27064425 0 7386
0.08250000 0.08250610 25600.13241380 0 1166.15006944 0 13098.05585778 0 2905.21362533 0 2124.26941579 0 7227
0.08350000 0.08350160 24354.66831281 0 558.06795904 0 10525.55425344 0 2262.03483115 0 3035.89743073 0 7798
0.08450000 0.08449610 23832.20286683 0 454.74277345 0 10208.06207354 0 2330.22061849 0 3571.33458765 0 7371
0.08550000 0.08548940 23100.77372377 0 87.77835396 0 8475.58553898 0 1577.50168294 0 2377.79105238 0 8256
0.08650000 0.08650700 22929.01658060 0 214.50533790 0 7924.26534257 0 2293.32880279 0 4170.51747486 0 8037
0.08750000 0.08749060 22926.43123093 0 292.83918471 0 6693.20051517 0 972.29380693 0 3363.25890197 0 8155
0.08850000 0.08849210 22137.00033009 0 541.42280343 0 6773.00913536 0 679.96269963 0 4295.71584270 0 8718
0.08950000 0.08949900 21794.38529581 0 574.36690260 0 7282.93001512 0 286.40278811 0 3566.48986718 0 8571
0.09050000 0.09049190 21246.62838569 0 344.33260571 0 7063.43382829 0 -930.59661304 0 3063.14476810 0 8932
0.09150000 0.09150830 21250.56261345 0 391.95137440 0 7518.90499591 0 58.80602633 0 3214.71370256 0 9285
0.09250000 0.09250820 20912.10661994 0 216.87037081 0 6808.97921769 0 -542.19391207 0 1781.84547258 0 9204
0.09350000 0.09350330 20472.70958286 0 276.02879155 0 6427.23547822 0 425.65196936 0 1013.23562909 0 9349
0.09450000 0.09448040 20531.61059269 0 644.11064412 0 6463.81255570 0 -141.97841125 0 221.87470852 0 9564
0.09550000 0.09549270 19466.44652942 0 580.32557155 0 5995.51580559 0 -331.93304389 0 713.69364434 0 10155
0.09650000 0.09649430 19254.22304362 0 569.23442147 0 7015.54865618 0 60.58924316 0 319.92915298 0 9913
0.09750000 0.09749140 19173.96479740 0 129.21352828 0 6633.59134434 0 198.24686068 0 1808.49705546 0 10476
0.09850000 0.09850240 19115.85063312 0 -247.38424129 0 7091.88391529 0 715.10434601 0 1295.01288942 0 10575
0.09950000 0.09950330 19514.55651455 0 -123.94728342 0 7005.82549330 0 784.73006070 0 2169.91769841 0 10882
0.10050000 0.10051200 19414.85194257 0 167.90384810 0 7609.49340015 0 562.22812387 0 2339.13445452 0 10875
0.10150000 0.10150300 19251.30047443 0 571.16331714 0 6726.04569660 0 434.57142572 0 2179.21371657 0 11118
0.10250000 0.10250800 18670.94567719 0 728.23455013 0 7044.21231554 0 21.95816158 0 2441.78407699 0 11575
0.10350000 0.10349800 18012.46835737 0 741.42320563 0 6186.01111353 0 309.41464828 0 1376.67621698 0 11364
0.10450000 0.10450100 17432.45077965 0 593.24445143 0 7117.38895180 0 172.66988401 0 1729.58768733 0 12093
0.10550000 0.10551000 16866.48401534 0 468.48446897 0 6097.16501015 0 -77.17628460 0 99.59654933 0 12067
0.10650000 0.10649700 16590.41363339 0 498.17889601 0 6834.49549485 0 -586.84065271 0 489.39545153 0 12054
0.10750000 0.10749900 16109.53859512 0 531.22078883 0 6519.02663209 0 -640.35177052 0 -699.61135711 0 12807
0.10850000 0.10850100 15897.20270281 0 216.23302592 0 7157.39442775 0 -464.79865960 0 -242.28660618 0 12736
0.10950000 0.10950300 15757.48141423 0 43.58562321 0 7243.84627252 0 138.00371715 0 -331.95552519 0 12933
0.11050000 0.11050200 15808.28915553 0 -18.14387156 0 6648.35031875 0 834.27660099 0 -206.71107068 0 13428
0.11150000 0.11150900 15837.85206695 0 11.47164610 0 7120.65998116 0 1197.10682155 0 399.60962975 0 13453
0.11250000 0.11250000 15728.36812883 0 22.80447017 0 5905.09601111 0 1278.91627757 0 328.81938364 0 13668
0.11350000 0.11349100 15698.69281090 0 -13.74034664 0 5550.65581226 0 1394.43644513 0 1629.23115760 0 13791
0.11450000 0.11448600 15762.42730055 0 -94.52060868 0 5008.92389094 0 1464.51066179 0 1577.13074146 0 14205
0.11550000 0.11549300 15629.78762192 0 160.42094691 0 4490.92098330 0 774.52242577 0 1643.09087995 0 14776
0.11650000 0.11649800 15406.43589190 0 216.74222739 0 4118.75427825 0 206.37947149 0 2284.96575864 0 14553
0.11750000 0.11747300 15267.95107489 0 307.65548644 0 4100.46573951 0 30.94090280 0 2634.12285165 0 14568
0.11850000 0.11849100 14862.83802255 0 160.37486024 0 3850.77716482 0 483.90439364 0 1952.81577019 0 16015
0.11950000 0.11950300 14872.84220170 0 11.54324905 0 3791.53893547 0 550.90878859 0 2150.06670922 0 15270
0.12050000 0.12050700 14782.80458934 0 -22.67823766 0 3179.03587714 0 872.41612892 0 1934.83072902 0 15999
0.12150000 0.12150000 14865.42337221 0 -1.42401060 0 3307.05564831 0 239.38427016 0 1746.56106993 0 15670
0.12250000 0.12250700 14523.81999650 0 113.52720019 0 2482.52019524 0 164.91046281 0 1637.58296109 0 16887
0.12350000 0.12352200 14620.37718628 0 110.97366156 0 3174.14619407 0 -549.21931878 0 1304.43255473 0 16407
0.12450000 0.12449800 14299.23179489 0 285.11910579 0 2706.84986188 0 -487.05852024 0 1139.95935323 0 16306
0.12550000 0.12549900 14377.80394350 0 296.46766677 0 3938.61160963 0 -888.43180809 0 753.32817882 0 17523
0.12650000 0.12650100 14139.83936753 0 274.33932174 0 3419.16989870 0 -838.34346843 0 533.03840205 0 17154
0.12750000 0.12750600 14028.89414481 0 277.88911924 0 4211.95051346 0 -297.15559459 0 667.61709293 0 18007
0.12850000 0.12850300 13920.64667827 0 203.22197270 0 4541.77368721 0 -350.59477223 0 556.93827364 0 17496
0.12950000 0.12949900 13717.75293258 0 264.12044616 0 4649.61649032 0 267.00816933 0 668.95248224 0 18405
0.13050000 0.13049000 13622.99424692 0 273.78290953 0 5067.22914628 0 391.67597846 0 1001.37561850 0 18100
0.13150000 0.13148800 13313.42672579 0 250.57433797 0 4254.85607730 0 541.01701594 0 497.79446575 0 19059
0.13250000 0.13249300 13254.75052897 0 298.49772829 0 4941.36758004 0 227.94128772 0 923.94214781 0 18957
0.13350000 0.13349100 12893.02638845 0 107.92182489 0 4344.21925061 0 120.76168300 0 173.95581445 0 19468
0.13450000 0.13450700 12896.17377065 0 279.97875621 0 4041.28371341 0 -364.26452759 0 134.38759981 0 19953
0.13550000 0.13551000 12641.68543810 0 114.38935810 0 4139.22350323 0 -287.16040796 0 345.26333159 0 19956
0.13650000 0.13649900 12515.67774341 0 195.73345118 0 3932.76647125 0 325.82037802 0 -247.84173577 0 19723
0.13750000 0.13749600 12518.60031260 0 134.95188048 0 4297.46938422 0 157.34887706 0 -194.58915293 0 20946
0.13850000 0.13851100 12307.95051790 0 58.21870233 0 3873.69685166 0 541.17550912 0 -398.79018631 0 20955
0.13950000 0.13949800 12268.83305335 0 89.39509676 0 4229.76694487 0 237.48572425 0 -103.31641788 0 20506
0.14050000 0.14048300 12243.31677620 0 84.81936507 0 4321.43445158 0 -27.35120098 0 598.39042134 0 21447
0.14150000 0.14148400 12194.98197805 0 169.91817271 0 4803.42231427 0 19.34471028 0 1134.73245064 0 21771
0.14250000 0.14249400 11991.18898030 0 187.13322930 0 4659.40709711 0 244.63815031 0 1708.99481519 0 22470
0.14350000 0.14350900 11941.05567804 0 277.97230006 0 4899.75469104 0 430.11450770 0 2134.84686813 0 22519
0.14450000 0.14449900 11636.65885624 0 278.53882885 0 4469.12536153 0 633.76250106 0 1874.42347200 0 22218
0.14550000 0.14550500 11460.06823326 0 335.95719685 0 4466.97839724 0 293.14830261 0 2161.79070793 0 23559
0.14650000 0.14650700 10994.99754992 0 229.06872499 0 3774.13840814 0 490.80278100 0 1591.96840043 0 23044
0.14750000 0.14750500 11033.54174127 0 58.90831625 0 3888.07364395 0 -168.10393168 0 1580.53665863 0 23649
0.14850000 0.14849900 10775.88354522 0 42.48201612 0 3251.27953938 0 -38.05926968 0 579.93214877 0 23640
0.14950000 0.14949500 10951.55243484 0 173.80631380 0 3649.50207283 0 -179.06356614 0 573.83634388 0 24457
0.15050000 0.15050000 10448.12865120 0 206.27493343 0 3120.29223642 0 -49.39130691 0 -360.84624570 0 24591
0.15150000 0.15149900 10508.95181231 0 290.97436076 0 3052.97197919 0 297.95705299 0 49.74448815 0 25020
0.15250000 0.15250500 10123.70098980 0 166.55609408 0 2942.45390120 0 569.72788604 0 -315.00799609 0 25297
0.15350000 0.15350100 9931.31725254 0 118.43037204 0 2587.97998040 0 637.97324882 0 -56.20595141 0 25452
0.15450000 0.15450400 10022.72622429 0 -36.84044593 0 2279.72761540 0 476.81603929 0 217.31662465 0 26061
0.15550000 0.15549900 9831.19677648 0 27.19821573 0 2497.72879568 0 155.16257050 0 459.77296465 0 26128
0.15650000 0.15649500 9926.24771906 0 169.05938699 0 2488.66883119 0 -27.18888599 0 801.16051988 0 26331
0.15750000 0.15749700 9672.95089549 0 225.71676294 0 2621.61200739 0 -289.69629877 0 733.47718963 0 27345
0.15850000 0.15849900 9583.55400023 0 419.93722253 0 2894.80478275 0 -454.86304842 0 1111.86896706 0 26980
0.15950000 0.15949700 9263.27413895 0 264.76565951 0 3161.72527501 0 -83.41641945 0 579.95912634 0 27777
0.16050000 0.16050000 9022.07225556 0 169.78103677 0 3173.95510301 0 -12.88942938 0 754.63209430 0 28224
0.16150000 0.16150500 9064.93285680 0 54.15003639 0 3183.22863986 0 116.53182613 0 300.59410965 0 28075
0.16250000 0.16249700 8981.05512105 0 -62.51049519 0 2881.68694335 0 351.64015275 0 28.63600736 0 28590
0.16350000 0.16349900 9022.17342142 0 -29.77344881 0 2819.64979196 0 279.35714823 0 258.61702356 0 29163
0.16450000 0.16449100 9000.16422729 0 80.59051985 0 2485.25167337 0 55.06659905 0 -61.73747564 0 28996
0.16550000 0.16550500 9000.25415250 0 64.56056507 0 2532.23759342 0 77.27486511 0 337.74446032 0 30777
0.16650000 0.16650700 8932.03464321 0 77.44223840 0 2374.28396935 0 -35.95783003 0 281.57942488 0 29211
0.16750000 0.16749900 8967.52137757 0 100.54672154 0 2604.64986543 0 134.77765039 0 1098.99504977 0 30922
0.16850000 0.16850800 8767.31414740 0 122.52421703 0 2594.83677734 0 70.48067859 0 594.62480334 0 30867
0.16950000 0.16949900 8726.26329093 0 202.53292081 0 2744.67465159 0 203.76602019 0 1218.71135225 0 30852
0.17050000 0.17049200 8627.26687994 0 158.57748019 0 2407.69118332 0 255.08970736 0 872.56000925 0 31257
0.17150000 0.17149500 8489.15300441 0 158.23239221 0 2675.49968699 0 -39.23380528 0 877.96901039 0 32608
0.17250000 0.17250900 8343.56409614 0 59.83904213 0 2371.93467335 0 65.38810177 0 992.13018327 0 32361
0.17350000 0.17350400 8312.66354728 0 31.17279742 0 2389.39140393 0 0.23757003 0 583.50779977 0 32508
0.17450000 0.17449800 8410.61457775 0 -28.49696051 0 2051.91334704 0 234.72164824 0 796.52037925 0 32791
0.17550000 0.17549800 8405.73613533 0 -59.39233867 0 2135.52130718 0 269.31362680 0 541.65660897 0 33633
0.17650000 0.17650100 8565.51074482 0 -69.85558600 0 1954.29953609 0 227.36576640 0 758.16615489 0 33984
0.17750000 0.17750300 8503.90073817 0 45.54812842 0 1845.10785489 0 146.31617837 0 453.31858300 0 34069
