### header ###
fiducial parameters:
Omega_m = 0.31
Omega_nu = 0
Omega_de = 0.69
Omega_k = 0
H_0 = 100
w_de = -1
zeff = 0
beta = 0
fgrowth = 0
b_1 = 2
gamma = 0.55
Lx = 3500 Ly = 3500 Lz = 3500
nx = 700 ny = 700 nz = 700
xoffset = 857.220397 yoffset = 15.9954215 zoffset = 262.898189
bins = 400 dk = 0.001
kx_ny = 0.628318531 ky_ny = 0.628318531 kz_ny = 0.628318531
############################
A(data) = 3.12830115 (not used)
A(ran) = 3.13508059 (used)
Ngal = 191804
weighted Ngal = 0
Nran = 9360983
weighted Nran = 0
SN(data) = 3429.5426
SN(ran) = 70.4021278
SN(data+ran) = 3499.94473
############################
13 columns: k_central k_mean P_0(k) sigma^{lin}_{P_0(k)} P^img_1(k) sigma^{lin}_{P_1(k)} P_2(k) sigma^{lin}_{P_2(k)} P^img_3(k) sigma^{lin}_{P_3(k)} P_4(k) sigma^{lin}_{P_4(k)} N_modes
### header ###
0.00050000 0 0 0 0 0 0 0 0 0 0 0 0
0.00150000 0.00179520 40352.13762014 0 -40243.21571456 0 -21973.78608148 0 89122.62338574 0 -45254.41021694 0 3
0.00250000 0.00253879 75946.10778585 0 -55065.25017495 0 -16732.27064562 0 -14515.83913448 0 94610.53388562 0 6
0.00350000 0.00331552 93913.95075982 0 -35219.76890288 0 -11560.44724429 0 -66137.06633196 0 -98935.48666088 0 7
0.00450000 0.00420575 118177.45739520 0 -17559.47013291 0 -26296.82794611 0 -36562.80185222 0 8850.25890914 0 24
0.00550000 0.00557378 108066.04243665 0 8184.93603302 0 -26316.94871092 0 -33985.65785912 0 15431.72735604 0 45
0.00650000 0.00659388 112424.49235108 0 18180.17886628 0 -24704.47736356 0 -53954.89869574 0 -16077.83996006 0 40
0.00750000 0.00754703 84289.03116490 0 7740.79544134 0 -26186.44475593 0 -6540.63116279 0 -10531.34318856 0 57
0.00850000 0.00846663 82671.27671170 0 824.23645176 0 -41039.72822536 0 -16633.12810617 0 -10241.41308426 0 75
0.00950000 0.00948925 84295.10111630 0 -13632.99842607 0 -68121.82803153 0 10649.29133668 0 2388.32354212 0 112
0.01050000 0.01054430 89169.60930579 0 -18305.62452843 0 -61625.18153505 0 -5310.90397282 0 -25726.36492151 0 105
0.01150000 0.01145670 96642.95594429 0 -15306.61891341 0 -71994.11980185 0 -9633.45124882 0 -25572.03078698 0 144
0.01250000 0.01249090 108010.40121553 0 -7727.89117430 0 -63376.02529291 0 -20785.53689270 0 -12570.53211897 0 169
0.01350000 0.01339930 106198.52072420 0 7858.53001710 0 -65038.29272301 0 -35976.15229057 0 -5205.43294701 0 180
0.01450000 0.01448870 91684.70490685 0 16688.31970126 0 -31724.48855808 0 -27053.88577284 0 14976.48100144 0 267
0.01550000 0.01550050 75835.05015663 0 17891.51895550 0 -17998.19273094 0 -8738.15589940 0 -7529.19019133 0 238
0.01650000 0.01653350 65590.09626739 0 12845.36602935 0 -7771.92080322 0 -8692.29404442 0 34761.26275956 0 315
0.01750000 0.01747870 58349.76831855 0 3925.39260437 0 -9590.63561019 0 3403.86013241 0 11884.85242438 0 297
0.01850000 0.01844180 61703.64127715 0 -1867.76900676 0 -5312.89356800 0 4794.03637091 0 30840.74859761 0 388
0.01950000 0.01947590 62170.01587598 0 -5033.32734367 0 -5835.93228717 0 -8146.16702865 0 21716.37517974 0 399
0.02050000 0.02045430 71386.00059731 0 -6590.32607968 0 9012.70879351 0 -11024.81899631 0 14951.97638284 0 462
0.02150000 0.02154770 79819.07399522 0 -2722.72166071 0 11034.81193481 0 -26124.17155088 0 5610.88321888 0 571
0.02250000 0.02255340 86541.32035187 0 -1399.04511193 0 34222.38596352 0 -23708.78052181 0 -7153.80866017 0 510
0.02350000 0.02348930 89770.08486784 0 33.84335122 0 44635.38758119 0 -24013.40215662 0 -10890.96532740 0 555
0.02450000 0.02439640 92713.56166826 0 3822.60809409 0 56028.46153609 0 -8987.65338303 0 -21322.16555860 0 592
0.02550000 0.02547300 86797.94440806 0 6335.32067719 0 56399.06579069 0 1620.80066955 0 -21887.90750989 0 837
0.02650000 0.02652900 80342.55109976 0 7581.02083185 0 50323.71888360 0 23590.52887612 0 -28573.17212564 0 723
0.02750000 0.02749970 75680.82842860 0 7819.43503386 0 50322.93203805 0 19026.48745981 0 -15505.69083785 0 826
0.02850000 0.02848090 66132.57007167 0 5476.47875809 0 28450.87384569 0 30466.65974128 0 -20130.09454858 0 831
0.02950000 0.02946900 62324.23760401 0 2105.77854534 0 20206.75578657 0 23533.53877691 0 2580.22393139 0 996
0.03050000 0.03053250 56367.36715563 0 1968.99106660 0 9779.36613596 0 15062.35957302 0 2376.65574666 0 1041
0.03150000 0.03150510 54411.83114796 0 2086.59075454 0 10421.94917565 0 10669.83924622 0 5977.58696768 0 1036
0.03250000 0.03246190 52955.04281322 0 6.67479957 0 5655.29502992 0 949.51800042 0 20252.05560901 0 1059
0.03350000 0.03345080 52339.84199871 0 770.31505020 0 5516.27066168 0 424.52003583 0 19405.97182849 0 1302
0.03450000 0.03451200 53181.76673847 0 562.73395316 0 9056.76090372 0 -3806.42155704 0 24101.52885835 0 1339
0.03550000 0.03553350 51648.42957225 0 828.69224571 0 15006.15631937 0 -2000.39744474 0 20180.11544433 0 1365
0.03650000 0.03647120 53609.36109227 0 1654.37649329 0 18067.43513944 0 -2495.52562814 0 27905.02784619 0 1308
0.03750000 0.03744890 50592.59524909 0 1425.49436310 0 19948.78285229 0 1718.78542197 0 24676.03851721 0 1579
0.03850000 0.03847530 52316.12422567 0 1414.96187337 0 21962.65783725 0 3161.12952052 0 28202.23065152 0 1662
0.03950000 0.03950240 50644.63946197 0 738.94801434 0 24752.36253567 0 4906.98242946 0 26354.60489087 0 1683
0.04050000 0.04050350 49921.97802648 0 1839.38636367 0 21874.75594854 0 1526.69394163 0 21530.67962966 0 1822
0.04150000 0.04152450 49314.98288700 0 1454.69757370 0 24213.48573963 0 1624.20658672 0 23747.33595381 0 1887
0.04250000 0.04250150 45370.18891947 0 2435.05092720 0 16115.38373350 0 3615.66771413 0 17452.79635747 0 1920
0.04350000 0.04349210 45197.30771123 0 918.70962489 0 18167.47693095 0 5799.37769099 0 22484.11162467 0 2005
0.04450000 0.04448520 41723.15978980 0 1144.15211596 0 11148.43243239 0 5340.47812490 0 10552.72290625 0 2151
0.04550000 0.04548030 40926.75968551 0 1088.38612361 0 9946.76190665 0 4405.37963124 0 9917.97460013 0 2274
0.04650000 0.04648670 38132.10910077 0 1475.52649951 0 2438.65917609 0 2251.58102597 0 10132.10899655 0 2311
0.04750000 0.04749250 37150.80029195 0 1590.31602477 0 5991.23311767 0 -2734.54682528 0 9256.05764118 0 2568
0.04850000 0.04851840 36753.55569512 0 1170.70253298 0 5912.43615604 0 -1345.98924048 0 9895.23476370 0 2493
0.04950000 0.04949480 36091.70618008 0 512.46576309 0 10440.73230302 0 -325.55959493 0 10134.91915923 0 2644
0.05050000 0.05050630 36200.96530519 0 309.32135088 0 8699.76907715 0 -746.47925033 0 11880.58097711 0 2829
0.05150000 0.05149060 36293.47586070 0 -75.47298880 0 12603.80444514 0 -112.57174488 0 12120.34405720 0 2784
0.05250000 0.05249300 36684.53809963 0 305.24661499 0 11254.25191838 0 1854.71861126 0 12954.84996747 0 3055
0.05350000 0.05348950 35903.42528034 0 497.59100997 0 12601.55631499 0 1883.75321210 0 9427.96091281 0 3009
0.05450000 0.05448610 35992.33882762 0 390.45524379 0 11096.64675448 0 1737.74839976 0 12056.04753502 0 3336
0.05550000 0.05550870 35204.25680487 0 503.08206786 0 10807.99808436 0 607.19971932 0 7147.46893316 0 3349
0.05650000 0.05647670 34730.35097005 0 236.19192535 0 10983.70069593 0 481.45280772 0 7073.51669200 0 3324
0.05750000 0.05747970 33891.91083203 0 148.26305908 0 9257.08054040 0 269.35971347 0 5016.89351230 0 3639
0.05850000 0.05849280 34114.13849698 0 71.87373243 0 9916.87301635 0 176.44112233 0 4911.08526697 0 3846
0.05950000 0.05951020 34341.42445476 0 390.65982364 0 10767.07087504 0 -32.58754572 0 4032.61717170 0 3787
0.06050000 0.06049470 34589.84283591 0 515.56143830 0 9831.14057323 0 -182.71902576 0 4420.81304469 0 3930
0.06150000 0.06148310 32873.28306278 0 1058.04648323 0 12185.09020541 0 298.66521399 0 5586.70457916 0 4083
0.06250000 0.06249100 32918.80769824 0 943.71557651 0 12521.29806877 0 -196.32583347 0 5457.97664699 0 4303
0.06350000 0.06350600 32175.57587191 0 1566.41840132 0 12759.71227078 0 -1420.59343938 0 5983.13984914 0 4470
0.06450000 0.06451750 30860.53214289 0 1160.28244975 0 13113.00592325 0 182.97756073 0 4276.58425516 0 4479
0.06550000 0.06550280 30141.01808960 0 939.23730126 0 14345.76808892 0 -265.98976638 0 3364.03450687 0 4636
0.06650000 0.06648880 29302.57795158 0 498.93763993 0 12641.12340557 0 -429.26471451 0 925.45176720 0 4653
0.06750000 0.06749660 28967.49415329 0 24.49450201 0 12126.86363462 0 1159.57428876 0 -202.42388649 0 5220
0.06850000 0.06852730 28944.11359977 0 -231.74849612 0 11279.20616300 0 550.36811329 0 -1242.02446187 0 5029
0.06950000 0.06949320 28767.18575726 0 -303.59761153 0 10022.23163566 0 1551.91796187 0 -672.29095550 0 5040
0.07050000 0.07048030 29484.45168040 0 -70.60870960 0 11741.98375359 0 1721.31456839 0 -467.12547430 0 5475
0.07150000 0.07148790 29425.43826407 0 -112.08558673 0 10091.53024741 0 1104.31300163 0 -723.95073813 0 5509
0.07250000 0.07249820 29649.01480711 0 -16.35525922 0 12129.89861032 0 1357.98301481 0 3359.90918805 0 5916
0.07350000 0.07351270 29779.96838812 0 50.23806513 0 12083.92434883 0 1002.25800958 0 2342.50664974 0 5721
0.07450000 0.07449140 29666.43781574 0 286.36119770 0 11841.01388653 0 1613.85394740 0 5461.43876741 0 6028
0.07550000 0.07549160 29372.04517309 0 479.27099741 0 11880.35616409 0 1725.09142703 0 5622.07890701 0 6183
0.07650000 0.07648840 29133.74337760 0 810.58130925 0 11465.12652609 0 1571.31932503 0 7314.63989083 0 6330
0.07750000 0.07749960 27711.80106013 0 1122.25308020 0 10981.83474791 0 1166.37488245 0 7047.03371888 0 6583
0.07850000 0.07848650 27469.56503687 0 1033.96114090 0 11947.91247499 0 -1202.24379893 0 6229.02908388 0 6549
0.07950000 0.07947320 26484.09718729 0 1026.59739061 0 12551.87263876 0 -884.88538278 0 7434.70128129 0 6828
0.08050000 0.08048110 26356.40339498 0 808.51190545 0 13929.63919886 0 -2182.54094918 0 6474.14271372 0 7147
0.08150000 0.08149960 25572.81763253 0 276.94715271 0 14184.23993792 0 -544.97484907 0 5210.86218132 0 7386
0.08250000 0.08250610 26227.81035062 0 90.14316207 0 14902.29270661 0 -525.07664914 0 4699.61490477 0 7227
0.08350000 0.08350160 26435.64998264 0 -392.16607083 0 14473.68669424 0 1585.85348643 0 3142.67237202 0 7798
0.08450000 0.08449610 25757.72633705 0 -128.90665852 0 12201.61396198 0 1241.32754152 0 1379.75615528 0 7371
0.08550000 0.08548940 26387.09037148 0 -162.64209949 0 11315.51346486 0 2476.47272515 0 -381.16934222 0 8256
0.08650000 0.08650700 25681.62713160 0 32.86788755 0 9079.26468648 0 1893.11667416 0 -1733.52191508 0 8037
0.08750000 0.08749060 25629.35810570 0 798.92812664 0 7640.52883682 0 1878.61623472 0 -2364.04373654 0 8155
0.08850000 0.08849210 23750.70814903 0 1280.63609713 0 5697.12149129 0 153.32697223 0 -2495.33453707 0 8718
0.08950000 0.08949900 22756.24777886 0 1390.43477347 0 7102.61873674 0 846.97741225 0 -3049.34124900 0 8571
0.09050000 0.09049190 21596.32502993 0 967.25012695 0 5977.87922460 0 -215.93739680 0 -2387.85143478 0 8932
0.09150000 0.09150830 20749.45440386 0 620.03541839 0 6286.33392131 0 286.59837543 0 -1790.84923381 0 9285
0.09250000 0.09250820 21158.72649697 0 321.93560913 0 6702.74382764 0 235.21398874 0 -632.08539597 0 9204
0.09350000 0.09350330 20489.57055896 0 330.36609718 0 7570.35345431 0 -293.25846099 0 504.99410255 0 9349
0.09450000 0.09448040 20723.60090718 0 418.79180022 0 8304.87377632 0 -137.66649763 0 1637.33566678 0 9564
0.09550000 0.09549270 20412.57210145 0 195.98411769 0 9049.46572140 0 -29.25806497 0 2515.68011490 0 10155
0.09650000 0.09649430 20435.05340291 0 251.19369782 0 9532.46524266 0 -490.64541189 0 2769.68509947 0 9913
0.09750000 0.09749140 20454.94935471 0 254.29049710 0 10328.84286565 0 343.06578437 0 3772.46355118 0 10476
0.09850000 0.09850240 19833.56618230 0 484.21913186 0 10217.67282992 0 138.93893930 0 3464.98679108 0 10575
0.09950000 0.09950330 19534.11524682 0 676.16335968 0 9972.88517895 0 498.60042041 0 3592.42204842 0 10882
0.10050000 0.10051200 18703.09393828 0 829.15536052 0 9833.72592290 0 927.76958938 0 3271.52395135 0 10875
0.10150000 0.10150300 18067.32273294 0 567.93725038 0 8753.26333398 0 1353.82397404 0 2807.17266965 0 11118
0.10250000 0.10250800 17096.69254232 0 483.80435185 0 8722.40774773 0 959.52105550 0 2755.40947304 0 11575
0.10350000 0.10349800 16912.12105731 0 305.02180198 0 7540.32967621 0 796.27196087 0 2614.39550962 0 11364
0.10450000 0.10450100 16524.76823312 0 197.28241285 0 7362.36769383 0 619.06310210 0 2543.11854333 0 12093
0.10550000 0.10551000 16626.83334176 0 -29.71027635 0 6914.86614758 0 451.22669790 0 3576.56149024 0 12067
0.10650000 0.10649700 16454.17694653 0 -28.17514068 0 7591.15989881 0 768.50305731 0 4350.67138413 0 12054
0.10750000 0.10749900 16856.36742969 0 -1.84958163 0 6968.52901417 0 271.29422946 0 3988.20536066 0 12807
0.10850000 0.10850100 16738.11578400 0 99.75313160 0 7447.18964425 0 514.32159452 0 4662.72308907 0 12736
0.10950000 0.10950300 16686.63360365 0 266.06170654 0 7187.35076195 0 59.10941149 0 4107.37873971 0 12933
0.11050000 0.11050200 16539.26867257 0 348.81650129 0 7382.02759196 0 -334.92530512 0 4470.63160873 0 13428
0.11150000 0.11150900 16371.33335064 0 346.94718107 0 7601.40013163 0 -387.80469835 0 4050.60221286 0 13453
0.11250000 0.11250000 16015.22953549 0 363.77780741 0 6996.00116456 0 -432.86172274 0 2424.57464072 0 13668
0.11350000 0.11349100 15968.46842845 0 91.66750671 0 7009.31009502 0 44.57030421 0 1964.96691363 0 13791
0.11450000 0.11448600 15845.15848993 0 -75.08035287 0 6644.88819832 0 67.61318859 0 379.35734933 0 14205
0.11550000 0.11549300 15845.04608342 0 -78.02056988 0 5597.25955020 0 693.90223060 0 273.48278415 0 14776
0.11650000 0.11649800 15791.42817943 0 -68.49917668 0 5186.22267492 0 762.00371305 0 -840.94567907 0 14553
0.11750000 0.11747300 15756.80697518 0 66.39706258 0 4388.93455922 0 1269.18187404 0 -457.69681646 0 14568
0.11850000 0.11849100 15474.44182882 0 282.79341516 0 3937.84724538 0 773.88732901 0 34.16438421 0 16015
0.11950000 0.11950300 15032.57184858 0 357.06826299 0 3309.43866627 0 708.82082225 0 -248.01933805 0 15270
0.12050000 0.12050700 14886.66820210 0 368.69784024 0 4034.75289533 0 314.52127591 0 632.46083370 0 15999
0.12150000 0.12150000 14461.99641748 0 479.00346993 0 4121.31714661 0 -394.94363563 0 673.91972580 0 15670
0.12250000 0.12250700 14454.12796197 0 226.02925303 0 4864.80750791 0 -337.44995527 0 1477.50485403 0 16887
0.12350000 0.12352200 14204.92273526 0 194.35422333 0 4988.63451637 0 -496.08701091 0 934.61739381 0 16407
0.12450000 0.12449800 14389.15700074 0 211.08705601 0 4857.45612234 0 -128.53459298 0 1259.16645423 0 16306
0.12550000 0.12549900 14096.11323618 0 83.85570408 0 4901.54195450 0 205.35320007 0 447.11374380 0 17523
0.12650000 0.12650100 14024.28547801 0 130.44100734 0 4463.71860853 0 559.22574606 0 218.74531136 0 17154
0.12750000 0.12750600 13782.04945476 0 68.59843162 0 4067.53063287 0 498.61952952 0 -178.68250808 0 18007
0.12850000 0.12850300 13523.06486192 0 179.32884550 0 3300.69344000 0 748.71951202 0 -641.06105558 0 17496
0.12950000 0.12949900 13387.50261410 0 249.15127158 0 3327.06400661 0 506.35084909 0 -463.96685144 0 18405
0.13050000 0.13049000 13086.25317451 0 216.13410819 0 2825.56237425 0 521.70445392 0 -554.26637096 0 18100
0.13150000 0.13148800 12771.40254754 0 178.59820320 0 3277.06559216 0 435.52126070 0 537.70552024 0 19059
0.13250000 0.13249300 12753.75472589 0 84.16313588 0 2730.33158126 0 453.54901634 0 534.34681380 0 18957
0.13350000 0.13349100 12912.47271421 0 -105.15999700 0 3312.58604847 0 645.68995555 0 2129.35018992 0 19468
0.13450000 0.13450700 12810.85723160 0 45.81082243 0 3292.91490969 0 97.63112155 0 2040.68393696 0 19953
0.13550000 0.13551000 12951.47777225 0 67.03362063 0 3269.30954316 0 371.33714503 0 2661.84229635 0 19956
0.13650000 0.13649900 12721.83127781 0 232.81748201 0 3310.33791832 0 -229.12605231 0 2416.41392829 0 19723
0.13750000 0.13749600 12604.02925815 0 306.87088902 0 3236.32947391 0 -741.12532839 0 1392.15459303 0 20946
0.13850000 0.13851100 12323.57502241 0 422.82944196 0 3794.77624288 0 -901.93070555 0 1623.52090703 0 20955
0.13950000 0.13949800 12045.14410381 0 390.11465207 0 4115.15727001 0 -700.67359860 0 876.35260481 0 20506
0.14050000 0.14048300 11677.12519888 0 180.36186130 0 3883.28512673 0 -231.97443320 0 961.86248305 0 21447
0.14150000 0.14148400 11773.34516913 0 37.53590499 0 4514.91977261 0 97.18408087 0 389.71448491 0 21771
0.14250000 0.14249400 11715.90544390 0 5.14246282 0 4289.09509942 0 294.36678915 0 55.41337313 0 22470
0.14350000 0.14350900 11895.30622956 0 72.06381184 0 4452.83765862 0 13.30094960 0 607.44139331 0 22519
0.14450000 0.14449900 11699.49409383 0 273.48728042 0 4588.16385277 0 -111.90258894 0 664.72262537 0 22218
0.14550000 0.14550500 11504.69361666 0 277.05056670 0 4507.14124230 0 28.62161933 0 934.61964194 0 23559
0.14650000 0.14650700 11312.92811519 0 233.94829147 0 4852.93738074 0 305.70860574 0 599.58305438 0 23044
0.14750000 0.14750500 11050.57132713 0 222.46484268 0 4319.72587267 0 347.44851409 0 1062.08075277 0 23649
0.14850000 0.14849900 10932.36464404 0 152.06914341 0 4088.57313103 0 449.95875250 0 575.77310800 0 23640
0.14950000 0.14949500 10728.34683328 0 112.32017911 0 3682.84184290 0 475.89655406 0 766.77424522 0 24457
0.15050000 0.15050000 10542.70748645 0 167.71950143 0 3564.54523461 0 270.74231351 0 1034.64906873 0 24591
0.15150000 0.15149900 10539.41397579 0 78.38161958 0 3266.13967965 0 354.64140650 0 975.04776636 0 25020
0.15250000 0.15250500 10381.59523953 0 97.31761980 0 3111.99663618 0 104.00996603 0 1201.64804444 0 25297
0.15350000 0.15350100 10407.70727117 0 75.75209415 0 3266.62302763 0 265.73235548 0 1090.50498628 0 25452
0.15450000 0.15450400 10281.86818624 0 61.39463579 0 2878.62948635 0 417.46652750 0 1348.91180967 0 26061
0.15550000 0.15549900 10101.56814852 0 193.82029242 0 2891.09536801 0 270.28706715 0 1049.48560363 0 26128
0.15650000 0.15649500 9998.39021546 0 210.44071860 0 2871.16569426 0 108.76082706 0 1289.90963398 0 26331
0.15750000 0.15749700 9753.05177260 0 263.48422533 0 2723.68835667 0 61.22119255 0 799.81501398 0 27345
0.15850000 0.15849900 9594.38998753 0 246.98295006 0 2896.32227060 0 -126.65852837 0 1366.84064759 0 26980
0.15950000 0.15949700 9360.41584257 0 196.47645819 0 3007.33493722 0 -187.58397940 0 819.27820072 0 27777
0.16050000 0.16050000 9334.04527595 0 162.50271542 0 3339.36127851 0 -213.68252227 0 1117.79391406 0 28224
0.16150000 0.16150500 9231.31696892 0 106.25427435 0 3310.68637850 0 -97.08741127 0 794.88261644 0 28075
0.16250000 0.16249700 9202.42849654 0 46.37173090 0 3215.38814160 0 46.49223068 0 909.88796220 0 28590
0.16350000 0.16349900 9433.45759102 0 -126.45057633 0 3205.12542748 0 309.98792147 0 922.99231282 0 29163
0.16450000 0.16449100 9392.32804999 0 -103.91588178 0 3108.96166048 0 176.66031502 0 361.71065174 0 28996
0.16550000 0.16550500 9474.90187026 0 72.05144712 0 2866.46710226 0 206.66948027 0 774.95519083 0 30777
0.16650000 0.16650700 9310.41742812 0 166.03565195 0 3023.60015883 0 157.29717007 0 243.52644996 0 29211
0.16750000 0.16749900 9132.36552054 0 291.50716760 0 2780.32999571 0 33.85931294 0 866.39788452 0 30922
0.16850000 0.16850800 8946.11917858 0 222.62108773 0 2985.94397888 0 164.34280995 0 636.85592814 0 30867
0.16950000 0.16949900 8729.08469426 0 108.04254948 0 2659.40307514 0 162.47011754 0 877.64303151 0 30852
0.17050000 0.17049200 8628.22233525 0 71.87980238 0 2775.03564921 0 259.69949823 0 545.71898014 0 31257
0.17150000 0.17149500 8602.98707436 0 91.47832656 0 2484.04892374 0 67.12118530 0 786.10366822 0 32608
0.17250000 0.17250900 8493.64926470 0 78.81753202 0 2377.06041008 0 290.72594238 0 1006.88466142 0 32361
0.17350000 0.17350400 8431.65707592 0 141.64006767 0 2235.14719460 0 75.65126552 0 566.79744839 0 32508
0.17450000 0.17449800 8334.12194953 0 60.03114485 0 2219.50020879 0 338.13563496 0 999.39164365 0 32791
0.17550000 0.17549800 8209.83407439 0 117.57608258 0 2027.12771218 0 118.54053041 0 873.29402375 0 33633
0.17650000 0.17650100 8238.71130612 0 28.51865497 0 2023.41829743 0 201.73483460 0 1084.53957293 0 33984
0.17750000 0.17750300 8142.96344320 0 50.46366499 0 2195.44521622 0 -41.17753860 0 888.11931800 0 34069
