### header ###
fiducial parameters:
Omega_m = 0.31
Omega_nu = 0
Omega_de = 0.69
Omega_k = 0
H_0 = 100
w_de = -1
zeff = 0
beta = 0
fgrowth = 0
b_1 = 2
gamma = 0.55
Lx = 3500 Ly = 3500 Lz = 3500
nx = 700 ny = 700 nz = 700
xoffset = 857.220397 yoffset = 15.9954215 zoffset = 262.898189
bins = 400 dk = 0.001
kx_ny = 0.628318531 ky_ny = 0.628318531 kz_ny = 0.628318531
############################
A(data) = 3.08226892 (not used)
A(ran) = 3.08137722 (used)
Ngal = 188185
weighted Ngal = 0
Nran = 9360983
weighted Nran = 0
SN(data) = 3449.80429
SN(ran) = 69.1961519
SN(data+ran) = 3519.00044
############################
13 columns: k_central k_mean P_0(k) sigma^{lin}_{P_0(k)} P^img_1(k) sigma^{lin}_{P_1(k)} P_2(k) sigma^{lin}_{P_2(k)} P^img_3(k) sigma^{lin}_{P_3(k)} P_4(k) sigma^{lin}_{P_4(k)} N_modes
### header ###
0.00050000 0 0 0 0 0 0 0 0 0 0 0 0
0.00150000 0.00179520 54273.34633095 0 -54071.57665033 0 13467.76086032 0 -46167.26346280 0 -56116.36342481 0 3
0.00250000 0.00253879 97046.72011855 0 -52665.82086991 0 -24698.74463168 0 -16538.59423352 0 28247.75528698 0 6
0.00350000 0.00331552 118729.37334609 0 -28204.81600119 0 -17173.57859332 0 -15404.07535524 0 64230.08993545 0 7
0.00450000 0.00420575 136020.86636558 0 -5382.20342041 0 -21816.86659727 0 -43520.20262216 0 21932.75770631 0 24
0.00550000 0.00557378 154583.67698274 0 -34488.67697933 0 -36005.37798247 0 28871.83621557 0 30212.73344127 0 45
0.00650000 0.00659388 150688.79150445 0 -19672.15043780 0 -60394.10546699 0 25334.85305655 0 -30356.50136411 0 40
0.00750000 0.00754703 193249.26736720 0 -28212.45964369 0 -88581.61086605 0 25136.23075814 0 -80790.26621837 0 57
0.00850000 0.00846663 194734.15732876 0 -15963.85976165 0 -48818.37093771 0 -78497.62309528 0 -74987.61749802 0 75
0.00950000 0.00948925 181435.34344893 0 35800.46091964 0 -56543.05852655 0 -125055.61157750 0 -75154.54116138 0 112
0.01050000 0.01054430 149018.43080582 0 25983.43860373 0 -30809.04996254 0 -108938.09212036 0 -77563.86223906 0 105
0.01150000 0.01145670 142872.04298612 0 12957.88494316 0 -9869.05528814 0 -106956.81502251 0 -86451.95717856 0 144
0.01250000 0.01249090 143392.48511496 0 -6994.55112061 0 19775.67683103 0 -46256.96385564 0 -132137.22153802 0 169
0.01350000 0.01339930 142965.34038718 0 -15047.52191406 0 33446.89346959 0 -49729.08845993 0 -139883.15395675 0 180
0.01450000 0.01448870 155930.30694031 0 -4317.44402057 0 21971.08832530 0 -13759.56815330 0 -128856.07558964 0 267
0.01550000 0.01550050 161556.25263117 0 -4225.43929433 0 13348.83477559 0 -16827.25414429 0 -161003.21261521 0 238
0.01650000 0.01653350 155630.18156579 0 5639.34454653 0 14713.89940036 0 1228.05233301 0 -111990.82804588 0 315
0.01750000 0.01747870 144341.19603666 0 7266.93456913 0 17939.06690810 0 5425.25511271 0 -118845.15204862 0 297
0.01850000 0.01844180 132204.66544241 0 10242.58211194 0 10877.65639694 0 16806.90856647 0 -64353.28746746 0 388
0.01950000 0.01947590 123798.90682577 0 13882.65327880 0 -12641.79784461 0 18304.38805685 0 -76798.26151777 0 399
0.02050000 0.02045430 106639.26663936 0 7717.78582930 0 -25710.51560398 0 22432.17981829 0 -32152.08291188 0 462
0.02150000 0.02154770 101878.62624177 0 3692.40763667 0 -31271.26552060 0 13212.37327571 0 -18007.85969057 0 571
0.02250000 0.02255340 97830.86791354 0 5381.29292770 0 -41378.63384490 0 1747.38163743 0 -15039.20383251 0 510
0.02350000 0.02348930 89591.02130170 0 8134.98258118 0 -22173.98207100 0 -16643.13228532 0 -5440.53115705 0 555
0.02450000 0.02439640 87574.56096706 0 9867.07693362 0 -18135.10385684 0 -30213.63269332 0 -3477.92478007 0 592
0.02550000 0.02547300 78503.58064017 0 11164.22554667 0 5238.67155123 0 -28082.40531473 0 3941.30936581 0 837
0.02650000 0.02652900 74276.08430675 0 6620.82196511 0 18102.50596972 0 -10172.94628066 0 354.94602813 0 723
0.02750000 0.02749970 68260.08803552 0 714.39843314 0 18671.50770973 0 4470.14826075 0 3108.19729623 0 826
0.02850000 0.02848090 70155.14934226 0 -1331.87098316 0 22981.51041951 0 13865.56748969 0 -5630.05976903 0 831
0.02950000 0.02946900 71276.85387871 0 -2109.98254871 0 18237.28137199 0 12642.69709667 0 -3584.31753924 0 996
0.03050000 0.03053250 72065.72274701 0 959.66943209 0 10427.64818557 0 -111.72397500 0 -11355.19296194 0 1041
0.03150000 0.03150510 68563.92282478 0 5358.99147665 0 10476.28648128 0 -9850.36208598 0 -10226.40681553 0 1036
0.03250000 0.03246190 63228.77276833 0 6500.89546246 0 17536.31439240 0 -13663.34818304 0 -7007.47786895 0 1059
0.03350000 0.03345080 61415.31858590 0 6232.60361081 0 22991.28978565 0 -11630.58890485 0 -9673.17570851 0 1302
0.03450000 0.03451200 55717.65754338 0 4037.33824500 0 26079.32135447 0 -6237.11111176 0 -8344.96917748 0 1339
0.03550000 0.03553350 55128.64744507 0 2330.01828677 0 26716.44143790 0 2679.68120906 0 -15082.70515084 0 1365
0.03650000 0.03647120 53532.81226079 0 -80.34895827 0 33423.62532257 0 6917.73251352 0 -7522.83922367 0 1308
0.03750000 0.03744890 52179.99994532 0 1237.56192353 0 26212.97269166 0 6121.47853769 0 -11080.71875239 0 1579
0.03850000 0.03847530 52579.82989182 0 1148.58093234 0 30129.44021935 0 3785.35657757 0 -5902.08351672 0 1662
0.03950000 0.03950240 49770.79127415 0 2407.03922558 0 27581.40951165 0 253.42384293 0 -4616.05190724 0 1683
0.04050000 0.04050350 49060.15733493 0 2434.79239224 0 27238.45725785 0 -536.40947321 0 -5254.35225900 0 1822
0.04150000 0.04152450 46074.97772030 0 1574.89385197 0 26179.25073946 0 225.06143300 0 1172.50103710 0 1887
0.04250000 0.04250150 44798.03979726 0 2177.88731978 0 26540.63766047 0 4051.69255599 0 -4210.17449064 0 1920
0.04350000 0.04349210 44065.03696309 0 1412.75870582 0 22100.35580871 0 6922.61095593 0 -5101.32203994 0 2005
0.04450000 0.04448520 41620.86986815 0 1154.54971788 0 18953.76044958 0 4888.21054274 0 -7997.27336907 0 2151
0.04550000 0.04548030 39927.24102251 0 1023.80970923 0 13840.72565158 0 1981.79416778 0 -5370.99649163 0 2274
0.04650000 0.04648670 39762.67789581 0 1097.83276649 0 11254.58913790 0 825.74607115 0 -9704.71697446 0 2311
0.04750000 0.04749250 37386.29192477 0 466.65786323 0 13093.67200400 0 -986.05123936 0 -11195.02492967 0 2568
0.04850000 0.04851840 38140.08996279 0 330.43241702 0 12772.41420610 0 -4489.51590196 0 -9852.61021613 0 2493
0.04950000 0.04949480 38783.84203015 0 -509.38132853 0 13790.03031678 0 -178.22501360 0 -13841.51249713 0 2644
0.05050000 0.05050630 38970.66164530 0 256.09686967 0 16687.87007523 0 -803.38841685 0 -6850.46845954 0 2829
0.05150000 0.05149060 39303.16009393 0 840.48593646 0 17347.58386663 0 -599.03113843 0 -7844.81642321 0 2784
0.05250000 0.05249300 38710.44058088 0 -4.32815636 0 16732.72027165 0 3454.70159566 0 -3314.94658512 0 3055
0.05350000 0.05348950 39745.03007416 0 31.93749889 0 16723.95256408 0 930.74049337 0 -5927.39746216 0 3009
0.05450000 0.05448610 39873.06108599 0 -951.51658812 0 17518.21694473 0 3810.69300431 0 -2400.39600100 0 3336
0.05550000 0.05550870 40909.22427037 0 -556.01654028 0 12648.76704806 0 2189.75744695 0 -5911.78419830 0 3349
0.05650000 0.05647670 40276.82526024 0 -194.81059375 0 13913.22784879 0 991.08480276 0 -6373.83114660 0 3324
0.05750000 0.05747970 40406.42996317 0 976.88224056 0 10542.15669457 0 441.03142769 0 -8011.79628982 0 3639
0.05850000 0.05849280 38869.38338222 0 1521.62440815 0 12759.93708379 0 2473.20169578 0 -8877.09034244 0 3846
0.05950000 0.05951020 36715.44988914 0 2811.14061936 0 8946.09669727 0 -510.10073017 0 -6143.77998874 0 3787
0.06050000 0.06049470 35001.02583965 0 2089.32223267 0 10794.28449046 0 1944.92483338 0 -6765.45541806 0 3930
0.06150000 0.06148310 32614.74809597 0 1057.07641507 0 7847.68278914 0 1407.20582436 0 -5485.15654046 0 4083
0.06250000 0.06249100 32698.82816344 0 430.96430090 0 11161.44910594 0 548.82926820 0 -4122.83463446 0 4303
0.06350000 0.06350600 32814.71927248 0 -202.70265463 0 10825.82575641 0 13.06602000 0 -3761.24538175 0 4470
0.06450000 0.06451750 32794.93572719 0 179.52555689 0 9106.14108238 0 1312.67195171 0 -3617.46621825 0 4479
0.06550000 0.06550280 32486.94189716 0 -324.80309913 0 8614.45253811 0 458.72083975 0 -1642.64125392 0 4636
0.06650000 0.06648880 32922.29229997 0 255.92039145 0 9602.57318127 0 2874.88634966 0 -3152.82267963 0 4653
0.06750000 0.06749660 32959.16163437 0 27.19135893 0 6945.94654685 0 1674.63214590 0 -1906.27947617 0 5220
0.06850000 0.06852730 31918.50218969 0 547.49050670 0 6510.88840096 0 1612.15660914 0 -2667.68743473 0 5029
0.06950000 0.06949320 31644.23031186 0 1041.36648161 0 7743.47071622 0 -278.82096919 0 -254.55914865 0 5040
0.07050000 0.07048030 30356.95099014 0 1368.70659561 0 6699.86622105 0 -497.24704606 0 2011.17722879 0 5475
0.07150000 0.07148790 28746.27814690 0 1922.80323274 0 8638.15907050 0 -631.23110651 0 -226.04498994 0 5509
0.07250000 0.07249820 27921.55160277 0 1702.86866054 0 10624.70803354 0 -1624.44264039 0 3807.65802862 0 5916
0.07350000 0.07351270 26497.13634214 0 1307.33264262 0 12150.69381417 0 -930.01209920 0 2211.60927197 0 5721
0.07450000 0.07449140 26315.82464585 0 256.51052562 0 12861.21534688 0 220.64160913 0 3444.28151244 0 6028
0.07550000 0.07549160 26302.11105195 0 -653.12677007 0 11728.60737922 0 1563.75436709 0 4194.53874548 0 6183
0.07650000 0.07648840 26939.34354189 0 -932.52438464 0 10480.07458058 0 3098.87879677 0 1721.89908223 0 6330
0.07750000 0.07749960 27599.39455282 0 -135.92869303 0 9881.88087063 0 2122.60579949 0 3509.96063466 0 6583
0.07850000 0.07848650 27210.35563102 0 608.33839724 0 7126.81985776 0 1070.97660376 0 241.06137525 0 6549
0.07950000 0.07947320 26449.81320256 0 779.58296673 0 7421.75205164 0 -167.64868533 0 2724.03681685 0 6828
0.08050000 0.08048110 25501.21468737 0 731.71577966 0 5676.12395572 0 -106.93984164 0 -25.67510755 0 7147
0.08150000 0.08149960 25116.67202586 0 196.72038031 0 6453.88706110 0 141.71538003 0 903.03228932 0 7386
0.08250000 0.08250610 24879.15707592 0 205.96131928 0 6015.67029236 0 -713.99152159 0 -577.41986334 0 7227
0.08350000 0.08350160 24846.89640832 0 745.78907437 0 8370.91259937 0 -983.46364156 0 29.89327415 0 7798
0.08450000 0.08449610 24062.63620682 0 1105.03689954 0 8939.08253122 0 -1416.94022790 0 795.32549808 0 7371
0.08550000 0.08548940 23110.32827689 0 1039.80965148 0 9660.64238294 0 56.35219228 0 985.59374487 0 8256
0.08650000 0.08650700 22466.91342905 0 658.87523886 0 10187.62657051 0 109.28835080 0 3129.29599765 0 8037
0.08750000 0.08749060 22321.90903462 0 -33.68058660 0 9117.12319815 0 1302.44295955 0 267.37686268 0 8155
0.08850000 0.08849210 22342.14220593 0 -107.45174087 0 10045.18504445 0 363.07976300 0 912.53176325 0 8718
0.08950000 0.08949900 22352.25879159 0 20.53610685 0 7870.11912800 0 221.43969534 0 -675.38775478 0 8571
0.09050000 0.09049190 21955.35141428 0 568.17442811 0 8023.43036332 0 -1005.97416871 0 -1644.38355479 0 8932
0.09150000 0.09150830 21605.99198956 0 663.98636274 0 7417.28951330 0 -474.65783435 0 -3427.76899651 0 9285
0.09250000 0.09250820 20953.13499510 0 357.98887229 0 6811.18238524 0 484.14943983 0 -3143.52666148 0 9204
0.09350000 0.09350330 20706.62752457 0 75.83954642 0 6494.42084764 0 1810.05950591 0 -3058.21012243 0 9349
0.09450000 0.09448040 20462.48059070 0 -40.42295372 0 4950.43878518 0 2133.68908111 0 -3572.49237467 0 9564
0.09550000 0.09549270 20342.65525390 0 42.27057948 0 4590.63679593 0 2055.80261219 0 -2421.71951544 0 10155
0.09650000 0.09649430 20054.78218868 0 328.79240608 0 3981.30360111 0 1397.88732491 0 -2207.94481983 0 9913
0.09750000 0.09749140 19575.25602850 0 521.87980807 0 3918.83930500 0 623.69762239 0 -312.84641895 0 10476
0.09850000 0.09850240 19147.21204866 0 429.96837924 0 3246.51350347 0 2.08066693 0 -348.75580177 0 10575
0.09950000 0.09950330 18908.68544015 0 551.81478504 0 4435.86427602 0 60.12500429 0 388.24420779 0 10882
0.10050000 0.10051200 18231.77345313 0 480.77274835 0 4682.94501974 0 -255.81697747 0 91.83027133 0 10875
0.10150000 0.10150300 17912.20175285 0 564.83820297 0 4314.09430665 0 -317.94517812 0 304.40244212 0 11118
0.10250000 0.10250800 17800.80690410 0 231.74175173 0 4764.95680747 0 -117.97175349 0 451.36608197 0 11575
0.10350000 0.10349800 17308.46640209 0 147.72688004 0 4742.64411577 0 403.95414125 0 -711.41516444 0 11364
0.10450000 0.10450100 17884.77456507 0 62.60772682 0 4476.65659752 0 303.52117510 0 327.88978182 0 12093
0.10550000 0.10551000 17350.39402931 0 151.74990893 0 4200.69862208 0 480.52208184 0 -527.65862661 0 12067
0.10650000 0.10649700 17302.17163768 0 228.59998985 0 4301.17879896 0 138.98502596 0 1037.36593401 0 12054
0.10750000 0.10749900 17140.64348667 0 229.88029997 0 4513.71702298 0 234.26752595 0 580.97865336 0 12807
0.10850000 0.10850100 17040.37688215 0 90.54681383 0 3785.52518733 0 901.25851463 0 681.46445057 0 12736
0.10950000 0.10950300 16913.35752889 0 153.49445793 0 4257.29529851 0 278.71643114 0 900.34802193 0 12933
0.11050000 0.11050200 16643.13228532 0 529.50771366 0 3454.92640868 0 259.19591708 0 616.20910088 0 13428
0.11150000 0.11150900 16305.01351133 0 470.71798627 0 4506.32067480 0 -194.13165845 0 1209.35913085 0 13453
0.11250000 0.11250000 15733.20160865 0 467.89883107 0 4263.61254422 0 -362.87855535 0 98.09603486 0 13668
0.11350000 0.11349100 15797.04850480 0 279.60893880 0 4371.70264165 0 -440.25469873 0 622.08458901 0 13791
0.11450000 0.11448600 15265.92775776 0 245.28785993 0 4633.56484108 0 -548.30770201 0 -237.18335075 0 14205
0.11550000 0.11549300 15609.44204410 0 34.61389783 0 4577.41779067 0 -279.94053800 0 148.77563275 0 14776
0.11650000 0.11649800 15224.67456958 0 -9.73262751 0 5243.71860340 0 -19.98598941 0 -659.63510685 0 14553
0.11750000 0.11747300 15614.72514994 0 -210.38563941 0 4576.20380040 0 352.90135376 0 -454.59327280 0 14568
0.11850000 0.11849100 15452.07293386 0 -67.50303021 0 4961.33097574 0 1037.66943158 0 -692.48253641 0 16015
0.11950000 0.11950300 15571.78586415 0 95.27676725 0 3861.27593260 0 729.53958968 0 -780.81719018 0 15270
0.12050000 0.12050700 15244.34570836 0 245.45759375 0 4322.68216381 0 626.62581191 0 -230.60082568 0 15999
0.12150000 0.12150000 15053.36705244 0 369.07777423 0 3523.87656026 0 -12.45014475 0 -765.91995577 0 15670
0.12250000 0.12250700 14677.81691151 0 458.49602673 0 3744.44060890 0 4.97430269 0 -31.57071646 0 16887
0.12350000 0.12352200 14419.39435121 0 217.82132987 0 3232.74370633 0 -472.18376713 0 -1066.03970996 0 16407
0.12450000 0.12449800 14367.91217086 0 298.55393155 0 3948.18864405 0 -732.52398245 0 -900.84823088 0 16306
0.12550000 0.12549900 14140.62621308 0 177.75740253 0 3790.89821838 0 -763.97757132 0 -1661.70539756 0 17523
0.12650000 0.12650100 13822.51579739 0 344.60238133 0 4556.28536730 0 -294.74897127 0 -1494.87165941 0 17154
0.12750000 0.12750600 13806.55407335 0 112.74709903 0 4269.22162893 0 19.61999382 0 -1678.26287609 0 18007
0.12850000 0.12850300 13838.25270842 0 62.61952950 0 4810.08802015 0 547.56019873 0 -1490.69013734 0 17496
0.12950000 0.12949900 13624.45553151 0 0.57486486 0 4271.00889240 0 607.09405720 0 -922.17736565 0 18405
0.13050000 0.13049000 13763.50238105 0 99.12590328 0 4211.50088743 0 900.41658990 0 -1083.88424300 0 18100
0.13150000 0.13148800 13836.90383033 0 190.18169378 0 4528.31862828 0 370.49859248 0 838.70654145 0 19059
0.13250000 0.13249300 13647.27405250 0 130.86140768 0 4268.04136061 0 197.43303757 0 348.31179607 0 18957
0.13350000 0.13349100 13537.00326883 0 210.51041063 0 4377.77259304 0 92.21706213 0 1485.96906403 0 19468
0.13450000 0.13450700 13545.32135037 0 233.61332008 0 4356.51652251 0 48.52948621 0 1335.38930684 0 19953
0.13550000 0.13551000 13113.00592325 0 263.53593232 0 4569.07722783 0 149.26122886 0 1468.37744564 0 19956
0.13650000 0.13649900 13118.85106163 0 262.74121832 0 4507.54590573 0 353.64548484 0 2058.25307405 0 19723
0.13750000 0.13749600 12679.22921154 0 179.43338355 0 4132.86129491 0 440.65486589 0 1071.48805337 0 20946
0.13850000 0.13851100 12573.56709467 0 268.85500825 0 4015.27284762 0 333.45165580 0 1796.31219007 0 20955
0.13950000 0.13949800 12232.52575149 0 214.50533790 0 3843.16724428 0 202.20919006 0 788.32369674 0 20506
0.14050000 0.14048300 12042.89597366 0 311.67739127 0 3621.34424275 0 -152.20515529 0 1219.19470024 0 21447
0.14150000 0.14148400 11848.20790300 0 281.35348780 0 3721.90310419 0 -273.83461652 0 257.61210939 0 21771
0.14250000 0.14249400 11629.91446581 0 176.62884120 0 3534.81371342 0 -209.99109257 0 647.90773594 0 22470
0.14350000 0.14350900 11489.29392516 0 166.85059913 0 3944.43426671 0 -187.74134851 0 -112.10109883 0 22519
0.14450000 0.14449900 11450.17646062 0 50.57326133 0 3484.65792986 0 73.44450097 0 -30.46553568 0 22218
0.14550000 0.14550500 11442.30800511 0 -10.48107500 0 3587.25134908 0 213.54538633 0 -355.28999204 0 23559
0.14650000 0.14650700 11482.32472171 0 -35.03384854 0 3522.67381063 0 48.80836676 0 -777.17297122 0 23044
0.14750000 0.14750500 11480.63862410 0 36.95127874 0 3336.71972559 0 71.75570560 0 -561.29402580 0 23649
0.14850000 0.14849900 11410.15974401 0 92.31822798 0 3605.83214474 0 155.56161360 0 -1090.76689344 0 23640
0.14950000 0.14949500 11289.54756167 0 129.62043984 0 3131.55536845 0 233.54924837 0 -338.54142246 0 24457
0.15050000 0.15050000 11163.94453040 0 140.77678569 0 3067.07899586 0 630.07781575 0 -193.27512086 0 24591
0.15150000 0.15149900 10934.00577905 0 134.84172210 0 2767.32456281 0 597.31469106 0 -180.96436018 0 25020
0.15250000 0.15250500 10808.80741121 0 245.83752775 0 2458.60009049 0 352.18082805 0 79.12204124 0 25297
0.15350000 0.15350100 10744.16242885 0 159.61836445 0 2332.43502668 0 103.43804172 0 146.75906001 0 25452
0.15450000 0.15450400 10337.82414558 0 205.46111032 0 2602.70523286 0 -189.26445668 0 567.27067979 0 26061
0.15550000 0.15549900 10502.18494057 0 98.88670224 0 2959.19123014 0 -518.61664717 0 374.83298741 0 26128
0.15650000 0.15649500 10375.28923447 0 113.12253676 0 3269.59055942 0 -428.52395562 0 268.81341784 0 26331
0.15750000 0.15749700 10428.76100999 0 265.12536034 0 3553.68676600 0 -477.33310923 0 185.30325137 0 27345
0.15850000 0.15849900 10142.79885540 0 216.13298413 0 3417.60744825 0 -143.01030299 0 147.13562181 0 26980
0.15950000 0.15949700 10069.92571671 0 205.94221017 0 3757.37859790 0 30.76993250 0 -46.57642315 0 27777
0.16050000 0.16050000 9880.77928686 0 208.15099804 0 3409.51417972 0 582.26908006 0 12.73779300 0 28224
0.16150000 0.16150500 9579.38371881 0 189.44543116 0 2934.97886846 0 540.98441806 0 -502.91345809 0 28075
0.16250000 0.16249700 9384.22354082 0 190.34018696 0 2626.04082377 0 390.26078053 0 -263.71241054 0 28590
0.16350000 0.16349900 9126.56534476 0 192.82099857 0 2350.76852802 0 580.28847740 0 -187.10849987 0 29163
0.16450000 0.16449100 9186.29816274 0 58.02851052 0 2374.20528480 0 436.85102968 0 165.53094673 0 28996
0.16550000 0.16550500 8960.50721151 0 -46.15984463 0 1805.10237894 0 508.81367566 0 35.46324140 0 30777
0.16650000 0.16650700 9172.61829080 0 56.17177983 0 1904.44725010 0 228.93720937 0 215.82386623 0 29211
0.16750000 0.16749900 9096.78886097 0 -8.90131394 0 1801.12318858 0 165.84456089 0 586.89460784 0 30922
0.16850000 0.16850800 8934.99093435 0 175.30469254 0 1939.39443322 0 32.35688757 0 632.78006819 0 30867
0.16950000 0.16949900 8973.32155334 0 115.93157538 0 1540.81219895 0 195.36363377 0 749.27592423 0 30852
0.17050000 0.17049200 8641.28397140 0 79.78287910 0 1608.67200741 0 166.40097310 0 661.43585909 0 31257
0.17150000 0.17149500 8892.42259003 0 32.06710359 0 1387.95058966 0 217.40542579 0 662.06308740 0 32608
0.17250000 0.17250900 8619.65695940 0 43.40779611 0 1621.93597528 0 -44.82692827 0 619.44978048 0 32361
0.17350000 0.17350400 8666.09208756 0 241.73131804 0 1547.16316661 0 -425.96333539 0 299.95226850 0 32508
0.17450000 0.17449800 8447.07924872 0 268.54926255 0 2013.88622562 0 -529.63023675 0 586.51242571 0 32791
0.17550000 0.17549800 8258.19135384 0 270.01841560 0 2206.12383442 0 -223.46750873 0 502.40088442 0 33633
0.17650000 0.17650100 8260.38328073 0 156.93634518 0 2404.52131982 0 -119.77025760 0 757.93347342 0 33984
