### header ###
fiducial parameters:
Omega_m = 0.31
Omega_nu = 0
Omega_de = 0.69
Omega_k = 0
H_0 = 100
w_de = -1
zeff = 0
beta = 0
fgrowth = 0
b_1 = 2
gamma = 0.55
Lx = 3500 Ly = 3500 Lz = 3500
nx = 700 ny = 700 nz = 700
xoffset = 857.220397 yoffset = 15.9954215 zoffset = 262.898189
bins = 400 dk = 0.001
kx_ny = 0.628318531 ky_ny = 0.628318531 kz_ny = 0.628318531
############################
A(data) = 3.09711293 (not used)
A(ran) = 3.09834755 (used)
Ngal = 189016
weighted Ngal = 0
Nran = 9360983
weighted Nran = 0
SN(data) = 3446.03118
SN(ran) = 69.5772419
SN(data+ran) = 3515.60842
############################
13 columns: k_central k_mean P_0(k) sigma^{lin}_{P_0(k)} P^img_1(k) sigma^{lin}_{P_1(k)} P_2(k) sigma^{lin}_{P_2(k)} P^img_3(k) sigma^{lin}_{P_3(k)} P_4(k) sigma^{lin}_{P_4(k)} N_modes
### header ###
0.00050000 0 0 0 0 0 0 0 0 0 0 0 0
0.00150000 0.00179520 7537.31718181 0 -18921.72459500 0 -20356.59366081 0 -12652.81368233 0 4879.45407582 0 3
0.00250000 0.00253879 21578.00276924 0 -32574.73137937 0 -23779.93384093 0 11858.77411469 0 36569.99586868 0 6
0.00350000 0.00331552 35540.57707474 0 -29669.81001096 0 -16800.38898905 0 -39888.46077749 0 -100343.37816493 0 7
0.00450000 0.00420575 58977.89588139 0 -26011.20301104 0 -30616.61002203 0 -9837.50278154 0 4154.49954757 0 24
0.00550000 0.00557378 62630.20811691 0 -2830.93540530 0 -24773.15773952 0 -27767.21746823 0 3801.53187397 0 45
0.00650000 0.00659388 83163.16758769 0 10337.75670168 0 -39217.73114837 0 -24091.29986618 0 36195.23257331 0 40
0.00750000 0.00754703 62870.64563604 0 7478.35996873 0 6295.68614271 0 -16464.63075171 0 -1037.33446019 0 57
0.00850000 0.00846663 66450.56808085 0 5026.22325241 0 -3480.02678176 0 -17683.79173000 0 29416.89536951 0 75
0.00950000 0.00948925 62591.98990442 0 10549.39567364 0 36445.56186509 0 -8515.93947510 0 12463.97075004 0 112
0.01050000 0.01054430 58216.45420088 0 7299.93711967 0 69707.88384968 0 -3330.45868313 0 44108.31346841 0 105
0.01150000 0.01145670 58785.23112786 0 9455.15204693 0 70743.03537549 0 11142.42992490 0 27165.39302809 0 144
0.01250000 0.01249090 65903.26079676 0 3518.35740075 0 107681.49977514 0 13398.18123230 0 51948.55494677 0 169
0.01350000 0.01339930 71293.71485480 0 391.69508757 0 116251.93392498 0 23830.96639525 0 38593.76262629 0 180
0.01450000 0.01448870 76773.41967965 0 -3678.45798911 0 117247.85557975 0 30407.08429240 0 46887.90158117 0 267
0.01550000 0.01550050 89942.74126307 0 -3559.80168000 0 117503.01835134 0 26040.20388992 0 12033.67864006 0 238
0.01650000 0.01653350 88970.64978785 0 -3157.20653342 0 102222.81496716 0 22463.65364033 0 23590.86609564 0 315
0.01750000 0.01747870 101349.64121837 0 1252.43330445 0 111494.55331611 0 21868.68599714 0 13486.86996657 0 297
0.01850000 0.01844180 91218.66752754 0 4532.38774385 0 70964.81341442 0 29477.48247695 0 -17793.61288764 0 388
0.01950000 0.01947590 86933.05702985 0 2402.43055878 0 61065.05990912 0 9074.76842619 0 -14918.02961763 0 399
0.02050000 0.02045430 85511.67674491 0 2462.12965481 0 50597.99076144 0 15972.29024969 0 -20642.66822191 0 462
0.02150000 0.02154770 81409.73848016 0 -1000.84393572 0 35665.91033039 0 16404.49327030 0 -18707.14057254 0 571
0.02250000 0.02255340 75748.60955251 0 2409.36604028 0 25083.51210621 0 15575.15805937 0 -21962.54543075 0 510
0.02350000 0.02348930 85918.25108185 0 -887.50670253 0 26690.81275423 0 14293.83628254 0 -2065.79555069 0 555
0.02450000 0.02439640 75982.19027470 0 5730.07907923 0 32442.99095280 0 8007.95198727 0 166.85846758 0 592
0.02550000 0.02547300 77124.91482801 0 5757.14656619 0 34149.54654678 0 402.15788527 0 22304.03639995 0 837
0.02650000 0.02652900 67000.46071461 0 4614.70302915 0 41956.85291850 0 4958.18359354 0 22806.49348763 0 723
0.02750000 0.02749970 72970.25791133 0 2867.19774456 0 51845.14096004 0 7141.53386957 0 43393.52048843 0 826
0.02850000 0.02848090 65556.59912821 0 -195.98074549 0 42495.28008851 0 5158.06484483 0 23044.90768963 0 831
0.02950000 0.02946900 70553.74281718 0 -654.62964508 0 45406.49622133 0 7163.20584418 0 22813.23787807 0 996
0.03050000 0.03053250 69708.33347570 0 -843.57711541 0 34098.06436643 0 1091.93030079 0 10970.39176547 0 1041
0.03150000 0.03150510 72045.71438871 0 1200.62514523 0 33653.15941050 0 2988.32699683 0 -5033.34982497 0 1036
0.03250000 0.03246190 66553.86966107 0 1099.97411045 0 24061.39973524 0 368.51798983 0 -4535.67001386 0 1059
0.03350000 0.03345080 66873.89098738 0 2415.45847298 0 19645.73490858 0 823.86438622 0 -20760.69505459 0 1302
0.03450000 0.03451200 61971.16876455 0 2041.40333860 0 17298.34981643 0 3567.52400705 0 -21026.42403787 0 1339
0.03550000 0.03553350 59704.49154464 0 1780.01324651 0 14109.26479754 0 4204.02585469 0 -28651.06983521 0 1365
0.03650000 0.03647120 56976.38561223 0 1668.71956362 0 8999.39986304 0 3360.30261082 0 -27985.73571844 0 1308
0.03750000 0.03744890 55928.30733808 0 2219.41028358 0 8668.40766162 0 1974.93737083 0 -24313.30271812 0 1579
0.03850000 0.03847530 51747.01007916 0 2066.31262062 0 3801.26209835 0 1559.62904827 0 -20027.35500090 0 1662
0.03950000 0.03950240 51117.98326426 0 1987.96528503 0 5512.60620954 0 3062.53777296 0 -14618.91590168 0 1683
0.04050000 0.04050350 49071.06076614 0 2027.82463252 0 2926.41349261 0 2361.86305029 0 -14148.71948161 0 1822
0.04150000 0.04152450 48136.85028389 0 2262.59686369 0 6836.14787051 0 1556.06576199 0 -6607.46807204 0 1887
0.04250000 0.04250150 44985.30903844 0 2727.83615679 0 4307.19254710 0 -1179.27914949 0 -11763.11617697 0 1920
0.04350000 0.04349210 43592.36759986 0 2610.13530299 0 8480.80120092 0 -3176.91139415 0 -5305.75575479 0 2005
0.04450000 0.04448520 41471.25680692 0 2203.19002458 0 9601.56152270 0 -3387.13404412 0 -4499.21658354 0 2151
0.04550000 0.04548030 39963.66073088 0 1125.77365201 0 10270.68373876 0 -3388.05577748 0 -3567.81626397 0 2274
0.04650000 0.04648670 40535.24782055 0 -327.72791645 0 10736.22652944 0 -190.25138582 0 -8695.62127704 0 2311
0.04750000 0.04749250 41001.62241938 0 -612.77957834 0 10237.49009715 0 -1396.96559155 0 -13762.82794201 0 2568
0.04850000 0.04851840 40668.67434473 0 238.75254559 0 11896.09307512 0 77.93896275 0 -13510.36292659 0 2493
0.04950000 0.04949480 40811.76782853 0 1018.93126681 0 14233.24917510 0 -3119.93253559 0 -12495.55697860 0 2644
0.05050000 0.05050630 39423.99708928 0 944.26299620 0 12718.00945657 0 -1704.31870448 0 -12079.54049505 0 2829
0.05150000 0.05149060 39770.99597735 0 950.56000874 0 17618.14632973 0 -1266.56280242 0 -9860.56859684 0 2784
0.05250000 0.05249300 38029.14474007 0 1388.36649374 0 16146.29552301 0 -121.28324919 0 -8285.67474488 0 3055
0.05350000 0.05348950 38502.15132283 0 -137.92053634 0 17249.34057924 0 2083.73562926 0 -6376.64130928 0 3009
0.05450000 0.05448610 38554.08312921 0 -124.21143871 0 17006.43011695 0 2340.86551473 0 -4671.59196250 0 3336
0.05550000 0.05550870 38370.18608325 0 439.60498911 0 14397.47508228 0 1079.81512743 0 -5972.73100656 0 3349
0.05650000 0.05647670 38444.48678458 0 885.50024637 0 16081.54937480 0 1258.37960868 0 -5539.30275503 0 3324
0.05750000 0.05747970 37402.36605531 0 1508.01198012 0 14569.00741244 0 -1805.82178058 0 -6822.68157094 0 3639
0.05850000 0.05849280 36435.89490546 0 346.08839536 0 15699.81687598 0 621.32022477 0 -5118.59892012 0 3846
0.05950000 0.05951020 36550.32472991 0 -330.62013589 0 14134.89348121 0 2903.21278950 0 -3856.11647392 0 3787
0.06050000 0.06049470 36620.01676444 0 -517.55777787 0 12733.18433505 0 3229.12421679 0 -3208.20536578 0 3930
0.06150000 0.06148310 36834.93800641 0 -213.78368812 0 11317.08715596 0 2971.16252317 0 -3810.23213763 0 4083
0.06250000 0.06249100 36850.22529141 0 -414.52035294 0 9123.14818694 0 2788.33333903 0 -4459.85182468 0 4303
0.06350000 0.06350600 37016.13729620 0 -81.20257329 0 9333.14602389 0 1551.04119112 0 -2541.96075631 0 4470
0.06450000 0.06451750 36337.98883760 0 -160.72894074 0 7762.26508424 0 2718.50641669 0 -4191.40260392 0 4479
0.06550000 0.06550280 35653.09598856 0 1592.42926711 0 9454.07294446 0 -840.31395450 0 -3667.84681482 0 4636
0.06650000 0.06648880 34872.88242132 0 2173.33485623 0 6645.02308613 0 -556.60779851 0 -3367.27181428 0 4653
0.06750000 0.06749660 31788.11064121 0 2199.49185049 0 9017.07016599 0 162.59264063 0 -2146.93056767 0 5220
0.06850000 0.06852730 30479.24927010 0 1992.29293556 0 7885.53006015 0 -466.32626403 0 -2392.87600566 0 5029
0.06950000 0.06949320 30294.11575256 0 505.38527719 0 9281.32662402 0 978.94602403 0 -1947.08303832 0 5040
0.07050000 0.07048030 28898.47655780 0 403.03128383 0 9039.51774550 0 489.49886551 0 -1398.58424525 0 5475
0.07150000 0.07148790 30113.47849531 0 -863.41911208 0 9414.98920187 0 673.99953442 0 -365.08284696 0 5509
0.07250000 0.07249820 30111.67999119 0 -458.52412836 0 9177.36184541 0 -98.04455268 0 908.45365517 0 5916
0.07350000 0.07351270 31134.80402073 0 -337.51402698 0 9055.56939474 0 1377.40685927 0 1084.30576740 0 5721
0.07450000 0.07449140 30765.66105072 0 394.00279316 0 8466.98644117 0 1303.02747339 0 1180.69547148 0 6028
0.07550000 0.07549160 29748.26975306 0 1214.12516676 0 7447.53810442 0 815.50359021 0 1289.56117381 0 6183
0.07650000 0.07648840 28839.01351543 0 1736.36579972 0 7838.80267507 0 941.85862101 0 1271.30635702 0 6330
0.07750000 0.07749960 26727.79449514 0 1339.15492484 0 6324.99051917 0 669.54486453 0 1024.46841136 0 6583
0.07850000 0.07848650 26106.52372923 0 612.57275037 0 6781.15860714 0 385.46102267 0 1670.82156531 0 6549
0.07950000 0.07947320 25913.85897571 0 300.18832216 0 6815.25150080 0 -1302.92630753 0 596.06697883 0 6828
0.08050000 0.08048110 25741.42739349 0 123.08624957 0 7700.35158001 0 -1543.59988033 0 1511.54154445 0 7147
0.08150000 0.08149960 26035.70762963 0 287.94500539 0 10161.43585431 0 -1439.10679114 0 2210.95731423 0 7386
0.08250000 0.08250610 26187.23160148 0 91.39626981 0 9642.16275314 0 -698.69299594 0 3016.58599277 0 7227
0.08350000 0.08350160 25934.87899257 0 296.10122156 0 10899.92412603 0 1619.33938496 0 3348.91583163 0 7798
0.08450000 0.08449610 26019.74590559 0 363.51252805 0 10081.57103086 0 1697.33826038 0 4554.23956887 0 7371
0.08550000 0.08548940 25052.26309717 0 800.61085205 0 9030.28917125 0 2365.02167315 0 3570.89620227 0 8256
0.08650000 0.08650700 24398.16963114 0 896.96346199 0 7872.97425329 0 1532.44915481 0 4602.00109382 0 8037
0.08750000 0.08749060 23275.22862311 0 821.29589753 0 6745.08735894 0 1665.24620254 0 3459.40018767 0 8155
0.08850000 0.08849210 22384.51945919 0 732.02489755 0 6239.37048255 0 835.51756883 0 4485.76152461 0 8718
0.08950000 0.08949900 21462.44887973 0 766.54606001 0 4679.19064239 0 665.36446652 0 1747.15682442 0 8571
0.09050000 0.09049190 20882.31889550 0 506.38794324 0 4637.84752900 0 563.71076570 0 1853.09995756 0 8932
0.09150000 0.09150830 20045.90207461 0 531.66029827 0 4215.99714772 0 74.35398202 0 1200.70382978 0 9285
0.09250000 0.09250820 19499.94366860 0 500.75412909 0 3422.20487440 0 -183.59467245 0 -865.10970595 0 9204
0.09350000 0.09350330 18991.19181652 0 574.63780228 0 4432.23354583 0 -972.86258386 0 -106.04564787 0 9349
0.09450000 0.09448040 18592.82315461 0 822.02429170 0 4978.46172745 0 -1464.65679025 0 -687.03306894 0 9564
0.09550000 0.09549270 18645.99143257 0 380.26784203 0 7112.12832726 0 -882.96210744 0 1183.04476748 0 10155
0.09650000 0.09649430 18338.67204158 0 -0.85422538 0 7368.37020132 0 -751.15423697 0 444.15295640 0 9913
0.09750000 0.09749140 18909.92191173 0 -163.28843691 0 8294.06027032 0 106.19897035 0 1968.81121618 0 10476
0.09850000 0.09850240 19038.85217562 0 60.83406454 0 9289.74587142 0 169.57308473 0 894.58943656 0 10575
0.09950000 0.09950330 19449.69795983 0 20.87759782 0 9165.34558978 0 438.63267282 0 2315.87754815 0 10882
0.10050000 0.10051200 18969.49736061 0 232.95124575 0 9072.41913019 0 122.33312597 0 1139.25119224 0 10875
0.10150000 0.10150300 19135.74658492 0 197.51284619 0 8417.17911778 0 267.93327489 0 1374.84399091 0 11118
0.10250000 0.10250800 18569.89222712 0 394.94475969 0 7932.52722086 0 559.43032591 0 -12.52748043 0 11575
0.10350000 0.10349800 18285.50376363 0 602.39771332 0 7592.89095902 0 464.67276431 0 -18.09621121 0 11364
0.10450000 0.10450100 17507.65073304 0 450.15209169 0 6842.28526581 0 225.15360634 0 -235.72094209 0 12093
0.10550000 0.10551000 17421.88456796 0 300.05568248 0 6715.60313207 0 388.25994470 0 23.83265249 0 12067
0.10650000 0.10649700 17075.44771243 0 113.62386978 0 6698.57354622 0 969.94788312 0 865.52448596 0 12054
0.10750000 0.10749900 16944.04450539 0 172.90706174 0 6996.42830928 0 701.61219294 0 1168.36447763 0 12807
0.10850000 0.10850100 16978.21608361 0 133.74463459 0 6766.95042461 0 422.16399544 0 2043.87628177 0 12736
0.10950000 0.10950300 16759.36061388 0 257.15236677 0 7356.35394569 0 964.35565938 0 3007.00895835 0 12933
0.11050000 0.11050200 16384.03528597 0 284.53234382 0 6529.36803076 0 434.47025986 0 3228.83195987 0 13428
0.11150000 0.11150900 16340.64637415 0 176.65469469 0 6718.81795818 0 821.53981965 0 3503.51974179 0 13453
0.11250000 0.11250000 16062.55267506 0 131.28855241 0 6927.41071380 0 937.33088690 0 2859.65526792 0 13668
0.11350000 0.11349100 15761.52804849 0 323.35193112 0 5590.91982318 0 1037.58962296 0 3193.42391007 0 13791
0.11450000 0.11448600 15321.00694634 0 277.37092524 0 5037.12668362 0 423.05313091 0 2324.56657117 0 14205
0.11550000 0.11549300 14953.66248045 0 314.72135949 0 4409.06656468 0 483.89989738 0 1496.00696514 0 14776
0.11650000 0.11649800 14683.10001736 0 376.00426321 0 3773.45272844 0 244.35151372 0 1102.00417197 0 14553
0.11750000 0.11747300 14100.04746394 0 284.68409261 0 3141.58202890 0 -55.80600906 0 -47.01930479 0 14568
0.11850000 0.11849100 14108.92757802 0 300.09839696 0 3359.09986120 0 -692.85797415 0 -6.14881580 0 16015
0.11950000 0.11950300 13823.07782993 0 202.59924065 0 3285.96818754 0 -565.62617259 0 -1020.08230945 0 15270
0.12050000 0.12050700 13732.47818504 0 353.44989752 0 4161.79472990 0 -691.45289281 0 -184.05891133 0 15999
0.12150000 0.12150000 13547.11985448 0 247.63827999 0 4297.24457120 0 -318.08793439 0 -1106.17220527 0 15670
0.12250000 0.12250700 13526.66187015 0 69.39123472 0 5267.27900734 0 -415.32068727 0 101.34784271 0 16887
0.12350000 0.12352200 13564.88008264 0 53.72761274 0 5126.51233823 0 229.67234793 0 -312.80145635 0 16407
0.12450000 0.12449800 13669.19332142 0 -10.13680759 0 5567.17956884 0 127.73763084 0 114.32753452 0 16306
0.12550000 0.12549900 13711.68298118 0 44.05199781 0 5447.02825318 0 135.67915058 0 132.26648902 0 17523
0.12650000 0.12650100 13530.59609791 0 193.04468752 0 5562.81819636 0 358.85889865 0 825.95514726 0 17154
0.12750000 0.12750600 13645.58795489 0 72.09539806 0 5300.77614651 0 378.72225256 0 1174.15341276 0 18007
0.12850000 0.12850300 13536.55364280 0 -28.12230962 0 5337.07220773 0 898.80468058 0 1439.09555049 0 17496
0.12950000 0.12949900 13664.35984161 0 -152.48055123 0 5175.51033477 0 1158.09052286 0 2143.11998707 0 18405
0.13050000 0.13049000 13766.42495024 0 -39.04900898 0 5046.51262698 0 902.11617629 0 2520.09769063 0 18100
0.13150000 0.13148800 13779.12688557 0 143.82187797 0 4727.39055273 0 565.60706348 0 2844.82884960 0 19059
0.13250000 0.13249300 13509.35126803 0 388.96698163 0 5026.02092070 0 110.85349900 0 3370.49788104 0 18957
0.13350000 0.13349100 13228.78462578 0 273.17254219 0 4150.73392958 0 40.13834044 0 3243.10758630 0 19468
0.13450000 0.13450700 12872.11877809 0 255.98333910 0 4734.12370251 0 -7.52246828 0 2810.58982748 0 19953
0.13550000 0.13551000 12824.34601248 0 78.85428894 0 3489.14294950 0 53.94107270 0 2323.35258089 0 19956
0.13650000 0.13649900 12580.31148511 0 108.29883631 0 3493.27950897 0 501.66462180 0 1133.49597906 0 19723
0.13750000 0.13749600 12464.30796957 0 34.14527510 0 2580.87588914 0 267.73993570 0 334.10024135 0 20946
0.13850000 0.13851100 12235.89794671 0 160.83235472 0 2242.43113628 0 384.93496022 0 -49.49044944 0 20955
0.13950000 0.13949800 12161.48483887 0 181.70399500 0 2289.73179455 0 383.30394180 0 -249.50872428 0 20506
0.14050000 0.14048300 11729.50663128 0 414.62039473 0 1763.10730781 0 127.46897929 0 118.08191186 0 21447
0.14150000 0.14148400 11460.96748532 0 443.44816760 0 2254.35746670 0 205.81743895 0 470.35716138 0 21771
0.14250000 0.14249400 11072.06345133 0 340.37477259 0 2381.86016794 0 31.27508734 0 1223.00528083 0 22470
0.14350000 0.14350900 10981.25023407 0 91.90906830 0 3001.80453706 0 54.64102802 0 1690.78496100 0 22519
0.14450000 0.14449900 10990.46756767 0 23.19778054 0 2913.08208084 0 97.45262002 0 2536.76757567 0 22218
0.14550000 0.14550500 11091.16131692 0 -129.24275397 0 2921.68117865 0 194.05634609 0 2590.80138373 0 23559
0.14650000 0.14650700 11126.20966590 0 45.03600437 0 3117.02120705 0 10.23170116 0 2478.49604228 0 23044
0.14750000 0.14750500 11118.95944618 0 276.29407090 0 3197.23449067 0 -28.01350013 0 2450.32697155 0 23649
0.14850000 0.14849900 10874.73382775 0 381.02883409 0 3093.91042915 0 -391.17689357 0 2010.90745317 0 23640
0.14950000 0.14949500 10547.08009959 0 391.16340479 0 3281.30331749 0 -361.90848720 0 2183.29407278 0 24457
0.15050000 0.15050000 10230.27359939 0 271.86188232 0 3173.98882496 0 -306.23916445 0 1903.63792325 0 24591
0.15150000 0.15149900 10130.98493148 0 63.80620500 0 3280.75252560 0 148.74191080 0 1446.01979134 0 25020
0.15250000 0.15250500 10087.53981640 0 11.49468944 0 3502.95770925 0 -22.48152627 0 1153.68418778 0 25297
0.15350000 0.15350100 10086.80917411 0 23.85344770 0 3056.24300855 0 30.27860365 0 563.50056554 0 25452
0.15450000 0.15450400 10076.35536893 0 86.93980142 0 3692.60996838 0 -334.04965842 0 723.00652347 0 26061
0.15550000 0.15549900 10023.06344381 0 64.04911546 0 3629.70728689 0 -281.69632764 0 490.33629399 0 26128
0.15650000 0.15649500 10098.20719395 0 -47.71532588 0 3915.35470327 0 40.93620183 0 786.72302808 0 26331
0.15750000 0.15749700 10179.81431825 0 -21.03575378 0 3699.33187752 0 47.73027595 0 215.23598020 0 27345
0.15850000 0.15849900 10206.17364422 0 -26.91877315 0 3919.33389363 0 330.54257540 0 826.48120971 0 26980
0.15950000 0.15949700 10195.55122928 0 160.73456106 0 3614.45372385 0 336.63838029 0 377.70384960 0 27777
0.16050000 0.16050000 9973.15495456 0 296.50813311 0 3659.64113979 0 159.43514184 0 992.69333988 0 28224
0.16150000 0.16150500 9746.43102932 0 306.48196251 0 3499.83280835 0 265.54688474 0 1083.86176169 0 28075
0.16250000 0.16249700 9489.46975361 0 275.64211316 0 3677.80603137 0 429.37150069 0 1562.54037681 0 28590
0.16350000 0.16349900 9277.07765805 0 233.15582559 0 3581.40621070 0 422.78560342 0 1796.68313154 0 29163
0.16450000 0.16449100 9136.20982309 0 177.72255651 0 3676.52459719 0 168.14552209 0 2072.42753462 0 28996
0.16550000 0.16550500 9011.95566991 0 68.08360982 0 3315.05899163 0 118.69902359 0 1991.06770463 0 30777
0.16650000 0.16650700 8975.14253876 0 9.11098580 0 3560.67845075 0 183.53622107 0 1984.75045892 0 29211
0.16750000 0.16749900 8937.13789864 0 -30.42922837 0 3282.88824924 0 21.86295327 0 1794.18770708 0 30922
0.16850000 0.16850800 8873.87551633 0 -42.80833221 0 3048.43075629 0 155.10299505 0 1238.89956097 0 30867
0.16950000 0.16949900 8971.07342320 0 30.14967339 0 2938.93557752 0 -71.76177555 0 891.18576751 0 30852
0.17050000 0.17049200 9019.41946199 0 51.60593991 0 2449.10174062 0 -27.18652545 0 217.57965587 0 31257
0.17150000 0.17149500 8937.74489378 0 109.81621176 0 2739.97605958 0 -94.77689552 0 285.11236140 0 32608
0.17250000 0.17250900 8853.61986371 0 82.00065949 0 2327.61278752 0 13.57769442 0 185.02897949 0 32361
0.17350000 0.17350400 8718.41731672 0 118.28311951 0 2536.38539354 0 170.36105435 0 -16.28095852 0 32508
0.17450000 0.17449800 8770.29291984 0 138.96591686 0 2471.96522420 0 95.70267551 0 263.73489184 0 32791
0.17550000 0.17549800 8640.45216325 0 78.70343941 0 2409.78194436 0 119.86917533 0 -209.82135874 0 33633
0.17650000 0.17650100 8586.30594868 0 118.10102097 0 2526.98820953 0 69.65280466 0 227.19041225 0 33984
0.17750000 0.17750300 8529.93408526 0 -1.92154428 0 2293.47493125 0 -150.17509377 0 -270.16454406 0 34069
