### header ###
fiducial parameters:
Omega_m = 0.31
Omega_nu = 0
Omega_de = 0.69
Omega_k = 0
H_0 = 100
w_de = -1
zeff = 0
beta = 0
fgrowth = 0
b_1 = 2
gamma = 0.55
Lx = 3500 Ly = 3500 Lz = 3500
nx = 700 ny = 700 nz = 700
xoffset = 857.220397 yoffset = 15.9954215 zoffset = 262.898189
bins = 400 dk = 0.001
kx_ny = 0.628318531 ky_ny = 0.628318531 kz_ny = 0.628318531
############################
A(data) = 3.05343152 (not used)
A(ran) = 3.05633606 (used)
Ngal = 186756
weighted Ngal = 0
Nran = 9360983
weighted Nran = 0
SN(data) = 3425.28844
SN(ran) = 68.6338217
SN(data+ran) = 3493.92226
############################
13 columns: k_central k_mean P_0(k) sigma^{lin}_{P_0(k)} P^img_1(k) sigma^{lin}_{P_1(k)} P_2(k) sigma^{lin}_{P_2(k)} P^img_3(k) sigma^{lin}_{P_3(k)} P_4(k) sigma^{lin}_{P_4(k)} N_modes
### header ###
0.00050000 0 0 0 0 0 0 0 0 0 0 0 0
0.00150000 0.00179520 37925.73075335 0 -41799.48380826 0 -46015.40227143 0 77638.16294039 0 -18217.27301369 0 3
0.00250000 0.00253879 62943.03542675 0 -32711.30528575 0 7782.94788158 0 -72238.15432922 0 -6700.30460643 0 6
0.00350000 0.00331552 74688.16656255 0 -12169.24088788 0 -28046.66004540 0 -12056.38475454 0 57832.58597841 0 7
0.00450000 0.00420575 74734.92766959 0 8687.69661827 0 -496.54000913 0 -48609.18242761 0 31507.09437294 0 24
0.00550000 0.00557378 60855.19695998 0 9347.99492351 0 3489.36776252 0 -17377.59640408 0 35434.57773835 0 45
0.00650000 0.00659388 52996.18359490 0 -7812.19605479 0 31732.91904612 0 32469.18166900 0 7246.63395391 0 40
0.00750000 0.00754703 63790.24327235 0 -19397.31652743 0 10244.20076564 0 15976.44929047 0 1095.22268739 0 57
0.00850000 0.00846663 84366.81646796 0 -24681.09681004 0 7932.16752004 0 27829.26586027 0 5931.25300537 0 75
0.00950000 0.00948925 97174.63872387 0 -14759.64884884 0 13734.83872169 0 9861.13062938 0 15956.44093216 0 112
0.01050000 0.01054430 122112.80921612 0 -9195.32440528 0 -1817.65818580 0 8934.04671969 0 21909.26474628 0 105
0.01150000 0.01145670 112572.86894073 0 9308.89994027 0 17726.50620277 0 9645.61363291 0 36759.85045953 0 144
0.01250000 0.01249090 105439.43958034 0 18527.96459989 0 11825.95141455 0 9711.80982507 0 36198.94198805 0 169
0.01350000 0.01339930 86011.77329593 0 18385.65796164 0 36355.52425274 0 28291.03179230 0 37567.94084058 0 180
0.01450000 0.01448870 75240.75695248 0 11215.96626199 0 27518.46186755 0 20096.82222242 0 49930.52092103 0 267
0.01550000 0.01550050 66725.06477170 0 6135.84408932 0 22799.41187767 0 5281.63331832 0 44673.60579367 0 238
0.01650000 0.01653350 69510.83524236 0 -2363.68403571 0 26167.67286921 0 11155.44659845 0 45290.15548627 0 315
0.01750000 0.01747870 68612.70724896 0 -1665.63962532 0 33716.10705459 0 1936.46062338 0 49599.14653748 0 297
0.01850000 0.01844180 74950.86057013 0 4175.54204574 0 26290.53318170 0 -10489.51672719 0 35291.03462851 0 388
0.01950000 0.01947590 69120.89706850 0 6450.54858784 0 29821.33398281 0 5193.74267025 0 22893.15890477 0 399
0.02050000 0.02045430 64954.43746855 0 6238.30262073 0 27180.11828055 0 1503.72929219 0 18724.56358118 0 462
0.02150000 0.02154770 59765.07865208 0 1036.73420944 0 23544.77942764 0 4800.29741337 0 -1884.05670967 0 571
0.02250000 0.02255340 61065.73434817 0 -596.74029381 0 14702.43393661 0 3727.78196452 0 -10765.33981483 0 510
0.02350000 0.02348930 56133.44921392 0 -2130.09207287 0 8317.63191490 0 3086.04197364 0 -16123.02737600 0 555
0.02450000 0.02439640 63498.54838588 0 -1916.31737727 0 10841.12428206 0 -6875.29905701 0 -12641.68543810 0 592
0.02550000 0.02547300 60720.30915120 0 453.38265471 0 12460.14892880 0 -2789.12018458 0 -10767.55422303 0 837
0.02650000 0.02652900 62262.07680547 0 2942.16164428 0 21255.28368675 0 -2771.03397755 0 -8932.28193753 0 723
0.02750000 0.02749970 60358.36019767 0 1040.47622207 0 24220.00531705 0 -1864.20572048 0 1293.56284547 0 826
0.02850000 0.02848090 65944.62639145 0 -319.69309931 0 35074.20247591 0 3770.95730398 0 3343.56528189 0 831
0.02950000 0.02946900 66753.95324408 0 -777.49108163 0 44178.00550294 0 3860.42164315 0 19125.40518624 0 996
0.03050000 0.03053250 69337.16718857 0 1357.46594488 0 47450.49615025 0 8222.23251215 0 24922.88320726 0 1041
0.03150000 0.03150510 66133.91894976 0 3203.31568271 0 39377.79801478 0 10503.91600078 0 25368.12538272 0 1036
0.03250000 0.03246190 62579.51278211 0 559.85634657 0 39547.75665383 0 14118.36972463 0 38366.36426200 0 1059
0.03350000 0.03345080 61666.32231672 0 2231.74127743 0 27545.21461629 0 9776.96063671 0 22181.40090048 0 1302
0.03450000 0.03451200 59181.46406613 0 993.45545600 0 23198.79219814 0 7473.47028566 0 13162.46478647 0 1339
0.03550000 0.03553350 56515.40652576 0 2084.48875286 0 20835.33297544 0 -6882.49307348 0 2526.01027292 0 1365
0.03650000 0.03647120 55713.72331562 0 2135.15036570 0 18643.06886338 0 -10138.26887315 0 1965.21420795 0 1308
0.03750000 0.03744890 53389.71877699 0 2804.77841105 0 22173.75725798 0 -13250.02945566 0 -7036.91713322 0 1579
0.03850000 0.03847530 52906.25838905 0 3063.97657625 0 20443.25907795 0 -4217.41346971 0 -19955.63964924 0 1662
0.03950000 0.03950240 48814.77392948 0 2486.67923601 0 24031.61201080 0 1078.00201047 0 -22747.92969732 0 1683
0.04050000 0.04050350 47849.31443819 0 2802.66516871 0 18717.93159725 0 8956.28072684 0 -19237.58688054 0 1822
0.04150000 0.04152450 44097.97206974 0 1336.13118979 0 16951.46333487 0 8827.71016378 0 -16980.35180725 0 1887
0.04250000 0.04250150 42639.61004390 0 1042.52426863 0 11069.62423012 0 9156.61160416 0 -14012.93242078 0 1920
0.04350000 0.04349210 41301.07335485 0 838.85042178 0 10491.62996953 0 6502.62652267 0 -7535.50743704 0 2005
0.04450000 0.04448520 39581.70341904 0 1144.59050133 0 9962.94844370 0 1926.14170601 0 -1190.07017419 0 2151
0.04550000 0.04548030 39798.08594561 0 1254.77135980 0 9868.33588650 0 1015.19150231 0 2747.55225818 0 2274
0.04650000 0.04648670 39991.87476421 0 422.27640195 0 13445.05474585 0 -1394.16666951 0 6918.26082410 0 2311
0.04750000 0.04749250 38233.49977036 0 1075.24692697 0 17850.82779986 0 -213.93206471 0 5367.37700210 0 2568
0.04850000 0.04851840 39430.17944719 0 1109.04756372 0 18448.60560573 0 745.28324509 0 8048.96912178 0 2493
0.04950000 0.04949480 37483.74836661 0 1843.41051663 0 21446.03752966 0 -1843.77021745 0 5272.28109691 0 2644
0.05050000 0.05050630 38316.34336625 0 1758.35251255 0 22228.38682053 0 365.88767755 0 10755.21198852 0 2829
0.05150000 0.05149060 35445.81838908 0 365.04238062 0 21287.88157387 0 969.33077140 0 4247.51593237 0 2784
0.05250000 0.05249300 37249.71801839 0 -189.84110207 0 17569.24949905 0 3145.44881275 0 7223.29836299 0 3055
0.05350000 0.05348950 36490.63687452 0 -349.29647708 0 19107.86977110 0 2894.93967056 0 -302.32854206 0 3009
0.05450000 0.05448610 35779.44090277 0 246.74577233 0 14525.05646808 0 3551.80957733 0 1896.18537181 0 3336
0.05550000 0.05550870 35266.41760341 0 849.83141348 0 12555.02002097 0 1994.20384619 0 -1147.77160549 0 3349
0.05650000 0.05647670 32885.19815256 0 1207.68427389 0 10239.20991672 0 985.03396047 0 -2493.63719881 0 3324
0.05750000 0.05747970 32527.18342678 0 1559.37051331 0 10177.47626290 0 611.84098400 0 -1298.85719197 0 3639
0.05850000 0.05849280 30973.50068274 0 744.99660850 0 9538.49023145 0 -1347.52920963 0 -2478.34991382 0 3846
0.05950000 0.05951020 32054.06443751 0 199.33270754 0 13222.93948740 0 -1830.25895527 0 2393.93262683 0 3787
0.06050000 0.06049470 32496.83366980 0 141.48831888 0 13927.84069474 0 -1524.42333018 0 -410.89074682 0 3930
0.06150000 0.06148310 33208.59167409 0 314.74046860 0 17625.22793969 0 -326.22728958 0 4113.13395288 0 4083
0.06250000 0.06249100 32793.92406862 0 731.76523852 0 21217.51510030 0 1381.16123662 0 5528.55669293 0 4303
0.06350000 0.06350600 31824.75516260 0 657.43193930 0 17650.06977780 0 3980.02216692 0 4658.93498978 0 4470
0.06450000 0.06451750 32185.69245757 0 484.09098845 0 20489.57055896 0 4898.46201620 0 7642.86689217 0 4479
0.06550000 0.06550280 30596.15203770 0 204.16955955 0 15066.51861379 0 4029.12132932 0 5498.63408068 0 4636
0.06650000 0.06648880 30450.36079772 0 473.66528489 0 15144.86594939 0 3687.84393247 0 8313.27054242 0 4653
0.06750000 0.06749660 29429.03527230 0 420.29242709 0 11257.84892661 0 1554.30097983 0 6332.20701694 0 5220
0.06850000 0.06852730 28895.77880162 0 263.30662305 0 9995.88355034 0 1433.68879748 0 6552.84975014 0 5029
0.06950000 0.06949320 28847.66881649 0 -335.14899407 0 7423.28078014 0 2081.59990562 0 5115.27168750 0 5040
0.07050000 0.07048030 28892.96863894 0 -327.63911531 0 6266.04454674 0 1625.94888759 0 4012.76618250 0 5475
0.07150000 0.07148790 28622.29376934 0 -278.64449097 0 4528.74577301 0 1131.24784892 0 764.50813004 0 5509
0.07250000 0.07249820 28615.66178541 0 343.23664227 0 3341.67685256 0 -752.17151586 0 -923.38348747 0 5916
0.07350000 0.07351270 28058.68754169 0 1004.25210102 0 4387.03488924 0 -2484.71212213 0 -2360.94131693 0 5721
0.07450000 0.07449140 27044.44362623 0 1244.55360828 0 4786.19039670 0 -1741.62642426 0 -2514.23007095 0 6028
0.07550000 0.07549160 26002.66011648 0 1240.65310248 0 6296.10204679 0 -1625.25196724 0 -2675.89310977 0 6183
0.07650000 0.07648840 25168.60383224 0 995.01341019 0 7504.28090931 0 -335.81668872 0 -1738.64765182 0 6330
0.07750000 0.07749960 24711.10934749 0 342.14292695 0 8489.59138979 0 466.53421607 0 -609.21067173 0 6583
0.07850000 0.07848650 25278.53739639 0 -144.71326158 0 9078.71389460 0 1547.48914548 0 250.79015846 0 6549
0.07950000 0.07947320 25128.81192865 0 -18.72984669 0 9051.25298486 0 509.14077860 0 1111.94427942 0 6828
0.08050000 0.08048110 25208.50814234 0 -161.92269785 0 9327.60438308 0 348.94801690 0 1441.65841885 0 7147
0.08150000 0.08149960 25462.54684886 0 271.95405566 0 9527.66548479 0 -605.59680252 0 1989.28044116 0 7386
0.08250000 0.08250610 25496.83083359 0 704.66402961 0 9862.01864079 0 -2136.36435598 0 923.35650991 0 7227
0.08350000 0.08350160 24555.53874137 0 699.19545303 0 10122.04861415 0 -1105.39435223 0 1319.21401044 0 7798
0.08450000 0.08449610 23926.96155250 0 958.15981270 0 9596.61563638 0 -746.53320545 0 188.01224819 0 7371
0.08550000 0.08548940 23672.58562645 0 668.37246466 0 9761.94312733 0 541.51497677 0 -629.94405201 0 8256
0.08650000 0.08650700 22863.25877382 0 634.90792337 0 10216.80729981 0 687.37141253 0 -988.14986885 0 8037
0.08750000 0.08749060 22571.45148084 0 570.22359874 0 10552.11591112 0 676.45898880 0 -924.51879319 0 8155
0.08850000 0.08849210 21795.05973486 0 204.29882704 0 9583.35166852 0 1573.57869583 0 431.99956483 0 8718
0.08950000 0.08949900 21523.37320669 0 401.32158085 0 9765.41648841 0 1832.66445453 0 395.63268752 0 8571
0.09050000 0.09049190 21105.33340600 0 404.39589883 0 7979.22088400 0 2440.25534849 0 1433.44150317 0 8932
0.09150000 0.09150830 20596.58155392 0 206.41206937 0 7535.20393947 0 2418.72950234 0 1973.28499517 0 9285
0.09250000 0.09250820 20080.18605934 0 472.30741428 0 5329.70958150 0 1634.86272362 0 1369.92058589 0 9204
0.09350000 0.09350330 19840.31057274 0 564.41892670 0 5969.92084388 0 695.46468105 0 2152.41600522 0 9349
0.09450000 0.09448040 18921.61218849 0 786.45774872 0 4705.67361551 0 -539.90419152 0 1064.43342097 0 9564
0.09550000 0.09549270 18560.22526749 0 765.74909788 0 6368.26702448 0 -1735.25297530 0 1970.72212681 0 10155
0.09650000 0.09649430 18088.23034330 0 383.58720620 0 6164.13680721 0 -598.70628362 0 1841.98295399 0 9913
0.09750000 0.09749140 18052.14785445 0 245.40363863 0 7737.63681849 0 -276.65489579 0 2324.91503134 0 10476
0.09850000 0.09850240 17930.86123306 0 -19.01457237 0 7567.31847861 0 286.42189721 0 877.61605395 0 10575
0.09950000 0.09950330 18291.79852803 0 -79.91057289 0 7939.82240318 0 795.31762963 0 2590.66649592 0 10882
0.10050000 0.10051200 17782.48464341 0 -102.95278283 0 6210.43704757 0 1215.33915703 0 1039.56797749 0 10875
0.10150000 0.10150300 18166.46527238 0 -72.05021065 0 6291.43717674 0 1727.20466937 0 1745.59437397 0 11118
0.10250000 0.10250800 17592.29283304 0 -10.14313607 0 4948.73020627 0 1008.25826894 0 1930.77285411 0 11575
0.10350000 0.10349800 17679.52028272 0 300.51654916 0 4482.95136193 0 1259.82965263 0 685.98881249 0 11364
0.10450000 0.10450100 17346.68461457 0 179.51993656 0 3186.30857816 0 421.78968177 0 1663.49266103 0 12093
0.10550000 0.10551000 17057.57507777 0 293.96437385 0 2817.00823904 0 245.73748596 0 525.00695711 0 12067
0.10650000 0.10649700 17324.54053263 0 90.63651423 0 2983.29118531 0 424.24576395 0 1719.07767889 0 12054
0.10750000 0.10749900 16426.07531970 0 251.51967669 0 2442.59340384 0 -50.47119622 0 432.67400387 0 12807
0.10850000 0.10850100 16822.19585146 0 24.59971450 0 2384.94010625 0 563.26226374 0 1014.79470734 0 12736
0.10950000 0.10950300 16523.30694853 0 318.60837651 0 2293.73346621 0 77.21405319 0 256.88821148 0 12933
0.11050000 0.11050200 16464.18112568 0 403.05264107 0 1657.44519094 0 -152.73346587 0 405.47949756 0 13428
0.11150000 0.11150900 15482.53509735 0 517.70278226 0 2397.22613749 0 -249.00963938 0 323.71837634 0 13453
0.11250000 0.11250000 15431.72735604 0 483.58853136 0 2120.90846122 0 -779.91119373 0 44.59964231 0 13668
0.11350000 0.11349100 15033.35869413 0 477.09143524 0 2931.02215941 0 -812.39330215 0 225.69315757 0 13791
0.11450000 0.11448600 14920.95218682 0 315.34521561 0 3657.02206817 0 -1238.47241624 0 -473.35841513 0 14205
0.11550000 0.11549300 14590.13983581 0 177.78662822 0 4728.93052188 0 -630.85004845 0 245.11812610 0 14776
0.11650000 0.11649800 14634.42799969 0 191.10342714 0 4732.16782929 0 -635.43960615 0 -249.66384526 0 14553
0.11750000 0.11747300 14947.92974858 0 21.78100892 0 5842.26077353 0 -600.99712824 0 -41.62896314 0 14568
0.11850000 0.11849100 14800.00278496 0 137.35962787 0 6076.96556079 0 -353.48474354 0 -362.46602347 0 16015
0.11950000 0.11950300 14825.29424910 0 223.91488663 0 6325.32773869 0 -256.98937734 0 -825.39199066 0 15270
0.12050000 0.12050700 14568.89500593 0 195.80089508 0 6374.85404581 0 -221.91292673 0 -1197.32039391 0 15999
0.12150000 0.12150000 14628.35804830 0 120.12658623 0 6435.77837278 0 -520.08355209 0 -1846.60286144 0 15670
0.12250000 0.12250700 14434.45682319 0 107.55234470 0 6495.89337288 0 382.91389122 0 -2258.92117090 0 16887
0.12350000 0.12352200 14352.17525984 0 190.51778924 0 6233.77263849 0 234.05507765 0 -2384.19822330 0 16407
0.12450000 0.12449800 14165.69286421 0 70.94008398 0 5661.82584799 0 686.42719786 0 -2986.78702768 0 16306
0.12550000 0.12549900 13902.21201108 0 220.90576443 0 5151.82628368 0 1106.53303015 0 -2621.66821064 0 17523
0.12650000 0.12650100 13802.05781306 0 127.23067749 0 4614.88287956 0 910.19820416 0 -1911.76491372 0 17154
0.12750000 0.12750600 13515.30881291 0 241.34576371 0 3950.53794006 0 1269.41792770 0 -1643.30445232 0 18007
0.12850000 0.12850300 13289.70895274 0 214.51320636 0 4101.42119482 0 714.39506095 0 -942.78035437 0 17496
0.12950000 0.12949900 13088.83852418 0 341.82256840 0 3695.77983189 0 604.67169697 0 -360.45057480 0 18405
0.13050000 0.13049000 12860.20368831 0 280.75098892 0 4183.00583783 0 341.92935459 0 448.55367116 0 18100
0.13150000 0.13148800 12376.06886133 0 276.07937447 0 4010.20331414 0 393.34184290 0 1000.83269507 0 19059
0.13250000 0.13249300 12435.75671671 0 126.33592170 0 4021.37652096 0 557.68577691 0 1057.12474987 0 18957
0.13350000 0.13349100 12177.10934339 0 85.03417390 0 3916.79350656 0 549.41378204 0 1472.14306363 0 19468
0.13450000 0.13450700 12194.08272599 0 174.39757203 0 3887.37672360 0 137.36187600 0 1327.25107571 0 19953
0.13550000 0.13551000 11997.25893169 0 157.33201609 0 3658.25853975 0 113.49909856 0 1479.26963620 0 19956
0.13650000 0.13649900 11962.97494696 0 246.96496502 0 3841.78464424 0 -236.99113562 0 1681.34281439 0 19723
0.13750000 0.13749600 11808.07877989 0 99.95939754 0 4160.77183068 0 -273.70422497 0 934.93325609 0 20946
0.13850000 0.13851100 11894.06975798 0 -39.29956309 0 3934.59869732 0 -101.61930443 0 1444.99689212 0 20955
0.13950000 0.13949800 11805.60583673 0 92.33610062 0 3949.88598232 0 53.51257909 0 420.86120402 0 20506
0.14050000 0.14048300 11792.22946236 0 155.44358676 0 3935.52043068 0 19.01333590 0 757.85254074 0 21447
0.14150000 0.14148400 11559.32317921 0 252.91126925 0 3420.78855241 0 84.80227928 0 45.37794497 0 21771
0.14250000 0.14249400 11383.74421480 0 191.80596781 0 3338.48450776 0 221.35988672 0 89.91452723 0 22470
0.14350000 0.14350900 11172.15020544 0 10.78588772 0 2730.84865119 0 487.65090253 0 -568.59258032 0 22519
0.14450000 0.14449900 11285.50092741 0 -40.45892380 0 2525.35831518 0 437.37147181 0 -528.70625526 0 22218
0.14550000 0.14550500 11082.53973781 0 71.49436047 0 2202.29077252 0 69.76993224 0 -1015.93113713 0 23559
0.14650000 0.14650700 11162.17974824 0 123.01655753 0 2585.93418197 0 -202.69591024 0 -557.77345399 0 23044
0.14750000 0.14750500 10895.42786574 0 321.53319383 0 2485.48772703 0 -262.71311669 0 -645.31226969 0 23649
0.14850000 0.14849900 10675.66190330 0 407.31846802 0 2847.04325780 0 -178.74320760 0 -413.50082592 0 23640
0.14950000 0.14949500 10411.94499650 0 343.16132991 0 3113.08697930 0 251.59049279 0 34.27847681 0 24457
0.15050000 0.15050000 10170.66442856 0 133.33997117 0 3052.42118730 0 401.95780168 0 82.57101011 0 24591
0.15150000 0.15149900 10148.77888159 0 83.17665637 0 2672.61083975 0 389.20191124 0 95.94524875 0 25020
0.15250000 0.15250500 10002.76282859 0 43.33057284 0 2770.65179543 0 268.30309230 0 186.82748360 0 25297
0.15350000 0.15350100 9867.02073036 0 155.73471962 0 2400.03630018 0 86.56503812 0 233.63917357 0 25452
0.15450000 0.15450400 9833.15264971 0 185.64496715 0 2543.50072546 0 -68.30302732 0 392.67527231 0 26061
0.15550000 0.15549900 9642.52245396 0 135.40263058 0 2464.63631993 0 -119.29815027 0 9.44221406 0 26128
0.15650000 0.15649500 9605.79924803 0 125.07022442 0 2650.89390254 0 -53.07531778 0 -222.00060381 0 26331
0.15750000 0.15749700 9603.19141706 0 47.88640859 0 2495.59307204 0 -109.08984091 0 -541.86231288 0 27345
0.15850000 0.15849900 9483.97307540 0 79.07853993 0 2446.80864787 0 -132.73859635 0 -716.58249158 0 26980
0.15950000 0.15949700 9513.63715268 0 29.38991781 0 2387.99756324 0 -44.94192013 0 -692.13070404 0 27777
0.16050000 0.16050000 9372.90420553 0 57.01381698 0 2325.60071104 0 -62.21778864 0 -852.57300819 0 28224
0.16150000 0.16150500 9395.19441593 0 123.38187868 0 2319.81177591 0 0.38104120 0 -1046.67094469 0 28075
0.16250000 0.16249700 9215.75990831 0 90.46205933 0 2196.82781626 0 51.52073578 0 -1097.01781931 0 28590
0.16350000 0.16349900 9211.65707079 0 215.10558865 0 2583.55116401 0 156.61935883 0 -607.93148568 0 29163
0.16450000 0.16449100 9024.01688814 0 146.92879383 0 2617.58785442 0 -50.22378950 0 -768.42324869 0 28996
0.16550000 0.16550500 9058.52568589 0 104.94159116 0 2606.13363133 0 284.24795536 0 -232.33300996 0 30777
0.16650000 0.16650700 8940.76862883 0 96.17894188 0 2888.54374029 0 187.05454475 0 201.05589930 0 29211
0.16750000 0.16749900 8906.51836605 0 128.39745704 0 2700.83611374 0 214.93023450 0 648.19549660 0 30922
0.16850000 0.16850800 8881.36178971 0 70.64940075 0 2794.25716196 0 388.11831250 0 717.41542380 0 30867
0.16950000 0.16949900 8785.60268614 0 29.35552142 0 2464.46771017 0 252.77076112 0 866.94305608 0 30852
0.17050000 0.17049200 8817.85211308 0 -44.00298857 0 2221.99563325 0 331.04840468 0 685.62911166 0 31257
0.17150000 0.17149500 8763.82954567 0 -51.22240891 0 2310.67312687 0 262.16682106 0 691.95759802 0 32608
0.17250000 0.17250900 8860.13944113 0 91.10097791 0 1833.63115049 0 95.46313724 0 704.64154831 0 32361
0.17350000 0.17350400 8760.81705127 0 136.08493807 0 2235.33828567 0 149.70860676 0 833.60778228 0 32508
0.17450000 0.17449800 8611.09158354 0 177.86418871 0 1695.86573513 0 -133.28151978 0 883.23413119 0 32791
0.17550000 0.17549800 8558.21556250 0 136.84593013 0 2324.63401507 0 -64.33395355 0 991.56477854 0 33633
0.17650000 0.17650100 8450.02429921 0 238.81099698 0 2291.24928240 0 -268.58860483 0 1017.26203018 0 33984
0.17750000 0.17750300 8241.38658100 0 257.89312566 0 2617.77894549 0 -328.30343777 0 1004.29706363 0 34069
