### header ###
fiducial parameters:
Omega_m = 0.31
Omega_nu = 0
Omega_de = 0.69
Omega_k = 0
H_0 = 100
w_de = -1
zeff = 0
beta = 0
fgrowth = 0
b_1 = 2
gamma = 0.55
Lx = 3500 Ly = 3500 Lz = 3500
nx = 700 ny = 700 nz = 700
xoffset = 857.220397 yoffset = 15.9954215 zoffset = 262.898189
bins = 400 dk = 0.001
kx_ny = 0.628318531 ky_ny = 0.628318531 kz_ny = 0.628318531
############################
A(data) = 3.08738721 (not used)
A(ran) = 3.0873943 (used)
Ngal = 188200
weighted Ngal = 0
Nran = 9360983
weighted Nran = 0
SN(data) = 3445.66596
SN(ran) = 69.331273
SN(data+ran) = 3514.99723
############################
13 columns: k_central k_mean P_0(k) sigma^{lin}_{P_0(k)} P^img_1(k) sigma^{lin}_{P_1(k)} P_2(k) sigma^{lin}_{P_2(k)} P^img_3(k) sigma^{lin}_{P_3(k)} P_4(k) sigma^{lin}_{P_4(k)} N_modes
### header ###
0.00050000 0 0 0 0 0 0 0 0 0 0 0 0
0.00150000 0.00179520 16603.79000776 0 -20191.46850157 0 -13520.70432527 0 29461.18353339 0 -45574.31913675 0 3
0.00250000 0.00253879 31437.17752539 0 -20473.04680238 0 -4862.13223304 0 -21393.88091027 0 47911.70004975 0 6
0.00350000 0.00331552 36232.10190771 0 -6886.06760041 0 -11341.02974202 0 -30719.79919574 0 -33091.46409347 0 7
0.00450000 0.00420575 40975.09448365 0 1425.66297286 0 -6338.85024152 0 -34924.58941468 0 4013.68791586 0 24
0.00550000 0.00557378 36945.88322913 0 2515.25297017 0 2745.61886625 0 -26859.42251520 0 1835.42965461 0 45
0.00650000 0.00659388 42996.16348508 0 -1567.65487290 0 19766.45949743 0 -24512.82426859 0 -3455.80317943 0 40
0.00750000 0.00754703 45114.12689582 0 -13135.48722471 0 10803.70415578 0 1871.12996133 0 -2326.55616635 0 57
0.00850000 0.00846663 54827.39800548 0 -10772.16288982 0 15872.47327120 0 16995.30187272 0 -999.42761373 0 75
0.00950000 0.00948925 73142.91430656 0 -18966.91201094 0 -3221.09839217 0 22525.58962586 0 44.44564540 0 112
0.01050000 0.01054430 73176.63625875 0 -9604.34920408 0 -5071.12965208 0 18421.40323096 0 -8271.57896886 0 105
0.01150000 0.01145670 87055.58012281 0 -6480.90958546 0 -4892.24593635 0 -1399.66334772 0 -14039.34794999 0 144
0.01250000 0.01249090 81231.34935306 0 -280.01922255 0 -20344.11653850 0 -9729.83982884 0 -5044.84901067 0 169
0.01350000 0.01339930 87279.94351140 0 2725.90276487 0 -332.85028099 0 -18966.34997840 0 10311.68963263 0 180
0.01450000 0.01448870 81136.02863486 0 -46.76245592 0 -18550.67071437 0 -5715.83717476 0 -2461.99476701 0 267
0.01550000 0.01550050 76646.51273290 0 -5277.86770033 0 -12858.62999721 0 3594.88375093 0 -24554.97670884 0 238
0.01650000 0.01653350 81629.38079544 0 -1058.54219592 0 -22801.43519480 0 -9528.27247993 0 -9539.09722659 0 315
0.01750000 0.01747870 82232.55411367 0 -334.12047452 0 -17885.22419109 0 -9561.00525486 0 -17830.81944156 0 297
0.01850000 0.01844180 79879.54869615 0 3895.94209946 0 -18083.17205047 0 -18151.96483294 0 -3305.08853443 0 388
0.01950000 0.01947590 78477.16511095 0 5022.22158075 0 2215.58846233 0 -19152.83237403 0 -526.27377844 0 399
0.02050000 0.02045430 74473.02050756 0 4106.05234292 0 -1177.85158685 0 278.41855389 0 -1070.35611984 0 462
0.02150000 0.02154770 76663.59852201 0 159.89825665 0 13381.09544319 0 9537.14135336 0 11138.90036057 0 571
0.02250000 0.02255340 73643.79770313 0 -671.39732377 0 3974.63789522 0 5777.87432614 0 -11228.78060382 0 510
0.02350000 0.02348930 79927.43386826 0 -864.67244464 0 16706.52955544 0 11291.34606579 0 24019.47210801 0 555
0.02450000 0.02439640 74015.86324233 0 2522.66055900 0 4819.02433749 0 -2626.67030022 0 -414.89241848 0 592
0.02550000 0.02547300 74096.23389505 0 6069.42308415 0 17988.30095830 0 -3210.84691870 0 30251.62609279 0 837
0.02650000 0.02652900 67022.15517052 0 8845.96498056 0 19907.75447712 0 -7495.59188630 0 16464.18112568 0 723
0.02750000 0.02749970 62806.68633338 0 6638.34613960 0 26152.72280374 0 -1167.34157841 0 36631.81944771 0 826
0.02850000 0.02848090 56413.11660410 0 5064.25037383 0 24413.68172915 0 6115.65588061 0 15117.10154208 0 831
0.02950000 0.02946900 53624.64837727 0 2976.06344689 0 26306.83212526 0 8113.55790088 0 21890.38045305 0 996
0.03050000 0.03053250 50168.93512304 0 2586.40628930 0 24790.24352864 0 6463.31796707 0 12609.53717701 0 1041
0.03150000 0.03150510 48377.06299001 0 3011.12303652 0 24644.00266262 0 4110.87458208 0 9626.98787465 0 1036
0.03250000 0.03246190 45227.09543566 0 1334.44509218 0 18338.78444809 0 2077.45210550 0 14956.47264313 0 1059
0.03350000 0.03345080 45622.76634140 0 -277.12925125 0 18085.53258712 0 1649.03718419 0 10290.44480275 0 1302
0.03450000 0.03451200 47665.41739223 0 -520.12289436 0 18499.07612751 0 2993.39653031 0 9245.98601813 0 1339
0.03550000 0.03553350 46854.85406802 0 1583.88637255 0 16643.91913087 0 633.96708090 0 7602.90637882 0 1365
0.03650000 0.03647120 45700.32683144 0 2004.71385462 0 20107.16362109 0 1240.22595775 0 13814.75974839 0 1308
0.03750000 0.03744890 43879.11660000 0 2974.74829075 0 19189.47689541 0 824.84457097 0 15899.56323947 0 1579
0.03850000 0.03847530 42931.08011735 0 -47.82649592 0 16138.31466099 0 5115.51898182 0 11030.40559972 0 1662
0.03950000 0.03950240 42989.86872068 0 -1285.08739482 0 16804.66043632 0 4929.07030814 0 6770.24393528 0 1683
0.04050000 0.04050350 43549.31590756 0 -687.24214504 0 11392.84914189 0 -685.72690532 0 602.00878681 0 1822
0.04150000 0.04152450 44176.76903136 0 187.84813469 0 13922.33277588 0 -1910.48347954 0 -622.52971878 0 1887
0.04250000 0.04250150 41656.27791795 0 819.35800934 0 9512.53556891 0 -2428.10420505 0 -5023.98636292 0 1920
0.04350000 0.04349210 43549.42831406 0 1136.44102955 0 13402.45267958 0 -5482.66111599 0 -7925.16459463 0 2005
0.04450000 0.04448520 42184.58850231 0 702.12813881 0 13154.48392445 0 -1259.38002660 0 -6551.14117123 0 2151
0.04550000 0.04548030 42745.60938029 0 122.82546647 0 16111.22469273 0 -417.99708621 0 -5135.49361817 0 2274
0.04650000 0.04648670 42068.58498676 0 404.20930403 0 18437.58976802 0 745.79469470 0 1066.48259160 0 2311
0.04750000 0.04749250 44427.77276218 0 -627.46773665 0 19755.66847273 0 3813.93031172 0 3001.69213055 0 2568
0.04850000 0.04851840 43594.50332350 0 1229.91828103 0 24556.77521295 0 3764.25787614 0 6368.98642613 0 2493
0.04950000 0.04949480 43306.29303875 0 2143.70450091 0 19410.69290180 0 3534.58890041 0 8263.51942229 0 2644
0.05050000 0.05050630 40920.80214062 0 1917.93603098 0 23446.64854676 0 3127.96960087 0 9432.09747228 0 2829
0.05150000 0.05149060 40002.66578891 0 688.12678425 0 18720.74175993 0 3182.82397643 0 7952.92900194 0 2784
0.05250000 0.05249300 39319.90866351 0 -401.46546118 0 18654.08470109 0 3135.17485798 0 5994.17816816 0 3055
0.05350000 0.05348950 39103.63854345 0 -621.92497177 0 15090.91082588 0 3652.78434284 0 1543.67856489 0 3009
0.05450000 0.05448610 38664.57872590 0 246.28715378 0 12464.87000210 0 1084.47212903 0 646.15981475 0 3336
0.05550000 0.05550870 38331.18102522 0 923.23286275 0 10633.72303542 0 1553.54785623 0 -2549.32338254 0 3349
0.05650000 0.05647670 36863.82647879 0 1989.51649483 0 7633.49218946 0 314.38976030 0 -529.00750470 0 3324
0.05750000 0.05747970 35079.93520778 0 1519.01657718 0 9985.81192729 0 341.79896304 0 -3141.23356873 0 3639
0.05850000 0.05849280 34289.94227441 0 1280.36632151 0 8859.13902322 0 98.59185997 0 -2060.01785622 0 3846
0.05950000 0.05951020 33299.41613200 0 447.94330383 0 9539.73794368 0 -469.97273113 0 -1295.70980976 0 3787
0.06050000 0.06049470 33721.16534742 0 57.38149866 0 9017.32870096 0 -1524.18727652 0 -1847.62576065 0 3930
0.06150000 0.06148310 33827.83912286 0 -20.28780088 0 10624.57314573 0 -671.55918914 0 -3187.26403347 0 4083
0.06250000 0.06249100 33740.27445366 0 106.42220967 0 10095.75673209 0 -271.43810979 0 -4121.82297590 0 4303
0.06350000 0.06350600 32735.92231085 0 1207.08851940 0 9822.83373234 0 -275.92650162 0 -2326.97207043 0 4470
0.06450000 0.06451750 32132.97380564 0 1354.63330089 0 8706.08632287 0 910.99516630 0 -3147.41592663 0 4479
0.06550000 0.06550280 30378.75785256 0 1498.16517008 0 10518.55132803 0 1912.67540643 0 -320.50355023 0 4636
0.06650000 0.06648880 28998.18112978 0 888.30703686 0 9146.32640875 0 2348.68900764 0 1109.27912113 0 4653
0.06750000 0.06749660 28586.32368700 0 773.07013370 0 9543.80705924 0 578.05271197 0 1795.71643558 0 5220
0.06850000 0.06852730 28439.97041448 0 475.72457211 0 10423.12944398 0 -355.44174083 0 3341.98035013 0 5029
0.06950000 0.06949320 28176.48956135 0 498.24521585 0 11563.93184601 0 -1901.16498008 0 4407.65024268 0 5040
0.07050000 0.07048030 27408.75311642 0 609.89635143 0 11894.74419703 0 -742.77095965 0 4638.74678106 0 5475
0.07150000 0.07148790 27806.67215230 0 314.60220859 0 13611.97840920 0 -753.06514759 0 4146.26015059 0 5509
0.07250000 0.07249820 26866.27931214 0 149.92105506 0 12031.65532293 0 1357.80316440 0 3005.62635831 0 5916
0.07350000 0.07351270 27730.01091431 0 14.33767482 0 12358.42103968 0 1667.01098471 0 3695.12787415 0 5721
0.07450000 0.07449140 27250.82197365 0 88.27743886 0 10632.21678822 0 1818.75976958 0 2559.60857795 0 6028
0.07550000 0.07549160 27067.03733420 0 48.36526031 0 10286.10591157 0 1896.30901897 0 3002.25416309 0 6183
0.07650000 0.07648840 27185.85101242 0 10.11326967 0 10097.46531100 0 821.62524860 0 2416.56005675 0 6330
0.07750000 0.07749960 26672.26568053 0 141.71425596 0 8383.34475908 0 587.99169535 0 2119.07623516 0 6583
0.07850000 0.07848650 26760.61719527 0 558.06458684 0 9291.90407636 0 -48.85445343 0 1408.72331221 0 6549
0.07950000 0.07947320 26005.58268567 0 380.49490318 0 7391.94184591 0 469.70070738 0 213.63081527 0 6828
0.08050000 0.08048110 25803.58819203 0 770.36788126 0 7902.35731430 0 -265.89084865 0 -1187.41738062 0 7147
0.08150000 0.08149960 24648.94854895 0 641.71750958 0 7741.63849015 0 -331.88920535 0 -1019.05266584 0 7386
0.08250000 0.08250610 24141.54557495 0 597.76094490 0 7942.75621303 0 -388.32064422 0 -2120.12161567 0 7227
0.08350000 0.08350160 24043.75191359 0 287.51111627 0 8044.05695741 0 881.26027292 0 -147.52342426 0 7798
0.08450000 0.08449610 23765.43340149 0 57.71860578 0 9158.98338147 0 184.15558093 0 65.11349268 0 7371
0.08550000 0.08548940 23904.14303151 0 364.36456938 0 8856.23893533 0 651.38896547 0 286.60736795 0 8256
0.08650000 0.08650700 23711.36587147 0 646.45544386 0 10130.85004367 0 597.49229335 0 2664.06794520 0 8037
0.08750000 0.08749060 22965.43628897 0 735.72194758 0 9982.77695159 0 -3.94481645 0 2410.53506796 0 8155
0.08850000 0.08849210 22682.05948404 0 911.91914779 0 10826.83741498 0 255.05823354 0 4020.49975021 0 8718
0.08950000 0.08949900 21852.27464708 0 560.80842968 0 10616.77213412 0 406.05501888 0 2886.85764269 0 8571
0.09050000 0.09049190 21533.26497933 0 438.56073266 0 10607.08269319 0 631.43343823 0 3702.11955890 0 8932
0.09150000 0.09150830 21209.30942526 0 385.35648462 0 10350.93074433 0 588.76842431 0 2531.23717551 0 9285
0.09250000 0.09250820 20815.32461714 0 379.05834802 0 9861.77134647 0 901.67217058 0 1699.67631573 0 9204
0.09350000 0.09350330 20155.94804526 0 452.65875681 0 9813.79624915 0 713.14734872 0 2023.50822264 0 9349
0.09450000 0.09448040 19671.58840526 0 693.63133092 0 8981.53846903 0 617.15893586 0 699.05157270 0 9564
0.09550000 0.09549270 19004.79300390 0 740.57228837 0 8013.99945736 0 718.85984742 0 1240.64186183 0 10155
0.09650000 0.09649430 18312.93095141 0 779.68750478 0 8073.22644606 0 495.41257186 0 586.82941206 0 9913
0.09750000 0.09749140 17547.33023012 0 606.41961816 0 6582.33397701 0 1037.88525207 0 277.44736167 0 10476
0.09850000 0.09850240 17000.36016555 0 412.75894297 0 6291.03251331 0 405.17375186 0 -466.62414128 0 10575
0.09950000 0.09950330 16770.60126461 0 32.48120917 0 5783.93303689 0 744.35364328 0 -1106.53752641 0 10882
0.10050000 0.10051200 16503.07377721 0 -25.19389530 0 5925.59895805 0 169.75293514 0 -915.41723830 0 10875
0.10150000 0.10150300 17128.05395786 0 -103.41758373 0 5390.58894586 0 173.23304061 0 -1807.19313997 0 11118
0.10250000 0.10250800 17044.76073594 0 -60.80101702 0 6031.26107492 0 -338.66956587 0 -1027.21000608 0 11575
0.10350000 0.10349800 17050.94309384 0 61.21737073 0 5823.54509006 0 -122.86930501 0 -1201.23214037 0 11364
0.10450000 0.10450100 17201.45540713 0 98.83600690 0 5965.09860472 0 389.49304409 0 -42.44559641 0 12093
0.10550000 0.10551000 17299.24906849 0 -41.42606939 0 5547.36230160 0 972.82211751 0 -131.85732933 0 12067
0.10650000 0.10649700 17173.35378030 0 -77.60871244 0 4946.06617205 0 1443.31079451 0 231.01560569 0 12054
0.10750000 0.10749900 17065.78075281 0 84.64648386 0 4079.59185110 0 760.26590845 0 -91.75147437 0 12807
0.10850000 0.10850100 16828.71542889 0 202.49245446 0 4057.11054964 0 531.19268720 0 -567.80573476 0 12736
0.10950000 0.10950300 16578.16132409 0 310.40607368 0 3997.14167799 0 -452.79589275 0 -987.48217420 0 12933
0.11050000 0.11050200 16544.55177841 0 309.77884537 0 4524.95767371 0 -836.83047684 0 -797.66355343 0 13428
0.11150000 0.11150900 16075.02979738 0 353.49373606 0 4081.27794871 0 -273.19502350 0 -1156.01100248 0 13453
0.11250000 0.11250000 15910.01704464 0 314.10312370 0 4660.37379307 0 -22.35079751 0 -1512.76677538 0 13668
0.11350000 0.11349100 15523.22625299 0 448.73576970 0 4358.24758272 0 22.38789165 0 -1757.80172066 0 13791
0.11450000 0.11448600 15441.50672218 0 536.05314458 0 4613.61268603 0 201.36164500 0 -2058.61277487 0 14205
0.11550000 0.11549300 14609.13653555 0 430.50006202 0 4057.58265697 0 294.41062769 0 -1595.00337612 0 14776
0.11650000 0.11649800 14353.63654443 0 250.45968333 0 3721.35231230 0 481.76867000 0 -1610.75152780 0 14553
0.11750000 0.11747300 14064.41460112 0 88.91399691 0 3451.50925086 0 880.03953825 0 -1316.92091769 0 14568
0.11850000 0.11849100 14114.77271640 0 4.80904264 0 3256.96730865 0 864.72302756 0 -451.75051223 0 16015
0.11950000 0.11950300 14084.31055292 0 77.39064381 0 2689.67414756 0 478.56396048 0 -452.08997988 0 15270
0.12050000 0.12050700 14141.18824562 0 73.21271875 0 3229.49515827 0 -85.26966553 0 393.40816274 0 15999
0.12150000 0.12150000 13960.32617535 0 247.38311722 0 3344.74555021 0 -493.38700660 0 440.39071060 0 15670
0.12250000 0.12250700 14254.15678546 0 15.94475066 0 4064.14719700 0 -422.43489512 0 1420.42482962 0 16887
0.12350000 0.12352200 14153.66536793 0 -95.86060665 0 3953.47174990 0 88.99998789 0 918.83439612 0 16407
0.12450000 0.12449800 14146.24653845 0 -65.01648586 0 4156.79264032 0 315.07993625 0 888.48351508 0 16306
0.12550000 0.12549900 14151.52964429 0 29.75197917 0 3741.39439256 0 852.30660477 0 296.92291312 0 17523
0.12650000 0.12650100 13948.41108558 0 323.07653518 0 3590.45493454 0 358.87913182 0 816.62540715 0 17154
0.12750000 0.12750600 13513.51030880 0 558.50409629 0 3317.73426651 0 202.06643380 0 1065.44620360 0 18007
0.12850000 0.12850300 13106.71115884 0 477.43877134 0 2596.57907821 0 165.87603471 0 1106.89610317 0 17496
0.12950000 0.12949900 12818.95050013 0 170.58811549 0 3031.40117044 0 600.78243181 0 2017.04484847 0 18405
0.13050000 0.13049000 12842.66827317 0 6.17681626 0 2573.09735883 0 703.09595883 0 1773.62855689 0 18100
0.13150000 0.13148800 13017.23557902 0 -133.55354353 0 2767.21215630 0 868.10084311 0 2596.66900341 0 19059
0.13250000 0.13249300 12966.65265073 0 -94.80747009 0 2359.48003234 0 711.06108394 0 1971.54269431 0 18957
0.13350000 0.13349100 13130.09171236 0 -85.06598494 0 2210.44024430 0 430.97554155 0 2718.00058740 0 19468
0.13450000 0.13450700 13145.15418434 0 -46.06598520 0 1827.33638608 0 454.92824419 0 2248.82706654 0 19953
0.13550000 0.13551000 13071.52792205 0 49.07960366 0 1988.83081514 0 196.07179477 0 2047.50701195 0 19956
0.13650000 0.13649900 12990.93245631 0 265.28160538 0 1741.09811368 0 -318.71291457 0 1637.06589116 0 19723
0.13750000 0.13749600 12685.74878897 0 388.06098519 0 2069.05533940 0 -491.06693629 0 1205.25629333 0 20946
0.13850000 0.13851100 12316.71822547 0 425.69243570 0 2255.58269763 0 -670.52055301 0 1411.66836270 0 20955
0.13950000 0.13949800 12019.96504617 0 413.18046737 0 2154.48428496 0 -542.44457859 0 525.87585941 0 20506
0.14050000 0.14048300 11791.44261681 0 434.08582960 0 2684.02010024 0 -630.28127153 0 771.84939903 0 21447
0.14150000 0.14148400 11437.13730577 0 270.99298002 0 2541.66849939 0 -125.54795208 0 9.41739470 0 21771
0.14250000 0.14249400 11307.08297681 0 193.93719519 0 2799.49530520 0 -39.32800193 0 543.09204007 0 22470
0.14350000 0.14350900 11083.88861590 0 91.59860152 0 2573.60318811 0 256.43296513 0 289.84579942 0 22519
0.14450000 0.14449900 11069.96144964 0 142.15938573 0 2605.21189797 0 235.60741152 0 394.16128634 0 22218
0.14550000 0.14550500 10905.46576684 0 123.35602519 0 2243.80249567 0 224.85348096 0 140.72395463 0 23559
0.14650000 0.14650700 10859.23297039 0 115.18519617 0 2588.46332838 0 198.24798475 0 525.15758183 0 23044
0.14750000 0.14750500 10731.20195856 0 132.78131082 0 2224.28872600 0 190.59310160 0 640.56084662 0 23649
0.14850000 0.14849900 10681.94542706 0 52.41549158 0 2523.16638828 0 220.51458978 0 771.66280423 0 23640
0.14950000 0.14949500 10714.71192394 0 107.13250639 0 2506.12556178 0 37.76836164 0 620.91331321 0 24457
0.15050000 0.15050000 10601.61973693 0 186.25533448 0 2608.07826391 0 -127.10253408 0 823.32371092 0 24591
0.15150000 0.15149900 10475.84809591 0 191.67445220 0 2680.15331639 0 -223.04710839 0 779.14795355 0 25020
0.15250000 0.15250500 10407.69603052 0 189.15654644 0 2740.36948236 0 -269.39793168 0 729.63401114 0 25297
0.15350000 0.15350100 10351.05439149 0 70.16582796 0 3230.41689163 0 -149.33092090 0 746.85243993 0 25452
0.15450000 0.15450400 10266.47973539 0 50.98826615 0 2785.28712268 0 124.25302912 0 405.41992211 0 26061
0.15550000 0.15549900 10226.91264482 0 33.90539961 0 2937.60918074 0 204.18417240 0 400.31554261 0 26128
0.15650000 0.15649500 10170.73187246 0 68.74838190 0 2771.02273690 0 407.06330525 0 330.66172629 0 26331
0.15750000 0.15749700 9952.07873444 0 121.51817879 0 2600.90672874 0 591.67638066 0 34.35671174 0 27345
0.15850000 0.15849900 9871.12356788 0 157.04200730 0 2458.34155552 0 302.17229702 0 293.78564751 0 26980
0.15950000 0.15949700 9616.01699954 0 187.80092396 0 2373.95799048 0 154.96136285 0 -91.38098252 0 27777
0.16050000 0.16050000 9611.00366931 0 213.50042372 0 2331.14235185 0 59.86680654 0 728.30761436 0 28224
0.16150000 0.16150500 9442.16909533 0 89.05079563 0 2610.57368837 0 -128.33563346 0 833.87755789 0 28075
0.16250000 0.16249700 9525.74333352 0 143.30368397 0 2537.07107324 0 -162.60725347 0 1142.48849965 0 28590
0.16350000 0.16349900 9343.85836404 0 114.53323843 0 2843.36756501 0 -20.69920870 0 1505.58399956 0 29163
0.16450000 0.16449100 9355.78469447 0 201.57746549 0 2958.78656671 0 -192.18252961 0 1374.75406570 0 28996
0.16550000 0.16550500 9247.91941005 0 151.96460536 0 3066.58440722 0 -187.99201502 0 1536.70936143 0 30777
0.16650000 0.16650700 9186.14079363 0 35.75954495 0 3126.84553579 0 183.12368919 0 1407.56552519 0 29211
0.16750000 0.16749900 9160.86057014 0 50.07945954 0 3199.61750862 0 69.58817092 0 1637.18953832 0 30922
0.16850000 0.16850800 9186.82647333 0 83.89077491 0 3107.12943441 0 166.01654284 0 1330.03875709 0 30867
0.16950000 0.16949900 9054.04066624 0 94.80533436 0 2878.51707984 0 117.04102761 0 1080.53790127 0 30852
0.17050000 0.17049200 8830.02573783 0 187.08601857 0 2705.29865208 0 47.05628653 0 1012.16214694 0 31257
0.17150000 0.17149500 8785.71509264 0 125.15228117 0 2841.45665438 0 97.36662904 0 527.14492888 0 32608
0.17250000 0.17250900 8654.57042057 0 98.96100294 0 2740.20087260 0 -74.56620550 0 648.43941872 0 32361
0.17350000 0.17350400 8599.82845151 0 68.95026399 0 2701.39814627 0 4.25179862 0 202.14961462 0 32508
0.17450000 0.17449800 8568.21974165 0 105.70325765 0 2609.17984768 0 -164.07865466 0 63.76843641 0 32791
0.17550000 0.17549800 8485.58971813 0 151.13279721 0 2797.04484334 0 -118.20668309 0 -22.45511075 0 33633
0.17650000 0.17650100 8330.46873804 0 159.64421794 0 2645.58831540 0 -63.95424437 0 74.83766722 0 33984
0.17750000 0.17750300 8270.88204851 0 117.99873105 0 2792.37997329 0 51.53478659 0 119.50497825 0 34069
0.17850000 0.17849800 8244.57892580 0 71.97703401 0 2723.35113715 0 209.63476394 0 37.62436891 0 34536
