### header ###
fiducial parameters:
Omega_m = 0.31
Omega_nu = 0
Omega_de = 0.69
Omega_k = 0
H_0 = 100
w_de = -1
zeff = 0
beta = 0
fgrowth = 0
b_1 = 2
gamma = 0.55
Lx = 3500 Ly = 3500 Lz = 3500
nx = 700 ny = 700 nz = 700
xoffset = 857.220397 yoffset = 15.9954215 zoffset = 262.898189
bins = 400 dk = 0.001
kx_ny = 0.628318531 ky_ny = 0.628318531 kz_ny = 0.628318531
############################
A(data) = 3.06771755 (not used)
A(ran) = 3.06467711 (used)
Ngal = 186762
weighted Ngal = 0
Nran = 9360983
weighted Nran = 0
SN(data) = 3455.14591
SN(ran) = 68.8211303
SN(data+ran) = 3523.96704
############################
13 columns: k_central k_mean P_0(k) sigma^{lin}_{P_0(k)} P^img_1(k) sigma^{lin}_{P_1(k)} P_2(k) sigma^{lin}_{P_2(k)} P^img_3(k) sigma^{lin}_{P_3(k)} P_4(k) sigma^{lin}_{P_4(k)} N_modes
### header ###
0.00050000 0 0 0 0 0 0 0 0 0 0 0 0
0.00150000 0.00179520 5753.87553683 0 -13359.73820680 0 -8203.05596200 0 12431.03564340 0 62272.19339113 0 3
0.00250000 0.00253879 12676.53145537 0 -15119.46207873 0 -8891.96172335 0 -12317.61747753 0 -28556.31114955 0 6
0.00350000 0.00331552 26666.30813564 0 -22772.88394194 0 -17786.53127768 0 9134.54620678 0 17614.66172800 0 7
0.00450000 0.00420575 40646.86748231 0 -25270.66894088 0 -19235.22634389 0 -7665.46060014 0 -9270.34450826 0 24
0.00550000 0.00557378 69794.43686030 0 -20181.91394845 0 -25398.36273318 0 -5904.47777532 0 15360.91125644 0 45
0.00650000 0.00659388 72272.66312697 0 -11866.86738321 0 -11746.03038786 0 -34568.37319302 0 -59546.22318235 0 40
0.00750000 0.00754703 84191.68712957 0 2867.57992668 0 -14798.31668735 0 -25266.95952614 0 22580.55640794 0 57
0.00850000 0.00846663 79397.88681233 0 6812.73359504 0 -9727.63666130 0 -24483.14895066 0 -29781.42967272 0 75
0.00950000 0.00948925 74096.23389505 0 9825.62141372 0 4948.70772497 0 -28062.28454992 0 12216.11440143 0 112
0.01050000 0.01054430 76350.54639915 0 2389.68366085 0 10164.03244463 0 -28727.50626018 0 -34232.39014267 0 105
0.01150000 0.01145670 72101.80523585 0 2340.28100089 0 27631.09318788 0 -23542.75611051 0 -20240.81495828 0 144
0.01250000 0.01249090 75882.48570272 0 863.65066948 0 32686.91307366 0 -20795.54107186 0 -32283.26130591 0 169
0.01350000 0.01339930 70336.01141252 0 1114.51614030 0 60009.22558596 0 -15210.06172363 0 -18922.28662754 0 180
0.01450000 0.01448870 76689.90164472 0 1899.64749224 0 45201.46675200 0 863.67539892 0 -27098.17393672 0 267
0.01550000 0.01550050 76835.35566518 0 874.79352655 0 52351.30746246 0 15576.50693746 0 -33920.12486536 0 238
0.01650000 0.01653350 73181.35733206 0 1696.13551075 0 40051.89983912 0 17196.50952081 0 -16128.64770136 0 315
0.01750000 0.01747870 72506.46866217 0 2739.78496852 0 49143.45055685 0 11987.59197207 0 -18390.82866097 0 297
0.01850000 0.01844180 71529.31889413 0 -0.53657359 0 31113.22197132 0 20526.66470637 0 -2940.07088325 0 388
0.01950000 0.01947590 70096.58555195 0 1144.36568832 0 26085.95333840 0 8347.89174667 0 -67.14355420 0 399
0.02050000 0.02045430 69259.94391805 0 -13.95976414 0 17843.85859640 0 8941.16205160 0 3498.10174814 0 462
0.02150000 0.02154770 69753.07126561 0 -421.11299460 0 17294.75280820 0 6337.68121385 0 1447.44735398 0 571
0.02250000 0.02255340 66520.26011538 0 -688.60001565 0 6903.40068384 0 3653.95337052 0 -13791.04197535 0 510
0.02350000 0.02348930 67774.04229792 0 1825.25686570 0 8124.03418736 0 1628.71408767 0 7625.24155183 0 555
0.02450000 0.02439640 61535.36873571 0 727.45220084 0 9669.45505311 0 792.45013962 0 -14809.10771205 0 592
0.02550000 0.02547300 65259.73354241 0 -3852.93536976 0 1395.70663866 0 12273.66653317 0 14601.15567353 0 837
0.02650000 0.02652900 64757.05164172 0 -2255.14431225 0 181.35103857 0 10734.70904159 0 4482.62538306 0 723
0.02750000 0.02749970 70781.25358798 0 -2455.80116845 0 -10021.79325028 0 15823.57644052 0 26809.96365198 0 826
0.02850000 0.02848090 65210.38708570 0 1423.11134515 0 -3372.25142255 0 5845.02597361 0 16472.04958119 0 831
0.02950000 0.02946900 66085.02211908 0 5301.94517419 0 -6864.27197864 0 -2781.62267054 0 31704.25538676 0 996
0.03050000 0.03053250 62568.60935090 0 3657.14571533 0 1569.59950547 0 -5547.00260078 0 34264.65081027 0 1041
0.03150000 0.03150510 58861.66755284 0 2647.06084064 0 2030.15144722 0 -11658.24090565 0 30836.25233731 0 1036
0.03250000 0.03246190 59620.41147718 0 1026.85255338 0 7962.73084937 0 -6346.59504988 0 28725.82016257 0 1059
0.03350000 0.03345080 60727.16594815 0 -367.44113549 0 9243.88401644 0 -5524.35268955 0 19050.87967190 0 1302
0.03450000 0.03451200 60624.65121348 0 1272.67771641 0 14031.47949448 0 -1554.59323675 0 19058.74812741 0 1339
0.03550000 0.03553350 60449.85909462 0 1784.05988077 0 10335.10390810 0 -1070.21561171 0 11710.28511853 0 1365
0.03650000 0.03647120 53872.61713239 0 4530.17333565 0 6097.40106382 0 1213.78794723 0 4975.79769323 0 1308
0.03750000 0.03744890 52791.04171906 0 1879.61665263 0 7485.11559981 0 2627.15364820 0 4884.69221906 0 1579
0.03850000 0.03847530 48904.02469628 0 1645.92352394 0 6877.28865219 0 2588.31719992 0 1089.91822431 0 1662
0.03950000 0.03950240 48303.99876026 0 1580.80643425 0 3087.28968587 0 604.25017257 0 -3101.23933343 0 1683
0.04050000 0.04050350 46046.31406094 0 1726.59767423 0 3165.34476455 0 -1321.03499586 0 -7575.45670974 0 1822
0.04150000 0.04152450 45656.03866756 0 1610.48175218 0 8578.50493707 0 -4040.28329549 0 2423.96764558 0 1887
0.04250000 0.04250150 45360.18474032 0 2427.19371234 0 6817.60079681 0 -3473.52968564 0 -4617.16473166 0 1920
0.04350000 0.04349210 43711.40609110 0 1813.94877106 0 16991.25523846 0 -3275.03103438 0 7547.13026990 0 2005
0.04450000 0.04448520 44763.08137349 0 -269.83182080 0 18171.41115871 0 -1904.82943222 0 4076.24213718 0 2151
0.04550000 0.04548030 46135.45242124 0 -582.45455080 0 23509.25897133 0 -332.02858942 0 14669.04920394 0 2274
0.04650000 0.04648670 48248.35753914 0 -1396.71829723 0 24170.54645384 0 2685.33525638 0 11055.95559883 0 2311
0.04750000 0.04749250 48700.45651154 0 151.73979235 0 25421.85569321 0 -9.22549431 0 10389.35128853 0 2568
0.04850000 0.04851840 48578.60785762 0 1469.46778876 0 26875.94627177 0 1565.53038991 0 8784.09643894 0 2493
0.04950000 0.04949480 46367.23463931 0 3061.24509813 0 30376.50972242 0 -886.36914868 0 8357.87344452 0 2644
0.05050000 0.05050630 43707.13464382 0 3091.41500469 0 24569.58955479 0 2436.07382642 0 4360.09104944 0 2829
0.05150000 0.05149060 40028.29447258 0 1158.15796677 0 27611.64686211 0 5240.03166996 0 6227.74764970 0 2784
0.05250000 0.05249300 40373.38245002 0 1031.97154573 0 18961.29168557 0 6649.53058708 0 4002.88565051 0 3055
0.05350000 0.05348950 37495.43864337 0 700.22172444 0 17011.82562930 0 6399.89821564 0 1551.35592934 0 3009
0.05450000 0.05448610 36921.04139101 0 980.55118896 0 12206.22262878 0 5709.01409976 0 2612.51832094 0 3336
0.05550000 0.05550870 35604.64878391 0 1039.40386399 0 11397.90743472 0 2303.69268276 0 2207.38278730 0 3349
0.05650000 0.05647670 34263.97637122 0 1401.78783071 0 7670.13671085 0 3294.42115689 0 1923.80365066 0 3324
0.05750000 0.05747970 33064.48653172 0 363.05166137 0 7049.13572056 0 1167.81368574 0 2579.71810211 0 3639
0.05850000 0.05849280 32679.38183767 0 486.17612916 0 5861.43732368 0 1888.66537647 0 1559.66277023 0 3846
0.05950000 0.05951020 32474.01514882 0 589.61372125 0 6462.94702559 0 -224.32292225 0 4140.15647724 0 3787
0.06050000 0.06049470 31184.15047744 0 64.44062732 0 5329.76578475 0 -238.78626754 0 -2254.88577729 0 3930
0.06150000 0.06148310 33180.15282774 0 -1295.41755284 0 5835.37025463 0 -363.30120382 0 3846.52819884 0 4083
0.06250000 0.06249100 33535.80701687 0 -987.25398899 0 4916.30092891 0 -1665.27992449 0 -1930.33446873 0 4303
0.06350000 0.06350600 34794.98471175 0 -512.80523074 0 7992.61973967 0 -2159.10419241 0 -473.45508472 0 4470
0.06450000 0.06451750 35026.65452332 0 197.60052327 0 8855.54201499 0 -2044.79801513 0 -2246.75878681 0 4479
0.06550000 0.06550280 35182.11272293 0 795.34685532 0 9691.76774482 0 -1921.29698554 0 -831.71036043 0 4636
0.06650000 0.06648880 34932.12065067 0 1169.29745164 0 12914.27121833 0 -2162.70120064 0 -153.93958770 0 4653
0.06750000 0.06749660 33910.57031224 0 1890.40767734 0 13745.51733989 0 -1681.71375586 0 -1923.09548966 0 5220
0.06850000 0.06852730 32593.84048561 0 1842.75855889 0 17592.85486558 0 -2317.55240511 0 -0.18334963 0 5029
0.06950000 0.06949320 31708.75164705 0 1212.56271630 0 15906.86966244 0 -94.70135834 0 -1475.38037105 0 5040
0.07050000 0.07048030 30639.65335603 0 616.95660415 0 19299.52286607 0 -1349.26026984 0 1729.75629709 0 5475
0.07150000 0.07148790 31595.55829419 0 -6.69734832 0 18265.94503135 0 2079.08199985 0 1446.10971654 0 5509
0.07250000 0.07249820 30638.97891698 0 -9.05637872 0 18091.49013201 0 1833.13656186 0 1726.19301081 0 5916
0.07350000 0.07351270 30670.90236506 0 563.57138163 0 17402.43824220 0 1889.08128055 0 1195.28583613 0 5721
0.07450000 0.07449140 30001.40920752 0 611.02603683 0 14525.05646808 0 1833.18152446 0 1574.83764871 0 6028
0.07550000 0.07549160 28995.48337361 0 669.81239202 0 14853.73309545 0 1994.41741855 0 2126.50630529 0 6183
0.07650000 0.07648840 28801.80696151 0 359.04549345 0 12765.55740916 0 1276.36464985 0 529.25929528 0 6330
0.07750000 0.07749960 28285.41146693 0 554.19105860 0 12074.93182825 0 1138.98141662 0 235.50399753 0 6583
0.07850000 0.07848650 27362.77885493 0 746.91763571 0 10668.25431447 0 556.68648306 0 -1714.60389990 0 6549
0.07950000 0.07947320 26280.41659604 0 969.45779075 0 10391.10483004 0 836.44941878 0 -1343.66242578 0 6828
0.08050000 0.08048110 25539.20808684 0 812.13139499 0 9267.19712606 0 1369.83066068 0 -3328.32295949 0 7147
0.08150000 0.08149960 24448.86496593 0 438.17068208 0 7993.74380474 0 2119.13243841 0 -3535.02728579 0 7386
0.08250000 0.08250610 24167.84869766 0 497.40441517 0 7115.06213710 0 1175.47980954 0 -4822.54266116 0 7227
0.08350000 0.08350160 23371.22378035 0 349.16608553 0 5784.18033120 0 1626.61208598 0 -3809.28792297 0 7798
0.08450000 0.08449610 23178.33421381 0 439.19245723 0 6305.16201128 0 -344.26628587 0 -3198.15622403 0 7371
0.08550000 0.08548940 23003.87931447 0 202.55090585 0 4695.90549003 0 0.20376152 0 -2695.27199163 0 8256
0.08650000 0.08650700 22777.04298271 0 194.98257571 0 6625.67792622 0 -195.35576531 0 -1472.71633682 0 8037
0.08750000 0.08749060 23016.01921726 0 319.97523964 0 6225.01617157 0 -364.64670971 0 -1657.65876330 0 8155
0.08850000 0.08849210 23242.74314250 0 -62.59356360 0 8674.62374147 0 -441.25399258 0 1420.34614507 0 8718
0.08950000 0.08949900 23167.09356308 0 211.38942952 0 8394.90014803 0 -18.55730270 0 1543.45375187 0 8571
0.09050000 0.09049190 23601.99433986 0 271.76184053 0 9813.04312555 0 318.08343813 0 3886.58987805 0 8932
0.09150000 0.09150830 22618.99943344 0 594.09536869 0 9874.09109967 0 948.87278707 0 2679.93974403 0 9285
0.09250000 0.09250820 22507.82939771 0 686.39797217 0 9699.80481009 0 1620.10374921 0 3863.59150665 0 9204
0.09350000 0.09350330 21508.53554772 0 958.45431775 0 8800.18181013 0 1066.57476494 0 3585.21679130 0 9349
0.09450000 0.09448040 20715.84485817 0 766.79447840 0 8509.11640011 0 1091.20977508 0 2137.71323407 0 9564
0.09550000 0.09549270 19742.17969185 0 658.57736161 0 7923.35484986 0 152.13321512 0 3222.69456458 0 10155
0.09650000 0.09649430 19631.34687565 0 451.07607318 0 7926.06384669 0 365.43130713 0 2280.40205445 0 9913
0.09750000 0.09749140 18839.55543816 0 446.13243499 0 7633.82940899 0 -113.73852442 0 3069.32712600 0 10476
0.09850000 0.09850240 19029.97206154 0 332.98741693 0 7263.33756089 0 211.94696579 0 1181.97690567 0 10575
0.09950000 0.09950330 18283.93007252 0 315.81282668 0 7439.99562778 0 107.20725672 0 1085.66476207 0 10882
0.10050000 0.10051200 18202.09813520 0 372.51853742 0 7071.04374884 0 231.25278342 0 561.93923915 0 10875
0.10150000 0.10150300 17337.57968748 0 418.28709500 0 7465.09600086 0 -121.35518936 0 -454.12566173 0 11118
0.10250000 0.10250800 17197.18395985 0 585.61766991 0 6332.65664297 0 230.57159999 0 -124.11027285 0 11575
0.10350000 0.10349800 16871.20508865 0 358.72850710 0 6395.18838299 0 369.67015653 0 -523.73226731 0 11364
0.10450000 0.10450100 16628.51943937 0 183.99483962 0 5221.30474585 0 282.55736149 0 -264.92415269 0 12093
0.10550000 0.10551000 16499.13954946 0 -206.72343540 0 5138.98946054 0 1027.16279534 0 -762.90970950 0 12067
0.10650000 0.10649700 16571.97896619 0 -95.14053057 0 4765.02425137 0 768.62558040 0 -535.81371872 0 12054
0.10750000 0.10749900 16915.04362650 0 70.65861809 0 4526.16042334 0 186.12157074 0 -1128.85359031 0 12807
0.10850000 0.10850100 16364.58896021 0 428.92524685 0 4866.96571285 0 183.11694480 0 -486.50323209 0 12736
0.10950000 0.10950300 16424.27681559 0 325.07849508 0 4719.64574437 0 84.03476765 0 -464.23662706 0 12933
0.11050000 0.11050200 15852.24009989 0 318.08905845 0 4189.72774696 0 387.84404063 0 -556.70446810 0 13428
0.11150000 0.11150900 15890.90793840 0 116.05747067 0 4659.94664834 0 830.20298917 0 893.06520432 0 13453
0.11250000 0.11250000 15624.61692258 0 211.21407537 0 3750.06093427 0 247.46292584 0 -1052.13277688 0 13668
0.11350000 0.11349100 15478.71327610 0 307.81622775 0 4798.08300517 0 -240.80621248 0 896.33623368 0 13791
0.11450000 0.11448600 15156.89344567 0 293.05612927 0 4483.06376844 0 -588.72121358 0 -749.55469237 0 14205
0.11550000 0.11549300 15169.70778750 0 207.52826599 0 5622.13511026 0 -688.15151369 0 725.41427086 0 14776
0.11650000 0.11649800 14958.27114725 0 161.63493719 0 5064.47518685 0 -622.15090885 0 -936.23379938 0 14553
0.11750000 0.11747300 14946.58087049 0 164.26187726 0 5553.73575057 0 -33.01795024 0 -841.98543927 0 14568
0.11850000 0.11849100 14887.34264114 0 149.27921390 0 5917.35956106 0 -10.44690342 0 -521.95174824 0 16015
0.11950000 0.11950300 14630.38136543 0 224.90518796 0 5114.28251024 0 879.52696458 0 -1320.05705924 0 15270
0.12050000 0.12050700 14369.37345546 0 74.62589336 0 4991.73693597 0 1178.88572671 0 -89.65644189 0 15999
0.12150000 0.12150000 14329.80636488 0 78.21143613 0 4219.47050880 0 1035.92151039 0 -590.75464730 0 15670
0.12250000 0.12250700 14136.35476580 0 223.25056417 0 4785.84193653 0 864.98156253 0 825.54486351 0 16887
0.12350000 0.12352200 13837.91548889 0 234.82843442 0 3279.75210769 0 544.59266694 0 911.78875624 0 16407
0.12450000 0.12449800 13762.94034852 0 200.71193539 0 4572.55058891 0 149.23987163 0 2492.78290936 0 16306
0.12550000 0.12549900 13794.18935755 0 61.35079725 0 3508.60051592 0 1.54531970 0 1805.33843260 0 17523
0.12650000 0.12650100 13765.75051120 0 -37.44508053 0 4480.02879274 0 416.43688389 0 2369.67530255 0 17154
0.12750000 0.12750600 13750.91285224 0 61.94643933 0 3406.82766420 0 -134.97660991 0 1282.10862238 0 18007
0.12850000 0.12850300 13616.13744997 0 116.47787100 0 3945.74942285 0 27.91121020 0 1789.00576709 0 17496
0.12950000 0.12949900 13453.93485992 0 224.43083249 0 3523.98896677 0 -121.52267505 0 285.47993068 0 18405
0.13050000 0.13049000 13312.86469325 0 204.98001047 0 3571.45823481 0 -81.85689157 0 -99.68085421 0 18100
0.13150000 0.13148800 13201.02021848 0 253.47667398 0 3424.53168910 0 15.26986199 0 -116.12491457 0 19059
0.13250000 0.13249300 12722.84293638 0 291.17556841 0 3443.29233517 0 184.99076128 0 -533.85559736 0 18957
0.13350000 0.13349100 12607.40145337 0 231.68667254 0 3391.38301010 0 91.00408351 0 -62.67337222 0 19468
0.13450000 0.13450700 12566.48548471 0 202.53966520 0 3391.87759873 0 694.24507045 0 171.52670983 0 19953
0.13550000 0.13551000 12307.61329838 0 209.89667110 0 3098.93500003 0 312.65870008 0 661.91133862 0 19956
0.13650000 0.13649900 12051.21405520 0 242.12474081 0 3384.73978551 0 306.56626739 0 780.72838904 0 19723
0.13750000 0.13749600 11825.50178852 0 284.44691488 0 2888.63366550 0 234.56765132 0 1194.17301171 0 20946
0.13850000 0.13851100 11568.20329329 0 170.09240280 0 3277.61638405 0 249.23670053 0 1229.23260134 0 20955
0.13950000 0.13949800 11555.83857749 0 159.34971289 0 2947.75948835 0 26.15789350 0 1307.11907025 0 20506
0.14050000 0.14048300 11501.20901494 0 -36.16499522 0 3209.81277884 0 -270.11171300 0 1479.86539069 0 21447
0.14150000 0.14148400 11629.68965279 0 52.15380923 0 3397.19442652 0 -59.82948758 0 1664.71789196 0 21771
0.14250000 0.14249400 11658.01609263 0 75.62136539 0 3374.27473968 0 -267.95800432 0 1756.20554826 0 22470
0.14350000 0.14350900 11586.97518001 0 224.27121525 0 3607.55196430 0 189.39597230 0 2130.27192328 0 22519
0.14450000 0.14449900 11515.70945438 0 229.82859298 0 3282.02271913 0 331.28670647 0 1632.43474306 0 22218
0.14550000 0.14550500 11202.73601608 0 212.64725833 0 3486.96226326 0 465.01785229 0 2151.16829299 0 23559
0.14650000 0.14650700 10997.89763780 0 186.16203708 0 2885.29519223 0 522.95329022 0 1452.85410698 0 23044
0.14750000 0.14750500 10658.02532230 0 118.79232099 0 2968.17251007 0 312.21581844 0 1727.45196369 0 23649
0.14850000 0.14849900 10566.91984813 0 187.03093938 0 2321.59903938 0 148.38670623 0 882.20336352 0 23640
0.14950000 0.14949500 10255.41893507 0 174.88766440 0 2396.57417975 0 3.64603995 0 512.34323999 0 24457
0.15050000 0.15050000 10130.81632172 0 185.84055447 0 2443.32404614 0 -51.52882905 0 572.83030564 0 24591
0.15150000 0.15149900 10034.07928153 0 49.41952094 0 2098.46088172 0 -80.48092351 0 -23.04153549 0 25020
0.15250000 0.15250500 10073.05061761 0 8.21417297 0 2474.07846654 0 -84.81363233 0 305.82438444 0 25297
0.15350000 0.15350100 10212.04126390 0 -27.87658900 0 2655.81730756 0 -229.99045835 0 251.88274971 0 25452
0.15450000 0.15450400 10318.80496454 0 71.90430700 0 2882.63115801 0 -162.00138240 0 982.18108331 0 26061
0.15550000 0.15549900 10351.40285166 0 34.84163341 0 3200.58420459 0 -266.22357191 0 1207.43697957 0 26128
0.15650000 0.15649500 10435.99998906 0 17.70661025 0 3532.36325156 0 147.42113434 0 1311.04205736 0 26331
0.15750000 0.15749700 10492.64162810 0 58.32762424 0 3312.26006960 0 97.82401112 0 1445.28914904 0 27345
0.15850000 0.15849900 10368.51112207 0 104.05234328 0 3405.68111782 0 218.29231313 0 1331.92718642 0 26980
0.15950000 0.15949700 10237.40017195 0 186.24184570 0 3350.68061380 0 333.32576052 0 1099.80662476 0 27777
0.16050000 0.16050000 10002.57173753 0 203.29503693 0 2956.87565609 0 366.22040082 0 933.40677573 0 28224
0.16150000 0.16150500 9804.79248792 0 259.21390212 0 2768.20133357 0 128.96623397 0 415.72422663 0 28075
0.16250000 0.16249700 9537.33244442 0 218.70034875 0 2414.45805506 0 186.36099660 0 552.75562750 0 28590
0.16350000 0.16349900 9336.64186627 0 200.50510741 0 2498.27958757 0 242.04156000 0 600.78580401 0 29163
0.16450000 0.16449100 9184.57834318 0 154.81635845 0 2204.02183273 0 65.75342292 0 544.69383280 0 28996
0.16550000 0.16550500 9072.84627492 0 164.05055303 0 2168.15291625 0 90.50140160 0 330.61114336 0 30777
0.16650000 0.16650700 8973.42271920 0 280.49470208 0 2198.55887647 0 -191.97232944 0 602.45391658 0 29211
0.16750000 0.16749900 8802.05899881 0 209.58755320 0 2455.56511479 0 -235.25782728 0 632.63956005 0 30922
0.16850000 0.16850800 8658.07750359 0 147.83479028 0 2753.70089413 0 -121.93520693 0 552.65558571 0 30867
0.16950000 0.16949900 8620.63489601 0 37.80264563 0 2625.25397822 0 -59.95403399 0 408.45939407 0 30852
0.17050000 0.17049200 8526.82042501 0 -0.86792886 0 2640.87848274 0 186.06424342 0 174.47625658 0 31257
0.17150000 0.17149500 8588.29554386 0 23.32693562 0 2538.03776920 0 105.08985534 0 138.51741489 0 32608
0.17250000 0.17250900 8505.06976584 0 80.24408300 0 2503.46152755 0 245.07541163 0 30.58255085 0 32361
0.17350000 0.17350400 8404.64579221 0 94.77869402 0 2105.01418109 0 12.15058141 0 -187.94592835 0 32508
0.17450000 0.17449800 8293.83545731 0 116.47112661 0 1900.11959957 0 213.80954162 0 -208.53093204 0 32791
0.17550000 0.17549800 8201.13381073 0 85.34239254 0 1957.44691829 0 75.18050706 0 -202.01135461 0 33633
0.17650000 0.17650100 8120.06623766 0 74.37837423 0 1848.87347288 0 226.59578183 0 -309.97668082 0 33984
0.17750000 0.17750300 8093.74063364 0 15.22579863 0 1700.91278731 0 159.79933892 0 -163.20188390 0 34069
