### header ###
fiducial parameters:
Omega_m = 0.31
Omega_nu = 0
Omega_de = 0.69
Omega_k = 0
H_0 = 100
w_de = -1
zeff = 0
beta = 0
fgrowth = 0
b_1 = 2
gamma = 0.55
Lx = 3500 Ly = 3500 Lz = 3500
nx = 700 ny = 700 nz = 700
xoffset = 857.220397 yoffset = 15.9954215 zoffset = 262.898189
bins = 400 dk = 0.001
kx_ny = 0.628318531 ky_ny = 0.628318531 kz_ny = 0.628318531
############################
A(data) = 3.05117706 (not used)
A(ran) = 3.04925608 (used)
Ngal = 186086
weighted Ngal = 0
Nran = 9360983
weighted Nran = 0
SN(data) = 3445.59461
SN(ran) = 68.4748319
SN(data+ran) = 3514.06944
############################
13 columns: k_central k_mean P_0(k) sigma^{lin}_{P_0(k)} P^img_1(k) sigma^{lin}_{P_1(k)} P_2(k) sigma^{lin}_{P_2(k)} P^img_3(k) sigma^{lin}_{P_3(k)} P_4(k) sigma^{lin}_{P_4(k)} N_modes
### header ###
0.00050000 0 0 0 0 0 0 0 0 0 0 0 0
0.00150000 0.00179520 -1425.41567855 0 -3824.80002098 0 977.92649701 0 12018.39135507 0 -6481.57278385 0 3
0.00250000 0.00253879 4924.02325596 0 -12006.70107831 0 -229.39020760 0 8906.37223759 0 31160.54511090 0 6
0.00350000 0.00331552 10791.66541884 0 -14108.47795199 0 9842.45990852 0 -19719.24876436 0 -30737.78423691 0 7
0.00450000 0.00420575 26929.78898877 0 -21273.38113443 0 758.81923670 0 2098.10118089 0 9065.89955276 0 24
0.00550000 0.00557378 46177.38004846 0 -19059.75978598 0 -2762.08641957 0 4310.56474232 0 20392.67614966 0 45
0.00650000 0.00659388 75218.16324451 0 -22963.63778485 0 -41483.17189669 0 30874.58295631 0 14959.73243185 0 40
0.00750000 0.00754703 71173.32748548 0 -11059.35027535 0 -13982.80747682 0 -4910.73680680 0 8889.66863060 0 57
0.00850000 0.00846663 80723.49675303 0 -1493.37665287 0 -39774.93020510 0 600.68126596 0 5435.02323820 0 75
0.00950000 0.00948925 73309.50075039 0 2483.17215298 0 -13833.19441559 0 -9426.30853715 0 6829.21238901 0 112
0.01050000 0.01054430 76762.62865495 0 8959.67540336 0 -41857.48556604 0 -34113.68887095 0 18002.01455219 0 105
0.01150000 0.01145670 66146.39607207 0 8156.20492976 0 -11349.68504308 0 -23943.26049605 0 4804.60258260 0 144
0.01250000 0.01249090 63277.21997298 0 7575.14197152 0 -5009.11498200 0 -34600.85867363 0 4745.11705893 0 169
0.01350000 0.01339930 58858.18295111 0 851.46130783 0 4520.73118904 0 -6437.73424600 0 -5310.83652892 0 180
0.01450000 0.01448870 60020.57864320 0 1241.24885697 0 19546.25514961 0 -9849.63144368 0 -11397.34540218 0 267
0.01550000 0.01550050 62763.63464108 0 -4143.83217003 0 15312.35164528 0 -9635.84550743 0 -33238.60421154 0 238
0.01650000 0.01653350 63690.76351338 0 -3613.48702789 0 22639.56982427 0 1058.94573528 0 -23312.54758354 0 315
0.01750000 0.01747870 68069.67141214 0 -3265.48772191 0 9671.61325806 0 -4755.61582671 0 -26304.47158861 0 297
0.01850000 0.01844180 69112.35417395 0 -1957.77289717 0 9337.49615573 0 9003.31160949 0 -28377.47239642 0 388
0.01950000 0.01947590 70743.26018851 0 -1366.12124594 0 7018.22393105 0 -119.92762671 0 -30372.23827514 0 399
0.02050000 0.02045430 68731.97055321 0 -26.01907147 0 -9489.33486580 0 8474.25914219 0 -29112.49854772 0 462
0.02150000 0.02154770 68049.55064733 0 3139.63739632 0 1925.51222957 0 -2419.59503245 0 -27340.29755347 0 571
0.02250000 0.02255340 66827.80431938 0 5706.03532732 0 -5752.20067987 0 -10025.60383088 0 -22157.12109490 0 510
0.02350000 0.02348930 59588.37562259 0 6034.85808315 0 6216.22598270 0 -10507.11958624 0 -14221.89611786 0 555
0.02450000 0.02439640 59172.92117158 0 4109.73927636 0 11246.38346286 0 -12248.48747553 0 -11249.19362555 0 592
0.02550000 0.02547300 60162.77287495 0 -850.00901576 0 19671.25118574 0 -1812.19522955 0 250.76093277 0 837
0.02650000 0.02652900 60392.19455637 0 364.11839913 0 24813.73648866 0 -680.09421524 0 -2145.46928307 0 723
0.02750000 0.02749970 63265.75450924 0 -886.66927405 0 25521.44785869 0 4371.08440586 0 -1.86162037 0 826
0.02850000 0.02848090 61874.16194874 0 1913.60838044 0 25485.59018285 0 2467.23291025 0 -8316.36172137 0 831
0.02950000 0.02946900 59829.03795474 0 986.81785174 0 19142.15375583 0 4206.40887265 0 -7265.66437559 0 996
0.03050000 0.03053250 57528.18915662 0 2163.67913726 0 16354.24756153 0 3214.56757410 0 -12833.22612656 0 1041
0.03150000 0.03150510 56282.94986864 0 1695.21377739 0 12249.16191458 0 -595.53417199 0 -15551.77750585 0 1036
0.03250000 0.03246190 54863.59290084 0 3305.93158324 0 6993.93288482 0 533.05413897 0 -16541.85402223 0 1059
0.03350000 0.03345080 50320.45909489 0 1896.42142548 0 4854.93821657 0 -151.06872550 0 -17854.98684063 0 1302
0.03450000 0.03451200 50119.81347934 0 758.01103391 0 5382.87785945 0 -2516.17470353 0 -10715.76854511 0 1339
0.03550000 0.03553350 49686.14917414 0 1048.81116459 0 9437.95385131 0 -307.34974074 0 -12907.63923440 0 1365
0.03650000 0.03647120 48066.03418428 0 1050.45342366 0 13033.42211608 0 -5233.82683076 0 -7340.75192248 0 1308
0.03750000 0.03744890 49380.17866124 0 759.01482402 0 18491.65729803 0 -1563.02372480 0 -986.86731060 0 1579
0.03850000 0.03847530 48328.95300488 0 226.49686410 0 18709.72592221 0 -203.37484555 0 -257.87176842 0 1662
0.03950000 0.03950240 49599.25894399 0 476.90596450 0 20842.07736588 0 -1220.61102223 0 -1205.49234699 0 1683
0.04050000 0.04050350 49667.82691345 0 136.47049239 0 21423.21900867 0 -1847.71568586 0 -3304.35789214 0 1822
0.04150000 0.04152450 49111.41470227 0 2199.41316593 0 22638.33335269 0 -2211.42942156 0 -2897.98588691 0 1887
0.04250000 0.04250150 48060.75107844 0 2205.42691407 0 21677.59493472 0 475.74143308 0 -3700.97301253 0 1920
0.04350000 0.04349210 44602.22766153 0 2508.84579925 0 22127.22096396 0 885.23721515 0 -4823.58804168 0 2005
0.04450000 0.04448520 43569.21185935 0 2070.62903051 0 21173.11452991 0 4150.73392958 0 -4571.76374336 0 2151
0.04550000 0.04548030 42549.12280551 0 872.01708582 0 22145.54322465 0 4817.28203662 0 -1630.59127634 0 2274
0.04650000 0.04648670 41423.25922830 0 487.08100154 0 19638.31607910 0 6839.48634378 0 -1247.16143925 0 2311
0.04750000 0.04749250 41139.20798433 0 -494.02772369 0 18303.15158527 0 7205.99900151 0 4422.66775206 0 2568
0.04850000 0.04851840 40312.79534258 0 -279.37288514 0 15841.56148169 0 4833.63718344 0 6419.00732188 0 2493
0.04950000 0.04949480 42191.44529925 0 491.51206606 0 14273.82792424 0 3412.24565785 0 4088.77546275 0 2644
0.05050000 0.05050630 39197.94760308 0 2131.89057699 0 13151.67376177 0 1134.23786201 0 5259.11829491 0 2829
0.05150000 0.05149060 38484.39109468 0 1909.05591690 0 13616.02504346 0 -308.67726159 0 5101.19839279 0 2784
0.05250000 0.05249300 36929.58428557 0 1136.72204582 0 11142.45240621 0 514.70040445 0 4468.27107208 0 3055
0.05350000 0.05348950 36813.58077003 0 366.48792830 0 14600.70604750 0 1168.93775082 0 1649.21703460 0 3009
0.05450000 0.05448610 36979.38036831 0 -561.95722419 0 12029.85681881 0 1742.13225354 0 2458.39775877 0 3336
0.05550000 0.05550870 35683.78296505 0 492.74628951 0 11449.50202157 0 1006.53058093 0 -1626.30858841 0 3349
0.05650000 0.05647670 35817.88392827 0 1753.63143924 0 11428.81922423 0 -1064.33675137 0 -368.97211211 0 3324
0.05750000 0.05747970 34358.84746339 0 1996.92408366 0 13310.95378263 0 -2773.94530609 0 -1348.22612998 0 3639
0.05850000 0.05849280 32732.32530262 0 1967.83327957 0 14642.63367473 0 -1721.43821555 0 -630.46561820 0 3846
0.05950000 0.05951020 31798.67685290 0 1228.42327449 0 16959.89382292 0 -1300.03746029 0 3244.06304161 0 3787
0.06050000 0.06049470 31464.94193270 0 302.21725962 0 18747.26969565 0 1388.60254740 0 3357.67229855 0 3930
0.06150000 0.06148310 31098.83393839 0 -314.31444794 0 18020.56162590 0 2970.74661909 0 5095.81412109 0 4083
0.06250000 0.06249100 32007.30333047 0 -665.43977888 0 19869.76107765 0 3681.40303961 0 7115.09585905 0 4303
0.06350000 0.06350600 33156.65986771 0 -81.14344746 0 19435.08511388 0 3994.55632832 0 9845.34875575 0 4470
0.06450000 0.06451750 32729.17792041 0 -37.58682513 0 17613.20044340 0 2561.89043005 0 11629.46483978 0 4479
0.06550000 0.06550280 33205.10707236 0 -40.70453202 0 18398.24749046 0 536.37799939 0 11668.46989781 0 4636
0.06650000 0.06648880 32929.82353596 0 461.36351673 0 16237.90682647 0 892.30308820 0 8238.04810773 0 4653
0.06750000 0.06749660 32482.22082385 0 324.73115897 0 15969.81730653 0 236.40549772 0 8257.73048716 0 5220
0.06850000 0.06852730 31156.83569616 0 612.02083442 0 14169.51468546 0 -804.15840143 0 4418.23893567 0 5029
0.06950000 0.06949320 31196.40278673 0 836.16053406 0 13817.68231758 0 1050.71420675 0 3441.37018390 0 5040
0.07050000 0.07048030 29912.83287976 0 166.89443766 0 11258.52336565 0 1886.42848698 0 555.95134450 0 5475
0.07150000 0.07148790 29573.81485372 0 -111.22837471 0 11674.87706873 0 1616.87768245 0 399.39156112 0 5509
0.07250000 0.07249820 30084.25280341 0 -185.02560729 0 10928.28428783 0 1497.08606761 0 278.70069422 0 5916
0.07350000 0.07351270 30033.10784258 0 786.75562596 0 11941.95493010 0 128.18950500 0 -519.90370167 0 5721
0.07450000 0.07449140 28989.86304824 0 536.91530249 0 10837.76332749 0 114.69735193 0 1465.64596751 0 6028
0.07550000 0.07549160 29019.65077268 0 1042.45120440 0 11803.02048706 0 -441.09549940 0 993.73085194 0 6183
0.07650000 0.07648840 28158.95414621 0 839.44168000 0 10974.57328754 0 734.24605014 0 2338.81971630 0 6330
0.07750000 0.07749960 26974.63918519 0 1207.92032755 0 11023.54880277 0 874.16067792 0 1495.84959603 0 6583
0.07850000 0.07848650 25943.87151316 0 1403.73246329 0 8298.88250948 0 715.29431301 0 1244.68849609 0 6549
0.07950000 0.07947320 25000.21888429 0 1306.26478080 0 9172.13494282 0 497.21894443 0 1777.03447406 0 6828
0.08050000 0.08048110 23420.23301754 0 923.00467754 0 8088.03038307 0 341.60000352 0 559.55060087 0 7147
0.08150000 0.08149960 22978.58785032 0 199.71376560 0 7628.70367225 0 963.78913059 0 1277.78097185 0 7386
0.08250000 0.08250610 22840.88987887 0 -72.18790862 0 6953.15180397 0 1268.99078297 0 271.07953303 0 7227
0.08350000 0.08350160 23121.90614714 0 -69.37617225 0 6951.46570636 0 684.79280725 0 624.83742438 0 7798
0.08450000 0.08449610 22765.57751897 0 296.18440237 0 7441.87281645 0 369.15645879 0 1066.26002671 0 7371
0.08550000 0.08548940 22637.32169413 0 687.48606716 0 7271.84673350 0 54.04212615 0 7.48564391 0 8256
0.08650000 0.08650700 22455.11074578 0 506.99269025 0 8572.71600194 0 -135.28347968 0 2504.83288694 0 8037
0.08750000 0.08749060 21870.14728174 0 449.49114143 0 9134.42255962 0 11.17351032 0 1906.32443877 0 8155
0.08850000 0.08849210 21832.15388227 0 462.28187790 0 9329.15559288 0 196.63832356 0 4434.51539793 0 8718
0.08950000 0.08949900 21502.91522236 0 579.18689363 0 10366.66765536 0 676.31173627 0 4430.63737343 0 8571
0.09050000 0.09049190 20890.74938355 0 845.04851659 0 9934.61076321 0 606.15321473 0 5597.33823475 0 8932
0.09150000 0.09150830 20226.76414487 0 896.37557596 0 10415.90170556 0 1364.78360850 0 5882.18756492 0 9285
0.09250000 0.09250820 19284.34798758 0 646.44420321 0 9612.65604497 0 608.54410114 0 5453.91877207 0 9204
0.09350000 0.09350330 18486.03697267 0 423.15879303 0 8868.06409990 0 1397.23536716 0 4948.92129733 0 9349
0.09450000 0.09448040 18406.11594597 0 2.90858582 0 8117.63825710 0 786.66682482 0 3237.44229833 0 9564
0.09550000 0.09549270 17867.80118246 0 170.06992149 0 6555.60370957 0 775.42954629 0 2064.80637343 0 10155
0.09650000 0.09649430 17796.19823731 0 79.61932763 0 5872.86906547 0 477.39043655 0 967.33105963 0 9913
0.09750000 0.09749140 17389.28668084 0 206.21873018 0 4912.18685074 0 -183.57331522 0 -181.95241338 0 10476
0.09850000 0.09850240 17434.02447075 0 297.42761834 0 5065.19458849 0 51.07200900 0 -1045.48842823 0 10575
0.09950000 0.09950330 16938.98621256 0 444.08101623 0 4963.89384411 0 -1164.40776857 0 247.90580748 0 10882
0.10050000 0.10051200 16866.25920233 0 410.65581722 0 6317.30191407 0 -851.74794443 0 -10.38628259 0 10875
0.10150000 0.10150300 16791.39646846 0 384.99565973 0 6973.50862244 0 -308.40298972 0 1935.19042985 0 11118
0.10250000 0.10250800 16512.40351732 0 266.28876769 0 8194.74912111 0 426.92553509 0 1366.99801670 0 11575
0.10350000 0.10349800 16735.19321481 0 -7.29845335 0 7979.17592139 0 995.61590907 0 2319.58696290 0 11364
0.10450000 0.10450100 16467.89054042 0 -32.73569750 0 7823.66151853 0 923.20700925 0 1352.59874311 0 12093
0.10550000 0.10551000 16960.45585546 0 -190.81229429 0 7555.87549617 0 699.62034963 0 1820.28849808 0 12067
0.10650000 0.10649700 16630.76756952 0 7.60951588 0 6864.76656727 0 146.51176569 0 1236.16808284 0 12054
0.10750000 0.10749900 16828.60302238 0 382.28216665 0 6625.80157338 0 25.15410339 0 682.31424376 0 12807
0.10850000 0.10850100 16006.79904744 0 483.58403510 0 6197.10563580 0 -324.28602920 0 450.13747885 0 12736
0.10950000 0.10950300 15736.46139736 0 457.29102897 0 6317.17826691 0 145.87666893 0 1138.29573692 0 12933
0.11050000 0.11050200 15612.70183281 0 134.84959056 0 6401.88781082 0 350.87803663 0 746.21509504 0 13428
0.11150000 0.11150900 15791.76539895 0 -256.25761097 0 6578.18617689 0 1053.51987318 0 2859.72271182 0 13453
0.11250000 0.11250000 16114.25966843 0 -322.66400330 0 6502.54783812 0 1058.01276127 0 1781.20475548 0 13668
0.11350000 0.11349100 16327.83203232 0 -58.28996806 0 6302.29564534 0 1169.23000774 0 4167.46001786 0 13791
0.11450000 0.11448600 16096.83665979 0 154.37684901 0 5823.64625592 0 831.16181668 0 3009.54934541 0 14205
0.11550000 0.11549300 16021.18708037 0 365.63813511 0 5048.44601891 0 1123.92006870 0 3871.33631501 0 14776
0.11650000 0.11649800 15408.57161554 0 276.75381352 0 4634.12687361 0 754.40728129 0 3370.02577371 0 14553
0.11750000 0.11747300 15113.27972083 0 46.04125577 0 3274.00813516 0 512.00264828 0 2666.84438593 0 14568
0.11850000 0.11849100 14928.82064234 0 199.46309909 0 2946.51177611 0 252.00752093 0 1780.47411319 0 16015
0.11950000 0.11950300 14854.29512799 0 113.32374441 0 2394.69699108 0 -302.55110695 0 224.99736129 0 15270
0.12050000 0.12050700 14583.17063236 0 289.46474136 0 2494.07558419 0 -491.10740263 0 4.40083841 0 15999
0.12150000 0.12150000 14332.84134058 0 373.27166102 0 3050.66764579 0 -660.73781468 0 -320.47095234 0 15670
0.12250000 0.12250700 13844.54747283 0 406.70023223 0 2889.57788016 0 -390.26078053 0 246.45014321 0 16887
0.12350000 0.12352200 13765.30088517 0 294.71412526 0 3072.87917163 0 96.89980481 0 -53.85935316 0 16407
0.12450000 0.12449800 13586.34972553 0 55.29321057 0 3574.48196985 0 502.14459758 0 403.15717912 0 16306
0.12550000 0.12549900 13641.54132062 0 -106.32756339 0 2944.36481183 0 801.33587403 0 131.72131746 0 17523
0.12650000 0.12650100 13512.49865023 0 43.98713925 0 2956.84193414 0 166.74943327 0 587.25430866 0 17154
0.12750000 0.12750600 13651.32068676 0 29.21973436 0 2759.51231055 0 -11.36587158 0 419.35046056 0 18007
0.12850000 0.12850300 13525.98743111 0 179.77622340 0 3001.26498583 0 -349.54714359 0 310.82984621 0 17496
0.12950000 0.12949900 13385.92892300 0 216.07678087 0 2661.99966546 0 -394.53897220 0 -72.73364221 0 18405
0.13050000 0.13049000 13323.65571795 0 212.80125525 0 3612.57653518 0 -12.27130600 0 364.82880826 0 18100
0.13150000 0.13148800 13243.17265872 0 254.30173775 0 2869.76061292 0 -141.19268977 0 283.42626379 0 19059
0.13250000 0.13249300 13021.39461979 0 338.26153025 0 3826.29502753 0 162.37119981 0 205.44200122 0 18957
0.13350000 0.13349100 12696.20259415 0 343.47944032 0 2961.10214076 0 -7.17655974 0 -283.83879567 0 19468
0.13450000 0.13450700 12451.71844075 0 317.25162997 0 3589.93786461 0 335.83579782 0 173.20269085 0 19953
0.13550000 0.13551000 12308.73736345 0 206.27830563 0 3252.44856706 0 -10.04018295 0 428.28902602 0 19956
0.13650000 0.13649900 11854.16544789 0 141.26800213 0 3191.59168400 0 214.14900927 0 280.72850762 0 19723
0.13750000 0.13749600 12150.58140766 0 70.90400149 0 3402.38760716 0 258.88117886 0 379.53495161 0 20946
0.13850000 0.13851100 11875.74749729 0 89.13150350 0 3282.78708338 0 -82.28976903 0 301.08757422 0 20955
0.13950000 0.13949800 12047.72945348 0 208.84004993 0 3676.04124921 0 140.22711787 0 1055.65672088 0 20506
0.14050000 0.14048300 11637.10848227 0 198.19402962 0 3504.67752881 0 81.62814432 0 1097.87210877 0 21447
0.14150000 0.14148400 11596.52973313 0 229.25307166 0 3542.19882095 0 250.98799391 0 1184.92195616 0 21771
0.14250000 0.14249400 11486.82098200 0 120.23786867 0 3292.54396822 0 259.40948944 0 1334.22027917 0 22470
0.14350000 0.14350900 11283.47761028 0 115.75846936 0 3185.45428870 0 426.27470141 0 927.41101263 0 22519
0.14450000 0.14449900 11195.36214920 0 194.89377457 0 2989.15880499 0 64.96050742 0 907.27451091 0 22218
0.14550000 0.14550500 10929.59944396 0 104.94204079 0 3160.56748798 0 102.93625907 0 867.76362359 0 23559
0.14650000 0.14650700 10911.86169711 0 172.60918449 0 2895.41177789 0 42.92141316 0 755.81123857 0 23044
0.14750000 0.14750500 10748.87226151 0 72.43059427 0 2793.14433754 0 274.37641589 0 1257.96370461 0 23649
0.14850000 0.14849900 10651.65187334 0 182.61223958 0 2786.77088858 0 281.64124846 0 705.16311450 0 23640
0.14950000 0.14949500 10616.70469022 0 254.50744166 0 2709.19915788 0 271.45159857 0 1084.63511846 0 24457
0.15050000 0.15050000 10212.85059075 0 239.21004008 0 2753.22878680 0 102.15132443 0 1057.16971247 0 24591
0.15150000 0.15149900 10110.15600567 0 89.24492167 0 2407.29776055 0 153.57763874 0 1017.45424531 0 25020
0.15250000 0.15250500 10011.67666462 0 90.41215084 0 2587.80012999 0 109.41357165 0 880.03054573 0 25297
0.15350000 0.15350100 9947.35766114 0 146.89169969 0 2286.62937495 0 -151.64874308 0 775.18674823 0 25452
0.15450000 0.15450400 9793.87781606 0 306.33920624 0 2688.23534427 0 -358.19907245 0 822.29406731 0 26061
0.15550000 0.15549900 9548.31456019 0 348.23311152 0 2821.60566519 0 -233.77855764 0 959.74137226 0 26128
0.15650000 0.15649500 9465.43724235 0 147.33008507 0 3141.71691671 0 -199.10677046 0 1047.37573349 0 26331
0.15750000 0.15749700 9316.40869496 0 26.08179430 0 3310.67513785 0 -64.83157716 0 661.84614285 0 27345
0.15850000 0.15849900 9619.69269233 0 -117.11633997 0 3495.37027001 0 -54.90091186 0 861.59475447 0 26980
0.15950000 0.15949700 9598.35793724 0 -5.94187542 0 3665.03665214 0 -177.47301407 0 509.78711602 0 27777
0.16050000 0.16050000 9623.71684529 0 125.05898377 0 3791.55017612 0 -212.57869036 0 590.84906876 0 28224
0.16150000 0.16150500 9477.31861017 0 236.80791301 0 3720.27320983 0 -196.79569267 0 126.98225911 0 28075
0.16250000 0.16249700 9299.40159040 0 272.81396544 0 3757.34487594 0 7.72330499 0 291.28010646 0 28590
0.16350000 0.16349900 9020.41987991 0 205.57913715 0 3602.87585360 0 198.41996670 0 -19.06965156 0 29163
0.16450000 0.16449100 8943.97221429 0 158.20878684 0 3721.09377734 0 130.34770994 0 260.68979956 0 28996
0.16550000 0.16550500 8717.13588253 0 120.09960867 0 3439.11081310 0 175.31256100 0 -105.05163713 0 30777
0.16650000 0.16650700 8770.60765806 0 101.73193575 0 3487.85027467 0 43.58551080 0 -91.79980917 0 29211
0.16750000 0.16749900 8688.37105731 0 25.07350793 0 3290.62181694 0 -14.71772122 0 34.80824868 0 30922
0.16850000 0.16850800 8632.84224270 0 80.39763029 0 3255.09011998 0 76.47194543 0 -350.86229972 0 30867
0.16950000 0.16949900 8563.06028296 0 104.40440046 0 2951.28905268 0 197.37683432 0 -262.02631293 0 30852
0.17050000 0.17049200 8501.60764542 0 142.09868622 0 2978.85112827 0 418.09375581 0 -318.19359650 0 31257
0.17150000 0.17149500 8288.40622300 0 158.09862847 0 2504.97901540 0 483.23220273 0 -173.49494777 0 32608
0.17250000 0.17250900 8196.80616020 0 142.76188461 0 2527.94366484 0 431.31051294 0 192.30842490 0 32361
0.17350000 0.17350400 8140.51298134 0 35.50359533 0 2105.12658760 0 564.51334817 0 -95.68030662 0 32508
0.17450000 0.17449800 8007.88454336 0 -0.17934346 0 2209.82200851 0 383.98849743 0 412.58246476 0 32791
0.17550000 0.17549800 8127.38390128 0 -21.89971019 0 2027.07150892 0 21.68523858 0 175.51714084 0 33633
0.17650000 0.17650100 8096.01124509 0 -45.08984709 0 2056.83675206 0 -75.01234693 0 529.83256847 0 33984
0.17750000 0.17750300 8119.05457909 0 66.19281996 0 2047.09110787 0 -195.33553214 0 403.01667098 0 34069
0.17850000 0.17849800 8019.08023149 0 125.56256493 0 2192.84862590 0 -2.67547721 0 256.25761097 0 34536
