### header ###
fiducial parameters:
Omega_m = 0.31
Omega_nu = 0
Omega_de = 0.69
Omega_k = 0
H_0 = 100
w_de = -1
zeff = 0
beta = 0
fgrowth = 0
b_1 = 2
gamma = 0.55
Lx = 3500 Ly = 3500 Lz = 3500
nx = 700 ny = 700 nz = 700
xoffset = 857.220397 yoffset = 15.9954215 zoffset = 262.898189
bins = 400 dk = 0.001
kx_ny = 0.628318531 ky_ny = 0.628318531 kz_ny = 0.628318531
############################
A(data) = 3.05663331 (not used)
A(ran) = 3.05552538 (used)
Ngal = 186779
weighted Ngal = 0
Nran = 9360983
weighted Nran = 0
SN(data) = 3447.063
SN(ran) = 68.6156168
SN(data+ran) = 3515.67862
############################
13 columns: k_central k_mean P_0(k) sigma^{lin}_{P_0(k)} P^img_1(k) sigma^{lin}_{P_1(k)} P_2(k) sigma^{lin}_{P_2(k)} P^img_3(k) sigma^{lin}_{P_3(k)} P_4(k) sigma^{lin}_{P_4(k)} N_modes
### header ###
0.00050000 0 0 0 0 0 0 0 0 0 0 0 0
0.00150000 0.00179520 79447.12086253 0 -79565.37250822 0 -49631.51961159 0 101027.25935541 0 -198397.48540199 0 3
0.00250000 0.00253879 154583.67698274 0 -101357.62208039 0 -46517.74695260 0 -34482.15740191 0 202036.08404362 0 6
0.00350000 0.00331552 167692.52386522 0 -52750.23815690 0 -64138.02900596 0 -93561.89357893 0 -12793.09700345 0 7
0.00450000 0.00420575 185959.70536815 0 -5099.38864802 0 -76600.76328443 0 -87394.03611632 0 49862.62739062 0 24
0.00550000 0.00557378 148641.86900633 0 -8293.41955323 0 -83784.55076010 0 -13215.18343840 0 37892.57083369 0 45
0.00650000 0.00659388 137340.51876140 0 6152.77250932 0 -104728.69323462 0 -11303.37356207 0 -6082.97930893 0 40
0.00750000 0.00754703 133761.49556865 0 -11339.68086393 0 -91966.28320766 0 -62959.67158983 0 -56477.52553279 0 57
0.00850000 0.00846663 133335.47490594 0 6839.07043970 0 -60973.33619916 0 -76983.05781579 0 -11372.95319009 0 75
0.00950000 0.00948925 111076.17629590 0 26321.78219073 0 -39956.91634044 0 -106454.35793484 0 1222.44324830 0 112
0.01050000 0.01054430 108450.80991117 0 16279.38482767 0 4745.89266383 0 -75798.18082223 0 26135.29979511 0 105
0.01150000 0.01145670 90422.04261024 0 14065.42625969 0 18770.87506219 0 -12967.88912232 0 -961.31955962 0 144
0.01250000 0.01249090 86544.46773408 0 12003.89091563 0 24505.18062610 0 10576.22710693 0 -11754.57328241 0 169
0.01350000 0.01339930 73626.82432053 0 10039.91317926 0 9085.48076634 0 20574.88709801 0 -19893.14163117 0 180
0.01450000 0.01448870 68825.60517380 0 9401.77019661 0 17165.82254431 0 18948.36493723 0 -2318.48537912 0 267
0.01550000 0.01550050 52916.59978772 0 2528.71926975 0 15596.40288925 0 2605.05452886 0 -16905.26426037 0 238
0.01650000 0.01653350 60343.29772569 0 -618.82704843 0 17074.54846038 0 -10485.70614660 0 -2292.71056700 0 315
0.01750000 0.01747870 59893.67169645 0 -3547.57185200 0 20368.95837661 0 -12261.18941086 0 -2934.28194812 0 297
0.01850000 0.01844180 64214.91505696 0 -1076.55533872 0 28383.42994130 0 -16662.35379807 0 180.02351772 0 388
0.01950000 0.01947590 68621.36255002 0 -1210.19093900 0 31947.72788159 0 -6723.44910628 0 -21408.49375622 0 399
0.02050000 0.02045430 65651.91984641 0 3601.95412024 0 28941.64065660 0 3345.45371121 0 -12840.53254953 0 462
0.02150000 0.02154770 62638.07657242 0 3645.61280768 0 27887.38002455 0 6667.93153232 0 -18836.18324294 0 571
0.02250000 0.02255340 58347.96981443 0 4954.08075602 0 15147.90092508 0 17860.94438552 0 -8199.94230175 0 510
0.02350000 0.02348930 54563.57993283 0 2271.37581191 0 14129.27315584 0 10617.44657316 0 -14904.54083676 0 555
0.02450000 0.02439640 50945.77649506 0 -41.72900493 0 907.06768293 0 10853.21922225 0 -7258.23430546 0 592
0.02550000 0.02547300 52135.48696842 0 -2243.45403549 0 5475.11863935 0 2442.13253716 0 -2133.63287785 0 837
0.02650000 0.02652900 55391.56626567 0 -2657.43596127 0 2374.35141326 0 -3983.96763533 0 6560.08872921 0 723
0.02750000 0.02749970 57712.19860908 0 -1246.86918234 0 18006.06118645 0 -3737.39272090 0 16316.14175556 0 826
0.02850000 0.02848090 58875.15633371 0 -173.22292402 0 19994.41989426 0 669.58757900 0 22394.52363834 0 831
0.02950000 0.02946900 57304.27539406 0 139.62349492 0 21971.65035784 0 6599.27363766 0 23510.15822339 0 996
0.03050000 0.03053250 59522.16818979 0 -709.82573643 0 25332.94214593 0 10952.85635033 0 25681.40231859 0 1041
0.03150000 0.03150510 61074.72686875 0 -2484.90321320 0 15629.00077637 0 11881.92985519 0 23928.98486963 0 1036
0.03250000 0.03246190 62381.22770322 0 -2558.07984945 0 14093.97751255 0 5757.07912229 0 23651.00357705 0 1059
0.03350000 0.03345080 64584.39524649 0 -1771.61648041 0 11197.02576550 0 -579.34988307 0 24127.60716804 0 1302
0.03450000 0.03451200 64362.27998805 0 2025.45285522 0 11538.86519488 0 -6149.40031410 0 21531.91610124 0 1339
0.03550000 0.03553350 64781.33144730 0 3868.96453770 0 12291.76398085 0 -5938.08732101 0 26616.17483338 0 1365
0.03650000 0.03647120 59328.15455817 0 4749.30982165 0 18848.99758477 0 -3561.92616299 0 31024.64564356 0 1308
0.03750000 0.03744890 58039.41395186 0 4118.85544410 0 22925.53197887 0 4089.78712131 0 29612.70750524 0 1579
0.03850000 0.03847530 56966.38143308 0 2876.22398709 0 30605.70659082 0 4683.63069943 0 31231.13639749 0 1662
0.03950000 0.03950240 52774.63036899 0 3844.65101017 0 29558.75238174 0 4740.82313035 0 28697.26890971 0 1683
0.04050000 0.04050350 51503.53758433 0 5400.68305021 0 34844.21876196 0 1638.98804244 0 31403.34316669 0 1822
0.04150000 0.04152450 45244.29363128 0 3969.30982678 0 33701.94383467 0 2500.78625268 0 28567.10217425 0 1887
0.04250000 0.04250150 41122.00978871 0 3639.02578635 0 26668.33145277 0 1459.83455108 0 20337.59696107 0 1920
0.04350000 0.04349210 39960.40094217 0 626.26161483 0 25061.03080474 0 4417.33968361 0 17162.45034909 0 2005
0.04450000 0.04448520 38070.39792826 0 -1122.03051532 0 17309.47806065 0 5051.62712306 0 3347.97161697 0 2151
0.04550000 0.04548030 39446.25357773 0 -706.19050998 0 13540.93749658 0 66.25588001 0 -3124.24894547 0 2274
0.04650000 0.04648670 38202.13835482 0 373.22894655 0 10780.13251119 0 -4503.80276904 0 -7251.15269550 0 2311
0.04750000 0.04749250 37570.18897073 0 1457.31664532 0 11400.94241042 0 -3938.24066816 0 -11088.63217051 0 2568
0.04850000 0.04851840 37470.59680525 0 967.62556468 0 15249.62881420 0 -4391.92457231 0 -10453.59160746 0 2493
0.04950000 0.04949480 37917.86229784 0 525.05529190 0 16868.28251946 0 -1815.88216299 0 -9391.39507598 0 2644
0.05050000 0.05050630 38370.74811579 0 575.90125142 0 22042.80367697 0 13.33309786 0 -4723.11910545 0 2829
0.05150000 0.05149060 39245.38314917 0 370.99767738 0 24418.29039595 0 1357.09500340 0 -42.51832342 0 2784
0.05250000 0.05249300 38954.13788873 0 581.30912849 0 25235.59811060 0 3002.61386391 0 5220.69775071 0 3055
0.05350000 0.05348950 38901.19442378 0 152.58396522 0 24478.20306434 0 5017.07336272 0 6538.52916111 0 3009
0.05450000 0.05448610 38261.37658418 0 342.95562600 0 23370.99896734 0 6907.73957502 0 7921.23036688 0 3336
0.05550000 0.05550870 38278.91199932 0 -14.47953183 0 19929.89855906 0 5861.56097083 0 9840.79629221 0 3349
0.05650000 0.05647670 35985.70684369 0 629.61470094 0 15532.44358659 0 4040.17088899 0 7127.53925941 0 3324
0.05750000 0.05747970 36053.60037410 0 850.37658504 0 15171.28147860 0 2165.99471131 0 2641.76649415 0 3639
0.05850000 0.05849280 33972.95592380 0 950.61958419 0 10794.76783844 0 -465.75973523 0 1094.01206930 0 3846
0.05950000 0.05951020 32941.06418669 0 1518.85920807 0 12298.62077779 0 -2416.26779983 0 44.21757259 0 3787
0.06050000 0.06049470 32033.60645318 0 1157.07886430 0 11553.02841481 0 -2381.82644599 0 -1076.03602066 0 3930
0.06150000 0.06148310 31293.85922857 0 1275.60028560 0 13718.98940416 0 -0.57888227 0 -1150.36819581 0 4083
0.06250000 0.06249100 30537.25102787 0 556.78427672 0 12680.01605709 0 1655.89398113 0 47.79637097 0 4303
0.06350000 0.06350600 30539.72397103 0 -320.32257575 0 12518.48790609 0 4496.60875257 0 277.63508053 0 4470
0.06450000 0.06451750 31054.09614848 0 -1141.58924759 0 11609.90610750 0 5192.82093689 0 4615.04024867 0 4479
0.06550000 0.06550280 30957.53895870 0 -252.59540697 0 9193.44721661 0 5481.77310459 0 4777.40020783 0 4636
0.06650000 0.06648880 32692.64580554 0 -680.74617298 0 9070.09231549 0 3567.25423143 0 7839.52207671 0 4653
0.06750000 0.06749660 30862.78027304 0 -110.86114265 0 5877.89363635 0 2005.00611154 0 6551.53459400 0 5220
0.06850000 0.06852730 32897.11324233 0 633.65459081 0 7862.01461882 0 -683.59680201 0 11380.70923910 0 5029
0.06950000 0.06949320 30606.26862336 0 579.27457071 0 7292.16983002 0 -1635.14373989 0 6776.37008992 0 5040
0.07050000 0.07048030 31061.29016495 0 1511.37293469 0 10815.38319189 0 -4580.81246719 0 8636.25940052 0 5475
0.07150000 0.07148790 29959.70639331 0 1651.83610622 0 12011.87177764 0 -3007.41362178 0 5234.68112022 0 5509
0.07250000 0.07249820 28647.36042047 0 1539.32843305 0 12889.76659973 0 -3512.52350302 0 4333.12472834 0 5916
0.07350000 0.07351270 28106.57271380 0 1208.84206091 0 15507.03971594 0 -684.32856837 0 1882.39309336 0 5721
0.07450000 0.07449140 26869.42669435 0 1188.33911398 0 14867.78390887 0 -599.17726689 0 281.92563692 0 6028
0.07550000 0.07549160 25825.39505445 0 1198.42197768 0 14972.54677368 0 1822.75020059 0 322.08286166 0 6183
0.07650000 0.07648840 24652.65796369 0 644.56476641 0 13180.78704716 0 2699.15001613 0 -350.19235694 0 6330
0.07750000 0.07749960 24799.23604922 0 413.16360640 0 13308.93046549 0 3194.36812473 0 3103.46498227 0 6583
0.07850000 0.07848650 23914.59683669 0 -245.59585376 0 10069.73462565 0 3493.93146671 0 634.47628238 0 6549
0.07950000 0.07947320 24123.33572077 0 0.01869376 0 10756.16744383 0 3004.87323471 0 4179.10533202 0 6828
0.08050000 0.08048110 23321.98973015 0 243.21620800 0 7737.09726725 0 1095.74088139 0 966.69821100 0 7147
0.08150000 0.08149960 23527.35641901 0 482.14185961 0 8682.55964089 0 334.94329016 0 2747.34992646 0 7386
0.08250000 0.08250610 22788.95807249 0 322.82699273 0 6921.28455915 0 -223.31463588 0 1539.99163145 0 7227
0.08350000 0.08350160 22845.04891964 0 -28.42783051 0 7277.39961496 0 130.20607774 0 1062.30444172 0 7798
0.08450000 0.08449610 22293.24537525 0 -24.47404402 0 5565.11128910 0 393.74763039 0 -76.10460096 0 7371
0.08550000 0.08548940 22583.36657062 0 498.93539180 0 6183.83042729 0 -468.87451955 0 -1974.43154155 0 8256
0.08650000 0.08650700 22039.99351428 0 379.49785746 0 5407.59605041 0 -418.99075974 0 -2725.46437949 0 8037
0.08750000 0.08749060 21259.66754054 0 798.47063216 0 6420.88451056 0 -1266.95622519 0 -3239.17335855 0 8155
0.08850000 0.08849210 20924.35892923 0 709.11195510 0 5708.23849486 0 -466.78038632 0 -1970.10389102 0 8718
0.08950000 0.08949900 20307.58442362 0 396.08456168 0 6519.82471829 0 55.79454359 0 -1983.97485402 0 8571
0.09050000 0.09049190 20110.08619028 0 54.53862569 0 6349.52885972 0 762.64555421 0 -1645.24908489 0 8932
0.09150000 0.09150830 19980.70630037 0 154.77364398 0 6879.30072867 0 938.70561848 0 -1769.97534540 0 9285
0.09250000 0.09250820 19980.93111338 0 248.84889808 0 6370.13297251 0 150.47746727 0 -1838.94797829 0 9204
0.09350000 0.09350330 19735.32289491 0 521.22447814 0 6942.19216951 0 -85.24628498 0 -889.45695543 0 9349
0.09450000 0.09448040 19249.83918984 0 630.34534324 0 7630.28860401 0 -191.45863171 0 -1087.01364016 0 9564
0.09550000 0.09549270 18839.33062514 0 399.05658973 0 6952.03897955 0 321.05096992 0 533.90055997 0 10155
0.09650000 0.09649430 18601.70326869 0 138.98839816 0 6550.41052893 0 1272.81260422 0 395.58997305 0 9913
0.09750000 0.09749140 18585.29191862 0 161.98002516 0 6589.24697721 0 1122.47114883 0 1571.29684373 0 10476
0.09850000 0.09850240 18126.89818181 0 171.50872479 0 5768.76939905 0 1178.48106329 0 494.24579232 0 10575
0.09950000 0.09950330 18044.27939894 0 607.37507347 0 6124.59219794 0 88.12175584 0 1280.64733778 0 10882
0.10050000 0.10051200 17517.76731870 0 417.25857546 0 4898.51821946 0 -259.26448505 0 1124.36857067 0 10875
0.10150000 0.10150300 17099.27789198 0 320.28210941 0 6492.17271749 0 -302.22850027 0 1299.00332043 0 11118
0.10250000 0.10250800 17222.47542400 0 -147.48070979 0 4771.35273774 0 157.41632097 0 1231.42452823 0 11575
0.10350000 0.10349800 17187.96662625 0 -158.50891222 0 5454.03117858 0 1082.40272523 0 -31.93356466 0 11364
0.10450000 0.10450100 17183.24555294 0 165.49385258 0 4540.04262699 0 150.33021475 0 -324.59964335 0 12093
0.10550000 0.10551000 16973.04538427 0 243.48823174 0 4124.71182313 0 712.47740593 0 -156.42264744 0 12067
0.10650000 0.10649700 16766.32981733 0 181.88047322 0 3469.01094404 0 268.54589035 0 743.60838813 0 12054
0.10750000 0.10749900 16530.61337150 0 180.73842310 0 3575.45990647 0 373.37619907 0 82.99725558 0 12807
0.10850000 0.10850100 16510.38020019 0 286.40503624 0 3847.41621025 0 312.82618578 0 491.18271499 0 12736
0.10950000 0.10950300 16029.28034890 0 422.92948375 0 3775.29619516 0 -369.92307117 0 120.09398834 0 12933
0.11050000 0.11050200 15877.41915752 0 565.04952721 0 4583.63387053 0 -894.55908680 0 965.43925811 0 13428
0.11150000 0.11150900 15419.36264024 0 593.25906428 0 4980.13658441 0 -706.50524820 0 678.04504461 0 13453
0.11250000 0.11250000 15162.73858405 0 386.82900987 0 5838.80989375 0 -553.79426363 0 667.79132302 0 13668
0.11350000 0.11349100 14923.31272348 0 144.05905570 0 5873.86948338 0 -42.71334871 0 213.51166437 0 13791
0.11450000 0.11448600 15011.43942521 0 69.61705939 0 5921.18138231 0 188.52032560 0 475.83360642 0 14205
0.11550000 0.11549300 14970.52345655 0 43.36564367 0 6364.79366341 0 -19.42530575 0 271.51791841 0 14776
0.11650000 0.11649800 15070.45284155 0 99.18233135 0 6442.62392907 0 267.58818691 0 770.00480824 0 14553
0.11750000 0.11747300 15046.28544248 0 274.22466710 0 6746.30134922 0 101.84737723 0 1673.84530035 0 14568
0.11850000 0.11849100 14792.47154897 0 240.96020939 0 6677.48608544 0 490.03504455 0 1913.06882921 0 16015
0.11950000 0.11950300 14486.95066210 0 318.27115699 0 6710.65724575 0 626.72922590 0 1968.04685193 0 15270
0.12050000 0.12050700 14398.48674085 0 310.16327562 0 6821.91720669 0 689.19689420 0 2844.18813251 0 15999
0.12150000 0.12150000 13973.59014322 0 309.03696242 0 5668.71636689 0 414.64737229 0 1973.43112363 0 15670
0.12250000 0.12250700 13798.79802435 0 128.18388468 0 5959.54572326 0 713.56887312 0 2434.87107679 0 16887
0.12350000 0.12352200 13587.92341664 0 -2.38665993 0 5045.77074403 0 457.40680768 0 1609.02046759 0 16407
0.12450000 0.12449800 13452.92320136 0 -200.79961246 0 4359.51777625 0 865.44917360 0 1391.30030358 0 16306
0.12550000 0.12549900 13646.26239393 0 -117.35239363 0 3929.00085326 0 551.56749072 0 1121.94171418 0 17523
0.12650000 0.12650100 13670.09257348 0 -81.91174594 0 3234.76702346 0 711.31287452 0 632.58110867 0 17154
0.12750000 0.12750600 13449.21378662 0 244.97087358 0 3364.07946947 0 89.14117046 0 405.04336031 0 18007
0.12850000 0.12850300 13284.53825341 0 339.77676997 0 3073.84586760 0 -124.37105595 0 304.95773027 0 17496
0.12950000 0.12949900 13125.59545207 0 273.83911278 0 3643.93795072 0 30.00826600 0 313.45678628 0 18405
0.13050000 0.13049000 12830.19115086 0 290.32914741 0 3321.99447313 0 -453.21966528 0 370.20521150 0 18100
0.13150000 0.13148800 12596.83524169 0 243.59389386 0 3356.07612615 0 -22.97555287 0 550.59067817 0 19059
0.13250000 0.13249300 12616.84359999 0 153.51244297 0 3759.62672804 0 -164.86325208 0 473.71474376 0 18957
0.13350000 0.13349100 12466.21888019 0 171.60651845 0 3343.92498271 0 143.88819781 0 347.37432580 0 19468
0.13450000 0.13450700 12521.52288179 0 208.27801739 0 4160.58073962 0 81.80788233 0 416.71227983 0 19953
0.13550000 0.13551000 12336.05214473 0 417.38559481 0 3629.45999258 0 -390.65420331 0 140.99935057 0 19956
0.13650000 0.13649900 11804.14455214 0 531.03306996 0 4375.22096533 0 -195.01742173 0 339.25295565 0 19723
0.13750000 0.13749600 11338.78161187 0 589.33382904 0 4097.56565162 0 -138.36116985 0 -295.10529990 0 20946
0.13850000 0.13851100 10948.87715997 0 317.51128900 0 4207.73526943 0 207.96440324 0 184.91994518 0 20955
0.13950000 0.13949800 10651.98909286 0 173.72987737 0 3984.51842722 0 231.90136897 0 -517.32172420 0 20506
0.14050000 0.14048300 10514.33608401 0 40.40036001 0 3890.51286515 0 247.01667201 0 -275.91638504 0 21447
0.14150000 0.14148400 10511.79569694 0 -50.56707897 0 3593.64727935 0 -10.51508921 0 -921.79068726 0 21771
0.14250000 0.14249400 10522.17081757 0 -7.06061242 0 3782.24291731 0 -189.06324903 0 -429.16579678 0 22470
0.14350000 0.14350900 10771.98303941 0 -8.00661435 0 4097.77922398 0 71.13151226 0 -312.56203049 0 22519
0.14450000 0.14449900 10609.99402173 0 -15.42183558 0 3928.62991178 0 263.66857200 0 74.40636345 0 22218
0.14550000 0.14550500 10792.46350505 0 8.28134709 0 3642.01579944 0 805.43309122 0 228.90236336 0 23559
0.14650000 0.14650700 10709.36137419 0 8.70311879 0 3578.62976997 0 867.27465528 0 379.29777388 0 23044
0.14750000 0.14750500 10546.11340362 0 44.75858511 0 3044.26047487 0 885.89029696 0 852.44598884 0 23649
0.14850000 0.14849900 10536.08674317 0 114.76479583 0 2643.60996087 0 536.89394525 0 592.39241011 0 23640
0.14950000 0.14949500 10427.62570427 0 143.35089471 0 2422.16914147 0 242.76433384 0 814.72910937 0 24457
0.15050000 0.15050000 10350.73965327 0 107.50266102 0 2175.66167094 0 -286.38929932 0 633.05883632 0 24591
0.15150000 0.15149900 10161.78431448 0 134.07623379 0 2592.46500004 0 -356.67708835 0 532.07283016 0 25020
0.15250000 0.15250500 10181.57910042 0 111.41496951 0 2394.64078783 0 -332.99191319 0 22.89439538 0 25297
0.15350000 0.15350100 10100.75882166 0 100.73635131 0 2968.77950521 0 -376.19423021 0 -315.17885398 0 25452
0.15450000 0.15450400 9983.26029957 0 168.77837073 0 2936.57504087 0 -124.60261335 0 -253.95215351 0 26061
0.15550000 0.15549900 9818.00025252 0 112.69988829 0 2995.67838241 0 163.62116017 0 -398.35966939 0 26128
0.15650000 0.15649500 9627.32509417 0 237.81957158 0 2875.18984723 0 222.31534203 0 -464.73458789 0 26331
0.15750000 0.15749700 9595.04194528 0 171.56043178 0 2683.99761894 0 105.01229485 0 -676.60511726 0 27345
0.15850000 0.15849900 9365.60902321 0 79.48567629 0 2556.59608356 0 226.28778800 0 -511.28886695 0 26980
0.15950000 0.15949700 9382.06533588 0 85.12162616 0 2490.24252229 0 45.06860226 0 -520.20719924 0 27777
0.16050000 0.16050000 9476.39687681 0 -117.68511689 0 2168.83859594 0 110.99041013 0 -744.70997190 0 28224
0.16150000 0.16150500 9427.62369329 0 11.78357416 0 2310.80801467 0 31.55509195 0 -726.80249122 0 28075
0.16250000 0.16249700 9485.18706568 0 234.45412075 0 2522.27837688 0 -308.64353964 0 -982.33957649 0 28590
0.16350000 0.16349900 9343.64479168 0 267.72082659 0 2589.86840972 0 -226.22371629 0 -558.57940864 0 29163
0.16450000 0.16449100 9032.87452092 0 350.89040135 0 2850.07823349 0 -196.76534292 0 -619.36435154 0 28996
0.16550000 0.16550500 8905.25941317 0 276.66613644 0 3036.22340960 0 -192.08136376 0 -274.49107053 0 30777
0.16650000 0.16650700 8599.85093281 0 211.44900497 0 3131.01581721 0 238.14105419 0 -207.50915688 0 29211
0.16750000 0.16749900 8610.91173313 0 139.56953980 0 3211.02676912 0 101.25814232 0 -27.36244164 0 30922
0.16850000 0.16850800 8506.10390571 0 95.35365331 0 3189.48968232 0 124.07093057 0 -99.46447168 0 30867
0.16950000 0.16949900 8406.05087355 0 46.75233933 0 3135.48959620 0 108.86918693 0 26.50983828 0 30852
0.17050000 0.17049200 8494.69464522 0 -50.70972283 0 3058.76091431 0 40.73533140 0 -276.87970881 0 31257
0.17150000 0.17149500 8517.96279223 0 -91.01813432 0 2848.17856352 0 108.66157211 0 -395.00770734 0 32608
0.17250000 0.17250900 8618.79142929 0 -51.70350876 0 2946.83775499 0 220.10430603 0 -221.28007810 0 32361
0.17350000 0.17350400 8564.35295780 0 -21.45075860 0 2532.65349750 0 198.35139873 0 -781.94237932 0 32508
0.17450000 0.17449800 8622.93922941 0 45.11154155 0 2666.22615014 0 250.24498690 0 -497.48759599 0 32791
0.17550000 0.17549800 8540.75883191 0 76.96833256 0 2339.71896835 0 94.02208582 0 -804.16851801 0 33633
0.17650000 0.17650100 8464.40109150 0 112.21609069 0 2543.18598724 0 52.95200784 0 -374.45080528 0 33984
0.17750000 0.17750300 8343.55285549 0 139.28627540 0 2393.58416666 0 146.43757740 0 -628.74692270 0 34069
