### header ###
fiducial parameters:
Omega_m = 0.31
Omega_nu = 0
Omega_de = 0.69
Omega_k = 0
H_0 = 100
w_de = -1
zeff = 0
beta = 0
fgrowth = 0
b_1 = 2
gamma = 0.55
Lx = 3500 Ly = 3500 Lz = 3500
nx = 700 ny = 700 nz = 700
xoffset = 857.220397 yoffset = 15.9954215 zoffset = 262.898189
bins = 400 dk = 0.001
kx_ny = 0.628318531 ky_ny = 0.628318531 kz_ny = 0.628318531
############################
A(data) = 3.07687435 (not used)
A(ran) = 3.07399098 (used)
Ngal = 187962
weighted Ngal = 0
Nran = 9360983
weighted Nran = 0
SN(data) = 3454.15206
SN(ran) = 69.0302847
SN(data+ran) = 3523.18234
############################
13 columns: k_central k_mean P_0(k) sigma^{lin}_{P_0(k)} P^img_1(k) sigma^{lin}_{P_1(k)} P_2(k) sigma^{lin}_{P_2(k)} P^img_3(k) sigma^{lin}_{P_3(k)} P_4(k) sigma^{lin}_{P_4(k)} N_modes
### header ###
0.00050000 0 0 0 0 0 0 0 0 0 0 0 0
0.00150000 0.00179520 5757.03415969 0 -1836.28394407 0 36064.05417928 0 -11584.50223685 0 56453.13332071 0 3
0.00250000 0.00253879 14487.84991416 0 -3964.98217625 0 13521.37876431 0 9701.10872557 0 -56141.43007594 0 6
0.00350000 0.00331552 25764.02110146 0 -6124.64840119 0 45674.47333476 0 1104.49172798 0 71742.32922548 0 7
0.00450000 0.00420575 43776.60186534 0 -11048.81778562 0 45554.64799797 0 13916.03801147 0 -10143.39460989 0 24
0.00550000 0.00557378 73023.42618929 0 -12811.86889017 0 84177.74872267 0 13146.50306243 0 34252.51090748 0 45
0.00650000 0.00659388 100799.63617810 0 -9531.15008652 0 44115.39507837 0 7738.70468031 0 -108900.43594041 0 40
0.00750000 0.00754703 105557.57881952 0 -773.06338931 0 98343.44158688 0 -5459.97748282 0 29976.56736941 0 57
0.00850000 0.00846663 114108.34183058 0 6421.51398700 0 79030.65475295 0 -3648.98500290 0 -48572.98753225 0 75
0.00950000 0.00948925 105454.38964581 0 9091.53947708 0 79244.33952334 0 -2738.03142701 0 6771.82886703 0 112
0.01050000 0.01054430 108892.56748490 0 10146.67687990 0 94374.81743979 0 -4211.65825654 0 -51040.19796120 0 105
0.01150000 0.01145670 101268.25890708 0 7281.69354354 0 63636.02154432 0 13757.54483617 0 -26652.48213524 0 144
0.01250000 0.01249090 96321.47333338 0 6374.01099701 0 71432.19967181 0 23359.42109709 0 -28669.84172193 0 169
0.01350000 0.01339930 88523.27188876 0 6633.63630694 0 41608.05552631 0 19657.42518534 0 -10816.54097891 0 180
0.01450000 0.01448870 87944.94040865 0 1282.36715734 0 42637.47432026 0 36492.54778515 0 -325.62141851 0 267
0.01550000 0.01550050 85708.50053921 0 531.80642673 0 27314.89368282 0 39298.66383363 0 -10537.76160013 0 238
0.01650000 0.01653350 85082.84591953 0 -1429.64216322 0 17597.12631286 0 22436.11404604 0 16861.31331601 0 315
0.01750000 0.01747870 82279.98965975 0 -2803.60938337 0 6243.12485990 0 13308.81805899 0 787.08385296 0 297
0.01850000 0.01844180 87343.11596851 0 -3293.67927394 0 10337.35203825 0 -5887.23461710 0 3348.96079424 0 388
0.01950000 0.01947590 93263.90392805 0 -4114.20181470 0 -4928.08113088 0 -8313.85505626 0 -18855.62956870 0 399
0.02050000 0.02045430 89765.36379453 0 -2026.40831053 0 1226.97323054 0 -12884.82071341 0 -13641.20410110 0 462
0.02150000 0.02154770 91147.28939540 0 2652.29898388 0 2701.47683083 0 -10080.78418531 0 -35119.83951788 0 571
0.02250000 0.02255340 89027.97710658 0 4416.17065594 0 5206.87175031 0 -5768.91552751 0 -27423.70318189 0 510
0.02350000 0.02348930 82280.32687927 0 8047.73265020 0 7986.97693300 0 94.04467953 0 -26988.68999860 0 555
0.02450000 0.02439640 81369.49695054 0 7167.26371909 0 4673.25557881 0 8620.06162282 0 -17349.38237075 0 592
0.02550000 0.02547300 69818.82907239 0 3615.85880519 0 8755.52270478 0 8495.50397207 0 -3824.84498358 0 837
0.02650000 0.02652900 71675.22254061 0 2131.42971031 0 5140.90037117 0 7861.22777327 0 3590.64602560 0 723
0.02750000 0.02749970 64964.32924120 0 2269.79088016 0 14666.57626078 0 4155.09530206 0 20599.39171660 0 826
0.02850000 0.02848090 66792.62108259 0 2256.54939360 0 11362.04975889 0 -1932.61632083 0 12654.72459295 0 831
0.02950000 0.02946900 62372.23518263 0 3668.07162784 0 17302.28404419 0 1813.07200031 0 25136.79279067 0 996
0.03050000 0.03053250 60114.43807680 0 4785.54967961 0 19817.82927127 0 168.69968617 0 20349.51205085 0 1041
0.03150000 0.03150510 56901.18565884 0 4146.87838638 0 17216.51787911 0 -612.14448157 0 16975.40592093 0 1036
0.03250000 0.03246190 55049.62567043 0 4227.41764886 0 24033.07329540 0 -1299.02580173 0 19095.61746181 0 1059
0.03350000 0.03345080 53274.72692001 0 326.24864682 0 21197.84396152 0 -1656.81571449 0 17055.32694763 0 1302
0.03450000 0.03451200 51614.37040054 0 209.99671289 0 28897.35249272 0 2655.34520023 0 16475.19696340 0 1339
0.03550000 0.03553350 53054.63497870 0 -1189.64302946 0 22490.74360860 0 1724.00108391 0 8611.41756241 0 1365
0.03650000 0.03647120 52574.43437947 0 221.75106136 0 27113.34881521 0 3555.67636118 0 14059.80593432 0 1308
0.03750000 0.03744890 52727.30722941 0 2409.99551672 0 23825.23366338 0 -657.12057328 0 5715.91585931 0 1579
0.03850000 0.03847530 50846.52154910 0 2752.53186645 0 27263.29909596 0 -2898.67156660 0 6706.82418385 0 1662
0.03950000 0.03950240 48799.48664448 0 3993.54466975 0 30079.86894962 0 -6262.39133525 0 4643.97368365 0 1683
0.04050000 0.04050350 46582.15588129 0 2756.94944219 0 33883.14312446 0 -7139.90397522 0 3276.88574175 0 1822
0.04150000 0.04152450 46376.00234688 0 2222.19796496 0 41419.43740705 0 -2694.91229080 0 9586.94867675 0 1887
0.04250000 0.04250150 45586.34663303 0 325.78103575 0 38367.82554660 0 2698.56550229 0 2827.00117754 0 1920
0.04350000 0.04349210 46627.79292325 0 -1370.85355990 0 41466.42332710 0 9065.19139177 0 8360.79601371 0 2005
0.04450000 0.04448520 46667.58482684 0 -774.92259294 0 33809.96648820 0 9565.98486314 0 3031.45737369 0 2151
0.04550000 0.04548030 47918.89406622 0 299.20139303 0 34458.88925490 0 9023.14011738 0 9539.13094854 0 2274
0.04650000 0.04648670 45486.41724803 0 68.75737442 0 26868.30262927 0 10570.30328400 0 5916.03316428 0 2311
0.04750000 0.04749250 45328.14888574 0 578.21008108 0 20025.55649678 0 3648.42297036 0 6986.89623747 0 2568
0.04850000 0.04851840 43558.64564766 0 -94.51487595 0 16240.49217614 0 6577.53421914 0 3102.99287494 0 2493
0.04950000 0.04949480 43329.22396624 0 -237.81057906 0 13698.98104586 0 2140.35478699 0 -269.15850582 0 2644
0.05050000 0.05050630 43514.13267077 0 426.91317037 0 9649.35676961 0 1191.70006855 0 695.79740431 0 2829
0.05150000 0.05149060 42134.00557402 0 138.51291863 0 10002.86399445 0 1134.28282461 0 1821.12030623 0 2784
0.05250000 0.05249300 42622.74906780 0 1198.00607361 0 8106.52125353 0 -949.78552791 0 -406.64740117 0 3055
0.05350000 0.05348950 42306.21234322 0 1652.01595663 0 9127.10489600 0 1206.16678604 0 2494.01938094 0 3009
0.05450000 0.05448610 40423.40334578 0 1326.14949194 0 9029.85078587 0 -751.41277194 0 406.62604393 0 3336
0.05550000 0.05550870 40454.53994830 0 772.07196391 0 11586.18833446 0 1067.04237601 0 997.23231464 0 3349
0.05650000 0.05647670 40388.78214152 0 -188.35621210 0 8471.76371773 0 -756.91619453 0 -1859.40596262 0 3324
0.05750000 0.05747970 40108.32790579 0 9.42629730 0 9521.01101956 0 -1978.51189776 0 -3127.75602850 0 3639
0.05850000 0.05849280 39365.43329897 0 1278.61278000 0 8398.55335952 0 -2918.74736881 0 -7664.21288791 0 3846
0.05950000 0.05951020 37945.28948562 0 2149.74073035 0 11308.65666791 0 -3510.28661353 0 -5627.06975593 0 3787
0.06050000 0.06049470 36123.06759562 0 2274.20845589 0 9347.42165032 0 -2168.72618943 0 -9841.98780118 0 3930
0.06150000 0.06148310 34660.43412250 0 1897.59045315 0 14346.10530844 0 -673.38242269 0 -6939.34828487 0 4083
0.06250000 0.06249100 33182.06373836 0 1086.54153283 0 12897.85986826 0 953.66804867 0 -8370.80019286 0 4303
0.06350000 0.06350600 33265.35696028 0 -94.39943446 0 12143.27498469 0 3801.10472924 0 -8770.19175398 0 4470
0.06450000 0.06451750 32928.36225137 0 -161.72598646 0 10727.03167714 0 1776.20266591 0 -6783.93504787 0 4479
0.06550000 0.06550280 33284.24125351 0 -113.86554377 0 9952.42719462 0 1025.96116978 0 -5772.34392598 0 4636
0.06650000 0.06648880 33297.73003439 0 765.18144502 0 9737.43850874 0 -479.89485353 0 -8031.75968551 0 4653
0.06750000 0.06749660 32043.38581931 0 979.32933022 0 7987.21298667 0 -470.82140026 0 -6570.09290836 0 5220
0.06850000 0.06852730 31016.32756202 0 1154.89817805 0 8912.71196460 0 -805.33529756 0 -5965.86296897 0 5029
0.06950000 0.06949320 30927.52642125 0 1072.84255178 0 9932.07037614 0 -136.83693761 0 -6621.60881066 0 5040
0.07050000 0.07048030 29443.53571174 0 806.15586506 0 9832.50069197 0 1443.52436687 0 -4246.22325754 0 5475
0.07150000 0.07148790 28876.10766284 0 1200.95112410 0 11794.14037299 0 2050.68811611 0 -2606.66194191 0 5509
0.07250000 0.07249820 27945.26937581 0 709.92915041 0 10128.33213791 0 2299.44371679 0 -609.20392734 0 5916
0.07350000 0.07351270 27580.28544657 0 812.85866509 0 11392.84914189 0 2413.28902739 0 1392.16583368 0 5721
0.07450000 0.07449140 26698.23158371 0 264.62402731 0 10669.54698930 0 627.35420608 0 1427.46147698 0 6028
0.07550000 0.07549160 27443.71154019 0 -358.30473457 0 11460.96748532 0 616.42042511 0 3262.75624378 0 6183
0.07650000 0.07648840 27226.99179410 0 -484.51476098 0 9252.41567034 0 -817.13348456 0 778.32176572 0 6330
0.07750000 0.07749960 27568.93238934 0 201.68987200 0 10768.50967834 0 -1585.69611732 0 927.53128759 0 6583
0.07850000 0.07848650 27589.50278017 0 605.25059048 0 10679.97831318 0 -1534.83217276 0 -3146.20193635 0 6549
0.07950000 0.07947320 26556.71179101 0 958.39024604 0 10153.11777277 0 -161.55063231 0 -1817.06243132 0 6828
0.08050000 0.08048110 25798.08027318 0 923.76117333 0 9777.99477657 0 534.12312485 0 -3775.85822770 0 7147
0.08150000 0.08149960 24967.95821669 0 167.32945085 0 7959.87572409 0 2332.89589336 0 -2210.11426543 0 7386
0.08250000 0.08250610 25029.44457619 0 140.25072324 0 7820.03078834 0 3346.58901693 0 -3465.23408540 0 7227
0.08350000 0.08350160 24448.97737244 0 -73.29612438 0 6147.03977745 0 1621.52007120 0 -2085.75894639 0 7798
0.08450000 0.08449610 24463.81503141 0 97.22612090 0 5786.22612963 0 2022.87874620 0 -506.31263088 0 7371
0.08550000 0.08548940 24637.48308520 0 -61.99567338 0 5641.62639863 0 41.40381290 0 -803.81218938 0 8256
0.08650000 0.08650700 24396.82075305 0 48.91672663 0 4856.28709466 0 1252.56819226 0 721.49128375 0 8037
0.08750000 0.08749060 23915.72090176 0 767.42058264 0 4822.63258637 0 514.81618315 0 -549.77348286 0 8155
0.08850000 0.08849210 23047.04341327 0 813.87144772 0 4866.05522014 0 576.29017794 0 987.96889437 0 8718
0.08950000 0.08949900 22714.43255814 0 931.95448365 0 4299.84116152 0 -553.85271501 0 -319.65150890 0 8571
0.09050000 0.09049190 22017.28739981 0 438.00432045 0 5019.51258392 0 -114.56021599 0 65.38967546 0 8932
0.09150000 0.09150830 21413.88926857 0 284.82572481 0 4667.70269735 0 -1177.82910555 0 -524.32127741 0 9285
0.09250000 0.09250820 21375.89586910 0 107.17612012 0 5249.68738894 0 -862.54121726 0 -1641.86564902 0 9204
0.09350000 0.09350330 21531.57888172 0 410.01959639 0 6713.19763282 0 -1523.25430251 0 -378.29848003 0 9349
0.09450000 0.09448040 21074.08439697 0 744.13669872 0 6512.09115059 0 -498.15978690 0 -2103.77770951 0 9564
0.09550000 0.09549270 20510.36576281 0 871.69897541 0 7037.82762593 0 -537.94607016 0 -990.06190354 0 10155
0.09650000 0.09649430 19605.94300499 0 973.04243427 0 7353.02671307 0 310.18800505 0 -1736.43324362 0 9913
0.09750000 0.09749140 18975.56731200 0 681.61507529 0 6845.75862689 0 1771.21181698 0 -245.39801830 0 10476
0.09850000 0.09850240 18205.69514344 0 321.43764830 0 5726.30222059 0 1637.16705702 0 -781.12630808 0 10575
0.09950000 0.09950330 18192.09395605 0 169.82937157 0 5329.88943191 0 1996.87912106 0 350.13165742 0 10882
0.10050000 0.10051200 17933.67139575 0 -86.73735730 0 4450.89302605 0 1587.74191575 0 226.11468197 0 10875
0.10150000 0.10150300 17560.36938497 0 242.98465059 0 3779.06181316 0 570.02239109 0 75.53233943 0 11118
0.10250000 0.10250800 17612.30119135 0 360.51352244 0 3606.13564231 0 59.60838398 0 1257.07569320 0 11575
0.10350000 0.10349800 16855.46817763 0 453.60409553 0 4471.46341688 0 -666.16704899 0 -232.99733242 0 11364
0.10450000 0.10450100 17088.71168030 0 406.95989126 0 4370.82587089 0 -463.34411939 0 1152.18918123 0 12093
0.10550000 0.10551000 16542.07883525 0 64.30416582 0 4633.58732238 0 -226.86443338 0 -663.60418062 0 12067
0.10650000 0.10649700 16648.97742370 0 155.35815782 0 4508.38895454 0 -135.15533626 0 -179.45024453 0 12054
0.10750000 0.10749900 16253.08170495 0 396.65333860 0 4838.79664212 0 -477.72091168 0 -1639.95473840 0 12807
0.10850000 0.10850100 16241.61624121 0 384.82929810 0 4938.15275393 0 -212.23809865 0 -1090.83658547 0 12736
0.10950000 0.10950300 15834.81709125 0 330.93037785 0 4695.37717945 0 -319.65150890 0 -1544.09446896 0 12933
0.11050000 0.11050200 15787.94357771 0 181.88047322 0 4543.40358156 0 3.19259210 0 -1608.03129032 0 13428
0.11150000 0.11150900 15633.15981714 0 62.23453721 0 4891.12187127 0 100.04280316 0 -1360.89434335 0 13453
0.11250000 0.11250000 15512.43522829 0 179.03996078 0 5134.74049457 0 -280.76222957 0 -2141.54629597 0 13668
0.11350000 0.11349100 15480.96140624 0 260.58188931 0 5418.11729950 0 -736.91570469 0 -1528.00909777 0 13791
0.11450000 0.11448600 15499.84569947 0 198.11534507 0 5847.24038180 0 -385.74541114 0 -1332.33184984 0 14205
0.11550000 0.11549300 15291.55644143 0 108.34694630 0 5776.80646432 0 265.51316279 0 -836.53484773 0 14776
0.11650000 0.11649800 15283.80039242 0 -15.39778059 0 5679.08024687 0 738.19826294 0 -1445.04185472 0 14553
0.11750000 0.11747300 15026.16467767 0 237.99267760 0 5381.89992284 0 526.79534464 0 -1869.16284745 0 14568
0.11850000 0.11849100 14866.43503078 0 291.93656046 0 5295.85274149 0 711.54780412 0 -1421.61633860 0 16015
0.11950000 0.11950300 14637.46297539 0 122.76926322 0 5206.03994215 0 470.08176544 0 -1713.44611288 0 15270
0.12050000 0.12050700 14588.56614471 0 246.68844501 0 4843.67508454 0 313.78276516 0 -491.50419760 0 15999
0.12150000 0.12150000 14441.53843315 0 11.35744109 0 4577.31662482 0 648.79911954 0 -902.41405353 0 15670
0.12250000 0.12250700 14381.51335824 0 97.23713674 0 4387.79925349 0 270.16679219 0 396.56228933 0 16887
0.12350000 0.12352200 14471.55097060 0 97.29086705 0 4404.08695640 0 1011.25390236 0 198.00968295 0 16407
0.12450000 0.12449800 14202.89941813 0 86.37214856 0 3891.44583916 0 573.32377021 0 572.42676628 0 16306
0.12550000 0.12549900 14197.72871879 0 129.67439496 0 3941.30936581 0 630.47798292 0 688.15713401 0 17523
0.12650000 0.12650100 14066.77513778 0 124.71839206 0 3648.92879964 0 1.08576031 0 985.92759220 0 17154
0.12750000 0.12750600 13908.84399501 0 190.38402550 0 3795.09098110 0 -219.69177415 0 400.09297773 0 18007
0.12850000 0.12850300 13792.16604042 0 255.34936640 0 3835.83834000 0 -845.00917431 0 155.77855816 0 17496
0.12950000 0.12949900 13592.41967693 0 381.20756044 0 4236.43265075 0 -563.93670278 0 603.58360198 0 18405
0.13050000 0.13049000 13321.85721383 0 218.89481201 0 4378.80673291 0 -171.62787569 0 154.48700739 0 18100
0.13150000 0.13148800 13338.04375089 0 223.88790906 0 4724.82768436 0 108.87053581 0 -60.39388065 0 19059
0.13250000 0.13249300 13009.36712351 0 312.91835911 0 4545.59550845 0 -10.24545972 0 -765.41637462 0 18957
0.13350000 0.13349100 12907.52682789 0 286.36344583 0 4655.22557503 0 294.65792200 0 -296.88806711 0 19468
0.13450000 0.13450700 12419.68258616 0 206.11194400 0 4078.70383969 0 420.77352694 0 -394.45691545 0 19953
0.13550000 0.13551000 12455.76507501 0 118.66530164 0 4133.94039738 0 602.33813788 0 -285.36752417 0 19956
0.13650000 0.13649900 12205.43578323 0 -29.89608431 0 3408.08661708 0 501.06212292 0 -427.01433623 0 19723
0.13750000 0.13749600 12271.64321604 0 53.15546362 0 3362.28096535 0 301.86655132 0 -526.45138073 0 20946
0.13850000 0.13851100 12419.45777315 0 8.65263703 0 3211.08297237 0 266.81932640 0 -310.59266848 0 20955
0.13950000 0.13949800 12094.71537353 0 77.41233827 0 3375.09530719 0 -3.46313208 0 -183.82622986 0 20506
0.14050000 0.14048300 12232.97537752 0 190.34243509 0 3530.48606289 0 -122.33762223 0 342.31490891 0 21447
0.14150000 0.14148400 11997.48374471 0 214.50646196 0 3844.94326709 0 -54.97712347 0 292.67282308 0 21771
0.14250000 0.14249400 11970.50618295 0 363.30794821 0 4218.16659331 0 -119.90177322 0 775.88142045 0 22470
0.14350000 0.14350900 11650.14763712 0 281.70869236 0 3810.49067260 0 441.68675763 0 925.77662201 0 22519
0.14450000 0.14449900 11257.84892661 0 401.30809207 0 4008.19123766 0 187.52327988 0 1486.40744941 0 22218
0.14550000 0.14550500 10861.31249077 0 301.73053944 0 3092.82008603 0 951.48061804 0 1408.50973985 0 23559
0.14650000 0.14650700 10709.90092543 0 317.08751647 0 3503.95812717 0 650.37056251 0 1210.29210486 0 23044
0.14750000 0.14750500 10314.21877904 0 177.77313944 0 2327.07323628 0 360.74957610 0 1101.86928417 0 23649
0.14850000 0.14849900 10030.22373833 0 272.71392364 0 2864.73604205 0 191.63286179 0 669.02329834 0 23640
0.14950000 0.14949500 9868.12231413 0 157.42194129 0 2026.95910242 0 -73.32928430 0 1040.12326564 0 24457
0.15050000 0.15050000 9739.63043563 0 34.36592907 0 2340.79807082 0 265.91108182 0 1098.35320862 0 24591
0.15150000 0.15149900 9798.44152025 0 -56.10096373 0 1928.23246704 0 436.84653342 0 1096.41756856 0 25020
0.15250000 0.15250500 9872.46120532 0 -93.38114392 0 1865.73444898 0 358.35644156 0 636.06571039 0 25297
0.15350000 0.15350100 9935.10535184 0 48.96101480 0 1976.14012046 0 -231.36968619 0 655.36365957 0 25452
0.15450000 0.15450400 9917.41256759 0 203.74466295 0 2269.00403461 0 -559.39435582 0 915.50941163 0 26061
0.15550000 0.15549900 9717.65496345 0 263.13351703 0 2630.94174749 0 -630.07331949 0 820.21229880 0 26128
0.15650000 0.15649500 9661.84513257 0 138.70513376 0 2884.54206863 0 -508.78669810 0 988.40390756 0 26331
0.15750000 0.15749700 9629.03367309 0 138.64443425 0 3101.11568627 0 -9.21301719 0 621.17409631 0 27345
0.15850000 0.15849900 9656.12364135 0 35.24157577 0 3259.49645507 0 425.17536577 0 869.66778982 0 26980
0.15950000 0.15949700 9511.23165343 0 -25.06136802 0 2906.94468554 0 529.24131024 0 715.55284797 0 27777
0.16050000 0.16050000 9624.87463232 0 57.73636601 0 2728.64548365 0 633.00263307 0 1181.43735443 0 28224
0.16150000 0.16150500 9354.16604076 0 112.00330517 0 2446.40398444 0 349.74947530 0 928.73403722 0 28075
0.16250000 0.16249700 9311.21551432 0 73.41774822 0 2364.23482760 0 36.44117801 0 954.69994041 0 28590
0.16350000 0.16349900 9299.95238229 0 216.39826348 0 2456.31823839 0 -136.07706962 0 1025.59247644 0 29163
0.16450000 0.16449100 9079.52322145 0 139.09743247 0 2199.32324072 0 -221.48128574 0 907.50382018 0 28996
0.16550000 0.16550500 9021.94860841 0 131.13792769 0 2485.06058231 0 -291.06203783 0 700.08571257 0 30777
0.16650000 0.16650700 9054.97364025 0 61.83639336 0 2461.32032796 0 -180.68671611 0 333.16726734 0 29211
0.16750000 0.16749900 8995.03849056 0 74.43693802 0 2667.83356319 0 -34.86276584 0 229.76901753 0 30922
0.16850000 0.16850800 8948.15373636 0 89.52627515 0 2532.05774301 0 -158.99113613 0 100.60225035 0 30867
0.16950000 0.16949900 8942.39852318 0 73.88052581 0 2602.97500847 0 -34.76553421 0 365.55495429 0 30852
0.17050000 0.17049200 8870.17734224 0 129.39787495 0 2511.29626111 0 117.20289298 0 186.71395303 0 31257
0.17150000 0.17149500 8756.03977471 0 176.69066478 0 2638.29313307 0 282.14258148 0 290.63938937 0 32608
0.17250000 0.17250900 8588.04824954 0 138.26000399 0 2479.09179677 0 225.68641318 0 758.43031019 0 32361
0.17350000 0.17350400 8403.84770601 0 212.90579330 0 2315.04574000 0 220.39881108 0 558.15676018 0 32508
0.17450000 0.17449800 8277.09812837 0 221.36775517 0 2521.34540287 0 349.61458749 0 921.51641538 0 32791
0.17550000 0.17549800 8091.59366935 0 137.22249193 0 2502.70840395 0 115.31109146 0 822.08161902 0 33633
0.17650000 0.17650100 8064.77347671 0 10.70959743 0 2464.62507928 0 84.88984395 0 1213.04606429 0 33984
0.17750000 0.17750300 8024.46450319 0 2.46245563 0 2242.49858018 0 109.01126876 0 905.85256859 0 34069
