### header ###
fiducial parameters:
Omega_m = 0.31
Omega_nu = 0
Omega_de = 0.69
Omega_k = 0
H_0 = 100
w_de = -1
zeff = 0
beta = 0
fgrowth = 0
b_1 = 2
gamma = 0.55
Lx = 3500 Ly = 3500 Lz = 3500
nx = 700 ny = 700 nz = 700
xoffset = 857.220397 yoffset = 15.9954215 zoffset = 262.898189
bins = 400 dk = 0.001
kx_ny = 0.628318531 ky_ny = 0.628318531 kz_ny = 0.628318531
############################
A(data) = 3.07794966 (not used)
A(ran) = 3.07467556 (used)
Ngal = 187708
weighted Ngal = 0
Nran = 9360983
weighted Nran = 0
SN(data) = 3453.90369
SN(ran) = 69.0456578
SN(data+ran) = 3522.94935
############################
13 columns: k_central k_mean P_0(k) sigma^{lin}_{P_0(k)} P^img_1(k) sigma^{lin}_{P_1(k)} P_2(k) sigma^{lin}_{P_2(k)} P^img_3(k) sigma^{lin}_{P_3(k)} P_4(k) sigma^{lin}_{P_4(k)} N_modes
### header ###
0.00050000 0 0 0 0 0 0 0 0 0 0 0 0
0.00150000 0.00179520 20755.07472922 0 -34605.13012091 0 -24426.38366447 0 28898.02693177 0 33133.05450118 0 3
0.00250000 0.00253879 31278.79675659 0 -26457.00721903 0 -3033.15471195 0 -34159.77553895 0 -32744.46520541 0 6
0.00350000 0.00331552 57023.25912578 0 -23921.67844665 0 -14657.35892718 0 11450.51368014 0 17078.14546861 0 7
0.00450000 0.00420575 69697.76726402 0 -14252.24587484 0 -2904.04459765 0 -26350.22103708 0 -6079.19120964 0 24
0.00550000 0.00557378 83002.53868874 0 4042.22792807 0 7377.22783410 0 -24215.17183724 0 18342.15664331 0 45
0.00650000 0.00659388 65096.29448078 0 2360.62657871 0 3659.00042270 0 17034.64415028 0 12756.11526254 0 40
0.00750000 0.00754703 82042.02508378 0 -9341.85752821 0 4192.60535355 0 12232.30093848 0 -8871.87468050 0 57
0.00850000 0.00846663 88767.98085517 0 -26478.13964240 0 -11377.78666991 0 9309.75422972 0 -49256.30669019 0 75
0.00950000 0.00948925 114258.96655038 0 -20565.78217091 0 -14967.03885482 0 -7974.73586436 0 -68295.38367882 0 112
0.01050000 0.01054430 125060.10783779 0 -24136.82450164 0 -34712.14111587 0 -62486.66500707 0 -70805.64580006 0 105
0.01150000 0.01145670 142751.76802330 0 -11099.16466024 0 -41788.46797055 0 -48463.84081365 0 -85539.21633920 0 144
0.01250000 0.01249090 146428.58487740 0 -2579.78554602 0 -29064.16374957 0 -61710.49807410 0 -86467.80649609 0 169
0.01350000 0.01339930 132354.16609713 0 11091.28496408 0 -49321.27765141 0 -32709.61918814 0 -79802.55023864 0 180
0.01450000 0.01448870 127116.02285649 0 16634.02735823 0 -22727.47171299 0 -37717.66630832 0 -73675.49633819 0 267
0.01550000 0.01550050 120115.34558123 0 20945.37894610 0 -10079.61515764 0 -22389.35293900 0 -89578.65658589 0 238
0.01650000 0.01653350 90702.27203296 0 14412.20033474 0 1071.83426541 0 -5258.20780220 0 -47801.87889211 0 315
0.01750000 0.01747870 77546.10201090 0 11701.18019144 0 2232.44943843 0 -10131.72681443 0 -27456.07625600 0 297
0.01850000 0.01844180 70750.79142450 0 3450.58751750 0 4409.51619071 0 5210.24394553 0 -24804.85637459 0 388
0.01950000 0.01947590 71101.72454032 0 2733.46772281 0 8755.09556005 0 -2607.29141835 0 -23037.37645364 0 399
0.02050000 0.02045430 67594.97873177 0 1329.21818959 0 8293.18349956 0 -12344.48263277 0 -14187.61213314 0 462
0.02150000 0.02154770 66744.62350397 0 864.30150316 0 12696.42740716 0 -15390.47416786 0 -14762.68382453 0 571
0.02250000 0.02255340 70182.68893655 0 3695.45385302 0 27597.59604870 0 -22848.53352136 0 -21366.11650296 0 510
0.02350000 0.02348930 67775.27876950 0 3097.69852845 0 27126.05075054 0 -14720.41897778 0 -24899.39024723 0 555
0.02450000 0.02439640 67880.71607335 0 2233.79831652 0 37624.81853328 0 -11315.51346486 0 -29839.65624350 0 592
0.02550000 0.02547300 72083.82019469 0 -3257.01227126 0 38563.07564980 0 800.26126782 0 -28201.10658645 0 837
0.02650000 0.02652900 76584.12712134 0 -2857.20480606 0 47293.80147906 0 2324.31927685 0 -31235.18303176 0 723
0.02750000 0.02749970 82447.81257517 0 -795.47724687 0 43275.83087527 0 6190.59729903 0 -29866.07177272 0 826
0.02850000 0.02848090 77314.09497982 0 2628.19902871 0 45329.49776382 0 6493.63400209 0 -17971.77720172 0 831
0.02950000 0.02946900 76568.05299080 0 5752.44797419 0 34461.02497854 0 9544.51522024 0 -7520.98451630 0 996
0.03050000 0.03053250 69426.08073585 0 5663.70303667 0 35250.56828588 0 16088.96820428 0 -755.57181271 0 1041
0.03150000 0.03150510 63077.24879648 0 2313.65189931 0 29215.23809540 0 14609.13653555 0 -4796.22829780 0 1036
0.03250000 0.03246190 62952.70238638 0 1999.03732600 0 29421.50403631 0 13294.99205859 0 9640.12819536 0 1059
0.03350000 0.03345080 59779.35427851 0 607.11878663 0 26442.05715355 0 7968.12636173 0 5079.68378729 0 1302
0.03450000 0.03451200 58280.41350354 0 2658.95344911 0 27437.52918229 0 3792.37074362 0 15228.49639082 0 1339
0.03550000 0.03553350 57300.56597932 0 2333.07574377 0 27061.97904137 0 1662.60464962 0 11452.19977775 0 1365
0.03650000 0.03647120 53667.25044354 0 3854.81255843 0 27290.83869025 0 2625.87221401 0 16038.38527599 0 1308
0.03750000 0.03744890 51865.37413136 0 2982.12215763 0 25839.89549390 0 2403.25112629 0 9868.59442146 0 1579
0.03850000 0.03847530 49568.23474797 0 1646.64292558 0 21137.25685408 0 3509.52224928 0 6762.44292367 0 1662
0.03950000 0.03950240 49189.20000532 0 595.50831849 0 13929.41438584 0 3049.46489616 0 2424.68704723 0 1683
0.04050000 0.04050350 46964.33800614 0 -178.37114206 0 6283.47879602 0 3769.96812671 0 -5243.95465707 0 1822
0.04150000 0.04152450 46604.97440227 0 418.75245794 0 10822.84698397 0 -815.13714499 0 -1572.02748603 0 1887
0.04250000 0.04250150 46209.41590305 0 1907.44850384 0 5354.14675619 0 -1812.57741167 0 -7999.36413011 0 1920
0.04350000 0.04349210 44674.84226525 0 1968.39531211 0 13832.18275702 0 107.20635747 0 1596.93676805 0 2005
0.04450000 0.04448520 43480.63553159 0 2066.64984015 0 13900.18869394 0 -2852.74226772 0 2971.93812807 0 2151
0.04550000 0.04548030 43299.32383530 0 1379.96972764 0 19518.04111628 0 2318.01327179 0 11916.55105945 0 2274
0.04650000 0.04648670 43586.52246148 0 940.64687886 0 23075.81947914 0 527.17303050 0 10929.73433177 0 2311
0.04750000 0.04749250 42141.19959049 0 713.77570109 0 20955.49553176 0 1189.14844083 0 9795.05808438 0 2568
0.04850000 0.04851840 41829.04671969 0 1300.63321478 0 23677.64391928 0 917.24721623 0 10803.56926797 0 2493
0.04950000 0.04949480 41809.82520694 0 378.02083595 0 21065.09187638 0 820.43261555 0 4765.54132131 0 2644
0.05050000 0.05050630 40287.05425241 0 891.68035615 0 19238.26131958 0 2026.25094142 0 4664.28553952 0 2829
0.05150000 0.05149060 40097.87410061 0 142.26279972 0 12729.36251380 0 2750.69964038 0 -530.53061288 0 2784
0.05250000 0.05249300 38377.26769321 0 -589.92621134 0 11204.90546167 0 2878.70817091 0 -784.74467355 0 3055
0.05350000 0.05348950 39779.31405889 0 -462.50556685 0 9867.99866698 0 2897.96340561 0 -4592.48026265 0 3009
0.05450000 0.05448610 38915.13283069 0 -705.76898558 0 6497.44458269 0 4360.76548849 0 -1305.20815963 0 3336
0.05550000 0.05550870 38173.58710197 0 261.07535388 0 6959.51401228 0 2970.72413779 0 -2546.91788328 0 3349
0.05650000 0.05647670 39164.67527692 0 456.24789659 0 4657.20392956 0 1523.77137244 0 -444.45083364 0 3324
0.05750000 0.05747970 37982.04641351 0 1046.08305865 0 7221.17388000 0 673.92647019 0 -720.33799299 0 3639
0.05850000 0.05849280 36416.78579922 0 1381.41977159 0 5263.33353893 0 -1561.32638653 0 98.73068200 0 3846
0.05950000 0.05951020 34957.52452132 0 1017.35645164 0 6197.26300491 0 447.32057177 0 2388.60455838 0 3787
0.06050000 0.06049470 35135.35161589 0 419.57077732 0 6062.34147419 0 -58.23556331 0 -1688.03100157 0 3930
0.06150000 0.06148310 34371.88661824 0 -132.91170237 0 6904.07512288 0 -1613.06710185 0 -2349.08243041 0 4083
0.06250000 0.06249100 35855.65251473 0 -426.13306921 0 7328.53333513 0 -1148.55845104 0 -3533.99314592 0 4303
0.06350000 0.06350600 35102.30410274 0 542.84586982 0 5568.58465018 0 -1261.57195349 0 -4210.77024513 0 4470
0.06450000 0.06451750 34639.30169913 0 1509.07984194 0 6782.78850149 0 -1509.10232324 0 -3188.84896522 0 4479
0.06550000 0.06550280 33462.74278712 0 2100.64156796 0 7998.38619349 0 145.28765883 0 -2418.26863566 0 4636
0.06650000 0.06648880 32179.39769316 0 1630.05172510 0 6843.42057153 0 716.48919418 0 -999.81766431 0 4653
0.06750000 0.06749660 30959.56227583 0 928.95210584 0 8379.08455245 0 2681.73824815 0 1312.91924603 0 5220
0.06850000 0.06852730 30366.61794977 0 275.36109689 0 6585.94222589 0 2235.23711981 0 1176.67131852 0 5029
0.06950000 0.06949320 30014.89798840 0 -86.15644047 0 6182.00944187 0 1930.33446873 0 1147.70416159 0 5040
0.07050000 0.07048030 30183.95737539 0 159.14176085 0 6057.00216509 0 127.95345134 0 1867.42054659 0 5475
0.07150000 0.07148790 29375.30496181 0 729.10457649 0 5201.76849488 0 119.97371338 0 -7.59140719 0 5509
0.07250000 0.07249820 28919.72138768 0 294.35330037 0 4296.34531915 0 778.76801955 0 2342.90007251 0 5916
0.07350000 0.07351270 28561.48184888 0 341.47410823 0 3717.14830893 0 469.24546103 0 1063.48133785 0 5721
0.07450000 0.07449140 29155.32542700 0 67.51101107 0 4808.30075669 0 1309.49084756 0 399.23981234 0 6028
0.07550000 0.07549160 28652.64352631 0 561.53232759 0 4829.72543698 0 -478.77303659 0 1273.81302214 0 6183
0.07650000 0.07648840 28146.02739787 0 815.24842744 0 4398.09568956 0 -777.71814278 0 1184.24751711 0 6330
0.07750000 0.07749960 27129.08572623 0 1182.88739837 0 7482.04690217 0 -2390.83020723 0 3992.28571687 0 6583
0.07850000 0.07848650 26591.67021478 0 1243.33961801 0 7707.17465501 0 -1912.78781294 0 3005.07556642 0 6549
0.07950000 0.07947320 25792.79716733 0 921.41412546 0 10043.33033708 0 -690.88186775 0 2010.30045803 0 6828
0.08050000 0.08048110 24779.45250393 0 1163.67712628 0 10137.92041298 0 -1737.87204692 0 1989.96612086 0 7147
0.08150000 0.08149960 24437.39950219 0 827.30852161 0 11130.13265300 0 -367.27252572 0 2038.42456616 0 7386
0.08250000 0.08250610 23614.47146217 0 481.59331585 0 10885.52485245 0 1094.46394346 0 1511.67643226 0 7227
0.08350000 0.08350160 23458.90085606 0 411.52359546 0 10285.56636033 0 1033.70035781 0 600.13384627 0 7798
0.08450000 0.08449610 23269.83311076 0 -253.63966342 0 9285.20464853 0 1382.38646755 0 16.76082190 0 7371
0.08550000 0.08548940 23091.55639017 0 -132.96565750 0 9111.23309716 0 354.92579496 0 -2131.29482250 0 8256
0.08650000 0.08650700 23421.01986309 0 67.26382916 0 7729.58851256 0 -606.50617117 0 -2027.48741300 0 8037
0.08750000 0.08749060 22949.69937794 0 -205.25091015 0 7760.77007769 0 -407.84902673 0 -3482.94935095 0 8155
0.08850000 0.08849210 23164.50821341 0 -197.07783301 0 7447.81912069 0 173.07229931 0 -3257.01227126 0 8718
0.08950000 0.08949900 23474.07573454 0 -83.22431673 0 7363.07585483 0 212.05037978 0 -4285.97019852 0 8571
0.09050000 0.09049190 22826.38943942 0 760.89763302 0 7159.53015139 0 769.74402515 0 -5215.17859120 0 8932
0.09150000 0.09150830 22317.86240035 0 968.03584843 0 6929.07433010 0 -85.13848714 0 -3347.93789502 0 9285
0.09250000 0.09250820 21316.09560721 0 906.10211103 0 8102.98044855 0 527.15729359 0 -2113.39970654 0 9204
0.09350000 0.09350330 21080.37916138 0 637.32578734 0 8022.05900393 0 398.62270061 0 -552.77024035 0 9349
0.09450000 0.09448040 20509.69132377 0 154.07784770 0 8493.95276227 0 1260.32424126 0 -445.52319172 0 9564
0.09550000 0.09549270 20634.91217291 0 326.52291869 0 8296.29715982 0 83.25106948 0 535.82495937 0 10155
0.09650000 0.09649430 19912.36314392 0 590.39831867 0 8503.24878043 0 -96.97601643 0 -251.56576336 0 9913
0.09750000 0.09749140 19698.00393448 0 638.90397470 0 8323.90419801 0 108.68787524 0 577.48393504 0 10476
0.09850000 0.09850240 18909.69709872 0 623.67963735 0 7407.66751628 0 -273.70759717 0 -1178.81828281 0 10575
0.09950000 0.09950330 18464.79214278 0 501.05200633 0 6781.40590145 0 227.94353585 0 -984.92042990 0 10882
0.10050000 0.10051200 18110.93645777 0 319.40084239 0 6134.68630229 0 159.92860641 0 -1977.53396115 0 10875
0.10150000 0.10150300 17582.17624739 0 239.70462871 0 6138.06973817 0 810.57344080 0 -2047.15855178 0 11118
0.10250000 0.10250800 17339.04097208 0 275.21047217 0 5671.45908567 0 738.98173629 0 -2167.26490484 0 11575
0.10350000 0.10349800 17054.09047605 0 237.75999613 0 5088.33908835 0 1540.63234854 0 -2264.47405236 0 11364
0.10450000 0.10450100 16766.66703685 0 278.16451518 0 4193.72941862 0 1177.40196082 0 -938.06152919 0 12093
0.10550000 0.10551000 16678.42792862 0 -24.30880646 0 4002.43602448 0 1324.23858132 0 423.89393159 0 12067
0.10650000 0.10649700 16664.82674123 0 -29.02661998 0 3530.53102549 0 1399.14627779 0 1150.87402509 0 12054
0.10750000 0.10749900 16680.22643273 0 65.22533715 0 3613.97037587 0 685.61674695 0 2328.83801845 0 12807
0.10850000 0.10850100 16515.66330603 0 471.62173459 0 3365.96789879 0 -20.77171089 0 2676.20784799 0 12736
0.10950000 0.10950300 16137.30300243 0 585.41084194 0 4287.07178229 0 -564.43803581 0 3461.76072432 0 12933
0.11050000 0.11050200 15628.10152431 0 544.06772855 0 4724.10828271 0 -644.37142722 0 3002.54642001 0 13428
0.11150000 0.11150900 15525.24957012 0 178.45544694 0 5241.41427000 0 -189.93439947 0 3412.77396844 0 13453
0.11250000 0.11250000 15466.91059283 0 25.56270105 0 4895.74177873 0 -209.92027647 0 2183.30531343 0 13668
0.11350000 0.11349100 15474.77904834 0 -56.35871185 0 5078.81825718 0 470.79667083 0 2407.06170688 0 13791
0.11450000 0.11448600 15304.14597024 0 69.59570216 0 4750.91723471 0 432.85610241 0 1493.74759434 0 14205
0.11550000 0.11549300 15201.63123558 0 315.86678180 0 4177.36303116 0 973.83152795 0 2139.48925688 0 14776
0.11650000 0.11649800 14734.13257168 0 442.85016498 0 4551.51933139 0 386.77168255 0 1881.02173397 0 14553
0.11750000 0.11747300 14552.25884285 0 555.22744660 0 4102.92744202 0 195.54573231 0 2194.61340807 0 14568
0.11850000 0.11849100 13797.67395928 0 538.42604595 0 4467.38306067 0 141.82441434 0 2252.83997885 0 16015
0.11950000 0.11950300 13594.55540057 0 269.14052078 0 4472.17157788 0 -126.67651341 0 2197.01890732 0 15270
0.12050000 0.12050700 13378.28528050 0 122.83108680 0 4076.97277948 0 241.75042714 0 2368.40510902 0 15999
0.12150000 0.12150000 13586.68694506 0 -86.75433068 0 4388.59733970 0 286.77148145 0 1982.09766535 0 15670
0.12250000 0.12250700 13314.21357134 0 -167.06754368 0 3681.00961683 0 17.62208056 0 1544.65650150 0 16887
0.12350000 0.12352200 13620.85852328 0 72.08707998 0 3755.99599786 0 -70.13311767 0 959.75036478 0 16407
0.12450000 0.12449800 13490.24216178 0 105.53082607 0 3665.46379687 0 -178.93542273 0 317.77769243 0 16306
0.12550000 0.12549900 13343.88888927 0 266.04934183 0 3769.72083240 0 -540.47409251 0 727.88046963 0 17523
0.12650000 0.12650100 13233.50569909 0 190.12211833 0 4043.01477362 0 -2.79850613 0 346.43235927 0 17154
0.12750000 0.12750600 13069.50460492 0 150.74162256 0 4336.83414308 0 49.18594022 0 34.33164509 0 18007
0.12850000 0.12850300 13073.10161316 0 0.93721511 0 3993.45474455 0 213.63868373 0 109.80609517 0 17496
0.12950000 0.12949900 13057.13988912 0 -63.31622503 0 3931.39511186 0 490.87247303 0 35.89454517 0 18405
0.13050000 0.13049000 13186.18255951 0 9.39718401 0 3600.56027955 0 170.67017224 0 -176.18708362 0 18100
0.13150000 0.13148800 13143.91771276 0 -19.62730024 0 3492.93104880 0 325.16279996 0 -164.96104574 0 19059
0.13250000 0.13249300 12968.22634184 0 278.58491552 0 3213.39854642 0 -219.88848553 0 -624.77335267 0 18957
0.13350000 0.13349100 12786.01539349 0 405.07595820 0 3020.93612460 0 -159.75437632 0 -275.87929089 0 19468
0.13450000 0.13450700 12403.49604911 0 361.89837061 0 3553.23713997 0 -195.43557393 0 -257.74474907 0 19953
0.13550000 0.13551000 12205.99781577 0 344.03810066 0 3725.48887177 0 -206.19849701 0 143.18902934 0 19956
0.13650000 0.13649900 12077.85439744 0 54.05190551 0 4182.06162316 0 451.42003710 0 284.60990431 0 19723
0.13750000 0.13749600 12064.02839704 0 -118.49107155 0 3823.95697218 0 611.79939360 0 378.31309287 0 20946
0.13850000 0.13851100 12099.66125985 0 -43.09204624 0 3754.50099131 0 444.52502194 0 593.57942283 0 20955
0.13950000 0.13949800 12337.73824234 0 -27.02578415 0 3781.22001810 0 401.70601111 0 430.16621469 0 20506
0.14050000 0.14048300 12036.03917672 0 214.68631238 0 3760.02015082 0 -99.36353064 0 500.16511899 0 21447
0.14150000 0.14148400 12005.12738721 0 193.25713582 0 3604.01115932 0 -95.23146743 0 596.37384860 0 21771
0.14250000 0.14249400 11709.72308600 0 224.15543655 0 3433.53545034 0 5.39126338 0 637.51238214 0 22470
0.14350000 0.14350900 11686.34253247 0 265.32544392 0 3118.42628839 0 176.49957371 0 234.95095751 0 22519
0.14450000 0.14449900 11310.79239155 0 383.42309269 0 3448.21574019 0 153.73275972 0 212.51124646 0 22218
0.14550000 0.14550500 11101.69380665 0 404.69040388 0 2837.05031930 0 326.14635689 0 385.58804203 0 23559
0.14650000 0.14650700 10661.59984923 0 316.70645841 0 3261.60969741 0 406.08087237 0 482.58923751 0 23044
0.14750000 0.14750500 10482.43511723 0 186.54983953 0 2676.94973093 0 435.74607372 0 1073.93626710 0 23649
0.14850000 0.14849900 10336.59891465 0 43.68690147 0 2844.24433576 0 399.63323511 0 676.74225319 0 23640
0.14950000 0.14949500 10297.09926798 0 77.43864139 0 2489.29830763 0 30.50836256 0 1018.52547932 0 24457
0.15050000 0.15050000 10334.99150160 0 -30.45755481 0 2649.21904558 0 -206.16027880 0 833.53471805 0 24591
0.15150000 0.15149900 10374.72720193 0 9.42842178 0 2647.64535448 0 -391.07010739 0 678.57672739 0 25020
0.15250000 0.15250500 10418.27348286 0 -50.30607106 0 2785.73674871 0 -147.91122671 0 934.23408762 0 25297
0.15350000 0.15350100 10508.07504155 0 -17.39962808 0 2693.08006473 0 24.70380292 0 625.88168083 0 25452
0.15450000 0.15450400 10616.97446583 0 13.69470960 0 2815.26593818 0 327.83919889 0 750.77542704 0 26061
0.15550000 0.15549900 10516.10086617 0 155.02093830 0 2662.66286386 0 302.82650289 0 656.72040611 0 26128
0.15650000 0.15649500 10345.91741411 0 169.82599937 0 2452.68750820 0 420.43293523 0 1225.96157198 0 26331
0.15750000 0.15749700 10165.49372922 0 188.58889357 0 2318.38421327 0 584.28340467 0 1057.94419330 0 27345
0.15850000 0.15849900 10051.24375519 0 175.09786457 0 2108.03791614 0 523.89300862 0 1459.59849742 0 26980
0.15950000 0.15949700 9760.87526551 0 153.50682264 0 2012.70595729 0 70.94030880 0 1188.36159528 0 27777
0.16050000 0.16050000 9726.22033931 0 206.54808125 0 2311.07779029 0 -253.56435106 0 1688.43566500 0 28224
0.16150000 0.16150500 9579.28255295 0 133.68056288 0 2226.31204313 0 -253.87459302 0 1314.32432737 0 28075
0.16250000 0.16249700 9530.71170114 0 74.41546838 0 2373.44092055 0 -234.19783392 0 1682.77037703 0 28590
0.16350000 0.16349900 9597.17766891 0 68.97263289 0 2370.52959201 0 36.44544946 0 1452.01105818 0 29163
0.16450000 0.16449100 9635.64317572 0 80.44585268 0 2563.94746914 0 -104.02840069 0 1173.80495258 0 28996
0.16550000 0.16550500 9532.57764916 0 165.44326965 0 2831.67728825 0 -99.76178690 0 1113.93612273 0 30777
0.16650000 0.16650700 9443.32688236 0 257.12763734 0 2979.84030553 0 -165.52420234 0 1223.79212638 0 29211
0.16750000 0.16749900 9151.75564305 0 242.91158636 0 3030.68176879 0 37.03558362 0 1436.34159106 0 30922
0.16850000 0.16850800 8923.07584458 0 269.74301966 0 3028.20882563 0 44.76015880 0 1041.33051152 0 30867
0.16950000 0.16949900 8925.04295845 0 151.75328113 0 3153.84557885 0 31.15773495 0 839.51699236 0 30852
0.17050000 0.17049200 8644.25150319 0 160.76940708 0 3011.87616012 0 56.31487332 0 633.20496478 0 31257
0.17150000 0.17149500 8595.41087577 0 171.80547797 0 2836.87046888 0 -79.69430277 0 190.09064451 0 32608
0.17250000 0.17250900 8309.19018621 0 105.31455595 0 2573.58070681 0 -122.91426761 0 250.97000887 0 32361
0.17350000 0.17350400 8390.96592027 0 50.24391026 0 2422.83233986 0 198.30081581 0 -162.32174095 0 32508
0.17450000 0.17449800 8271.47780300 0 -32.23279078 0 2063.83967746 0 311.61556769 0 -110.06485495 0 32791
0.17550000 0.17549800 8406.99508822 0 -35.00046381 0 1940.83323651 0 485.83553744 0 -139.77973997 0 33633
0.17650000 0.17650100 8445.97766495 0 -55.09683640 0 2067.99871823 0 280.52505184 0 367.57602329 0 33984
0.17750000 0.17750300 8411.09792573 0 36.36417955 0 1883.33730803 0 265.91670215 0 531.60971535 0 34069
