### header ###
fiducial parameters:
Omega_m = 0.31
Omega_nu = 0
Omega_de = 0.69
Omega_k = 0
H_0 = 100
w_de = -1
zeff = 0
beta = 0
fgrowth = 0
b_1 = 2
gamma = 0.55
Lx = 3500 Ly = 3500 Lz = 3500
nx = 700 ny = 700 nz = 700
xoffset = 857.220397 yoffset = 15.9954215 zoffset = 262.898189
bins = 400 dk = 0.001
kx_ny = 0.628318531 ky_ny = 0.628318531 kz_ny = 0.628318531
############################
A(data) = 3.04980637 (not used)
A(ran) = 3.04415777 (used)
Ngal = 185779
weighted Ngal = 0
Nran = 9360983
weighted Nran = 0
SN(data) = 3462.18743
SN(ran) = 68.3603431
SN(data+ran) = 3530.54777
############################
13 columns: k_central k_mean P_0(k) sigma^{lin}_{P_0(k)} P^img_1(k) sigma^{lin}_{P_1(k)} P_2(k) sigma^{lin}_{P_2(k)} P^img_3(k) sigma^{lin}_{P_3(k)} P_4(k) sigma^{lin}_{P_4(k)} N_modes
### header ###
0.00050000 0 0 0 0 0 0 0 0 0 0 0 0
0.00150000 0.00179520 9432.56957961 0 -5160.36917823 0 16340.75878066 0 -11003.54044447 0 -3979.80859456 0 3
0.00250000 0.00253879 16395.38834321 0 -5645.93156786 0 -1173.22043875 0 8982.96603167 0 -14637.68778840 0 6
0.00350000 0.00331552 22707.12613517 0 -2778.68886070 0 13305.78308329 0 10215.48090302 0 31154.25034649 0 7
0.00450000 0.00420575 30469.35749745 0 -1688.45814630 0 9616.72516054 0 12544.56621579 0 -224.52862616 0 24
0.00550000 0.00557378 37638.64453368 0 -191.06296080 0 30042.21276968 0 16947.07948109 0 16670.22225358 0 45
0.00650000 0.00659388 43309.55282746 0 1288.18981442 0 -1113.32575539 0 26927.20363910 0 -13803.96872369 0 40
0.00750000 0.00754703 41965.73303257 0 1197.18550610 0 36272.56825034 0 15265.81535125 0 22617.08852281 0 57
0.00850000 0.00846663 48616.37644407 0 -215.01004312 0 37483.74836661 0 5927.66723778 0 12293.78729798 0 75
0.00950000 0.00948925 51460.48589203 0 -1572.96046004 0 59672.45569006 0 -5527.88225388 0 25074.29477261 0 112
0.01050000 0.01054430 54861.11995768 0 -526.96620253 0 49067.23894489 0 -4109.17724382 0 1582.51501316 0 105
0.01150000 0.01145670 62041.42283162 0 -464.41085715 0 68228.61421348 0 -4785.80821458 0 9647.67067200 0 144
0.01250000 0.01249090 66156.84987725 0 -340.95703830 0 68664.07702280 0 -2831.37379068 0 -9221.47015888 0 169
0.01350000 0.01339930 75880.57479209 0 2349.44213124 0 81352.97319397 0 -8389.96550236 0 -10480.79398223 0 180
0.01450000 0.01448870 70531.71114175 0 4508.43391714 0 74397.70814766 0 2970.69041584 0 -15221.86440689 0 267
0.01550000 0.01550050 73134.37141200 0 2360.24439659 0 82225.69731672 0 2159.69994690 0 -44075.60317478 0 238
0.01650000 0.01653350 68117.89380378 0 1387.16374411 0 70587.46476938 0 15778.95105712 0 -18412.86033641 0 315
0.01750000 0.01747870 69268.37440609 0 2009.61477834 0 77226.19309110 0 3419.28230521 0 -28985.59160096 0 297
0.01850000 0.01844180 70110.18673934 0 338.69879157 0 64516.38930957 0 22309.54431881 0 -13486.64515355 0 388
0.01950000 0.01947590 69082.22922999 0 1615.39391655 0 48273.31178376 0 19292.44125611 0 -18839.89265768 0 399
0.02050000 0.02045430 62646.95668650 0 -660.22074475 0 44745.65836486 0 15219.61627675 0 -6542.95797750 0 462
0.02150000 0.02154770 66128.07381138 0 829.11601824 0 29933.74049012 0 19036.71645198 0 1879.15578595 0 571
0.02250000 0.02255340 61448.70331857 0 308.62555460 0 31413.45975235 0 16484.52670351 0 2193.47810234 0 510
0.02350000 0.02348930 61821.89292284 0 1983.66011580 0 18048.21362669 0 6310.70365209 0 12439.57853796 0 555
0.02450000 0.02439640 63211.01254018 0 565.22488136 0 22174.99372956 0 10851.21838642 0 3152.50794141 0 592
0.02550000 0.02547300 62525.44525209 0 20.02757981 0 20127.73401193 0 3753.97268072 0 22031.22580671 0 837
0.02650000 0.02652900 63655.01824405 0 -996.79954959 0 15503.33030120 0 7224.74840693 0 10655.35004743 0 723
0.02750000 0.02749970 63091.97404894 0 -783.90836913 0 18024.72066667 0 2855.21521088 0 23548.03921635 0 826
0.02850000 0.02848090 62428.77565581 0 2144.37893995 0 10864.24630061 0 1704.29622318 0 6576.57876383 0 831
0.02950000 0.02946900 61092.71190992 0 3491.53720811 0 19154.40606513 0 4709.46171481 0 24639.61880884 0 996
0.03050000 0.03053250 56798.55851767 0 2372.17072701 0 11607.09594482 0 4687.63237109 0 12048.06667300 0 1041
0.03150000 0.03150510 56217.75409440 0 -824.02737566 0 8987.60842042 0 11216.91047665 0 12564.12494806 0 1036
0.03250000 0.03246190 54123.50845671 0 -1235.50488445 0 10991.72652055 0 3991.15041115 0 16425.62569368 0 1059
0.03350000 0.03345080 55694.50180287 0 -933.24828255 0 2486.52186690 0 8722.92481766 0 15196.91016227 0 1302
0.03450000 0.03451200 55182.15294255 0 -373.40879696 0 4573.53976617 0 6477.11024551 0 20239.80329972 0 1339
0.03550000 0.03553350 52634.23464136 0 4079.41200069 0 2028.71264393 0 2538.95950256 0 18457.26090679 0 1365
0.03650000 0.03647120 50152.29895996 0 3667.25106034 0 9388.21397183 0 -1082.64777142 0 21463.46053829 0 1308
0.03750000 0.03744890 46501.78522856 0 4844.95651872 0 8780.15097053 0 -4177.20566205 0 19811.98413289 0 1579
0.03850000 0.03847530 44683.27275330 0 2146.78443921 0 10186.68235585 0 -7242.98074242 0 21124.10529272 0 1662
0.03950000 0.03950240 41961.91121133 0 69.99069862 0 10098.66806063 0 -5030.48345904 0 9247.30117426 0 1683
0.04050000 0.04050350 44545.23756232 0 -766.73939921 0 12064.36561656 0 -5479.14279231 0 5049.27782706 0 1822
0.04150000 0.04152450 44578.84710801 0 288.36877792 0 11104.58265389 0 -2495.28957447 0 -765.00609086 0 1887
0.04250000 0.04250150 44789.27208969 0 1319.03416003 0 9404.47919343 0 -2579.86423057 0 -4343.01650098 0 1920
0.04350000 0.04349210 42104.33025609 0 1906.90895261 0 10727.97589180 0 193.75284852 0 -6496.69145909 0 2005
0.04450000 0.04448520 41889.74623363 0 420.08110286 0 8722.01432495 0 4715.53166621 0 -5435.37169837 0 2151
0.04550000 0.04548030 40359.66885613 0 871.35725963 0 9024.59016133 0 3943.17531383 0 -5946.83254728 0 2274
0.04650000 0.04648670 40314.59384670 0 599.38184673 0 6131.44899488 0 4606.89077689 0 -2135.38641937 0 2311
0.04750000 0.04749250 38283.07104009 0 423.32965092 0 4197.56248052 0 2245.60099978 0 -5200.07115662 0 2568
0.04850000 0.04851840 39127.69353601 0 743.48249284 0 6405.31620929 0 1061.83683065 0 -2002.51068708 0 2493
0.04950000 0.04949480 38505.97314408 0 384.54940590 0 3038.42657714 0 -1000.85405231 0 -4210.72528253 0 2644
0.05050000 0.05050630 38398.40011659 0 93.52603590 0 7061.15197619 0 -1576.51250567 0 -1161.51892133 0 2829
0.05150000 0.05149060 37755.99692731 0 418.96827844 0 4887.37873458 0 -1509.05736064 0 -867.54218277 0 2784
0.05250000 0.05249300 37773.19512293 0 511.94307283 0 8145.26777660 0 -1369.12249969 0 -1504.33628733 0 3055
0.05350000 0.05348950 38338.03782216 0 70.56723160 0 8304.43539095 0 -1095.84541944 0 -338.72576913 0 3009
0.05450000 0.05448610 37618.86098839 0 293.87444865 0 7806.99163350 0 184.72660598 0 569.78746149 0 3336
0.05550000 0.05550870 37888.07457340 0 604.25804102 0 8988.87861396 0 -216.43310950 0 -2478.01269430 0 3349
0.05650000 0.05647670 37329.75145159 0 1456.05769244 0 9636.25017086 0 -833.01652405 0 -1812.67857753 0 3324
0.05750000 0.05747970 36196.69385791 0 1268.55239760 0 10057.76333262 0 -223.63836662 0 -2124.30313775 0 3639
0.05850000 0.05849280 35479.09071524 0 1516.97077875 0 10827.89403615 0 -1025.35080244 0 -2413.35647129 0 3846
0.05950000 0.05951020 34206.87386551 0 826.85889558 0 11185.75139282 0 -938.39425245 0 -2451.58592443 0 3787
0.06050000 0.06049470 33558.17591182 0 914.60341518 0 11490.41799023 0 144.99427784 0 -4510.22118060 0 3930
0.06150000 0.06148310 32716.70079810 0 538.71043441 0 10409.78679156 0 394.29954634 0 -2945.66872731 0 4083
0.06250000 0.06249100 32213.56927138 0 820.22803571 0 11085.61967611 0 466.69608144 0 -5538.21241191 0 4303
0.06350000 0.06350600 31168.41356641 0 737.52832015 0 10874.99236271 0 369.82977377 0 -3573.32418283 0 4470
0.06450000 0.06451750 30818.49210916 0 404.93320193 0 10043.93733222 0 1417.87320191 0 -6169.30750655 0 4479
0.06550000 0.06550280 29981.51325573 0 281.12867478 0 9148.54081694 0 895.72586634 0 -4106.99655758 0 4636
0.06650000 0.06648880 30177.10057845 0 -109.43807626 0 8960.58589607 0 899.42966076 0 -5596.15796642 0 4653
0.06750000 0.06749660 30060.31021735 0 70.35950437 0 9459.94056414 0 -428.32162391 0 -4570.99937911 0 5220
0.06850000 0.06852730 30440.13180555 0 115.20318121 0 9634.72144236 0 -368.61016316 0 -3046.14890419 0 5029
0.06950000 0.06949320 29532.11203950 0 372.96591532 0 9405.25479833 0 -189.36562254 0 -3071.77758786 0 5040
0.07050000 0.07048030 30200.59353848 0 173.55564729 0 10713.61034017 0 1022.08539341 0 821.08906956 0 5475
0.07150000 0.07148790 30154.28205746 0 289.81769780 0 9603.92205935 0 2032.66935299 0 -649.62305924 0 5509
0.07250000 0.07249820 29512.89052675 0 397.39072529 0 10073.93862902 0 2850.86507904 0 1197.91614840 0 5916
0.07350000 0.07351270 28463.35096800 0 796.04939599 0 5769.46631939 0 1958.28996710 0 713.06641603 0 5721
0.07450000 0.07449140 27842.64223464 0 699.35057401 0 8111.14116098 0 2132.18283391 0 1715.14345114 0 6028
0.07550000 0.07549160 27046.80416288 0 669.82700486 0 5387.50900756 0 279.57296872 0 1494.57940249 0 6183
0.07650000 0.07648840 26838.40249833 0 396.61287226 0 5814.86730770 0 689.90168301 0 946.34813691 0 6330
0.07750000 0.07749960 25955.11216389 0 324.97620515 0 5100.69256350 0 -1258.66062495 0 273.43669749 0 6583
0.07850000 0.07848650 26041.21554849 0 526.04559323 0 5968.70685360 0 -1414.02889936 0 -183.96224173 0 6549
0.07950000 0.07947320 25529.87834673 0 600.70936758 0 5931.88248181 0 -889.02981070 0 -630.07444355 0 6828
0.08050000 0.08048110 25064.29059346 0 821.85118568 0 7106.33939213 0 -675.12359949 0 -2285.47158793 0 7147
0.08150000 0.08149960 23920.32956856 0 876.22108920 0 7276.29803119 0 -1300.59949283 0 -1061.91326708 0 7386
0.08250000 0.08250610 23918.86828397 0 756.28784216 0 7864.48756199 0 -25.28056071 0 -2487.57848807 0 7227
0.08350000 0.08350160 22780.52758444 0 558.19610246 0 7217.97029454 0 -453.71088172 0 -2410.22032974 0 7798
0.08450000 0.08449610 23097.62634156 0 519.04379189 0 7677.22956146 0 385.65660999 0 -2510.90283834 0 7371
0.08550000 0.08548940 22182.52496555 0 174.98995432 0 7722.31581154 0 23.08087777 0 -3252.12258819 0 8256
0.08650000 0.08650700 22210.06455984 0 470.40549618 0 7064.15322994 0 154.64550056 0 -2073.74269076 0 8037
0.08750000 0.08749060 22089.11515798 0 466.52409948 0 8452.84570255 0 165.21620851 0 -2399.03588226 0 8155
0.08850000 0.08849210 21482.90686406 0 622.43979358 0 6951.90409174 0 530.16753986 0 -1170.38779476 0 8718
0.08950000 0.08949900 21337.11562407 0 500.66083169 0 8258.40492620 0 1257.33422817 0 -370.13551947 0 8571
0.09050000 0.09049190 20358.95419746 0 549.90499848 0 6704.38496264 0 567.43029703 0 -614.03740716 0 8932
0.09150000 0.09150830 20351.53536798 0 542.38275501 0 7390.68289302 0 1224.93867276 0 1124.97556581 0 9285
0.09250000 0.09250820 19882.68782599 0 232.75565843 0 6263.38051251 0 1029.70093428 0 388.18463234 0 9204
0.09350000 0.09350330 19473.86535891 0 228.41227098 0 6275.61034051 0 1088.98525030 0 1225.56814920 0 9349
0.09450000 0.09448040 19499.94366860 0 116.58578125 0 5119.77918844 0 475.69871861 0 110.46929356 0 9564
0.09550000 0.09549270 18773.01078583 0 204.46518867 0 5697.07652869 0 406.68674345 0 330.19748742 0 10155
0.09650000 0.09649430 18898.23163497 0 172.22700237 0 4867.88744621 0 -252.72130225 0 -36.15150644 0 9913
0.09750000 0.09749140 18815.61285210 0 -64.35598522 0 5025.60501662 0 127.73538271 0 76.97608861 0 10476
0.09850000 0.09850240 19107.19533206 0 82.14161725 0 5642.39076288 0 -179.64358372 0 -398.44397427 0 10575
0.09950000 0.09950330 18879.12252873 0 166.22899114 0 4883.79296700 0 -419.13688820 0 -164.84189484 0 10882
0.10050000 0.10051200 18911.15838331 0 408.27954366 0 6016.70443222 0 -264.98485220 0 -280.90161364 0 10875
0.10150000 0.10150300 18410.38739325 0 647.11077380 0 5813.09128488 0 -333.59553613 0 -831.69911978 0 11118
0.10250000 0.10250800 17797.77192841 0 888.05299816 0 6270.14738425 0 -196.21230290 0 -39.04934620 0 11575
0.10350000 0.10349800 17034.75655679 0 687.88398620 0 6324.34980208 0 197.27454439 0 -715.66075822 0 11364
0.10450000 0.10450100 16717.09576713 0 584.09006548 0 6429.47236772 0 922.62811574 0 580.46495562 0 12093
0.10550000 0.10551000 15877.75637705 0 319.57619654 0 5364.88157763 0 1349.57500806 0 -139.07607523 0 12067
0.10650000 0.10649700 15798.06016336 0 211.86603311 0 5243.96589772 0 1421.13299062 0 908.77963404 0 12054
0.10750000 0.10749900 15538.85075751 0 150.41676776 0 3874.88836064 0 1132.43935789 0 170.11825629 0 12807
0.10850000 0.10850100 15343.48824780 0 2.77442865 0 3881.37421611 0 107.02392171 0 891.13518459 0 12736
0.10950000 0.10950300 15332.13519056 0 15.48512045 0 3854.10439744 0 -328.57883371 0 400.27395221 0 12933
0.11050000 0.11050200 15527.16048075 0 20.27206397 0 4288.40941973 0 -510.89769231 0 363.72160416 0 13428
0.11150000 0.11150900 15360.46163041 0 101.84827648 0 4079.78294216 0 -433.51705268 0 613.29440014 0 13453
0.11250000 0.11250000 15524.91235060 0 119.27454491 0 4394.93706671 0 -68.54245318 0 648.05274033 0 13668
0.11350000 0.11349100 15309.31666958 0 104.40721062 0 3886.89337562 0 974.52732423 0 891.28468524 0 13791
0.11450000 0.11448600 15159.81601486 0 30.81275938 0 4059.16758872 0 1157.71958139 0 950.27562028 0 14205
0.11550000 0.11549300 15103.05072867 0 19.03615442 0 2859.18316059 0 1086.03345542 0 1031.58486734 0 14776
0.11650000 0.11649800 14910.94800767 0 144.19281945 0 2478.42859837 0 552.52069790 0 646.46106419 0 14553
0.11750000 0.11747300 14585.86838853 0 300.22541631 0 1994.96821043 0 -61.44072246 0 223.85193898 0 14568
0.11850000 0.11849100 14478.40776755 0 420.65887231 0 2085.38800491 0 -751.35319649 0 129.64516927 0 16015
0.11950000 0.11950300 14002.25380258 0 458.50614332 0 2546.17600033 0 -785.43597357 0 -408.23120886 0 15270
0.12050000 0.12050700 13808.68979699 0 195.85260208 0 2622.94964482 0 -365.23122355 0 -181.60732541 0 15999
0.12150000 0.12150000 13863.09454653 0 23.35582409 0 3058.04151267 0 -74.94389137 0 -402.32874316 0 15670
0.12250000 0.12250700 13861.85807495 0 -172.47879295 0 3199.97720945 0 331.93866422 0 87.55241689 0 16887
0.12350000 0.12352200 14288.44077019 0 -54.85089097 0 3688.30479915 0 223.53382857 0 158.68201824 0 16407
0.12450000 0.12449800 14065.87588572 0 176.64570217 0 3699.82646615 0 54.28222645 0 899.42628857 0 16306
0.12550000 0.12549900 13993.37368850 0 347.88914760 0 4028.98644151 0 -335.14674593 0 1155.41524799 0 17523
0.12650000 0.12650100 13857.24940815 0 369.92307117 0 4072.29666878 0 -275.72529398 0 1695.16881479 0 17154
0.12750000 0.12750600 13387.50261410 0 434.62650490 0 4479.75901712 0 -170.34419337 0 1236.99989099 0 18007
0.12850000 0.12850300 13102.21489855 0 306.47521812 0 4277.98933650 0 152.58171709 0 1245.71139531 0 17496
0.12950000 0.12949900 12782.41838525 0 155.39187977 0 4151.35216537 0 680.50112680 0 948.23881436 0 18405
0.13050000 0.13049000 12812.54332921 0 -8.57584090 0 3205.02426163 0 644.96043732 0 459.77521278 0 18100
0.13150000 0.13148800 12536.47294726 0 -64.59799643 0 3172.70739077 0 1070.98672035 0 769.00776252 0 19059
0.13250000 0.13249300 12504.32468617 0 51.47880815 0 2499.26876483 0 604.44575989 0 314.43359883 0 18957
0.13350000 0.13349100 12268.94545986 0 220.03686212 0 2399.30565788 0 71.07238644 0 482.39140206 0 19468
0.13450000 0.13450700 12292.21360688 0 226.37996133 0 2483.44192860 0 130.77485467 0 960.72492920 0 19953
0.13550000 0.13551000 12094.04093449 0 236.86973659 0 2374.96964905 0 127.16210952 0 972.27132563 0 19956
0.13650000 0.13649900 11823.14125187 0 62.40292216 0 2078.41880146 0 438.78442161 0 677.31103012 0 19723
0.13750000 0.13749600 11884.51520486 0 186.69034767 0 2076.60905669 0 71.16478459 0 236.20766227 0 20946
0.13850000 0.13851100 11743.44503819 0 120.20751892 0 2201.56013022 0 127.25540693 0 328.50127322 0 20955
0.13950000 0.13949800 11566.06756965 0 214.44239026 0 2102.75481029 0 -450.15883608 0 -224.53199835 0 20506
0.14050000 0.14048300 11506.82934030 0 134.38984794 0 2177.07799293 0 -501.33414667 0 -202.24740828 0 21447
0.14150000 0.14148400 11358.22793764 0 149.34103748 0 2473.16797383 0 -608.87457628 0 -708.56116322 0 21771
0.14250000 0.14249400 11252.11619474 0 245.09002447 0 2955.75159102 0 -509.06659031 0 -111.73240549 0 22470
0.14350000 0.14350900 11118.30748844 0 274.31796450 0 3187.05046111 0 -267.39597178 0 -308.25798532 0 22519
0.14450000 0.14449900 11092.45399175 0 180.18201089 0 3417.14658157 0 214.93585482 0 -143.70722334 0 22218
0.14550000 0.14550500 10790.49639117 0 117.48952957 0 3233.53055188 0 177.36285569 0 -331.38787233 0 23559
0.14650000 0.14650700 10895.19181208 0 97.57379423 0 3447.21532228 0 557.20692519 0 -249.22208768 0 23044
0.14750000 0.14750500 10772.65747846 0 11.86484407 0 3107.07323116 0 228.67979847 0 -101.43675626 0 23649
0.14850000 0.14849900 10749.53545990 0 21.41602499 0 2590.74518048 0 362.10519858 0 -477.38818842 0 23640
0.14950000 0.14949500 10738.15992136 0 99.95164149 0 2720.31616145 0 119.29252995 0 91.43797262 0 24457
0.15050000 0.15050000 10655.05779051 0 144.68178775 0 2542.62395470 0 40.09618800 0 -129.68338748 0 24591
0.15150000 0.15149900 10573.13592798 0 161.57423767 0 2572.96247102 0 199.03820249 0 406.01455253 0 25020
0.15250000 0.15250500 10342.87119776 0 165.50172104 0 2771.05645885 0 17.30981528 0 327.83357857 0 25297
0.15350000 0.15350100 10309.34033663 0 242.55413367 0 2781.93740876 0 -74.55968592 0 614.78041417 0 25452
0.15450000 0.15450400 10070.07184517 0 277.20231548 0 3157.65615945 0 -76.81838228 0 860.56735899 0 26061
0.15550000 0.15549900 9777.90485137 0 311.02543353 0 3237.59966744 0 -260.08954881 0 886.18480200 0 26128
0.15650000 0.15649500 9652.51539246 0 149.52201196 0 3209.46431866 0 -69.33165927 0 950.72075005 0 26331
0.15750000 0.15749700 9539.61429652 0 94.30074155 0 3271.52395135 0 199.78570577 0 539.11509784 0 27345
0.15850000 0.15849900 9446.75528083 0 -5.28972659 0 2784.47779583 0 340.98289179 0 709.03439461 0 26980
0.15950000 0.15949700 9475.36273694 0 -31.16346768 0 2647.71279838 0 390.12701679 0 556.32565817 0 27777
0.16050000 0.16050000 9396.09366799 0 37.52297824 0 2208.95647840 0 546.77672538 0 298.13915153 0 28224
0.16150000 0.16150500 9376.41128856 0 102.90725819 0 2014.68431182 0 428.36546245 0 409.07762986 0 28075
0.16250000 0.16249700 9139.15487358 0 96.77323509 0 1991.55105261 0 341.96644873 0 332.64794928 0 28590
0.16350000 0.16349900 9079.32088974 0 217.77074694 0 1742.43575111 0 -56.95559041 0 622.14416446 0 29163
0.16450000 0.16449100 8962.45184409 0 94.45069183 0 1957.52560285 0 -203.41643595 0 169.38536587 0 28996
0.16550000 0.16550500 8915.33103622 0 76.59255761 0 1732.18427765 0 -258.43492502 0 -36.08125237 0 30777
0.16650000 0.16650700 8927.87560244 0 -12.59492433 0 2127.86642403 0 -437.03987262 0 -301.48998952 0 29211
0.16750000 0.16749900 8976.50265750 0 40.18633802 0 1928.13130119 0 -364.52193849 0 -425.88914709 0 30922
0.16850000 0.16850800 8924.26735355 0 121.21130903 0 2088.29933345 0 -63.67244125 0 -612.04106759 0 30867
0.16950000 0.16949900 8873.47085290 0 230.96052650 0 2079.12696246 0 248.63420165 0 -373.31212736 0 30852
0.17050000 0.17049200 8617.20649754 0 235.10045817 0 2152.02258245 0 193.16046623 0 -667.02246251 0 31257
0.17150000 0.17149500 8486.51145149 0 302.68374662 0 1950.05057011 0 384.12113710 0 -126.37751210 0 32608
0.17250000 0.17250900 8151.43889385 0 239.06840788 0 2162.40894372 0 418.61194981 0 208.73213968 0 32361
0.17350000 0.17350400 8064.46997914 0 64.28224655 0 2011.67181742 0 244.64826690 0 517.08679460 0 32508
0.17450000 0.17449800 8014.77506226 0 3.33749533 0 2107.53208685 0 363.06964642 0 690.19956025 0 32791
0.17550000 0.17549800 8084.10739597 0 -30.66505723 0 2014.71803377 0 151.69482974 0 794.58024294 0 33633
0.17650000 0.17650100 8138.66951462 0 -58.82378656 0 1838.81309048 0 82.16106358 0 686.94426780 0 33984
0.17750000 0.17750300 8179.74285239 0 -13.26441749 0 1792.34424036 0 -19.90651801 0 531.15671712 0 34069
0.17850000 0.17849800 8146.99883681 0 90.90111914 0 1752.05774814 0 -97.82423593 0 459.59873457 0 34536
