### header ###
fiducial parameters:
Omega_m = 0.31
Omega_nu = 0
Omega_de = 0.69
Omega_k = 0
H_0 = 100
w_de = -1
zeff = 0
beta = 0
fgrowth = 0
b_1 = 2
gamma = 0.55
Lx = 3500 Ly = 3500 Lz = 3500
nx = 700 ny = 700 nz = 700
xoffset = 857.220397 yoffset = 15.9954215 zoffset = 262.898189
bins = 400 dk = 0.001
kx_ny = 0.628318531 ky_ny = 0.628318531 kz_ny = 0.628318531
############################
A(data) = 3.1111037 (not used)
A(ran) = 3.11101225 (used)
Ngal = 189743
weighted Ngal = 0
Nran = 9360983
weighted Nran = 0
SN(data) = 3439.45509
SN(ran) = 69.8616435
SN(data+ran) = 3509.31674
############################
13 columns: k_central k_mean P_0(k) sigma^{lin}_{P_0(k)} P^img_1(k) sigma^{lin}_{P_1(k)} P_2(k) sigma^{lin}_{P_2(k)} P^img_3(k) sigma^{lin}_{P_3(k)} P_4(k) sigma^{lin}_{P_4(k)} N_modes
### header ###
0.00050000 0 0 0 0 0 0 0 0 0 0 0 0
0.00150000 0.00179520 8128.99131434 0 -12817.15199601 0 -18811.22899831 0 35731.78054367 0 2742.10054257 0 3
0.00250000 0.00253879 22057.64133593 0 -21638.92709620 0 1507.79840775 0 -10226.30564968 0 6392.37822030 0 6
0.00350000 0.00331552 33541.65215525 0 -20710.67415884 0 -15977.23613602 0 10085.55022122 0 -16804.43562331 0 7
0.00450000 0.00420575 53807.53376466 0 -22526.15165840 0 -16999.46091349 0 -2716.57302476 0 -317.03018915 0 24
0.00550000 0.00557378 70266.76900402 0 -14927.24695123 0 -36049.77855285 0 -12636.40233226 0 4683.40588642 0 45
0.00650000 0.00659388 92446.93343292 0 -10689.75767932 0 -31876.57456247 0 -7548.11944716 0 -10399.86129696 0 40
0.00750000 0.00754703 81121.97782145 0 -3844.86458254 0 -44991.60380285 0 -21841.59602888 0 -5083.60677439 0 57
0.00850000 0.00846663 90195.43109150 0 -1651.38648019 0 -41960.89955276 0 -14159.39809980 0 15731.96513707 0 75
0.00950000 0.00948925 79981.05177225 0 -81.52023408 0 -37232.63222928 0 -17390.97277845 0 14903.75399121 0 112
0.01050000 0.01054430 90742.73837559 0 -4616.96239995 0 -39712.43218704 0 3263.41944217 0 1293.29306985 0 105
0.01150000 0.01145670 84273.96869292 0 -1340.88598505 0 -30277.36718297 0 -1464.01607316 0 1021.18164509 0 144
0.01250000 0.01249090 89581.24193556 0 -24.62376949 0 -30366.84276279 0 -8180.85567681 0 -6263.59408488 0 169
0.01350000 0.01339930 79935.41473028 0 5807.03257414 0 -10293.38985324 0 -18187.03566322 0 -12645.17003983 0 180
0.01450000 0.01448870 77543.17944171 0 7928.21081098 0 3810.19841568 0 -31258.33877226 0 -4874.19345127 0 267
0.01550000 0.01550050 75579.88738504 0 12634.15420211 0 9830.46613419 0 -18359.80446496 0 -15394.18358260 0 238
0.01650000 0.01653350 61081.13403967 0 3299.53565297 0 23499.81682472 0 -9965.11788929 0 -3012.24710159 0 315
0.01750000 0.01747870 59630.07843681 0 -2388.12121040 0 12201.83877500 0 16066.59930933 0 -13255.53737452 0 297
0.01850000 0.01844180 66192.93236609 0 -6191.97989907 0 21268.77246763 0 10671.01951455 0 -12914.15881182 0 388
0.01950000 0.01947590 65267.03996538 0 -4755.25612589 0 6580.95137697 0 12608.52551845 0 -14327.67064124 0 399
0.02050000 0.02045430 68210.96639183 0 -279.33579099 0 11304.72244016 0 -8786.19844063 0 -6456.77590834 0 462
0.02150000 0.02154770 66874.67783293 0 3624.26681194 0 8767.12305634 0 -9564.70342895 0 -434.16676229 0 571
0.02250000 0.02255340 66433.48229174 0 4545.68543366 0 9799.56558533 0 -9638.31845059 0 -3238.57760406 0 510
0.02350000 0.02348930 64391.16846042 0 2346.14862057 0 21080.49156789 0 -7136.44185479 0 9071.89081960 0 555
0.02450000 0.02439640 65719.92578333 0 189.45891994 0 18031.35265060 0 3551.57352366 0 -6246.60946162 0 592
0.02550000 0.02547300 63874.09852680 0 -340.98289179 0 17298.46222294 0 7468.88410016 0 6907.69461241 0 837
0.02650000 0.02652900 68378.67690074 0 68.36856032 0 14463.45770207 0 9656.80932104 0 -1689.11010404 0 723
0.02750000 0.02749970 63289.35987577 0 1390.15375720 0 16752.27900392 0 1794.71601766 0 2036.89583766 0 826
0.02850000 0.02848090 65974.86374191 0 3399.31890951 0 19133.16123525 0 219.33656958 0 -3011.79747556 0 831
0.02950000 0.02946900 61350.90965721 0 4141.74140899 0 17638.49190755 0 -6451.58272770 0 1094.03117841 0 996
0.03050000 0.03053250 58231.74148587 0 2648.27483092 0 20660.99048261 0 -3017.32787572 0 5883.06433568 0 1041
0.03150000 0.03150510 55926.95845999 0 3189.82690184 0 28925.34171304 0 733.90995468 0 -501.58818537 0 1036
0.03250000 0.03246190 53347.45393024 0 3023.39782711 0 18882.71953696 0 9029.67093546 0 3810.16469373 0 1059
0.03350000 0.03345080 48326.36765521 0 3634.92294883 0 21065.99112844 0 8014.06690126 0 -496.91994313 0 1302
0.03450000 0.03451200 46932.63937108 0 4848.99191233 0 14679.27819611 0 3686.33768528 0 3091.72974291 0 1339
0.03550000 0.03553350 41053.10459973 0 2428.09296440 0 12301.54334698 0 8471.19044454 0 -104.05234328 0 1365
0.03650000 0.03647120 38248.44983584 0 1707.85950946 0 7552.98664893 0 602.77090293 0 245.17882561 0 1308
0.03750000 0.03744890 38543.74173054 0 -1123.34454739 0 4744.31897273 0 1947.36405459 0 -695.62654642 0 1579
0.03850000 0.03847530 39410.62071491 0 -1114.46668144 0 5724.69480753 0 -1249.87043608 0 -1852.75149739 0 1662
0.03950000 0.03950240 40720.94337063 0 -422.68443757 0 10228.55377982 0 -4101.93826475 0 1691.03225532 0 1683
0.04050000 0.04050350 41267.80102869 0 365.86856845 0 11560.78446381 0 -2557.86627709 0 2983.83073654 0 1822
0.04150000 0.04152450 41688.53858555 0 -162.97931901 0 19681.03055188 0 -1620.69950370 0 7678.88193712 0 1887
0.04250000 0.04250150 43914.86186933 0 -595.18908401 0 18552.24440547 0 -458.02616753 0 6266.12323129 0 1920
0.04350000 0.04349210 44022.99692936 0 -780.91161165 0 23675.50819564 0 -84.25485959 0 8354.31015824 0 2005
0.04450000 0.04448520 46716.03203149 0 -987.60357322 0 20646.49004316 0 354.35027364 0 6133.78705024 0 2151
0.04550000 0.04548030 46928.36792380 0 -421.03318598 0 20497.66382748 0 3366.97955736 0 3821.73132333 0 2274
0.04650000 0.04648670 46784.48759444 0 423.53085857 0 17970.76554316 0 2115.78272449 0 5917.61809603 0 2311
0.04750000 0.04749250 45492.59960593 0 1011.48545977 0 13808.24017096 0 4215.24402412 0 -778.72642915 0 2568
0.04850000 0.04851840 43013.13686769 0 2349.67818490 0 11916.55105945 0 4223.22488614 0 -1171.69171025 0 2493
0.04950000 0.04949480 40974.86967064 0 3313.35041272 0 8913.35268169 0 436.99940627 0 -7688.21167722 0 2644
0.05050000 0.05050630 37497.57436701 0 2819.64979196 0 9432.28856334 0 -2351.10574754 0 -5307.17207678 0 2829
0.05150000 0.05149060 35374.88988297 0 1987.59434356 0 11843.03720366 0 -2766.65012377 0 -7293.09156338 0 2784
0.05250000 0.05249300 34229.13035396 0 1269.82259113 0 11372.95319009 0 -1807.45167494 0 -5416.59981165 0 3055
0.05350000 0.05348950 33928.78016642 0 -47.22781886 0 13059.05079974 0 239.55400399 0 -4470.55292417 0 3009
0.05450000 0.05448610 33800.18712206 0 91.70639936 0 12661.13176387 0 1447.45859463 0 -2939.29527835 0 3336
0.05550000 0.05550870 34058.38486935 0 -329.30385568 0 13764.06441359 0 2775.87869802 0 -3733.87439722 0 3349
0.05650000 0.05647670 33932.48958116 0 -437.84245508 0 10475.78065200 0 2981.53764379 0 135.91632831 0 3324
0.05750000 0.05747970 35535.63118842 0 -651.89367069 0 10319.52436619 0 3462.94099265 0 758.10433132 0 3639
0.05850000 0.05849280 35704.35335589 0 -281.92788505 0 7707.50063388 0 1565.00207932 0 -597.69237693 0 3846
0.05950000 0.05951020 35099.15672053 0 98.25913671 0 7177.71752427 0 1931.52597771 0 1348.00131696 0 3787
0.06050000 0.06049470 34969.88923713 0 -440.88192704 0 3018.42945949 0 2698.07091366 0 -792.62886597 0 3930
0.06150000 0.06148310 35111.18421682 0 219.57824357 0 3848.86625420 0 826.71501525 0 -1496.08564969 0 4083
0.06250000 0.06249100 35459.86920249 0 -202.82068146 0 1331.28646932 0 102.94277865 0 -4537.78325620 0 4303
0.06350000 0.06350600 34296.57425834 0 589.13936579 0 1015.53209403 0 -1777.85504157 0 -4147.81136039 0 4470
0.06450000 0.06451750 33935.63696337 0 1641.83192707 0 3797.13677953 0 -3363.38254912 0 -5968.26846822 0 4479
0.06550000 0.06550280 32942.52547129 0 1557.61697179 0 5076.36779532 0 -2051.02533563 0 -3542.98566650 0 4636
0.06650000 0.06648880 31941.20830417 0 1553.07574890 0 9431.29938608 0 -2769.17927018 0 -2445.50473238 0 4653
0.06750000 0.06749660 31663.11460509 0 878.71314146 0 10016.65627289 0 85.98367167 0 61.57437379 0 5220
0.06850000 0.06852730 31145.37023242 0 75.75411747 0 12365.39024313 0 1299.58783426 0 1169.69087442 0 5029
0.06950000 0.06949320 31433.35570414 0 -44.36797250 0 10140.75305696 0 1581.14365377 0 2138.19658205 0 5040
0.07050000 0.07048030 31650.30026325 0 161.85975020 0 12727.56400969 0 923.17665950 0 1830.30391788 0 5475
0.07150000 0.07148790 31577.79806604 0 372.91645646 0 11349.79744959 0 286.09029801 0 2958.08964637 0 5509
0.07250000 0.07249820 30996.88123626 0 1150.14338280 0 11426.45868757 0 991.16910764 0 3075.74553757 0 5916
0.07350000 0.07351270 30004.55658973 0 1007.77604503 0 9378.37840244 0 -84.55667106 0 1524.77179036 0 5721
0.07450000 0.07449140 28718.96336562 0 1222.98279953 0 10279.59757479 0 -7.41016294 0 -321.53993823 0 6028
0.07550000 0.07549160 28024.29115045 0 1380.94766425 0 8801.23843130 0 56.07274970 0 -45.95414072 0 6183
0.07650000 0.07648840 26676.42472130 0 921.79967978 0 10370.20846034 0 227.81876463 0 -1427.82117780 0 6330
0.07750000 0.07749960 25749.63306853 0 807.25744883 0 9888.96248059 0 -204.66976851 0 -319.56383183 0 6583
0.07850000 0.07848650 25656.22326095 0 656.90587685 0 10747.72571514 0 972.10496400 0 -2272.12893551 0 6549
0.07950000 0.07947320 25161.74703529 0 482.36554856 0 10851.30831162 0 224.05764289 0 1201.41199078 0 6828
0.08050000 0.08048110 24561.94591229 0 281.93238131 0 10924.05780315 0 975.17028945 0 -813.52186348 0 7147
0.08150000 0.08149960 24399.85572875 0 577.74584221 0 10573.54059141 0 1056.71783831 0 1494.11853581 0 7386
0.08250000 0.08250610 24139.18503830 0 288.19342377 0 11519.98090166 0 868.63589808 0 2148.43681487 0 7227
0.08350000 0.08350160 23418.32210692 0 607.28964452 0 9762.99974850 0 787.06024760 0 2122.87557510 0 7798
0.08450000 0.08449610 23341.66086893 0 309.26065137 0 10261.30903605 0 1343.37016886 0 4654.29260102 0 7371
0.08550000 0.08548940 22462.64198177 0 4.37980715 0 8579.79761190 0 1079.21712481 0 1619.02464674 0 8256
0.08650000 0.08650700 23123.92946427 0 -2.32724185 0 10478.00630085 0 1302.43171890 0 4397.94956110 0 8037
0.08750000 0.08749060 22718.92881844 0 7.27647788 0 8228.57223916 0 1039.88159164 0 2187.21705989 0 8155
0.08850000 0.08849210 22355.63098681 0 557.12374438 0 8157.96971192 0 942.04858801 0 3383.34594482 0 8718
0.08950000 0.08949900 21707.94469169 0 447.70837422 0 7815.51204675 0 86.04819300 0 2838.11818112 0 8571
0.09050000 0.09049190 21589.58063949 0 159.84879779 0 6745.78427929 0 1187.22628956 0 2405.39809058 0 8932
0.09150000 0.09150830 21744.58921307 0 -62.16731812 0 6643.02225030 0 887.23018252 0 1412.63505867 0 9285
0.09250000 0.09250820 21614.08525809 0 -118.71251237 0 5911.80667960 0 310.07447448 0 -84.18044648 0 9204
0.09350000 0.09350330 21543.60637800 0 384.25714898 0 6121.90568241 0 -910.32747164 0 666.97300364 0 9349
0.09450000 0.09448040 21390.73352806 0 561.19398401 0 6530.89675926 0 -1331.67989210 0 -524.08185155 0 9564
0.09550000 0.09549270 21068.91369763 0 531.16458558 0 7030.13902083 0 -506.41604486 0 409.95327655 0 10155
0.09650000 0.09649430 20682.23531249 0 464.65028301 0 7142.05093950 0 -190.50205233 0 -407.05656086 0 9913
0.09750000 0.09749140 20238.45442163 0 410.97055544 0 7604.76108620 0 80.66459574 0 -552.13401952 0 10476
0.09850000 0.09850240 19939.79033171 0 422.25054845 0 7187.19339284 0 210.94092755 0 -1387.26490997 0 10575
0.09950000 0.09950330 19295.81345133 0 494.12888955 0 6866.14916731 0 23.08143980 0 -1394.09922561 0 10882
0.10050000 0.10051200 18767.72767998 0 295.27952999 0 6781.06868193 0 528.01720337 0 -1464.56686504 0 10875
0.10150000 0.10150300 18629.80489552 0 387.09204109 0 5958.65771185 0 506.70942585 0 -2595.34260663 0 11118
0.10250000 0.10250800 17800.24487157 0 508.45847110 0 5279.36270687 0 67.51258476 0 -2920.93929570 0 11575
0.10350000 0.10349800 17509.89886319 0 581.68006996 0 5903.49983871 0 151.28567006 0 -3002.19795984 0 11364
0.10450000 0.10450100 16992.26689702 0 469.79962511 0 5208.80514223 0 419.34484024 0 -2289.46201894 0 12093
0.10550000 0.10551000 16560.17628293 0 383.95589954 0 4998.81854593 0 386.27484578 0 -2237.65385972 0 12067
0.10650000 0.10649700 16409.21434361 0 52.06714381 0 5254.71195982 0 981.43020784 0 -1004.66238477 0 12054
0.10750000 0.10749900 16668.19893645 0 -56.52664718 0 4843.20297721 0 979.74411023 0 -891.24309483 0 12807
0.10850000 0.10850100 16424.50162860 0 86.26333906 0 4853.96027996 0 1003.50796994 0 68.45488851 0 12736
0.10950000 0.10950300 16334.91364228 0 118.75410278 0 4209.11786947 0 609.02520100 0 409.32042791 0 12933
0.11050000 0.11050200 15960.93719246 0 348.45792453 0 4078.68135839 0 523.31074291 0 321.86254490 0 13428
0.11150000 0.11150900 15713.98009590 0 492.85757195 0 3786.60428980 0 -348.35113835 0 772.69019970 0 13453
0.11250000 0.11250000 15363.49660610 0 248.33969660 0 3588.85876214 0 -78.53898869 0 -143.72858057 0 13668
0.11350000 0.11349100 15108.22142800 0 235.26007541 0 3868.98701900 0 -449.37086647 0 509.03624055 0 13791
0.11450000 0.11448600 14947.03049652 0 176.41414477 0 4184.91674845 0 -555.13077700 0 -833.54595870 0 14205
0.11550000 0.11549300 15264.80369269 0 96.43522872 0 4294.82783130 0 -608.90155384 0 -162.90737885 0 14776
0.11650000 0.11649800 15087.98825669 0 125.22759353 0 4662.83549558 0 -406.89357142 0 -822.49415090 0 14553
0.11750000 0.11747300 15169.93260052 0 171.45814186 0 5404.45990886 0 -374.64077228 0 -381.33795198 0 14568
0.11850000 0.11849100 15255.47395258 0 -25.08733393 0 5861.27995457 0 284.32551585 0 -392.87985215 0 16015
0.11950000 0.11950300 15246.59383850 0 89.14521709 0 5188.80802458 0 686.38335933 0 -866.76095754 0 15270
0.12050000 0.12050700 15265.47813173 0 83.78859739 0 5047.13086277 0 770.08911312 0 109.97088311 0 15999
0.12150000 0.12150000 15010.31536014 0 -14.75638906 0 4113.07774963 0 854.43670808 0 -1233.11062584 0 15670
0.12250000 0.12250700 14962.87981405 0 86.19926735 0 3844.40371586 0 460.93749607 0 -530.45642458 0 16887
0.12350000 0.12352200 14667.02588681 0 329.68716187 0 3686.43885113 0 154.10370120 0 -1134.64252544 0 16407
0.12450000 0.12449800 14525.16887459 0 453.79968286 0 3399.37511276 0 19.25219973 0 -694.44065777 0 16306
0.12550000 0.12549900 13835.21773272 0 622.12055910 0 3575.11144629 0 -364.58038987 0 -836.26507211 0 17523
0.12650000 0.12650100 13548.46873257 0 315.90275188 0 3820.79834932 0 -162.75113380 0 -131.01315646 0 17154
0.12750000 0.12750600 13188.88031569 0 232.10932101 0 3767.39401770 0 688.91700200 0 -181.35103857 0 18007
0.12850000 0.12850300 13224.51317850 0 155.12098009 0 3764.87611193 0 545.74370958 0 29.74085092 0 17496
0.12950000 0.12949900 12875.37856680 0 66.14268666 0 3404.89427227 0 549.24292415 0 -373.38631566 0 18405
0.13050000 0.13049000 12885.83237198 0 84.88995635 0 3362.88796049 0 191.53619220 0 -153.41127711 0 18100
0.13150000 0.13148800 12946.19466640 0 154.10594933 0 3229.11297614 0 -189.64551474 0 436.64644984 0 19059
0.13250000 0.13249300 12737.79300185 0 145.09319557 0 3445.27068970 0 -192.56808393 0 1.41636695 0 18957
0.13350000 0.13349100 12711.04025311 0 114.00043158 0 3659.66362109 0 -235.31627866 0 451.98656589 0 19468
0.13450000 0.13450700 12716.77298498 0 215.40683809 0 3823.23757053 0 -66.45866135 0 326.28574096 0 19953
0.13550000 0.13551000 12452.16806678 0 113.07757416 0 4190.69444293 0 29.57932277 0 825.60781115 0 19956
0.13650000 0.13649900 12346.84316943 0 163.44355789 0 4035.87696041 0 651.90153914 0 1423.22375165 0 19723
0.13750000 0.13749600 12244.10362175 0 97.16328567 0 4057.62761957 0 837.80279313 0 1406.69999508 0 20946
0.13850000 0.13851100 12185.42742493 0 94.17552070 0 3651.39050215 0 945.32973396 0 1790.59069884 0 20955
0.13950000 0.13949800 11937.23385679 0 77.10501888 0 3636.65400905 0 615.39302963 0 1796.52576243 0 20506
0.14050000 0.14048300 11878.22044045 0 235.54896013 0 3549.12306180 0 107.80728266 0 1790.08486956 0 21447
0.14150000 0.14148400 11678.58648347 0 183.70707896 0 3198.77445982 0 -200.41068595 0 1709.46692252 0 21771
0.14250000 0.14249400 11754.68568892 0 194.49248334 0 3338.74304272 0 -371.88231659 0 1853.26856732 0 22470
0.14350000 0.14350900 11505.14324269 0 159.09117793 0 3689.35017967 0 -464.41984967 0 1058.98282943 0 22519
0.14450000 0.14449900 11444.10650922 0 195.73794744 0 3391.50665725 0 -650.78421846 0 642.33911757 0 22218
0.14550000 0.14550500 11285.50092741 0 300.79531730 0 4165.98749262 0 -576.93876348 0 230.61768666 0 23559
0.14650000 0.14650700 11092.30786329 0 236.40774585 0 3962.19449487 0 -460.55081769 0 -50.28145404 0 23044
0.14750000 0.14750500 10812.53930725 0 307.45315473 0 4204.48672137 0 -84.28667063 0 -258.90928048 0 23649
0.14850000 0.14849900 10692.95002412 0 303.43012583 0 4273.08841278 0 102.35646630 0 -448.78972483 0 23640
0.14950000 0.14949500 10360.99112674 0 198.77292314 0 3803.66759761 0 305.61980459 0 -183.95662141 0 24457
0.15050000 0.15050000 10230.61081891 0 150.41339556 0 3820.53981435 0 532.92262335 0 -220.73153434 0 24591
0.15150000 0.15149900 10240.01924357 0 7.99339534 0 3774.30701790 0 403.64839555 0 166.18852480 0 25020
0.15250000 0.15250500 10235.29817026 0 -54.22782170 0 3288.19383638 0 576.99496674 0 472.46927966 0 25297
0.15350000 0.15350100 10188.96420795 0 -3.57708980 0 3416.10120105 0 429.32428995 0 481.00205763 0 25452
0.15450000 0.15450400 10312.42027493 0 28.92983797 0 2903.02169844 0 361.28125888 0 619.14066259 0 26061
0.15550000 0.15549900 10265.11961665 0 114.90980023 0 3306.80835400 0 288.63068508 0 670.26539024 0 26128
0.15650000 0.15649500 10125.90415735 0 261.69246560 0 3036.98777385 0 -93.36417053 0 781.32751573 0 26331
0.15750000 0.15749700 9797.55350885 0 212.10995523 0 3104.72393515 0 127.74549930 0 532.01437877 0 27345
0.15850000 0.15849900 9660.29392277 0 192.74118995 0 2716.34821175 0 -41.59569081 0 510.99098971 0 26980
0.15950000 0.15949700 9496.24786600 0 54.41475372 0 2782.70177301 0 335.08604642 0 387.92722144 0 27777
0.16050000 0.16050000 9509.83781273 0 -16.04490485 0 2406.70200606 0 229.19799247 0 299.25759628 0 28224
0.16150000 0.16150500 9447.65453289 0 -58.75094714 0 2249.76004055 0 302.56571979 0 14.91870406 0 28075
0.16250000 0.16249700 9523.67505378 0 5.32200974 0 1861.63161146 0 130.86815207 0 -154.86581732 0 28590
0.16350000 0.16349900 9419.89012559 0 204.11335630 0 1986.80749800 0 -82.98736381 0 107.20860560 0 29163
0.16450000 0.16449100 9315.31835183 0 177.34824284 0 1878.89725099 0 -44.88256949 0 -21.83833624 0 28996
0.16550000 0.16550500 9033.07685263 0 191.10342714 0 1763.83795010 0 -102.28385170 0 -315.89038717 0 30777
0.16650000 0.16650700 8968.08341010 0 98.00925704 0 1864.62162456 0 34.31208636 0 -567.60677525 0 29211
0.16750000 0.16749900 8945.23116717 0 31.73797734 0 1945.82408544 0 -216.55450853 0 -805.45332439 0 30922
0.16850000 0.16850800 8975.42355503 0 110.96702958 0 1687.49145034 0 -115.51567130 0 -919.88876916 0 30867
0.16950000 0.16949900 8822.67435225 0 108.99429537 0 1946.27371147 0 -138.12736431 0 -783.51944262 0 30852
0.17050000 0.17049200 8722.58759814 0 134.70458616 0 1786.25180766 0 -3.24434406 0 -1080.37715997 0 31257
0.17150000 0.17149500 8758.82745610 0 122.95810615 0 2140.15245528 0 232.14416703 0 -633.33310820 0 32608
0.17250000 0.17250900 8604.21230529 0 118.62483529 0 2139.70282925 0 202.51830796 0 -500.55741770 0 32361
0.17350000 0.17350400 8605.03287279 0 149.02629926 0 2278.22136821 0 168.08931884 0 -332.52430212 0 32508
0.17450000 0.17449800 8430.02718156 0 188.51470528 0 2381.71403949 0 -74.85958649 0 233.91456952 0 32791
0.17550000 0.17549800 8316.40668397 0 155.75607685 0 2439.96309157 0 140.29905803 0 412.52963370 0 33633
0.17650000 0.17650100 8213.84698670 0 133.36245247 0 2598.11904736 0 90.84053204 0 789.41628799 0 33984
0.17750000 0.17750300 8153.78818985 0 60.29912197 0 2546.02987187 0 213.24301282 0 850.67783448 0 34069
0.17850000 0.17849800 8123.59580199 0 26.56008399 0 2491.55767843 0 250.45518707 0 810.29017640 0 34536
