### header ###
fiducial parameters:
Omega_m = 0.31
Omega_nu = 0
Omega_de = 0.69
Omega_k = 0
H_0 = 100
w_de = -1
zeff = 0
beta = 0
fgrowth = 0
b_1 = 2
gamma = 0.55
Lx = 3500 Ly = 3500 Lz = 3500
nx = 700 ny = 700 nz = 700
xoffset = 857.220397 yoffset = 15.9954215 zoffset = 262.898189
bins = 400 dk = 0.001
kx_ny = 0.628318531 ky_ny = 0.628318531 kz_ny = 0.628318531
############################
A(data) = 3.1037515 (not used)
A(ran) = 3.10416647 (used)
Ngal = 189014
weighted Ngal = 0
Nran = 9360983
weighted Nran = 0
SN(data) = 3448.96717
SN(ran) = 69.7079129
SN(data+ran) = 3518.67508
############################
13 columns: k_central k_mean P_0(k) sigma^{lin}_{P_0(k)} P^img_1(k) sigma^{lin}_{P_1(k)} P_2(k) sigma^{lin}_{P_2(k)} P^img_3(k) sigma^{lin}_{P_3(k)} P_4(k) sigma^{lin}_{P_4(k)} N_modes
### header ###
0.00050000 0 0 0 0 0 0 0 0 0 0 0 0
0.00150000 0.00179520 2667.11416155 0 -9591.02903296 0 -451.17723904 0 -11338.21957934 0 2726.59968521 0 3
0.00250000 0.00253879 8770.76502717 0 -11433.98992356 0 -8915.79190290 0 314.85399917 0 6313.13163265 0 6
0.00350000 0.00331552 14822.03446039 0 -11828.31195121 0 -13492.15307241 0 -291.02044743 0 -5739.83596407 0 7
0.00450000 0.00420575 21436.82019606 0 -9263.90361539 0 -15165.54874673 0 -6560.30230157 0 2501.16843480 0 24
0.00550000 0.00557378 29806.15910433 0 -8947.05215259 0 -26177.56464185 0 949.20326220 0 7040.09823737 0 45
0.00650000 0.00659388 30761.95163598 0 -6197.95992526 0 -16738.11578400 0 -7957.14424596 0 8139.34395366 0 40
0.00750000 0.00754703 40983.41256519 0 -12356.28531604 0 -37098.75607907 0 3613.74556286 0 4913.08610280 0 57
0.00850000 0.00846663 46454.79930850 0 -12972.16056959 0 -37410.68413686 0 18962.97778318 0 26752.29911373 0 75
0.00950000 0.00948925 53070.25948321 0 -6779.09032740 0 -42487.52403951 0 -192.15667612 0 14382.30020380 0 112
0.01050000 0.01054430 61754.22420544 0 -6753.74266000 0 -37777.24175719 0 6591.21409108 0 32513.35742638 0 105
0.01150000 0.01145670 56241.58427395 0 3021.01480916 0 -37300.86297921 0 -5243.84225056 0 26708.34816937 0 144
0.01250000 0.01249090 60636.22908374 0 2260.27004899 0 -28275.85691381 0 -17913.55063094 0 17522.71320502 0 169
0.01350000 0.01339930 53921.96358910 0 -524.08972001 0 -20900.30393667 0 -24504.84340658 0 8651.41179771 0 180
0.01450000 0.01448870 61056.17979505 0 -1825.21190310 0 -6491.23974348 0 -26291.65724677 0 631.99771889 0 267
0.01550000 0.01550050 65731.05402756 0 -6651.03683427 0 10592.27875618 0 -35330.37690607 0 -30277.25477646 0 238
0.01650000 0.01653350 73324.11359634 0 -4285.55429444 0 18663.07722168 0 -18024.60826016 0 -27973.93303517 0 315
0.01750000 0.01747870 73678.75612691 0 -5811.91101655 0 22203.09535639 0 -21346.55777069 0 -51950.57826390 0 297
0.01850000 0.01844180 79430.93432548 0 -1718.77418132 0 23751.60740109 0 -14535.84749278 0 -46772.34769165 0 388
0.01950000 0.01947590 82622.82950705 0 124.30361204 0 34202.93963775 0 -1547.33177637 0 -50738.16167606 0 399
0.02050000 0.02045430 79026.04608615 0 388.73317610 0 27685.04831139 0 -5416.18390757 0 -38264.41155987 0 462
0.02150000 0.02154770 79626.52164819 0 2594.42087327 0 30337.50466438 0 1936.95521201 0 -37477.56600870 0 571
0.02250000 0.02255340 77567.23443428 0 3406.67029509 0 26340.32926444 0 -740.07882380 0 -35870.26536068 0 510
0.02350000 0.02348930 77852.85936935 0 4243.58170461 0 26650.23400509 0 2150.35896614 0 -28234.49131912 0 555
0.02450000 0.02439640 72437.11384716 0 4300.66172903 0 35882.85488950 0 8016.05649644 0 -27070.18471640 0 592
0.02550000 0.02547300 68594.04776874 0 3935.72276239 0 21102.29843030 0 3433.28815602 0 -20530.37412111 0 837
0.02650000 0.02652900 67718.06385728 0 1493.03943334 0 26603.69771107 0 8282.35875291 0 -20329.84091207 0 723
0.02750000 0.02749970 64376.78042749 0 3587.70097511 0 15900.01286549 0 2928.87519512 0 -17244.50709943 0 826
0.02850000 0.02848090 62575.69096086 0 2057.79220737 0 14490.09804431 0 3793.92195342 0 -25627.67200809 0 831
0.02950000 0.02946900 60080.26649858 0 2248.72590069 0 13506.42869884 0 -1225.54566790 0 -24462.57855983 0 996
0.03050000 0.03053250 58214.43088374 0 1470.52440993 0 11250.54250363 0 -8496.24585502 0 -27826.56810409 0 1041
0.03150000 0.03150510 57389.92915263 0 96.37318033 0 12458.23801817 0 -4626.06732704 0 -32846.19309452 0 1036
0.03250000 0.03246190 57507.28154626 0 1380.77905449 0 15466.91059283 0 -5754.58369783 0 -28830.80784040 0 1059
0.03350000 0.03345080 57499.18827773 0 1410.36444722 0 14433.78238414 0 -3191.61416530 0 -27505.19789969 0 1302
0.03450000 0.03451200 55561.52490472 0 2751.39656073 0 18934.20171731 0 3357.20019122 0 -21903.64442092 0 1339
0.03550000 0.03553350 53606.66333610 0 3567.96239243 0 18410.05017372 0 105.45922313 0 -23570.07089179 0 1365
0.03650000 0.03647120 49797.99364891 0 2048.86713069 0 19540.07279171 0 5451.25473785 0 -19234.10227881 0 1308
0.03750000 0.03744890 49688.84693032 0 349.21779252 0 21229.20537706 0 -419.70229293 0 -11892.49606688 0 1579
0.03850000 0.03847530 48640.31903013 0 425.02361698 0 19824.23644219 0 1328.22901233 0 -6641.81950067 0 1662
0.03950000 0.03950240 49624.21318861 0 -114.41970786 0 21404.55952846 0 3551.51732041 0 -6774.40297605 0 1683
0.04050000 0.04050350 48504.53196930 0 908.40307224 0 14216.50060551 0 4319.97316698 0 -6792.02831639 0 1822
0.04150000 0.04152450 46719.51663322 0 597.12922033 0 11222.99166869 0 8119.86390594 0 -7430.08137384 0 1887
0.04250000 0.04250150 44870.76680749 0 1631.94015443 0 5674.52778332 0 3840.19971248 0 -8501.33786980 0 1920
0.04350000 0.04349210 43130.15204180 0 2439.07508017 0 4222.49424384 0 5338.85947119 0 -4909.16311570 0 2005
0.04450000 0.04448520 39428.04372355 0 2387.06458923 0 957.31001950 0 4377.82879629 0 -6618.15793089 0 2151
0.04550000 0.04548030 38577.12646321 0 1948.19586274 0 -37.65595514 0 -488.56813963 0 -401.86675241 0 2274
0.04650000 0.04648670 36260.76556708 0 614.41284489 0 -1771.12189178 0 761.22248783 0 -917.78789153 0 2311
0.04750000 0.04749250 36025.72356029 0 566.39952936 0 369.74434482 0 -2724.25038921 0 1447.46983528 0 2568
0.04850000 0.04851840 35992.67604714 0 4.67916816 0 1170.35407281 0 -2371.41760342 0 540.95631643 0 2493
0.04950000 0.04949480 36961.95735967 0 -979.09215249 0 3281.21339228 0 -1098.53418309 0 4306.57431131 0 2644
0.05050000 0.05050630 37256.12518930 0 -149.96714173 0 2865.02829897 0 -217.17836464 0 3736.97681682 0 2829
0.05150000 0.05149060 37958.10382745 0 556.93827364 0 5982.93751743 0 -1998.74506908 0 1326.99254075 0 2784
0.05250000 0.05249300 37961.47602267 0 -593.78063047 0 5671.61645478 0 2456.47560750 0 4440.74271844 0 3055
0.05350000 0.05348950 37931.12626570 0 934.77251479 0 7878.87559492 0 -1498.08648552 0 3724.37604735 0 3009
0.05450000 0.05448610 38171.22656531 0 1342.22362249 0 8638.56373392 0 -2190.07218517 0 7890.36353997 0 3336
0.05550000 0.05550870 36217.15184224 0 1003.13590440 0 10816.31616590 0 -325.64614794 0 8719.38401268 0 3349
0.05650000 0.05647670 36501.76511875 0 1316.57245752 0 12088.53301563 0 -335.77734644 0 8721.38484851 0 3324
0.05750000 0.05747970 36260.65316057 0 -9.20806006 0 11146.03817379 0 1130.06758059 0 6306.91555280 0 3639
0.05850000 0.05849280 34790.37604495 0 787.95949966 0 14027.77007974 0 806.32784702 0 7945.19543423 0 3846
0.05950000 0.05951020 34971.57533474 0 1357.11748470 0 13358.05210919 0 -687.16008829 0 6500.78305595 0 3787
0.06050000 0.06049470 33546.26082205 0 1286.49247616 0 14122.52876540 0 -628.00841195 0 5038.68913407 0 3930
0.06150000 0.06148310 33438.46298154 0 1088.96389306 0 15369.90377702 0 -581.37095207 0 5465.15942280 0 4083
0.06250000 0.06249100 33091.35168696 0 185.56291040 0 14411.97552173 0 503.24505729 0 4880.26340267 0 4303
0.06350000 0.06350600 33116.75555762 0 -12.17238827 0 15829.08435938 0 1639.49387172 0 4010.18083284 0 4470
0.06450000 0.06451750 33043.24170184 0 -224.19815102 0 12844.91640332 0 1519.19642759 0 2871.93005851 0 4479
0.06550000 0.06550280 32109.25603260 0 -5.88911181 0 12654.49977994 0 2987.41650412 0 2072.89964195 0 4636
0.06650000 0.06648880 32841.69683423 0 -207.86323738 0 8772.83330691 0 2063.49121729 0 2527.10061604 0 4653
0.06750000 0.06749660 31606.57413191 0 -30.94820922 0 8165.28737555 0 2100.27062648 0 1675.92482074 0 5220
0.06850000 0.06852730 32266.96236235 0 -139.54031411 0 6200.73636599 0 2047.06862657 0 2453.98018303 0 5029
0.06950000 0.06949320 31169.31281847 0 392.94617199 0 6818.90471229 0 -120.63803584 0 630.99392878 0 5040
0.07050000 0.07048030 32163.66078214 0 676.48259416 0 7758.62311340 0 -1114.87471706 0 2801.94576706 0 5475
0.07150000 0.07148790 30129.55262586 0 1515.00366487 0 9562.52274271 0 -3255.98937204 0 1275.40919454 0 5509
0.07250000 0.07249820 30159.90238283 0 1593.01378095 0 11992.87507791 0 -2349.25104017 0 6158.02189321 0 5916
0.07350000 0.07351270 28859.02187373 0 840.59272264 0 14619.59034073 0 893.13714448 0 4964.65820836 0 5721
0.07450000 0.07449140 29307.97346393 0 850.10905755 0 14741.88862068 0 -26.56458025 0 6312.15369604 0 6028
0.07550000 0.07549160 27665.03995309 0 407.57250672 0 14067.33717031 0 3579.43909682 0 5234.01792182 0 6183
0.07650000 0.07648840 27705.39388921 0 500.84967462 0 14081.50039023 0 1774.29175528 0 6562.11204634 0 6330
0.07750000 0.07749960 26481.73665063 0 707.48093668 0 12350.21536465 0 1855.05583079 0 5495.93632451 0 6583
0.07850000 0.07848650 26004.23380758 0 418.52876899 0 12589.75363172 0 551.77319463 0 5814.51884752 0 6549
0.07950000 0.07947320 25875.64076322 0 923.00355347 0 10832.04183627 0 -1208.48236009 0 4206.84725803 0 6828
0.08050000 0.08048110 25347.33017886 0 509.75789033 0 11249.53084507 0 -1587.05623606 0 3753.83779292 0 7147
0.08150000 0.08149960 24960.76420022 0 406.85310508 0 11828.53676422 0 -1166.36364180 0 3047.10435951 0 7386
0.08250000 0.08250610 24888.03718999 0 361.86802085 0 11312.70330218 0 -326.17783072 0 155.52002319 0 7227
0.08350000 0.08350160 24318.36101095 0 408.59203375 0 11392.06229634 0 208.09479479 0 -454.16837620 0 7798
0.08450000 0.08449610 23572.99346098 0 882.32925880 0 10338.58850983 0 941.88110231 0 -1593.05874355 0 7371
0.08550000 0.08548940 22812.22621950 0 989.23121945 0 9652.68400222 0 1463.80250079 0 -1881.19034374 0 8256
0.08650000 0.08650700 21952.65365810 0 559.52362331 0 8640.78938277 0 1545.53327226 0 -662.34747587 0 8037
0.08750000 0.08749060 21919.60614495 0 -20.36007826 0 8048.22723883 0 2718.40525083 0 849.79656746 0 8155
0.08850000 0.08849210 22028.07842451 0 -558.17249709 0 7528.14481081 0 2429.46432379 0 2057.02784312 0 8718
0.08950000 0.08949900 22509.29068230 0 -563.16784227 0 6614.12253727 0 1347.38308117 0 1572.94921939 0 8571
0.09050000 0.09049190 22707.57576120 0 96.03281342 0 7658.41271213 0 378.17820506 0 2651.55710093 0 8932
0.09150000 0.09150830 22472.42134790 0 940.93126732 0 7129.25907897 0 -503.88015406 0 2472.84199496 0 9285
0.09250000 0.09250820 21305.64180203 0 1051.37852921 0 6903.91775377 0 85.47188484 0 2731.80410650 0 9204
0.09350000 0.09350330 20775.42030705 0 765.35567510 0 7334.46839872 0 759.69375933 0 3415.60661242 0 9349
0.09450000 0.09448040 19769.26966012 0 346.95392546 0 5757.31517595 0 1130.44976271 0 1764.93953388 0 9564
0.09550000 0.09549270 19362.35810365 0 422.06507771 0 5191.51702141 0 1090.75228059 0 1589.65282638 0 10155
0.09650000 0.09649430 18850.00924334 0 484.61030651 0 4755.64954866 0 723.56068755 0 901.05281073 0 9913
0.09750000 0.09749140 18298.65532498 0 468.91498589 0 5023.81775315 0 -215.38660492 0 2420.73033817 0 10476
0.09850000 0.09850240 18159.15884941 0 157.63326553 0 5288.49011527 0 -201.93941445 0 2494.16550940 0 10575
0.09950000 0.09950330 18410.72461277 0 -152.67951075 0 5201.62236642 0 344.30113189 0 2526.67347131 0 10882
0.10050000 0.10051200 18508.06864810 0 -114.75805144 0 5005.93387784 0 -204.74957713 0 2144.88476923 0 10875
0.10150000 0.10150300 18404.42984836 0 275.60614308 0 4923.51742668 0 -17.46021519 0 806.35257645 0 11118
0.10250000 0.10250800 18011.11947928 0 609.66929028 0 4944.96458828 0 -959.46148005 0 817.73935564 0 11575
0.10350000 0.10349800 17174.59025188 0 814.56274774 0 4704.75188215 0 -630.14975591 0 -938.06490139 0 11364
0.10450000 0.10450100 16940.22268414 0 567.37971410 0 5387.44156365 0 -565.83862089 0 -585.90767870 0 12093
0.10550000 0.10551000 16481.94135384 0 282.02005839 0 4805.07468993 0 35.76673897 0 -1926.49016618 0 12067
0.10650000 0.10649700 16062.88989459 0 283.49258363 0 5489.78768856 0 -232.83659111 0 -1446.49189867 0 12054
0.10750000 0.10749900 15988.13956723 0 291.54875801 0 5882.16508362 0 130.42976669 0 -1974.09432203 0 12807
0.10850000 0.10850100 15819.19258674 0 174.64261821 0 6816.42052848 0 176.02072199 0 -382.46426519 0 12736
0.10950000 0.10950300 15815.82039152 0 258.93850617 0 6009.78019137 0 562.27983087 0 -152.59295774 0 12933
0.11050000 0.11050200 15599.10064543 0 91.24901728 0 6034.86932380 0 1113.43029344 0 715.83611237 0 13428
0.11150000 0.11150900 15473.54257676 0 65.31492514 0 5469.53203594 0 1112.18145715 0 944.12136400 0 13453
0.11250000 0.11250000 15119.12485921 0 184.83564030 0 4293.08553043 0 1422.44814675 0 142.75514022 0 13668
0.11350000 0.11349100 15162.17655151 0 200.14315846 0 4215.64868755 0 619.31489267 0 1234.03235920 0 13791
0.11450000 0.11448600 14514.71506941 0 199.81717959 0 2990.19294486 0 708.12502597 0 764.40021979 0 14205
0.11550000 0.11549300 14862.95042905 0 116.03274124 0 3380.53578214 0 65.00254745 0 1520.07319835 0 14776
0.11650000 0.11649800 14399.16117989 0 162.75563006 0 3137.95129871 0 -9.68640595 0 864.43863910 0 14553
0.11750000 0.11747300 14520.89742731 0 253.78354375 0 3419.11369545 0 -13.93076326 0 1813.81388325 0 14568
0.11850000 0.11849100 14478.18295453 0 133.77386028 0 3773.68878211 0 -413.08941810 0 1526.15439040 0 16015
0.11950000 0.11950300 14408.49092000 0 81.82541774 0 4083.94198293 0 -158.94842166 0 1843.93882721 0 15270
0.12050000 0.12050700 14396.01379769 0 -114.25671842 0 3846.19097932 0 516.47979946 0 1934.03264282 0 15999
0.12150000 0.12150000 14505.04810978 0 12.84828860 0 4227.40640821 0 245.98590434 0 1295.77725367 0 15670
0.12250000 0.12250700 14463.68251509 0 -39.08014558 0 3622.88421190 0 379.19211176 0 1521.11857887 0 16887
0.12350000 0.12352200 14376.90469144 0 147.41551401 0 3449.57585893 0 305.56360134 0 759.57573250 0 16407
0.12450000 0.12449800 14221.44649184 0 193.83040901 0 3774.34073985 0 -323.37553649 0 1748.19096429 0 16306
0.12550000 0.12549900 14086.44627656 0 131.05811907 0 3085.97452973 0 64.89621090 0 1012.23970743 0 17523
0.12650000 0.12650100 14177.15832796 0 38.96515373 0 4254.15915695 0 -274.55963849 0 1445.48024010 0 17154
0.12750000 0.12750600 14014.28129886 0 34.79217455 0 3838.59229943 0 88.94389704 0 1324.14865611 0 18007
0.12850000 0.12850300 14027.54526673 0 109.48562422 0 3909.83554376 0 -28.21111077 0 999.26237616 0 17496
0.12950000 0.12949900 14112.97421228 0 204.17293175 0 3881.43041936 0 -196.61809039 0 1185.87741147 0 18405
0.13050000 0.13049000 13661.32486591 0 410.33096241 0 3426.63369079 0 -196.47758226 0 308.46368923 0 18100
0.13150000 0.13148800 13418.30199711 0 458.19140510 0 4083.31250649 0 -306.00423485 0 207.07863996 0 19059
0.13250000 0.13249300 12915.05806388 0 315.55878797 0 3531.58764666 0 147.56501467 0 -575.28413970 0 18957
0.13350000 0.13349100 12786.01539349 0 215.20900264 0 3696.04960751 0 38.07635547 0 -461.05327477 0 19468
0.13450000 0.13450700 12627.18499866 0 163.45929480 0 3335.05610928 0 221.74544104 0 -681.72410960 0 19953
0.13550000 0.13551000 12435.53190370 0 54.32730145 0 3278.99898409 0 597.10561496 0 -596.30640469 0 19956
0.13650000 0.13649900 12591.10250981 0 6.67052812 0 3079.75844988 0 461.12521494 0 -142.03573857 0 19723
0.13750000 0.13749600 12528.82930476 0 -59.45258856 0 2993.16047665 0 505.99901672 0 -491.67505549 0 20946
0.13850000 0.13851100 12572.33062309 0 -47.19522097 0 2736.34532940 0 475.06249778 0 89.13116628 0 20955
0.13950000 0.13949800 12564.23735457 0 94.14629501 0 2723.92441034 0 76.70384005 0 277.53279061 0 20506
0.14050000 0.14048300 12534.00000410 0 227.64903080 0 2760.65885693 0 71.96702983 0 546.46985561 0 21447
0.14150000 0.14148400 12425.52772454 0 403.06950204 0 2960.92229035 0 -344.98006719 0 549.76561441 0 21771
0.14250000 0.14249400 11930.82668587 0 418.86598851 0 3314.17098022 0 -361.62072654 0 622.25657097 0 22470
0.14350000 0.14350900 11633.96110007 0 401.25076475 0 3439.52671718 0 -228.16048041 0 717.44352543 0 22519
0.14450000 0.14449900 11297.07879766 0 336.90703184 0 3653.00915586 0 -493.38813067 0 393.37106859 0 22218
0.14550000 0.14550500 11101.79497251 0 316.76603386 0 3767.05679818 0 -149.89407750 0 357.75394269 0 23559
0.14650000 0.14650700 10681.88922380 0 331.31480810 0 3774.00352033 0 97.73802014 0 -146.99960993 0 23044
0.14750000 0.14750500 10481.67075298 0 183.62165002 0 3419.88930035 0 356.27916931 0 44.20026199 0 23649
0.14850000 0.14849900 10432.14444586 0 79.30897327 0 3477.50887600 0 26.03773095 0 -532.56629472 0 23640
0.14950000 0.14949500 10290.11882388 0 11.49142965 0 3190.93972626 0 230.81777024 0 -623.85611557 0 24457
0.15050000 0.15050000 10388.72181209 0 -4.73654044 0 3314.20470218 0 -83.92213633 0 -743.22283381 0 24591
0.15150000 0.15149900 10235.48926132 0 26.66068781 0 3021.94778317 0 25.04664277 0 -696.78208532 0 25020
0.15250000 0.15250500 10433.67317436 0 143.90168659 0 3410.43591308 0 -48.55118067 0 -401.51267192 0 25297
0.15350000 0.15350100 10204.58871246 0 194.88253392 0 3405.13032594 0 -29.75647543 0 -816.79176878 0 25452
0.15450000 0.15450400 10081.51482761 0 328.46080688 0 3233.15961041 0 140.43506991 0 -587.71742347 0 26061
0.15550000 0.15549900 9890.68230015 0 154.88043016 0 3322.68015283 0 221.60268477 0 -580.37615448 0 26128
0.15650000 0.15649500 9690.66616104 0 83.22712689 0 3202.73116888 0 313.59279816 0 -297.97728616 0 26331
0.15750000 0.15749700 9765.16919409 0 -39.02708971 0 2998.37613859 0 385.89828399 0 -476.65529799 0 27345
0.15850000 0.15849900 9655.39299905 0 -70.08556971 0 2879.27020344 0 386.22538692 0 -27.47304964 0 26980
0.15950000 0.15949700 9782.78329378 0 83.17901691 0 2827.56321008 0 208.76810977 0 -79.55885293 0 27777
0.16050000 0.16050000 9680.93175751 0 136.63123370 0 2708.28866517 0 179.78971218 0 234.28888319 0 28224
0.16150000 0.16150500 9504.18376542 0 153.22805450 0 3095.03449422 0 203.64012490 0 372.33981107 0 28075
0.16250000 0.16249700 9468.91060342 0 177.80348920 0 2765.35744893 0 63.19595007 0 264.45316942 0 28590
0.16350000 0.16349900 9246.87402953 0 200.54894595 0 2916.88142079 0 -92.53843233 0 596.89204260 0 29163
0.16450000 0.16449100 9064.07856735 0 323.21591925 0 2995.86947347 0 -351.49739649 0 -47.71172887 0 28996
0.16550000 0.16550500 8926.67285281 0 260.32672654 0 3146.15697375 0 -375.36129799 0 393.01473996 0 30777
0.16650000 0.16650700 8745.46232238 0 181.38925678 0 3289.85745269 0 -273.00056024 0 -115.48082528 0 29211
0.16750000 0.16749900 8771.65303858 0 82.30640519 0 3344.81299412 0 -94.22823935 0 452.91391958 0 30922
0.16850000 0.16850800 8637.10244933 0 68.65519691 0 3583.81170996 0 135.12386244 0 97.16002588 0 30867
0.16950000 0.16949900 8746.48522159 0 40.54041852 0 3424.77898342 0 463.84882461 0 391.06898332 0 30852
0.17050000 0.17049200 8619.42090573 0 8.40799551 0 3399.52124122 0 558.91775223 0 434.94011906 0 31257
0.17150000 0.17149500 8586.30594868 0 77.90175620 0 3124.82221866 0 374.43394430 0 523.57939446 0 32608
0.17250000 0.17250900 8602.89714916 0 56.78068588 0 3120.88799090 0 302.24536125 0 631.94151564 0 32361
0.17350000 0.17350400 8454.17209933 0 90.91685606 0 2697.93602585 0 97.77219172 0 536.34315337 0 32508
0.17450000 0.17449800 8379.51169718 0 33.68260992 0 2543.08482138 0 162.43751965 0 580.08389756 0 32791
0.17550000 0.17549800 8476.08012761 0 -86.48916373 0 2291.65394583 0 265.25125562 0 122.07571507 0 33633
0.17650000 0.17650100 8447.30406174 0 -75.84651562 0 2206.10135312 0 119.12504425 0 221.66900461 0 33984
0.17750000 0.17750300 8568.93914330 0 -28.04103972 0 2035.95162300 0 238.10283598 0 15.13115236 0 34069
0.17850000 0.17849800 8498.75252013 0 45.11401449 0 1979.32122462 0 2.46957097 0 12.95743532 0 34536
