### header ###
fiducial parameters:
Omega_m = 0.31
Omega_nu = 0
Omega_de = 0.69
Omega_k = 0
H_0 = 100
w_de = -1
zeff = 0
beta = 0
fgrowth = 0
b_1 = 2
gamma = 0.55
Lx = 3500 Ly = 3500 Lz = 3500
nx = 700 ny = 700 nz = 700
xoffset = 857.220397 yoffset = 15.9954215 zoffset = 262.898189
bins = 400 dk = 0.001
kx_ny = 0.628318531 ky_ny = 0.628318531 kz_ny = 0.628318531
############################
A(data) = 3.08546795 (not used)
A(ran) = 3.08224195 (used)
Ngal = 187774
weighted Ngal = 0
Nran = 9360983
weighted Nran = 0
SN(data) = 3454.378
SN(ran) = 69.2155705
SN(data+ran) = 3523.59357
############################
13 columns: k_central k_mean P_0(k) sigma^{lin}_{P_0(k)} P^img_1(k) sigma^{lin}_{P_1(k)} P_2(k) sigma^{lin}_{P_2(k)} P^img_3(k) sigma^{lin}_{P_3(k)} P_4(k) sigma^{lin}_{P_4(k)} N_modes
### header ###
0.00050000 0 0 0 0 0 0 0 0 0 0 0 0
0.00150000 0.00179520 11959.15312572 0 -19543.55739344 0 -20985.05844318 0 32964.44474021 0 -17487.75478125 0 3
0.00250000 0.00253879 18479.62980175 0 -15060.11144287 0 -5729.30347433 0 -20949.87520639 0 -730.27472824 0 6
0.00350000 0.00331552 32150.95884681 0 -20228.89986851 0 -36089.68286295 0 23243.86720757 0 36227.26842790 0 7
0.00450000 0.00420575 37187.22000032 0 -18951.06269341 0 -35062.39979264 0 10098.42076631 0 3933.82309242 0 24
0.00550000 0.00557378 72654.73284531 0 -41369.41651130 0 -91746.19126635 0 52524.75070324 0 37654.60625772 0 45
0.00650000 0.00659388 75306.06513323 0 -47084.38815595 0 -61678.12499999 0 12527.14320715 0 -4710.93424006 0 40
0.00750000 0.00754703 136381.69125404 0 -46486.61035007 0 -129492.29642102 0 8064.46997914 0 49463.80910268 0 57
0.00850000 0.00846663 154044.12574765 0 -35380.39780182 0 -100140.70923225 0 6174.96155386 0 62498.69250335 0 75
0.00950000 0.00948925 162011.49898578 0 1628.96138198 0 -97283.89784897 0 -43552.57569627 0 93222.65073987 0 112
0.01050000 0.01054430 175414.85091741 0 2806.90289404 0 -21619.36836393 0 -38774.51229005 0 110557.08304514 0 105
0.01150000 0.01145670 155540.25635994 0 17748.42547170 0 -7155.62964559 0 -15620.34547531 0 120459.30949359 0 144
0.01250000 0.01249090 150336.95913657 0 19436.32158546 0 40755.78938789 0 -6043.63703137 0 87945.95206722 0 169
0.01350000 0.01339930 134111.07980638 0 15814.80873295 0 48531.05990502 0 9210.97139110 0 104963.17320886 0 180
0.01450000 0.01448870 118172.96113491 0 19717.67507326 0 70277.44762222 0 8799.41744589 0 66408.97767314 0 267
0.01550000 0.01550050 106079.03260693 0 22942.16814195 0 65531.19525756 0 20493.95441274 0 39910.94207895 0 238
0.01650000 0.01653350 82261.10536652 0 10339.20674562 0 51616.28131116 0 24158.96858358 0 29084.95895342 0 315
0.01750000 0.01747870 73685.83773687 0 8670.13872183 0 21529.55556459 0 25160.84778324 0 19492.63724563 0 297
0.01850000 0.01844180 69808.48767372 0 -508.25613939 0 11870.01476542 0 18345.75365154 0 13066.13240970 0 388
0.01950000 0.01947590 69275.68082907 0 -6028.84433501 0 -1359.59042787 0 12704.52067569 0 4126.88126873 0 399
0.02050000 0.02045430 75826.73207509 0 -7182.20254392 0 -2604.16651745 0 7595.91469407 0 18631.94061915 0 462
0.02150000 0.02154770 81535.18414232 0 -1754.27215633 0 -4387.57444048 0 -1705.07182808 0 23141.57728592 0 571
0.02250000 0.02255340 82183.76968950 0 3013.77583009 0 10976.65280792 0 -2328.71437129 0 30460.70219639 0 510
0.02350000 0.02348930 79328.19477779 0 7920.42104002 0 7795.87462992 0 -6016.59202572 0 33911.24475128 0 555
0.02450000 0.02439640 75733.32226752 0 6066.75904993 0 21474.02674998 0 5315.92854370 0 40263.44888587 0 592
0.02550000 0.02547300 68671.49585228 0 4798.92605398 0 21350.15477892 0 2032.73679689 0 39678.03579580 0 837
0.02650000 0.02652900 69462.61285073 0 -1793.56947129 0 19372.69950233 0 9023.35368975 0 26521.07892819 0 723
0.02750000 0.02749970 67383.09246549 0 -2982.65046821 0 11796.05128361 0 8489.17548571 0 21572.27003737 0 826
0.02850000 0.02848090 70163.01779777 0 -1180.42569586 0 3533.41987273 0 5536.69492406 0 4399.50077090 0 831
0.02950000 0.02946900 67334.30804132 0 1403.06926489 0 8011.91993697 0 3074.94745137 0 16741.48797922 0 996
0.03050000 0.03053250 64349.24083320 0 3688.16991135 0 3681.76274043 0 2000.40868539 0 11479.40215252 0 1041
0.03150000 0.03150510 61569.09068790 0 1486.77839089 0 2726.29618764 0 3735.18955335 0 15279.07931911 0 1036
0.03250000 0.03246190 62309.73716457 0 -1564.86719151 0 8673.73573006 0 5440.22765948 0 16731.93342609 0 1059
0.03350000 0.03345080 61504.34453969 0 -247.44831300 0 -222.91222058 0 3017.35035702 0 13296.22853017 0 1302
0.03450000 0.03451200 62132.92172857 0 1869.30897591 0 19277.37878413 0 -2988.28203423 0 31077.92632803 0 1339
0.03550000 0.03553350 62250.38652871 0 2250.01857552 0 12000.85593993 0 -1035.87767185 0 23146.29835923 0 1365
0.03650000 0.03647120 60213.69302276 0 2494.13178745 0 25627.89682111 0 -5724.67232623 0 38088.94500196 0 1308
0.03750000 0.03744890 60253.37251984 0 3451.83522973 0 23078.62964183 0 3261.07014617 0 28436.03618672 0 1579
0.03850000 0.03847530 58082.01601813 0 1967.43985679 0 21574.85538704 0 -1618.87851828 0 27728.21241019 0 1662
0.03950000 0.03950240 56942.32644052 0 2230.93195058 0 25968.37613175 0 3739.29239087 0 27259.02764868 0 1683
0.04050000 0.04050350 54283.68772962 0 2096.96587517 0 18180.29127278 0 911.15478354 0 18376.10340852 0 1822
0.04150000 0.04152450 53140.62595679 0 2445.27991937 0 25451.53101114 0 2172.67165784 0 22511.76362546 0 1887
0.04250000 0.04250150 50528.86075944 0 3787.15508168 0 12935.06642218 0 184.55349996 0 8161.67912666 0 1920
0.04350000 0.04349210 48032.64945161 0 2843.58113737 0 20301.96409826 0 998.09672068 0 13143.13086721 0 2005
0.04450000 0.04448520 44805.34622024 0 1033.73070756 0 13176.85281940 0 1624.21782737 0 5085.68629478 0 2151
0.04550000 0.04548030 45422.23313235 0 -781.25445150 0 11702.19185001 0 2136.85894461 0 3341.35087369 0 2274
0.04650000 0.04648670 46430.18228340 0 -963.49912180 0 7882.93346984 0 -682.93360362 0 -4482.97384323 0 2311
0.04750000 0.04749250 45774.85234579 0 -350.34185759 0 8176.97765231 0 283.13063468 0 -6091.19622462 0 2568
0.04850000 0.04851840 45278.01558348 0 1509.50698666 0 6459.94577185 0 -28.05610219 0 -6053.14662189 0 2493
0.04950000 0.04949480 42441.88699754 0 2951.16540552 0 7006.15147217 0 -715.71471334 0 -5766.59995346 0 2644
0.05050000 0.05050630 41120.99813014 0 3389.83180029 0 9160.95049535 0 1399.52845991 0 -5661.73592279 0 2829
0.05150000 0.05149060 37803.43247340 0 1528.27887339 0 10003.27989852 0 1784.41958159 0 -6082.06881622 0 2784
0.05250000 0.05249300 37249.38079887 0 384.76073013 0 9456.86062584 0 2017.10105172 0 -2938.89061492 0 3055
0.05350000 0.05348950 37451.03807298 0 -817.26724831 0 8236.90156135 0 -556.57969688 0 -4366.71179272 0 3009
0.05450000 0.05448610 37405.51343752 0 -485.07454538 0 9302.70634171 0 -921.25675635 0 -4422.53286425 0 3336
0.05550000 0.05550870 37618.86098839 0 354.01530225 0 9500.49683198 0 -2963.75493434 0 -8566.48868144 0 3349
0.05650000 0.05647670 37558.27388095 0 628.82335913 0 12101.12254445 0 -3276.23378401 0 -7390.89646539 0 3324
0.05750000 0.05747970 37087.40302183 0 968.26852990 0 13348.72236908 0 -1017.70153962 0 -7842.29851744 0 3639
0.05850000 0.05849280 36139.14172617 0 1369.16746229 0 14501.56350805 0 -429.69073517 0 -6394.74999761 0 3846
0.05950000 0.05951020 36037.07661753 0 1492.58980731 0 16787.46224071 0 1153.61674387 0 -1068.09112872 0 3787
0.06050000 0.06049470 34965.50538334 0 1372.15747538 0 17647.14720861 0 1968.46275601 0 254.59849093 0 3930
0.06150000 0.06148310 34183.26849897 0 1412.18543264 0 17491.57660250 0 2454.63214078 0 5110.51689224 0 4083
0.06250000 0.06249100 33007.27161950 0 680.78101900 0 16453.39010098 0 2828.10276131 0 3068.76509346 0 4303
0.06350000 0.06350600 32415.00173248 0 785.06952835 0 15101.47703756 0 1584.39220183 0 4718.12825652 0 4470
0.06450000 0.06451750 31313.75518037 0 1259.50367376 0 13074.67530426 0 824.59952478 0 1005.63694919 0 4479
0.06550000 0.06550280 30037.49169637 0 1138.00348001 0 10866.32582100 0 -897.66600266 0 -43.25840787 0 4636
0.06650000 0.06648880 29418.58146712 0 546.88013936 0 11736.58824124 0 -1389.80529703 0 -1752.20387660 0 4653
0.06750000 0.06749660 28585.64924795 0 555.49047782 0 11156.44701637 0 -1284.04201430 0 -4359.97864293 0 5220
0.06850000 0.06852730 29093.27703497 0 41.04782149 0 13725.62138809 0 -1027.46179665 0 -4173.81098553 0 5029
0.06950000 0.06949320 28732.00252047 0 -274.02683165 0 13853.42758690 0 -1715.23337634 0 -4388.08026976 0 5040
0.07050000 0.07048030 29140.37536153 0 68.90485176 0 14952.42600887 0 349.04019024 0 -1122.16989939 0 5475
0.07150000 0.07148790 29301.45388650 0 -162.91075104 0 15129.01663186 0 2340.29224154 0 -365.82922617 0 5509
0.07250000 0.07249820 28951.19520973 0 59.51148957 0 12833.56334608 0 2848.72935541 0 -323.41937503 0 5916
0.07350000 0.07351270 29457.69893166 0 398.74634777 0 12524.55785748 0 2378.09454995 0 580.50542196 0 5721
0.07450000 0.07449140 27771.60132202 0 1100.56874088 0 10582.08348596 0 1798.62776412 0 -134.45167152 0 6028
0.07550000 0.07549160 26908.88137841 0 1404.32821777 0 9719.79068709 0 -200.93337621 0 434.18362327 0 6183
0.07650000 0.07648840 25864.96214503 0 1132.92270588 0 10339.72381555 0 -561.08719782 0 508.24714687 0 6330
0.07750000 0.07749960 24957.61681802 0 838.89875657 0 10679.22518958 0 -1039.28246496 0 261.88018447 0 6583
0.07850000 0.07848650 24738.19931575 0 37.52736209 0 10904.72388390 0 8.55624845 0 -1339.24485004 0 6549
0.07950000 0.07947320 24864.43182346 0 -100.43645075 0 11556.85023605 0 -507.61767043 0 -1647.85691586 0 6828
0.08050000 0.08048110 25626.32313001 0 -268.23115213 0 11027.15705166 0 302.18466173 0 -3306.47113447 0 7147
0.08150000 0.08149960 25133.30818895 0 -291.87473688 0 10549.00225086 0 41.74575350 0 -4068.12638735 0 7386
0.08250000 0.08250610 26327.62732911 0 -355.93520540 0 11962.41291443 0 16.42393960 0 -3528.11428559 0 7227
0.08350000 0.08350160 25232.78794791 0 58.13113766 0 10195.34889756 0 768.72225000 0 -4376.33378975 0 7798
0.08450000 0.08449610 25800.66562284 0 465.71027637 0 10514.33608401 0 1474.78461656 0 -3439.00964724 0 7371
0.08550000 0.08548940 24998.08316065 0 752.52896855 0 9791.97814608 0 1796.37963397 0 -1522.17520004 0 8256
0.08650000 0.08650700 23812.53172805 0 1293.18066335 0 10089.40576442 0 2157.77779562 0 1032.68869924 0 8037
0.08750000 0.08749060 23152.81793665 0 977.60951066 0 9665.97045139 0 2549.41330774 0 2792.32377004 0 8155
0.08850000 0.08849210 21977.38308971 0 639.47162757 0 10235.34313286 0 1897.48928730 0 5434.24763329 0 8718
0.08950000 0.08949900 21853.39871215 0 337.78043040 0 9504.66711340 0 945.01499574 0 5475.16360196 0 8571
0.09050000 0.09049190 21852.27464708 0 192.70072361 0 10230.08250832 0 380.76692693 0 7403.47475356 0 8932
0.09150000 0.09150830 21461.99925370 0 171.93811765 0 9326.41287411 0 283.77472396 0 6321.61832395 0 9285
0.09250000 0.09250820 21750.88397748 0 68.01504185 0 8738.50435957 0 1038.18537745 0 7016.15565132 0 9204
0.09350000 0.09350330 21676.92049567 0 -151.16989136 0 8234.29373038 0 2075.77724854 0 7894.79235636 0 9349
0.09450000 0.09448040 21599.02278611 0 78.01022848 0 6215.68643146 0 3180.23862676 0 6473.68184704 0 9564
0.09550000 0.09549270 21151.98210654 0 69.24735439 0 5396.52400944 0 2364.81934144 0 6942.96777441 0 10155
0.09650000 0.09649430 20504.85784395 0 478.67636699 0 3716.51883249 0 1134.31654657 0 5498.58911808 0 9913
0.09750000 0.09749140 20511.60223439 0 670.64644830 0 3728.82734504 0 -114.95701096 0 6079.49470721 0 10476
0.09850000 0.09850240 19632.58334723 0 584.88140729 0 2910.47424987 0 -1158.73123995 0 4485.58167420 0 10575
0.09950000 0.09950330 19104.27276287 0 412.08337986 0 3875.19185821 0 -1543.08281040 0 3400.38677133 0 10882
0.10050000 0.10051200 19056.38759076 0 444.24175754 0 4162.24435593 0 -1828.78643003 0 2647.51046667 0 10875
0.10150000 0.10150300 18636.88650548 0 390.74862478 0 4505.53382925 0 -833.09071234 0 1800.22393652 0 11118
0.10250000 0.10250800 18307.64784557 0 497.82144331 0 5101.00730172 0 -390.76323762 0 1485.01360872 0 11575
0.10350000 0.10349800 17936.03193240 0 430.04369160 0 4939.80512959 0 625.14991447 0 926.07562332 0 11364
0.10450000 0.10450100 17116.02646157 0 689.83873536 0 5449.07405161 0 586.47757969 0 1944.47520735 0 12093
0.10550000 0.10551000 16805.89690790 0 606.90296614 0 5282.00425979 0 883.74220860 0 1577.50168294 0 12067
0.10650000 0.10649700 16143.71017334 0 304.79698896 0 5061.67626482 0 808.39387862 0 2288.06817825 0 12054
0.10750000 0.10749900 16056.70753668 0 27.04050940 0 4770.56589218 0 273.20626415 0 2806.08232653 0 12807
0.10850000 0.10850100 16250.83357481 0 -41.68415473 0 4900.53029594 0 -11.46535134 0 2607.32514031 0 12736
0.10950000 0.10950300 16104.48030229 0 -47.17993369 0 4264.07341090 0 -319.21986791 0 904.20244106 0 12933
0.11050000 0.11050200 16416.74557960 0 214.73015091 0 4690.38633052 0 -497.92598137 0 1229.41245175 0 13428
0.11150000 0.11150900 16077.16552101 0 205.37680544 0 4508.18662282 0 -103.23402391 0 983.45240091 0 13453
0.11250000 0.11250000 15713.98009590 0 328.25959923 0 4526.17166399 0 -177.64949228 0 -126.61131764 0 13668
0.11350000 0.11349100 15760.29157691 0 361.65557255 0 4966.46795312 0 480.39731062 0 1265.32633084 0 13791
0.11450000 0.11448600 15236.58965935 0 475.27157388 0 4383.97743224 0 121.48782904 0 452.84984787 0 14205
0.11550000 0.11549300 14889.14114526 0 462.91472653 0 4667.69145669 0 502.09176653 0 1655.19706079 0 14776
0.11650000 0.11649800 14787.63806916 0 171.66047357 0 4661.34048903 0 400.86858263 0 1290.37050066 0 14553
0.11750000 0.11747300 14532.25048455 0 -57.41915484 0 4784.38065193 0 714.80984096 0 1317.87637300 0 14568
0.11850000 0.11849100 14541.69263116 0 -14.86553578 0 4135.07570311 0 558.64797661 0 1750.18055947 0 16015
0.11950000 0.11950300 14585.19394949 0 56.67277564 0 3941.50045687 0 -4.82169961 0 1268.56363825 0 15270
0.12050000 0.12050700 14526.63015918 0 186.45204587 0 4040.22709224 0 126.04478884 0 1980.77126856 0 15999
0.12150000 0.12150000 14362.29184549 0 324.65359848 0 4439.53996881 0 77.75427886 0 1542.44209331 0 15670
0.12250000 0.12250700 14046.42955995 0 376.85068421 0 4367.68972934 0 -109.66659869 0 1870.51172554 0 16887
0.12350000 0.12352200 13734.16428265 0 358.73637556 0 4571.76374336 0 117.99873105 0 1538.31677449 0 16407
0.12450000 0.12449800 13483.49777135 0 352.34156936 0 4820.32825297 0 -46.81899639 0 1936.02223800 0 16306
0.12550000 0.12549900 13153.02263985 0 328.06738410 0 4665.69062086 0 -7.70721962 0 1276.45457506 0 17523
0.12650000 0.12650100 12987.33544808 0 151.98596260 0 4886.86166465 0 -37.82737506 0 1704.61096140 0 17154
0.12750000 0.12750600 12803.55080863 0 54.29245544 0 4589.77126583 0 -213.03843298 0 1026.55017988 0 18007
0.12850000 0.12850300 13008.13065193 0 75.48658998 0 4959.90341310 0 64.03236689 0 794.27899350 0 17496
0.12950000 0.12949900 12953.72590239 0 -87.81128907 0 4978.32683965 0 -376.24706127 0 976.31009144 0 18405
0.13050000 0.13049000 12954.40034144 0 -52.71235716 0 4858.52398415 0 143.93990481 0 783.58463839 0 18100
0.13150000 0.13148800 13188.09347014 0 10.58412928 0 5021.36729129 0 341.89001231 0 1337.96341586 0 19059
0.13250000 0.13249300 13160.66628235 0 -25.07227146 0 4728.76191212 0 841.13339794 0 870.56929001 0 18957
0.13350000 0.13349100 13010.37878208 0 20.86287257 0 4416.94626084 0 848.34877164 0 1010.12758916 0 19468
0.13450000 0.13450700 12986.54860253 0 128.19624939 0 3997.42269426 0 796.57995470 0 962.78084422 0 19953
0.13550000 0.13551000 12761.28596188 0 247.01442388 0 3410.82933586 0 424.76845421 0 999.02632250 0 19956
0.13650000 0.13649900 12489.93665323 0 420.39359295 0 3431.16367303 0 18.61069579 0 1007.62654437 0 19723
0.13750000 0.13749600 12002.99166357 0 383.37925416 0 3014.47275043 0 -70.69773555 0 612.56150972 0 20946
0.13850000 0.13851100 11870.57679796 0 318.94784417 0 3376.25309421 0 -57.02573207 0 932.42209472 0 20955
0.13950000 0.13949800 11458.83176168 0 231.08979399 0 3119.34802175 0 16.21531312 0 528.14759492 0 20506
0.14050000 0.14048300 11341.70418106 0 165.21396038 0 3288.38492745 0 193.34481290 0 561.73915557 0 21447
0.14150000 0.14148400 11229.63489327 0 168.87166813 0 3227.14586226 0 -115.62358155 0 152.41198326 0 21771
0.14250000 0.14249400 11154.03027646 0 178.12497181 0 3344.81299412 0 -51.18778771 0 427.42911624 0 22470
0.14350000 0.14350900 11104.57141324 0 127.14412448 0 3573.69512430 0 36.91249850 0 922.48648354 0 22519
0.14450000 0.14449900 10954.64361379 0 64.83798433 0 3110.31053857 0 260.05919905 0 856.40607009 0 22218
0.14550000 0.14550500 10901.54277974 0 78.07047837 0 3132.49958311 0 288.48905288 0 779.39075160 0 23559
0.14650000 0.14650700 11091.09387302 0 32.56585127 0 3105.01619207 0 273.52662269 0 932.48841456 0 23044
0.14750000 0.14750500 10783.49346576 0 123.23912242 0 2999.71377602 0 237.26540750 0 1122.97023372 0 23649
0.14850000 0.14849900 10798.09507106 0 233.54475211 0 3058.18764113 0 -66.21462682 0 1195.56685240 0 23640
0.14950000 0.14949500 10457.59327912 0 174.98770619 0 3091.70726161 0 -188.08531242 0 884.08842064 0 24457
0.15050000 0.15050000 10371.01778719 0 173.52529753 0 2890.72442654 0 100.55605128 0 508.88449176 0 24591
0.15150000 0.15149900 10168.12404149 0 134.30217087 0 2798.79838486 0 -6.97314892 0 611.29693651 0 25020
0.15250000 0.15250500 10117.14769043 0 52.47304371 0 2555.98908842 0 222.13661568 0 239.50679326 0 25297
0.15350000 0.15350100 10117.97949858 0 45.79441108 0 2542.65767665 0 -23.13370883 0 -42.99953568 0 25452
0.15450000 0.15450400 10094.09311578 0 46.41837960 0 2366.08953497 0 141.14435497 0 -51.12517728 0 26061
0.15550000 0.15549900 10007.47266125 0 171.81334642 0 2556.65228681 0 -122.48487476 0 -78.36610748 0 26128
0.15650000 0.15649500 9889.60319768 0 325.08973573 0 2893.73692093 0 -342.60604176 0 161.77994158 0 26331
0.15750000 0.15749700 9569.26713315 0 347.09330953 0 3026.55644997 0 -215.35737922 0 181.12172929 0 27345
0.15850000 0.15849900 9502.18292959 0 248.31271904 0 3654.39175590 0 -53.01956415 0 1123.63905244 0 26980
0.15950000 0.15949700 9425.89263308 0 75.23322572 0 3676.61452239 0 285.73172126 0 1202.92947863 0 27777
0.16050000 0.16050000 9416.10202629 0 -13.57454704 0 3878.59777538 0 389.71336084 0 1530.33591247 0 28224
0.16150000 0.16150500 9478.35275004 0 31.54430093 0 3699.61289379 0 154.70507601 0 999.39501584 0 28075
0.16250000 0.16249700 9347.80383245 0 213.99726049 0 3659.78726825 0 90.72396649 0 1327.17239116 0 28590
0.16350000 0.16349900 9099.56530170 0 273.81887961 0 3726.42184578 0 39.00764339 0 1420.66088329 0 29163
0.16450000 0.16449100 8790.80710743 0 164.76658248 0 3126.56451952 0 383.03079398 0 1148.76078276 0 28996
0.16550000 0.16550500 8654.07583193 0 40.94721767 0 2819.35753505 0 727.46793775 0 1024.25708713 0 30777
0.16650000 0.16650700 8597.88381893 0 -21.84204565 0 2152.20243286 0 944.11012335 0 715.55846830 0 29211
0.16750000 0.16749900 8572.43498567 0 3.31919555 0 1656.37732912 0 776.46705835 0 800.37030213 0 30922
0.16850000 0.16850800 8426.27280422 0 83.20048655 0 1316.17903474 0 249.05347792 0 545.31656485 0 30867
0.16950000 0.16949900 8434.14125973 0 154.82085471 0 1373.12417135 0 -105.68088876 0 853.84769798 0 30852
0.17050000 0.17049200 8342.23769935 0 156.23155638 0 1551.64818626 0 -437.06685018 0 932.16468382 0 31257
0.17150000 0.17149500 8231.20255143 0 97.40507206 0 1849.53667128 0 -441.47655746 0 986.69645271 0 32608
0.17250000 0.17250900 8378.05041258 0 -12.12337903 0 2064.97498319 0 -150.12001458 0 1277.65732469 0 32361
0.17350000 0.17350400 8365.56204962 0 -36.54110740 0 2175.60546768 0 52.03241020 0 811.12423268 0 32508
0.17450000 0.17449800 8490.15342232 0 -79.26670842 0 1838.82433113 0 311.27160378 0 1131.93352861 0 32791
0.17550000 0.17549800 8515.84954989 0 -19.58031432 0 1792.65897858 0 279.88208662 0 720.45939202 0 33633
0.17650000 0.17650100 8497.75210222 0 -19.07729520 0 1609.21155865 0 125.88741973 0 852.42463160 0 33984
0.17750000 0.17750300 8461.33239385 0 72.34201794 0 1629.70326493 0 8.32999663 0 418.78505583 0 34069
