### header ###
fiducial parameters:
Omega_m = 0.31
Omega_nu = 0
Omega_de = 0.69
Omega_k = 0
H_0 = 100
w_de = -1
zeff = 0
beta = 0
fgrowth = 0
b_1 = 2
gamma = 0.55
Lx = 3500 Ly = 3500 Lz = 3500
nx = 700 ny = 700 nz = 700
xoffset = 857.220397 yoffset = 15.9954215 zoffset = 262.898189
bins = 400 dk = 0.001
kx_ny = 0.628318531 ky_ny = 0.628318531 kz_ny = 0.628318531
############################
A(data) = 3.09455185 (not used)
A(ran) = 3.09207826 (used)
Ngal = 188681
weighted Ngal = 0
Nran = 9360983
weighted Nran = 0
SN(data) = 3455.34516
SN(ran) = 69.4364571
SN(data+ran) = 3524.78161
############################
13 columns: k_central k_mean P_0(k) sigma^{lin}_{P_0(k)} P^img_1(k) sigma^{lin}_{P_1(k)} P_2(k) sigma^{lin}_{P_2(k)} P^img_3(k) sigma^{lin}_{P_3(k)} P_4(k) sigma^{lin}_{P_4(k)} N_modes
### header ###
0.00050000 0 0 0 0 0 0 0 0 0 0 0 0
0.00150000 0.00179520 9204.68786734 0 -14360.49334138 0 2763.78375783 0 10520.16998174 0 4098.71219799 0 3
0.00250000 0.00253879 19843.90758097 0 -18425.67467824 0 -5683.59898846 0 -4625.87623598 0 -2356.79351681 0 6
0.00350000 0.00331552 30240.16062905 0 -15824.92531861 0 -4312.36324644 0 -1254.55778744 0 -7657.25492511 0 7
0.00450000 0.00420575 42768.87752730 0 -13861.18363591 0 -11390.82582476 0 -838.24904696 0 2590.83510568 0 24
0.00550000 0.00557378 47458.47701227 0 -3235.02555843 0 -12021.53873727 0 -6934.48108311 0 7175.51435673 0 45
0.00650000 0.00659388 53805.51044753 0 -796.09435859 0 -30701.70174806 0 -3199.24656715 0 -13165.27494915 0 40
0.00750000 0.00754703 43094.63158549 0 -474.00138035 0 -25703.09677450 0 -806.40877970 0 -2312.86505376 0 57
0.00850000 0.00846663 47704.53485678 0 -1263.37045761 0 -35161.42992558 0 -15319.20844222 0 -10380.32504599 0 75
0.00950000 0.00948925 45807.00060688 0 -1383.22951635 0 -31354.10911649 0 -24075.33814214 0 -13138.63460692 0 112
0.01050000 0.01054430 44400.79520043 0 2231.32537336 0 -27163.81933699 0 -27094.46452198 0 -24539.68942384 0 105
0.01150000 0.01145670 44928.09412622 0 5545.08044950 0 -12999.58775738 0 -37243.87288001 0 -23877.72750229 0 144
0.01250000 0.01249090 41681.79419511 0 5304.37315475 0 233.98313749 0 -26932.03711892 0 -23336.71498261 0 169
0.01350000 0.01339930 41531.39428833 0 3152.69903247 0 19310.65111029 0 -25027.64607207 0 -19432.61217072 0 180
0.01450000 0.01448870 40907.08854673 0 -250.62492089 0 22650.13603596 0 -5387.02565957 0 -16366.38746432 0 267
0.01550000 0.01550050 46390.05316029 0 -2056.28596017 0 45069.95113845 0 -5411.00196758 0 -32228.29452384 0 238
0.01650000 0.01653350 52858.03599741 0 -4029.18877322 0 40130.47198773 0 -4176.77851732 0 -17072.30033023 0 315
0.01750000 0.01747870 62191.26070586 0 -3451.90267363 0 58900.67261087 0 -5297.96598383 0 -25429.16211618 0 297
0.01850000 0.01844180 64186.36380411 0 -474.38805873 0 56805.75253414 0 -6813.81269751 0 -11474.90589222 0 388
0.01950000 0.01947590 67420.18661290 0 -4027.18793739 0 58028.39811415 0 9043.13723503 0 -24140.08429035 0 399
0.02050000 0.02045430 70911.53272995 0 -4905.24012859 0 47814.35601442 0 20014.42825256 0 -16227.79024081 0 462
0.02150000 0.02154770 71657.68712547 0 -3716.58627639 0 33055.83123065 0 27240.25576196 0 -23867.16129061 0 571
0.02250000 0.02255340 69968.44213362 0 -563.56913350 0 24643.21581707 0 20338.15899361 0 -27767.44228125 0 510
0.02350000 0.02348930 67123.77065313 0 5158.90789364 0 6802.22358661 0 9847.32711028 0 -29814.81440539 0 555
0.02450000 0.02439640 59559.71196323 0 5830.57049677 0 5725.62778154 0 -5390.15056048 0 -21474.36396950 0 592
0.02550000 0.02547300 53372.40817486 0 6450.78464150 0 1096.50412157 0 -14099.93505743 0 -14800.90203702 0 837
0.02650000 0.02652900 53170.30127472 0 2966.48641246 0 15065.16973570 0 -7649.31902569 0 -9921.70649617 0 723
0.02750000 0.02749970 52091.08639804 0 2114.41136510 0 15678.79685911 0 -8109.10660319 0 -5027.08878252 0 826
0.02850000 0.02848090 52768.33560458 0 -208.16785902 0 26557.83585608 0 5777.48090337 0 1330.00503514 0 831
0.02950000 0.02946900 54368.44223614 0 -1584.24607338 0 25270.33172136 0 11697.47077670 0 7165.84739710 0 996
0.03050000 0.03053250 58407.88248282 0 -1517.22931372 0 27748.44558151 0 10757.32523086 0 10233.35353769 0 1041
0.03150000 0.03150510 57442.64780455 0 -193.70788592 0 20850.84507345 0 11700.84297192 0 6770.87341172 0 1036
0.03250000 0.03246190 53348.35318230 0 2058.43292446 0 23304.34190851 0 1305.38801004 0 11707.36254934 0 1059
0.03350000 0.03345080 55794.43118787 0 2379.27481828 0 19633.70741230 0 2539.07190907 0 14488.74916622 0 1302
0.03450000 0.03451200 50805.60558044 0 2039.89709141 0 16738.90262955 0 -2164.66831452 0 11970.73099597 0 1339
0.03550000 0.03553350 51042.44609134 0 2049.35047867 0 14373.19527670 0 -6071.92974926 0 7225.44532728 0 1365
0.03650000 0.03647120 46601.26498753 0 2201.75122128 0 19342.01252583 0 -5229.74647455 0 -153.64620671 0 1308
0.03750000 0.03744890 47937.21632691 0 2536.57648461 0 23037.93848618 0 -5469.85801481 0 1142.80323787 0 1579
0.03850000 0.03847530 45326.80000765 0 2376.28480518 0 24570.03918082 0 -7642.82192957 0 3723.03840991 0 1662
0.03950000 0.03950240 43936.78113825 0 2010.72760276 0 28091.06061579 0 157.01840193 0 3437.13245857 0 1683
0.04050000 0.04050350 44451.71534824 0 690.55364075 0 29235.92089274 0 3217.08547986 0 2176.12253762 0 1822
0.04150000 0.04152450 42339.37226287 0 431.97483540 0 24580.83020552 0 5614.79496534 0 -654.72294248 0 1887
0.04250000 0.04250150 43889.79521820 0 646.55211346 0 28204.36637516 0 5320.12130642 0 4060.97733349 0 1920
0.04350000 0.04349210 42271.36632595 0 -481.82936952 0 22687.00537036 0 5511.89804854 0 2617.49792922 0 2005
0.04450000 0.04448520 43320.56866518 0 -457.94523485 0 23756.55328741 0 3964.65619738 0 2998.19628818 0 2151
0.04550000 0.04548030 43258.63267965 0 25.01100991 0 20768.78832312 0 2280.21096338 0 3207.69953650 0 2274
0.04650000 0.04648670 41713.04320414 0 1069.66144763 0 19250.85084840 0 4264.44435237 0 405.15913901 0 2311
0.04750000 0.04749250 41326.36481900 0 991.94920880 0 18562.02377161 0 3073.80090499 0 2326.00537446 0 2568
0.04850000 0.04851840 41076.48515325 0 60.50774845 0 15794.68796814 0 3142.67237202 0 675.76544065 0 2493
0.04950000 0.04949480 39290.45815860 0 393.18784598 0 14825.29424910 0 3441.13413023 0 2195.24288451 0 2644
0.05050000 0.05050630 39095.20805540 0 478.18177836 0 13951.89568731 0 1585.39261975 0 1529.89752709 0 2829
0.05150000 0.05149060 39253.47641769 0 1701.41861660 0 12950.57852019 0 -79.65192552 0 216.98839765 0 2784
0.05250000 0.05249300 35880.49435285 0 2400.69949857 0 11328.55261971 0 291.24413637 0 -1760.30838577 0 3055
0.05350000 0.05348950 34062.31909711 0 2347.35137020 0 11385.09309288 0 -935.41885221 0 -1789.60152158 0 3009
0.05450000 0.05448610 31716.50769606 0 1979.16385551 0 9331.56109214 0 -1001.33964842 0 -4112.96534312 0 3336
0.05550000 0.05550870 31126.37353268 0 816.35001121 0 10165.30263816 0 962.92584861 0 -4737.20364082 0 3349
0.05650000 0.05647670 30597.27610277 0 180.17976276 0 8653.95218478 0 337.29258616 0 -6507.75225941 0 3324
0.05750000 0.05747970 31601.29102606 0 -915.31944463 0 10449.65737970 0 -751.38129811 0 -4007.26950430 0 3639
0.05850000 0.05849280 32496.49645028 0 -585.29056698 0 10693.34344690 0 -759.80391771 0 -5363.58890280 0 3846
0.05950000 0.05951020 34182.14443390 0 -347.98581720 0 15111.03159069 0 -189.38248352 0 -233.68750837 0 3787
0.06050000 0.06049470 34873.33204735 0 533.39810288 0 17396.70551033 0 -1125.12169427 0 588.88757521 0 3930
0.06150000 0.06148310 35065.88439437 0 922.78211265 0 19835.58949943 0 -659.34172586 0 3749.70123345 0 4083
0.06250000 0.06249100 34415.61274958 0 1749.24758546 0 21048.56811981 0 781.95699217 0 4892.98781930 0 4303
0.06350000 0.06350600 32853.49951750 0 1325.82351307 0 22112.83293102 0 951.65147593 0 4408.59445735 0 4470
0.06450000 0.06451750 31952.56136141 0 1133.00139043 0 21242.13212540 0 1277.30886451 0 5066.86944545 0 4479
0.06550000 0.06550280 30828.83350783 0 59.22721351 0 21738.63166819 0 3084.06361911 0 4747.60124274 0 4636
0.06650000 0.06648880 30896.61463174 0 366.16532163 0 19266.13813340 0 847.63274219 0 1843.25314752 0 4653
0.06750000 0.06749660 31245.29961741 0 -65.07763500 0 20118.62908484 0 1602.72570318 0 3321.73593817 0 5220
0.06850000 0.06852730 30686.41446307 0 441.22139469 0 19233.09062025 0 1046.61136924 0 3050.61144253 0 5029
0.06950000 0.06949320 30668.87904793 0 -123.60444357 0 18271.34054370 0 3043.61975778 0 4013.24953049 0 5040
0.07050000 0.07048030 30665.73166572 0 -235.81985982 0 17212.80846437 0 2076.41796563 0 5393.92741912 0 5475
0.07150000 0.07148790 30882.90103785 0 -66.54296623 0 17001.93385665 0 2816.08650568 0 3273.32245547 0 5509
0.07250000 0.07249820 30298.49960634 0 837.60046142 0 15191.85186944 0 1880.11124127 0 4628.72012061 0 5916
0.07350000 0.07351270 29775.02250180 0 882.33600319 0 14410.51423713 0 838.35470908 0 2531.56315438 0 5721
0.07450000 0.07449140 28628.02650121 0 663.37599541 0 12066.95096623 0 1026.12078702 0 1196.40990120 0 6028
0.07550000 0.07549160 28002.48428803 0 227.94915617 0 12072.12166556 0 503.55754738 0 154.93663342 0 6183
0.07650000 0.07648840 27801.38904645 0 159.52281891 0 11817.40852000 0 919.87640444 0 -494.75611786 0 6330
0.07750000 0.07749960 27592.65016238 0 612.17483133 0 10669.87296817 0 776.10960566 0 -330.96522386 0 6583
0.07850000 0.07848650 26833.23179899 0 860.28859085 0 10231.73488398 0 1256.40125416 0 474.50046524 0 6549
0.07950000 0.07947320 26118.32641250 0 900.91342666 0 9977.02173842 0 883.12060062 0 3312.58604847 0 6828
0.08050000 0.08048110 25065.97669107 0 746.94798546 0 9500.85653280 0 1223.85957029 0 1792.37796231 0 7147
0.08150000 0.08149960 25245.48988324 0 445.16686309 0 9491.85277156 0 805.18467284 0 3471.19163029 0 7386
0.08250000 0.08250610 24429.98067271 0 493.39262693 0 9824.78960557 0 115.09751909 0 3156.91427650 0 7227
0.08350000 0.08350160 23852.21122513 0 595.43188207 0 9017.14885054 0 -66.93133071 0 2279.68265280 0 7798
0.08450000 0.08449610 23721.37005063 0 271.97428883 0 9525.67588961 0 958.05864684 0 5156.60356024 0 7371
0.08550000 0.08548940 23147.31001779 0 220.30888587 0 7660.08756909 0 1409.13921629 0 947.72062037 0 8256
0.08650000 0.08650700 22800.19872322 0 593.82222088 0 7927.90731341 0 1245.09315952 0 3285.11389808 0 8037
0.08750000 0.08749060 22164.53992438 0 798.03899117 0 7094.71655928 0 98.98708125 0 501.02053251 0 8155
0.08850000 0.08849210 21569.12265516 0 1067.67185245 0 7691.02183991 0 -275.52071413 0 3215.20829119 0 8718
0.08950000 0.08949900 20607.48498513 0 926.44319260 0 7616.55252881 0 -97.47532613 0 1925.01764094 0 8571
0.09050000 0.09049190 19888.98259040 0 337.65678324 0 7260.12273478 0 702.89475118 0 2123.30271983 0 8932
0.09150000 0.09150830 19698.34115400 0 231.85865450 0 7246.58899130 0 1350.92388615 0 1764.26509483 0 9285
0.09250000 0.09250820 19244.89330352 0 353.04523409 0 6158.65136965 0 1558.47126125 0 1015.53546623 0 9204
0.09350000 0.09350330 18522.34427453 0 832.72201900 0 5683.94744863 0 699.79457971 0 1345.51713315 0 9349
0.09450000 0.09448040 17919.62058233 0 591.73820424 0 5088.60886397 0 97.56592578 0 44.50893026 0 9564
0.09550000 0.09549270 17447.28843862 0 612.73798793 0 5573.32820479 0 -441.69687421 0 1166.54349221 0 10155
0.09650000 0.09649430 17181.33464232 0 20.95808088 0 5746.60283581 0 -258.84408471 0 -414.42817961 0 9913
0.09750000 0.09749140 17410.98113675 0 -218.56546094 0 5959.60192651 0 -193.29760217 0 884.30648927 0 10476
0.09850000 0.09850240 17632.53436266 0 -71.03686599 0 5498.65656198 0 -546.93409449 0 -731.39991737 0 10575
0.09950000 0.09950330 17834.30404328 0 78.72580831 0 6655.89279539 0 226.12255043 0 505.60671801 0 10882
0.10050000 0.10051200 17826.21077476 0 120.81226593 0 5972.65232201 0 346.35817097 0 117.38723965 0 10875
0.10150000 0.10150300 18156.57349974 0 -8.40642182 0 5646.81957927 0 1058.36346958 0 78.18636948 0 11118
0.10250000 0.10250800 17730.66524354 0 161.95192354 0 5597.11342174 0 361.40265791 0 210.39013567 0 11575
0.10350000 0.10349800 17858.24662934 0 272.71279958 0 5937.84002669 0 527.05949993 0 205.47572317 0 11364
0.10450000 0.10450100 17068.47850898 0 505.84164761 0 5263.87309017 0 -164.13036165 0 1079.68136369 0 12093
0.10550000 0.10551000 16889.75216236 0 645.14928025 0 6526.27685181 0 -670.09790455 0 840.22627743 0 12067
0.10650000 0.10649700 16177.09490601 0 452.35188704 0 5929.70179556 0 -88.06409131 0 929.91205741 0 12054
0.10750000 0.10749900 16123.47700203 0 280.18333606 0 7138.43144997 0 99.67489667 0 1625.58918676 0 12807
0.10850000 0.10850100 15990.61251039 0 85.08790421 0 6242.97873144 0 858.96556626 0 2030.08400332 0 12736
0.10950000 0.10950300 15979.70907918 0 -91.22822208 0 6421.61515285 0 940.23996730 0 2187.56552006 0 12933
0.11050000 0.11050200 16053.67256099 0 52.44359320 0 6167.63264959 0 877.68349786 0 2002.36455862 0 13428
0.11150000 0.11150900 15910.57907718 0 219.70526293 0 5981.22893852 0 623.39524889 0 2663.66328177 0 13453
0.11250000 0.11250000 15494.78740664 0 323.90609520 0 6221.71142025 0 101.81118234 0 2291.71014908 0 13668
0.11350000 0.11349100 15236.58965935 0 300.39290200 0 5542.39393398 0 -79.28323217 0 2339.12321387 0 13791
0.11450000 0.11448600 14972.77158669 0 256.79603814 0 5337.20709553 0 422.96208164 0 1607.78399601 0 14205
0.11550000 0.11549300 14562.93746104 0 208.56915025 0 4581.93653227 0 603.43972165 0 1060.33732784 0 14776
0.11650000 0.11649800 14547.08814351 0 177.55282269 0 3956.09082152 0 990.07764045 0 1420.05388815 0 14553
0.11750000 0.11747300 14302.49158361 0 198.44806833 0 3620.83841347 0 433.54290617 0 248.18569968 0 14568
0.11850000 0.11849100 13995.95903817 0 317.08751647 0 3276.51480028 0 243.33423483 0 700.27905176 0 16015
0.11950000 0.11950300 13758.55649473 0 86.41801041 0 3353.02990980 0 -257.09391539 0 623.40536548 0 15270
0.12050000 0.12050700 13854.43924547 0 62.12156867 0 3569.71593394 0 -223.21684222 0 1295.00164877 0 15999
0.12150000 0.12150000 14030.46783592 0 -187.02981532 0 3746.90231141 0 -147.46160068 0 485.76809354 0 15670
0.12250000 0.12250700 14417.93306661 0 -204.95190884 0 4297.03099884 0 -346.16033552 0 833.38072113 0 16887
0.12350000 0.12352200 14604.30305573 0 -60.25269808 0 4591.38991953 0 -575.40441466 0 505.73710956 0 16407
0.12450000 0.12449800 14537.64599690 0 79.52884039 0 4487.93097020 0 -252.72355038 0 625.99858360 0 16306
0.12550000 0.12549900 14509.31955706 0 227.91880642 0 5078.00893033 0 -386.34341375 0 521.34924936 0 17523
0.12650000 0.12650100 14441.76324616 0 371.94076797 0 4825.11677018 0 143.74431748 0 -328.37875013 0 17154
0.12750000 0.12750600 14014.84333140 0 387.52480615 0 5400.48071850 0 -135.59034944 0 -73.30028342 0 18007
0.12850000 0.12850300 13735.51316073 0 371.28094177 0 5145.18305910 0 102.35095839 0 -318.13402105 0 17496
0.12950000 0.12949900 13332.76064504 0 291.69151427 0 5347.88571373 0 -12.22319601 0 -164.50017906 0 18405
0.13050000 0.13049000 13017.46039204 0 245.45309749 0 4958.82431063 0 556.64826485 0 -641.13974013 0 18100
0.13150000 0.13148800 12891.22788433 0 152.65478132 0 4929.12651140 0 740.46325406 0 121.13712073 0 19059
0.13250000 0.13249300 12595.03673757 0 157.57031788 0 4478.93844962 0 649.72085290 0 -283.01260784 0 18957
0.13350000 0.13349100 12573.67950118 0 146.19365528 0 4457.09786525 0 611.78253262 0 355.43162424 0 19468
0.13450000 0.13450700 12450.70678218 0 210.83076918 0 4419.80138612 0 380.58482838 0 1122.66898428 0 19953
0.13550000 0.13551000 12325.59833955 0 151.95673691 0 4500.35188926 0 519.06739726 0 2051.84590313 0 19956
0.13650000 0.13649900 12210.71888908 0 124.52842506 0 4250.67455523 0 308.56373102 0 2757.21921780 0 19723
0.13750000 0.13749600 12362.80489347 0 -35.00462285 0 4502.07170882 0 768.54914397 0 2852.41628885 0 20946
0.13850000 0.13851100 12275.46503729 0 66.14122537 0 4261.63418969 0 448.24680139 0 3264.88072677 0 20955
0.13950000 0.13949800 12236.01035322 0 119.47462849 0 3774.90277239 0 438.53038290 0 2702.01638206 0 20506
0.14050000 0.14048300 11989.16566317 0 149.66252009 0 3565.95031595 0 84.22406020 0 2752.86908597 0 21447
0.14150000 0.14148400 11873.27455413 0 147.92696362 0 2771.64097269 0 7.18479913 0 1287.15567456 0 21771
0.14250000 0.14249400 11576.74618785 0 270.68161399 0 2801.31629062 0 -340.97052708 0 1172.36614929 0 22470
0.14350000 0.14350900 11289.21034215 0 256.79491408 0 2351.55537357 0 -85.83540749 0 -85.81034083 0 22519
0.14450000 0.14449900 11034.90186001 0 155.50091408 0 2219.37656163 0 -15.21500761 0 -333.08183840 0 22218
0.14550000 0.14550500 10960.09532940 0 185.05258485 0 2185.96934766 0 197.88378766 0 -312.60699309 0 23559
0.14650000 0.14650700 10923.99035925 0 70.82160752 0 2321.07072879 0 385.66447845 0 -689.46779389 0 23044
0.14750000 0.14750500 10709.19276443 0 214.86054246 0 2431.03801489 0 321.45900554 0 325.70684745 0 23649
0.14850000 0.14849900 10823.99353035 0 150.37405328 0 2636.16865008 0 -12.13349562 0 577.83127115 0 23640
0.14950000 0.14949500 10660.28469310 0 122.75577444 0 2935.27112538 0 123.87871545 0 1213.87787244 0 24457
0.15050000 0.15050000 10699.14362268 0 -8.37762327 0 3210.03759185 0 54.84279770 0 1460.41906492 0 24591
0.15150000 0.15149900 10684.12611330 0 14.76414511 0 3180.87934386 0 -200.96822222 0 1131.02303590 0 25020
0.15250000 0.15250500 10751.07542905 0 140.34851690 0 3456.50009978 0 -289.23992835 0 1229.92952168 0 25297
0.15350000 0.15350100 10464.66364843 0 280.75436111 0 3426.80230055 0 -445.93684767 0 529.16262568 0 25452
0.15450000 0.15450400 10415.39587627 0 294.14197613 0 3375.99455924 0 -384.27738215 0 685.63023573 0 26061
0.15550000 0.15549900 10170.70939116 0 112.20260191 0 3272.82786684 0 -112.35457550 0 214.59076685 0 26128
0.15650000 0.15649500 10089.67554004 0 146.62304814 0 3341.80049972 0 137.54622267 0 487.74307587 0 26331
0.15750000 0.15749700 10010.15917677 0 142.38532281 0 3319.93743405 0 323.55313877 0 85.09745877 0 27345
0.15850000 0.15849900 9844.58439150 0 212.67648403 0 3308.08978818 0 319.38847768 0 291.34755036 0 26980
0.15950000 0.15949700 9605.74304477 0 200.99070353 0 3018.95777008 0 494.14799865 0 715.91929319 0 27777
0.16050000 0.16050000 9406.03040323 0 173.16784484 0 2957.25783821 0 194.63186741 0 704.27173090 0 28224
0.16150000 0.16150500 9444.34978158 0 -22.39834546 0 2594.40963262 0 595.01710205 0 860.43359524 0 28075
0.16250000 0.16249700 9333.69681578 0 -20.19326701 0 2504.25961375 0 374.59468561 0 771.41888211 0 28590
0.16350000 0.16349900 9398.34179813 0 66.52621766 0 2178.05592954 0 161.65966662 0 976.56300608 0 29163
0.16450000 0.16449100 9274.36866122 0 96.01449116 0 2289.96784822 0 65.25849707 0 800.87163515 0 28996
0.16550000 0.16550500 9185.29774483 0 199.83066837 0 2380.60121506 0 -159.22943793 0 1139.67833696 0 30777
0.16650000 0.16650700 9131.81472865 0 167.66667037 0 2704.87150735 0 -182.76286430 0 1006.20572612 0 29211
0.16750000 0.16749900 9015.04684886 0 97.71486440 0 2903.87598789 0 -121.46085147 0 1522.84963908 0 30922
0.16850000 0.16850800 9000.04058013 0 92.25100889 0 3144.36971028 0 -10.08949569 0 1568.23938673 0 30867
0.16950000 0.16949900 9110.69354593 0 107.16296856 0 3140.23315081 0 172.79128304 0 1975.21838710 0 30852
0.17050000 0.17049200 8988.01308385 0 75.07844196 0 2975.38900784 0 219.80755285 0 1742.41326981 0 31257
0.17150000 0.17149500 8860.11695983 0 110.65240376 0 2935.91184248 0 335.24116740 0 1650.49846878 0 32608
0.17250000 0.17250900 8768.04478970 0 104.53310591 0 2727.74623159 0 187.58285533 0 1732.40909066 0 32361
0.17350000 0.17350400 8510.29666843 0 132.77119424 0 2540.10604894 0 51.29322501 0 957.22009430 0 32508
0.17450000 0.17449800 8585.73267549 0 116.07545571 0 2450.38317480 0 -285.65978109 0 847.79235943 0 32791
0.17550000 0.17549800 8341.91172048 0 44.33503739 0 2471.94274290 0 -317.48093925 0 162.65558827 0 33633
0.17650000 0.17650100 8448.28199835 0 49.99931370 0 2758.35452353 0 -404.74997933 0 139.93598502 0 33984
0.17750000 0.17750300 8361.16695519 0 88.88184865 0 2620.93756834 0 -151.99607918 0 -36.55144879 0 34069
