### header ###
fiducial parameters:
Omega_m = 0.31
Omega_nu = 0
Omega_de = 0.69
Omega_k = 0
H_0 = 100
w_de = -1
zeff = 0
beta = 0
fgrowth = 0
b_1 = 2
gamma = 0.55
Lx = 3500 Ly = 3500 Lz = 3500
nx = 700 ny = 700 nz = 700
xoffset = 857.220397 yoffset = 15.9954215 zoffset = 262.898189
bins = 400 dk = 0.001
kx_ny = 0.628318531 ky_ny = 0.628318531 kz_ny = 0.628318531
############################
A(data) = 3.07407684 (not used)
A(ran) = 3.0735406 (used)
Ngal = 188088
weighted Ngal = 0
Nran = 9360983
weighted Nran = 0
SN(data) = 3441.97949
SN(ran) = 69.0201709
SN(data+ran) = 3510.99966
############################
13 columns: k_central k_mean P_0(k) sigma^{lin}_{P_0(k)} P^img_1(k) sigma^{lin}_{P_1(k)} P_2(k) sigma^{lin}_{P_2(k)} P^img_3(k) sigma^{lin}_{P_3(k)} P_4(k) sigma^{lin}_{P_4(k)} N_modes
### header ###
0.00050000 0 0 0 0 0 0 0 0 0 0 0 0
0.00150000 0.00179520 37060.08824056 0 -54551.44003004 0 -51986.09872021 0 109579.14643155 0 -23291.63997318 0 3
0.00250000 0.00253879 69267.81237356 0 -62003.65424516 0 -22751.63911206 0 -53905.55223903 0 27630.08152931 0 6
0.00350000 0.00331552 94130.22087989 0 -42826.99169158 0 -49160.31153295 0 -43846.51871288 0 -21415.68777268 0 7
0.00450000 0.00420575 115828.16139243 0 -18889.35152089 0 -47238.38507096 0 -55946.74200527 0 19231.62933565 0 24
0.00550000 0.00557378 101639.87482025 0 24113.78116764 0 -32085.20104003 0 -73261.84039129 0 25248.63726544 0 45
0.00650000 0.00659388 90593.91215992 0 32645.54747897 0 12770.72810849 0 -49156.60211820 0 12952.03980478 0 40
0.00750000 0.00754703 55175.63336513 0 25529.31631420 0 38949.64162844 0 -29027.63163470 0 15986.11625009 0 57
0.00850000 0.00846663 52130.20386258 0 10653.36045225 0 59855.56589047 0 -4451.38761468 0 20830.38708912 0 75
0.00950000 0.00948925 53962.54233824 0 -12580.19907860 0 66027.13276781 0 37592.89508520 0 14460.75994590 0 112
0.01050000 0.01054430 76178.33962996 0 -23665.61642300 0 68398.34803952 0 54130.14044064 0 7105.23780836 0 105
0.01150000 0.01145670 91394.92093101 0 -20966.28655646 0 44429.79607932 0 56566.10186055 0 8891.03998999 0 144
0.01250000 0.01249090 107661.37901033 0 -9971.16535939 0 23403.48444795 0 34089.85869140 0 583.57524368 0 169
0.01350000 0.01339930 107449.60515056 0 -833.06935511 0 23510.49544291 0 17643.43779387 0 1460.96985681 0 180
0.01450000 0.01448870 101844.90428958 0 16229.36393191 0 -4458.01959861 0 -10874.21675781 0 9253.32616305 0 267
0.01550000 0.01550050 91521.82787776 0 10838.14550962 0 -743.51284260 0 -10810.70708118 0 6018.13199487 0 238
0.01650000 0.01653350 71661.84616624 0 17178.74929265 0 377.74768814 0 -24241.92458598 0 3102.97039364 0 315
0.01750000 0.01747870 64955.67394013 0 9018.10430586 0 8781.30875756 0 -17873.19669481 0 -1827.26894218 0 297
0.01850000 0.01844180 58982.61695470 0 -1471.47986524 0 10862.45903715 0 -3550.96652852 0 -17971.77720172 0 388
0.01950000 0.01947590 66532.84964420 0 -913.37256393 0 23339.30033228 0 -9097.18228375 0 -21479.75948185 0 399
0.02050000 0.02045430 65255.01246910 0 -3326.37832692 0 16762.73280910 0 902.08695059 0 -28638.14308687 0 462
0.02150000 0.02154770 76068.96809834 0 -1213.68678138 0 31800.02573099 0 -2846.80720413 0 -12947.65595100 0 571
0.02250000 0.02255340 66914.80695604 0 457.36296914 0 16217.33643563 0 -6456.50613272 0 -19764.32377379 0 510
0.02350000 0.02348930 83215.77383311 0 3446.67577104 0 43096.20527659 0 -12608.75033146 0 6977.58897866 0 555
0.02450000 0.02439640 73066.36547508 0 1023.30612808 0 34403.92247282 0 -1845.47879636 0 -25856.98128301 0 592
0.02550000 0.02547300 77513.27931077 0 1937.11258112 0 50520.31786489 0 152.98525645 0 13316.23688847 0 837
0.02650000 0.02652900 76016.36185292 0 -762.44884282 0 46711.76058421 0 3202.85481603 0 -8109.11784384 0 723
0.02750000 0.02749970 77241.48037609 0 -2257.83082778 0 56538.78707928 0 11104.23419372 0 -8199.81865459 0 826
0.02850000 0.02848090 78120.49926326 0 1506.46077032 0 50373.51496634 0 10923.72058363 0 -16522.40769647 0 831
0.02950000 0.02946900 70952.33629210 0 4968.44630765 0 40131.48364629 0 9147.10201365 0 -14017.20386805 0 996
0.03050000 0.03053250 66294.32303569 0 5397.62559321 0 34760.58832052 0 8454.25078389 0 -9431.47923649 0 1041
0.03150000 0.03150510 61592.58364793 0 5414.72262298 0 27092.55361136 0 11208.10904712 0 -13995.95903817 0 1036
0.03250000 0.03246190 55546.01280671 0 1668.01140262 0 19546.70477564 0 13175.39153481 0 -3946.12036432 0 1059
0.03350000 0.03345080 55522.29503367 0 48.29579309 0 10617.99736505 0 10880.24174660 0 -6548.01627032 0 1302
0.03450000 0.03451200 53626.10966186 0 -193.18519566 0 6904.96313429 0 5543.01216977 0 -1772.45952921 0 1339
0.03550000 0.03553350 53095.66335387 0 2157.73283302 0 5744.28726176 0 1934.33614039 0 299.18115986 0 1365
0.03650000 0.03647120 50477.71579862 0 3775.94815290 0 7105.31649292 0 -2462.81533451 0 5134.07729617 0 1308
0.03750000 0.03744890 49238.32164902 0 3931.86721919 0 7484.36247622 0 -1217.20510506 0 11123.00608044 0 1579
0.03850000 0.03847530 47493.32302954 0 2653.70406522 0 10193.21317393 0 -391.22972463 0 10273.08923802 0 1662
0.03950000 0.03950240 45564.53977061 0 1820.02996311 0 10786.12377803 0 -2104.41842660 0 7986.61723218 0 1683
0.04050000 0.04050350 44664.95049261 0 1859.15866830 0 14933.87893517 0 -635.49018908 0 6967.41618975 0 1822
0.04150000 0.04152450 42859.13995267 0 1670.70915880 0 14231.45067099 0 -968.56865528 0 11440.84672051 0 1887
0.04250000 0.04250150 41870.97434691 0 1196.73588007 0 14905.55249532 0 -651.28442742 0 4163.91921288 0 1920
0.04350000 0.04349210 41984.39251279 0 114.17128947 0 15949.35932220 0 2525.75173795 0 4146.79970182 0 2005
0.04450000 0.04448520 41493.17607584 0 491.74474753 0 14108.36554548 0 1368.65039235 0 -1538.59779076 0 2151
0.04550000 0.04548030 40870.55643185 0 696.23466563 0 15546.83161953 0 2817.77260329 0 685.89888728 0 2274
0.04650000 0.04648670 39789.09342503 0 1242.28299684 0 13040.27891302 0 -534.03432371 0 -2428.31777742 0 2311
0.04750000 0.04749250 39164.11324438 0 970.87748494 0 13393.68497201 0 1113.73154288 0 -5128.25463910 0 2568
0.04850000 0.04851840 37752.39991908 0 1166.37488245 0 10828.46730934 0 448.20521099 0 -3796.29373073 0 2493
0.04950000 0.04949480 36883.27280456 0 762.50167388 0 11564.26906554 0 1015.21398362 0 -4885.65891502 0 2644
0.05050000 0.05050630 36089.45804993 0 531.62545226 0 9313.00277778 0 1141.25202807 0 -5439.32840743 0 2829
0.05150000 0.05149060 36246.48994065 0 -58.10899358 0 8522.62766229 0 1202.85079407 0 -3447.95720522 0 2784
0.05250000 0.05249300 36467.93076005 0 72.53423307 0 10036.88944421 0 1546.10654544 0 -2182.90065001 0 3055
0.05350000 0.05348950 36583.03502353 0 163.50088521 0 9804.97233833 0 1403.66501938 0 -1562.52913616 0 3009
0.05450000 0.05448610 36083.72531806 0 310.05986163 0 8846.71810416 0 3954.13494829 0 2972.11797848 0 3336
0.05550000 0.05550870 35821.81815603 0 -80.60086125 0 10351.87495899 0 2369.75398711 0 3608.75471393 0 3349
0.05650000 0.05647670 35032.38725519 0 661.03344380 0 7057.16154518 0 1936.69667705 0 1463.69009429 0 3324
0.05750000 0.05747970 34376.72009805 0 226.56430800 0 8228.95442129 0 781.10495084 0 -176.50631810 0 3639
0.05850000 0.05849280 34650.65475637 0 553.76728607 0 6207.53695968 0 -1749.04525374 0 -633.26341617 0 3846
0.05950000 0.05951020 33463.19241315 0 745.55976510 0 8326.46706638 0 -2020.33835913 0 -243.63436020 0 3787
0.06050000 0.06049470 33614.37916548 0 1041.81161138 0 9027.40032401 0 -3741.22578280 0 -1106.11600201 0 3930
0.06150000 0.06148310 32721.53427792 0 586.83615645 0 12065.93930766 0 -3803.42030329 0 -3638.99206440 0 4083
0.06250000 0.06249100 33140.24851764 0 597.10449090 0 13496.76173921 0 -2545.45659868 0 -3305.12225639 0 4303
0.06350000 0.06350600 33012.55472534 0 375.08815018 0 14370.94714656 0 -737.48560568 0 -2718.30408497 0 4470
0.06450000 0.06451750 33070.89370263 0 302.68374662 0 14675.90600089 0 1147.35570141 0 -2171.31153910 0 4479
0.06550000 0.06550280 32804.04065428 0 484.44057268 0 13518.45619512 0 2942.74615812 0 -1658.26575844 0 4636
0.06650000 0.06648880 31607.47338397 0 660.70521680 0 12595.48636360 0 3684.19072099 0 -958.10698164 0 4653
0.06750000 0.06749660 31433.35570414 0 610.00426167 0 11162.70805882 0 2428.36274002 0 -705.47897679 0 5220
0.06850000 0.06852730 30429.67800037 0 725.63121542 0 9118.14609736 0 3248.75039297 0 1004.66912916 0 5029
0.06950000 0.06949320 29902.82870061 0 523.72664699 0 7953.82825400 0 869.19231029 0 472.79638259 0 5040
0.07050000 0.07048030 29021.11205727 0 749.66260262 0 7738.68219900 0 554.47095080 0 1397.32529237 0 5475
0.07150000 0.07148790 28921.29507878 0 501.67361432 0 7445.81828486 0 235.20162403 0 448.77286385 0 5509
0.07250000 0.07249820 28130.62770636 0 602.15828746 0 8077.63278115 0 -161.98789362 0 1860.63119355 0 5916
0.07350000 0.07351270 27850.06106412 0 224.39261428 0 7801.55115854 0 559.58319876 0 2089.49084243 0 5721
0.07450000 0.07449140 27604.22803263 0 -59.31309209 0 8629.36888163 0 -252.42904534 0 1168.99395407 0 6028
0.07550000 0.07549160 27853.88288537 0 -6.41140864 0 8614.17152184 0 731.55616242 0 2269.54358584 0 6183
0.07650000 0.07648840 27370.08527790 0 -55.70900224 0 9076.79174332 0 206.38396775 0 848.67924678 0 6330
0.07750000 0.07749960 27489.57339518 0 781.78051395 0 9859.35460656 0 -789.13414766 0 524.36736408 0 6583
0.07850000 0.07848650 26750.16339009 0 831.07526367 0 9827.85830322 0 -493.23076156 0 1534.51743454 0 6549
0.07950000 0.07947320 25546.06488379 0 1235.42619989 0 10672.33467068 0 -659.96108572 0 1130.73077898 0 6828
0.08050000 0.08048110 25371.60998444 0 791.66329407 0 10715.46504754 0 537.58974154 0 902.10943190 0 7147
0.08150000 0.08149960 24477.97825133 0 259.59496018 0 10161.77307383 0 831.89583117 0 -215.76316672 0 7386
0.08250000 0.08250610 24330.83813326 0 417.64750198 0 9441.21364002 0 1164.53141573 0 -839.90929108 0 7227
0.08350000 0.08350160 24262.04535079 0 220.54718767 0 9943.40095208 0 1007.35789282 0 1043.83830070 0 7798
0.08450000 0.08449610 23544.77942764 0 667.85651879 0 8005.53524736 0 175.57671629 0 -112.88648310 0 7371
0.08550000 0.08548940 23307.48929071 0 609.64456085 0 9060.26798675 0 1221.90369706 0 885.68122085 0 8256
0.08650000 0.08650700 22375.75175162 0 743.86692310 0 8395.22612690 0 674.01639539 0 1822.49166562 0 8037
0.08750000 0.08749060 21969.40222769 0 872.42849364 0 8061.87338882 0 719.00035555 0 674.25244906 0 8155
0.08850000 0.08849210 21227.18205993 0 692.30268600 0 7424.12382895 0 711.78722998 0 1969.03602920 0 8718
0.08950000 0.08949900 20351.31055497 0 362.40195176 0 7041.25602440 0 -83.71384707 0 158.66066100 0 8571
0.09050000 0.09049190 20122.67571910 0 338.40878278 0 6451.61644966 0 489.97771723 0 347.98244500 0 8932
0.09150000 0.09150830 19514.33170154 0 234.51819246 0 6202.46742620 0 231.49108522 0 -1170.46647932 0 9285
0.09250000 0.09250820 19411.81696687 0 295.72353569 0 5259.99506566 0 -301.25168772 0 -616.72729488 0 9204
0.09350000 0.09350330 19121.24614547 0 256.27222382 0 6236.94250199 0 -312.40915764 0 -609.90871614 0 9349
0.09450000 0.09448040 19052.11614348 0 318.44988334 0 6138.85658372 0 -194.40143407 0 -542.61993274 0 9564
0.09550000 0.09549270 18703.54356431 0 180.89804034 0 6659.24250931 0 88.50450000 0 -213.43297982 0 10155
0.09650000 0.09649430 18951.84953896 0 93.69824267 0 6052.53962675 0 216.89285211 0 623.65378386 0 9913
0.09750000 0.09749140 18896.88275688 0 -150.07505197 0 6466.03820454 0 866.50691883 0 1052.28115347 0 10476
0.09850000 0.09850240 19259.73096248 0 -166.71571132 0 6510.33760907 0 807.89479373 0 370.25354630 0 10575
0.09950000 0.09950330 19185.99229368 0 33.33965766 0 5634.57851062 0 279.35377603 0 352.94856450 0 10882
0.10050000 0.10051200 19058.97294042 0 372.98390036 0 5805.82982451 0 75.75490432 0 -42.58970155 0 10875
0.10150000 0.10150300 18427.47318236 0 692.74781577 0 5835.26908877 0 -1004.05201744 0 -247.53149381 0 11118
0.10250000 0.10250800 18152.30205246 0 548.48642835 0 6289.62743197 0 -151.68696129 0 680.47864550 0 11575
0.10350000 0.10349800 17642.20132229 0 631.14342944 0 6835.59707863 0 -242.80367611 0 277.65643777 0 11364
0.10450000 0.10450100 17317.34651616 0 391.58155699 0 6333.91559585 0 596.34574697 0 799.34515478 0 12093
0.10550000 0.10551000 16700.00997802 0 431.34311083 0 7046.31431723 0 1189.67675142 0 243.86479354 0 12067
0.10650000 0.10649700 16435.51746632 0 460.96896989 0 6346.22410840 0 519.66427581 0 1524.60318060 0 12054
0.10750000 0.10749900 16005.11294983 0 119.24307108 0 5685.04903240 0 1504.39249058 0 750.39998930 0 12807
0.10850000 0.10850100 15883.26429591 0 70.46887590 0 5431.98826250 0 591.11322406 0 1278.62402065 0 12736
0.10950000 0.10950300 15728.36812883 0 88.26271360 0 4897.87750236 0 342.41382663 0 936.48221777 0 12933
0.11050000 0.11050200 15825.93697718 0 126.08188299 0 5550.91434723 0 71.96275839 0 1944.99227728 0 13428
0.11150000 0.11150900 15616.41124755 0 341.36394985 0 5553.93808228 0 -355.50806067 0 1694.89903917 0 13453
0.11250000 0.11250000 15501.64420359 0 287.02102390 0 5570.92270553 0 -140.58457056 0 1859.39472197 0 13668
0.11350000 0.11349100 15329.43743439 0 236.30995219 0 5885.23378127 0 -220.24144197 0 2232.83162055 0 13791
0.11450000 0.11448600 15352.25595537 0 258.28430030 0 6254.35426998 0 -50.72916916 0 2345.45170023 0 14205
0.11550000 0.11549300 15002.89653065 0 214.95271580 0 6190.78839009 0 512.14990080 0 2232.84286120 0 14776
0.11650000 0.11649800 14746.27247447 0 257.80544858 0 5663.80420252 0 550.48276792 0 1804.06823907 0 14553
0.11750000 0.11747300 14537.87080991 0 310.20711416 0 5076.06429775 0 523.13988502 0 1643.56298728 0 14568
0.11850000 0.11849100 14085.43461799 0 263.99567494 0 4803.02889150 0 700.18687842 0 1213.57437487 0 16015
0.11950000 0.11950300 13759.45574679 0 335.42888627 0 5087.41735499 0 70.38715637 0 1088.06688913 0 15270
0.12050000 0.12050700 13718.65218464 0 142.00089255 0 4500.99260635 0 -77.42099357 0 1124.72827149 0 15999
0.12150000 0.12150000 13509.68848755 0 73.56713647 0 4975.22442004 0 72.17127246 0 1205.14388682 0 15670
0.12250000 0.12250700 13771.93286910 0 67.87217318 0 4799.87026864 0 -157.45678731 0 1292.51746495 0 16887
0.12350000 0.12352200 13775.08025131 0 -112.73361025 0 5271.21323509 0 193.28186525 0 1664.74037326 0 16407
0.12450000 0.12449800 13859.72235131 0 -116.54419084 0 4752.62581362 0 296.48003149 0 1395.13336548 0 16306
0.12550000 0.12549900 14168.16580737 0 -165.62986446 0 4792.35027330 0 569.95045092 0 1174.45691033 0 17523
0.12650000 0.12650100 14104.43131773 0 49.36860079 0 4411.02243790 0 -125.42655305 0 908.25469565 0 17154
0.12750000 0.12750600 14135.56792025 0 279.17392562 0 4208.13993286 0 312.30237145 0 989.50998759 0 18007
0.12850000 0.12850300 13542.62359419 0 331.24961233 0 4365.96990977 0 -204.31906021 0 836.65624675 0 17496
0.12950000 0.12949900 13574.99666830 0 210.59471551 0 4566.08721474 0 -44.99598766 0 1063.75448567 0 18405
0.13050000 0.13049000 13402.67749259 0 90.77499904 0 4533.72538128 0 -120.40198217 0 615.58074850 0 18100
0.13150000 0.13148800 13307.13196138 0 100.26469361 0 4643.95120235 0 204.27072541 0 906.37975511 0 19059
0.13250000 0.13249300 13298.70147333 0 -12.11157635 0 4619.37913985 0 -13.51171180 0 481.16841926 0 18957
0.13350000 0.13349100 13370.07960547 0 53.19311980 0 4557.58928278 0 20.55881297 0 441.07076997 0 19468
0.13450000 0.13450700 13308.48083946 0 67.68052008 0 4090.03441563 0 411.27967334 0 286.03746696 0 19953
0.13550000 0.13551000 13061.41133640 0 85.09948208 0 3747.22829029 0 473.16957220 0 80.27398313 0 19956
0.13650000 0.13649900 12944.62097530 0 327.48624246 0 3587.09397997 0 423.34313970 0 149.86597587 0 19723
0.13750000 0.13749600 12557.26815111 0 426.79739167 0 3225.88690938 0 373.45375956 0 -133.42427605 0 20946
0.13850000 0.13851100 12137.20503329 0 443.64263086 0 3681.97631279 0 34.05984615 0 113.91725077 0 20955
0.13950000 0.13949800 11902.38783952 0 203.12867529 0 3561.09435483 0 139.96970697 0 469.65124852 0 20506
0.14050000 0.14048300 11813.24947923 0 45.60500611 0 3447.17035967 0 191.14501755 0 428.31263139 0 21447
0.14150000 0.14148400 11895.19382306 0 2.57932468 0 3304.15556042 0 101.86176527 0 448.39630205 0 21771
0.14250000 0.14249400 11764.80227458 0 -31.93806092 0 3314.19346153 0 364.09591783 0 348.04651671 0 22470
0.14350000 0.14350900 11655.31833646 0 243.59501793 0 2686.57172796 0 42.14861842 0 64.07440692 0 22519
0.14450000 0.14449900 11398.13224773 0 244.74493650 0 2378.38680687 0 413.22992624 0 -211.22531602 0 22218
0.14550000 0.14550500 11139.24882075 0 251.62196661 0 2183.92354922 0 251.64444791 0 93.01009003 0 23559
0.14650000 0.14650700 10981.75606335 0 102.81339876 0 2164.98305274 0 535.54956343 0 -8.91842222 0 23044
0.14750000 0.14750500 10923.31592020 0 -35.98289668 0 1884.14663488 0 324.82895263 0 338.39192180 0 23649
0.14850000 0.14849900 11006.73278928 0 -40.54648847 0 1855.50545682 0 65.01232682 0 371.23373104 0 23640
0.14950000 0.14949500 10967.00832960 0 155.58297083 0 2082.70148939 0 -3.12899250 0 808.46919098 0 24457
0.15050000 0.15050000 10805.52514119 0 280.45086354 0 2182.73204025 0 -113.78236296 0 930.96081013 0 24591
0.15150000 0.15149900 10658.77844590 0 312.47547748 0 2561.03614060 0 1.11052346 0 982.75772869 0 25020
0.15250000 0.15250500 10494.24904115 0 200.82209376 0 2606.05494677 0 -172.18653603 0 978.44356694 0 25297
0.15350000 0.15350100 10290.53472795 0 155.28284546 0 2626.77146607 0 -147.05468912 0 701.17830382 0 25452
0.15450000 0.15450400 10280.81156507 0 141.56138311 0 2831.37379068 0 -174.91576602 0 1074.92994062 0 26061
0.15550000 0.15549900 10071.49940781 0 147.14686246 0 2707.43437572 0 -179.42101884 0 724.88146401 0 26128
0.15650000 0.15649500 10029.99892531 0 210.19904460 0 3125.54162031 0 -23.44721058 0 732.95112717 0 26331
0.15750000 0.15749700 9752.10755794 0 298.84956066 0 2822.69600831 0 -145.28091444 0 141.00384683 0 27345
0.15850000 0.15849900 9574.02192841 0 239.11337048 0 3091.43748599 0 77.78069439 0 667.69352936 0 26980
0.15950000 0.15949700 9334.79839955 0 185.13239347 0 2714.78576130 0 133.37369312 0 -159.31149468 0 27777
0.16050000 0.16050000 9233.58758037 0 125.54345582 0 2753.10513964 0 -14.53090161 0 311.54812379 0 28224
0.16150000 0.16150500 9128.20647977 0 182.79883438 0 2575.98620607 0 -49.89792303 0 -525.70387745 0 28075
0.16250000 0.16249700 9051.64640764 0 273.57158530 0 2861.34136553 0 -193.51117453 0 -283.23292460 0 28590
0.16350000 0.16349900 8715.43854427 0 335.07817797 0 2837.36505752 0 -204.11560443 0 -453.97840920 0 29163
0.16450000 0.16449100 8603.25684998 0 261.24059144 0 3212.52177566 0 -197.56567725 0 -328.84748527 0 28996
0.16550000 0.16550500 8357.35637459 0 167.65318159 0 3180.86810321 0 186.52398603 0 -177.63487944 0 30777
0.16650000 0.16650700 8325.14066959 0 49.75123254 0 3485.01763068 0 337.59720779 0 102.67502635 0 29211
0.16750000 0.16749900 8225.69463258 0 -12.40754268 0 3142.38011510 0 375.63444580 0 196.85077186 0 30922
0.16850000 0.16850800 8273.15265996 0 13.32680310 0 3089.70642578 0 500.45849998 0 213.45433706 0 30867
0.16950000 0.16949900 8283.05567326 0 19.74712558 0 2851.02244815 0 314.57635510 0 436.57788187 0 30852
0.17050000 0.17049200 8153.82191180 0 77.45460311 0 2504.96777475 0 229.24295507 0 444.11698632 0 31257
0.17150000 0.17149500 8050.72266330 0 129.34054764 0 2582.41585829 0 420.34076189 0 445.28151773 0 32608
0.17250000 0.17250900 7919.46558471 0 116.87016972 0 1861.09206023 0 398.65642257 0 468.57439418 0 32361
0.17350000 0.17350400 7832.54163261 0 78.34756041 0 1935.58385262 0 394.38272716 0 516.31568596 0 32508
0.17450000 0.17449800 7820.90755910 0 8.48476915 0 1442.72628067 0 444.29346453 0 856.05648585 0 32791
0.17550000 0.17549800 7737.47944938 0 -69.59311681 0 1291.61821290 0 442.41177960 0 624.21581639 0 33633
0.17650000 0.17650100 7896.79319219 0 -40.88944073 0 1217.33999286 0 74.33610938 0 689.50263990 0 33984
0.17750000 0.17750300 7848.95298268 0 91.32511649 0 938.09637521 0 -82.72534424 0 413.44237454 0 34069
0.17850000 0.17849800 7824.00997870 0 184.26124304 0 1365.71658251 0 -453.57374578 0 684.51741130 0 34536
