### header ###
fiducial parameters:
Omega_m = 0.31
Omega_nu = 0
Omega_de = 0.69
Omega_k = 0
H_0 = 100
w_de = -1
zeff = 0
beta = 0
fgrowth = 0
b_1 = 2
gamma = 0.55
Lx = 3500 Ly = 3500 Lz = 3500
nx = 700 ny = 700 nz = 700
xoffset = 857.220397 yoffset = 15.9954215 zoffset = 262.898189
bins = 400 dk = 0.001
kx_ny = 0.628318531 ky_ny = 0.628318531 kz_ny = 0.628318531
############################
A(data) = 3.0913585 (not used)
A(ran) = 3.09523092 (used)
Ngal = 189736
weighted Ngal = 0
Nran = 9360983
weighted Nran = 0
SN(data) = 3432.11192
SN(ran) = 69.5072541
SN(data+ran) = 3501.61918
############################
13 columns: k_central k_mean P_0(k) sigma^{lin}_{P_0(k)} P^img_1(k) sigma^{lin}_{P_1(k)} P_2(k) sigma^{lin}_{P_2(k)} P^img_3(k) sigma^{lin}_{P_3(k)} P_4(k) sigma^{lin}_{P_4(k)} N_modes
### header ###
0.00050000 0 0 0 0 0 0 0 0 0 0 0 0
0.00150000 0.00179520 18784.36384307 0 -29384.74710842 0 -29399.13514136 0 37534.89332743 0 2681.13125301 0 3
0.00250000 0.00253879 34660.65893552 0 -32779.76084870 0 -25451.53101114 0 -20916.49047372 0 5830.45809026 0 6
0.00350000 0.00331552 52296.79030641 0 -32319.45620127 0 -41891.76955077 0 -4606.07020939 0 -28208.75022894 0 7
0.00450000 0.00420575 67005.85622696 0 -25625.64869096 0 -49532.15225913 0 -14403.09540765 0 2662.26944108 0 24
0.00550000 0.00557378 76454.85963794 0 -7325.08245536 0 -55747.10804829 0 -20126.04791432 0 88.20459944 0 45
0.00650000 0.00659388 67320.25722791 0 2975.84987452 0 -38759.33741156 0 -26541.08728649 0 10690.04993623 0 40
0.00750000 0.00754703 57469.73777282 0 13704.48896472 0 -39865.52985000 0 -18699.04730402 0 -1278.16315397 0 57
0.00850000 0.00846663 52342.42734838 0 6473.86169745 0 -40657.20888098 0 -12865.59920066 0 21492.34901067 0 75
0.00950000 0.00948925 43603.49584408 0 3317.48697219 0 -36887.31943882 0 -11257.39930058 0 24402.89070445 0 112
0.01050000 0.01054430 44537.14429380 0 -9205.69952591 0 -46357.34286667 0 8962.36191888 0 5134.33583114 0 105
0.01150000 0.01145670 54631.47346324 0 -14814.72803742 0 -44474.53386922 0 -10727.76231944 0 5158.69432128 0 144
0.01250000 0.01249090 67645.67406657 0 -15394.97042815 0 -49109.27897863 0 -10298.54931193 0 -14380.95132571 0 169
0.01350000 0.01339930 79597.74558232 0 -11452.08737124 0 -29340.79616406 0 -37883.01628057 0 -24559.92259516 0 180
0.01450000 0.01448870 86894.27678482 0 -4323.78374758 0 -22075.06434456 0 -45717.97465309 0 -27853.43325934 0 267
0.01550000 0.01550050 93576.39401837 0 4770.88063041 0 -5856.74997232 0 -35992.67604714 0 -43148.02467646 0 238
0.01650000 0.01653350 87041.30449639 0 9643.89381335 0 14571.14313608 0 -41044.67411168 0 -37190.70460205 0 315
0.01750000 0.01747870 81977.95337461 0 11642.61640113 0 21502.69040934 0 -15274.13343279 0 -59031.17656586 0 297
0.01850000 0.01844180 69925.16562831 0 12091.90521085 0 41368.96688527 0 -17856.89775125 0 -40084.49772624 0 388
0.01950000 0.01947590 60215.82874640 0 8380.99546307 0 20979.66293083 0 8969.48849145 0 -47798.84391641 0 399
0.02050000 0.02045430 54987.01524586 0 3661.30475610 0 33804.79578886 0 9012.67507155 0 -35338.13295508 0 462
0.02150000 0.02154770 50452.53674098 0 -1402.02388438 0 16084.13472447 0 12345.04466531 0 -30299.73607792 0 571
0.02250000 0.02255340 50857.20016730 0 -1547.72519915 0 24460.44283619 0 15596.85251528 0 -13418.63921663 0 510
0.02350000 0.02348930 56382.99166014 0 -5586.37860029 0 23103.24666693 0 1698.74334172 0 2807.48740787 0 555
0.02450000 0.02439640 64537.40932643 0 -3982.67496050 0 26307.39415780 0 10102.10769975 0 2123.59497675 0 592
0.02550000 0.02547300 71374.98475959 0 -5853.55762751 0 35006.19653899 0 2953.41353566 0 28259.22075073 0 837
0.02650000 0.02652900 77042.85807768 0 -4525.63211276 0 35026.42971030 0 40.59965675 0 15166.67281180 0 723
0.02750000 0.02749970 81667.37419491 0 -2197.68210572 0 46875.31205235 0 7465.27585127 0 25940.49931794 0 826
0.02850000 0.02848090 84211.69548787 0 2782.54440390 0 32729.06551390 0 1776.22514721 0 -1440.19713426 0 831
0.02950000 0.02946900 79656.64659215 0 5061.13671358 0 39549.55515795 0 7693.02267574 0 14844.40335535 0 996
0.03050000 0.03053250 72176.44315671 0 6092.16292058 0 24884.44018176 0 5371.25502660 0 -1865.68948638 0 1041
0.03150000 0.03150510 67994.24664574 0 4225.01214961 0 17784.62036705 0 9946.09870826 0 -14217.84948360 0 1036
0.03250000 0.03246190 63444.93048189 0 2796.30296040 0 17798.55877396 0 1301.98209287 0 -5815.59794999 0 1059
0.03350000 0.03345080 61195.33905110 0 1122.08222231 0 5780.48215711 0 -647.33221462 0 -27136.84177524 0 1302
0.03450000 0.03451200 60668.60215784 0 1097.71136746 0 15199.04588591 0 -8649.90555051 0 -10756.39225685 0 1339
0.03550000 0.03553350 61982.85904131 0 1865.63328312 0 15348.65894714 0 -13874.44760377 0 -23818.60167945 0 1365
0.03650000 0.03647120 61903.16282763 0 2068.77432313 0 27000.94230790 0 -10229.37434733 0 -17028.46179238 0 1308
0.03750000 0.03744890 61363.04956000 0 3041.00068616 0 33865.72011582 0 -7768.78466166 0 -15477.25199150 0 1579
0.03850000 0.03847530 60089.70864520 0 3040.75339184 0 36860.00465754 0 20.60950830 0 -10363.96989918 0 1662
0.03950000 0.03950240 57014.82863773 0 3562.53315813 0 38635.46544050 0 4947.95460137 0 -11041.63500980 0 1683
0.04050000 0.04050350 53394.43985030 0 3666.80143431 0 41296.23987504 0 7133.71037666 0 -7492.15224717 0 1822
0.04150000 0.04152450 50688.25318681 0 3501.18168644 0 39577.76919128 0 8945.21992652 0 -1224.85998820 0 1887
0.04250000 0.04250150 47604.71787828 0 1248.44287344 0 39235.15415700 0 3928.52874593 0 802.72971472 0 1920
0.04350000 0.04349210 46414.67018539 0 -452.28107094 0 33452.06416892 0 3882.61068769 0 972.99634760 0 2005
0.04450000 0.04448520 47801.09204655 0 -1546.91587230 0 36530.42877811 0 6325.01300047 0 373.15588232 0 2151
0.04550000 0.04548030 49963.11880815 0 -1034.23990904 0 34459.00166140 0 3360.94332792 0 6012.98377683 0 2274
0.04650000 0.04648670 48744.40745590 0 152.49291595 0 29143.63515024 0 5202.36424937 0 -763.48747895 0 2311
0.04750000 0.04749250 47919.34369224 0 2298.72431514 0 28513.82148978 0 3486.25410226 0 -548.04017452 0 2568
0.04850000 0.04851840 45800.25621644 0 2219.33159903 0 22505.69367407 0 4996.55917513 0 -2064.98622384 0 2493
0.04950000 0.04949480 42491.57067377 0 2479.79995776 0 24405.25124110 0 4411.29221352 0 -3428.90430224 0 2644
0.05050000 0.05050630 40842.22999201 0 2575.22184182 0 16841.75458374 0 5367.41072405 0 476.88797946 0 2829
0.05150000 0.05149060 38481.91815152 0 1306.44463121 0 17635.68174487 0 6886.15752561 0 -1592.36182320 0 2784
0.05250000 0.05249300 37313.34010153 0 734.07406818 0 12638.65046240 0 3002.05183138 0 469.78501226 0 3055
0.05350000 0.05348950 37554.78927923 0 -203.20623578 0 12300.19446889 0 2106.25065267 0 -2143.90683262 0 3009
0.05450000 0.05448610 37551.97911654 0 570.74516493 0 12725.09106653 0 309.75973626 0 2452.32780738 0 3336
0.05550000 0.05550870 37372.80314389 0 937.15440868 0 15144.07910384 0 -3160.64617254 0 2424.32734641 0 3349
0.05650000 0.05647670 36001.78097423 0 555.89626532 0 12973.05982165 0 -2431.19538400 0 3.83488288 0 3324
0.05750000 0.05747970 36900.47100018 0 585.74244114 0 17305.88105242 0 -1341.35809238 0 855.73612730 0 3639
0.05850000 0.05849280 36154.42901116 0 641.87263056 0 14327.10860871 0 -417.93526263 0 -3921.28976686 0 3846
0.05950000 0.05951020 36754.34254067 0 328.85198153 0 18587.87726829 0 817.60109563 0 -404.32508273 0 3787
0.06050000 0.06049470 34842.42025784 0 585.05114112 0 12965.86580518 0 691.71479997 0 -2756.82579503 0 3930
0.06150000 0.06148310 35453.57443808 0 296.97462012 0 13986.96651759 0 3412.47047087 0 -2244.79167293 0 4083
0.06250000 0.06249100 34007.46472154 0 260.83255582 0 11998.27059026 0 3324.38873174 0 -3697.89307423 0 4303
0.06350000 0.06350600 34333.33118623 0 1249.26344094 0 12429.79917182 0 2026.89165851 0 -2520.60351992 0 4470
0.06450000 0.06451750 32580.01448521 0 1089.76535146 0 12914.04640531 0 279.66289393 0 -326.23965430 0 4479
0.06550000 0.06550280 32042.82378678 0 1412.68002127 0 12175.31083927 0 -1293.12446009 0 -807.49799876 0 4636
0.06650000 0.06648880 31463.25583509 0 723.15827226 0 13700.10511093 0 -281.33550276 0 170.95905697 0 4653
0.06750000 0.06749660 30640.32779507 0 865.43118856 0 12693.28002496 0 -789.53206669 0 -1486.75590959 0 5220
0.06850000 0.06852730 30380.10673065 0 152.44233302 0 12459.36208325 0 1184.34868297 0 -1465.73589272 0 5029
0.06950000 0.06949320 29841.79196714 0 -169.32354229 0 12137.31743980 0 721.38786977 0 -5583.55719695 0 5040
0.07050000 0.07048030 29611.02140764 0 431.46900611 0 10595.98817092 0 1588.59620521 0 -1547.10696336 0 5475
0.07150000 0.07148790 29170.16308597 0 -40.21792425 0 9126.43045695 0 1385.99471643 0 -6633.91732321 0 5509
0.07250000 0.07249820 29692.17890591 0 -118.37754098 0 8364.80892602 0 431.53082969 0 -3251.96521908 0 5916
0.07350000 0.07351270 29119.80497069 0 -45.60613018 0 7768.61605190 0 1214.21509196 0 -6859.89936551 0 5721
0.07450000 0.07449140 29470.62568001 0 528.68602209 0 7602.29938369 0 -964.51752475 0 -4229.96927658 0 6028
0.07550000 0.07549160 28912.07774518 0 884.59649806 0 8068.68522316 0 -504.19714041 0 -4326.53770701 0 6183
0.07650000 0.07648840 27801.72626597 0 977.83657180 0 9882.38669991 0 -854.94478549 0 -3455.48844121 0 6330
0.07750000 0.07749960 27276.45065732 0 796.98574219 0 8568.29842621 0 582.37136998 0 -2992.05889288 0 6583
0.07850000 0.07848650 26165.19992605 0 485.40839271 0 8707.72745787 0 2406.94930038 0 -2680.85023674 0 6549
0.07950000 0.07947320 25875.75316973 0 323.89710268 0 8068.91003618 0 2097.40426055 0 -713.14397652 0 6828
0.08050000 0.08048110 25293.71227488 0 377.06875284 0 6465.75718827 0 2132.21655586 0 -1188.13678227 0 7147
0.08150000 0.08149960 24846.89640832 0 563.62308863 0 6718.51446061 0 500.14713395 0 315.56665643 0 7386
0.08250000 0.08250610 24614.21493819 0 298.52920211 0 6478.74013987 0 -263.44825525 0 38.71898348 0 7227
0.08350000 0.08350160 24622.98264576 0 248.39365172 0 7554.30180506 0 -1425.96647043 0 1874.83937607 0 7798
0.08450000 0.08449610 24705.48902212 0 707.89571670 0 9720.71242045 0 -2381.69155818 0 2023.87916411 0 7371
0.08550000 0.08548940 25036.41377964 0 350.77911891 0 12686.31082150 0 -1182.33660649 0 2676.10668213 0 8256
0.08650000 0.08650700 23958.32296803 0 1104.42203595 0 13138.74701343 0 -536.45555988 0 5218.86552464 0 8037
0.08750000 0.08749060 23673.82209803 0 861.46773511 0 13324.77978302 0 816.00941949 0 3173.98882496 0 8155
0.08850000 0.08849210 23039.62458379 0 178.72634662 0 12842.44346016 0 3062.87499248 0 5769.42135679 0 8718
0.08950000 0.08949900 22444.65694060 0 294.82877989 0 11211.67233341 0 4207.38680926 0 5356.97940017 0 8571
0.09050000 0.09049190 21885.20975372 0 -165.28252835 0 8811.99573405 0 2672.56587715 0 4446.98127959 0 8932
0.09150000 0.09150830 21733.23615583 0 343.79080635 0 7624.33105912 0 1421.69502315 0 4558.47729419 0 9285
0.09250000 0.09250820 21460.20074958 0 669.45156713 0 6623.51972128 0 -84.06579184 0 3531.45275885 0 9204
0.09350000 0.09350330 20758.78414397 0 557.90721773 0 7180.34783655 0 -1460.46402753 0 3548.30249430 0 9349
0.09450000 0.09448040 20255.87743026 0 587.14415028 0 7020.24724818 0 -1541.62152580 0 1455.52938185 0 9564
0.09550000 0.09549270 19963.05847872 0 409.35414987 0 8157.47512329 0 -1553.10947085 0 1469.43406681 0 10155
0.09650000 0.09649430 19764.21136729 0 360.19541202 0 7900.42392237 0 -593.99083064 0 -1486.36248681 0 9913
0.09750000 0.09749140 19404.28573088 0 179.81219348 0 8339.30388951 0 -534.07479005 0 -1420.22249791 0 10476
0.09850000 0.09850240 19107.19533206 0 313.79175768 0 8021.94659743 0 64.17591000 0 -3267.44359514 0 10575
0.09950000 0.09950330 18975.00527946 0 259.79841595 0 7148.70540474 0 761.62377906 0 -3897.65067837 0 10882
0.10050000 0.10051200 18509.86715222 0 522.88135005 0 6353.36192162 0 878.85140147 0 -4447.62199668 0 10875
0.10150000 0.10150300 17911.41490730 0 474.47348768 0 5091.38530470 0 1262.67353726 0 -5113.45070208 0 11118
0.10250000 0.10250800 17576.10629599 0 375.79631117 0 5060.11381436 0 1422.59427521 0 -4002.09880496 0 11575
0.10350000 0.10349800 17050.71828083 0 377.31379902 0 4104.50113312 0 819.99198204 0 -4222.33687473 0 11364
0.10450000 0.10450100 16762.50799608 0 315.46549057 0 4721.51169239 0 475.01079079 0 -2513.46570670 0 12093
0.10550000 0.10551000 16611.99568280 0 362.21535696 0 5208.37799751 0 -68.58505525 0 -1767.64853070 0 12067
0.10650000 0.10649700 16344.91782143 0 521.47289652 0 6015.97378992 0 -270.84010717 0 -106.60666875 0 12054
0.10750000 0.10749900 16096.38703376 0 355.89024279 0 6567.14785787 0 -491.10627857 0 597.04491545 0 12807
0.10850000 0.10850100 15998.70577891 0 159.50258574 0 7012.33383007 0 218.62054013 0 2018.19139485 0 12736
0.10950000 0.10950300 15954.30520852 0 2.21031660 0 7130.59671641 0 801.62251062 0 1675.87985813 0 12933
0.11050000 0.11050200 16046.14132500 0 -136.67619630 0 6688.98527114 0 995.97673395 0 2378.63410119 0 13428
0.11150000 0.11150900 16038.61008901 0 -151.17551168 0 6578.30982404 0 750.75519387 0 2112.45549188 0 13453
0.11250000 0.11250000 16275.11338039 0 69.60525671 0 5689.03946341 0 686.11358371 0 1840.02708076 0 13668
0.11350000 0.11349100 15689.58788381 0 247.72595707 0 5816.32859229 0 712.18964527 0 1127.18997400 0 13791
0.11450000 0.11448600 15786.93191914 0 223.61925751 0 4615.38870884 0 641.51292974 0 1194.62263774 0 14205
0.11550000 0.11549300 15289.75793731 0 196.74960600 0 4352.67221996 0 486.15926818 0 593.03874753 0 14776
0.11650000 0.11649800 15096.41874474 0 189.20375717 0 3358.78512298 0 538.81272433 0 270.93677676 0 14553
0.11750000 0.11747300 14590.58946184 0 167.38902630 0 3284.58558750 0 579.49713559 0 -215.52374086 0 14568
0.11850000 0.11849100 14584.63191695 0 227.42871404 0 2889.44299235 0 -76.91763723 0 -387.63833672 0 16015
0.11950000 0.11950300 14257.86620020 0 284.21086121 0 3180.91306581 0 -281.11743413 0 -601.84804550 0 15270
0.12050000 0.12050700 14118.14491162 0 314.65841185 0 3512.04015504 0 -364.42639296 0 395.28422735 0 15999
0.12150000 0.12150000 13916.93726353 0 316.08147823 0 3730.35607354 0 -171.04111372 0 469.30953273 0 15670
0.12250000 0.12250700 13966.05890723 0 348.51525185 0 4705.81974397 0 -384.27400995 0 1501.48116204 0 16887
0.12350000 0.12352200 13585.67528649 0 207.09774907 0 5053.50431173 0 375.33544449 0 2057.42126590 0 16407
0.12450000 0.12449800 13899.06462887 0 63.11231963 0 5412.09231070 0 408.11430609 0 2772.22548653 0 16306
0.12550000 0.12549900 13651.32068676 0 63.34219093 0 5216.31389692 0 222.64244496 0 2117.15408388 0 17523
0.12650000 0.12650100 13955.26788253 0 15.72803091 0 5842.15960767 0 -9.36231551 0 2468.10968100 0 17154
0.12750000 0.12750600 13706.51228185 0 139.22669995 0 5018.11874323 0 -52.88714928 0 2434.84859549 0 18007
0.12850000 0.12850300 13838.14030191 0 148.91276869 0 5449.81593456 0 -61.42071410 0 2132.09290870 0 17496
0.12950000 0.12949900 13580.50458715 0 56.38681348 0 5116.48567778 0 164.26749759 0 1654.53386240 0 18405
0.13050000 0.13049000 13631.19992195 0 197.63087302 0 5226.53164844 0 167.77682875 0 1374.83275026 0 18100
0.13150000 0.13148800 13437.29869684 0 260.78309696 0 5229.16196071 0 405.00626616 0 805.78941985 0 19059
0.13250000 0.13249300 13154.37151794 0 430.92495862 0 5268.50423827 0 51.32278792 0 1366.11000529 0 18957
0.13350000 0.13349100 12718.00945657 0 391.50624464 0 4867.70759580 0 362.42443306 0 1119.10344987 0 19468
0.13450000 0.13450700 12456.21470104 0 266.51695290 0 5065.63297387 0 338.26602651 0 1879.05462010 0 19953
0.13550000 0.13551000 12352.80071432 0 142.98444949 0 4803.39983297 0 639.40193553 0 1844.93924513 0 19956
0.13650000 0.13649900 12228.14189771 0 80.83545363 0 4660.40751502 0 350.90726232 0 2088.65903428 0 19723
0.13750000 0.13749600 12260.40256531 0 28.91758566 0 4538.18791962 0 120.40085811 0 1753.50779208 0 20946
0.13850000 0.13851100 12143.27498469 0 41.99394707 0 4762.70867732 0 -240.98831102 0 2215.24000216 0 20955
0.13950000 0.13949800 12174.86121324 0 107.04359285 0 4705.38135860 0 -224.36788485 0 1634.68287321 0 20506
0.14050000 0.14048300 12179.13266052 0 56.87319644 0 4717.46505813 0 53.78246711 0 1614.47218319 0 21447
0.14150000 0.14148400 12000.96834644 0 143.64652382 0 4646.26677640 0 56.83801320 0 1269.18187404 0 21771
0.14250000 0.14249400 11812.46263368 0 192.06113058 0 4545.42689869 0 220.07283221 0 1053.60642619 0 22470
0.14350000 0.14350900 11621.03435173 0 220.68432361 0 4419.91379263 0 396.50383795 0 1385.90479123 0 22519
0.14450000 0.14449900 11445.45538731 0 144.68066369 0 4044.73459318 0 512.32188276 0 1486.14891445 0 22218
0.14550000 0.14550500 11419.93911015 0 34.66077134 0 3931.57496227 0 441.19666526 0 1770.69474705 0 23559
0.14650000 0.14650700 11411.73343512 0 72.16396603 0 3381.88466023 0 350.25755271 0 962.77297576 0 23044
0.14750000 0.14750500 11249.64325158 0 158.92369223 0 3734.82985253 0 -112.34794352 0 1081.51246569 0 23649
0.14850000 0.14849900 11101.99730422 0 203.94362247 0 3592.37708582 0 -395.40225418 0 706.81549016 0 23640
0.14950000 0.14949500 10932.40960665 0 215.89355826 0 3562.17345730 0 -360.09199804 0 424.05017663 0 24457
0.15050000 0.15050000 10828.64715975 0 100.24468525 0 3427.69031196 0 -314.31669607 0 -200.61526579 0 24591
0.15150000 0.15149900 10742.09414912 0 77.45651402 0 3592.66934274 0 -77.85151049 0 -618.12787996 0 25020
0.15250000 0.15250500 10640.75968278 0 165.72653405 0 3138.64821906 0 248.45435124 0 -951.93024407 0 25297
0.15350000 0.15350100 10365.40870247 0 188.54955130 0 3214.71370256 0 291.30933215 0 -857.43571369 0 25452
0.15450000 0.15450400 10209.84933701 0 202.24740828 0 2915.49882075 0 281.58504520 0 -1039.46456350 0 26061
0.15550000 0.15549900 10121.77883853 0 183.53172481 0 2854.20355231 0 159.90050478 0 -1539.12610134 0 26128
0.15650000 0.15649500 9901.36091835 0 106.25764655 0 3055.26507194 0 -287.75841058 0 -1069.02185460 0 26331
0.15750000 0.15749700 10011.12587273 0 83.19362975 0 2844.70520244 0 -208.62085724 0 -1449.88657519 0 27345
0.15850000 0.15849900 9984.77778742 0 -5.34473833 0 3016.03520089 0 -106.16221342 0 -866.50467070 0 26980
0.15950000 0.15949700 10040.85739392 0 -58.65888621 0 2668.59792744 0 260.71115679 0 -1065.63504653 0 27777
0.16050000 0.16050000 10063.50730514 0 -20.17258421 0 2830.60942643 0 762.29821810 0 -709.11195510 0 28224
0.16150000 0.16150500 10008.34943200 0 183.67335701 0 2534.11478210 0 888.95337428 0 -611.16766902 0 28075
0.16250000 0.16249700 9583.81253520 0 363.64404367 0 2335.39131782 0 786.43751555 0 -24.42458516 0 28590
0.16350000 0.16349900 9437.07708055 0 347.32936320 0 2076.15943066 0 378.85938850 0 572.58525946 0 29163
0.16450000 0.16449100 8949.94099982 0 363.37764025 0 2293.58733775 0 333.17850799 0 854.60419378 0 28996
0.16550000 0.16550500 8751.92569655 0 222.55814008 0 2104.22733554 0 -27.01566756 0 953.96480185 0 30777
0.16650000 0.16650700 8604.47084026 0 99.04980408 0 2045.74222979 0 -197.45776700 0 688.10430295 0 29211
0.16750000 0.16749900 8701.20788045 0 86.92294044 0 2560.21557309 0 -567.12117914 0 1009.06871986 0 30922
0.16850000 0.16850800 8657.17825154 0 45.83071838 0 2652.97342293 0 -555.86029523 0 671.68733256 0 30867
0.16950000 0.16949900 8677.80484563 0 46.45131471 0 3122.29307225 0 -356.48262509 0 758.77315003 0 30852
0.17050000 0.17049200 8719.10299641 0 136.71216639 0 3167.40180363 0 -113.13265335 0 615.59648541 0 31257
0.17150000 0.17149500 8645.37556827 0 128.62564225 0 3252.79702723 0 -16.13516728 0 621.75861014 0 32608
0.17250000 0.17250900 8578.03282974 0 162.60163315 0 3302.14348394 0 234.14163066 0 969.07673269 0 32361
0.17350000 0.17350400 8448.92271544 0 177.58542057 0 3353.61442364 0 286.33871640 0 819.61766838 0 32508
0.17450000 0.17449800 8339.33761147 0 163.89880424 0 3140.10950365 0 339.93076689 0 1118.60436497 0 32791
0.17550000 0.17549800 8211.77870697 0 95.26136756 0 3100.16023096 0 472.50524974 0 1024.69996877 0 33633
0.17650000 0.17650100 8086.71522694 0 124.75885840 0 2788.77172441 0 170.84215420 0 1127.53843417 0 33984
0.17750000 0.17750300 8020.97990146 0 80.37930803 0 2799.25925154 0 274.59448451 0 1063.87363656 0 34069
