### header ###
fiducial parameters:
Omega_m = 0.31
Omega_nu = 0
Omega_de = 0.69
Omega_k = 0
H_0 = 100
w_de = -1
zeff = 0
beta = 0
fgrowth = 0
b_1 = 2
gamma = 0.55
Lx = 3500 Ly = 3500 Lz = 3500
nx = 700 ny = 700 nz = 700
xoffset = 857.220397 yoffset = 15.9954215 zoffset = 262.898189
bins = 400 dk = 0.001
kx_ny = 0.628318531 ky_ny = 0.628318531 kz_ny = 0.628318531
############################
A(data) = 3.07740685 (not used)
A(ran) = 3.07750395 (used)
Ngal = 188289
weighted Ngal = 0
Nran = 9360983
weighted Nran = 0
SN(data) = 3443.68507
SN(ran) = 69.1091728
SN(data+ran) = 3512.79424
############################
13 columns: k_central k_mean P_0(k) sigma^{lin}_{P_0(k)} P^img_1(k) sigma^{lin}_{P_1(k)} P_2(k) sigma^{lin}_{P_2(k)} P^img_3(k) sigma^{lin}_{P_3(k)} P_4(k) sigma^{lin}_{P_4(k)} N_modes
### header ###
0.00050000 0 0 0 0 0 0 0 0 0 0 0 0
0.00150000 0.00179520 24530.80930976 0 -33216.57253611 0 -38363.32928631 0 95327.35018274 0 5434.96703494 0 3
0.00250000 0.00253879 45184.83058892 0 -35816.31023717 0 -18237.84340453 0 -31539.91707307 0 -6189.94534129 0 6
0.00350000 0.00331552 58041.99930153 0 -23901.67008835 0 -39726.59540696 0 -14756.38906012 0 23109.31661832 0 7
0.00450000 0.00420575 64760.98586947 0 -7955.07596623 0 -41657.28957652 0 -15484.78322749 0 5423.63645900 0 24
0.00550000 0.00557378 50867.87878549 0 8390.81979181 0 -42764.04404749 0 -14908.69987753 0 17804.51631885 0 45
0.00650000 0.00659388 38279.02440582 0 10462.14574266 0 -27531.05139637 0 -8449.54095123 0 -5521.94719030 0 40
0.00750000 0.00754703 28310.36571155 0 4185.35513383 0 -23406.51942365 0 -11904.63596967 0 17882.30162190 0 57
0.00850000 0.00846663 26185.99512990 0 -3105.40961485 0 -6775.09989639 0 -21271.91984983 0 7859.82269193 0 75
0.00950000 0.00948925 31816.77430058 0 -9478.30778743 0 -7646.25032804 0 -14203.46145067 0 10621.44824482 0 112
0.01050000 0.01054430 44944.84269581 0 -12276.47669585 0 12334.92807965 0 -17666.59353438 0 4321.23211986 0 105
0.01150000 0.01145670 55368.86015119 0 -10955.09323982 0 3736.97681682 0 -4796.63296123 0 -3694.23986274 0 144
0.01250000 0.01249090 66327.93258137 0 -5375.17801370 0 12788.26352363 0 -118.57762456 0 -6709.75799369 0 169
0.01350000 0.01339930 66398.74868098 0 588.91680090 0 11927.67930367 0 -5657.34082835 0 -7392.02053046 0 180
0.01450000 0.01448870 66860.51461301 0 3493.51556264 0 18593.27278064 0 5119.56561608 0 13806.21685383 0 267
0.01550000 0.01550050 67463.23830520 0 1744.07688612 0 26584.02657229 0 17255.41053064 0 7697.02434740 0 238
0.01650000 0.01653350 69203.40344487 0 -5877.64634203 0 26848.96871002 0 13880.06792914 0 38940.87392087 0 315
0.01750000 0.01747870 80287.80913070 0 -7973.27457976 0 46927.69348476 0 15433.63826667 0 40840.65630091 0 297
0.01850000 0.01844180 83369.43352860 0 -3604.98909594 0 30100.21452745 0 4763.84398305 0 36946.78248119 0 388
0.01950000 0.01947590 87808.02928275 0 3196.29027601 0 45542.62050168 0 -1997.94698288 0 43211.08472706 0 399
0.02050000 0.02045430 83955.52105771 0 8744.13592559 0 41180.79839203 0 -1699.21544905 0 46025.06923106 0 462
0.02150000 0.02154770 75263.01344093 0 7772.39291055 0 40743.42467209 0 10920.50575752 0 40018.73991946 0 571
0.02250000 0.02255340 67894.54207375 0 5809.02216932 0 26556.26216498 0 13640.41725555 0 14058.34464973 0 510
0.02350000 0.02348930 59791.60658781 0 3985.45140123 0 14814.16600488 0 13729.33080283 0 6401.56183195 0 555
0.02450000 0.02439640 54710.60764439 0 2640.90096404 0 8543.61395720 0 8079.18399095 0 -6489.71101498 0 592
0.02550000 0.02547300 52888.49816089 0 2810.73595594 0 1323.46297642 0 -5712.76847711 0 -5327.40524810 0 837
0.02650000 0.02652900 53852.04674155 0 356.29827842 0 7722.59682781 0 -9945.80645134 0 -4027.10925284 0 723
0.02750000 0.02749970 53232.91169929 0 -769.90139426 0 5161.74053762 0 -8993.67837182 0 -4488.35811493 0 826
0.02850000 0.02848090 58383.04064471 0 -1695.49479366 0 17537.55086399 0 -6886.57342969 0 -1388.42269699 0 831
0.02950000 0.02946900 60130.73702036 0 -1225.12976382 0 18901.94104971 0 -1924.38816449 0 -3900.57324756 0 996
0.03050000 0.03053250 62904.14277522 0 -804.53833542 0 18957.02023829 0 -1617.03505156 0 -9815.56103132 0 1041
0.03150000 0.03150510 60713.90198029 0 1761.71346712 0 28836.99019830 0 -5267.06543497 0 -15994.09711211 0 1036
0.03250000 0.03246190 62858.39332675 0 6038.83727351 0 20243.96234049 0 -7125.93184636 0 -11935.88497870 0 1059
0.03350000 0.03345080 54954.41735874 0 3795.29331281 0 34731.58744163 0 -3335.88791744 0 -22625.51901086 0 1302
0.03450000 0.03451200 52732.92755478 0 4966.04080840 0 24253.72726924 0 -7514.90332425 0 -18563.70986922 0 1339
0.03550000 0.03553350 50676.00087751 0 1005.14685682 0 30740.25718007 0 1908.99971364 0 -28651.29464822 0 1365
0.03650000 0.03647120 49350.27853030 0 946.43918618 0 29701.62105253 0 2061.16440259 0 -22094.39826382 0 1308
0.03750000 0.03744890 49549.01323522 0 -1192.14969458 0 26364.27185050 0 6534.62865530 0 -24049.25983245 0 1579
0.03850000 0.03847530 49992.23209355 0 -884.97755612 0 21772.69083990 0 8163.70244379 0 -16465.08037774 0 1662
0.03950000 0.03950240 49813.61815343 0 -125.74466347 0 17059.93561443 0 8132.28482500 0 -18262.46042963 0 1683
0.04050000 0.04050350 49431.43602858 0 -642.70556278 0 12917.19378752 0 9581.11477902 0 -14758.86200328 0 1822
0.04150000 0.04152450 46698.94624238 0 1126.40312845 0 5946.70890012 0 6298.54126800 0 -10942.79596792 0 1887
0.04250000 0.04250150 46623.18425645 0 1327.36348222 0 3405.53498937 0 5662.79254396 0 -10492.90016306 0 1920
0.04350000 0.04349210 42817.43713846 0 1982.80582634 0 3003.64800378 0 1590.97922316 0 -11713.09528121 0 2005
0.04450000 0.04448520 41879.29242845 0 2470.63882742 0 308.94366502 0 -1521.80425856 0 -9664.17194727 0 2151
0.04550000 0.04548030 37719.01518641 0 2352.35345978 0 458.44319567 0 -2167.35483005 0 -9200.02299729 0 2274
0.04650000 0.04648670 38662.10578274 0 1108.40459850 0 4947.48249404 0 -6277.98211781 0 -7583.93216039 0 2311
0.04750000 0.04749250 38227.99185151 0 667.46646821 0 8936.03631487 0 -5765.64449815 0 -7100.31440334 0 2568
0.04850000 0.04851840 39080.25798993 0 1142.56718420 0 14360.60574789 0 -6950.99359903 0 -5685.76843405 0 2493
0.04950000 0.04949480 38900.63239125 0 473.74734164 0 17484.27017952 0 -5373.94154212 0 -6235.06531332 0 2644
0.05050000 0.05050630 39319.00941146 0 -424.23564737 0 21067.34000653 0 42.88386938 0 -3667.01500667 0 2829
0.05150000 0.05149060 40208.36969729 0 -286.54666843 0 17868.02599548 0 3947.81770258 0 -4906.10565870 0 2784
0.05250000 0.05249300 40203.98584351 0 -700.27567956 0 15549.64178221 0 5090.21627702 0 -7082.95883861 0 3055
0.05350000 0.05348950 40704.64442707 0 319.10970954 0 18347.10252963 0 4210.72528253 0 -5352.32577077 0 3009
0.05450000 0.05448610 38368.83720517 0 1611.80814897 0 11616.08846541 0 3939.35349258 0 -2931.56171064 0 3336
0.05550000 0.05550870 38004.30290196 0 1013.04678615 0 11568.42810631 0 2569.79260752 0 948.60525958 0 3349
0.05650000 0.05647670 36165.66966189 0 737.14501396 0 9378.95167562 0 2084.54495611 0 -93.31707221 0 3324
0.05750000 0.05747970 36295.83639736 0 1242.21555293 0 12139.56556995 0 2756.29748444 0 3859.75844475 0 3639
0.05850000 0.05849280 34535.10086685 0 521.01202984 0 10615.74923490 0 1535.90003458 0 648.02351464 0 3846
0.05950000 0.05951020 34669.20183007 0 554.51254121 0 12416.42279745 0 1017.73526157 0 6626.74578804 0 3787
0.06050000 0.06049470 33470.61124263 0 219.81542130 0 10127.37668259 0 1272.35173754 0 94.19743997 0 3930
0.06150000 0.06148310 34172.70228729 0 17.39614348 0 10987.38762937 0 1102.58980988 0 3895.77348970 0 4083
0.06250000 0.06249100 32948.14579665 0 889.78855463 0 8906.15866523 0 -400.53361124 0 -966.88592986 0 4303
0.06350000 0.06350600 32457.37898574 0 1133.27116605 0 9895.67314908 0 -739.21554183 0 83.47711896 0 4470
0.06450000 0.06451750 30868.28819190 0 847.25955259 0 8753.62303481 0 -888.90166729 0 -1406.21664710 0 4479
0.06550000 0.06550280 31392.55214199 0 771.01421868 0 10742.55501580 0 -1062.03691424 0 85.27730918 0 4636
0.06650000 0.06648880 30623.57922548 0 944.86324695 0 11158.56025870 0 56.43705919 0 -741.63003360 0 4653
0.06750000 0.06749660 30263.54118257 0 984.98337754 0 12678.44236599 0 487.49240936 0 442.37805765 0 5220
0.06850000 0.06852730 29628.44441627 0 426.61978939 0 11659.70219024 0 -211.76149506 0 2302.70350550 0 5029
0.06950000 0.06949320 30346.38477846 0 4.52734069 0 13508.67682898 0 566.72775636 0 1644.19246372 0 5040
0.07050000 0.07048030 29562.23698346 0 -223.76088971 0 11334.84738412 0 703.41519331 0 1655.10713558 0 5475
0.07150000 0.07148790 30789.82844979 0 -180.91490132 0 12286.48087500 0 -208.61860911 0 1165.68920276 0 5509
0.07250000 0.07249820 30628.30029879 0 112.39032077 0 11011.15036502 0 597.83288506 0 986.82122393 0 5916
0.07350000 0.07351270 30173.27875720 0 447.61395276 0 10736.40637985 0 1198.99525087 0 1236.53902431 0 5721
0.07450000 0.07449140 29811.10499065 0 776.32655022 0 10016.93728916 0 1684.34406813 0 192.17690929 0 6028
0.07550000 0.07549160 28814.28408382 0 810.15866079 0 11337.54514029 0 774.73487407 0 1675.46395406 0 6183
0.07650000 0.07648840 28344.42488327 0 918.92207319 0 10460.05498163 0 509.27117015 0 -423.04751059 0 6330
0.07750000 0.07749960 27123.69021388 0 700.78825324 0 11299.43933431 0 -214.61100002 0 1082.92653955 0 6583
0.07850000 0.07848650 27288.47815360 0 45.23597555 0 10780.19995510 0 -827.10394176 0 166.46279668 0 6549
0.07950000 0.07947320 26757.69462608 0 262.10162529 0 10907.96119131 0 -204.96876982 0 -417.08884163 0 6828
0.08050000 0.08048110 26914.05207775 0 468.82506069 0 11170.61023629 0 -821.01038500 0 -2842.71560726 0 7147
0.08150000 0.08149960 25979.72918899 0 543.72151651 0 10703.12281304 0 -113.29114652 0 -1827.17901697 0 7386
0.08250000 0.08250610 25915.88229284 0 709.09959039 0 10160.48039900 0 -211.80645766 0 -2932.23614969 0 7227
0.08350000 0.08350160 25654.08753731 0 208.98955059 0 10878.99403437 0 704.43584440 0 -2797.41578482 0 7798
0.08450000 0.08449610 25105.99340767 0 636.81770993 0 8941.36438332 0 1477.43741013 0 -3407.45714064 0 7371
0.08550000 0.08548940 24634.11088998 0 586.37978603 0 10476.29772193 0 1422.00976137 0 -2740.88655229 0 8256
0.08650000 0.08650700 23852.32363164 0 612.68628094 0 7606.95301309 0 1208.22382512 0 -1462.25129099 0 8037
0.08750000 0.08749060 23750.37092951 0 528.30383997 0 9577.45032688 0 1137.94727675 0 -670.76222701 0 8155
0.08850000 0.08849210 23054.46224276 0 604.71441144 0 7785.04988327 0 1043.36506931 0 -199.48558039 0 8718
0.08950000 0.08949900 22358.89077552 0 740.63636008 0 8855.89047516 0 1371.35938918 0 183.11919293 0 8571
0.09050000 0.09049190 21949.39386939 0 644.78283504 0 7454.38366072 0 372.64106051 0 1508.14686793 0 8932
0.09150000 0.09150830 21470.31733524 0 446.42356785 0 8239.93653705 0 1002.70538748 0 1926.10798406 0 9285
0.09250000 0.09250820 20806.44450306 0 290.59555083 0 7418.16628406 0 982.94994382 0 1905.18913305 0 9204
0.09350000 0.09350330 20839.71682923 0 164.70700703 0 6805.74191028 0 1234.75176085 0 1515.74554782 0 9349
0.09450000 0.09448040 20488.78371341 0 311.30082947 0 6737.92706442 0 -81.54473870 0 880.11372654 0 9564
0.09550000 0.09549270 20067.37171750 0 738.60405043 0 6621.06925942 0 -385.92750968 0 949.03015618 0 10155
0.09650000 0.09649430 19341.78771282 0 833.25032958 0 6969.39454428 0 -528.47919412 0 1034.96605508 0 9913
0.09750000 0.09749140 18910.37153776 0 699.61023304 0 6759.82385205 0 -311.47168737 0 296.24397782 0 10476
0.09850000 0.09850240 18371.04511569 0 343.36478568 0 7599.41053645 0 -18.15837200 0 -336.98459233 0 10575
0.09950000 0.09950330 18169.50024808 0 404.27899606 0 6526.83888435 0 493.56011262 0 -359.90989950 0 10882
0.10050000 0.10051200 17765.73607382 0 165.15326087 0 7334.59204588 0 1035.59440746 0 -418.29608752 0 10875
0.10150000 0.10150300 17266.76358788 0 278.87717244 0 6754.12484213 0 310.71181938 0 -204.62368184 0 11118
0.10250000 0.10250800 17587.23454022 0 144.65930645 0 6543.65489784 0 842.77790514 0 327.97521077 0 11575
0.10350000 0.10349800 16757.67451627 0 204.33592118 0 5918.01151880 0 260.44924963 0 -799.86222472 0 11364
0.10450000 0.10450100 17053.52844351 0 177.85294806 0 5669.01986446 0 399.69618276 0 -256.38350626 0 12093
0.10550000 0.10551000 16285.34237255 0 138.36791424 0 5124.78127802 0 100.49366567 0 -1105.04814019 0 12067
0.10650000 0.10649700 16774.08586634 0 30.87345889 0 5612.24333762 0 233.11873144 0 -322.90792542 0 12054
0.10750000 0.10749900 16544.77659142 0 -48.21789538 0 4841.50563895 0 -90.45441568 0 -1668.21373434 0 12807
0.10850000 0.10850100 16846.13843752 0 -27.44225026 0 4592.49150330 0 362.80773925 0 -1064.10406990 0 12736
0.10950000 0.10950300 16661.00491998 0 171.49860820 0 5487.86553728 0 -424.14684623 0 -1798.32426655 0 12933
0.11050000 0.11050200 17018.90723926 0 169.70460035 0 4632.91288333 0 -529.95396749 0 -1934.40358430 0 13428
0.11150000 0.11150900 16700.90923008 0 167.82179135 0 5991.71646565 0 -177.45615309 0 -1179.06557713 0 13453
0.11250000 0.11250000 16716.53373459 0 249.59415322 0 5302.70953844 0 -719.19032255 0 -1764.45618589 0 13668
0.11350000 0.11349100 16549.49766473 0 228.39765814 0 6247.35134457 0 306.83716707 0 -448.40641864 0 13791
0.11450000 0.11448600 16123.13978250 0 462.11551627 0 6080.42768122 0 565.09786200 0 -894.91766356 0 14205
0.11550000 0.11549300 15757.81863375 0 442.71302904 0 5650.55147531 0 1090.13067261 0 194.18898577 0 14776
0.11650000 0.11649800 15340.34086560 0 270.13419430 0 5360.44152060 0 1464.19592357 0 181.16781596 0 14553
0.11750000 0.11747300 14921.73903238 0 227.82101276 0 4645.09774873 0 1161.69877175 0 545.42559916 0 14568
0.11850000 0.11849100 14862.38839652 0 -14.55450697 0 4348.41201333 0 1090.27904920 0 592.06755530 0 16015
0.11950000 0.11950300 14618.24146264 0 139.23232028 0 4230.56503107 0 0.41413255 0 -116.48911166 0 15270
0.12050000 0.12050700 14675.00674883 0 239.49105634 0 3933.81185177 0 -527.98123329 0 226.52159353 0 15999
0.12150000 0.12150000 14203.91107670 0 341.53255962 0 4022.54554864 0 -639.26479959 0 -913.26352962 0 15670
0.12250000 0.12250700 14215.03932092 0 115.85963521 0 4353.79628503 0 -439.58812814 0 404.62745623 0 16887
0.12350000 0.12352200 14240.21837856 0 -226.98583241 0 3534.91487928 0 667.69914968 0 -1171.93900456 0 16407
0.12450000 0.12449800 14397.25026927 0 -249.58066444 0 3737.60629326 0 1033.45081536 0 -663.15230646 0 16306
0.12550000 0.12549900 14291.36333938 0 -103.20491062 0 2774.47361668 0 1084.13378544 0 -1481.29295333 0 17523
0.12650000 0.12650100 14227.62884974 0 188.07182364 0 2404.85853934 0 669.09299037 0 -723.69894756 0 17154
0.12750000 0.12750600 13952.57012635 0 504.71983067 0 1905.76240623 0 214.03210650 0 -233.18954754 0 18007
0.12850000 0.12850300 13554.20146444 0 579.28581136 0 1892.61084488 0 -20.90603667 0 2.70833363 0 17496
0.12950000 0.12949900 12965.19136614 0 423.87257435 0 2398.06918630 0 -197.90964116 0 440.84033663 0 18405
0.13050000 0.13049000 13113.11832976 0 311.16706573 0 2204.57262462 0 -153.49895419 0 834.76107304 0 18100
0.13150000 0.13148800 12789.16277569 0 171.88416252 0 2871.13197231 0 -149.10948008 0 698.68287936 0 19059
0.13250000 0.13249300 12693.84205749 0 282.26960083 0 2800.97907110 0 -355.37317286 0 516.12571896 0 18957
0.13350000 0.13349100 12541.86845961 0 285.57884841 0 3519.59387233 0 -223.86317963 0 662.38569408 0 19468
0.13450000 0.13450700 12339.31193344 0 310.53534116 0 3252.13382884 0 -136.59751175 0 1117.57472137 0 19953
0.13550000 0.13551000 12227.69227168 0 212.09759051 0 4045.91486151 0 9.94264783 0 1578.34473174 0 19956
0.13650000 0.13649900 12021.76355029 0 36.87405547 0 4016.95894523 0 227.49390982 0 1429.34990630 0 19723
0.13750000 0.13749600 12101.57217048 0 68.97993931 0 3781.00644573 0 277.88462298 0 1261.92041366 0 20946
0.13850000 0.13851100 12098.98682081 0 109.90343921 0 3929.78769881 0 286.01273752 0 1640.42684573 0 20955
0.13950000 0.13949800 11839.32778892 0 138.81529214 0 3548.90948944 0 114.19264671 0 1456.68716888 0 20506
0.14050000 0.14048300 11843.14961017 0 213.72523674 0 3593.18641267 0 224.96363934 0 1796.28970876 0 21447
0.14150000 0.14148400 11487.38301454 0 261.75766138 0 3102.86922778 0 155.95054011 0 980.89852506 0 21771
0.14250000 0.14249400 11307.30778983 0 390.16411094 0 3533.65592640 0 -162.52070046 0 1096.94925134 0 22470
0.14350000 0.14350900 11079.52724341 0 321.19260212 0 3374.38714619 0 -426.72095525 0 539.28145947 0 22519
0.14450000 0.14449900 10797.70164829 0 186.23397725 0 3635.88964480 0 55.47474708 0 756.01919060 0 22218
0.14550000 0.14550500 10662.90376472 0 202.77909106 0 3936.90303072 0 -202.70602683 0 713.84539313 0 23559
0.14650000 0.14650700 10767.03715309 0 -104.11349242 0 3609.30550582 0 292.43114909 0 479.79593580 0 23044
0.14750000 0.14750500 10830.69295818 0 -92.31901483 0 3896.23435638 0 371.99022684 0 573.59691802 0 23649
0.14850000 0.14849900 10837.08888845 0 32.26583830 0 3461.13124788 0 277.85989355 0 551.98789106 0 23640
0.14950000 0.14949500 10732.26982038 0 193.03232281 0 3509.97187531 0 424.16932753 0 488.59174500 0 24457
0.15050000 0.15050000 10614.71509504 0 317.46632640 0 3289.86869334 0 30.75363355 0 799.52612926 0 24591
0.15150000 0.15149900 10102.54608513 0 369.01707472 0 3275.35701325 0 195.25347539 0 781.06111230 0 25020
0.15250000 0.15250500 9909.99373811 0 314.95066877 0 3214.46640824 0 -121.32034334 0 272.72966056 0 25297
0.15350000 0.15350100 9620.33340942 0 229.81285606 0 3184.94845942 0 -28.05059427 0 387.08304857 0 25452
0.15450000 0.15450400 9445.55253120 0 125.33437972 0 2973.59050373 0 -53.54675067 0 62.97271074 0 26061
0.15550000 0.15549900 9275.02061896 0 81.30463840 0 2936.39519046 0 88.21921229 0 -6.70517181 0 26128
0.15650000 0.15649500 9267.64675208 0 14.41602216 0 2573.00743363 0 206.07822205 0 -476.65417392 0 26331
0.15750000 0.15749700 9336.91164189 0 0.33631690 0 2730.68004143 0 39.49908464 0 -721.43058424 0 27345
0.15850000 0.15849900 9335.89998332 0 1.89881568 0 2317.84466203 0 34.89929795 0 -1022.44059797 0 26980
0.15950000 0.15949700 9360.59569298 0 39.84866887 0 2405.97136376 0 -98.50991562 0 -1217.29503026 0 27777
0.16050000 0.16050000 9410.22316596 0 2.68834775 0 2389.12162832 0 -104.61358897 0 -1016.04129551 0 28224
0.16150000 0.16150500 9389.28183364 0 50.70961042 0 2514.56729047 0 52.24249796 0 -1031.56238604 0 28075
0.16250000 0.16249700 9388.66359785 0 80.46698510 0 2282.78507240 0 236.77756326 0 -1057.09889637 0 28590
0.16350000 0.16349900 9297.14221960 0 129.12809934 0 2407.81483048 0 172.75980921 0 -544.57580596 0 29163
0.16450000 0.16449100 9151.66571784 0 184.44221752 0 2328.20854201 0 199.55639649 0 -410.97505170 0 28996
0.16550000 0.16550500 9041.64222849 0 200.33312546 0 2443.23412094 0 269.57553396 0 122.28703930 0 30777
0.16650000 0.16650700 8813.22096498 0 137.19888656 0 2425.29404237 0 163.24684650 0 224.40835119 0 29211
0.16750000 0.16749900 8822.86544331 0 81.74662078 0 2473.59511856 0 224.48928388 0 778.34424702 0 30922
0.16850000 0.16850800 8821.16810505 0 52.28240227 0 2656.17700838 0 315.16086894 0 763.83593912 0 30867
0.16950000 0.16949900 8673.92682112 0 124.32496928 0 2411.43432002 0 211.35683163 0 972.78839556 0 30852
0.17050000 0.17049200 8647.39888540 0 147.32671287 0 2601.26642956 0 143.34977064 0 896.75438589 0 31257
0.17150000 0.17149500 8487.96149543 0 120.48853519 0 2375.41927508 0 72.79445413 0 907.54990685 0 32608
0.17250000 0.17250900 8574.35713695 0 58.46936884 0 2450.06843658 0 43.80099408 0 1039.61181603 0 32361
0.17350000 0.17350400 8354.37760214 0 44.15957084 0 2484.26249610 0 -114.62765989 0 718.44843960 0 32508
0.17450000 0.17449800 8567.47785870 0 18.30124067 0 2437.10796629 0 -19.56749998 0 881.63121439 0 32791
0.17550000 0.17549800 8435.50137847 0 55.88874025 0 2485.58889289 0 -185.25379250 0 514.33171111 0 33633
0.17650000 0.17650100 8570.73764741 0 57.47524569 0 2573.62566942 0 129.12585121 0 952.71146929 0 33984
0.17750000 0.17750300 8381.59121756 0 -2.73345648 0 2550.02030288 0 207.53501038 0 760.93472717 0 34069
