### header ###
fiducial parameters:
Omega_m = 0.31
Omega_nu = 0
Omega_de = 0.69
Omega_k = 0
H_0 = 100
w_de = -1
zeff = 0
beta = 0
fgrowth = 0
b_1 = 2
gamma = 0.55
Lx = 3500 Ly = 3500 Lz = 3500
nx = 700 ny = 700 nz = 700
xoffset = 857.220397 yoffset = 15.9954215 zoffset = 262.898189
bins = 400 dk = 0.001
kx_ny = 0.628318531 ky_ny = 0.628318531 kz_ny = 0.628318531
############################
A(data) = 3.0685939 (not used)
A(ran) = 3.06676687 (used)
Ngal = 187289
weighted Ngal = 0
Nran = 9360983
weighted Nran = 0
SN(data) = 3451.01956
SN(ran) = 68.8680585
SN(data+ran) = 3519.88762
############################
13 columns: k_central k_mean P_0(k) sigma^{lin}_{P_0(k)} P^img_1(k) sigma^{lin}_{P_1(k)} P_2(k) sigma^{lin}_{P_2(k)} P^img_3(k) sigma^{lin}_{P_3(k)} P_4(k) sigma^{lin}_{P_4(k)} N_modes
### header ###
0.00050000 0 0 0 0 0 0 0 0 0 0 0 0
0.00150000 0.00179520 269.51033819 0 -6856.80818656 0 -6833.22530132 0 2003.48862369 0 -5896.69924502 0 3
0.00250000 0.00253879 8271.97239163 0 -16953.03702597 0 -8914.96009475 0 -6201.87167171 0 6021.02084210 0 6
0.00350000 0.00331552 16476.65824799 0 -21893.97746129 0 -17978.40918565 0 5880.16424779 0 -14307.99950246 0 7
0.00450000 0.00420575 38346.58071672 0 -31899.84270948 0 -23913.69758463 0 -11741.98375359 0 -345.64326559 0 24
0.00550000 0.00557378 62948.99297164 0 -29271.89097508 0 -29115.98314944 0 -22482.53793356 0 7129.01178466 0 45
0.00650000 0.00659388 112175.39953088 0 -27288.92777963 0 -20548.80878831 0 -51182.39219294 0 -10952.21563323 0 40
0.00750000 0.00754703 101096.72657692 0 -9189.56919211 0 -11588.99849714 0 -37837.49164511 0 -9639.73477258 0 57
0.00850000 0.00846663 117954.89251073 0 1284.59280619 0 -1768.96368684 0 -46112.18427422 0 -11280.55504109 0 75
0.00950000 0.00948925 103519.76124850 0 8216.06139490 0 5677.72012813 0 -23398.65096814 0 5242.39220662 0 112
0.01050000 0.01054430 106360.94812726 0 8519.19926381 0 22891.58521366 0 -22124.07358175 0 -39352.95617666 0 105
0.01150000 0.01145670 99194.35884721 0 5586.41232224 0 17316.44726411 0 -8341.06867168 0 -32195.47182370 0 144
0.01250000 0.01249090 99559.56758946 0 1039.72759473 0 15985.55421756 0 1220.34124661 0 -32831.35543556 0 169
0.01350000 0.01339930 90928.43392567 0 5410.04651227 0 7135.43019622 0 -5668.25550021 0 -12472.17642508 0 180
0.01450000 0.01448870 92036.76208775 0 1613.07834250 0 8050.10442751 0 5337.24081749 0 -19007.15354055 0 267
0.01550000 0.01550050 91380.19567855 0 3736.78572576 0 -11646.32581587 0 15452.07293386 0 -39753.68537522 0 238
0.01650000 0.01653350 82445.67685153 0 6132.24708109 0 -3078.91540108 0 -1017.11814985 0 -12440.25297700 0 315
0.01750000 0.01747870 75690.38298172 0 8952.30153648 0 -104.59234414 0 -4986.24025776 0 -20652.67240106 0 297
0.01850000 0.01844180 70298.58004559 0 4166.31347149 0 -6522.69108423 0 -9002.31119158 0 -2240.55394761 0 388
0.01950000 0.01947590 65129.67921345 0 6673.58557964 0 5574.75576743 0 -18052.14785445 0 -16696.63778280 0 399
0.02050000 0.02045430 66001.61649065 0 3662.02415775 0 9815.30249635 0 -14794.60727261 0 -10541.43729292 0 462
0.02150000 0.02154770 61199.94771790 0 5185.68312368 0 19258.94411693 0 -14496.95484125 0 -17386.81373768 0 571
0.02250000 0.02255340 60791.79968985 0 7554.79639370 0 25017.86670594 0 -9804.33162124 0 -21676.80808917 0 510
0.02350000 0.02348930 57776.71994428 0 2605.94254027 0 35133.55311177 0 -1266.86629999 0 -14234.26083367 0 555
0.02450000 0.02439640 56443.24154806 0 3333.15643931 0 37383.48176209 0 4172.69816110 0 -12413.27541525 0 592
0.02550000 0.02547300 57547.29826286 0 -115.01883454 0 44744.75911280 0 8949.88479657 0 -2458.70125634 0 837
0.02650000 0.02652900 56655.80225339 0 -1774.68517806 0 39018.20959789 0 13502.04484505 0 -1911.37149095 0 723
0.02750000 0.02749970 61228.16175123 0 -1428.22584123 0 42604.87643314 0 17868.47562151 0 14914.20779639 0 826
0.02850000 0.02848090 61557.73763066 0 -3007.79580390 0 28961.87382792 0 13207.76460891 0 5981.55491739 0 831
0.02950000 0.02946900 61343.82804725 0 -2864.20773146 0 26555.47531943 0 13880.06792914 0 17493.26270010 0 996
0.03050000 0.03053250 64139.37788405 0 -1554.15485137 0 15778.61383760 0 8882.87927756 0 13589.27229472 0 1041
0.03150000 0.03150510 63446.61657950 0 -1265.21392433 0 9842.70720283 0 7371.37145507 0 6838.63205432 0 1036
0.03250000 0.03246190 62051.53941728 0 1053.53223789 0 4567.85199690 0 4192.74024136 0 8379.03958985 0 1059
0.03350000 0.03345080 61148.46553755 0 558.70980019 0 29.61652933 0 -1411.73580661 0 1230.57023878 0 1302
0.03450000 0.03451200 58298.28613820 0 3249.51475722 0 6012.27561583 0 -6425.04355133 0 6270.84430460 0 1339
0.03550000 0.03553350 59255.09032842 0 3889.48996594 0 8544.78298488 0 -3810.89533603 0 5520.44094310 0 1365
0.03650000 0.03647120 52727.30722941 0 5188.41460181 0 12377.97977195 0 -2965.80073277 0 6780.96751607 0 1308
0.03750000 0.03744890 51750.94430692 0 5164.19099948 0 18623.84735063 0 -2711.04262460 0 8304.92997958 0 1579
0.03850000 0.03847530 46179.62817861 0 3483.34277373 0 20022.52152109 0 1727.49692629 0 10408.94374275 0 1662
0.03950000 0.03950240 43228.50773569 0 3376.72520154 0 21825.63430484 0 5608.79245785 0 9554.95778477 0 1683
0.04050000 0.04050350 42122.09048424 0 1247.31880836 0 18139.26289762 0 4279.85528452 0 9780.38903518 0 1822
0.04150000 0.04152450 40575.60175667 0 1186.75418223 0 20586.01534223 0 5048.40105630 0 11346.76247389 0 1887
0.04250000 0.04250150 38797.66803055 0 915.98039490 0 12362.24286093 0 4538.13171637 0 9242.77119202 0 1920
0.04350000 0.04349210 38213.82863158 0 200.21060236 0 16122.01571743 0 4442.68735101 0 11213.33594971 0 2005
0.04450000 0.04448520 37484.31039914 0 781.48038858 0 10952.75518447 0 450.11274942 0 8654.93012139 0 2151
0.04550000 0.04548030 37822.76639265 0 590.77488047 0 13340.40428754 0 3258.96814448 0 11743.55744470 0 2274
0.04650000 0.04648670 37028.95163803 0 -263.96307705 0 8020.44035023 0 1341.11079806 0 7310.70566307 0 2311
0.04750000 0.04749250 37750.15178893 0 -1201.49067533 0 7592.39637039 0 2079.56534784 0 6547.80269796 0 2568
0.04850000 0.04851840 38153.12911764 0 -1398.29198833 0 6615.78615358 0 1362.49051575 0 3875.86629725 0 2493
0.04950000 0.04949480 39889.92206208 0 -1144.06219075 0 3952.67366370 0 3126.99166425 0 3074.07068061 0 2644
0.05050000 0.05050630 39623.51863976 0 597.47206017 0 4689.19482154 0 -2008.71552628 0 2012.51486623 0 2829
0.05150000 0.05149060 39028.66340307 0 730.17131425 0 3548.20132844 0 -412.31044101 0 -2163.15082667 0 2784
0.05250000 0.05249300 38569.70763373 0 1195.83662802 0 6270.87802655 0 -1395.29073459 0 1292.31513324 0 3055
0.05350000 0.05348950 37555.46371827 0 1464.01607316 0 6194.27299182 0 -2924.59250719 0 -581.29451564 0 3009
0.05450000 0.05448610 36912.72330947 0 1153.93148209 0 11438.48618386 0 -2891.09536801 0 1712.71547058 0 3336
0.05550000 0.05550870 36094.74115578 0 681.74321870 0 11995.79764710 0 -2870.19899830 0 -1387.96183031 0 3349
0.05650000 0.05647670 35640.73127275 0 1113.68545621 0 12267.59658177 0 -3212.39812851 0 -710.72386442 0 3324
0.05750000 0.05747970 35306.32191351 0 1078.61575000 0 14685.23574100 0 -1878.57127212 0 -3024.21839462 0 3639
0.05850000 0.05849280 34847.59095717 0 816.27582291 0 14189.63545027 0 -1870.82646376 0 -4914.68227521 0 3846
0.05950000 0.05951020 33827.72671635 0 435.28071078 0 13330.96214093 0 -517.81631283 0 -6358.75743397 0 3787
0.06050000 0.06049470 34373.01068331 0 659.65646408 0 11641.60474257 0 664.01896063 0 -10355.64057699 0 3930
0.06150000 0.06148310 33197.80064939 0 38.29273800 0 13232.15682100 0 443.50661898 0 -9319.97198124 0 4083
0.06250000 0.06249100 33583.69218898 0 407.96030918 0 11153.46824392 0 1725.04646443 0 -10518.64125324 0 4303
0.06350000 0.06350600 32328.56112836 0 803.20294611 0 10472.13868116 0 767.83086639 0 -8851.42793682 0 4470
0.06450000 0.06451750 32203.67749874 0 447.10475128 0 10625.12393761 0 1163.80077343 0 -6999.99159557 0 4479
0.06550000 0.06550280 31122.77652445 0 646.52288777 0 9530.13842795 0 2001.31917810 0 -7333.69279382 0 4636
0.06650000 0.06648880 31382.88518236 0 138.20829700 0 9498.08009207 0 2064.81761408 0 -3738.11212254 0 4653
0.06750000 0.06749660 30098.07880381 0 307.90278076 0 7606.23361144 0 2720.83323139 0 -5566.99971843 0 5220
0.06850000 0.06852730 30795.89840119 0 631.36487026 0 8143.14329361 0 1612.14536849 0 -2690.16873619 0 5029
0.06950000 0.06949320 29309.88437455 0 499.43447669 0 6227.18561716 0 1537.01285900 0 -2990.57512698 0 5040
0.07050000 0.07048030 28370.61559947 0 759.79155299 0 5834.21246760 0 1509.13604519 0 -1732.40909066 0 5475
0.07150000 0.07148790 28247.41806746 0 582.43768982 0 4072.89242326 0 1584.56081160 0 -3751.85943839 0 5509
0.07250000 0.07249820 27284.99355187 0 757.11178186 0 3833.77006026 0 -578.69904939 0 -3590.23012153 0 5916
0.07350000 0.07351270 27242.39148560 0 787.53123086 0 5582.19707822 0 -1767.61480875 0 -4250.10128204 0 5721
0.07450000 0.07449140 26011.65263706 0 897.86046592 0 4704.32473743 0 -2099.07911751 0 -3263.66673649 0 6028
0.07550000 0.07549160 26265.57893708 0 714.18823297 0 6359.70164863 0 -1592.21569474 0 -3811.37868401 0 6183
0.07650000 0.07648840 25373.63330157 0 272.05072525 0 6997.06902638 0 -352.81817295 0 -5086.09095820 0 6330
0.07750000 0.07749960 25812.46830611 0 165.67932332 0 7358.19741241 0 76.88200437 0 -4322.63720121 0 6583
0.07850000 0.07848650 25823.25933081 0 143.15418332 0 7976.28707416 0 302.09586059 0 -4820.41817818 0 6549
0.07950000 0.07947320 25417.35943292 0 463.74878282 0 7452.47275009 0 882.34162352 0 -3489.67126009 0 6828
0.08050000 0.08048110 25458.27540158 0 737.98918683 0 8217.36531038 0 454.07845099 0 -3029.46777851 0 7147
0.08150000 0.08149960 24185.38411280 0 749.35798098 0 8510.86994162 0 10.23627611 0 -1457.40657053 0 7386
0.08250000 0.08250610 23843.44351756 0 841.83481455 0 8364.53915040 0 851.82662898 0 -988.91872936 0 7227
0.08350000 0.08350160 23001.06915178 0 475.30304770 0 7949.09594004 0 1436.75749513 0 739.73373583 0 7798
0.08450000 0.08449610 22914.62854766 0 66.64525615 0 7230.60478596 0 1651.76866232 0 1385.57881236 0 7371
0.08550000 0.08548940 22061.23834417 0 64.77807166 0 6940.16885238 0 1731.37495079 0 506.57903430 0 8256
0.08650000 0.08650700 22490.85601510 0 157.51411463 0 5467.78973508 0 1288.65068110 0 2311.77471064 0 8037
0.08750000 0.08749060 21543.38156499 0 248.80730767 0 4779.35608106 0 1402.67584212 0 2032.11856110 0 8155
0.08850000 0.08849210 21489.08922196 0 422.42702667 0 4491.95512317 0 754.86477577 0 3085.72723542 0 8718
0.08950000 0.08949900 20559.26259349 0 261.76440577 0 3178.20406898 0 931.96572430 0 570.36073468 0 8571
0.09050000 0.09049190 20909.52127027 0 439.83654652 0 3093.15730555 0 104.22983316 0 954.46838300 0 8932
0.09150000 0.09150830 20201.80990024 0 574.88622066 0 3771.11467309 0 -1322.35015199 0 506.67570389 0 9285
0.09250000 0.09250820 19816.93001922 0 719.21842418 0 4331.52855593 0 -1520.78135935 0 -321.56691579 0 9204
0.09350000 0.09350330 19445.20169954 0 608.76666603 0 5630.48691376 0 -1665.18999929 0 1452.30331509 0 9349
0.09450000 0.09448040 19295.36382530 0 153.52705581 0 5379.82040246 0 61.89079811 0 637.46292328 0 9564
0.09550000 0.09549270 19260.51780803 0 -184.10499800 0 6606.36648827 0 991.47260521 0 1068.81839882 0 10155
0.09650000 0.09649430 19588.96962239 0 -270.76479481 0 5488.67486413 0 1112.13312235 0 232.85682428 0 9913
0.09750000 0.09749140 19628.64911947 0 -0.74018336 0 5720.94043019 0 1147.25453556 0 578.66420337 0 10476
0.09850000 0.09850240 19422.04595904 0 226.97908802 0 5104.37949694 0 872.71063397 0 685.29189214 0 10575
0.09950000 0.09950330 18753.90167959 0 708.16099605 0 4756.99842675 0 -156.78234827 0 1222.69054261 0 10882
0.10050000 0.10051200 18512.67731490 0 638.19806184 0 4765.92350343 0 415.07676515 0 861.47785170 0 10875
0.10150000 0.10150300 17594.42855668 0 699.06281335 0 5144.22760378 0 165.99406154 0 976.09989127 0 11118
0.10250000 0.10250800 17351.51809439 0 601.47260777 0 5153.75967560 0 394.83909758 0 1317.43798762 0 11575
0.10350000 0.10349800 16480.70488226 0 295.68756561 0 5336.95980122 0 -60.86902296 0 504.46579196 0 11364
0.10450000 0.10450100 16940.55990366 0 223.53045637 0 5671.97615560 0 -86.65934718 0 1450.12262885 0 12093
0.10550000 0.10551000 16255.44224161 0 -35.87757178 0 5202.65650628 0 -252.16264191 0 1053.19726650 0 12067
0.10650000 0.10649700 16957.98291230 0 0.92548661 0 6108.38317958 0 123.39536746 0 1744.65015931 0 12054
0.10750000 0.10749900 16730.58454801 0 -16.81792440 0 5569.12420142 0 91.00003687 0 1706.24085576 0 12807
0.10850000 0.10850100 16595.13470670 0 352.83953019 0 5669.64934090 0 679.09154920 0 1291.06742101 0 12736
0.10950000 0.10950300 16335.47567481 0 305.65689874 0 5541.38227541 0 603.12048717 0 2170.34484314 0 12933
0.11050000 0.11050200 15919.12197174 0 336.40457475 0 5756.53957105 0 600.09000773 0 2152.04506375 0 13428
0.11150000 0.11150900 15820.54146483 0 495.37210552 0 5284.84814443 0 177.49437130 0 2065.49205312 0 13453
0.11250000 0.11250000 15329.77465391 0 326.20818047 0 5797.62414948 0 74.14468110 0 1776.38251632 0 13668
0.11350000 0.11349100 15082.92996386 0 364.18921523 0 5308.02636624 0 -400.48078018 0 2420.69661622 0 13791
0.11450000 0.11448600 14875.53995787 0 120.95277406 0 5096.69089184 0 -15.63507073 0 2170.46849030 0 14205
0.11550000 0.11549300 14896.89719426 0 -38.59128968 0 5386.51983029 0 34.23767325 0 1588.58496456 0 14776
0.11650000 0.11649800 14844.17854233 0 -93.08472796 0 4608.53191190 0 550.99758973 0 1377.05839910 0 14553
0.11750000 0.11747300 14741.77621417 0 0.91697070 0 4358.23634207 0 79.31346953 0 379.50572591 0 14568
0.11850000 0.11849100 14736.83032785 0 112.57848927 0 4649.95370984 0 336.69233541 0 570.23821158 0 16015
0.11950000 0.11950300 14516.51357352 0 150.62584386 0 4209.06166622 0 168.42991055 0 -65.15800565 0 15270
0.12050000 0.12050700 14759.53644233 0 102.83835300 0 4114.47159032 0 285.99812468 0 437.18375295 0 15999
0.12150000 0.12150000 14560.46451788 0 115.27624544 0 4309.38447399 0 -64.70444540 0 496.88734524 0 15670
0.12250000 0.12250700 14519.21132970 0 115.24477162 0 4298.46980213 0 474.24642654 0 1381.64458460 0 16887
0.12350000 0.12352200 14411.63830220 0 155.45932367 0 3861.03987894 0 775.60490044 0 1972.35202116 0 16407
0.12450000 0.12449800 14427.82483926 0 73.85040086 0 3684.60662506 0 995.64176256 0 2367.49461631 0 16306
0.12550000 0.12549900 14265.06021667 0 99.90105856 0 3292.22923000 0 987.44508005 0 2317.28262950 0 17523
0.12650000 0.12650100 14067.44957682 0 138.36903830 0 3126.94670165 0 672.97213894 0 2412.49094119 0 17154
0.12750000 0.12750600 14004.16471321 0 260.40316296 0 2713.63921492 0 160.14217877 0 2150.28028158 0 18007
0.12850000 0.12850300 13560.72104187 0 275.50947348 0 2805.56525660 0 -358.81618418 0 1773.40374388 0 17496
0.12950000 0.12949900 13581.17902620 0 370.84592859 0 2847.62777163 0 -902.05997303 0 1263.50534542 0 18405
0.13050000 0.13049000 13173.81784371 0 310.83883873 0 3162.96174659 0 -675.26073543 0 1273.39711806 0 18100
0.13150000 0.13148800 13074.33808474 0 267.52523927 0 3459.23157791 0 -450.82990293 0 1537.97955497 0 19059
0.13250000 0.13249300 12882.34777025 0 167.31034174 0 4078.70383969 0 215.14605499 0 999.92782269 0 18957
0.13350000 0.13349100 12868.97139588 0 184.58609785 0 3723.42059204 0 406.32367043 0 1190.22754330 0 19468
0.13450000 0.13450700 12510.61945058 0 240.04297230 0 3612.58777583 0 513.10985237 0 948.92224593 0 19953
0.13550000 0.13551000 12402.48439055 0 228.02222040 0 3379.02953494 0 342.08447557 0 1237.39331377 0 19956
0.13650000 0.13649900 11992.31304537 0 355.58337303 0 3301.99735548 0 -107.10406755 0 1031.56463417 0 19723
0.13750000 0.13749600 11897.32954670 0 224.50277266 0 2729.65714221 0 -116.20697132 0 732.63751302 0 20946
0.13850000 0.13851100 11536.84187775 0 89.75693331 0 2773.24838575 0 -101.96045818 0 306.17172055 0 20955
0.13950000 0.13949800 11737.93711933 0 104.36348449 0 2771.40491903 0 -175.40923059 0 140.74306374 0 20506
0.14050000 0.14048300 11594.73122902 0 -29.45387711 0 3023.01564499 0 -345.54547193 0 223.67546077 0 21447
0.14150000 0.14148400 11727.03368812 0 154.28579974 0 3238.69001057 0 15.58493743 0 22.25019368 0 21771
0.14250000 0.14249400 11663.97363752 0 190.85388470 0 3476.66582719 0 6.38783700 0 749.37933822 0 22470
0.14350000 0.14350900 11503.11992556 0 235.69171640 0 3573.13309176 0 180.47988814 0 636.03760877 0 22519
0.14450000 0.14449900 11365.30954760 0 225.31434764 0 4038.24873771 0 519.63842232 0 828.94516035 0 22218
0.14550000 0.14550500 11273.36102462 0 26.72858134 0 3479.74576549 0 343.96166424 0 772.13153936 0 23559
0.14650000 0.14650700 11191.78762226 0 23.43473346 0 3473.49596369 0 275.89840000 0 583.12786578 0 23044
0.14750000 0.14750500 11202.33135265 0 -24.15492195 0 2914.94802886 0 132.01020218 0 784.11744524 0 23649
0.14850000 0.14849900 11211.02037566 0 -60.38376407 0 3050.85873685 0 70.30172743 0 385.25307063 0 23640
0.14950000 0.14949500 11175.21890309 0 158.63255938 0 2773.06853534 0 145.65297998 0 666.97300364 0 24457
0.15050000 0.15050000 11153.10854310 0 194.66896155 0 3059.13185579 0 224.19702696 0 901.04157008 0 24591
0.15150000 0.15149900 10906.33129695 0 231.85977856 0 2943.28570935 0 -57.47816826 0 1091.62343102 0 25020
0.15250000 0.15250500 10843.47357806 0 221.07887045 0 3104.64525060 0 246.69856159 0 1209.20176174 0 25297
0.15350000 0.15350100 10671.03075520 0 186.96124735 0 3057.58064599 0 287.74379774 0 1312.69443302 0 25452
0.15450000 0.15450400 10395.24138951 0 205.19021064 0 2952.27822994 0 298.07957608 0 1665.92064159 0 26061
0.15550000 0.15549900 10278.06884629 0 211.18260154 0 2833.64440212 0 473.48543448 0 1437.15091791 0 26128
0.15650000 0.15649500 9942.26564636 0 257.20407377 0 2671.35188687 0 486.87529763 0 1543.21769821 0 26331
0.15750000 0.15749700 9669.00542709 0 210.53176787 0 2200.75080337 0 166.16154724 0 953.10151987 0 27345
0.15850000 0.15849900 9539.08598594 0 194.60601391 0 2594.93794320 0 182.92922593 0 1577.82766181 0 26980
0.15950000 0.15949700 9408.17736752 0 165.89626788 0 2174.43644001 0 -198.97975111 0 1438.80329357 0 27777
0.16050000 0.16050000 9268.57972610 0 133.07581587 0 2499.32496808 0 -45.82341196 0 1429.57471932 0 28224
0.16150000 0.16150500 9253.06762809 0 151.63975056 0 2745.29288738 0 -349.69327205 0 1321.43965928 0 28075
0.16250000 0.16249700 9158.24149852 0 185.10429185 0 2492.98524107 0 -179.82905446 0 1000.26504221 0 28590
0.16350000 0.16349900 9041.55230328 0 167.93869412 0 2875.09992202 0 -41.80532895 0 1513.14895750 0 29163
0.16450000 0.16449100 8884.35180281 0 172.83512157 0 2501.53937628 0 193.39651989 0 920.35750429 0 28996
0.16550000 0.16550500 8739.58346204 0 119.87816785 0 2571.53490838 0 169.44606538 0 523.41752909 0 30777
0.16650000 0.16650700 8615.94754465 0 119.52858361 0 2286.41580259 0 147.17946035 0 236.10312421 0 29211
0.16750000 0.16749900 8504.24919834 0 132.34404951 0 2635.37056388 0 89.86956463 0 363.31356854 0 30922
0.16850000 0.16850800 8421.03466098 0 -16.19361866 0 2203.32491238 0 -134.91703446 0 188.86766171 0 30867
0.16950000 0.16949900 8473.77579421 0 -25.30068148 0 2374.81227994 0 45.24642935 0 192.68273857 0 30852
0.17050000 0.17049200 8592.31969682 0 -39.87440996 0 2389.18907222 0 48.76745079 0 90.38652215 0 31257
0.17150000 0.17149500 8521.17761834 0 57.81999645 0 2139.09583411 0 252.02775410 0 123.33466795 0 32608
0.17250000 0.17250900 8507.32913664 0 117.31529948 0 1924.57925556 0 -66.60231687 0 227.87834007 0 32361
0.17350000 0.17350400 8413.97553232 0 103.91711825 0 1935.78618434 0 127.34982839 0 -8.49825793 0 32508
0.17450000 0.17449800 8285.68598553 0 101.52780553 0 1971.46400976 0 -9.53579248 0 -87.32681702 0 32791
0.17550000 0.17549800 8341.83303593 0 60.66893938 0 1809.53119533 0 4.73208914 0 -384.82480184 0 33633
0.17650000 0.17650100 8212.62175578 0 45.71718781 0 1843.70277355 0 -97.18958879 0 -223.93849199 0 33984
0.17750000 0.17750300 8224.62677076 0 134.24821575 0 1942.66546258 0 -64.68601073 0 -388.84108635 0 34069
