### header ###
fiducial parameters:
Omega_m = 0.31
Omega_nu = 0
Omega_de = 0.69
Omega_k = 0
H_0 = 100
w_de = -1
zeff = 0
beta = 0
fgrowth = 0
b_1 = 2
gamma = 0.55
Lx = 3500 Ly = 3500 Lz = 3500
nx = 700 ny = 700 nz = 700
xoffset = 857.220397 yoffset = 15.9954215 zoffset = 262.898189
bins = 400 dk = 0.001
kx_ny = 0.628318531 ky_ny = 0.628318531 kz_ny = 0.628318531
############################
A(data) = 3.06771014 (not used)
A(ran) = 3.06536169 (used)
Ngal = 186769
weighted Ngal = 0
Nran = 9360983
weighted Nran = 0
SN(data) = 3453.40446
SN(ran) = 68.8365033
SN(data+ran) = 3522.24096
############################
13 columns: k_central k_mean P_0(k) sigma^{lin}_{P_0(k)} P^img_1(k) sigma^{lin}_{P_1(k)} P_2(k) sigma^{lin}_{P_2(k)} P^img_3(k) sigma^{lin}_{P_3(k)} P_4(k) sigma^{lin}_{P_4(k)} N_modes
### header ###
0.00050000 0 0 0 0 0 0 0 0 0 0 0 0
0.00150000 0.00179520 11554.26488639 0 -18007.18525153 0 -11268.75235782 0 40053.92315625 0 -45417.17483953 0 3
0.00250000 0.00253879 26219.60467559 0 -25387.79652149 0 11847.64587046 0 -3660.36054144 0 58014.12248772 0 6
0.00350000 0.00331552 44356.61944306 0 -27027.35783712 0 14934.77818722 0 -18415.44568608 0 -77310.04834555 0 7
0.00450000 0.00420575 63041.72834017 0 -20350.97333544 0 18110.82405127 0 -9386.07824819 0 1606.12037970 0 24
0.00550000 0.00557378 79944.96928340 0 -4263.50013771 0 21306.87827361 0 -14597.44625879 0 -6262.42505720 0 45
0.00650000 0.00659388 86995.66745442 0 1909.28072991 0 25794.37085843 0 -11773.12035612 0 9029.07518097 0 40
0.00750000 0.00754703 86617.86918335 0 11610.80535956 0 38724.94102032 0 -9881.01534052 0 -36307.41426761 0 57
0.00850000 0.00846663 78854.40134948 0 12847.50175299 0 26112.93090015 0 -20090.52745801 0 -30927.63882776 0 75
0.00950000 0.00948925 67012.71302391 0 16689.10654681 0 34722.70732755 0 -6906.40193758 0 -39565.85410151 0 112
0.01050000 0.01054430 61580.21893213 0 8168.51344231 0 28378.14683546 0 -4082.99776827 0 -30835.46549176 0 105
0.01150000 0.01145670 57852.93155624 0 -970.25025663 0 19231.40452264 0 16422.14109195 0 -39717.49047987 0 144
0.01250000 0.01249090 62832.09020404 0 -8545.47990522 0 18385.99518116 0 16734.74358878 0 -27461.24695533 0 169
0.01350000 0.01339930 71477.16227473 0 -13245.30838236 0 13589.04748171 0 17999.42920252 0 -23774.87554810 0 180
0.01450000 0.01448870 77830.04084837 0 -2385.44593553 0 7891.26279203 0 -2434.54509792 0 -23240.49501235 0 267
0.01550000 0.01550050 81485.16324656 0 2960.80988384 0 17173.46618681 0 -10848.17217007 0 -31187.97229869 0 238
0.01650000 0.01653350 77044.88139481 0 7151.41440156 0 25719.05849854 0 -28857.78540215 0 -10669.98537468 0 315
0.01750000 0.01747870 82971.85171225 0 5772.02918776 0 41623.56762432 0 -27202.14995598 0 -14333.06615359 0 297
0.01850000 0.01844180 77843.75444226 0 3286.01315014 0 59995.84921159 0 -26669.79273736 0 -16254.09336352 0 388
0.01950000 0.01947590 79844.47786587 0 1627.97220472 0 72695.19918794 0 -5782.75276856 0 -26630.56286631 0 399
0.02050000 0.02045430 80326.92659524 0 1194.06060520 0 68729.94723608 0 4541.97601892 0 -30629.53677037 0 462
0.02150000 0.02154770 78965.34657220 0 2165.36523487 0 60405.23371121 0 9376.60237962 0 -31880.50879022 0 571
0.02250000 0.02255340 79591.33841141 0 482.89723134 0 66527.45413185 0 13476.30375488 0 -37615.82601270 0 510
0.02350000 0.02348930 79868.08323240 0 -1848.40136555 0 38170.66453278 0 20113.79560502 0 -38037.35041511 0 555
0.02450000 0.02439640 80527.57221079 0 589.17196367 0 42155.70002993 0 5761.65406714 0 -48426.52185323 0 592
0.02550000 0.02547300 80541.84783722 0 -3819.11225171 0 13410.32113509 0 11492.10408784 0 -38911.64822896 0 837
0.02650000 0.02652900 73663.24402890 0 2641.21570226 0 19174.18961042 0 7772.94370243 0 -52043.20122592 0 723
0.02750000 0.02749970 76017.14869847 0 5075.26621155 0 1599.36474861 0 -3564.47779070 0 -38929.97048966 0 826
0.02850000 0.02848090 67607.68066710 0 6346.86482549 0 12766.00703519 0 -3624.25557129 0 -44317.50197851 0 831
0.02950000 0.02946900 60513.14395823 0 7700.38530196 0 15547.50605857 0 -4673.35674466 0 -29188.93497269 0 996
0.03050000 0.03053250 58036.37897617 0 4214.00755254 0 20665.14952338 0 -1411.87069442 0 -14154.22740046 0 1041
0.03150000 0.03150510 53554.84393623 0 3050.73508969 0 21789.32700298 0 2208.12467025 0 -22046.73790472 0 1036
0.03250000 0.03246190 55241.84079793 0 2295.49824838 0 27392.45417286 0 6504.68356176 0 1256.72723303 0 1059
0.03350000 0.03345080 50807.06686504 0 1141.85902321 0 19754.09478163 0 5670.48114906 0 -7382.09503587 0 1302
0.03450000 0.03451200 50818.98195481 0 568.45432031 0 20742.82241993 0 11387.11641002 0 3724.69078557 0 1339
0.03550000 0.03553350 48451.58850436 0 590.97721218 0 19588.96962239 0 3358.26805304 0 -4767.39602868 0 1365
0.03650000 0.03647120 48414.15713742 0 1596.04875664 0 11712.64565519 0 2827.41708162 0 -3417.98963038 0 1308
0.03750000 0.03744890 45946.72189546 0 259.67252067 0 16063.11470760 0 66.28690421 0 -3555.81124899 0 1579
0.03850000 0.03847530 48143.70708084 0 72.43452850 0 14474.24872678 0 -2503.15802998 0 1965.28165185 0 1662
0.03950000 0.03950240 48829.83640145 0 215.80812932 0 17765.62366732 0 -1774.26927398 0 -211.10728918 0 1683
0.04050000 0.04050350 48872.21365471 0 436.53966366 0 20944.14247452 0 -692.76804894 0 4250.91060889 0 1822
0.04150000 0.04152450 50275.72130498 0 2283.99906268 0 22752.42595761 0 -1648.35150449 0 6517.57658814 0 1887
0.04250000 0.04250150 48308.38261404 0 854.81776614 0 25051.02662559 0 3146.66280303 0 3882.90294461 0 1920
0.04350000 0.04349210 46576.31074291 0 221.26096899 0 24967.84581018 0 3371.30720789 0 7403.75576982 0 2005
0.04450000 0.04448520 47481.40793977 0 -146.29482113 0 20353.44627861 0 4822.73375223 0 -2630.30103040 0 2151
0.04550000 0.04548030 46158.94538126 0 804.47763591 0 22235.13121097 0 3539.69215584 0 2221.71461698 0 2274
0.04650000 0.04648670 44905.72523127 0 1216.38453755 0 11013.37601386 0 3271.31037899 0 -5371.24378595 0 2311
0.04750000 0.04749250 42717.28294045 0 753.83063591 0 14834.96120873 0 3333.59482469 0 -833.03563315 0 2568
0.04850000 0.04851840 41637.73084424 0 714.16125541 0 7666.19124244 0 1846.80519315 0 -3942.42219023 0 2493
0.04950000 0.04949480 42234.27217854 0 -132.10462365 0 10816.28244394 0 4256.33984319 0 -1025.65317595 0 2644
0.05050000 0.05050630 40188.58615201 0 836.47976854 0 6595.75531398 0 1193.40864746 0 -1541.71145101 0 2829
0.05150000 0.05149060 41361.54805578 0 1541.29554693 0 9218.03051976 0 194.97245912 0 1261.02116161 0 2784
0.05250000 0.05249300 38902.76811489 0 1484.64266725 0 8324.61235901 0 374.62615943 0 215.74180948 0 3055
0.05350000 0.05348950 38727.52636999 0 1303.52206202 0 10979.53041451 0 -1262.63981531 0 2155.63083133 0 3009
0.05450000 0.05448610 37487.12056183 0 901.65306148 0 10629.78880767 0 1491.03859751 0 2893.82684614 0 3336
0.05550000 0.05550870 36362.83067571 0 643.83862037 0 12507.92169440 0 -218.60255509 0 1941.56387881 0 3349
0.05650000 0.05647670 36531.55284318 0 596.78638048 0 9570.32375432 0 856.21385496 0 1316.28020060 0 3324
0.05750000 0.05747970 35620.72291445 0 851.06451286 0 11750.75146116 0 601.85478989 0 1554.05368551 0 3639
0.05850000 0.05849280 35197.96204046 0 190.68302681 0 10572.73126456 0 283.24641338 0 1571.54413805 0 3846
0.05950000 0.05951020 35383.76999704 0 -335.04220788 0 11777.16699038 0 1208.01025276 0 4835.72794447 0 3787
0.06050000 0.06049470 36225.91954981 0 284.58967114 0 11221.17068327 0 2018.18015419 0 2337.53828211 0 3930
0.06150000 0.06148310 35890.83575152 0 166.17166382 0 13734.83872169 0 32.52785787 0 6305.88141293 0 4083
0.06250000 0.06249100 35499.54869957 0 1683.36613152 0 13092.66034543 0 1938.57386572 0 5374.98692264 0 4303
0.06350000 0.06350600 34213.16862992 0 1856.21361781 0 13447.07806298 0 526.78410399 0 9116.78597862 0 4470
0.06450000 0.06451750 32389.26064231 0 1917.78990252 0 13561.84510694 0 1518.43206335 0 8398.60956277 0 4479
0.06550000 0.06550280 31078.26354755 0 1702.66632883 0 14324.41085253 0 1646.59796298 0 9776.17379115 0 4636
0.06650000 0.06648880 29871.24247206 0 954.94273846 0 12389.33282919 0 191.65197090 0 8479.11510331 0 4653
0.06750000 0.06749660 28691.64858435 0 665.38245157 0 12584.47052588 0 2485.06058231 0 8194.29949508 0 5220
0.06850000 0.06852730 28805.85359577 0 -92.93567693 0 12404.84492720 0 -449.85758664 0 9899.78722724 0 5029
0.06950000 0.06949320 28364.77046109 0 -136.81108411 0 10835.07681197 0 1258.60442170 0 3455.05005584 0 5040
0.07050000 0.07048030 28824.51307599 0 -275.37570974 0 11748.27851800 0 -652.27360468 0 5950.74429373 0 5475
0.07150000 0.07148790 28543.04718168 0 -105.10188284 0 11009.52047066 0 -888.83309932 0 895.78544179 0 5509
0.07250000 0.07249820 29482.65317629 0 111.41024844 0 11679.03610950 0 -1416.95146855 0 2965.29490349 0 5916
0.07350000 0.07351270 29262.67364148 0 94.78555082 0 12888.64253466 0 -1554.35718308 0 1073.37086237 0 5721
0.07450000 0.07449140 29575.16373180 0 299.04739611 0 12561.98922442 0 -1293.63028938 0 -477.98619103 0 6028
0.07550000 0.07549160 29336.07509076 0 591.34253333 0 14522.92074444 0 -372.17344944 0 846.86388168 0 6183
0.07650000 0.07648840 28871.04937001 0 707.59109506 0 14203.91107670 0 -601.95370762 0 -921.94243604 0 6330
0.07750000 0.07749960 28426.70644662 0 1184.74210575 0 15855.72470161 0 1444.36741568 0 1688.06472353 0 6583
0.07850000 0.07848650 27037.36201627 0 747.63478922 0 14031.47949448 0 105.46540548 0 -1034.72775328 0 6549
0.07950000 0.07947320 27369.52324537 0 345.37461404 0 15457.24363320 0 2860.34094761 0 3229.07925419 0 6828
0.08050000 0.08048110 26807.49070882 0 -90.45475290 0 13529.69684585 0 2890.56705743 0 853.97359327 0 7147
0.08150000 0.08149960 26869.31428784 0 -278.14428201 0 11324.84320497 0 2001.81376673 0 1512.18226154 0 7386
0.08250000 0.08250610 26658.21486711 0 460.20348158 0 10430.72812387 0 1796.28970876 0 1787.66812965 0 7227
0.08350000 0.08350160 25656.78529349 0 1270.82300904 0 9049.09477992 0 1360.87186205 0 985.86127236 0 7798
0.08450000 0.08449610 24559.92259516 0 1114.82863039 0 8161.27446324 0 325.38648891 0 2652.60248145 0 7371
0.08550000 0.08548940 23236.44837809 0 865.21536807 0 8606.74145171 0 1094.09300199 0 1264.31467227 0 8256
0.08650000 0.08650700 23095.04099189 0 391.01615226 0 7946.28577736 0 -564.36272345 0 1616.29316861 0 8037
0.08750000 0.08749060 22761.19366518 0 201.66289444 0 9175.40597219 0 -152.94366604 0 731.61686193 0 8155
0.08850000 0.08849210 22738.48755071 0 341.35832953 0 9387.59573604 0 -1464.37577398 0 858.72951259 0 8718
0.08950000 0.08949900 22679.36172786 0 481.50001845 0 10490.66327357 0 -1937.58468845 0 720.65160714 0 8571
0.09050000 0.09049190 22300.77661124 0 680.99683950 0 10882.02901007 0 -572.26490091 0 151.27330534 0 8932
0.09150000 0.09150830 21622.29093312 0 676.48484229 0 11497.72441321 0 168.82670552 0 315.99267709 0 9285
0.09250000 0.09250820 21144.33846404 0 765.68052991 0 10098.79170778 0 1795.68271363 0 382.25968534 0 9204
0.09350000 0.09350330 20172.69661485 0 384.73937289 0 10047.15215833 0 2777.95821840 0 989.02439148 0 9349
0.09450000 0.09448040 19646.07212810 0 474.56453695 0 7916.76782854 0 3187.55629039 0 -133.63897248 0 9564
0.09550000 0.09549270 19129.00219448 0 377.97474929 0 6475.32298205 0 2093.91965882 0 944.96666094 0 10155
0.09650000 0.09649430 18191.64433002 0 645.71018872 0 5268.94262364 0 1079.13394400 0 229.04511962 0 9913
0.09750000 0.09749140 17679.63268922 0 510.14344465 0 5523.76817572 0 77.56734684 0 1494.97282527 0 10476
0.09850000 0.09850240 17411.54316929 0 565.56884527 0 5620.13427443 0 -1048.41998994 0 519.51927142 0 10575
0.09950000 0.09950330 16989.34432783 0 210.56773795 0 6147.79290105 0 -1067.48076138 0 390.52830802 0 10882
0.10050000 0.10051200 17002.60829570 0 239.81703522 0 6937.60598401 0 -1193.36368486 0 -160.46141325 0 10875
0.10150000 0.10150300 16920.43913885 0 90.15406550 0 7033.35384694 0 -362.37722233 0 -497.35608037 0 11118
0.10250000 0.10250800 17076.79659052 0 -122.85918842 0 7306.77143532 0 533.58582174 0 308.84924355 0 11575
0.10350000 0.10349800 17118.04977870 0 -149.40735732 0 6700.70926985 0 1000.15038757 0 -112.79206163 0 11364
0.10450000 0.10450100 17293.62874312 0 -48.60569783 0 6145.38740179 0 1322.53000241 0 21.71817368 0 12093
0.10550000 0.10551000 17165.48532479 0 253.56772325 0 5408.94492850 0 554.61932739 0 -590.41630371 0 12067
0.10650000 0.10649700 17040.60169517 0 263.85629087 0 5290.16497222 0 -208.17460341 0 354.60094016 0 12054
0.10750000 0.10749900 16696.63778280 0 265.67390409 0 5018.50092536 0 -540.65956325 0 -397.90667116 0 12807
0.10850000 0.10850100 16554.55595756 0 226.30464897 0 5075.72707823 0 -55.84894834 0 191.42940601 0 12736
0.10950000 0.10950300 16350.87536631 0 72.34977399 0 5111.10140608 0 497.41228363 0 -640.54173752 0 12933
0.11050000 0.11050200 16330.41738198 0 91.27487078 0 4660.50868088 0 947.12036962 0 -1000.38868937 0 13428
0.11150000 0.11150900 15999.15540494 0 288.47331597 0 4320.14177674 0 1018.42543753 0 -633.10492299 0 13453
0.11250000 0.11250000 15790.64133388 0 318.40604480 0 3752.99474411 0 309.37305787 0 -1419.78411253 0 13668
0.11350000 0.11349100 15414.86637994 0 417.35524506 0 3928.94465000 0 -92.95984433 0 -417.03039025 0 13791
0.11450000 0.11448600 14946.35605748 0 288.55312459 0 3731.42393536 0 -334.25536233 0 -926.95689034 0 14205
0.11550000 0.11549300 14960.63168391 0 16.79049722 0 3572.63850313 0 -23.49194837 0 -520.76023926 0 14776
0.11650000 0.11649800 14908.02543848 0 -208.18471999 0 3906.00248186 0 475.84259894 0 -748.64195153 0 14553
0.11750000 0.11747300 15018.07140914 0 -39.06823049 0 3250.95356051 0 1002.24002454 0 -1279.60195726 0 14568
0.11850000 0.11849100 15082.48033783 0 84.15155801 0 3247.95230677 0 870.32424382 0 -495.21136421 0 16015
0.11950000 0.11950300 14917.91721113 0 188.74738675 0 2767.94279860 0 885.96673338 0 18.76075848 0 15270
0.12050000 0.12050700 14887.00542162 0 133.36245247 0 3014.02312441 0 422.71928358 0 1282.55824841 0 15999
0.12150000 0.12150000 15093.94580157 0 -10.15992961 0 3153.75565364 0 411.66635172 0 1627.59002259 0 15670
0.12250000 0.12250700 14994.24122959 0 10.28278992 0 3646.03995241 0 -197.85681010 0 2417.13332994 0 16887
0.12350000 0.12352200 15195.44887768 0 -17.99021187 0 3893.08697417 0 -607.45937835 0 2746.19213944 0 16407
0.12450000 0.12449800 15210.84856918 0 221.91292673 0 4660.68853129 0 -369.61058108 0 2809.04985833 0 16306
0.12550000 0.12549900 15122.72186745 0 461.17354974 0 4970.03123941 0 -675.59795495 0 2372.63159369 0 17523
0.12650000 0.12650100 14638.13741443 0 494.54816582 0 5003.01130865 0 -51.11865770 0 1904.84067287 0 17154
0.12750000 0.12750600 14223.46980897 0 344.99355598 0 4727.39055273 0 58.19858157 0 1614.50590514 0 18007
0.12850000 0.12850300 13963.58596407 0 162.05758565 0 4843.50647478 0 281.08258811 0 613.04373363 0 17496
0.12950000 0.12949900 13904.23532821 0 27.11908155 0 4443.68776893 0 127.36893750 0 128.92464356 0 18405
0.13050000 0.13049000 13653.68122341 0 165.47474348 0 4699.35636980 0 -64.71512401 0 -138.26337619 0 18100
0.13150000 0.13148800 13627.49050721 0 290.36736562 0 4220.34727955 0 109.51226456 0 332.59174602 0 19059
0.13250000 0.13249300 13246.20763441 0 380.67587766 0 4408.70686385 0 94.31838937 0 52.52283979 0 18957
0.13350000 0.13349100 13029.93751435 0 292.09617770 0 3991.79112824 0 582.16679014 0 301.92500270 0 19468
0.13450000 0.13450700 12631.23163292 0 281.53109008 0 3876.10235092 0 560.21155113 0 382.76888682 0 19953
0.13550000 0.13551000 12454.52860343 0 368.23697356 0 3326.06358870 0 523.27589689 0 437.73679296 0 19956
0.13650000 0.13649900 12115.96020341 0 311.15020475 0 3365.33842235 0 41.57455839 0 434.48150051 0 19723
0.13750000 0.13749600 11628.90280724 0 340.13871892 0 2823.32548475 0 58.43946871 0 -97.88055159 0 20946
0.13850000 0.13851100 11598.89026979 0 150.47859134 0 3020.44153597 0 -44.30176507 0 -118.20331089 0 20955
0.13950000 0.13949800 11333.16128651 0 41.57725614 0 3002.64758587 0 -221.31942037 0 -655.92007178 0 20506
0.14050000 0.14048300 11597.76620471 0 73.26880959 0 3537.25293463 0 -125.54233175 0 -31.33410076 0 21447
0.14150000 0.14148400 11509.07747045 0 23.61469628 0 3546.08808611 0 -182.50208120 0 -450.79730505 0 21771
0.14250000 0.14249400 11508.96506394 0 116.29914466 0 3580.02361066 0 41.05366663 0 204.52251599 0 22470
0.14350000 0.14350900 11455.12234694 0 141.18369725 0 3865.58110183 0 124.03608456 0 480.11966654 0 22519
0.14450000 0.14449900 11312.25367615 0 226.61489093 0 3942.82685366 0 176.82105632 0 296.36200465 0 22218
0.14550000 0.14550500 11310.90479806 0 153.11902019 0 3987.66580942 0 12.96047029 0 1102.64938533 0 23559
0.14650000 0.14650700 11104.05434331 0 139.35259524 0 4196.87680083 0 -87.47114698 0 694.68120770 0 23044
0.14750000 0.14750500 11056.98973870 0 132.11136804 0 4177.61032547 0 -161.52253068 0 1040.37842841 0 23649
0.14850000 0.14849900 11104.41404413 0 38.21101847 0 4513.45848801 0 -234.71377978 0 649.84112786 0 23640
0.14950000 0.14949500 11094.80328776 0 150.64944923 0 4562.13050568 0 -236.54038553 0 773.70747859 0 24457
0.15050000 0.15050000 10912.39000769 0 141.62433075 0 4551.35072163 0 -42.86048883 0 626.60782687 0 24591
0.15150000 0.15149900 10729.07747557 0 275.62750031 0 4594.43613588 0 6.78966778 0 490.06764244 0 25020
0.15250000 0.15250500 10466.38346799 0 156.50807639 0 4278.15794626 0 526.69193065 0 215.51587240 0 25297
0.15350000 0.15350100 10277.45061050 0 150.68092305 0 4004.02095624 0 741.29393815 0 -39.09453362 0 25452
0.15450000 0.15450400 10092.18220516 0 120.95277406 0 3538.68049727 0 640.75868207 0 -125.17026621 0 26061
0.15550000 0.15549900 9923.95462632 0 187.93131551 0 3512.73707539 0 375.11962400 0 -133.60862272 0 26128
0.15650000 0.15649500 9681.74108436 0 274.12462531 0 3203.13583230 0 169.00543187 0 72.79569061 0 26331
0.15750000 0.15749700 9460.61500318 0 205.66006984 0 3188.10708228 0 -18.62114959 0 183.90716254 0 27345
0.15850000 0.15849900 9509.54555582 0 81.88173340 0 3299.96279770 0 -11.66217513 0 376.97433137 0 26980
0.15950000 0.15949700 9423.92551920 0 70.33949601 0 3123.79931944 0 111.20229640 0 317.22240428 0 27777
0.16050000 0.16050000 9424.54375499 0 43.56111859 0 3198.15622403 0 277.99028510 0 498.29804690 0 28224
0.16150000 0.16150500 9322.25383334 0 33.83716886 0 3028.18634433 0 152.28496391 0 444.25974258 0 28075
0.16250000 0.16249700 9407.50292848 0 -17.54114787 0 2696.47474125 0 490.21039870 0 506.08107347 0 28590
0.16350000 0.16349900 9303.49318727 0 -12.78140673 0 2659.32439059 0 425.10342560 0 519.68788118 0 29163
0.16450000 0.16449100 9226.87691188 0 104.40035383 0 2137.98300969 0 416.67968195 0 568.53300487 0 28996
0.16550000 0.16550500 9090.89875999 0 196.58661657 0 2406.93805973 0 159.45200281 0 458.29931534 0 30777
0.16650000 0.16650700 8913.74610447 0 192.76479532 0 1926.26535317 0 -77.62433694 0 316.36137043 0 29211
0.16750000 0.16749900 8672.04963245 0 208.70628619 0 2339.67400575 0 -259.91981498 0 308.28271475 0 30922
0.16850000 0.16850800 8583.85548682 0 172.95876873 0 2309.87504066 0 -201.63928907 0 287.17614488 0 30867
0.16950000 0.16949900 8460.63547350 0 224.03853378 0 2657.55960842 0 -251.09815229 0 236.61794602 0 30852
0.17050000 0.17049200 8344.29473844 0 172.43045815 0 2587.57531697 0 -162.44651217 0 -0.94189234 0 31257
0.17150000 0.17149500 8284.91038063 0 141.90197483 0 3050.65640514 0 -161.49330499 0 246.34785329 0 32608
0.17250000 0.17250900 8256.56145948 0 39.92274476 0 2702.24119508 0 243.98731664 0 239.47981569 0 32361
0.17350000 0.17350400 8218.24208114 0 -38.05679674 0 2884.33973692 0 271.35380491 0 266.10891728 0 32508
0.17450000 0.17449800 8323.64566305 0 -15.37788464 0 2565.95954562 0 153.77884639 0 428.59814392 0 32791
0.17550000 0.17549800 8291.66601172 0 35.00507247 0 2627.92925310 0 438.80577885 0 656.23705813 0 33633
0.17650000 0.17650100 8248.00732428 0 88.68198988 0 2425.10295131 0 468.34733303 0 774.61459911 0 33984
0.17750000 0.17750300 8143.28942207 0 63.61871094 0 2008.91785799 0 549.04621276 0 946.69772115 0 34069
