### header ###
fiducial parameters:
Omega_m = 0.31
Omega_nu = 0
Omega_de = 0.69
Omega_k = 0
H_0 = 100
w_de = -1
zeff = 0
beta = 0
fgrowth = 0
b_1 = 2
gamma = 0.55
Lx = 3500 Ly = 3500 Lz = 3500
nx = 700 ny = 700 nz = 700
xoffset = 857.220397 yoffset = 15.9954215 zoffset = 262.898189
bins = 400 dk = 0.001
kx_ny = 0.628318531 ky_ny = 0.628318531 kz_ny = 0.628318531
############################
A(data) = 3.06362861 (not used)
A(ran) = 3.06460505 (used)
Ngal = 187160
weighted Ngal = 0
Nran = 9360983
weighted Nran = 0
SN(data) = 3446.82473
SN(ran) = 68.819512
SN(data+ran) = 3515.64424
############################
13 columns: k_central k_mean P_0(k) sigma^{lin}_{P_0(k)} P^img_1(k) sigma^{lin}_{P_1(k)} P_2(k) sigma^{lin}_{P_2(k)} P^img_3(k) sigma^{lin}_{P_3(k)} P_4(k) sigma^{lin}_{P_4(k)} N_modes
### header ###
0.00050000 0 0 0 0 0 0 0 0 0 0 0 0
0.00150000 0.00179520 5893.06851483 0 -12663.04267449 0 -10352.79669235 0 21831.36703672 0 10988.02834646 0 3
0.00250000 0.00253879 14347.56659304 0 -16528.70246088 0 -14639.93591855 0 972.35787864 0 -611.28569586 0 6
0.00350000 0.00331552 24685.36825732 0 -18471.31172021 0 -23712.93956258 0 -2794.95408231 0 10251.87813009 0 7
0.00450000 0.00420575 35184.47325958 0 -17056.45101270 0 -32426.80441575 0 4225.58542279 0 1309.42340365 0 24
0.00550000 0.00557378 53006.07536754 0 -15918.78475222 0 -44688.89307866 0 13207.65220241 0 15886.63649112 0 45
0.00650000 0.00659388 57112.39748608 0 -12698.00109826 0 -40791.53465722 0 12969.80003294 0 21805.28872702 0 40
0.00750000 0.00754703 68148.91799979 0 -4816.23665610 0 -41944.37579619 0 6931.32246025 0 33691.60243600 0 57
0.00850000 0.00846663 62416.74815953 0 3333.34753037 0 -12781.06950717 0 5691.46744397 0 50435.00132584 0 75
0.00950000 0.00948925 58658.99862016 0 171.64136447 0 -5088.85615828 0 2785.00610641 0 56780.68588301 0 112
0.01050000 0.01054430 74642.19230106 0 -3040.95572356 0 20789.24630745 0 -3487.52429580 0 58815.13125881 0 105
0.01150000 0.01145670 77885.90688250 0 -6634.34446794 0 38953.68826270 0 -19266.13813340 0 47159.47570283 0 144
0.01250000 0.01249090 89580.56749652 0 -685.52569768 0 72263.33338686 0 -28195.48626108 0 39101.16560029 0 169
0.01350000 0.01339930 92467.72863677 0 7335.39013208 0 86301.44486527 0 -33349.43702775 0 40257.37893448 0 180
0.01450000 0.01448870 95094.66871260 0 3017.38407897 0 99882.17426544 0 -5954.73472474 0 31651.31192182 0 267
0.01550000 0.01550050 100090.23871047 0 9039.52898615 0 113859.92344943 0 30279.16568709 0 2137.66827146 0 238
0.01650000 0.01653350 93785.13290244 0 2700.17291535 0 85367.57160254 0 38739.77867929 0 -6432.99069139 0 315
0.01750000 0.01747870 85743.00933696 0 6174.72550020 0 73275.44157868 0 41962.81046338 0 -26889.43505265 0 297
0.01850000 0.01844180 79440.26406558 0 8379.82643540 0 59807.90553137 0 27041.85827656 0 -16529.03968040 0 388
0.01950000 0.01947590 70179.65396086 0 7138.85859470 0 37902.35019983 0 17690.08649440 0 -16036.24955235 0 399
0.02050000 0.02045430 66949.99019283 0 3487.31072343 0 35657.81706186 0 6563.59581224 0 -6690.32290858 0 462
0.02150000 0.02154770 59769.01287984 0 2001.48778786 0 22839.09137475 0 3893.17689938 0 -13072.65198713 0 571
0.02250000 0.02255340 63574.75999783 0 -1105.77428623 0 30938.31744595 0 2744.42735727 0 -11867.65422877 0 510
0.02350000 0.02348930 60679.84280857 0 58.40080087 0 15757.93104025 0 -3260.89029576 0 -17622.75499653 0 555
0.02450000 0.02439640 63315.88781150 0 -4055.26708292 0 19110.23030776 0 3388.23562789 0 -24483.48617019 0 592
0.02550000 0.02547300 67170.64416668 0 -4151.74558814 0 9531.84700687 0 4172.73188306 0 -22852.91737515 0 837
0.02650000 0.02652900 72286.82634689 0 -4668.35465509 0 10664.35380866 0 5540.16828513 0 -26942.94055013 0 723
0.02750000 0.02749970 74265.29328205 0 -1603.28773571 0 6719.41371267 0 -878.13312389 0 -31882.98173338 0 826
0.02850000 0.02848090 77829.02918980 0 -60.60284435 0 9416.56289297 0 -3371.82427782 0 -24201.00861732 0 831
0.02950000 0.02946900 75789.63792768 0 3160.05041805 0 12747.45996148 0 -3482.88190705 0 -13106.14912631 0 996
0.03050000 0.03053250 74190.20573517 0 5205.16317140 0 21821.02563804 0 -4386.12439653 0 -6806.46131193 0 1041
0.03150000 0.03150510 68318.08979330 0 3120.38216162 0 26090.67441170 0 -2004.63517006 0 -11813.81151176 0 1036
0.03250000 0.03246190 68497.82779848 0 5171.57610701 0 31011.83130173 0 -8441.09922253 0 3896.69522306 0 1059
0.03350000 0.03345080 65844.92181946 0 5462.61903574 0 36207.14766309 0 869.96791519 0 1765.11938429 0 1302
0.03450000 0.03451200 60218.75131559 0 4314.79122700 0 39495.03800190 0 2745.28164673 0 9797.13760477 0 1339
0.03550000 0.03553350 56503.37902947 0 3312.14766309 0 31006.09856986 0 9228.00097696 0 1018.54234030 0 1365
0.03650000 0.03647120 53359.70623954 0 -105.34333202 0 24965.03564750 0 10968.78435241 0 -2768.86453196 0 1308
0.03750000 0.03744890 52351.98190150 0 445.24779578 0 21811.69589794 0 9098.32883012 0 -3641.07158478 0 1579
0.03850000 0.03847530 50688.36559332 0 225.64032651 0 16929.43165944 0 9023.39865235 0 -7080.28356374 0 1662
0.03950000 0.03950240 49480.89489179 0 2181.78782558 0 13348.49755607 0 -758.67985263 0 -5645.40325728 0 1683
0.04050000 0.04050350 47599.99680498 0 2005.50070017 0 15252.88860291 0 -3377.56825035 0 -7161.07012054 0 1822
0.04150000 0.04152450 46137.81295789 0 2336.42545769 0 13893.78152303 0 -3202.01176723 0 -3486.74869090 0 1887
0.04250000 0.04250150 44289.51275819 0 1448.86367597 0 18522.90630706 0 1286.52619811 0 -3960.21614034 0 1920
0.04350000 0.04349210 41602.21038793 0 1401.93395917 0 15223.10087847 0 4279.41689914 0 -2873.39134311 0 2005
0.04450000 0.04448520 42120.85401266 0 1627.25280307 0 19159.68917097 0 4411.43834198 0 -885.83296964 0 2151
0.04550000 0.04548030 39294.61719937 0 1328.85848877 0 13968.19463087 0 3794.50646726 0 -4567.57098063 0 2274
0.04650000 0.04648670 37726.20920287 0 1570.62240469 0 14950.17787873 0 -306.35381909 0 -1021.95050560 0 2311
0.04750000 0.04749250 36875.06712952 0 1496.38914726 0 14793.25839452 0 -570.68896168 0 -604.61324558 0 2568
0.04850000 0.04851840 36544.47959153 0 -482.84440028 0 14587.55448614 0 647.21868405 0 708.10254467 0 2493
0.04950000 0.04949480 37056.04160629 0 -1290.33677871 0 13043.87592126 0 1246.98158884 0 -1425.98895173 0 2644
0.05050000 0.05050630 40080.56349848 0 -1667.87651481 0 11105.32453684 0 2681.50219448 0 -808.80753457 0 2829
0.05150000 0.05149060 38719.20828845 0 -416.38742503 0 11058.48474524 0 3337.13562967 0 -3525.54017657 0 2784
0.05250000 0.05249300 39748.96430192 0 1652.33069485 0 8837.36588275 0 33.16936180 0 -1136.59839866 0 3055
0.05350000 0.05348950 38298.02110556 0 1614.40473929 0 12172.72548960 0 -1749.64100823 0 -3491.58217071 0 3009
0.05450000 0.05448610 36669.81284718 0 1156.05596508 0 8372.71110349 0 1076.46878571 0 1141.71289475 0 3336
0.05550000 0.05550870 35989.41625843 0 588.09398527 0 13878.38183153 0 -1107.31313131 0 142.92374998 0 3349
0.05650000 0.05647670 36674.19670096 0 -505.25713377 0 8717.73163702 0 1532.85381823 0 542.76381307 0 3324
0.05750000 0.05747970 35663.77460675 0 -345.05200736 0 10946.40421681 0 1576.83848454 0 -697.01926305 0 3639
0.05850000 0.05849280 36921.26620403 0 -148.44066136 0 10387.45161856 0 2479.72127321 0 282.92155857 0 3846
0.05950000 0.05951020 35777.08036612 0 303.88649625 0 9016.68798386 0 666.53686640 0 2688.02177190 0 3787
0.06050000 0.06049470 35992.00160810 0 852.52354933 0 10511.49219937 0 1725.92323519 0 1340.26774926 0 3930
0.06150000 0.06148310 34835.00142836 0 610.47861714 0 7036.52371044 0 1375.31609824 0 1469.80500828 0 4083
0.06250000 0.06249100 34605.91696646 0 728.67518364 0 7731.83664271 0 854.54911459 0 -1078.37520007 0 4303
0.06350000 0.06350600 33216.90975563 0 698.86385383 0 5307.08215158 0 328.06063971 0 -663.63565444 0 4470
0.06450000 0.06451750 32598.22433940 0 891.80512737 0 6296.14700939 0 -604.97631860 0 -4045.84741761 0 4479
0.06550000 0.06550280 32286.63350113 0 547.76140638 0 3575.36998126 0 -780.24166886 0 -5063.74454455 0 4636
0.06650000 0.06648880 32270.10974456 0 1090.10931537 0 5567.87648918 0 -1002.73461317 0 -7196.34328254 0 4653
0.06750000 0.06749660 30245.66854791 0 887.62585343 0 3492.41397887 0 -419.66519878 0 -8158.25072819 0 5220
0.06850000 0.06852730 30199.13225388 0 719.39939865 0 5211.10947563 0 908.16364638 0 -5828.86191786 0 5029
0.06950000 0.06949320 29272.45300762 0 74.48482319 0 4552.53098996 0 1418.76121331 0 -6346.95475070 0 5040
0.07050000 0.07048030 29226.25393311 0 291.92082355 0 4109.82920157 0 1303.58950592 0 -4481.33270823 0 5475
0.07150000 0.07148790 28731.10326841 0 226.71830492 0 4900.62022114 0 1477.86455486 0 -2556.98950633 0 5509
0.07250000 0.07249820 28590.81994729 0 304.67558993 0 4001.45808787 0 2079.85760476 0 447.48918154 0 5916
0.07350000 0.07351270 28644.43785128 0 367.69405013 0 3627.06573397 0 1663.63878949 0 1890.77861881 0 5721
0.07450000 0.07449140 27852.64641379 0 395.04592555 0 3922.77353275 0 1326.38554561 0 3364.95624023 0 6028
0.07550000 0.07549160 27470.12706941 0 787.71894973 0 3405.36637960 0 792.04772433 0 6004.54204813 0 6183
0.07650000 0.07648840 26915.06373631 0 970.99888397 0 5096.51104143 0 -409.25635620 0 6995.29300356 0 6330
0.07750000 0.07749960 26452.96058476 0 1072.67394202 0 4049.60179495 0 -670.71164408 0 7610.56126197 0 6583
0.07850000 0.07848650 25736.93113320 0 301.52595960 0 6326.62041353 0 32.87564360 0 6802.95422890 0 6549
0.07950000 0.07947320 25044.84426769 0 555.43090238 0 5172.54280298 0 -914.29204916 0 6039.70280362 0 6828
0.08050000 0.08048110 24964.58602147 0 553.31990817 0 6080.21410885 0 -543.96543863 0 3874.29260615 0 7147
0.08150000 0.08149960 24339.04380829 0 774.00872803 0 5877.16299405 0 -1338.84018662 0 2180.77616702 0 7386
0.08250000 0.08250610 23506.44880865 0 594.96876726 0 5355.36074646 0 -756.30357907 0 948.53331941 0 7227
0.08350000 0.08350160 23586.70705487 0 519.19554068 0 6421.95237238 0 -812.58214508 0 1382.25157974 0 7798
0.08450000 0.08449610 22630.24008417 0 155.29745830 0 5855.18752187 0 -357.30993698 0 -900.29968713 0 7371
0.08550000 0.08548940 23022.08916865 0 372.90296768 0 6666.86367050 0 -272.11142477 0 -227.74345227 0 8256
0.08650000 0.08650700 22430.94334671 0 458.30830786 0 7212.04647161 0 -563.72537855 0 -651.36873230 0 8037
0.08750000 0.08749060 22535.70621152 0 640.76317833 0 8225.69463258 0 -535.87217010 0 573.41819167 0 8155
0.08850000 0.08849210 21850.02651693 0 232.57355988 0 7953.76081009 0 234.45974108 0 -471.68805443 0 8718
0.08950000 0.08949900 22429.93168814 0 -22.20028519 0 8485.91569700 0 -200.85581572 0 -39.78111256 0 8571
0.09050000 0.09049190 22088.66553195 0 -143.48578252 0 7876.72863063 0 887.74725246 0 -946.15030146 0 8932
0.09150000 0.09150830 21928.14903951 0 159.92523421 0 6721.02112572 0 1170.62384843 0 -1696.65258069 0 9285
0.09250000 0.09250820 21708.95635026 0 265.60196393 0 6521.87051672 0 810.11931851 0 -1983.82872556 0 9204
0.09350000 0.09350330 21685.46339023 0 419.79446626 0 5160.23429043 0 1656.73702994 0 -304.62051074 0 9349
0.09450000 0.09448040 21061.27005514 0 478.09972161 0 5325.66294723 0 1288.79680956 0 -701.53912871 0 9564
0.09550000 0.09549270 20503.62137237 0 427.66741804 0 4744.52130444 0 1244.89082781 0 832.90748973 0 10155
0.09650000 0.09649430 20283.30461804 0 609.19605889 0 5173.53198024 0 911.29191948 0 1686.17629420 0 9913
0.09750000 0.09749140 19641.80068083 0 898.89348172 0 5743.77019182 0 168.61987755 0 2943.45431912 0 10476
0.09850000 0.09850240 18760.98328955 0 823.28436864 0 6435.03648983 0 -409.03041912 0 2544.54610597 0 10575
0.09950000 0.09950330 18285.72857664 0 613.40793072 0 6365.34445529 0 -39.48199885 0 4628.79880517 0 10882
0.10050000 0.10051200 17809.12498565 0 335.42326594 0 6192.50820966 0 644.81992918 0 3230.77659245 0 10875
0.10150000 0.10150300 17498.32099293 0 75.59157766 0 5788.76651670 0 524.13131041 0 3332.06609619 0 11118
0.10250000 0.10250800 17428.40414539 0 105.08625833 0 5367.78166552 0 477.96033754 0 2253.64930571 0 11575
0.10350000 0.10349800 17487.08034220 0 -141.14997529 0 5059.60798508 0 1023.98056712 0 2981.84114136 0 11364
0.10450000 0.10450100 17119.96068933 0 50.04360187 0 4148.06989535 0 403.53149279 0 2850.15691805 0 12093
0.10550000 0.10551000 17458.07946332 0 81.40366853 0 4048.92735591 0 569.32996700 0 2781.16180386 0 12067
0.10650000 0.10649700 17076.45937100 0 213.25874973 0 3997.77115443 0 125.24108231 0 2904.23568872 0 12054
0.10750000 0.10749900 17061.73411854 0 342.57906420 0 3842.66141499 0 78.09779315 0 2509.87993912 0 12807
0.10850000 0.10850100 16861.42572252 0 399.03186030 0 4661.27304513 0 -258.76427609 0 2909.21529699 0 12736
0.10950000 0.10950300 16355.59643962 0 295.85617537 0 3999.25492033 0 159.75662445 0 2388.46967057 0 12933
0.11050000 0.11050200 16134.94246577 0 337.78605073 0 4148.05865470 0 -29.35911842 0 2592.21770572 0 13428
0.11150000 0.11150900 15992.86064053 0 212.00092092 0 4010.03470438 0 498.92077896 0 2906.48381886 0 13453
0.11250000 0.11250000 15703.07666469 0 199.87001065 0 3881.48662262 0 436.52280268 0 2808.30797538 0 13668
0.11350000 0.11349100 15579.65431966 0 340.89296659 0 4363.94659264 0 152.31081740 0 3236.66669343 0 13791
0.11450000 0.11448600 15370.69062257 0 263.40554077 0 4071.77959884 0 -113.06183725 0 3118.11155017 0 14205
0.11550000 0.11549300 15318.98362921 0 273.36475732 0 4809.17752745 0 -149.49391033 0 3658.92173814 0 14776
0.11650000 0.11649800 15161.16489295 0 208.82543709 0 4489.18992309 0 -325.87770534 0 3288.59849981 0 14553
0.11750000 0.11747300 14924.54919506 0 70.03577363 0 4298.42483953 0 146.15656113 0 3028.08517847 0 14568
0.11850000 0.11849100 15048.98319865 0 73.94729527 0 4418.69980235 0 186.87581840 0 2710.84029289 0 16015
0.11950000 0.11950300 14982.21373331 0 61.60719649 0 4321.82787435 0 476.03481407 0 1751.50695625 0 15270
0.12050000 0.12050700 14687.82109066 0 92.28787823 0 3526.64176034 0 -130.72539581 0 1643.59670923 0 15999
0.12150000 0.12150000 14619.47793422 0 246.22083394 0 3671.78104258 0 256.38687846 0 1131.86608471 0 15670
0.12250000 0.12250700 14540.56856609 0 120.95052593 0 3623.81718591 0 -315.67681480 0 1434.36323653 0 16887
0.12350000 0.12352200 14567.65853435 0 89.59326943 0 4027.58136017 0 85.24673461 0 754.22967901 0 16407
0.12450000 0.12449800 14435.80570128 0 271.72474638 0 4159.40047129 0 -63.81261217 0 860.79329607 0 16306
0.12550000 0.12549900 14079.36466660 0 296.28332010 0 4130.93914364 0 -319.23560483 0 341.21894546 0 17523
0.12650000 0.12650100 13899.96388093 0 374.96337895 0 4490.04421254 0 -603.58135385 0 198.52338069 0 17154
0.12750000 0.12750600 13838.81474095 0 308.59632891 0 4495.67577856 0 -130.41627791 0 147.84603093 0 18007
0.12850000 0.12850300 13380.08378462 0 278.35785438 0 4502.65622266 0 -46.86946691 0 -49.70874288 0 17496
0.12950000 0.12949900 13276.44498488 0 139.98094762 0 4461.57164424 0 407.09253094 0 183.59804465 0 18405
0.13050000 0.13049000 13262.05695195 0 58.23162908 0 4446.50917226 0 843.44897199 0 252.87642323 0 18100
0.13150000 0.13148800 13034.54618115 0 18.77301079 0 4353.45906551 0 936.15511483 0 1387.37731647 0 19059
0.13250000 0.13249300 13206.86535686 0 -13.51351031 0 3668.71234493 0 1145.19749647 0 1103.40700519 0 18957
0.13350000 0.13349100 13084.11745087 0 111.03548514 0 3936.71193966 0 461.56247625 0 2186.83487776 0 19468
0.13450000 0.13450700 13019.14648965 0 206.31877197 0 3702.26568736 0 81.69446416 0 2199.24455617 0 19953
0.13550000 0.13551000 12804.22524767 0 308.73458891 0 3399.74605424 0 -143.27221015 0 2462.23082067 0 19956
0.13650000 0.13649900 12467.00572574 0 302.23861685 0 3522.51644152 0 -243.62536768 0 2029.26343582 0 19723
0.13750000 0.13749600 12361.56842189 0 282.49553791 0 3651.76144363 0 1.62658960 0 2388.04252585 0 20946
0.13850000 0.13851100 12085.83525945 0 173.18807801 0 3114.86300211 0 666.14681582 0 1709.19714690 0 20955
0.13950000 0.13949800 11861.13465134 0 179.00623883 0 2934.86646196 0 624.40578339 0 1752.00154488 0 20506
0.14050000 0.14048300 11614.96440033 0 148.47101112 0 2503.23671454 0 688.10093076 0 1786.00451335 0 21447
0.14150000 0.14148400 11581.13004163 0 100.33809506 0 2384.10829809 0 573.17988988 0 1634.64915125 0 21771
0.14250000 0.14249400 11340.24289647 0 154.08121990 0 2292.65436374 0 217.78535978 0 2024.66600967 0 22470
0.14350000 0.14350900 11339.45605092 0 162.70954340 0 2554.71889489 0 -300.45584965 0 1944.84614883 0 22519
0.14450000 0.14449900 11120.57809988 0 241.45142583 0 2577.91959799 0 -241.75604747 0 2031.98367329 0 22218
0.14550000 0.14550500 10966.68235072 0 242.91383449 0 3052.64600032 0 -439.86015188 0 2092.60450268 0 23559
0.14650000 0.14650700 10824.55556288 0 235.01840142 0 2996.21793365 0 -362.67622364 0 1530.60568809 0 23044
0.14750000 0.14750500 10705.48334969 0 305.63554151 0 3476.31736702 0 -82.77896215 0 1849.14324850 0 23649
0.14850000 0.14849900 10356.41618189 0 210.15520607 0 3254.40444029 0 -5.12152149 0 1295.54120000 0 23640
0.14950000 0.14949500 10328.26959246 0 197.67471156 0 3381.83969762 0 191.92174652 0 1634.95264882 0 24457
0.15050000 0.15050000 10107.05358607 0 89.90677118 0 3185.06086593 0 -149.82326140 0 995.43268646 0 24591
0.15150000 0.15149900 10138.20142925 0 107.50906819 0 3261.30619984 0 113.81720898 0 1136.73328647 0 25020
0.15250000 0.15250500 10092.21592711 0 -11.05017790 0 3114.57074519 0 -195.75930468 0 787.67511119 0 25297
0.15350000 0.15350100 9984.21575488 0 113.81945711 0 2922.72655917 0 8.32416273 0 876.98994971 0 25452
0.15450000 0.15450400 9980.30400843 0 8.55492205 0 3012.64052437 0 154.57356040 0 496.88509711 0 26061
0.15550000 0.15549900 9998.62626912 0 64.30562711 0 2787.07438615 0 481.37974349 0 336.06173490 0 26128
0.15650000 0.15649500 9852.16059010 0 103.07451907 0 2603.27850604 0 145.81372128 0 263.29987866 0 26331
0.15750000 0.15749700 9719.02632284 0 96.55651534 0 2245.27502091 0 183.09895976 0 -112.62345187 0 27345
0.15850000 0.15849900 9694.13952212 0 95.03104663 0 2274.03984613 0 183.16190740 0 52.31522497 0 26980
0.15950000 0.15949700 9587.67931905 0 9.15975899 0 1965.21420795 0 95.19010184 0 -307.22159732 0 27777
0.16050000 0.16050000 9612.50991651 0 76.31671204 0 2089.40091723 0 -37.31896043 0 -134.66187169 0 28224
0.16150000 0.16150500 9505.39775570 0 235.58380615 0 2105.19403150 0 -230.17255689 0 -531.61645974 0 28075
0.16250000 0.16249700 9220.13252144 0 296.14843229 0 2267.07064268 0 -205.64658106 0 -191.91050587 0 28590
0.16350000 0.16349900 9191.18784581 0 314.33468111 0 2683.97513764 0 -271.27961661 0 546.08654942 0 29163
0.16450000 0.16449100 8839.51284704 0 143.58470024 0 2806.67808102 0 163.55933659 0 199.61259975 0 28996
0.16550000 0.16550500 8857.29555650 0 72.39541103 0 2896.08621694 0 429.44456492 0 1029.70430647 0 30777
0.16650000 0.16650700 8770.39408570 0 35.07611339 0 2830.45205732 0 605.93402204 0 839.56307903 0 29211
0.16750000 0.16749900 8800.19305079 0 70.19022017 0 2503.39408365 0 530.10684034 0 1329.74650017 0 30922
0.16850000 0.16850800 8666.92389572 0 21.17682394 0 2298.98285011 0 428.52283156 0 1033.59019943 0 30867
0.16950000 0.16949900 8681.99760835 0 29.61214547 0 1921.07217253 0 409.92292679 0 1551.78307406 0 30852
0.17050000 0.17049200 8624.27686685 0 24.08815248 0 1963.26957537 0 206.74816483 0 1078.55729861 0 31257
0.17150000 0.17149500 8554.76468273 0 84.65817413 0 1844.33224999 0 -231.81818816 0 947.96903875 0 32608
0.17250000 0.17250900 8509.83580175 0 160.75254610 0 2001.21801224 0 -220.16837774 0 916.94034647 0 32361
0.17350000 0.17350400 8452.37359522 0 133.76374370 0 1845.00668903 0 -240.11041620 0 349.83715238 0 32508
0.17450000 0.17449800 8328.25432984 0 87.07536367 0 1976.19632371 0 -119.67808427 0 450.35329934 0 32791
0.17550000 0.17549800 8369.00168874 0 5.14070928 0 1999.16097316 0 -11.37969758 0 161.74284743 0 33633
0.17650000 0.17650100 8309.49368377 0 -34.91582171 0 1711.62512746 0 61.00953109 0 -116.09344075 0 33984
0.17750000 0.17750300 8368.86680094 0 43.47310430 0 1740.47987789 0 33.94597836 0 -35.06127573 0 34069
0.17850000 0.17849800 8321.56614266 0 7.98189616 0 1567.74479810 0 54.44476625 0 -6.33714166 0 34536
