### header ###
fiducial parameters:
Omega_m = 0.31
Omega_nu = 0
Omega_de = 0.69
Omega_k = 0
H_0 = 100
w_de = -1
zeff = 0
beta = 0
fgrowth = 0
b_1 = 2
gamma = 0.55
Lx = 3500 Ly = 3500 Lz = 3500
nx = 700 ny = 700 nz = 700
xoffset = 857.220397 yoffset = 15.9954215 zoffset = 262.898189
bins = 400 dk = 0.001
kx_ny = 0.628318531 ky_ny = 0.628318531 kz_ny = 0.628318531
############################
A(data) = 3.0661362 (not used)
A(ran) = 3.06219101 (used)
Ngal = 187310
weighted Ngal = 0
Nran = 9360983
weighted Nran = 0
SN(data) = 3456.96046
SN(ran) = 68.7653018
SN(data+ran) = 3525.72577
############################
13 columns: k_central k_mean P_0(k) sigma^{lin}_{P_0(k)} P^img_1(k) sigma^{lin}_{P_1(k)} P_2(k) sigma^{lin}_{P_2(k)} P^img_3(k) sigma^{lin}_{P_3(k)} P_4(k) sigma^{lin}_{P_4(k)} N_modes
### header ###
0.00050000 0 0 0 0 0 0 0 0 0 0 0 0
0.00150000 0.00179520 1370.42641517 0 -3433.50172838 0 -1771.38042674 0 -7634.79610495 0 -31003.28840718 0 3
0.00250000 0.00253879 3410.53707894 0 -5429.50407869 0 -12588.96678617 0 12727.90122921 0 18544.37594996 0 6
0.00350000 0.00331552 9402.81557712 0 -12627.40981167 0 -17785.74443213 0 8002.82625053 0 -15700.04168899 0 7
0.00450000 0.00420575 16870.75546262 0 -19544.45664550 0 -29729.16064682 0 18750.07985834 0 -2269.13892241 0 24
0.00550000 0.00557378 38598.70851261 0 -19173.51517137 0 -36369.01303361 0 13573.08575767 0 -4401.07446201 0 45
0.00650000 0.00659388 47770.85469609 0 -11782.33768972 0 -33236.35608139 0 -11771.09703899 0 7896.43349136 0 40
0.00750000 0.00754703 52355.57890974 0 2850.26932456 0 -14185.13918997 0 -16026.13296670 0 20997.19834597 0 57
0.00850000 0.00846663 49302.16854517 0 7320.39510400 0 -8299.59067048 0 -19623.36601363 0 22609.55728682 0 75
0.00950000 0.00948925 47665.08017271 0 3271.53519200 0 13572.18650561 0 -14439.17789649 0 9940.12992272 0 112
0.01050000 0.01054430 49287.89291874 0 -3709.39225993 0 33610.44493772 0 -9283.95693630 0 26039.30463786 0 105
0.01150000 0.01145670 55014.44243365 0 -4266.59131666 0 43578.76641247 0 -3178.24903158 0 4447.17237065 0 144
0.01250000 0.01249090 67719.86236139 0 -6780.76518436 0 45078.83125252 0 -708.19809020 0 19461.72545612 0 169
0.01350000 0.01339930 70406.15307308 0 -4043.50936225 0 52097.71838197 0 4462.90928168 0 -9738.74242422 0 180
0.01450000 0.01448870 79032.56566357 0 -1614.13496367 0 31368.60955593 0 11882.82910725 0 18254.47956761 0 267
0.01550000 0.01550050 79384.73525097 0 -3360.80844011 0 39226.72366895 0 26028.62601967 0 4055.81787480 0 238
0.01650000 0.01653350 83865.70825837 0 -1119.70257655 0 10796.38649215 0 8536.97073262 0 1346.31521935 0 315
0.01750000 0.01747870 84763.04940623 0 -871.87545362 0 23505.54955659 0 2184.47434111 0 -17809.57461168 0 297
0.01850000 0.01844180 77442.80043069 0 3368.33967610 0 11916.32624643 0 -2272.19637941 0 -10182.57951833 0 388
0.01950000 0.01947590 82418.92410279 0 6.61322329 0 11349.01060404 0 -8620.15154803 0 -19565.36425586 0 399
0.02050000 0.02045430 81437.39048096 0 -327.86505239 0 9539.51313066 0 -6434.28336623 0 -8950.06464698 0 462
0.02150000 0.02154770 82242.44588631 0 -275.33074714 0 13906.70827137 0 -234.15624351 0 -18363.96350573 0 571
0.02250000 0.02255340 83235.55737839 0 2041.88668659 0 20575.11191102 0 -6974.72261272 0 -12018.84098110 0 510
0.02350000 0.02348930 79157.89891922 0 5941.49323818 0 22032.68709131 0 391.41744349 0 -9368.47538914 0 555
0.02450000 0.02439640 80128.30429683 0 7235.91037311 0 20828.81339802 0 -6632.44479796 0 -18692.52772659 0 592
0.02550000 0.02547300 69996.09413442 0 6910.94316048 0 34932.45787019 0 869.86787340 0 -4366.65558947 0 837
0.02650000 0.02652900 69475.08997304 0 6082.93434633 0 41643.57598262 0 -246.76600550 0 -10265.62544593 0 723
0.02750000 0.02749970 61351.58409626 0 4146.23766928 0 43042.58737260 0 2764.07601475 0 -2025.49781782 0 826
0.02850000 0.02848090 59982.13561770 0 3716.05796581 0 40483.65323369 0 3477.30654428 0 -10796.26284499 0 831
0.02950000 0.02946900 58491.73773728 0 167.10126564 0 39929.26433964 0 4300.79661684 0 -831.25061782 0 996
0.03050000 0.03053250 60321.37845676 0 -2368.42759032 0 37653.70700566 0 10293.50225975 0 758.55732954 0 1041
0.03150000 0.03150510 64919.02941875 0 -4789.52886997 0 34482.71943445 0 14001.69177004 0 1574.45546659 0 1036
0.03250000 0.03246190 66225.86747274 0 -2132.21655586 0 27909.29929347 0 14258.65304575 0 6832.28108666 0 1059
0.03350000 0.03345080 67423.67121463 0 624.02135314 0 29289.53879673 0 8150.66328895 0 6531.57119830 0 1302
0.03450000 0.03451200 64086.20960609 0 4239.79360532 0 25388.24614752 0 1070.85970099 0 10557.99477145 0 1339
0.03550000 0.03553350 60907.91561190 0 6867.49804540 0 25855.07037238 0 -4322.63720121 0 4572.05600028 0 1365
0.03650000 0.03647120 52873.66050193 0 4446.03706493 0 26877.29514986 0 -5312.75868019 0 3252.60593617 0 1308
0.03750000 0.03744890 51571.43111474 0 2873.68360003 0 26023.68013335 0 -3255.20252649 0 1469.07436599 0 1579
0.03850000 0.03847530 49724.81701266 0 -40.64034790 0 22952.95916665 0 1088.69411744 0 -7496.72719202 0 1662
0.03950000 0.03950240 48977.87577158 0 -675.75419999 0 19046.49581811 0 2743.62927107 0 -13150.54969669 0 1683
0.04050000 0.04050350 48753.73719601 0 59.49586507 0 17919.39576932 0 5780.97674574 0 -13944.70167084 0 1822
0.04150000 0.04152450 48110.32234816 0 1152.58260400 0 16154.72601106 0 3076.54362377 0 -9556.34038481 0 1887
0.04250000 0.04250150 47475.22558186 0 2271.98280705 0 15558.74670930 0 4835.01978348 0 -7624.25237456 0 1920
0.04350000 0.04349210 45193.59829649 0 2239.23879147 0 13771.70805609 0 3343.26178432 0 -4446.45296901 0 2005
0.04450000 0.04448520 43732.08888844 0 1600.87099581 0 11441.40875305 0 4492.11249228 0 -4679.13443914 0 2151
0.04550000 0.04548030 41110.43191845 0 1904.66082246 0 10885.46864919 0 1082.77816296 0 -2906.85476034 0 2274
0.04650000 0.04648670 39814.94692171 0 1604.91763007 0 8795.14599861 0 4334.58601293 0 -5603.58803656 0 2311
0.04750000 0.04749250 37135.73781998 0 1328.66739770 0 5505.86181910 0 1466.19675940 0 -1337.09788575 0 2568
0.04850000 0.04851840 36372.72244836 0 832.91198600 0 4529.90356003 0 3327.27757898 0 1858.12452844 0 2493
0.04950000 0.04949480 36023.25061713 0 489.74840796 0 3313.11435906 0 3265.45399996 0 -1011.40003082 0 2644
0.05050000 0.05050630 35575.19827899 0 613.83732357 0 5902.33081103 0 -372.95242654 0 4970.17736787 0 2829
0.05150000 0.05149060 35651.63470396 0 74.90578556 0 8438.07548749 0 -1813.29681332 0 7556.69606367 0 2784
0.05250000 0.05249300 36388.90898541 0 114.36462867 0 14609.36134856 0 -3730.40103614 0 7042.35760817 0 3055
0.05350000 0.05348950 38444.03715856 0 172.40235652 0 17991.67315352 0 -5389.67845315 0 10686.14943043 0 3009
0.05450000 0.05448610 37561.75848268 0 1216.42950016 0 23159.00029455 0 -2104.86805263 0 10552.86903471 0 3336
0.05550000 0.05550870 36789.30096445 0 1366.23365245 0 23104.93276454 0 -2249.29917387 0 10295.21083866 0 3349
0.05650000 0.05647670 36794.35925728 0 936.82393355 0 24028.57703510 0 2044.12357608 0 8886.66737686 0 3324
0.05750000 0.05747970 35575.87271804 0 514.37442558 0 20548.13434927 0 5750.00875298 0 7537.56447613 0 3639
0.05850000 0.05849280 34151.23264439 0 383.05215122 0 18245.48704702 0 5988.58032409 0 4510.95182290 0 3846
0.05950000 0.05951020 33534.90776481 0 428.43403042 0 14530.11476091 0 4512.82901157 0 3903.86675822 0 3787
0.06050000 0.06049470 32695.11874870 0 1169.49978335 0 13686.84114307 0 1123.65591341 0 1425.47188180 0 3930
0.06150000 0.06148310 32477.49975055 0 962.03896127 0 13457.08224213 0 -1118.69878644 0 6466.22929561 0 4083
0.06250000 0.06249100 30631.22286798 0 1124.79571540 0 12688.78376466 0 -247.52362536 0 3468.24657979 0 4303
0.06350000 0.06350600 30777.68854700 0 232.92539225 0 14735.81866929 0 133.32873052 0 6168.74547401 0 4470
0.06450000 0.06451750 30149.11135813 0 489.48874893 0 14104.76853725 0 -207.20341118 0 2363.71775767 0 4479
0.06550000 0.06550280 30720.92326081 0 677.00528442 0 16706.97918147 0 -250.30793454 0 4053.96316743 0 4636
0.06650000 0.06648880 28644.10063176 0 926.56796382 0 15647.43544357 0 -1263.39293891 0 683.62153144 0 4653
0.06750000 0.06749660 29031.45345595 0 860.32905719 0 17017.89558069 0 -847.70131016 0 1138.77908491 0 5220
0.06850000 0.06852730 28196.61032615 0 426.30392710 0 17615.11135403 0 -912.52052260 0 683.20675143 0 5029
0.06950000 0.06949320 28210.99835909 0 -9.32926800 0 15602.24802763 0 -56.98245556 0 -706.65812105 0 5040
0.07050000 0.07048030 28247.64288047 0 -209.00641156 0 17536.53920542 0 770.53986322 0 -502.75833711 0 5475
0.07150000 0.07148790 28157.49286161 0 -16.30220335 0 15019.75750675 0 1145.37734689 0 -4744.98217112 0 5509
0.07250000 0.07249820 29023.80981345 0 211.16574057 0 15713.41806336 0 1509.31589560 0 -1302.84762298 0 5916
0.07350000 0.07351270 27542.96648615 0 875.55227048 0 14439.51511602 0 2540.61187822 0 -2835.80260707 0 5721
0.07450000 0.07449140 27353.44911482 0 996.83102341 0 12367.63837328 0 2099.21400531 0 -542.87846770 0 6028
0.07550000 0.07549160 25794.14604542 0 355.02471269 0 10762.52965215 0 4070.94779069 0 -1386.06216034 0 6183
0.07650000 0.07648840 26231.29495235 0 219.72437203 0 8948.12001441 0 3440.15619362 0 -328.16854996 0 6330
0.07750000 0.07749960 25022.02574671 0 154.02726477 0 7067.14324303 0 2658.25652877 0 -1148.73830145 0 6583
0.07850000 0.07848650 25036.75099917 0 575.70903629 0 7175.44691283 0 967.51990256 0 130.41178165 0 6549
0.07950000 0.07947320 24040.82934440 0 944.67215589 0 5889.42654400 0 -935.71335726 0 -900.03777997 0 6828
0.08050000 0.08048110 23664.71717094 0 1036.67688212 0 8231.10138558 0 -1409.82489598 0 80.83871342 0 7147
0.08150000 0.08149960 22449.15320089 0 715.15380487 0 7510.93537454 0 -422.00662633 0 922.33361069 0 7386
0.08250000 0.08250610 22795.70246293 0 -215.86096038 0 9424.12785091 0 349.30884179 0 1762.38790616 0 7227
0.08350000 0.08350160 23430.01238368 0 -553.75604542 0 8516.14180681 0 1535.24807684 0 715.93053384 0 7798
0.08450000 0.08449610 23419.10895247 0 -267.50388203 0 8493.36824843 0 677.48301208 0 155.37164660 0 7371
0.08550000 0.08548940 23309.17538832 0 507.58394847 0 7293.20396988 0 -895.22902958 0 -869.72286901 0 8256
0.08650000 0.08650700 23190.13689708 0 1047.58031333 0 8331.17689904 0 -1720.25794722 0 -850.77338001 0 8037
0.08750000 0.08749060 21965.13078042 0 1012.86581168 0 7360.34437670 0 -1733.57811834 0 -1851.98713314 0 8155
0.08850000 0.08849210 21478.41060376 0 583.96304613 0 8858.68939719 0 -1078.58202805 0 -2004.89370503 0 8718
0.08950000 0.08949900 21261.80326418 0 387.05607101 0 7897.06296780 0 210.18667989 0 -3449.04754835 0 8571
0.09050000 0.09049190 20676.50258061 0 172.35177359 0 8153.95679961 0 736.87186615 0 -3288.03646727 0 8932
0.09150000 0.09150830 20715.05801262 0 -80.75249763 0 7352.52088379 0 778.72642915 0 -4117.79882293 0 9285
0.09250000 0.09250820 20741.81076136 0 223.31688401 0 7953.62592228 0 784.68509810 0 -2854.63069704 0 9204
0.09350000 0.09350330 20374.46629547 0 89.08833940 0 7946.37570256 0 609.05330262 0 -2451.22622361 0 9349
0.09450000 0.09448040 20271.72674779 0 410.02184452 0 8360.50375679 0 -147.05244099 0 -1660.76118290 0 9564
0.09550000 0.09549270 19837.50041005 0 499.16582514 0 7701.82410526 0 -108.26129254 0 -1705.75750778 0 10155
0.09650000 0.09649430 19922.47972958 0 256.36439716 0 9523.36031556 0 116.56892028 0 452.66774933 0 9913
0.09750000 0.09749140 19680.91814537 0 305.34216052 0 8852.61944579 0 1020.00137676 0 521.81461230 0 10476
0.09850000 0.09850240 19515.90539264 0 185.95520911 0 9323.28797320 0 1504.93204182 0 1792.70394118 0 10575
0.09950000 0.09950330 19332.90759874 0 533.34189962 0 9129.42047005 0 1346.61871692 0 2154.45056301 0 10882
0.10050000 0.10051200 18505.48329843 0 797.92546059 0 8290.63187185 0 1254.58026874 0 2605.83013376 0 10875
0.10150000 0.10150300 18005.38674741 0 766.55730067 0 8560.81215282 0 1360.72573359 0 3324.54610085 0 11118
0.10250000 0.10250800 17224.61114763 0 349.42349643 0 7653.33193800 0 881.68516952 0 4295.03016301 0 11575
0.10350000 0.10349800 16881.65889383 0 78.68163255 0 6759.85757400 0 1324.18237806 0 2806.36334280 0 11364
0.10450000 0.10450100 17044.64832943 0 -259.72310360 0 5932.53443955 0 878.59623870 0 3179.65411293 0 12093
0.10550000 0.10551000 17145.36455998 0 -451.44139433 0 4939.16441250 0 564.71455581 0 2038.57069462 0 12067
0.10650000 0.10649700 17406.93450249 0 -152.65815351 0 4436.31390205 0 49.91040016 0 1862.20488465 0 12054
0.10750000 0.10749900 17563.06714114 0 -113.27091335 0 3454.17328508 0 108.40303715 0 343.50079756 0 12807
0.10850000 0.10850100 17579.25367820 0 378.00172685 0 3790.08889152 0 -375.59173133 0 -362.56606526 0 12736
0.10950000 0.10950300 17191.90085401 0 421.53227087 0 3586.59939134 0 -376.39768599 0 -926.97262725 0 12933
0.11050000 0.11050200 16885.25590207 0 452.55309469 0 3661.72066018 0 -285.65865703 0 -676.41402619 0 13428
0.11150000 0.11150900 16450.57993830 0 267.91528985 0 4341.25171882 0 70.31915044 0 -1000.84056353 0 13453
0.11250000 0.11250000 16275.00097388 0 405.71330309 0 3973.57003341 0 -518.16252488 0 -1532.99994669 0 13668
0.11350000 0.11349100 16066.82412234 0 238.92003129 0 5007.77734456 0 -543.98005148 0 -960.21123146 0 13791
0.11450000 0.11448600 15868.53904345 0 283.07892768 0 4944.73977526 0 -701.69312562 0 -1808.05867008 0 14205
0.11550000 0.11549300 15838.30169298 0 50.19107920 0 5292.13208610 0 -526.06357828 0 -1185.94485537 0 14776
0.11650000 0.11649800 15591.79422245 0 257.30748775 0 5165.61856213 0 -47.29964662 0 -2065.61570028 0 14553
0.11750000 0.11747300 15691.16157491 0 82.39520633 0 5301.82152703 0 531.84801714 0 -1906.51552983 0 14568
0.11850000 0.11849100 15343.71306082 0 96.69781032 0 4885.24301094 0 981.47854264 0 -1339.72819802 0 16015
0.11950000 0.11950300 15083.71680941 0 347.66096239 0 4292.84947677 0 1235.81962267 0 -1338.61537360 0 15270
0.12050000 0.12050700 14845.86463994 0 295.30650755 0 4003.72869932 0 1241.74344560 0 -773.62879404 0 15999
0.12150000 0.12150000 14232.01270352 0 430.51130267 0 3378.74851867 0 637.17853482 0 -760.11078747 0 15670
0.12250000 0.12250700 14403.09540765 0 178.75220012 0 3837.11977418 0 300.09952102 0 906.10435916 0 16887
0.12350000 0.12352200 14157.59959568 0 21.13624520 0 3579.79879765 0 -172.30231473 0 450.26449820 0 16407
0.12450000 0.12449800 14452.44186436 0 16.16236965 0 3606.97869112 0 170.60610053 0 1548.90546748 0 16306
0.12550000 0.12549900 14493.24542651 0 -96.83584551 0 4153.79138658 0 -257.44125150 0 825.72696205 0 17523
0.12650000 0.12650100 14552.70846888 0 29.78682519 0 3255.96689074 0 105.37772841 0 1255.05237607 0 17154
0.12750000 0.12750600 14510.78084165 0 154.47801487 0 4134.35630146 0 206.48738173 0 1095.91511147 0 18007
0.12850000 0.12850300 14211.89193871 0 209.75503890 0 3210.97056586 0 68.81661265 0 674.81335753 0 17496
0.12950000 0.12949900 14004.95155876 0 337.94117171 0 3989.85773631 0 610.48873372 0 1027.88781731 0 18405
0.13050000 0.13049000 13650.75865422 0 317.73497795 0 2780.79086239 0 306.49545129 0 1105.14143759 0 18100
0.13150000 0.13148800 13226.08686961 0 331.04390842 0 3451.73406387 0 458.54885779 0 1500.05359940 0 19059
0.13250000 0.13249300 12972.16056959 0 334.76681194 0 2966.03678643 0 411.05598439 0 1285.73935256 0 18957
0.13350000 0.13349100 12733.40914807 0 265.40862473 0 3128.07076672 0 607.05471492 0 1582.80727008 0 19468
0.13450000 0.13450700 12389.78245522 0 276.20639383 0 2862.04952652 0 64.15196741 0 1263.22432915 0 19953
0.13550000 0.13551000 12224.65729598 0 179.69304259 0 2426.24949768 0 -14.34194627 0 876.43466156 0 19956
0.13650000 0.13649900 12115.84779691 0 349.61795969 0 2806.14977044 0 -328.92729389 0 704.65728522 0 19723
0.13750000 0.13749600 11760.98045333 0 274.28986288 0 2356.24272493 0 -486.26493030 0 66.73203398 0 20946
0.13850000 0.13851100 11579.89357005 0 236.04579690 0 2757.71380644 0 -114.34102330 0 427.05592664 0 20955
0.13950000 0.13949800 11490.19317722 0 176.11851565 0 2712.97601653 0 -292.07032420 0 -201.37288565 0 20506
0.14050000 0.14048300 11355.41777495 0 100.27155041 0 2783.74715353 0 90.90763872 0 211.94808986 0 21447
0.14150000 0.14148400 11312.92811519 0 153.12014426 0 3105.96040673 0 -247.39098568 0 -324.47037587 0 21771
0.14250000 0.14249400 11220.29391252 0 120.51776088 0 3035.94239333 0 51.50263833 0 88.49044919 0 22470
0.14350000 0.14350900 11062.68874862 0 115.98890270 0 3226.50514517 0 38.85207278 0 -107.76085877 0 22519
0.14450000 0.14449900 11010.55461053 0 87.09998069 0 2855.94585318 0 138.83777344 0 13.44730288 0 22218
0.14550000 0.14550500 11042.83775943 0 135.14746780 0 3150.40593972 0 126.77992740 0 -26.11607828 0 23559
0.14650000 0.14650700 10846.60971962 0 169.91929678 0 2720.55221512 0 177.36285569 0 -276.16030716 0 23044
0.14750000 0.14750500 10725.84016816 0 273.06350788 0 3009.86408363 0 -134.20887347 0 -165.42640868 0 23649
0.14850000 0.14849900 10491.52880367 0 167.08103247 0 3075.83546277 0 -58.57604262 0 142.36958590 0 23640
0.14950000 0.14949500 10434.05535649 0 165.74114690 0 3540.53520464 0 47.31358502 0 411.18412780 0 24457
0.15050000 0.15050000 10295.40192972 0 57.00808425 0 3593.20889397 0 285.24837327 0 765.12748989 0 24591
0.15150000 0.15149900 10467.00170378 0 12.02266280 0 3838.91827830 0 277.66318216 0 1443.54684818 0 25020
0.15250000 0.15250500 10460.23483204 0 66.02095041 0 4133.45704940 0 59.03072694 0 1553.70522534 0 25297
0.15350000 0.15350100 10314.35366685 0 105.18652494 0 3976.62749040 0 96.46276831 0 1534.19145567 0 25452
0.15450000 0.15450400 10356.40494124 0 170.04744019 0 3863.53530340 0 -60.97547192 0 1648.75616792 0 26061
0.15550000 0.15549900 10099.40994358 0 45.69886555 0 3683.87598277 0 365.89217381 0 1541.43043474 0 26128
0.15650000 0.15649500 10179.06119465 0 18.09666083 0 3537.74752326 0 329.41626219 0 1313.09909644 0 26331
0.15750000 0.15749700 10092.96905071 0 13.66975535 0 2820.34671231 0 541.95223808 0 752.01751894 0 27345
0.15850000 0.15849900 10004.62877661 0 120.81226593 0 2860.72312974 0 384.70115468 0 921.45908806 0 26980
0.15950000 0.15949700 9862.42330421 0 166.70334660 0 2532.21511212 0 406.91380459 0 403.98561508 0 27777
0.16050000 0.16050000 9684.79854136 0 156.85204030 0 2363.45922270 0 97.18194515 0 778.13517092 0 28224
0.16150000 0.16150500 9601.42663489 0 220.98557305 0 2195.42273492 0 56.00654227 0 630.74326227 0 28075
0.16250000 0.16249700 9355.79593512 0 195.54123605 0 2324.76890288 0 -364.63097280 0 757.34109113 0 28590
0.16350000 0.16349900 9242.75995137 0 232.51398444 0 2454.23871800 0 -24.35804051 0 1079.51949832 0 29163
0.16450000 0.16449100 9065.84334951 0 196.85526812 0 2392.79732111 0 160.39846561 0 1244.37375787 0 28996
0.16550000 0.16550500 8862.78099406 0 158.13684668 0 2471.89778030 0 107.78457654 0 1177.90779010 0 30777
0.16650000 0.16650700 8820.53862861 0 122.94124517 0 2264.36164585 0 404.65668193 0 1399.61838512 0 29211
0.16750000 0.16749900 8763.09890337 0 83.43721465 0 2651.70322939 0 194.68132627 0 1351.19366177 0 30922
0.16850000 0.16850800 8708.44685952 0 80.28353768 0 2464.01808414 0 10.33632914 0 1822.91881035 0 30867
0.16950000 0.16949900 8685.11126860 0 72.96609887 0 2858.23894592 0 -131.48413973 0 1800.37006498 0 30852
0.17050000 0.17049200 8786.60310405 0 57.62440913 0 2764.09849605 0 -202.29124682 0 2102.32766557 0 31257
0.17150000 0.17149500 8662.71989235 0 30.88582361 0 3306.75215074 0 -103.68915786 0 2102.94590136 0 32608
0.17250000 0.17250900 8823.03405307 0 40.58335781 0 3292.21798935 0 57.91318144 0 2251.81707964 0 32361
0.17350000 0.17350400 8619.00500165 0 110.81471876 0 3452.76820374 0 224.12621086 0 1916.31737727 0 32508
0.17450000 0.17449800 8530.49611780 0 261.16190689 0 3315.02526968 0 58.24242010 0 1742.15473484 0 32791
0.17550000 0.17549800 8269.20719156 0 237.06419985 0 3263.31827632 0 68.14689468 0 1590.30478412 0 33633
0.17650000 0.17650100 8048.50825510 0 129.73509448 0 3050.02692870 0 68.57718679 0 1454.58516719 0 33984
0.17750000 0.17750300 8038.51531660 0 39.72052546 0 3119.13444939 0 9.12369898 0 1254.18684596 0 34069
