### header ###
fiducial parameters:
Omega_m = 0.31
Omega_nu = 0
Omega_de = 0.69
Omega_k = 0
H_0 = 100
w_de = -1
zeff = 0
beta = 0
fgrowth = 0
b_1 = 2
gamma = 0.55
Lx = 3500 Ly = 3500 Lz = 3500
nx = 700 ny = 700 nz = 700
xoffset = 857.220397 yoffset = 15.9954215 zoffset = 262.898189
bins = 400 dk = 0.001
kx_ny = 0.628318531 ky_ny = 0.628318531 kz_ny = 0.628318531
############################
A(data) = 3.09954171 (not used)
A(ran) = 3.09843763 (used)
Ngal = 189407
weighted Ngal = 0
Nran = 9360983
weighted Nran = 0
SN(data) = 3451.49503
SN(ran) = 69.5792647
SN(data+ran) = 3521.0743
############################
13 columns: k_central k_mean P_0(k) sigma^{lin}_{P_0(k)} P^img_1(k) sigma^{lin}_{P_1(k)} P_2(k) sigma^{lin}_{P_2(k)} P^img_3(k) sigma^{lin}_{P_3(k)} P_4(k) sigma^{lin}_{P_4(k)} N_modes
### header ###
0.00050000 0 0 0 0 0 0 0 0 0 0 0 0
0.00150000 0.00179520 1732.90367929 0 -7865.87016203 0 7345.69780880 0 -13404.36359020 0 -4923.19144781 0 3
0.00250000 0.00253879 8001.07270902 0 -12147.77124498 0 -8242.57808997 0 3387.70731731 0 -5399.44657863 0 6
0.00350000 0.00331552 15143.62947781 0 -15250.86528578 0 -2047.34964284 0 -12958.67178872 0 11685.89290645 0 7
0.00450000 0.00420575 25392.51759480 0 -15647.88506960 0 -13503.73094266 0 -8827.95745809 0 -11262.45759341 0 24
0.00550000 0.00557378 41758.45543310 0 -15115.19063146 0 -8172.22285705 0 -19624.26526569 0 -8962.83402621 0 45
0.00650000 0.00659388 48700.79373106 0 -6053.05669669 0 -32108.69400006 0 -26826.82462808 0 -37283.21515757 0 40
0.00750000 0.00754703 57515.03759526 0 -6021.24565512 0 1692.70711228 0 -35421.20136398 0 -2455.95853756 0 57
0.00850000 0.00846663 53764.03244633 0 -25.20626001 0 -15828.85954637 0 -34674.26012290 0 -25579.33720995 0 75
0.00950000 0.00948925 58154.29340233 0 -3962.49799244 0 1879.43680222 0 -22855.16550530 0 -12326.38518510 0 112
0.01050000 0.01054430 61452.18792030 0 -6703.58687644 0 22948.91253239 0 -33327.06813279 0 2517.93948569 0 105
0.01150000 0.01145670 70537.21906061 0 -8796.56232060 0 23622.56473070 0 -23171.47741687 0 -25379.81565948 0 144
0.01250000 0.01249090 81180.20439223 0 -7634.95347406 0 40793.33316133 0 -17639.50356612 0 -3911.36427226 0 169
0.01350000 0.01339930 85571.36460029 0 -1992.46154532 0 37214.42237509 0 -21916.57116926 0 -43181.07218961 0 180
0.01450000 0.01448870 95160.31411287 0 -1727.76670191 0 37715.75539769 0 4371.01696195 0 -17070.61423262 0 267
0.01550000 0.01550050 88382.31412859 0 6040.23111420 0 43968.36736681 0 15081.35627276 0 -49705.03346737 0 238
0.01650000 0.01653350 90977.33075635 0 1936.04471930 0 2469.85198187 0 18233.34714423 0 -21616.33338823 0 315
0.01750000 0.01747870 83325.70739726 0 2589.05908287 0 11923.07063687 0 9402.46711695 0 -40224.33142133 0 297
0.01850000 0.01844180 85825.62811983 0 6384.64465260 0 -7264.21433165 0 -19.02862318 0 -7489.15099343 0 388
0.01950000 0.01947590 77047.35433797 0 6761.70104072 0 10907.94995066 0 -5329.06886440 0 -7130.74284487 0 399
0.02050000 0.02045430 75934.75472862 0 8753.18464943 0 20289.14975642 0 -12566.03585868 0 15365.51992324 0 462
0.02150000 0.02154770 69934.94499444 0 9422.25066224 0 37190.47978904 0 -5914.51567643 0 26574.47201917 0 571
0.02250000 0.02255340 63813.39901285 0 8027.64560735 0 46020.01093823 0 3380.42337563 0 31914.45555543 0 510
0.02350000 0.02348930 63638.83170700 0 4894.23553153 0 61860.56076136 0 4598.20175388 0 32064.63064920 0 555
0.02450000 0.02439640 58146.87457285 0 3373.58905999 0 37531.18391269 0 7849.29020220 0 14309.79800658 0 592
0.02550000 0.02547300 59499.23726230 0 -84.66087189 0 47017.39387759 0 9073.13853184 0 18420.61638541 0 837
0.02650000 0.02652900 55670.33440380 0 -2166.99512922 0 28515.84480691 0 2565.18394072 0 -7606.81812528 0 723
0.02750000 0.02749970 60301.81972449 0 -2896.53584296 0 30473.29172521 0 8496.05476396 0 -7825.76352022 0 826
0.02850000 0.02848090 59298.14202072 0 -2461.45521577 0 27365.92623713 0 1158.11300416 0 -18684.88408410 0 831
0.02950000 0.02946900 61563.80758206 0 788.39001658 0 19464.08599277 0 2042.21266546 0 -14356.10948759 0 996
0.03050000 0.03053250 62550.06227720 0 1066.23529728 0 32070.92541361 0 96.09621069 0 -9302.68386041 0 1041
0.03150000 0.03150510 60080.26649858 0 2235.05726940 0 27390.09363621 0 3962.56543634 0 -4391.45246498 0 1036
0.03250000 0.03246190 60458.85161520 0 1309.73814187 0 28946.47413642 0 2338.53870003 0 2859.64402727 0 1059
0.03350000 0.03345080 63408.28596051 0 -300.14673175 0 32370.03912956 0 10098.30835980 0 4901.71056426 0 1302
0.03450000 0.03451200 59322.53423281 0 912.45757496 0 23696.64061902 0 7381.44307812 0 1604.63661380 0 1339
0.03550000 0.03553350 59603.32568807 0 56.95637725 0 21104.77137347 0 7042.57118054 0 3838.04150754 0 1365
0.03650000 0.03647120 55658.08209450 0 2301.46703392 0 17075.11049291 0 6028.29354313 0 3214.00554156 0 1308
0.03750000 0.03744890 56671.87638393 0 2618.90301056 0 16488.23611825 0 5040.64500730 0 6004.72189854 0 1579
0.03850000 0.03847530 53426.58811139 0 2721.14796961 0 15522.21459443 0 1284.21062406 0 6969.72052315 0 1662
0.03950000 0.03950240 50792.00439306 0 2958.88773257 0 17976.16105551 0 1687.96355767 0 7175.49187543 0 1683
0.04050000 0.04050350 49415.58671105 0 1688.99769754 0 18635.53762739 0 1866.53253518 0 8614.72231372 0 1822
0.04150000 0.04152450 47551.77441334 0 1015.42755598 0 15805.70380586 0 1021.23897241 0 13288.24766815 0 1887
0.04250000 0.04250150 49742.24002129 0 448.64809263 0 24527.32470804 0 -5683.84628278 0 9901.32719639 0 1920
0.04350000 0.04349210 47784.34347697 0 221.75218543 0 17373.66217633 0 -243.97157973 0 5775.44634558 0 2005
0.04450000 0.04448520 49695.25410123 0 22.08720425 0 22123.39914271 0 -2570.88295064 0 9393.84553784 0 2151
0.04550000 0.04548030 48227.89955481 0 1402.51847301 0 16777.57046806 0 -821.25655525 0 8073.31637127 0 2274
0.04650000 0.04648670 47288.40596671 0 2728.99394382 0 24030.15072621 0 3681.67281522 0 5344.21002094 0 2311
0.04750000 0.04749250 44007.26001834 0 2467.46896391 0 17513.49587142 0 1940.74331131 0 5306.16041822 0 2568
0.04850000 0.04851840 42486.51238094 0 2030.51114805 0 18881.48306538 0 6585.54880312 0 7266.38377724 0 2493
0.04950000 0.04949480 39585.18802077 0 1179.48148120 0 13419.76328170 0 4340.56603912 0 3980.23573929 0 2644
0.05050000 0.05050630 40155.87585838 0 150.95856712 0 15358.43831328 0 4641.26468683 0 5298.41560986 0 2829
0.05150000 0.05149060 37817.82050633 0 -487.69474107 0 9463.96471710 0 3595.06360134 0 1248.75761166 0 2784
0.05250000 0.05249300 39662.07407177 0 254.28150458 0 9475.20536783 0 -1553.75018794 0 -391.05886674 0 3055
0.05350000 0.05348950 38579.59940637 0 -121.50581408 0 6601.97139383 0 -678.42385454 0 -4567.15507656 0 3009
0.05450000 0.05448610 39090.93660812 0 1449.15593289 0 10961.20815382 0 -5618.74043374 0 -3632.64109673 0 3336
0.05550000 0.05550870 37946.07633117 0 355.60360620 0 11597.65379821 0 -3995.41061778 0 -5123.87078531 0 3349
0.05650000 0.05647670 37509.26464377 0 945.31174891 0 13497.88580428 0 -976.21342184 0 -2907.70904979 0 3324
0.05750000 0.05747970 37419.78906395 0 953.75684981 0 14948.26696810 0 1305.75895151 0 -4536.50182201 0 3639
0.05850000 0.05849280 36324.16283720 0 983.39394953 0 14884.08285243 0 3117.27974202 0 -531.20730005 0 3846
0.05950000 0.05951020 35420.63933144 0 703.82098081 0 15606.06984888 0 4622.36915295 0 492.42143470 0 3787
0.06050000 0.06049470 34353.45195104 0 910.22742985 0 11764.91468108 0 3502.59800843 0 2801.82211991 0 3930
0.06150000 0.06148310 33322.34705949 0 843.02632352 0 12563.45050901 0 3680.12160542 0 5787.81106139 0 4083
0.06250000 0.06249100 32928.92428390 0 457.18536686 0 12231.73890594 0 970.13110573 0 5883.83994058 0 4303
0.06350000 0.06350600 33106.52656545 0 523.40404031 0 10507.61417487 0 636.97957530 0 7719.50564886 0 4470
0.06450000 0.06451750 32443.55298534 0 861.79821024 0 12566.71029773 0 -2208.42816782 0 4970.06496136 0 4479
0.06550000 0.06550280 32238.86073553 0 623.70773898 0 13783.84795888 0 -3003.55807857 0 7165.46521498 0 4636
0.06650000 0.06648880 32648.02042213 0 767.51275598 0 16896.83377232 0 -2515.56770839 0 5305.85692065 0 4653
0.06750000 0.06749660 31806.54530841 0 925.82832900 0 17000.92219809 0 -2909.81105148 0 5880.80496488 0 5220
0.06850000 0.06852730 32518.19090619 0 113.25292831 0 20744.17129801 0 557.32157983 0 5460.49455275 0 5029
0.06950000 0.06949320 31525.07941411 0 227.04990412 0 19005.69225596 0 437.87842516 0 1055.99506447 0 5040
0.07050000 0.07048030 32165.90891228 0 445.90762198 0 19441.82950432 0 1529.72891733 0 2136.30815273 0 5475
0.07150000 0.07148790 31114.23362989 0 287.02102390 0 16578.61095012 0 -244.74606056 0 -3585.23927260 0 5509
0.07250000 0.07249820 31000.14102497 0 577.13210268 0 17496.18526930 0 170.74548460 0 -1390.23244176 0 5916
0.07350000 0.07351270 30759.47869282 0 679.25116644 0 15433.07623413 0 251.28699522 0 -3953.94385723 0 5721
0.07450000 0.07449140 29895.85949716 0 813.27794136 0 17559.02050688 0 618.53816371 0 -3163.06291245 0 6028
0.07550000 0.07549160 29003.35182912 0 1039.49378919 0 15280.54060371 0 1982.86202960 0 -2177.87607913 0 6183
0.07650000 0.07648840 28407.26012085 0 933.21118840 0 16288.71456777 0 2874.35803907 0 -1843.34307272 0 6330
0.07750000 0.07749960 27483.05381775 0 786.17560839 0 14903.07955216 0 2878.55080180 0 715.03915023 0 6583
0.07850000 0.07848650 26851.66646619 0 -60.44244027 0 14483.69087339 0 3644.85968408 0 1727.98027427 0 6549
0.07950000 0.07947320 26867.17856420 0 -583.23577602 0 11735.35176966 0 3182.00340893 0 3881.70019498 0 6828
0.08050000 0.08048110 27775.08592374 0 -791.11025406 0 10977.78811365 0 1915.84526994 0 2258.23549121 0 7147
0.08150000 0.08149960 28059.69920025 0 -236.37514796 0 10909.17518158 0 1060.74086721 0 4268.03011995 0 7386
0.08250000 0.08250610 28356.78959907 0 211.13876301 0 9942.36681221 0 -205.35657227 0 1611.75194571 0 7227
0.08350000 0.08350160 27337.93701681 0 1195.80290606 0 8941.02716379 0 -1032.97421177 0 1822.33429651 0 7798
0.08450000 0.08449610 26322.34422327 0 1612.68491972 0 11378.57351546 0 -1407.49808128 0 2838.78137951 0 7371
0.08550000 0.08548940 24820.93050513 0 1472.32291405 0 10002.58297818 0 -992.61690345 0 -751.49145649 0 8256
0.08650000 0.08650700 24083.76863019 0 1279.84925158 0 12358.75825920 0 553.06362133 0 2191.73580148 0 8037
0.08750000 0.08749060 22922.38459667 0 676.61973010 0 10431.62737593 0 681.62294374 0 -894.78165168 0 8155
0.08850000 0.08849210 22774.00800702 0 328.14044833 0 10802.38899964 0 2099.94464761 0 1527.91917256 0 8718
0.08950000 0.08949900 22043.70292902 0 304.32263350 0 10770.91517759 0 1897.33191819 0 1412.73622452 0 8571
0.09050000 0.09049190 21804.50188147 0 276.40310521 0 8194.45686419 0 921.84913864 0 1265.74223491 0 8932
0.09150000 0.09150830 21492.68623019 0 495.08434486 0 8608.71980623 0 2066.52619299 0 2655.45760674 0 9285
0.09250000 0.09250820 20873.88840745 0 435.76630689 0 7508.72096635 0 404.05530711 0 2807.73470219 0 9204
0.09350000 0.09350330 20476.75621712 0 404.14410825 0 7993.32790066 0 718.67887294 0 4959.24021470 0 9349
0.09450000 0.09448040 20124.47422322 0 472.32090307 0 7567.49832902 0 1099.13668197 0 3096.70935118 0 9564
0.09550000 0.09549270 19607.40428959 0 595.96918517 0 7979.78291653 0 -381.23678613 0 3898.51620847 0 10155
0.09650000 0.09649430 19260.74262105 0 500.32810843 0 8203.25829372 0 201.88096306 0 3741.66416817 0 9913
0.09750000 0.09749140 18721.19138596 0 568.09461949 0 7728.22839382 0 383.86035401 0 4230.22781155 0 10476
0.09850000 0.09850240 18533.69733177 0 94.38796900 0 7183.16923988 0 409.08549831 0 3297.51233584 0 10575
0.09950000 0.09950330 18519.98373787 0 -51.04514385 0 8162.76946978 0 601.61086777 0 4039.12550847 0 10882
0.10050000 0.10051200 18716.80753217 0 -181.26336149 0 7349.36226094 0 1082.47354133 0 3961.91347860 0 10875
0.10150000 0.10150300 18647.56512367 0 208.90299758 0 7331.99545556 0 543.74624594 0 4238.54589309 0 11118
0.10250000 0.10250800 18813.92675449 0 342.15641573 0 7260.95454294 0 1030.96775561 0 6719.61604438 0 11575
0.10350000 0.10349800 17892.86783359 0 504.60854823 0 7272.38628473 0 827.72217755 0 5521.37391711 0 11364
0.10450000 0.10450100 18168.03896349 0 511.79132404 0 6682.35328721 0 840.93781062 0 7351.56542848 0 12093
0.10550000 0.10551000 17032.73323966 0 351.27370754 0 7075.45008392 0 930.76297467 0 6281.51168214 0 12067
0.10650000 0.10649700 16903.01613022 0 569.04557854 0 5503.55748570 0 -64.32653472 0 5742.76977391 0 12054
0.10750000 0.10749900 16122.80256298 0 342.09796435 0 5936.14268843 0 -191.11354373 0 5237.33391379 0 12807
0.10850000 0.10850100 15994.32192513 0 364.18809116 0 5267.80731792 0 -753.05390694 0 3694.14993753 0 12736
0.10950000 0.10950300 15559.64596136 0 120.59981763 0 5470.65610101 0 -594.99911701 0 2864.72480140 0 12933
0.11050000 0.11050200 15699.03003042 0 57.79965087 0 5501.87138809 0 -566.89636612 0 1527.69435955 0 13428
0.11150000 0.11150900 15883.60151543 0 -117.05226826 0 6170.91491960 0 -79.24771172 0 1923.45519048 0 13453
0.11250000 0.11250000 16122.57774997 0 -150.41227150 0 5903.79209563 0 108.05738714 0 1137.61005723 0 13668
0.11350000 0.11349100 16301.86612913 0 -124.12825789 0 6067.12999140 0 913.61985824 0 1830.86595041 0 13791
0.11450000 0.11448600 16202.16155714 0 128.83359429 0 5660.91535529 0 239.94517863 0 868.21437368 0 14205
0.11550000 0.11549300 16205.30893935 0 172.93066711 0 5830.40188701 0 588.33903146 0 1471.88452867 0 14776
0.11650000 0.11649800 15746.46557651 0 460.38108386 0 5518.24901621 0 -418.48830265 0 584.93536241 0 14553
0.11750000 0.11747300 15312.12683226 0 410.16347672 0 5120.84705026 0 177.23920853 0 1056.20301651 0 14568
0.11850000 0.11849100 14896.55997474 0 251.28137490 0 5565.21245496 0 -155.10074692 0 622.47688773 0 16015
0.11950000 0.11950300 14883.18360037 0 146.68711984 0 4611.16222417 0 499.54463507 0 -26.09562030 0 15270
0.12050000 0.12050700 14766.16842626 0 86.03279331 0 4567.81827495 0 498.04176007 0 -19.66765418 0 15999
0.12150000 0.12150000 14561.92580248 0 126.11672901 0 3946.90720987 0 637.47866019 0 -484.55635139 0 15670
0.12250000 0.12250700 14532.47529756 0 296.89481150 0 3990.80195098 0 446.01328409 0 292.10741835 0 16887
0.12350000 0.12352200 14002.70342861 0 266.49447160 0 3261.16007138 0 464.33442072 0 5.51460705 0 16407
0.12450000 0.12449800 13864.55583113 0 393.19346631 0 3719.17162606 0 141.19606196 0 400.33352765 0 16306
0.12550000 0.12549900 13392.67331344 0 289.67381747 0 3534.77999147 0 69.11718765 0 184.05553913 0 17523
0.12650000 0.12650100 13285.77472499 0 307.27555245 0 3977.59418637 0 88.91928001 0 509.23070381 0 17154
0.12750000 0.12750600 12902.80575458 0 133.32086206 0 4003.06550092 0 22.51625989 0 932.73683294 0 18007
0.12850000 0.12850300 12895.38692510 0 28.67883424 0 3785.75000034 0 455.82299999 0 1018.44454664 0 17496
0.12950000 0.12949900 13203.04353561 0 -226.98133615 0 3584.41870510 0 775.28454189 0 1437.00478945 0 18405
0.13050000 0.13049000 13313.31431928 0 -290.72144612 0 3385.39174326 0 800.08254147 0 1015.17464134 0 18100
0.13150000 0.13148800 13621.19574280 0 -69.83760096 0 2943.04965569 0 424.86962007 0 1462.93697069 0 19059
0.13250000 0.13249300 13356.70323110 0 119.65335484 0 2848.14484157 0 -155.14008919 0 1273.12734244 0 18957
0.13350000 0.13349100 13460.00481132 0 497.57414900 0 2727.28536491 0 -337.94791610 0 1025.54414164 0 19468
0.13450000 0.13450700 12880.88648566 0 400.80788311 0 2937.74406854 0 -647.33446275 0 900.38848827 0 19953
0.13550000 0.13551000 12654.27496692 0 438.21676875 0 2908.34976688 0 -324.68844449 0 558.68844296 0 19956
0.13650000 0.13649900 12276.58910236 0 195.46367556 0 3247.74997505 0 41.44045742 0 245.95667864 0 19723
0.13750000 0.13749600 12210.15685654 0 21.78572999 0 2870.74979019 0 132.94654839 0 -387.28875248 0 20946
0.13850000 0.13851100 12127.08844764 0 -45.20214119 0 2641.36183072 0 463.46551842 0 -877.42945915 0 20955
0.13950000 0.13949800 12135.29412267 0 108.88177646 0 2287.76468068 0 201.63254468 0 -998.64976070 0 20506
0.14050000 0.14048300 11964.88585759 0 259.08351057 0 2278.97449180 0 -124.32946554 0 -1511.63146965 0 21447
0.14150000 0.14148400 11619.12344110 0 396.38243892 0 2121.71778808 0 -315.16536520 0 -1543.86965595 0 21771
0.14250000 0.14249400 11362.83660444 0 299.55097727 0 2531.95657716 0 -471.25978564 0 -1625.42057700 0 22470
0.14350000 0.14350900 11237.78436505 0 86.12991254 0 2444.57175837 0 -370.08606060 0 -1733.89285656 0 22519
0.14450000 0.14449900 11293.59419593 0 22.97667694 0 2681.12001236 0 -255.89791015 0 -1710.52354369 0 22218
0.14550000 0.14550500 11400.83000391 0 112.67628293 0 2787.61393738 0 -2.21852227 0 -1589.03459059 0 23559
0.14650000 0.14650700 11068.92730977 0 217.50883977 0 2879.65238557 0 -5.96001783 0 -1722.18009850 0 23044
0.14750000 0.14750500 11048.41312219 0 424.40762932 0 3339.49616632 0 47.92024294 0 -1189.41821645 0 23649
0.14850000 0.14849900 10683.71020922 0 370.57727704 0 3024.07226616 0 260.19296280 0 -1195.22963288 0 23640
0.14950000 0.14949500 10264.56882477 0 293.30342359 0 2983.66212678 0 327.29627546 0 -561.00851327 0 24457
0.15050000 0.15050000 10170.18108058 0 95.59094344 0 3020.86868070 0 576.68472478 0 -438.10885850 0 24591
0.15150000 0.15149900 10120.31755393 0 22.00683359 0 2798.97823527 0 498.80612432 0 61.46893649 0 25020
0.15250000 0.15250500 10094.73383287 0 -58.23635015 0 2557.06819089 0 620.31418652 0 -18.46591621 0 25297
0.15350000 0.15350100 10105.07523154 0 -56.58048989 0 2355.90550541 0 414.65973701 0 555.22182627 0 25452
0.15450000 0.15450400 10208.53418087 0 -64.99119440 0 2294.55403372 0 375.69964158 0 540.95744049 0 26061
0.15550000 0.15549900 10274.13461854 0 79.49129662 0 2234.59640272 0 111.93979549 0 913.81769370 0 26128
0.15650000 0.15649500 10149.65565234 0 273.14781276 0 2640.76607623 0 -252.77862957 0 1153.59426257 0 26331
0.15750000 0.15749700 9922.60574823 0 341.91024548 0 2522.67179965 0 -251.55901897 0 1209.42657475 0 27345
0.15850000 0.15849900 9680.51585343 0 276.78416327 0 3117.86425586 0 -179.96281820 0 1580.27812367 0 26980
0.15950000 0.15949700 9554.81165631 0 140.00792518 0 3069.29340405 0 -326.73873919 0 1079.16429375 0 27777
0.16050000 0.16050000 9495.47226110 0 61.24176294 0 3402.88219579 0 -30.58704711 0 851.34103287 0 28224
0.16150000 0.16150500 9410.25688791 0 -9.64990756 0 3197.87520776 0 -101.93561634 0 743.96246863 0 28075
0.16250000 0.16249700 9557.94779786 0 47.55672030 0 3167.13202801 0 138.85351035 0 656.04034674 0 28590
0.16350000 0.16349900 9540.92945266 0 -31.70920127 0 2945.55632080 0 199.27650429 0 735.58481164 0 29163
0.16450000 0.16449100 9456.55712827 0 87.83006096 0 2910.11454905 0 429.35576378 0 247.99798082 0 28996
0.16550000 0.16550500 9483.92811280 0 84.65221659 0 2887.62200694 0 70.99550039 0 405.09057104 0 30777
0.16650000 0.16650700 9355.95330423 0 185.84505073 0 2544.78215964 0 72.06875772 0 232.36785598 0 29211
0.16750000 0.16749900 9165.97506622 0 281.76377155 0 2831.01408985 0 -120.59194917 0 656.09205374 0 30922
0.16850000 0.16850800 8918.08499565 0 216.81191943 0 2766.97610264 0 -146.70398082 0 521.77527002 0 30867
0.16950000 0.16949900 8809.33169983 0 245.85326466 0 3135.53455881 0 93.59572794 0 727.51627255 0 30852
0.17050000 0.17049200 8593.94959117 0 218.90043234 0 2829.20434509 0 13.57376020 0 733.11861287 0 31257
0.17150000 0.17149500 8515.33247996 0 110.23155380 0 3071.72138461 0 154.15203599 0 795.84818834 0 32608
0.17250000 0.17250900 8409.90641675 0 57.19377980 0 2892.29811764 0 236.51790423 0 738.34776359 0 32361
0.17350000 0.17350400 8437.18747608 0 36.99995076 0 2967.61047754 0 110.19670778 0 610.71916706 0 32508
0.17450000 0.17449800 8338.29223095 0 98.54453683 0 2607.25769640 0 74.54911971 0 475.34238998 0 32791
0.17550000 0.17549800 8311.97786759 0 148.20123550 0 2619.74605936 0 130.57926735 0 255.98446316 0 33633
0.17650000 0.17650100 8127.70988015 0 78.23414224 0 2169.72660735 0 232.52410102 0 370.25804256 0 33984
0.17750000 0.17750300 8033.36709857 0 7.13531779 0 1955.82826459 0 604.09280345 0 -55.38010080 0 34069
