### header ###
fiducial parameters:
Omega_m = 0.31
Omega_nu = 0
Omega_de = 0.69
Omega_k = 0
H_0 = 100
w_de = -1
zeff = 0
beta = 0
fgrowth = 0
b_1 = 2
gamma = 0.55
Lx = 3500 Ly = 3500 Lz = 3500
nx = 700 ny = 700 nz = 700
xoffset = 857.220397 yoffset = 15.9954215 zoffset = 262.898189
bins = 400 dk = 0.001
kx_ny = 0.628318531 ky_ny = 0.628318531 kz_ny = 0.628318531
############################
A(data) = 3.04744812 (not used)
A(ran) = 3.04896784 (used)
Ngal = 185530
weighted Ngal = 0
Nran = 9360983
weighted Nran = 0
SN(data) = 3441.27274
SN(ran) = 68.4683591
SN(data+ran) = 3509.7411
############################
13 columns: k_central k_mean P_0(k) sigma^{lin}_{P_0(k)} P^img_1(k) sigma^{lin}_{P_1(k)} P_2(k) sigma^{lin}_{P_2(k)} P^img_3(k) sigma^{lin}_{P_3(k)} P_4(k) sigma^{lin}_{P_4(k)} N_modes
### header ###
0.00050000 0 0 0 0 0 0 0 0 0 0 0 0
0.00150000 0.00179520 6873.89397567 0 -17672.66348577 0 -23891.10387666 0 48576.69694699 0 8471.66255187 0 3
0.00250000 0.00253879 14294.62312809 0 -19565.47666236 0 -9067.81046339 0 -21289.34285847 0 -12731.16101792 0 6
0.00350000 0.00331552 28392.31005538 0 -25193.55807686 0 -34772.27859728 0 4910.83797266 0 10868.45030399 0 7
0.00450000 0.00420575 41393.69631687 0 -25413.65001818 0 -37831.98372625 0 -6137.38405847 0 -95.48797908 0 24
0.00550000 0.00557378 65767.13651640 0 -23446.19892073 0 -72628.42972260 0 -5634.61223257 0 20098.17110050 0 45
0.00650000 0.00659388 67982.89358850 0 -15030.32371844 0 -34270.15872912 0 -34580.73790882 0 -20722.02721607 0 40
0.00750000 0.00754703 84554.42292866 0 -12185.98945747 0 -75409.25430694 0 -23217.78889788 0 17681.54359985 0 57
0.00850000 0.00846663 87901.32668381 0 -10298.59427453 0 -57816.96147390 0 -26576.72014931 0 2551.17808991 0 75
0.00950000 0.00948925 88487.63902594 0 4526.56508677 0 -58616.95858642 0 -43755.69425498 0 19140.13043870 0 112
0.01050000 0.01054430 86102.71016035 0 -535.83844815 0 -19486.11766820 0 -31708.07720801 0 -11153.56940978 0 105
0.01150000 0.01145670 82380.93070332 0 7836.05995629 0 -24125.80866393 0 -23334.24203945 0 8869.75019751 0 144
0.01250000 0.01249090 79526.92948272 0 8134.13953237 0 -3017.31663507 0 -21189.75069299 0 -17031.83398760 0 169
0.01350000 0.01339930 70192.35589618 0 5607.69087407 0 -1843.44423858 0 -12340.99803105 0 -9494.56176839 0 180
0.01450000 0.01448870 66334.90178483 0 5016.82606840 0 -2902.25733419 0 -940.33663690 0 -8278.41328450 0 267
0.01550000 0.01550050 67280.12810480 0 3639.36300587 0 -13419.98809472 0 6336.14124470 0 -29104.51768570 0 238
0.01650000 0.01653350 61972.74245565 0 -5922.99112708 0 -20013.30418749 0 11021.78402061 0 -13717.52811957 0 315
0.01750000 0.01747870 63800.13504499 0 -3557.90201002 0 -26413.95552673 0 3741.24826410 0 -11443.31966367 0 297
0.01850000 0.01844180 65217.13147614 0 2180.39398489 0 -26906.63324827 0 -6916.12510046 0 -13943.91482529 0 388
0.01950000 0.01947590 60740.20510300 0 2936.68744738 0 -21691.53334162 0 -8225.69463258 0 -8895.78354460 0 399
0.02050000 0.02045430 57954.20981932 0 3134.19692137 0 -15932.16112658 0 -13155.15836349 0 2014.24592644 0 462
0.02150000 0.02154770 56075.78467567 0 -444.18443022 0 -7509.17059238 0 -7874.79523871 0 -445.54904522 0 571
0.02250000 0.02255340 56457.74198751 0 2247.06228438 0 -4876.59895053 0 -5386.04772296 0 -7750.74341724 0 510
0.02350000 0.02348930 55939.54798881 0 2192.08426165 0 -2226.69422525 0 -6827.78482637 0 -4747.85977771 0 555
0.02450000 0.02439640 50220.97933592 0 3968.24196496 0 -4636.50989157 0 -4112.33586668 0 -10624.42701727 0 592
0.02550000 0.02547300 49641.18657122 0 1457.86743721 0 -5573.18207633 0 -4276.39316410 0 -11433.87751706 0 837
0.02650000 0.02652900 45886.13478802 0 -430.67204398 0 -5029.60668828 0 -6835.19241520 0 -25201.08931285 0 723
0.02750000 0.02749970 51288.84115537 0 -475.88306528 0 515.19948934 0 -6164.22673242 0 -14445.02303487 0 826
0.02850000 0.02848090 48237.56651444 0 1654.72495346 0 6570.40764658 0 -9812.78459059 0 -19012.32423989 0 831
0.02950000 0.02946900 49647.93096166 0 1417.95188646 0 14860.47748589 0 -6913.03392151 0 -704.27735122 0 996
0.03050000 0.03053250 51224.65703969 0 1122.05749288 0 23289.95387557 0 -1649.13835005 0 3953.57291575 0 1041
0.03150000 0.03150510 52756.30810830 0 -813.88268837 0 27549.03643754 0 1770.79591291 0 3200.92142411 0 1036
0.03250000 0.03246190 58216.67901389 0 503.45300933 0 35320.14791391 0 6146.09556279 0 20746.75664768 0 1059
0.03350000 0.03345080 52792.39059714 0 -740.77462008 0 26573.57276711 0 4882.51153281 0 5866.96772383 0 1302
0.03450000 0.03451200 57926.78263154 0 72.49028213 0 31578.13528556 0 8591.88131144 0 20140.32354075 0 1339
0.03550000 0.03553350 53734.69434792 0 -1618.27152314 0 20664.69989735 0 6917.71003222 0 1824.80723967 0 1365
0.03650000 0.03647120 56925.80268394 0 729.69920692 0 17536.42679891 0 3722.79111560 0 4598.86495227 0 1308
0.03750000 0.03744890 54945.20002514 0 903.03341339 0 20092.32596212 0 318.59825993 0 -2533.71011867 0 1579
0.03850000 0.03847530 52769.34726315 0 4059.08890417 0 14960.74409041 0 -2541.89331240 0 -2662.94388012 0 1662
0.03950000 0.03950240 48471.25964314 0 3496.76411070 0 16920.66395187 0 984.15718971 0 -1786.24056701 0 1683
0.04050000 0.04050350 47681.15430325 0 3327.24385702 0 22158.58237950 0 -162.50046729 0 -1395.27949394 0 1822
0.04150000 0.04152450 45055.78791852 0 2165.37647552 0 21269.22209366 0 1896.70244174 0 3402.76978929 0 1887
0.04250000 0.04250150 44531.86118795 0 1715.01980398 0 24717.74133142 0 4351.40202643 0 3027.93905001 0 1920
0.04350000 0.04349210 43377.55876439 0 847.97783017 0 21372.86089340 0 1769.85169825 0 4041.73333944 0 2005
0.04450000 0.04448520 43998.04268474 0 378.69415093 0 26002.77252299 0 1008.65169172 0 6519.24020445 0 2151
0.04550000 0.04548030 42419.63050909 0 -448.83805962 0 18800.66278663 0 4223.64079022 0 8005.42284085 0 2274
0.04650000 0.04648670 40986.67235391 0 -197.19810797 0 16131.57027055 0 4087.29169685 0 4098.22885001 0 2311
0.04750000 0.04749250 43697.58009070 0 -626.42910052 0 16843.89030738 0 3632.52869023 0 5398.65973308 0 2568
0.04850000 0.04851840 42424.46398891 0 1106.81854268 0 14959.17039931 0 2556.76469332 0 1714.55893730 0 2493
0.04950000 0.04949480 42190.88326672 0 569.87401450 0 16313.89362541 0 -1216.17096519 0 1806.21520336 0 2644
0.05050000 0.05050630 40926.19765297 0 304.04161723 0 13623.78109247 0 -1506.88791504 0 847.22245844 0 2829
0.05150000 0.05149060 41548.92970347 0 354.89319707 0 14494.25708508 0 1475.33540844 0 -120.08836802 0 2784
0.05250000 0.05249300 39849.56812596 0 1284.09821756 0 14679.16578960 0 -672.78217194 0 -1120.57597511 0 3055
0.05350000 0.05348950 39875.30921613 0 1642.75366043 0 12909.10051899 0 2126.70863700 0 -4970.51458739 0 3009
0.05450000 0.05448610 36899.57174812 0 1749.07897569 0 12712.16431819 0 -720.77750243 0 -4535.98475208 0 3336
0.05550000 0.05550870 36325.28690227 0 1908.42644046 0 13688.19002116 0 -808.65353765 0 -4793.10339690 0 3349
0.05650000 0.05647670 34373.34790283 0 626.07389596 0 11603.83615611 0 -982.94207537 0 -6355.34027614 0 3324
0.05750000 0.05747970 35910.28207728 0 -106.77066985 0 14637.68778840 0 -163.57394944 0 -2128.38349396 0 3639
0.05850000 0.05849280 34762.61163765 0 -76.33908094 0 14575.86420938 0 282.94628801 0 -2409.38852159 0 3846
0.05950000 0.05951020 35042.05421482 0 805.92430766 0 14371.50917909 0 846.05455483 0 -2265.74424589 0 3787
0.06050000 0.06049470 34439.89255516 0 997.94384783 0 17130.86412054 0 2450.88900408 0 -1380.10461545 0 3930
0.06150000 0.06148310 32974.78613888 0 1646.09213370 0 14166.36730325 0 329.80294058 0 -740.26654267 0 4083
0.06250000 0.06249100 31909.06004308 0 593.51759925 0 15395.64486719 0 2612.18110142 0 -643.62954427 0 4303
0.06350000 0.06350600 30969.11682895 0 489.81023154 0 11871.81326954 0 2104.02500383 0 -354.77741837 0 4470
0.06450000 0.06451750 31863.76022063 0 -161.57536174 0 12463.74593703 0 2235.94528081 0 -1032.41105517 0 4479
0.06550000 0.06550280 31330.72856297 0 70.84813546 0 10886.54775166 0 1159.33823509 0 -419.19646365 0 4636
0.06650000 0.06648880 31457.18588369 0 416.09404404 0 10688.52120774 0 929.00044064 0 -1119.45753036 0 4653
0.06750000 0.06749660 31077.13948248 0 148.64861340 0 9514.69377385 0 1582.88595464 0 1201.55811924 0 5220
0.06850000 0.06852730 30616.27280251 0 122.70968777 0 10436.20232078 0 879.34149384 0 3672.53416618 0 5029
0.06950000 0.06949320 31511.81544625 0 97.08302742 0 10056.51562039 0 1284.96374766 0 2802.94618498 0 5040
0.07050000 0.07048030 30742.50531022 0 -67.88206495 0 10996.04293043 0 1013.21989218 0 3755.97351655 0 5475
0.07150000 0.07148790 31452.46481039 0 607.02099297 0 9219.81778322 0 491.27264020 0 618.77196924 0 5509
0.07250000 0.07249820 30305.91843583 0 857.42447304 0 10746.65785332 0 -1691.63925046 0 2545.17558242 0 5916
0.07350000 0.07351270 29105.41693776 0 1429.48479411 0 10748.83853956 0 -2490.24252229 0 -2815.27717883 0 5721
0.07450000 0.07449140 28401.07776295 0 702.57776483 0 11726.80887511 0 -1379.12667884 0 -1916.01387970 0 6028
0.07550000 0.07549160 28042.38859813 0 546.86889871 0 10376.62687190 0 -1226.16390369 0 -3617.93832558 0 6183
0.07650000 0.07648840 27838.59560037 0 75.61788078 0 10728.83018126 0 961.60282402 0 -4074.94946235 0 6330
0.07750000 0.07749960 27796.55556664 0 -21.59767391 0 10787.69746914 0 1972.30705856 0 -5182.99660816 0 6583
0.07850000 0.07848650 27532.62508748 0 377.14181707 0 9742.47432026 0 925.62374916 0 -3784.78330438 0 6549
0.07950000 0.07947320 26901.12532941 0 1203.12056969 0 9435.73944312 0 935.64478929 0 -2156.18162322 0 6828
0.08050000 0.08048110 26412.83146165 0 1054.05605222 0 11017.26527901 0 210.76444934 0 -1453.79832164 0 7147
0.08150000 0.08149960 25343.28354460 0 682.44913157 0 11651.60892172 0 -349.05143089 0 339.21586150 0 7386
0.08250000 0.08250610 25442.76330357 0 315.02485706 0 11876.30952983 0 1037.93583500 0 492.61140170 0 7227
0.08350000 0.08350160 24795.30182146 0 -5.05695519 0 11528.52379621 0 1542.54325916 0 1256.71599238 0 7798
0.08450000 0.08449610 24687.50398095 0 -343.40525203 0 10402.06446451 0 2895.38929659 0 3029.11931834 0 7371
0.08550000 0.08548940 25105.54378164 0 120.10410493 0 8686.60627515 0 2831.22766222 0 921.83564986 0 8256
0.08650000 0.08650700 24790.35593514 0 330.99332549 0 8319.94748895 0 1615.39391655 0 2825.15771082 0 8037
0.08750000 0.08749060 23975.85838317 0 559.16504655 0 7389.86232552 0 968.89913041 0 2036.28884252 0 8155
0.08850000 0.08849210 23249.71234595 0 1043.64271338 0 7326.86971882 0 -24.90197560 0 3965.47676488 0 8718
0.08950000 0.08949900 22386.65518283 0 793.47528697 0 6873.07340816 0 72.40968666 0 2531.05732510 0 8571
0.09050000 0.09049190 21585.19678571 0 572.65832369 0 7216.30667823 0 184.45121004 0 2715.19042472 0 8932
0.09150000 0.09150830 21238.42271066 0 299.93765565 0 6295.25899799 0 355.45298148 0 1351.18242112 0 9285
0.09250000 0.09250820 21211.10792938 0 179.67280941 0 6570.92471651 0 864.69829813 0 1278.79263041 0 9204
0.09350000 0.09350330 20663.12620624 0 327.75826621 0 5377.77460402 0 535.03474162 0 -50.28864805 0 9349
0.09450000 0.09448040 20405.04086546 0 643.35077613 0 5226.54288909 0 91.75091234 0 -692.81076341 0 9564
0.09550000 0.09549270 19445.98854509 0 822.75493399 0 5519.60913495 0 -626.45495402 0 -386.00619423 0 10155
0.09650000 0.09649430 19128.21534893 0 819.42994951 0 5352.66299029 0 -333.15040637 0 -778.08796018 0 9913
0.09750000 0.09749140 18508.51827413 0 552.69605205 0 5573.33944544 0 -20.89400917 0 -500.48772567 0 10476
0.09850000 0.09850240 18134.20460479 0 640.94302875 0 5568.17998675 0 -51.35763394 0 -563.55227253 0 10575
0.09950000 0.09950330 17255.86015667 0 575.98330817 0 5366.56767524 0 415.25436743 0 -810.07210777 0 10882
0.10050000 0.10051200 16769.02757351 0 617.16792839 0 4943.19980611 0 77.79766777 0 -817.55725710 0 10875
0.10150000 0.10150300 16243.18993231 0 439.95457335 0 4497.82274285 0 184.12298304 0 -1193.59973852 0 11118
0.10250000 0.10250800 16068.84743947 0 54.52041583 0 4060.48274486 0 209.20986734 0 -831.08313212 0 11575
0.10350000 0.10349800 15962.28607054 0 -233.06365226 0 4167.68483088 0 363.57547570 0 -2244.40949081 0 11364
0.10450000 0.10450100 16442.59907628 0 -246.07358141 0 3863.09691802 0 257.82568175 0 -1568.47544040 0 12093
0.10550000 0.10551000 16434.50580775 0 -28.33453311 0 3883.22892348 0 480.74464672 0 -2021.41746160 0 12067
0.10650000 0.10649700 16665.38877377 0 138.33531635 0 3929.97878987 0 -17.68075675 0 -857.27834458 0 12054
0.10750000 0.10749900 16508.01966353 0 220.95634735 0 4472.62120391 0 -179.97743105 0 16.98001459 0 12807
0.10850000 0.10850100 16083.79750495 0 434.89515646 0 5068.56678371 0 730.30395393 0 40.11214973 0 12736
0.10950000 0.10950300 16070.64594359 0 375.10725928 0 5537.34688180 0 -137.75192658 0 1377.45182188 0 12933
0.11050000 0.11050200 15578.30544157 0 361.35207498 0 5179.47828448 0 291.23401979 0 807.55757421 0 13428
0.11150000 0.11150900 15471.29444661 0 439.35994293 0 6067.64706134 0 92.71255001 0 2425.92351881 0 13453
0.11250000 0.11250000 15147.22648604 0 261.34850169 0 5470.70106362 0 259.46007237 0 1829.50583167 0 13668
0.11350000 0.11349100 14871.83054313 0 189.42294986 0 5740.83638198 0 203.08258863 0 3027.19716706 0 13791
0.11450000 0.11448600 14923.42512999 0 57.66577472 0 4775.97264519 0 914.87656300 0 1566.82306474 0 14205
0.11550000 0.11549300 14802.47572812 0 -100.31426488 0 4516.20120679 0 294.00484019 0 2778.45280704 0 14776
0.11650000 0.11649800 15007.61760396 0 -227.65352706 0 3440.87559526 0 819.35238902 0 1711.45651770 0 14553
0.11750000 0.11747300 14822.14686690 0 -12.76038671 0 4182.96087522 0 291.01033084 0 1867.42054659 0 14568
0.11850000 0.11849100 14947.81734207 0 87.53285815 0 2890.76938914 0 62.82646988 0 991.30399545 0 16015
0.11950000 0.11950300 14911.95966624 0 154.92764090 0 3815.08809875 0 123.34366047 0 1109.00934551 0 15270
0.12050000 0.12050700 14737.05514087 0 344.10442050 0 3559.92532716 0 -326.81067935 0 1868.35352060 0 15999
0.12150000 0.12150000 14571.36794909 0 336.61365086 0 3977.34689205 0 273.45805472 0 1079.91292109 0 15670
0.12250000 0.12250700 14061.94165796 0 181.83438655 0 4347.86122145 0 416.00299477 0 2598.16400996 0 16887
0.12350000 0.12352200 14173.89853924 0 370.19959117 0 3749.86984321 0 102.30903076 0 2054.24016174 0 16407
0.12450000 0.12449800 13819.70563471 0 348.71421137 0 4591.14262522 0 227.43321031 0 2372.74400020 0 16306
0.12550000 0.12549900 13643.11501173 0 368.47190316 0 4168.04453170 0 -306.74724186 0 2072.01163055 0 17523
0.12650000 0.12650100 13317.92298608 0 218.24510240 0 4448.49876744 0 -355.65418913 0 2198.14297240 0 17154
0.12750000 0.12750600 13217.54397505 0 77.82205999 0 4474.79064950 0 52.66390996 0 1832.20358785 0 18007
0.12850000 0.12850300 13222.26504836 0 -52.60107472 0 4543.06636204 0 50.93790804 0 1234.51570718 0 17496
0.12950000 0.12949900 13211.24921064 0 -130.97044199 0 3738.49430467 0 729.09783210 0 1054.33482035 0 18405
0.13050000 0.13049000 13239.91287001 0 -13.53408070 0 3864.06361398 0 521.68646888 0 981.64827647 0 18100
0.13150000 0.13148800 13199.33412087 0 13.72213679 0 3147.52833314 0 904.42613001 0 1019.84400765 0 19059
0.13250000 0.13249300 13057.13988912 0 226.73741402 0 3206.92393160 0 325.57757997 0 921.38939603 0 18957
0.13350000 0.13349100 12765.33259614 0 371.87332407 0 2944.07255491 0 -118.44498488 0 480.97395600 0 19468
0.13450000 0.13450700 12550.74857369 0 348.45904860 0 3143.12199805 0 -669.66289136 0 787.01753313 0 19953
0.13550000 0.13551000 12117.53389452 0 274.78782370 0 3181.87976177 0 -621.81930966 0 15.17386683 0 19956
0.13650000 0.13649900 12295.47339559 0 128.25694891 0 3582.12561235 0 -667.81043212 0 494.89550193 0 19723
0.13750000 0.13749600 12232.18853197 0 -51.63943705 0 3669.82516935 0 -294.63544070 0 -559.59556347 0 20946
0.13850000 0.13851100 12362.69248696 0 8.60414486 0 3855.89166090 0 358.97242922 0 14.46334530 0 20955
0.13950000 0.13949800 12226.79301962 0 36.07439558 0 3647.83845652 0 449.26970061 0 -177.35498723 0 20506
0.14050000 0.14048300 12354.03718590 0 217.37507603 0 3875.68644684 0 520.97943195 0 684.70850237 0 21447
0.14150000 0.14148400 12029.29478628 0 296.22037245 0 3934.09286804 0 366.34517204 0 572.05919700 0 21771
0.14250000 0.14249400 11798.86144629 0 426.80301200 0 4049.82660796 0 167.33057491 0 1354.40848788 0 22470
0.14350000 0.14350900 11331.92481493 0 407.42300607 0 4214.17616230 0 -119.33524442 0 1602.62453732 0 22519
0.14450000 0.14449900 10977.43965347 0 357.65502496 0 4051.13052345 0 19.66596808 0 1825.97626735 0 22218
0.14550000 0.14550500 10974.62949079 0 205.51394138 0 4307.93443005 0 49.23461223 0 1529.96497100 0 23559
0.14650000 0.14650700 10724.10910795 0 50.00515884 0 4127.85920534 0 173.33870273 0 1160.42857821 0 23044
0.14750000 0.14750500 10674.08821220 0 92.52719168 0 4094.68804503 0 64.93723927 0 685.33011035 0 23649
0.14850000 0.14849900 10602.58643290 0 106.00720485 0 4114.22429600 0 -131.92027698 0 454.82820240 0 23640
0.14950000 0.14949500 10520.03509393 0 96.19984949 0 3906.00248186 0 12.87594060 0 441.67326885 0 24457
0.15050000 0.15050000 10606.21716308 0 82.33113462 0 3739.23618762 0 -38.04982754 0 546.55078830 0 24591
0.15150000 0.15149900 10537.80656273 0 -77.63636444 0 3980.47179295 0 224.31055753 0 379.86317861 0 25020
0.15250000 0.15250500 10684.66566453 0 -26.41204462 0 3583.85667256 0 285.81377801 0 292.96395594 0 25297
0.15350000 0.15350100 10574.02393939 0 29.54829858 0 3290.34080067 0 246.33324044 0 -47.80794884 0 25452
0.15450000 0.15450400 10489.46052394 0 276.34128164 0 3561.35288980 0 -38.05511064 0 134.85633495 0 26061
0.15550000 0.15549900 10247.12333483 0 308.85598794 0 3359.29095226 0 107.51097910 0 94.64436824 0 26128
0.15650000 0.15649500 9985.90185249 0 298.14027560 0 3587.70097511 0 -96.67780196 0 278.81422480 0 26331
0.15750000 0.15749700 9849.21553960 0 208.11165576 0 3526.37198472 0 210.70150169 0 421.57610941 0 27345
0.15850000 0.15849900 9623.78428919 0 136.18385580 0 3797.86742183 0 21.32553775 0 499.03206140 0 26980
0.15950000 0.15949700 9625.53783071 0 32.36284511 0 3731.35649145 0 178.59483101 0 417.40807611 0 27777
0.16050000 0.16050000 9561.36495569 0 73.85006364 0 3576.39288048 0 263.13801329 0 634.87307735 0 28224
0.16150000 0.16150500 9559.09434424 0 122.99857249 0 3244.96229367 0 146.39261480 0 865.41882384 0 28075
0.16250000 0.16249700 9342.86918678 0 106.67433747 0 3174.19115667 0 425.04385016 0 525.26099581 0 28590
0.16350000 0.16349900 9223.22370040 0 110.55438529 0 2697.47515917 0 427.62470356 0 982.45198299 0 29163
0.16450000 0.16449100 9226.47224846 0 25.00673846 0 2543.33211570 0 678.78018317 0 551.84963105 0 28996
0.16550000 0.16550500 9127.44211552 0 33.90539961 0 2386.73861036 0 471.60374955 0 1072.91674008 0 30777
0.16650000 0.16650700 9070.81171713 0 34.97854454 0 2350.37510525 0 333.28866637 0 1017.74425409 0 29211
0.16750000 0.16749900 9047.32999776 0 -5.00675445 0 2106.83516651 0 509.76913098 0 1584.97671567 0 30922
0.16850000 0.16850800 9104.65731649 0 62.91414695 0 2165.44391942 0 261.96786155 0 1551.94044317 0 30867
0.16950000 0.16949900 9042.37287078 0 90.73442029 0 2111.36514875 0 73.23418839 0 1687.90735442 0 30852
0.17050000 0.17049200 8875.11198791 0 147.11089238 0 2029.97159681 0 -71.65206680 0 1461.28459503 0 31257
0.17150000 0.17149500 8817.76218788 0 206.12992904 0 2256.29085863 0 -385.63862495 0 1395.25701264 0 32608
0.17250000 0.17250900 8667.15994938 0 206.10070335 0 2126.20280772 0 -291.93094013 0 1421.97603942 0 32361
0.17350000 0.17350400 8518.83956299 0 204.43483891 0 2500.02188843 0 -268.28960352 0 1114.71509982 0 32508
0.17450000 0.17449800 8369.65364649 0 185.25941283 0 2153.96721502 0 145.37645997 0 1103.02257493 0 32791
0.17550000 0.17549800 8296.00490290 0 125.41418834 0 2277.09730313 0 236.56286683 0 811.43784684 0 33633
0.17650000 0.17650100 8151.52881905 0 89.60518452 0 2008.46823196 0 507.50413985 0 981.52350524 0 33984
0.17750000 0.17750300 8071.79888342 0 35.02530565 0 1787.83673941 0 266.18310557 0 1050.49051780 0 34069
