### header ###
fiducial parameters:
Omega_m = 0.31
Omega_nu = 0
Omega_de = 0.69
Omega_k = 0
H_0 = 100
w_de = -1
zeff = 0
beta = 0
fgrowth = 0
b_1 = 2
gamma = 0.55
Lx = 3500 Ly = 3500 Lz = 3500
nx = 700 ny = 700 nz = 700
xoffset = 857.220397 yoffset = 15.9954215 zoffset = 262.898189
bins = 400 dk = 0.001
kx_ny = 0.628318531 ky_ny = 0.628318531 kz_ny = 0.628318531
############################
A(data) = 3.11754619 (not used)
A(ran) = 3.12137101 (used)
Ngal = 191044
weighted Ngal = 0
Nran = 9360983
weighted Nran = 0
SN(data) = 3432.40676
SN(ran) = 70.0942621
SN(data+ran) = 3502.50103
############################
13 columns: k_central k_mean P_0(k) sigma^{lin}_{P_0(k)} P^img_1(k) sigma^{lin}_{P_1(k)} P_2(k) sigma^{lin}_{P_2(k)} P^img_3(k) sigma^{lin}_{P_3(k)} P_4(k) sigma^{lin}_{P_4(k)} N_modes
### header ###
0.00050000 0 0 0 0 0 0 0 0 0 0 0 0
0.00150000 0.00179520 53694.79003783 0 -78859.34723580 0 -61215.68462892 0 141197.18602720 0 32032.25757509 0 3
0.00250000 0.00253879 90293.67437889 0 -80249.25369869 0 -37942.59172945 0 -73839.49743236 0 -24419.86408705 0 6
0.00350000 0.00331552 118388.78162894 0 -56508.32491579 0 -84726.06766532 0 -14375.21859384 0 50481.31280685 0 7
0.00450000 0.00420575 130940.09223517 0 -25572.14319348 0 -90570.19438687 0 -53172.77421788 0 5675.03361260 0 24
0.00550000 0.00557378 110645.54696639 0 15731.06588501 0 -97778.93610717 0 -68541.10430380 0 30807.25145843 0 45
0.00650000 0.00659388 82721.63482697 0 22555.93938284 0 -67533.26755926 0 -53872.16750636 0 6937.61722466 0 40
0.00750000 0.00754703 57457.14824400 0 25364.52837448 0 -57843.26459661 0 -55075.02954109 0 55525.55482238 0 57
0.00850000 0.00846663 44291.53607532 0 15836.27837585 0 -26825.25093697 0 -41336.93103068 0 37058.96417548 0 75
0.00950000 0.00948925 38676.94344170 0 3046.08146029 0 -15310.66554767 0 -16664.48952171 0 47592.35316248 0 112
0.01050000 0.01054430 44699.68410337 0 -2662.03338741 0 -806.55153597 0 180.64400164 0 38510.91903040 0 105
0.01150000 0.01145670 51876.16515606 0 -6687.93989062 0 -1598.75775347 0 10863.38077051 0 18535.04620985 0 144
0.01250000 0.01249090 60002.59360203 0 -4241.40101837 0 -2580.59487287 0 4702.27893899 0 12633.36735656 0 169
0.01350000 0.01339930 64928.24675235 0 -517.78821121 0 4723.38888107 0 -6752.10152500 0 -1288.23477703 0 180
0.01450000 0.01448870 60255.39583697 0 1978.73671078 0 -2597.66942133 0 -13352.09456430 0 6325.55255171 0 267
0.01550000 0.01550050 62024.67426203 0 -297.72999185 0 5291.58129422 0 -8902.42676918 0 -17709.53282017 0 238
0.01650000 0.01653350 61756.80955511 0 -2184.46310046 0 6491.86921992 0 -16531.40021705 0 -1068.81165443 0 315
0.01750000 0.01747870 63355.67971509 0 -2665.18076962 0 11647.22506793 0 -9958.68823707 0 -18196.25299682 0 297
0.01850000 0.01844180 70369.05892567 0 -6940.89949467 0 13878.94386406 0 -2997.16214831 0 -18037.42260199 0 388
0.01950000 0.01947590 75003.80403507 0 -1197.46652237 0 18333.61374875 0 -12670.23669096 0 -30774.76597781 0 399
0.02050000 0.02045430 74633.87421952 0 1893.97096362 0 23074.35819455 0 -10253.76655941 0 -36860.22947056 0 462
0.02150000 0.02154770 73167.08170563 0 5439.15979766 0 24614.88937723 0 -6645.77620973 0 -32270.44696408 0 571
0.02250000 0.02255340 74086.22971590 0 479.45534408 0 23480.70771847 0 -2022.87874620 0 -30080.88060819 0 510
0.02350000 0.02348930 72833.57159844 0 -4.09041660 0 29423.52735344 0 9498.63088396 0 -18645.42940003 0 555
0.02450000 0.02439640 76653.25712334 0 -5435.52906748 0 21126.35342287 0 16952.69980645 0 -27779.46977753 0 592
0.02550000 0.02547300 80078.62062060 0 -2094.74022632 0 21938.94006421 0 13435.83741225 0 -18433.31832074 0 837
0.02650000 0.02652900 80370.98994611 0 1925.30989785 0 16910.88458573 0 5299.58463754 0 -19893.02922466 0 723
0.02750000 0.02749970 72101.58042284 0 5782.86517507 0 20493.50478671 0 -2392.49382354 0 -8298.64645582 0 826
0.02850000 0.02848090 71942.63762150 0 5823.69121852 0 16637.28714694 0 -3247.03057341 0 -19259.95577549 0 831
0.02950000 0.02946900 67280.91495035 0 6179.53649871 0 17491.57660250 0 -11809.20284496 0 -10732.80937162 0 996
0.03050000 0.03053250 61995.33616362 0 3611.74472703 0 18954.43488863 0 -2249.60267144 0 -25275.05279466 0 1041
0.03150000 0.03150510 59390.98979576 0 2693.09130538 0 24090.28820762 0 -9927.00084266 0 -29693.64019051 0 1036
0.03250000 0.03246190 58013.33564217 0 2579.90919317 0 28707.49790188 0 -4957.94753987 0 -17000.92219809 0 1059
0.03350000 0.03345080 56141.31766943 0 2791.24466757 0 22746.35600622 0 5070.80367321 0 -26662.93594042 0 1302
0.03450000 0.03451200 54181.84743400 0 2293.49741255 0 29517.61160006 0 4415.14775672 0 -13837.57826937 0 1339
0.03550000 0.03553350 53990.86877808 0 1741.57022101 0 24858.69909159 0 10753.48092831 0 -12291.53916783 0 1365
0.03650000 0.03647120 50647.78684418 0 2757.29790236 0 27895.81051259 0 6399.03268554 0 -2081.56618367 0 1308
0.03750000 0.03744890 49625.00003417 0 2293.49741255 0 23488.35136097 0 3742.29364462 0 3269.29830251 0 1579
0.03850000 0.03847530 48335.02295628 0 762.15995810 0 25727.37658008 0 2031.64645377 0 6266.19067520 0 1662
0.03950000 0.03950240 49163.79613467 0 498.78476708 0 26339.09279286 0 1134.46267503 0 4328.11139811 0 1683
0.04050000 0.04050350 47847.51593407 0 364.29038109 0 29145.43365436 0 995.86207932 0 4543.08884334 0 1822
0.04150000 0.04152450 46051.59716678 0 2585.46207464 0 29671.15888905 0 -2241.40823706 0 5627.60930717 0 1887
0.04250000 0.04250150 44353.02243482 0 2298.69059319 0 25398.92476572 0 2938.80068971 0 -340.51865292 0 1920
0.04350000 0.04349210 44317.50197851 0 201.30431768 0 28845.08346683 0 3390.48375804 0 4443.06953314 0 2005
0.04450000 0.04448520 43525.14850849 0 -194.81958627 0 26300.31254784 0 5749.28935133 0 -264.23285267 0 2151
0.04550000 0.04548030 43240.19801245 0 -995.31690776 0 17878.14258113 0 6762.67897733 0 -2534.53068617 0 2274
0.04650000 0.04648670 43158.25366863 0 -345.44767826 0 15864.60481569 0 3602.97701946 0 23.43585752 0 2311
0.04750000 0.04749250 42681.42526462 0 1438.51103665 0 10948.40505264 0 2145.05337900 0 -2986.11258864 0 2568
0.04850000 0.04851840 40764.44468895 0 2433.43227350 0 12126.41400859 0 4165.05451861 0 1903.07589071 0 2493
0.04950000 0.04949480 38113.33721405 0 2554.06693714 0 11277.18284587 0 1461.79042431 0 1883.43847388 0 2644
0.05050000 0.05050630 35853.74160411 0 2307.54822596 0 9866.44745718 0 2730.74748533 0 5307.82403452 0 2829
0.05150000 0.05149060 34067.82701597 0 1125.39146989 0 13388.28945965 0 500.75750128 0 6175.04023842 0 2784
0.05250000 0.05249300 34385.93743165 0 203.52659433 0 12650.67795869 0 211.45237716 0 9025.66926380 0 3055
0.05350000 0.05348950 33939.57119113 0 -538.40131652 0 13071.97754808 0 674.35024272 0 7665.08965867 0 3009
0.05450000 0.05448610 36128.12588845 0 -1435.63343006 0 14039.01073047 0 -194.69818725 0 9531.43110279 0 3336
0.05550000 0.05550870 37265.23011640 0 -1704.92569962 0 12861.66497291 0 -1957.80661912 0 6572.99299625 0 3349
0.05650000 0.05647670 38801.60225831 0 -858.60249324 0 13686.16670403 0 1083.35256022 0 6726.28175027 0 3324
0.05750000 0.05747970 39101.05319378 0 227.47255258 0 13691.33740336 0 -572.08842269 0 5491.19276990 0 3639
0.05850000 0.05849280 39283.03932912 0 1179.12178038 0 12913.48437278 0 -788.22253088 0 1333.17489865 0 3846
0.05950000 0.05951020 37616.38804523 0 2161.99303965 0 14197.27909276 0 -1685.43441126 0 1737.16388592 0 3787
0.06050000 0.06049470 35848.90812429 0 2054.19519914 0 13816.44584600 0 -2198.48019192 0 -1866.34144412 0 3930
0.06150000 0.06148310 34531.50385862 0 1614.88808727 0 15340.34086560 0 -1537.37255983 0 333.51572751 0 4083
0.06250000 0.06249100 33329.99070198 0 867.45675382 0 13558.69772474 0 -953.01159467 0 -4507.18620491 0 4303
0.06350000 0.06350600 33395.07406972 0 -15.51288485 0 14166.70452278 0 3332.38083441 0 -1450.84203050 0 4470
0.06450000 0.06451750 32896.10158377 0 280.65544339 0 11813.24947923 0 2837.35381687 0 -3720.00343422 0 4479
0.06550000 0.06550280 32487.72874271 0 442.12963927 0 11406.45032927 0 2324.29679555 0 -2795.83085307 0 4636
0.06650000 0.06648880 31994.03936261 0 1130.60713182 0 9288.68925025 0 3024.90407431 0 -1075.58077430 0 4653
0.06750000 0.06749660 30321.20572082 0 605.69347212 0 8858.39714027 0 2653.88391563 0 -740.08444413 0 5220
0.06850000 0.06852730 30114.60256038 0 774.60897878 0 7010.00701537 0 2378.99380201 0 1179.36907470 0 5029
0.06950000 0.06949320 29669.47279144 0 635.80492730 0 7234.66266088 0 1413.38818226 0 248.27450083 0 5040
0.07050000 0.07048030 27941.11033504 0 1166.31867920 0 7010.13066253 0 442.35782448 0 1653.57840708 0 5475
0.07150000 0.07148790 27250.82197365 0 975.12532685 0 6263.38051251 0 577.55025488 0 578.24829929 0 5509
0.07250000 0.07249820 26274.68386417 0 636.56704342 0 7842.72566217 0 -1021.19513387 0 2673.20659424 0 5916
0.07350000 0.07351270 25643.52132562 0 439.57351529 0 8233.09098076 0 453.04655926 0 -40.94519435 0 5721
0.07450000 0.07449140 26384.05539578 0 -10.99158039 0 9667.22940427 0 -1014.95207645 0 1194.92613531 0 6028
0.07550000 0.07549160 26235.56639963 0 34.65189123 0 10268.46933057 0 -1253.74846058 0 203.57268100 0 6183
0.07650000 0.07648840 26120.91176217 0 294.13073548 0 10497.60999572 0 -927.30535051 0 1450.41488577 0 6330
0.07750000 0.07749960 25822.47248526 0 492.21011047 0 10522.57548099 0 -288.08888571 0 176.75810868 0 6583
0.07850000 0.07848650 25769.64142683 0 217.13115391 0 9248.56012714 0 863.44721371 0 -399.59276877 0 6549
0.07950000 0.07947320 25783.35502072 0 136.12090816 0 9607.18184806 0 1902.44641427 0 -1055.66908560 0 6828
0.08050000 0.08048110 25013.82007167 0 249.56717566 0 7459.73421046 0 1974.51022610 0 -3472.20328885 0 7147
0.08150000 0.08149960 24607.24573473 0 158.19754619 0 6074.90852171 0 501.57469659 0 -2826.75388323 0 7386
0.08250000 0.08250610 24566.55457909 0 550.51761394 0 6480.06653666 0 -957.80685627 0 -3752.85985630 0 7227
0.08350000 0.08350160 24404.35198904 0 593.25344395 0 7038.43462107 0 -252.05023541 0 -3170.03211590 0 7798
0.08450000 0.08449610 23829.72992367 0 307.20923261 0 7246.29673438 0 -477.43202695 0 -1334.16407591 0 7371
0.08550000 0.08548940 23706.53239166 0 108.57086006 0 7553.00913023 0 893.84755361 0 -498.58693163 0 8256
0.08650000 0.08650700 23731.26182327 0 324.47374807 0 8375.29645315 0 2003.61227085 0 1721.51690010 0 8037
0.08750000 0.08749060 23329.52096614 0 292.89763610 0 7482.71010056 0 2116.83934566 0 991.46586082 0 8155
0.08850000 0.08849210 23237.01041063 0 604.95833356 0 7887.11499191 0 1306.65820357 0 3597.05319652 0 8718
0.08950000 0.08949900 22055.95523832 0 1066.32522249 0 8463.37819228 0 -135.08002390 0 4240.14206549 0 8571
0.09050000 0.09049190 21435.35891146 0 999.58048658 0 9195.69534676 0 -1192.29582304 0 4962.44380016 0 8932
0.09150000 0.09150830 20832.74762578 0 676.79171206 0 8555.36043721 0 -1133.41729451 0 4902.98075780 0 9285
0.09250000 0.09250820 20412.57210145 0 96.53718142 0 9577.11310736 0 138.77594986 0 4716.59952803 0 9204
0.09350000 0.09350330 20313.65437502 0 79.20005136 0 9396.47585011 0 98.32601858 0 3269.90529765 0 9349
0.09450000 0.09448040 20667.51006003 0 78.50965059 0 8869.28933083 0 409.78241866 0 2989.15880499 0 9564
0.09550000 0.09549270 20281.95573996 0 296.51824970 0 9546.59474062 0 246.57603850 0 2821.18976111 0 10155
0.09650000 0.09649430 19875.15659000 0 523.26465624 0 7679.20791599 0 139.20309459 0 959.73125567 0 9913
0.09750000 0.09749140 19694.51933275 0 190.38290143 0 9107.50120112 0 605.84072464 0 2676.12916343 0 10476
0.09850000 0.09850240 19483.08269251 0 214.29513773 0 8048.54197706 0 25.63891266 0 483.96734129 0 10575
0.09950000 0.09950330 19283.67354854 0 99.95939754 0 8215.09469894 0 564.62575467 0 1665.01014888 0 10882
0.10050000 0.10051200 19312.11239489 0 435.37513224 0 8975.97434692 0 -0.12174861 0 1213.11350819 0 10875
0.10150000 0.10150300 18855.17994267 0 575.21332360 0 8634.35973055 0 58.04649556 0 1295.93462278 0 11118
0.10250000 0.10250800 18380.15004278 0 627.94658837 0 8807.27466075 0 265.46820018 0 1853.08871691 0 11575
0.10350000 0.10349800 17789.90347290 0 633.04759567 0 8709.11005791 0 35.97851283 0 1083.37953778 0 11364
0.10450000 0.10450100 17165.93495082 0 434.98845386 0 7798.95456822 0 1098.93659839 0 880.67013876 0 12093
0.10550000 0.10551000 16984.39844151 0 434.09931838 0 8451.57550901 0 1020.17111059 0 1030.02016876 0 12067
0.10650000 0.10649700 15988.36438024 0 490.23737627 0 6873.09588946 0 453.40288789 0 255.45727664 0 12054
0.10750000 0.10749900 15875.50824690 0 632.50804444 0 7295.56450654 0 464.98975066 0 -241.38735412 0 12807
0.10850000 0.10850100 15079.33295562 0 517.11152403 0 6438.15015008 0 -222.70314448 0 -491.10627857 0 12736
0.10950000 0.10950300 14906.67656040 0 285.81715020 0 7065.59203323 0 301.05610040 0 375.99189850 0 12933
0.11050000 0.11050200 14854.29512799 0 8.85136049 0 7128.41603017 0 308.23437995 0 261.73180788 0 13428
0.11150000 0.11150900 15124.96999759 0 -179.93471658 0 7168.52267198 0 1200.18675985 0 1216.69927577 0 13453
0.11250000 0.11250000 15143.96669733 0 -50.53830291 0 6979.39872343 0 311.37276964 0 927.30872270 0 13668
0.11350000 0.11349100 15474.44182882 0 59.92537033 0 6817.42094639 0 619.33624991 0 1825.27934700 0 13791
0.11450000 0.11448600 15212.98429282 0 120.02092412 0 7125.71827399 0 501.30716911 0 1637.51551719 0 14205
0.11550000 0.11549300 15154.30809600 0 216.95017943 0 6270.85554525 0 88.76798086 0 2343.87800912 0 14776
0.11650000 0.11649800 14715.36068496 0 260.97643615 0 6422.82914313 0 905.48949557 0 1679.57803222 0 14553
0.11750000 0.11747300 14438.84067697 0 318.78597880 0 5587.28909300 0 635.53627574 0 1767.42371769 0 14568
0.11850000 0.11849100 13974.48939528 0 281.76714374 0 5564.99888260 0 297.66367201 0 783.06644439 0 16015
0.11950000 0.11950300 13893.33189700 0 265.67952442 0 5032.75407049 0 109.39569901 0 689.77466365 0 15270
0.12050000 0.12050700 13682.00766326 0 143.37899633 0 4987.80270821 0 -29.88799104 0 1243.36209931 0 15999
0.12150000 0.12150000 13669.86776047 0 -6.56750756 0 4818.93441228 0 -196.25389331 0 600.43734384 0 15670
0.12250000 0.12250700 13868.82727840 0 -235.50062533 0 4935.02785303 0 375.43211409 0 1427.39403307 0 16887
0.12350000 0.12352200 14097.79933379 0 -215.15841971 0 4564.68213340 0 522.27098272 0 549.16086740 0 16407
0.12450000 0.12449800 14403.09540765 0 -252.47962826 0 4650.33589197 0 712.27732235 0 880.69936445 0 16306
0.12550000 0.12549900 14359.25686980 0 -28.41276804 0 4015.04803460 0 12.44384999 0 215.64626395 0 17523
0.12650000 0.12650100 14371.17195957 0 262.40399879 0 4992.05167419 0 -672.73720934 0 1125.31278533 0 17154
0.12750000 0.12750600 14361.72981296 0 452.68123811 0 4955.31722760 0 -636.40630211 0 838.85491804 0 18007
0.12850000 0.12850300 13914.80153989 0 511.89811022 0 5887.67300248 0 -450.82091041 0 963.18438358 0 17496
0.12950000 0.12949900 13663.34818304 0 475.61553779 0 6169.25130329 0 -499.22202839 0 880.40485940 0 18405
0.13050000 0.13049000 13328.93882379 0 254.88849972 0 6402.39364010 0 29.82155880 0 311.03892231 0 18100
0.13150000 0.13148800 13122.33566336 0 216.46345926 0 6015.56912650 0 392.40212450 0 847.31463178 0 19059
0.13250000 0.13249300 12994.97909058 0 43.42904094 0 5640.38992705 0 736.99888550 0 -46.15085211 0 18957
0.13350000 0.13349100 12688.10932562 0 203.16576944 0 4866.12266405 0 703.36011413 0 -433.39790178 0 19468
0.13450000 0.13450700 12379.55346306 0 336.95986290 0 4263.06175233 0 446.10995369 0 -941.47531482 0 19953
0.13550000 0.13551000 11878.67006648 0 245.84764433 0 3255.75331838 0 684.82990140 0 -1199.47859885 0 19956
0.13650000 0.13649900 11886.98814802 0 -41.60614462 0 3367.83384681 0 407.65006721 0 -1042.23313578 0 19723
0.13750000 0.13749600 11733.44085904 0 -17.95278050 0 3110.38922312 0 89.48108774 0 -1724.22589693 0 20946
0.13850000 0.13851100 12009.28642798 0 50.70691267 0 3632.94459430 0 27.64570603 0 -777.91710229 0 20955
0.13950000 0.13949800 11744.11947723 0 210.19342428 0 3617.69103126 0 -460.53845297 0 -1121.59775026 0 20506
0.14050000 0.14048300 11810.77653607 0 345.09022557 0 4227.70990578 0 -239.51016545 0 54.84099919 0 21447
0.14150000 0.14148400 11490.41799023 0 160.11407714 0 4363.08106254 0 208.18584406 0 -364.92772598 0 21771
0.14250000 0.14249400 11482.21231520 0 81.56193689 0 3927.67445647 0 263.84729835 0 -47.73499702 0 22470
0.14350000 0.14350900 11376.88741785 0 98.05781665 0 4054.19922110 0 295.92249521 0 -129.70474472 0 22519
0.14450000 0.14449900 11315.85068438 0 100.69093909 0 3508.11716794 0 482.03282530 0 61.36394881 0 22218
0.14550000 0.14550500 11135.21342713 0 268.02207603 0 3557.66595636 0 59.35524453 0 124.40927416 0 23559
0.14650000 0.14650700 10979.14823239 0 208.33871691 0 3247.77245636 0 12.52287176 0 -112.69651610 0 23044
0.14750000 0.14750500 10637.97200140 0 270.98286343 0 3258.93442253 0 -22.02077200 0 -280.45648387 0 23649
0.14850000 0.14849900 10699.79558042 0 224.10934988 0 3893.14317743 0 -36.91238609 0 385.46214674 0 23640
0.14950000 0.14949500 10324.17799559 0 155.87747588 0 3556.30583762 0 122.71755623 0 -29.21051702 0 24457
0.15050000 0.15050000 10417.09321453 0 14.16850303 0 3846.16849802 0 351.39061031 0 373.48635745 0 24591
0.15150000 0.15149900 10298.60551518 0 83.53748126 0 3480.85858991 0 159.07993728 0 37.70822416 0 25020
0.15250000 0.15250500 10186.74979975 0 139.13789881 0 3655.47085837 0 329.77259082 0 208.59725188 0 25297
0.15350000 0.15350100 10083.65055125 0 264.71282845 0 3572.17763645 0 70.23495796 0 105.48417737 0 25452
0.15450000 0.15450400 9866.97576776 0 253.68575009 0 3401.99418439 0 -41.21452034 0 79.84391583 0 26061
0.15550000 0.15549900 9569.25589250 0 142.27066817 0 3191.73781246 0 287.84159140 0 292.26703559 0 26128
0.15650000 0.15649500 9512.70417867 0 126.10324023 0 3007.58223154 0 133.16461701 0 -215.74405761 0 26331
0.15750000 0.15749700 9524.43941803 0 38.15436559 0 2901.61661710 0 330.89103557 0 18.86394765 0 27345
0.15850000 0.15849900 9508.26412163 0 -70.22776395 0 2483.14967168 0 504.80750774 0 -58.26433937 0 26980
0.15950000 0.15949700 9415.11284902 0 -36.74636168 0 2247.18593154 0 201.37513378 0 -221.72183567 0 27777
0.16050000 0.16050000 9607.35045783 0 35.95220970 0 2204.96604739 0 275.69944048 0 271.89785240 0 28224
0.16150000 0.16150500 9432.34476660 0 139.84043948 0 2212.38487687 0 49.77742326 0 275.82870796 0 28075
0.16250000 0.16249700 9408.72815941 0 303.50094193 0 2336.33553248 0 36.14554890 0 731.29425526 0 28590
0.16350000 0.16349900 9119.93336083 0 303.71339023 0 2765.77335301 0 -133.94022192 0 1179.71753487 0 29163
0.16450000 0.16449100 8935.08085956 0 291.60608533 0 2904.75275865 0 124.30473611 0 1410.19583746 0 28996
0.16550000 0.16550500 8731.16421465 0 131.40208298 0 3217.75991890 0 -64.91813017 0 1766.95161036 0 30777
0.16650000 0.16650700 8739.80827506 0 87.81207592 0 3295.51150001 0 143.35426690 0 1801.01078207 0 29211
0.16750000 0.16749900 8669.64413320 0 -9.77984948 0 3494.74079357 0 -89.68634202 0 1907.34733799 0 30922
0.16850000 0.16850800 8681.39061321 0 -30.29748795 0 3243.15254891 0 110.82573460 0 1726.92365310 0 30867
0.16950000 0.16949900 8750.71170627 0 35.07420248 0 3392.68692558 0 -112.22620727 0 1609.31272451 0 30852
0.17050000 0.17049200 8661.10123864 0 106.42468262 0 3055.27631259 0 -69.62110603 0 757.08705242 0 31257
0.17150000 0.17149500 8533.58729675 0 202.05069689 0 3066.13478119 0 -15.78097437 0 790.15929500 0 32608
0.17250000 0.17250900 8450.90106997 0 156.30911687 0 2840.45623647 0 -67.58958322 0 543.60348968 0 32361
0.17350000 0.17350400 8273.75965510 0 180.44504212 0 2773.68677113 0 115.20767747 0 307.07659293 0 32508
0.17450000 0.17449800 8125.27065894 0 92.05047568 0 2659.60540686 0 385.11481063 0 171.77962447 0 32791
0.17550000 0.17549800 7983.98691991 0 118.40901480 0 2541.05026360 0 165.12853143 0 252.09294988 0 33633
0.17650000 0.17650100 7960.65132899 0 94.82927695 0 2226.00854556 0 307.95111556 0 246.05447231 0 33984
0.17750000 0.17750300 7869.80438978 0 112.06029527 0 2412.23240622 0 127.62747246 0 295.97195407 0 34069
