### header ###
fiducial parameters:
Omega_m = 0.31
Omega_nu = 0
Omega_de = 0.69
Omega_k = 0
H_0 = 100
w_de = -1
zeff = 0
beta = 0
fgrowth = 0
b_1 = 2
gamma = 0.55
Lx = 3500 Ly = 3500 Lz = 3500
nx = 700 ny = 700 nz = 700
xoffset = 857.220397 yoffset = 15.9954215 zoffset = 262.898189
bins = 400 dk = 0.001
kx_ny = 0.628318531 ky_ny = 0.628318531 kz_ny = 0.628318531
############################
A(data) = 3.04214488 (not used)
A(ran) = 3.0400503 (used)
Ngal = 185498
weighted Ngal = 0
Nran = 9360983
weighted Nran = 0
SN(data) = 3450.13748
SN(ran) = 68.2681048
SN(data+ran) = 3518.40558
############################
13 columns: k_central k_mean P_0(k) sigma^{lin}_{P_0(k)} P^img_1(k) sigma^{lin}_{P_1(k)} P_2(k) sigma^{lin}_{P_2(k)} P^img_3(k) sigma^{lin}_{P_3(k)} P_4(k) sigma^{lin}_{P_4(k)} N_modes
### header ###
0.00050000 0 0 0 0 0 0 0 0 0 0 0 0
0.00150000 0.00179520 8432.90478815 0 -6425.86411883 0 16112.57357082 0 -10322.61554514 0 -32394.65615466 0 3
0.00250000 0.00253879 15855.05026257 0 -5050.30072628 0 5888.57225454 0 14940.17369957 0 7829.65278537 0 6
0.00350000 0.00331552 18701.18302766 0 -740.65434512 0 13514.74678038 0 4313.16133264 0 2796.61769862 0 7
0.00450000 0.00420575 21697.82810603 0 -1822.60407213 0 9021.57766693 0 20217.99643730 0 -4405.42459384 0 24
0.00550000 0.00557378 29793.79438852 0 -7950.30993032 0 3009.61678932 0 16025.79574717 0 -29875.62632584 0 45
0.00650000 0.00659388 46209.52830955 0 -16411.01284773 0 -1879.33563637 0 -22190.16860805 0 -24590.15994562 0 40
0.00750000 0.00754703 51349.54066931 0 -9668.33098804 0 4124.88043290 0 -44105.27849271 0 -34539.37231413 0 57
0.00850000 0.00846663 67321.83091901 0 -10484.90806039 0 1546.70229993 0 -37829.17356357 0 -19245.11811653 0 75
0.00950000 0.00948925 70295.65747640 0 -10553.23997619 0 -5188.25723270 0 -18854.28069061 0 -19580.42672784 0 112
0.01050000 0.01054430 90228.70341767 0 -8942.17371017 0 10698.79516250 0 -6229.52367251 0 -26203.64295155 0 105
0.01150000 0.01145670 91130.42841931 0 -4738.57500020 0 -6569.18241565 0 9834.95115383 0 -33914.95416602 0 144
0.01250000 0.01249090 88393.55477932 0 5766.90345103 0 -7845.14240208 0 6755.82218039 0 -39035.18298050 0 169
0.01350000 0.01339930 83111.46059432 0 8626.21025877 0 -20784.86245366 0 -297.21854224 0 -17763.15072416 0 180
0.01450000 0.01448870 65528.49750139 0 15033.80832016 0 -7505.01155161 0 -13646.37480044 0 -6972.08105980 0 267
0.01550000 0.01550050 54454.09599471 0 6068.95097682 0 -8386.77315755 0 -2638.54042739 0 -13339.95466151 0 238
0.01650000 0.01653350 51157.88757435 0 2093.45879214 0 3151.08037877 0 -11399.81834534 0 8427.61044166 0 315
0.01750000 0.01747870 53686.69676930 0 920.70933666 0 2938.20493522 0 -10305.77705035 0 -1864.44177415 0 297
0.01850000 0.01844180 54850.21652647 0 -3387.98833357 0 22300.55179823 0 -7724.13679696 0 17661.42283504 0 388
0.01950000 0.01947590 60291.59073232 0 -540.27288486 0 18881.70787840 0 -6058.72198465 0 -468.65869906 0 399
0.02050000 0.02045430 65361.79865105 0 -2171.28905780 0 31526.20347918 0 -1150.19958605 0 24213.93536566 0 462
0.02150000 0.02154770 68385.87091720 0 -7443.89613358 0 28344.42488327 0 17088.82408680 0 24242.26180550 0 571
0.02250000 0.02255340 81333.30205519 0 -4790.59673179 0 36794.80888330 0 18493.56820866 0 31837.45709792 0 510
0.02350000 0.02348930 81551.59549238 0 -6278.15072757 0 19050.76726539 0 19888.75777739 0 19501.96698573 0 555
0.02450000 0.02439640 83918.87653633 0 933.05831555 0 34757.32853180 0 10335.25003656 0 30725.19470809 0 592
0.02550000 0.02547300 81366.57438135 0 5237.13158208 0 17753.37135802 0 -584.23169768 0 23609.07594982 0 837
0.02650000 0.02652900 77900.29491544 0 5533.25528493 0 25434.89484806 0 -1767.36751443 0 22184.54828268 0 723
0.02750000 0.02749970 66878.27484116 0 6667.56059085 0 11171.98159568 0 -10557.29785110 0 12741.27760358 0 826
0.02850000 0.02848090 68584.26840261 0 2672.71200561 0 18113.97143347 0 -1906.88647131 0 10149.79054015 0 831
0.02950000 0.02946900 62490.71164134 0 1684.68128766 0 17387.26336371 0 -2806.84669078 0 2982.89776253 0 996
0.03050000 0.03053250 63666.37130129 0 3329.70555953 0 20383.45881606 0 -4024.24288690 0 -1708.37657940 0 1041
0.03150000 0.03150510 59337.14707876 0 1902.35648906 0 22218.27023488 0 1678.75746472 0 -9297.70425214 0 1036
0.03250000 0.03246190 58311.66251257 0 2794.62810344 0 17881.96440238 0 -70.22012030 0 992.67198264 0 1059
0.03350000 0.03345080 58202.85301349 0 1617.45095563 0 25008.31215282 0 8559.85669751 0 -1715.42446741 0 1302
0.03450000 0.03451200 55962.59132281 0 999.29160185 0 21383.53951159 0 10761.75404725 0 12617.85525855 0 1339
0.03550000 0.03553350 56123.89466079 0 359.63225542 0 19009.17685769 0 12864.47513559 0 12585.03255842 0 1365
0.03650000 0.03647120 53464.69391736 0 -478.04801461 0 14745.82284844 0 10878.84790591 0 23263.31353334 0 1308
0.03750000 0.03744890 55344.24312609 0 -715.63827692 0 10844.31662687 0 12322.00133131 0 22171.84634736 0 1579
0.03850000 0.03847530 54529.07113508 0 524.53260165 0 7738.01900061 0 5506.68238661 0 20141.78482534 0 1662
0.03950000 0.03950240 54172.29288088 0 2257.87579038 0 11406.45032927 0 -2718.06803131 0 18685.44611663 0 1683
0.04050000 0.04050350 49422.66832101 0 4464.44925083 0 10489.23571093 0 -6607.02968666 0 14890.37761684 0 1822
0.04150000 0.04152450 48165.73875627 0 3249.81825479 0 17647.25961512 0 -6649.59803098 0 15897.09029630 0 1887
0.04250000 0.04250150 45608.49071497 0 2492.26583942 0 14843.39169678 0 -4662.62192322 0 8544.69305967 0 1920
0.04350000 0.04349210 45420.09740872 0 912.85324586 0 19722.73336609 0 -177.55282269 0 6237.27972152 0 2005
0.04450000 0.04448520 44296.70677466 0 611.23960919 0 15585.83667756 0 2499.32496808 0 2926.14371699 0 2151
0.04550000 0.04548030 43325.51455150 0 1459.56477547 0 14841.25597314 0 2419.85356742 0 462.12226066 0 2274
0.04650000 0.04648670 41678.42199989 0 1383.22951635 0 15520.75330983 0 3040.01150890 0 -1254.83880370 0 2311
0.04750000 0.04749250 40783.32898218 0 1049.38443777 0 13121.21159829 0 -549.42165049 0 -1156.67420087 0 2568
0.04850000 0.04851840 39878.68141135 0 506.59252308 0 14057.55780418 0 740.14626771 0 -272.50147535 0 2493
0.04950000 0.04949480 40855.15674035 0 -430.73499162 0 17617.58429719 0 -1141.22954677 0 293.17865237 0 2644
0.05050000 0.05050630 39913.19020910 0 352.43374269 0 15686.32809510 0 -656.46299521 0 -1843.30935077 0 2829
0.05150000 0.05149060 41725.74513947 0 875.04981339 0 20286.45200025 0 -1179.79621942 0 448.31312123 0 2784
0.05250000 0.05249300 38816.32751077 0 1297.46335128 0 19725.54352877 0 -1049.52719404 0 22.71611866 0 3055
0.05350000 0.05348950 38888.49248846 0 1624.35271518 0 19897.75029797 0 2156.27154842 0 -461.06563949 0 3009
0.05450000 0.05448610 37367.18281853 0 1220.63350353 0 20203.15877833 0 -166.70671880 0 -399.89064602 0 3336
0.05550000 0.05550870 35439.86084419 0 2121.52669702 0 17908.15511859 0 632.52940167 0 -5093.73460070 0 3349
0.05650000 0.05647670 33421.37719243 0 1804.55158705 0 18030.67821155 0 680.51349151 0 -4597.03272620 0 3324
0.05750000 0.05747970 32972.20078922 0 1117.00144818 0 17427.50489333 0 -657.48364630 0 -5354.27040334 0 3639
0.05850000 0.05849280 32083.51494242 0 -503.53731421 0 16892.33751203 0 -517.53304844 0 -7118.58046078 0 3846
0.05950000 0.05951020 32505.15175134 0 -982.47896056 0 15525.69919615 0 571.18467437 0 -8408.60250127 0 3787
0.06050000 0.06049470 34685.61318014 0 -1079.84997345 0 16683.71103446 0 737.36533072 0 -9282.55185495 0 3930
0.06150000 0.06148310 33960.02917546 0 -681.94779855 0 12795.79475962 0 3144.21234117 0 -8013.11144595 0 4083
0.06250000 0.06249100 34922.67850406 0 -250.51813471 0 10820.49768797 0 3542.05269249 0 -8455.80199369 0 4303
0.06350000 0.06350600 34880.07643779 0 -152.79528945 0 7547.57989593 0 5988.31054848 0 -5724.45875387 0 4470
0.06450000 0.06451750 33463.08000664 0 511.02471166 0 5834.26867086 0 3669.40926528 0 -6937.42613360 0 4479
0.06550000 0.06550280 33185.21112057 0 1031.34431741 0 2743.31453285 0 2775.66512565 0 -4841.01105032 0 4636
0.06650000 0.06648880 31679.63836166 0 1016.34928934 0 2038.35712226 0 647.34008308 0 -3165.47965235 0 4653
0.06750000 0.06749660 30831.08163798 0 928.22933200 0 2253.73923091 0 92.01484282 0 -1544.10570961 0 5220
0.06850000 0.06852730 30512.74640928 0 635.72736681 0 3604.22473169 0 -1591.22651748 0 -152.91556441 0 5029
0.06950000 0.06949320 30688.99981274 0 584.53631931 0 5366.82621021 0 -2128.97924845 0 -559.76529730 0 5040
0.07050000 0.07048030 30270.39797952 0 191.88015611 0 7730.65637438 0 -1772.47076987 0 1667.94395872 0 5475
0.07150000 0.07148790 30768.35880690 0 122.13191832 0 7196.77042726 0 -1974.97109278 0 -339.26869256 0 5509
0.07250000 0.07249820 30557.82141871 0 347.59913881 0 9578.47322610 0 -578.92611053 0 1187.93445055 0 5916
0.07350000 0.07351270 30003.54493116 0 312.72277179 0 9111.40170692 0 -16.26308588 0 -2709.21039853 0 5721
0.07450000 0.07449140 30108.30779597 0 389.50540880 0 8819.40332288 0 593.30627501 0 -1284.31178992 0 6028
0.07550000 0.07549160 29167.57773630 0 526.71103976 0 7595.51003064 0 1357.69075789 0 -2706.40023585 0 6183
0.07650000 0.07648840 28584.52518288 0 341.03235066 0 7162.89110596 0 1566.92423060 0 -4194.75231784 0 6330
0.07750000 0.07749960 27771.71372852 0 403.84847914 0 6236.94250199 0 1102.95962729 0 -3427.62286805 0 6583
0.07850000 0.07848650 27664.25310753 0 1006.69806662 0 5946.83254728 0 668.67821036 0 -4237.54547517 0 6549
0.07950000 0.07947320 26882.91547522 0 983.46364156 0 8311.35963180 0 -1458.68800471 0 -703.94237983 0 6828
0.08050000 0.08048110 26361.91131384 0 1375.23741368 0 9031.07601680 0 -1790.03990696 0 -1336.92927599 0 7147
0.08150000 0.08149960 25803.25097251 0 1538.54158750 0 11476.02995730 0 -1950.89361892 0 877.41597037 0 7386
0.08250000 0.08250610 24895.34361297 0 1291.85426656 0 13567.24061929 0 -79.50905685 0 2186.68874930 0 7227
0.08350000 0.08350160 23886.04558383 0 1115.76497660 0 12607.28904687 0 718.01005422 0 1547.33177637 0 7798
0.08450000 0.08449610 23611.66129949 0 645.23021293 0 14178.28239303 0 1478.28045893 0 3265.09429913 0 7371
0.08550000 0.08548940 22469.49877871 0 508.21454898 0 11800.54754390 0 2769.77502467 0 -440.80436655 0 8256
0.08650000 0.08650700 21994.01925279 0 400.36162928 0 11407.23717482 0 2297.07193948 0 2462.82657516 0 8037
0.08750000 0.08749060 21374.54699101 0 299.53074409 0 7969.00313248 0 1766.91788840 0 -419.91698936 0 8155
0.08850000 0.08849210 21033.61805434 0 -17.66344615 0 8080.65651619 0 1836.77853270 0 2117.09788063 0 8718
0.08950000 0.08949900 20686.84397929 0 -291.97815087 0 4740.39598562 0 1851.41385995 0 -525.38127078 0 8571
0.09050000 0.09049190 21131.97374823 0 -117.03877948 0 5074.67045706 0 1452.88782893 0 121.19894431 0 8932
0.09150000 0.09150830 20573.98784595 0 -93.58977039 0 3517.49187065 0 276.98537092 0 -1419.99768489 0 9285
0.09250000 0.09250820 20631.09035166 0 377.46217561 0 3275.37949455 0 253.10573251 0 -853.13054446 0 9204
0.09350000 0.09350330 20215.07386811 0 344.76312264 0 4074.96070300 0 -913.48272230 0 -396.84892593 0 9349
0.09450000 0.09448040 20102.44254778 0 333.85294704 0 4122.65478405 0 -651.96785898 0 -1708.65759567 0 9564
0.09550000 0.09549270 19819.17814936 0 237.55991255 0 5663.79296187 0 -816.51637284 0 -240.18235636 0 10155
0.09650000 0.09649430 20001.38909771 0 476.77557295 0 5750.40217575 0 -1013.03554550 0 -507.69635498 0 9913
0.09750000 0.09749140 19648.54507127 0 588.63690870 0 7017.79678632 0 -476.33718757 0 724.89607686 0 10476
0.09850000 0.09850240 19329.19818400 0 780.54629050 0 7770.22346496 0 76.03974241 0 1157.97811635 0 10575
0.09950000 0.09950330 18907.89859460 0 743.05197592 0 7290.37132590 0 685.86628939 0 1582.81851073 0 10882
0.10050000 0.10051200 18103.06800226 0 711.60400737 0 8387.52628115 0 854.92904858 0 2225.40155042 0 10875
0.10150000 0.10150300 17375.79789997 0 574.53663642 0 7233.02152587 0 805.97713871 0 2116.37847898 0 11118
0.10250000 0.10250800 16970.68484762 0 321.70180360 0 7809.57698316 0 1057.74523379 0 3056.10812074 0 11575
0.10350000 0.10349800 16865.80957630 0 37.47677916 0 7034.03952663 0 62.00713885 0 2672.90309667 0 11364
0.10450000 0.10450100 16920.66395187 0 -34.59332744 0 7216.43032539 0 76.93146323 0 1856.60704059 0 12093
0.10550000 0.10551000 16988.66988879 0 -10.32255934 0 7297.35177000 0 -93.81413378 0 1685.51309581 0 12067
0.10650000 0.10649700 16654.93496859 0 95.36343267 0 6624.40773269 0 148.46201859 0 1376.17038769 0 12054
0.10750000 0.10749900 16557.36612024 0 213.16208014 0 5843.77826138 0 920.26645502 0 -52.56285651 0 12807
0.10850000 0.10850100 16285.67959207 0 336.57880484 0 5628.77833485 0 718.77441847 0 -350.26766930 0 12736
0.10950000 0.10950300 15839.65057107 0 462.21330993 0 4627.70846204 0 787.12207118 0 -1690.17796586 0 12933
0.11050000 0.11050200 15274.24583930 0 345.01266508 0 4169.93296103 0 490.90507092 0 -1442.43402375 0 13428
0.11150000 0.11150900 14779.09517460 0 305.03529076 0 2972.34279149 0 -106.60970373 0 -1612.03296198 0 13453
0.11250000 0.11250000 14580.92250221 0 97.81007271 0 2754.28540796 0 453.76708497 0 -1734.93823707 0 13668
0.11350000 0.11349100 14676.01840740 0 -70.49304330 0 3057.52444273 0 82.99984093 0 -1320.65281373 0 13791
0.11450000 0.11448600 14712.66292878 0 26.75477206 0 2829.92374673 0 161.19317961 0 -746.84906774 0 14205
0.11550000 0.11549300 14812.47990727 0 181.09250360 0 3010.66216984 0 142.54156785 0 92.73267077 0 14776
0.11650000 0.11649800 14730.08593741 0 273.99648189 0 3736.72952250 0 -153.06169287 0 747.54936028 0 14553
0.11750000 0.11747300 14612.05910474 0 90.28850368 0 4338.91366346 0 -112.11121542 0 1600.55625759 0 14568
0.11850000 0.11849100 14841.81800568 0 201.54374354 0 5734.93504035 0 -441.49679063 0 2446.81988852 0 16015
0.11950000 0.11950300 14785.83956504 0 148.42942071 0 6115.28493913 0 -218.75205575 0 2980.39109742 0 15270
0.12050000 0.12050700 14833.38751763 0 216.26674787 0 7451.57349803 0 -219.98627920 0 4054.83993819 0 15999
0.12150000 0.12150000 14806.18514286 0 286.81419592 0 7048.27019046 0 210.90158528 0 4084.97612280 0 15670
0.12250000 0.12250700 14643.08330075 0 162.42515493 0 7715.69506826 0 533.27670385 0 4710.94548071 0 16887
0.12350000 0.12352200 14343.07033274 0 109.48629866 0 6634.99642568 0 1040.19632987 0 3626.02035345 0 16407
0.12450000 0.12449800 14251.57143579 0 -7.86032852 0 6232.79470188 0 689.21937551 0 2639.03501602 0 16306
0.12550000 0.12549900 14053.06154389 0 -94.04501675 0 5025.70618248 0 556.39085395 0 1471.99693518 0 17523
0.12650000 0.12650100 14187.94935266 0 -130.14200603 0 4328.95444692 0 476.34055977 0 1082.56683873 0 17154
0.12750000 0.12750600 14041.93329966 0 27.21204173 0 3366.24891506 0 -165.02399338 0 -548.02106541 0 18007
0.12850000 0.12850300 14065.65107270 0 265.52665157 0 3008.93110962 0 -428.96346507 0 -1028.06879179 0 17496
0.12950000 0.12949900 13757.09521014 0 259.22177057 0 3549.35911547 0 -422.48435398 0 -1353.41931061 0 18405
0.13050000 0.13049000 13684.93023245 0 331.49465851 0 3372.02660954 0 -383.62542441 0 -1306.05120843 0 18100
0.13150000 0.13148800 13425.83323310 0 215.90255079 0 4123.39666700 0 -328.67550331 0 -882.17413782 0 19059
0.13250000 0.13249300 13411.67001317 0 225.60098424 0 4382.23513138 0 248.73986377 0 -603.61395173 0 18957
0.13350000 0.13349100 13221.02857678 0 100.42667139 0 4706.26937000 0 537.70552024 0 -27.77463630 0 19468
0.13450000 0.13450700 13116.04089895 0 71.30281978 0 4478.79232116 0 1068.51040499 0 912.75994846 0 19953
0.13550000 0.13551000 13202.03187704 0 198.31093239 0 4590.82788700 0 1152.48143815 0 1130.94435135 0 19956
0.13650000 0.13649900 12914.72084436 0 225.52117562 0 4111.00946989 0 646.91968274 0 1693.23542286 0 19723
0.13750000 0.13749600 12509.04575948 0 381.91347330 0 4044.58846472 0 433.81717805 0 1230.89621765 0 20946
0.13850000 0.13851100 12373.03388563 0 294.17120183 0 3950.35808965 0 59.71202278 0 2245.03896725 0 20955
0.13950000 0.13949800 11880.91819663 0 324.77274938 0 3898.80846539 0 -216.86812268 0 1495.53485781 0 20506
0.14050000 0.14048300 12027.49628216 0 201.09861377 0 4110.89706339 0 -230.15007559 0 1999.52067398 0 21447
0.14150000 0.14148400 11660.48903579 0 143.40035357 0 3727.97305558 0 -76.33368542 0 1289.03286323 0 21771
0.14250000 0.14249400 11731.30513540 0 249.94261339 0 4100.91536554 0 -142.17961890 0 1438.47731470 0 22470
0.14350000 0.14350900 11443.31966367 0 161.55400450 0 3797.47399905 0 -8.07429431 0 940.70083398 0 22519
0.14450000 0.14449900 11390.93823126 0 192.57482832 0 3972.38976508 0 141.76483889 0 1015.43317630 0 22218
0.14550000 0.14550500 11067.03888045 0 239.74397099 0 3617.88212232 0 120.87970983 0 611.73757002 0 23559
0.14650000 0.14650700 11016.42223021 0 242.16633122 0 3964.34145916 0 205.45099374 0 889.81328406 0 23044
0.14750000 0.14750500 10746.24194924 0 251.88612191 0 3876.18103547 0 109.63085342 0 862.27706196 0 23649
0.14850000 0.14849900 10644.79507639 0 177.39095732 0 3732.70536954 0 298.95971904 0 1029.20859378 0 23640
0.14950000 0.14949500 10399.88377827 0 51.52658092 0 3668.59993842 0 177.29428772 0 550.46590695 0 24457
0.15050000 0.15050000 10423.01703747 0 -23.38729791 0 3393.81099065 0 128.47838973 0 534.07254192 0 24591
0.15150000 0.15149900 10312.84741966 0 -13.58859786 0 3153.12617720 0 242.61820538 0 215.83735501 0 25020
0.15250000 0.15250500 10387.96868849 0 10.20841053 0 2911.28357672 0 169.93503369 0 148.29790509 0 25297
0.15350000 0.15350100 10386.93454862 0 83.54860950 0 2778.30667858 0 103.10014776 0 12.28670569 0 25452
0.15450000 0.15450400 10448.20733576 0 152.89083498 0 2769.26919539 0 225.18620422 0 416.61785837 0 26061
0.15550000 0.15549900 10148.14940514 0 187.39401240 0 2985.33698374 0 -34.58085032 0 225.11988438 0 26128
0.15650000 0.15649500 10219.87599746 0 200.60177701 0 3068.70889021 0 56.51799188 0 882.40344710 0 26331
0.15750000 0.15749700 9957.80022567 0 188.69567976 0 3193.86229545 0 6.64014464 0 732.80612278 0 27345
0.15850000 0.15849900 9813.70632395 0 141.19268977 0 3129.38592286 0 219.73673675 0 956.46472257 0 26980
0.15950000 0.15949700 9623.53699488 0 -9.19960709 0 2848.59446760 0 553.13443743 0 743.85793058 0 27777
0.16050000 0.16050000 9622.97496234 0 12.16890367 0 2406.38726784 0 739.48981370 0 360.73945952 0 28224
0.16150000 0.16150500 9536.63552408 0 82.80391639 0 1949.82575710 0 262.34442335 0 377.63865383 0 28075
0.16250000 0.16249700 9361.89960846 0 132.33505699 0 1502.68391167 0 454.46737751 0 129.73172228 0 28590
0.16350000 0.16349900 9299.18801804 0 170.20031304 0 1332.33184984 0 79.47881950 0 585.39173283 0 29163
0.16450000 0.16449100 9110.39004836 0 152.94479011 0 1447.03144990 0 22.74174734 0 405.13553365 0 28996
0.16550000 0.16550500 9056.55857201 0 102.09298545 0 1399.05635258 0 -22.91732630 0 425.30463325 0 30777
0.16650000 0.16650700 9126.50914151 0 31.62928025 0 1821.83970788 0 -331.91393478 0 440.73917077 0 29211
0.16750000 0.16749900 9016.36200499 0 84.51620472 0 1712.68174863 0 -255.34936640 0 391.82098286 0 30922
0.16850000 0.16850800 9070.82295778 0 79.88528143 0 2245.48859328 0 -318.91861847 0 516.23025702 0 30867
0.16950000 0.16949900 9023.44361495 0 103.26302479 0 1760.27466382 0 -222.80768253 0 435.41784672 0 30852
0.17050000 0.17049200 8926.52672435 0 141.18144912 0 2391.63953408 0 73.41875988 0 247.60118585 0 31257
0.17150000 0.17149500 8907.77731893 0 171.35697600 0 2147.57128476 0 -145.03137199 0 286.30049818 0 32608
0.17250000 0.17250900 8700.73577312 0 156.75424664 0 2319.40711248 0 69.16125100 0 503.58340088 0 32361
0.17350000 0.17350400 8567.89376278 0 150.79220549 0 2452.68750820 0 94.51251541 0 368.18639063 0 32508
0.17450000 0.17449800 8540.74759126 0 144.93133020 0 2312.60651879 0 294.94118640 0 693.65943254 0 32791
0.17550000 0.17549800 8290.56442794 0 162.82419803 0 2427.33984080 0 167.78020094 0 472.07248468 0 33633
0.17650000 0.17650100 8293.62188494 0 115.87199993 0 2228.27915701 0 227.97388561 0 744.44806474 0 33984
0.17750000 0.17750300 8102.73315423 0 90.22847860 0 2065.39088726 0 149.28033797 0 641.14648452 0 34069
