### header ###
fiducial parameters:
Omega_m = 0.31
Omega_nu = 0
Omega_de = 0.69
Omega_k = 0
H_0 = 100
w_de = -1
zeff = 0
beta = 0
fgrowth = 0
b_1 = 2
gamma = 0.55
Lx = 3500 Ly = 3500 Lz = 3500
nx = 700 ny = 700 nz = 700
xoffset = 857.220397 yoffset = 15.9954215 zoffset = 262.898189
bins = 400 dk = 0.001
kx_ny = 0.628318531 ky_ny = 0.628318531 kz_ny = 0.628318531
############################
A(data) = 3.08718063 (not used)
A(ran) = 3.08741232 (used)
Ngal = 188641
weighted Ngal = 0
Nran = 9360983
weighted Nran = 0
SN(data) = 3445.82909
SN(ran) = 69.3316776
SN(data+ran) = 3515.16076
############################
13 columns: k_central k_mean P_0(k) sigma^{lin}_{P_0(k)} P^img_1(k) sigma^{lin}_{P_1(k)} P_2(k) sigma^{lin}_{P_2(k)} P^img_3(k) sigma^{lin}_{P_3(k)} P_4(k) sigma^{lin}_{P_4(k)} N_modes
### header ###
0.00050000 0 0 0 0 0 0 0 0 0 0 0 0
0.00150000 0.00179520 8553.03362251 0 -13822.06617136 0 -23372.12303241 0 26034.13393853 0 11141.81168911 0 3
0.00250000 0.00253879 23633.24334889 0 -21341.61188437 0 76.37639990 0 -20132.23027222 0 30643.92480331 0 6
0.00350000 0.00331552 38602.86755338 0 -26899.77645132 0 -25601.81851141 0 8682.84065715 0 -27849.72384460 0 7
0.00450000 0.00420575 60061.26979885 0 -26124.05914437 0 -9165.04209221 0 -28086.11472947 0 -220.65847011 0 24
0.00550000 0.00557378 84491.58769108 0 -22874.49942455 0 -27118.85673407 0 -9912.27559021 0 8706.52470824 0 45
0.00650000 0.00659388 94904.13968271 0 -8991.08178150 0 -10525.61045669 0 3615.85880519 0 -19548.50327976 0 40
0.00750000 0.00754703 103774.58680057 0 -8338.46084071 0 -53988.84546095 0 -3659.41632678 0 -29513.11533977 0 57
0.00850000 0.00846663 100229.73518604 0 2001.00443988 0 -30630.32361592 0 -6373.43772382 0 -19458.01604137 0 75
0.00950000 0.00948925 97355.61320064 0 11656.21758852 0 -35000.80102664 0 -23355.93649536 0 -12904.26703918 0 112
0.01050000 0.01054430 81872.62847726 0 12214.65311683 0 -12076.16829983 0 -28891.95698037 0 -7343.02253392 0 105
0.01150000 0.01145670 71382.96562161 0 15605.39540983 0 5172.52032167 0 -14290.46408732 0 9135.58034665 0 144
0.01250000 0.01249090 64744.23729988 0 9247.23373036 0 27701.79688098 0 -2374.11535959 0 13757.54483617 0 169
0.01350000 0.01339930 59378.84989297 0 2672.49843325 0 39909.59320086 0 9323.07440084 0 27616.03071590 0 180
0.01450000 0.01448870 62700.12496445 0 -1893.53257824 0 46208.74146400 0 18996.02529633 0 31754.95072156 0 267
0.01550000 0.01550050 68181.51588691 0 -3365.72060448 0 46222.56746440 0 15986.79068914 0 16279.72204719 0 238
0.01650000 0.01653350 70995.16317139 0 1390.14251655 0 53296.42137592 0 14560.91414391 0 40375.85539318 0 315
0.01750000 0.01747870 70484.72522169 0 4775.39937200 0 47628.09843180 0 6410.27333627 0 32874.74434738 0 297
0.01850000 0.01844180 67136.58499496 0 7948.24165058 0 54017.73393333 0 12278.61241949 0 37834.00704338 0 388
0.01950000 0.01947590 63881.96698231 0 2953.05383484 0 47161.38661345 0 13587.13657109 0 43091.25939027 0 399
0.02050000 0.02045430 65150.69923032 0 -3726.83774986 0 45528.00765573 0 27649.41544857 0 45208.54836196 0 462
0.02150000 0.02154770 68671.72066529 0 -7670.47393037 0 45827.00896518 0 21329.58438808 0 48417.52933264 0 571
0.02250000 0.02255340 77537.89633587 0 -4935.01661238 0 28065.54433863 0 21628.47329102 0 39216.60708330 0 510
0.02350000 0.02348930 77832.73860454 0 -1031.01609041 0 41860.97016776 0 7964.47315024 0 53420.63056650 0 555
0.02450000 0.02439640 80397.29306882 0 1531.96580683 0 27806.78455880 0 7813.70230198 0 46171.64731659 0 592
0.02550000 0.02547300 78831.80764151 0 895.51566618 0 37360.43842809 0 -59.24800872 0 49228.87950240 0 837
0.02650000 0.02652900 81623.53565706 0 -1125.13293492 0 29384.29748239 0 3321.15142433 0 43345.18569028 0 723
0.02750000 0.02749970 84434.70999838 0 -3001.80453706 0 35972.78009535 0 552.73202213 0 32449.84774975 0 826
0.02850000 0.02848090 83788.03536182 0 2042.89834515 0 27580.95988562 0 3140.71649879 0 23484.52953972 0 831
0.02950000 0.02946900 83205.88206046 0 4391.58735279 0 31941.99514972 0 3101.57655295 0 21540.45899580 0 996
0.03050000 0.03053250 77400.31077092 0 5174.29634449 0 26888.42339408 0 1545.04992428 0 11900.25211589 0 1041
0.03150000 0.03150510 71570.79689532 0 6760.81302931 0 23971.69934240 0 5582.60174164 0 10737.38431646 0 1036
0.03250000 0.03246190 65348.30987017 0 5726.62819946 0 22755.57333982 0 3105.30844899 0 3997.40021296 0 1059
0.03350000 0.03345080 64851.69792087 0 2618.89176991 0 25471.20214992 0 7133.39563844 0 13351.64493827 0 1302
0.03450000 0.03451200 58495.33474551 0 2641.08081445 0 15406.66070491 0 7553.06533348 0 8225.50354151 0 1339
0.03550000 0.03553350 58491.40051776 0 2927.57127963 0 17750.44878883 0 3847.80963303 0 11586.07592795 0 1365
0.03650000 0.03647120 52735.28809143 0 2805.70014441 0 8803.75633707 0 4125.99325732 0 6721.79673063 0 1308
0.03750000 0.03744890 51752.51799802 0 3275.96400839 0 12434.18302561 0 4022.80408361 0 6816.93759841 0 1579
0.03850000 0.03847530 48465.86413079 0 2590.68897723 0 10103.07439571 0 1399.19124039 0 7000.78968177 0 1662
0.03950000 0.03950240 46526.06503414 0 2505.99067397 0 8715.05636215 0 4065.39490923 0 9816.19050776 0 1683
0.04050000 0.04050350 43239.29876040 0 177.52809325 0 2020.27091523 0 6223.45372112 0 4461.23442472 0 1822
0.04150000 0.04152450 44275.57435129 0 35.01665034 0 3508.43190616 0 5383.54105785 0 6308.32063414 0 1887
0.04250000 0.04250150 42519.11026806 0 -1.74381835 0 -2862.02704522 0 2550.12146874 0 1756.85750600 0 1920
0.04350000 0.04349210 42212.46531612 0 999.39613991 0 -754.58825577 0 -1378.49720240 0 4317.39905796 0 2005
0.04450000 0.04448520 41687.63933349 0 1444.09764006 0 176.35681745 0 -7138.60005973 0 -1023.08131506 0 2151
0.04550000 0.04548030 39942.07868147 0 2586.39504865 0 8296.37584437 0 -6155.08808337 0 3899.98873372 0 2274
0.04650000 0.04648670 37879.41927234 0 2264.10311089 0 9295.22006833 0 -7443.36782300 0 182.51781811 0 2311
0.04750000 0.04749250 36612.48552845 0 1103.59697218 0 15947.22359856 0 -4103.23093959 0 804.36972566 0 2568
0.04850000 0.04851840 36271.55659178 0 1137.34028161 0 13023.08071740 0 1134.18165876 0 -2486.78040187 0 2493
0.04950000 0.04949480 36028.19650345 0 -598.37918069 0 15232.65543160 0 3804.25211144 0 -3039.40451376 0 2644
0.05050000 0.05050630 35935.68594793 0 -631.57282230 0 10144.03532698 0 3776.03807811 0 -3498.10174814 0 2829
0.05150000 0.05149060 37057.50289089 0 -905.26018630 0 8997.73624673 0 4342.91533512 0 -7200.63721111 0 2784
0.05250000 0.05249300 36042.92175591 0 -315.78022879 0 4803.08509475 0 1292.86592513 0 -3030.88410050 0 3055
0.05350000 0.05348950 36593.71364173 0 -192.85022427 0 5050.22204172 0 1520.25304876 0 -2379.18489307 0 3009
0.05450000 0.05448610 36573.36806390 0 170.88149648 0 5480.71648342 0 -185.17061169 0 146.24648634 0 3336
0.05550000 0.05550870 37002.31129580 0 1358.89350752 0 7381.80277895 0 -844.94060634 0 -1334.70362715 0 3349
0.05650000 0.05647670 35130.85535560 0 2413.30026804 0 9989.06047535 0 -3136.63614258 0 2520.79461098 0 3324
0.05750000 0.05747970 32928.69947089 0 2637.74234119 0 11998.27059026 0 -3595.61439323 0 1357.28609447 0 3639
0.05850000 0.05849280 31875.00087136 0 1640.32567987 0 14696.70120474 0 -2252.03065200 0 3703.43471504 0 3846
0.05950000 0.05951020 30931.79786853 0 853.01476576 0 15550.65344078 0 -95.30610535 0 1930.75037281 0 3787
0.06050000 0.06049470 31384.00924743 0 -20.07332926 0 15439.93303107 0 1589.97880525 0 1418.69376941 0 3930
0.06150000 0.06148310 31150.54093175 0 -368.81249487 0 14976.25618842 0 764.21924531 0 371.12469673 0 4083
0.06250000 0.06249100 31431.44479352 0 -18.03034099 0 13323.54331144 0 1860.69863745 0 -1687.13174952 0 4303
0.06350000 0.06350600 31600.72899353 0 285.01793994 0 15597.97658035 0 30.78623144 0 2807.88083065 0 4470
0.06450000 0.06451750 31345.90344146 0 248.29360993 0 13554.65109047 0 1892.47595707 0 505.45047296 0 4479
0.06550000 0.06550280 31427.51056576 0 666.20301907 0 16948.76557870 0 733.61095337 0 5080.27954178 0 4636
0.06650000 0.06648880 30738.68348897 0 393.32385786 0 13225.74965008 0 1485.00236807 0 2242.16136066 0 4653
0.06750000 0.06749660 30402.02599958 0 345.02727793 0 14563.27468056 0 1494.41079273 0 3972.29983987 0 5220
0.06850000 0.06852730 30966.53147929 0 -255.77089080 0 13243.17265872 0 1385.84858797 0 5156.55859764 0 5029
0.06950000 0.06949320 30699.22880490 0 -331.45081997 0 12366.96393424 0 1807.95750422 0 3800.00314547 0 5040
0.07050000 0.07048030 31191.56930692 0 -324.62999311 0 10542.03304741 0 2901.29063822 0 5207.40006089 0 5475
0.07150000 0.07148790 30476.88873344 0 373.53694038 0 10173.62071970 0 329.33195731 0 3819.16845496 0 5509
0.07250000 0.07249820 30920.66962430 0 424.87861259 0 9363.90044429 0 2908.70946771 0 5933.81587373 0 5916
0.07350000 0.07351270 29716.34630498 0 654.70270931 0 8543.17557182 0 1007.83786861 0 4052.16466332 0 5721
0.07450000 0.07449140 29207.25723338 0 958.74095434 0 8399.22779856 0 1038.61027405 0 4881.46615230 0 6028
0.07550000 0.07549160 28008.21701990 0 902.26680101 0 7822.87467298 0 763.82469847 0 5233.16363237 0 6183
0.07650000 0.07648840 27651.21395269 0 52.37030416 0 7810.33010676 0 1136.37358565 0 4111.75135284 0 6330
0.07750000 0.07749960 26772.08265902 0 309.36968568 0 5878.26457782 0 1111.55310477 0 3712.58460473 0 6583
0.07850000 0.07848650 27049.16469954 0 323.51042430 0 5278.04755074 0 966.88592986 0 1988.63972407 0 6549
0.07950000 0.07947320 25767.05607716 0 603.90620865 0 5251.83435323 0 197.82758441 0 2122.49339298 0 6828
0.08050000 0.08048110 25823.25933081 0 964.88059777 0 5087.41735499 0 -306.41901486 0 1356.71282128 0 7147
0.08150000 0.08149960 24619.16082451 0 446.19425857 0 3762.54929723 0 478.76741626 0 1745.42576421 0 7386
0.08250000 0.08250610 24390.63839515 0 -43.03280801 0 3210.74575285 0 1251.56777434 0 1216.26089039 0 7227
0.08350000 0.08350160 24728.75716914 0 -350.55318183 0 2091.44671566 0 1277.01660760 0 327.79985662 0 7798
0.08450000 0.08449610 24621.63376767 0 48.51847038 0 2025.14935765 0 388.32064422 0 -413.60761210 0 7371
0.08550000 0.08548940 24527.77433407 0 481.22799470 0 1649.55425412 0 -1191.47525553 0 -1114.31830485 0 8256
0.08650000 0.08650700 23829.16789114 0 689.31492104 0 2057.49995045 0 -2213.43025739 0 -1641.05632217 0 8037
0.08750000 0.08749060 23347.05638128 0 910.09029391 0 3219.46849782 0 -2699.47599500 0 -1891.94764649 0 8155
0.08850000 0.08849210 22947.45124780 0 567.77875720 0 4845.81080818 0 -1190.20506200 0 -2351.45420772 0 8718
0.08950000 0.08949900 22691.95125668 0 304.31251691 0 5591.61674353 0 -668.73890987 0 -2879.53997906 0 8571
0.09050000 0.09049190 22807.50514620 0 96.58472937 0 7177.34658280 0 -2.21000186 0 -1238.62978535 0 8932
0.09150000 0.09150830 22706.00207009 0 287.68197416 0 6440.06106070 0 225.51105903 0 -1243.80048469 0 9285
0.09250000 0.09250820 22588.64967646 0 425.01237633 0 7545.32052513 0 980.71530246 0 -409.32380011 0 9204
0.09350000 0.09350330 21784.71833618 0 574.26573674 0 6847.27611474 0 1000.25604969 0 368.77427666 0 9349
0.09450000 0.09448040 21213.01884000 0 1029.11979263 0 6557.51462019 0 527.80812727 0 768.53677926 0 9564
0.09550000 0.09549270 20049.94870887 0 946.90342506 0 5883.36783325 0 585.61654585 0 1084.29003049 0 10155
0.09650000 0.09649430 19368.31564854 0 927.38965539 0 6959.05314560 0 113.68906556 0 1224.80378495 0 9913
0.09750000 0.09749140 18705.90410096 0 469.60965811 0 5667.52485791 0 1200.87243954 0 1869.47758567 0 10476
0.09850000 0.09850240 18233.12233122 0 -34.21125772 0 5826.59130641 0 239.70912497 0 1723.38284812 0 10575
0.09950000 0.09950330 18454.45074411 0 -62.70271031 0 4966.01832710 0 748.09677997 0 1550.24310491 0 10882
0.10050000 0.10051200 18685.44611663 0 23.23386303 0 5442.64439939 0 361.23966848 0 1234.30213482 0 10875
0.10150000 0.10150300 18336.08669191 0 463.56780834 0 4769.50927102 0 164.91608313 0 1126.60546016 0 11118
0.10250000 0.10250800 17999.09198300 0 627.07543794 0 5210.67109026 0 -692.57808194 0 1365.95263618 0 11575
0.10350000 0.10349800 17201.68022014 0 747.30768629 0 5081.60593856 0 -405.38844829 0 216.58148609 0 11364
0.10450000 0.10450100 16749.24402822 0 627.39692055 0 5187.86380992 0 -300.60984656 0 113.69693401 0 12093
0.10550000 0.10551000 16257.46555874 0 273.77054481 0 4992.02919289 0 40.82031072 0 -598.86702493 0 12067
0.10650000 0.10649700 16248.02341213 0 183.23384757 0 5237.78353982 0 194.42953569 0 -52.34197772 0 12054
0.10750000 0.10749900 15930.13780945 0 -81.05891777 0 4615.62476251 0 926.31055292 0 -1058.25555933 0 12807
0.10850000 0.10850100 16076.71589499 0 -62.77498770 0 4254.49637647 0 951.44127576 0 -748.77683934 0 12736
0.10950000 0.10950300 15940.70402114 0 -44.44946722 0 3365.54075406 0 686.97012129 0 -1275.40919454 0 12933
0.11050000 0.11050200 16205.87097188 0 70.40109478 0 3265.94858859 0 448.02311245 0 -187.32544443 0 13428
0.11150000 0.11150900 16008.03551902 0 109.82475465 0 3665.83473834 0 472.96049609 0 537.74935878 0 13453
0.11250000 0.11250000 16075.92904943 0 101.42337989 0 3184.33022363 0 155.67177197 0 425.45863017 0 13668
0.11350000 0.11349100 15971.95303017 0 139.07495117 0 4128.09525900 0 300.27712330 0 1510.46244198 0 13791
0.11450000 0.11448600 15834.03024570 0 281.01626827 0 4249.69661861 0 -325.92604014 0 1519.51116582 0 14205
0.11550000 0.11549300 15635.07072776 0 574.83001741 0 5221.70940927 0 -393.28676371 0 2301.29842416 0 14776
0.11650000 0.11649800 15302.68468565 0 541.88704231 0 5389.95946941 0 -786.09804790 0 2572.18686612 0 14553
0.11750000 0.11747300 14844.17854233 0 532.76525424 0 5918.88828956 0 -332.60635887 0 2745.23668413 0 14568
0.11850000 0.11849100 14627.00917021 0 93.22175149 0 5951.71098970 0 445.91773856 0 2697.16042095 0 16015
0.11950000 0.11950300 14449.63170167 0 96.22648983 0 5758.66405404 0 400.73032262 0 1491.38705769 0 15270
0.12050000 0.12050700 14482.22958879 0 26.40968408 0 5010.93596742 0 612.89760517 0 1279.53451336 0 15999
0.12150000 0.12150000 14161.42141693 0 84.26980965 0 4655.50659130 0 594.13246284 0 470.14920934 0 15670
0.12250000 0.12250700 14253.03272039 0 -160.46366138 0 4072.29666878 0 520.12401843 0 910.33421603 0 16887
0.12350000 0.12352200 14107.01666739 0 -266.22244785 0 3598.94162584 0 919.16374718 0 236.23014357 0 16407
0.12450000 0.12449800 14516.06394749 0 -362.34012818 0 3062.62769817 0 681.45433398 0 522.48792728 0 16306
0.12550000 0.12549900 14583.73266490 0 -81.98717071 0 2898.44675359 0 108.28714604 0 -14.12207914 0 17523
0.12650000 0.12650100 14798.54150036 0 238.70983112 0 2907.31562702 0 -73.50385160 0 613.88341024 0 17154
0.12750000 0.12750600 14363.19109755 0 408.79661359 0 2954.40271293 0 -396.62860917 0 629.40225264 0 18007
0.12850000 0.12850300 14012.37038824 0 603.69263629 0 2584.65274778 0 -179.71552389 0 666.72683339 0 17496
0.12950000 0.12949900 13691.11259035 0 466.06997719 0 3046.55356762 0 30.14225456 0 765.51304421 0 18405
0.13050000 0.13049000 13129.41727332 0 454.07395473 0 2846.95333259 0 206.14004563 0 121.65306660 0 18100
0.13150000 0.13148800 12984.86250492 0 256.12721943 0 2551.63895659 0 219.62657837 0 396.83656121 0 19059
0.13250000 0.13249300 12681.36493518 0 77.11850766 0 2729.53349505 0 42.07139515 0 364.02959799 0 18957
0.13350000 0.13349100 12674.50813824 0 35.76763822 0 2137.70199342 0 221.85447535 0 -223.10443571 0 19468
0.13450000 0.13450700 12723.29256241 0 127.98492516 0 2816.51365041 0 -296.90717621 0 151.99945138 0 19953
0.13550000 0.13551000 12741.72722961 0 140.39685170 0 2597.27599855 0 -421.46819916 0 -413.94820382 0 19956
0.13650000 0.13649900 12649.77870663 0 197.37795838 0 3264.16132512 0 -323.70039130 0 225.68866131 0 19723
0.13750000 0.13749600 12434.63265164 0 294.52078606 0 3294.93822682 0 -283.62971957 0 -194.71504822 0 20946
0.13850000 0.13851100 12325.59833955 0 217.83369458 0 3797.35035190 0 180.28992114 0 334.35990038 0 20955
0.13950000 0.13949800 12105.95602426 0 189.47240872 0 4079.38951939 0 280.54978127 0 429.14556361 0 20506
0.14050000 0.14048300 12080.10252758 0 150.91810078 0 3734.99846229 0 522.97352339 0 688.44489467 0 21447
0.14150000 0.14148400 11871.70086303 0 -51.29434907 0 3801.86909349 0 411.65623514 0 751.84890918 0 21771
0.14250000 0.14249400 11932.85000301 0 84.04522145 0 3721.83566028 0 453.98402953 0 1094.23463419 0 22470
0.14350000 0.14350900 11745.24354231 0 114.12407874 0 3340.67643465 0 240.96582972 0 717.09956151 0 22519
0.14450000 0.14449900 11523.24069037 0 313.15441278 0 3536.45484843 0 -102.11715285 0 701.58858757 0 22218
0.14550000 0.14550500 11325.63005052 0 215.03140035 0 2796.79754903 0 203.00390407 0 634.00305098 0 23559
0.14650000 0.14650700 10978.38386814 0 357.16493259 0 3171.13369967 0 -148.28778851 0 -311.18055451 0 23044
0.14750000 0.14750500 10726.28979419 0 268.35704742 0 2405.58918164 0 -107.13171955 0 -263.08293410 0 23649
0.14850000 0.14849900 10417.18313974 0 249.65597680 0 2692.73160456 0 -1.20508768 0 -887.86977555 0 23640
0.14950000 0.14949500 10276.93354057 0 173.46684615 0 2265.99154021 0 82.82932026 0 -446.77427615 0 24457
0.15050000 0.15050000 10231.51007097 0 62.66370526 0 2203.43731889 0 477.17461605 0 -579.85121609 0 24591
0.15150000 0.15149900 10058.11179279 0 59.47293414 0 2099.91092566 0 343.08601755 0 -599.20536852 0 25020
0.15250000 0.15250500 10072.82580460 0 157.80412342 0 2043.61774680 0 169.07399984 0 -608.35188602 0 25297
0.15350000 0.15350100 9961.90306318 0 263.78772290 0 2222.63635034 0 -11.79751257 0 -220.61013531 0 25452
0.15450000 0.15450400 9735.02176883 0 178.64653800 0 2330.88381688 0 -180.71256961 0 438.58321396 0 26061
0.15550000 0.15549900 9708.35894529 0 15.31426256 0 2335.04285765 0 -15.84673218 0 398.03256645 0 26128
0.15650000 0.15649500 9868.21223934 0 -184.04429848 0 2498.09973715 0 173.59049330 0 590.98170844 0 26331
0.15750000 0.15749700 9974.96469933 0 -178.41610466 0 2403.19492303 0 282.98563028 0 198.69873484 0 27345
0.15850000 0.15849900 10201.73358718 0 -25.31529432 0 2300.78135422 0 47.60438066 0 471.58688857 0 26980
0.15950000 0.15949700 10123.03779141 0 162.64209949 0 2399.08084486 0 -145.24606842 0 232.72755680 0 27777
0.16050000 0.16050000 9968.98467314 0 362.76277665 0 2666.28235339 0 -303.58187462 0 697.89378567 0 28224
0.16150000 0.16150500 9682.14574779 0 364.67031508 0 2791.06481716 0 -372.14422375 0 679.15449684 0 28075
0.16250000 0.16249700 9498.84445632 0 217.69093832 0 3109.82719059 0 -186.16765741 0 774.59886220 0 28590
0.16350000 0.16349900 9326.05317328 0 179.64583185 0 3035.63889576 0 -33.37641459 0 992.98447273 0 29163
0.16450000 0.16449100 9331.74094255 0 15.21882943 0 3377.77058206 0 280.06868142 0 713.48569230 0 28996
0.16550000 0.16550500 9211.53342364 0 27.74574783 0 3078.16227748 0 247.65963723 0 656.82382010 0 30777
0.16650000 0.16650700 9191.23280842 0 74.66984430 0 3126.60948213 0 199.64969389 0 105.10761557 0 29211
0.16750000 0.16749900 9070.23844395 0 178.00020059 0 2779.73424122 0 133.88963899 0 364.77597720 0 30922
0.16850000 0.16850800 8903.05624562 0 232.83209485 0 2662.78651101 0 290.37186188 0 197.82421221 0 30867
0.16950000 0.16949900 8739.29120513 0 106.53900003 0 2405.65662554 0 372.09251676 0 623.97526647 0 30852
0.17050000 0.17049200 8630.81892557 0 38.48573997 0 2211.72167848 0 449.24384711 0 343.09051381 0 31257
0.17150000 0.17149500 8561.75636748 0 13.69448479 0 2037.84005232 0 441.95765731 0 325.16729622 0 32608
0.17250000 0.17250900 8594.37673590 0 65.06841767 0 2067.98747758 0 169.72483352 0 645.89003913 0 32361
0.17350000 0.17350400 8503.47359344 0 88.01755501 0 1889.44098137 0 -106.66051147 0 414.96548271 0 32508
0.17450000 0.17449800 8520.69427036 0 131.23122509 0 2244.83663553 0 -196.59448502 0 1019.27972698 0 32791
0.17550000 0.17549800 8426.18287901 0 60.21920094 0 2181.18083044 0 -236.27735430 0 442.77597668 0 33633
0.17650000 0.17650100 8482.47605787 0 -34.22980479 0 2298.35337366 0 88.25608162 0 944.22365392 0 33984
0.17750000 0.17750300 8380.09621102 0 -2.03242206 0 2277.64809502 0 47.31864332 0 468.13038847 0 34069
0.17850000 0.17849800 8443.54968439 0 49.82261067 0 2072.49497853 0 330.59877865 0 657.11832515 0 34536
