### header ###
fiducial parameters:
Omega_m = 0.31
Omega_nu = 0
Omega_de = 0.69
Omega_k = 0
H_0 = 100
w_de = -1
zeff = 0
beta = 0
fgrowth = 0
b_1 = 2
gamma = 0.55
Lx = 3500 Ly = 3500 Lz = 3500
nx = 700 ny = 700 nz = 700
xoffset = 857.220397 yoffset = 15.9954215 zoffset = 262.898189
bins = 400 dk = 0.001
kx_ny = 0.628318531 ky_ny = 0.628318531 kz_ny = 0.628318531
############################
A(data) = 3.04877079 (not used)
A(ran) = 3.04804906 (used)
Ngal = 186249
weighted Ngal = 0
Nran = 9360983
weighted Nran = 0
SN(data) = 3446.41007
SN(ran) = 68.4477268
SN(data+ran) = 3514.8578
############################
13 columns: k_central k_mean P_0(k) sigma^{lin}_{P_0(k)} P^img_1(k) sigma^{lin}_{P_1(k)} P_2(k) sigma^{lin}_{P_2(k)} P^img_3(k) sigma^{lin}_{P_3(k)} P_4(k) sigma^{lin}_{P_4(k)} N_modes
### header ###
0.00050000 0 0 0 0 0 0 0 0 0 0 0 0
0.00150000 0.00179520 20792.95572219 0 -27831.51399041 0 -23104.59554502 0 3319.55525192 0 -20175.05715150 0 3
0.00250000 0.00253879 39161.75270773 0 -27206.19659025 0 7880.71906164 0 -56826.32292497 0 5051.09881248 0 6
0.00350000 0.00331552 62040.74839257 0 -29740.28889104 0 -27877.93787793 0 17068.02888295 0 33866.05733534 0 7
0.00450000 0.00420575 80622.55570947 0 -24875.22284816 0 2265.75548654 0 -54546.49414371 0 1584.61701485 0 24
0.00550000 0.00557378 123524.63494793 0 -25753.90451580 0 623.30195149 0 -46581.48144224 0 -18471.98615925 0 45
0.00650000 0.00659388 111338.87030348 0 -11588.43646461 0 26167.78527572 0 -29548.29857656 0 -37164.06425982 0 40
0.00750000 0.00754703 145568.67509648 0 5551.25156675 0 13837.69067588 0 -82432.52529017 0 -67811.02403882 0 57
0.00850000 0.00846663 129569.85691106 0 15003.00893716 0 20609.95792829 0 -40633.26629492 0 -80372.00160467 0 75
0.00950000 0.00948925 118443.86081753 0 26414.18033974 0 52029.93725806 0 -55206.76996765 0 -46080.48563916 0 112
0.01050000 0.01054430 96724.22584908 0 11467.26224973 0 48735.52734182 0 -13733.60225011 0 -39715.46716274 0 105
0.01150000 0.01145670 98299.37823601 0 5272.25861561 0 67831.93164918 0 13677.28658995 0 -31052.74727039 0 144
0.01250000 0.01249090 90501.85123043 0 6614.97682673 0 72806.59403669 0 19341.33808679 0 -21132.42337426 0 169
0.01350000 0.01339930 86320.32915850 0 8677.55755131 0 78440.40818306 0 18607.54840707 0 -11245.25939779 0 180
0.01450000 0.01448870 90486.78875845 0 10881.73675315 0 105484.62699627 0 8501.74253323 0 21127.58989445 0 267
0.01550000 0.01550050 86956.54998987 0 10370.87165873 0 108430.68914636 0 16768.91516700 0 25590.35304767 0 238
0.01650000 0.01653350 85531.12307068 0 2393.67409186 0 127139.62822302 0 23460.36214065 0 41043.99967263 0 315
0.01750000 0.01747870 82567.30069244 0 4760.39310327 0 113183.23627542 0 35198.63647950 0 33629.89126349 0 297
0.01850000 0.01844180 82468.94499854 0 3758.52514427 0 111347.97523057 0 38262.95027528 0 26829.97201028 0 388
0.01950000 0.01947590 75051.68920719 0 6528.22148439 0 90718.00894399 0 42077.46510084 0 27261.83781137 0 399
0.02050000 0.02045430 70772.71069342 0 3007.45858438 0 69319.74417993 0 38318.47908989 0 18242.11485180 0 462
0.02150000 0.02154770 68278.52270272 0 927.54590043 0 45994.26984805 0 30293.55372002 0 16914.93122000 0 571
0.02250000 0.02255340 60636.79111627 0 2276.79380556 0 25093.51628536 0 9952.52836047 0 6693.18927452 0 510
0.02350000 0.02348930 58301.54592691 0 2409.33231833 0 20552.06857702 0 6475.89625523 0 -25.67330905 0 555
0.02450000 0.02439640 54854.03834771 0 2783.26380555 0 5719.06324152 0 -4046.39820949 0 -7758.58939145 0 592
0.02550000 0.02547300 52739.22231919 0 -2336.04327557 0 977.89839538 0 -2223.90654387 0 -16484.30189049 0 837
0.02650000 0.02652900 56383.66609919 0 -6206.66018893 0 -1687.97479832 0 -4206.92594258 0 -30254.66106849 0 723
0.02750000 0.02749970 61616.63864049 0 -7443.85117098 0 -4689.43087521 0 -4580.18299075 0 -39223.46388024 0 826
0.02850000 0.02848090 63999.20696943 0 -4153.52161096 0 -4214.31105011 0 -5548.34023821 0 -34891.76671455 0 831
0.02950000 0.02946900 67351.95586297 0 932.77055489 0 -6405.77707597 0 -2958.98889843 0 -29362.60302648 0 996
0.03050000 0.03053250 63169.98416501 0 5508.13243055 0 -42.88207088 0 -3788.11053699 0 -20471.92273731 0 1041
0.03150000 0.03150510 59105.92689322 0 5890.59557167 0 9283.27125660 0 -1140.63379228 0 -18095.42435976 0 1036
0.03250000 0.03246190 54627.65164199 0 4601.10184176 0 10615.99652922 0 -2273.70262661 0 27.54229205 0 1059
0.03350000 0.03345080 55024.89623883 0 2957.83111140 0 18018.53830876 0 -4651.31382858 0 3033.99776075 0 1302
0.03450000 0.03451200 53388.59471192 0 1440.01728385 0 22528.39978855 0 -1962.90987455 0 10168.67483338 0 1339
0.03550000 0.03553350 54335.39472299 0 1023.27915051 0 31243.38870679 0 -2298.21848586 0 10062.88906935 0 1365
0.03650000 0.03647120 53109.15213474 0 2693.09130538 0 29743.99830578 0 431.54769067 0 17327.01347579 0 1308
0.03750000 0.03744890 52195.84926285 0 -413.17709518 0 31860.16321240 0 5537.74030457 0 14968.72495243 0 1579
0.03850000 0.03847530 53473.23681192 0 -119.79386297 0 32739.06969306 0 9050.65723037 0 16618.85247974 0 1662
0.03950000 0.03950240 55475.53392663 0 -374.92740887 0 28777.86437545 0 10778.67122660 0 17326.00181723 0 1683
0.04050000 0.04050350 53546.86307421 0 254.04994717 0 28779.88769259 0 7720.82080499 0 21903.53201441 0 1822
0.04150000 0.04152450 53233.02410580 0 2503.85495033 0 18179.05480120 0 6572.63329543 0 22712.29683450 0 1887
0.04250000 0.04250150 50691.51297552 0 2017.66308426 0 20451.91437901 0 3769.33865027 0 18953.87285609 0 1920
0.04350000 0.04349210 48020.39714232 0 2747.32744516 0 14029.23136434 0 1919.84694160 0 15448.25111262 0 2005
0.04450000 0.04448520 45698.19110780 0 1902.78363379 0 13752.59894985 0 1109.55339301 0 6721.27966069 0 2151
0.04550000 0.04548030 42976.49234631 0 2660.95428494 0 6270.52956638 0 -1988.36994846 0 5842.12588572 0 2274
0.04650000 0.04648670 40567.73330116 0 1617.10249546 0 8903.88805378 0 -1268.75472931 0 1412.84863103 0 2311
0.04750000 0.04749250 39172.20651291 0 1611.50465140 0 8676.47844884 0 -566.37030367 0 2118.89638474 0 2568
0.04850000 0.04851840 39741.54547243 0 213.20816681 0 10954.58741054 0 2517.41117511 0 59.08996517 0 2493
0.04950000 0.04949480 39013.37611808 0 -630.89501106 0 9604.48409189 0 366.25412277 0 778.95461436 0 2644
0.05050000 0.05050630 39371.16603085 0 50.05709065 0 12609.64958352 0 -971.47548756 0 -1367.40268012 0 2829
0.05150000 0.05149060 40092.59099476 0 1299.13820823 0 16292.53638902 0 -269.74077153 0 1286.33510705 0 2784
0.05250000 0.05249300 37950.12296544 0 1323.73275203 0 15350.12023173 0 862.72556393 0 2495.13220536 0 3055
0.05350000 0.05348950 37058.96417548 0 2284.66226107 0 17512.93383888 0 -157.41519690 0 2594.43211392 0 3009
0.05450000 0.05448610 35234.94378136 0 1373.48387217 0 14194.58133659 0 1935.59509327 0 2764.25586516 0 3336
0.05550000 0.05550870 33481.85189336 0 1292.30389259 0 14382.86223633 0 2008.60311977 0 1238.40497233 0 3349
0.05650000 0.05647670 33908.09736908 0 584.96796030 0 12400.79829294 0 970.78980786 0 2025.38541131 0 3324
0.05750000 0.05747970 33219.60751181 0 -91.79902232 0 11070.41107567 0 346.15583926 0 703.23534290 0 3639
0.05850000 0.05849280 33694.07537916 0 -1080.95268129 0 9653.95419576 0 147.38741238 0 455.66225868 0 3846
0.05950000 0.05951020 34854.78497364 0 -1738.73757702 0 7588.95673127 0 1104.35796424 0 -477.50396712 0 3787
0.06050000 0.06049470 36396.21540838 0 -1384.16249036 0 6763.99413347 0 823.68341174 0 -6330.61084454 0 3930
0.06150000 0.06148310 36708.48068569 0 -304.93749710 0 7055.14946870 0 337.73996406 0 -6828.56043127 0 4083
0.06250000 0.06249100 35942.87996440 0 1017.52056515 0 6547.71277275 0 -758.51461507 0 -7698.20461572 0 4303
0.06350000 0.06350600 35110.28496476 0 1938.59634702 0 6034.35225387 0 -650.76510935 0 -6971.03567928 0 4470
0.06450000 0.06451750 34088.50981331 0 1436.33035041 0 6458.20347098 0 -164.35180247 0 -6971.32793620 0 4479
0.06550000 0.06550280 32742.44188827 0 1064.90665237 0 7969.62136827 0 271.77870150 0 -5241.81893343 0 4636
0.06650000 0.06648880 32174.90143287 0 1017.94433768 0 7090.42263070 0 -31.10782646 0 -4834.46899159 0 4653
0.06750000 0.06749660 31520.47074731 0 958.19353465 0 9752.55718397 0 -4.44358660 0 -4629.69805722 0 5220
0.06850000 0.06852730 30249.82758868 0 574.46357219 0 6978.21845510 0 818.40480216 0 -2491.51271583 0 5029
0.06950000 0.06949320 30267.47541033 0 234.04833326 0 8528.07937789 0 996.56461999 0 -3076.73471483 0 5040
0.07050000 0.07048030 30203.51610767 0 -153.78221859 0 6629.55595073 0 2216.64508350 0 -4185.35513383 0 5475
0.07150000 0.07148790 30133.03722758 0 -10.61911019 0 6718.98656794 0 1741.10935433 0 -3914.05078778 0 5509
0.07250000 0.07249820 29648.22796155 0 398.04155897 0 5542.47261853 0 700.61739535 0 -3797.82245923 0 5916
0.07350000 0.07351270 28731.10326841 0 644.91210252 0 6268.48376795 0 292.08718518 0 -3785.62635318 0 5721
0.07450000 0.07449140 28593.96732950 0 832.86814746 0 5825.70329500 0 492.05948575 0 -1662.34611465 0 6028
0.07550000 0.07549160 27522.39609531 0 914.81698755 0 5773.53543496 0 1106.15084803 0 -1234.66183564 0 6183
0.07650000 0.07648840 27224.18163142 0 903.12895892 0 6612.54884617 0 897.73681876 0 -51.91966647 0 6330
0.07750000 0.07749960 26215.33322831 0 1182.46025365 0 7609.24610584 0 396.46337161 0 1225.17472642 0 6583
0.07850000 0.07848650 25129.82358722 0 942.36557436 0 7031.16192004 0 731.06382192 0 1744.13308937 0 6549
0.07950000 0.07947320 24256.42502542 0 351.68174316 0 7414.94021730 0 337.41286112 0 2295.03738170 0 6828
0.08050000 0.08048110 24952.67093170 0 -324.16687830 0 7030.44251840 0 -257.48733816 0 2296.49866629 0 7147
0.08150000 0.08149960 25165.23163702 0 -703.21623380 0 7888.38518544 0 -279.26722302 0 1642.86606694 0 7386
0.08250000 0.08250610 25674.77033466 0 -517.49820242 0 7755.72302551 0 -669.23687070 0 476.15284090 0 7227
0.08350000 0.08350160 25328.44588564 0 263.29650646 0 6190.47365187 0 -53.11780744 0 -1705.36408500 0 7798
0.08450000 0.08449610 25721.53144170 0 485.86813533 0 7558.37092063 0 86.69025897 0 -1805.12486024 0 7371
0.08550000 0.08548940 24738.76134829 0 727.90295093 0 6197.84751875 0 -92.17693300 0 -3635.15900250 0 8256
0.08650000 0.08650700 24133.11508690 0 721.13270700 0 5814.73241989 0 1191.58766204 0 -3037.93198851 0 8037
0.08750000 0.08749060 23379.76667491 0 741.17366318 0 4969.06454344 0 1426.61842817 0 -3968.06211455 0 8155
0.08850000 0.08849210 22342.14220593 0 460.04723653 0 4557.18461936 0 562.25172924 0 -2961.20330662 0 8718
0.08950000 0.08949900 22792.21786120 0 370.92011689 0 4609.73466153 0 303.49756974 0 -2548.69390609 0 8571
0.09050000 0.09049190 22164.98955041 0 254.41077206 0 4031.30201556 0 215.58331630 0 -1259.63856157 0 8932
0.09150000 0.09150830 22033.69874987 0 274.46521703 0 4874.14848867 0 173.03745329 0 308.64803590 0 9285
0.09250000 0.09250820 21944.67279608 0 329.15772723 0 4120.42913521 0 341.99567443 0 1527.57071239 0 9204
0.09350000 0.09350330 21596.54984295 0 271.58423825 0 4161.92961770 0 710.15396343 0 1914.14793168 0 9349
0.09450000 0.09448040 21196.83230295 0 647.47721902 0 3914.03954713 0 1358.91598882 0 2357.63656562 0 9564
0.09550000 0.09549270 20452.70122456 0 716.90734639 0 3214.30903913 0 1265.40501539 0 2983.30242596 0 10155
0.09650000 0.09649430 19750.27296038 0 541.50148799 0 2816.18767154 0 1378.02509506 0 2104.10368838 0 9913
0.09750000 0.09749140 19267.71182450 0 522.32606191 0 2435.72536625 0 310.79050393 0 2427.08130584 0 10476
0.09850000 0.09850240 18578.88474770 0 385.31826641 0 2661.28026382 0 -66.80644708 0 1060.23278979 0 10575
0.09950000 0.09950330 18341.70701728 0 653.88438993 0 2727.48769662 0 -1577.59160814 0 2016.43785333 0 10882
0.10050000 0.10051200 18049.45009827 0 506.83532114 0 3500.57469130 0 -1407.58800649 0 1236.37041455 0 10875
0.10150000 0.10150300 17917.70967171 0 623.36489913 0 4709.66404652 0 -1833.63115049 0 1743.42492838 0 11118
0.10250000 0.10250800 17440.99367421 0 251.14199083 0 5141.69845737 0 -764.92853037 0 679.03534594 0 11575
0.10350000 0.10349800 17427.95451936 0 26.90786972 0 6305.02712347 0 279.15032025 0 291.58360403 0 11364
0.10450000 0.10450100 17356.12676119 0 223.11005603 0 5558.37813932 0 47.91248690 0 -187.36591077 0 12093
0.10550000 0.10551000 17138.62016954 0 395.40562637 0 5962.88419652 0 557.50143024 0 -497.18185029 0 12067
0.10650000 0.10649700 16810.95520073 0 503.18885404 0 5985.83760532 0 142.63036900 0 625.19824927 0 12054
0.10750000 0.10749900 16171.92420668 0 421.07927264 0 5621.77540944 0 711.10717061 0 996.72198910 0 12807
0.10850000 0.10850100 16097.51109884 0 252.07496484 0 5773.55791626 0 1179.71753487 0 1921.28574489 0 12736
0.10950000 0.10950300 15852.57731941 0 57.76176988 0 5408.06815774 0 1307.40008652 0 2631.24524506 0 12933
0.11050000 0.11050200 15888.65980826 0 31.06848418 0 5424.15352894 0 990.22376891 0 3229.69748998 0 13428
0.11150000 0.11150900 15566.27794529 0 130.95245695 0 5297.98846513 0 575.64159239 0 4371.35418147 0 13453
0.11250000 0.11250000 15447.01464104 0 151.47001673 0 4238.16371096 0 493.32405896 0 3018.04727737 0 13668
0.11350000 0.11349100 15406.43589190 0 109.40615282 0 4615.00652672 0 -61.33168814 0 3969.42223329 0 13791
0.11450000 0.11448600 15286.83536812 0 161.17519457 0 4069.23921178 0 72.58616488 0 2784.94990316 0 14205
0.11550000 0.11549300 14949.05381365 0 270.55684277 0 3943.97340003 0 16.43956410 0 2240.00315572 0 14776
0.11650000 0.11649800 14900.94382852 0 183.86444807 0 3595.47950542 0 -123.41335251 0 1739.55814453 0 14553
0.11750000 0.11747300 14450.19373421 0 103.17040182 0 3628.44833401 0 -8.66392264 0 562.48553477 0 14568
0.11850000 0.11849100 14692.20494445 0 261.53509649 0 4181.44338737 0 -434.68945255 0 1040.78983622 0 16015
0.11950000 0.11950300 14522.80833793 0 218.83074030 0 4525.11504282 0 -693.54365384 0 -9.97004129 0 15270
0.12050000 0.12050700 14714.23661988 0 70.81317704 0 5192.49495802 0 -583.62133034 0 1028.05417895 0 15999
0.12150000 0.12150000 14726.48892918 0 -39.93229932 0 5222.21523856 0 -145.50347932 0 38.45111877 0 15670
0.12250000 0.12250700 14658.48299226 0 -85.73941233 0 4684.14776936 0 760.64809058 0 1011.50906513 0 16887
0.12350000 0.12352200 14571.36794909 0 75.91171139 0 4618.73842276 0 1138.36318083 0 342.54421818 0 16407
0.12450000 0.12449800 14353.74895094 0 200.05548138 0 3348.21891129 0 1127.20121465 0 108.96967835 0 16306
0.12550000 0.12549900 14163.55714057 0 268.60434174 0 3110.82760850 0 913.67718556 0 -18.01111948 0 17523
0.12650000 0.12650100 13772.49490164 0 208.24092325 0 2648.12870246 0 -33.64338004 0 -342.88480990 0 17154
0.12750000 0.12750600 13662.67374400 0 185.95633317 0 2434.43269141 0 -423.59830247 0 147.22554701 0 18007
0.12850000 0.12850300 13483.72258436 0 336.73055362 0 3076.22888555 0 -498.44979569 0 -143.30031178 0 17496
0.12950000 0.12949900 13303.98457917 0 345.27232411 0 3072.31713910 0 -374.23498479 0 875.52529292 0 18405
0.13050000 0.13049000 12960.91991886 0 378.95830622 0 3662.44006182 0 231.89350052 0 724.77130564 0 18100
0.13150000 0.13148800 12791.74812536 0 275.30376957 0 3558.59893037 0 326.24302649 0 1414.61341319 0 19059
0.13250000 0.13249300 12710.02859455 0 152.29845269 0 3875.77637205 0 663.85147494 0 1653.20746561 0 18957
0.13350000 0.13349100 12499.71601937 0 152.31418960 0 3907.01414043 0 245.89597913 0 1564.31639963 0 19468
0.13450000 0.13450700 12596.72283518 0 30.62886233 0 3955.12412556 0 -252.81010340 0 1893.06047091 0 19953
0.13550000 0.13551000 12378.87902401 0 166.33240513 0 3794.24793229 0 -134.65287917 0 1458.84537382 0 19956
0.13650000 0.13649900 12489.71184022 0 187.19505288 0 4010.85527188 0 -444.98251642 0 1348.81064381 0 19723
0.13750000 0.13749600 12134.84449664 0 216.82990447 0 3682.15616320 0 -158.44146831 0 348.14206225 0 20946
0.13850000 0.13851100 11893.05809942 0 250.88120773 0 3830.18429268 0 -65.53940093 0 -413.52780348 0 20955
0.13950000 0.13949800 11805.60583673 0 111.17082258 0 3235.96977309 0 147.88874541 0 -567.69108013 0 20506
0.14050000 0.14048300 11598.77786328 0 39.02720212 0 3202.83233473 0 480.83794412 0 -644.91210252 0 21447
0.14150000 0.14148400 11619.79788015 0 -26.37438844 0 2821.12231721 0 588.37387747 0 -1033.57783471 0 21771
0.14250000 0.14249400 11479.62696553 0 -0.46688380 0 2364.44839996 0 763.40429813 0 -734.43376901 0 22470
0.14350000 0.14350900 11467.93668877 0 126.41235812 0 2142.05212525 0 391.60853456 0 -669.79665511 0 22519
0.14450000 0.14449900 11386.77919049 0 280.11814028 0 1891.52050176 0 284.51323472 0 -434.05435578 0 22218
0.14550000 0.14550500 11207.16483246 0 268.45146889 0 2080.38591534 0 -129.13147153 0 0.74336447 0 23559
0.14650000 0.14650700 10890.22344445 0 289.65133617 0 2305.85088770 0 -6.98884087 0 179.69753885 0 23044
0.14750000 0.14750500 10781.50387058 0 183.35637066 0 2091.72773193 0 -11.53875279 0 668.71642857 0 23649
0.14850000 0.14849900 10706.91091233 0 76.20048371 0 2240.76751997 0 109.51473750 0 72.41969084 0 23640
0.14950000 0.14949500 10720.92800379 0 62.50498727 0 2464.45646952 0 -275.13291168 0 488.37817263 0 24457
0.15050000 0.15050000 10717.38719881 0 -12.64798020 0 2689.86523862 0 -44.65921776 0 189.12507261 0 24591
0.15150000 0.15149900 10737.14826280 0 43.71354181 0 2694.02427940 0 -121.18545553 0 570.80361631 0 25020
0.15250000 0.15250500 10777.24366396 0 13.37940935 0 2281.51487887 0 145.82271380 0 249.46038948 0 25297
0.15350000 0.15350100 10826.29786375 0 92.56900690 0 2724.96979086 0 8.93979069 0 307.68471213 0 25452
0.15450000 0.15450400 10590.39032685 0 288.39238328 0 2697.27282746 0 -80.99507087 0 379.42479323 0 26061
0.15550000 0.15549900 10416.01411206 0 308.81102534 0 2654.27733841 0 94.93437703 0 174.06822096 0 26128
0.15650000 0.15649500 10171.61988387 0 243.20833954 0 2674.10584630 0 -95.57295840 0 360.72259854 0 26331
0.15750000 0.15749700 9922.56078562 0 198.82912639 0 2824.66312219 0 87.38043493 0 288.09450604 0 27345
0.15850000 0.15849900 9957.84518827 0 -19.34875692 0 2561.94663331 0 324.88852808 0 303.35593754 0 26980
0.15950000 0.15949700 9695.97174819 0 89.39588361 0 2403.20616368 0 186.27331952 0 -21.48942644 0 27777
0.16050000 0.16050000 9819.80999729 0 124.85215580 0 2313.55073345 0 10.50512999 0 157.45116698 0 28224
0.16150000 0.16150500 9578.40578219 0 156.93072486 0 2455.46394893 0 -172.31355538 0 -369.28685034 0 28075
0.16250000 0.16249700 9524.04599526 0 276.89094946 0 2296.12772482 0 -348.93902438 0 -200.15777131 0 28590
0.16350000 0.16349900 9304.15638566 0 224.60618665 0 2613.38385105 0 -23.00860039 0 -344.37981645 0 29163
0.16450000 0.16449100 9117.04451359 0 223.33374498 0 2432.97140682 0 126.98450724 0 -47.55154960 0 28996
0.16550000 0.16550500 8894.64823888 0 175.86222882 0 2503.73130317 0 348.37586778 0 -117.71996291 0 30777
0.16650000 0.16650700 8786.86163902 0 134.47078063 0 2235.61930193 0 601.66931916 0 -165.79172983 0 29211
0.16750000 0.16749900 8673.99426503 0 57.75199051 0 2077.77808437 0 554.03593762 0 245.04731000 0 30922
0.16850000 0.16850800 8532.29462191 0 45.93772937 0 1568.34055259 0 393.70941218 0 -78.27876763 0 30867
0.16950000 0.16949900 8546.21054752 0 58.82063918 0 1736.56813143 0 199.51255795 0 420.86794841 0 30852
0.17050000 0.17049200 8431.19620924 0 86.43880562 0 1152.95354548 0 -37.35594217 0 -177.94062514 0 31257
0.17150000 0.17149500 8439.81778835 0 101.14360009 0 1498.17641073 0 -219.95143318 0 332.36918114 0 32608
0.17250000 0.17250900 8447.27033978 0 45.05297776 0 1482.99029159 0 -192.55796735 0 207.86436145 0 32361
0.17350000 0.17350400 8438.14293139 0 -31.83363528 0 1669.93355390 0 -123.59095479 0 125.10057418 0 32508
0.17450000 0.17449800 8594.25308874 0 -16.45282807 0 1888.19326914 0 -124.17996489 0 407.83778608 0 32791
0.17550000 0.17549800 8601.82928734 0 21.98480192 0 2041.66187357 0 95.15626748 0 241.55371575 0 33633
0.17650000 0.17650100 8511.74671238 0 77.47393703 0 2002.34207731 0 200.27467407 0 714.49285461 0 33984
0.17750000 0.17750300 8540.72510996 0 164.37315970 0 2072.09031510 0 220.35946880 0 440.38284214 0 34069
