### header ###
fiducial parameters:
Omega_m = 0.31
Omega_nu = 0
Omega_de = 0.69
Omega_k = 0
H_0 = 100
w_de = -1
zeff = 0
beta = 0
fgrowth = 0
b_1 = 2
gamma = 0.55
Lx = 3500 Ly = 3500 Lz = 3500
nx = 700 ny = 700 nz = 700
xoffset = 857.220397 yoffset = 15.9954215 zoffset = 262.898189
bins = 400 dk = 0.001
kx_ny = 0.628318531 ky_ny = 0.628318531 kz_ny = 0.628318531
############################
A(data) = 3.11427305 (not used)
A(ran) = 3.11643484 (used)
Ngal = 190254
weighted Ngal = 0
Nran = 9360983
weighted Nran = 0
SN(data) = 3441.01516
SN(ran) = 69.9834143
SN(data+ran) = 3510.99858
############################
13 columns: k_central k_mean P_0(k) sigma^{lin}_{P_0(k)} P^img_1(k) sigma^{lin}_{P_1(k)} P_2(k) sigma^{lin}_{P_2(k)} P^img_3(k) sigma^{lin}_{P_3(k)} P_4(k) sigma^{lin}_{P_4(k)} N_modes
### header ###
0.00050000 0 0 0 0 0 0 0 0 0 0 0 0
0.00150000 0.00179520 16391.11689593 0 -15729.71700692 0 -22105.63891455 0 51345.49403505 0 3316.82377380 0 3
0.00250000 0.00253879 38011.15969891 0 -25355.64826040 0 -6742.92915400 0 -20464.72872084 0 46134.89038870 0 6
0.00350000 0.00331552 47364.16795264 0 -19640.11458322 0 -15366.30676879 0 -39987.04128440 0 -53925.33578432 0 7
0.00450000 0.00420575 69576.25582962 0 -19111.12955982 0 -18066.42348088 0 -32013.93531440 0 3470.76448556 0 24
0.00550000 0.00557378 85514.03728157 0 -21166.14532646 0 -35427.83334791 0 -19079.43092476 0 12856.49427357 0 45
0.00650000 0.00659388 124935.33661467 0 -21970.63869927 0 -8627.10951083 0 -43293.59110343 0 -55710.12630739 0 40
0.00750000 0.00754703 123957.40000108 0 -21130.17524412 0 -45062.41990246 0 -18508.96790016 0 -29008.29771544 0 57
0.00850000 0.00846663 139667.33346271 0 -9224.20163701 0 -25162.75869386 0 -41087.16377144 0 -52979.77224483 0 75
0.00950000 0.00948925 140093.35412542 0 535.39219432 0 -39550.11719048 0 -36677.90611570 0 -37808.49076623 0 112
0.01050000 0.01054430 123370.63803292 0 14382.86223633 0 -15309.54148260 0 -29577.18704894 0 -37461.71669117 0 105
0.01150000 0.01145670 110320.01772122 0 19906.29319253 0 -12634.82864116 0 -20791.60684410 0 -32488.85280778 0 144
0.01250000 0.01249090 90690.24453668 0 16869.74380406 0 -2663.68576307 0 -11264.48091054 0 -24879.71910845 0 169
0.01350000 0.01339930 86528.50601004 0 10395.29759277 0 24582.40389662 0 -7545.54533814 0 -5254.77940372 0 180
0.01450000 0.01448870 73479.23457643 0 3045.20468953 0 6588.61750076 0 -5590.21166219 0 -15924.96711012 0 267
0.01550000 0.01550050 82374.97315843 0 -2901.30187887 0 14991.43106691 0 -19048.85635477 0 -28854.07598741 0 238
0.01650000 0.01653350 80006.68045592 0 -989.00865457 0 25834.38757504 0 -8789.40202608 0 -11733.55326555 0 315
0.01750000 0.01747870 82761.08951104 0 1287.94252011 0 24275.42172516 0 -1885.33814386 0 -25880.24943002 0 297
0.01850000 0.01844180 86130.13734813 0 -396.68818462 0 35297.32939292 0 948.66483503 0 -7826.40423731 0 388
0.01950000 0.01947590 80758.67998982 0 3380.51330084 0 37191.37904109 0 11891.93403434 0 -23013.99590012 0 399
0.02050000 0.02045430 82160.50154248 0 2099.68611264 0 33993.30150162 0 7695.07971482 0 -14967.37607434 0 462
0.02150000 0.02154770 77471.57649656 0 4018.35278592 0 41589.28363959 0 7803.34966266 0 1567.41881923 0 571
0.02250000 0.02255340 75559.76662023 0 3893.17689938 0 29479.16857456 0 6610.19955017 0 -1370.32524931 0 510
0.02350000 0.02348930 70545.53714215 0 4295.92941507 0 38443.25031300 0 11014.51131959 0 24457.85748652 0 555
0.02450000 0.02439640 69431.36384169 0 1592.66532077 0 29391.37909235 0 6361.96101942 0 -1617.77693451 0 592
0.02550000 0.02547300 67842.61026738 0 427.60109820 0 26379.44672898 0 10177.25144989 0 14224.36906103 0 837
0.02650000 0.02652900 67749.42527282 0 382.67221723 0 20396.83519043 0 9503.63297353 0 -8603.35801584 0 723
0.02750000 0.02749970 62353.12607639 0 488.98966403 0 661.55388593 0 -1569.00375098 0 2936.01300833 0 826
0.02850000 0.02848090 63971.33015562 0 1533.56197923 0 10742.61121905 0 1612.80856688 0 -15595.50363719 0 831
0.02950000 0.02946900 62840.74550510 0 1797.43625514 0 9803.47733178 0 -5276.86728241 0 -5700.58361171 0 996
0.03050000 0.03053250 61514.57353186 0 2861.72354765 0 12981.93993573 0 -1660.13170646 0 -7461.11681050 0 1041
0.03150000 0.03150510 60471.77836354 0 2285.80880745 0 19257.59523884 0 -1534.21393697 0 -1318.59577465 0 1036
0.03250000 0.03246190 56940.07831037 0 1195.79166541 0 21496.39564493 0 -2846.52618786 0 12993.96743201 0 1059
0.03350000 0.03345080 60916.68331947 0 1721.10099602 0 28919.60898117 0 7913.51928047 0 12309.63661551 0 1302
0.03450000 0.03451200 58980.70604408 0 -55.44372289 0 31965.03848372 0 7564.77809155 0 22388.67849996 0 1339
0.03550000 0.03553350 60570.47127696 0 -363.86998075 0 32683.54087844 0 4838.31329414 0 19785.90582320 0 1365
0.03650000 0.03647120 61095.52207260 0 89.99366141 0 33198.81230795 0 3886.55615610 0 26571.54944998 0 1308
0.03750000 0.03744890 58973.62443412 0 2525.54940624 0 37782.74967605 0 -232.58480054 0 17686.93911220 0 1579
0.03850000 0.03847530 57973.09411255 0 2437.04052238 0 33782.31448740 0 5042.63460248 0 24223.15269926 0 1662
0.03950000 0.03950240 52519.01797137 0 2984.03306825 0 29894.39821256 0 2467.10926309 0 15491.07799190 0 1683
0.04050000 0.04050350 51512.86732443 0 2243.91490217 0 25243.24175309 0 6050.03296164 0 15254.01266798 0 1822
0.04150000 0.04152450 50056.52861573 0 1876.76152735 0 24728.75716914 0 5069.25246341 0 20545.66140611 0 1887
0.04250000 0.04250150 47120.35823829 0 921.12861293 0 14196.26743420 0 7816.42253946 0 6225.11733743 0 1920
0.04350000 0.04349210 47006.04082035 0 51.18688845 0 16177.20731252 0 5040.68996990 0 17146.60103156 0 2005
0.04450000 0.04448520 45621.08024379 0 549.68018546 0 12388.32117063 0 2342.94503511 0 4487.15536530 0 2151
0.04550000 0.04548030 45670.65151351 0 204.97776234 0 13154.48392445 0 1807.24934323 0 10141.65230902 0 2274
0.04650000 0.04648670 46672.30590015 0 585.65139187 0 14863.17524207 0 -2833.02616633 0 7560.24810930 0 2311
0.04750000 0.04749250 44443.73448622 0 1014.76435759 0 15182.97175536 0 -939.89375526 0 4911.86087187 0 2568
0.04850000 0.04851840 45311.73753567 0 1211.52857644 0 17426.49323476 0 1587.53958404 0 9403.13031535 0 2493
0.04950000 0.04949480 42674.34365466 0 1967.00147142 0 12979.24217955 0 1355.31898059 0 989.88542532 0 2644
0.05050000 0.05050630 42363.98928797 0 1856.47215278 0 18720.74175993 0 3663.42923909 0 11477.94086792 0 2829
0.05150000 0.05149060 39756.15831838 0 2419.77488286 0 12205.77300275 0 2299.88210216 0 405.64248699 0 2784
0.05250000 0.05249300 38694.02923081 0 1501.33503358 0 14952.20119586 0 -231.31235887 0 6823.10871566 0 3055
0.05350000 0.05348950 37399.21867311 0 1509.61939317 0 15028.86243384 0 -2980.24496896 0 -95.32881147 0 3009
0.05450000 0.05448610 35804.05792787 0 886.39500217 0 16154.05157201 0 -1596.49838267 0 5110.52813289 0 3336
0.05550000 0.05550870 35358.14131338 0 269.92961446 0 16504.31024879 0 1565.37302080 0 3614.62233361 0 3349
0.05650000 0.05647670 35661.97610264 0 800.58275043 0 17450.43582082 0 2062.69313109 0 2810.40997706 0 3324
0.05750000 0.05747970 34590.06764893 0 1052.04397574 0 15844.14683136 0 3420.96840282 0 2558.48451288 0 3639
0.05850000 0.05849280 33071.68054819 0 1659.52471132 0 16289.83863285 0 4716.74565648 0 4360.47323157 0 3846
0.05950000 0.05951020 31467.97690840 0 1622.58793302 0 14289.22761574 0 1034.80531377 0 6801.30185325 0 3787
0.06050000 0.06049470 30809.38718207 0 942.35096151 0 14567.77094086 0 2149.59460189 0 7373.64206652 0 3930
0.06150000 0.06148310 29180.27967162 0 141.04656131 0 13918.17373511 0 902.46688459 0 8460.11840357 0 4083
0.06250000 0.06249100 29622.82409090 0 -238.06349370 0 13518.68100813 0 1744.54899345 0 4889.81795579 0 4303
0.06350000 0.06350600 30572.54667116 0 -839.37423610 0 11832.47099198 0 258.97222813 0 5834.42603997 0 4470
0.06450000 0.06451750 31232.14805606 0 -494.67743330 0 11836.40521973 0 -743.67470797 0 -195.36700596 0 4479
0.06550000 0.06550280 32449.39812372 0 -618.60448355 0 11943.52862120 0 -2744.85450200 0 332.29611691 0 4636
0.06650000 0.06648880 32476.71290499 0 206.72793166 0 12290.86472879 0 -2561.93539266 0 -1808.35092700 0 4653
0.06750000 0.06749660 33142.27183478 0 357.40660658 0 13330.96214093 0 -3162.83809943 0 -2661.68492724 0 5220
0.06850000 0.06852730 32645.77229199 0 371.59343187 0 14816.07691550 0 -608.04389219 0 -1714.39032754 0 5029
0.06950000 0.06949320 32617.22103913 0 790.07499012 0 16519.03550125 0 938.97764223 0 190.27611525 0 5040
0.07050000 0.07048030 31902.31565264 0 221.52175209 0 14941.29776465 0 2460.93814584 0 -106.33385816 0 5475
0.07150000 0.07148790 31994.03936261 0 147.37504767 0 15019.98231976 0 3536.00522240 0 895.41787251 0 5509
0.07250000 0.07249820 31247.66015407 0 175.73633353 0 13276.22017187 0 3458.90559904 0 1056.51663066 0 5916
0.07350000 0.07351270 30355.48970555 0 524.60678994 0 12553.10911034 0 1792.74890378 0 695.26234934 0 5721
0.07450000 0.07449140 30247.46705202 0 362.84708153 0 10524.54259487 0 535.50684895 0 0.46190756 0 6028
0.07550000 0.07549160 29206.13316831 0 746.95360579 0 9910.52204869 0 -484.09436064 0 -1485.27214369 0 6183
0.07650000 0.07648840 29022.46093536 0 555.54555701 0 8697.82444458 0 -653.76636310 0 -1560.47209708 0 6330
0.07750000 0.07749960 28097.35538020 0 226.00002734 0 9149.44006900 0 -902.79848378 0 -2220.21961043 0 6583
0.07850000 0.07848650 28553.61339337 0 538.02812691 0 9268.10761876 0 -9.94301877 0 -764.77678159 0 6549
0.07950000 0.07947320 28288.67125564 0 704.77193986 0 12096.17665813 0 -244.44031486 0 -284.85944676 0 6828
0.08050000 0.08048110 27446.40929637 0 922.78548485 0 12184.64057938 0 262.21178367 0 1061.94586496 0 7147
0.08150000 0.08149960 27526.77994909 0 960.42705195 0 15055.39036957 0 219.63669496 0 5452.92959481 0 7386
0.08250000 0.08250610 26273.11017307 0 625.81423693 0 14333.17856010 0 1902.58130208 0 4359.46157300 0 7227
0.08350000 0.08350160 26732.62797495 0 661.52915649 0 16167.98997892 0 1547.29805442 0 7040.42421625 0 7798
0.08450000 0.08449610 25055.74769890 0 620.42659303 0 12755.66563651 0 1553.58157818 0 4651.26886598 0 7371
0.08550000 0.08548940 25278.20017687 0 667.59685976 0 13515.64603244 0 1695.42734976 0 5987.01787364 0 8256
0.08650000 0.08650700 23905.15469008 0 811.70312620 0 10914.64937849 0 603.87810703 0 4298.04265741 0 8037
0.08750000 0.08749060 23445.86170121 0 936.84866298 0 10593.61639361 0 896.79597629 0 2373.11494168 0 8155
0.08850000 0.08849210 22091.13847511 0 905.17588141 0 9737.20245507 0 0.14073969 0 1559.55036372 0 8718
0.08950000 0.08949900 21479.53466884 0 992.78326508 0 9427.57873069 0 -999.99189440 0 -393.86340909 0 8571
0.09050000 0.09049190 20828.25136548 0 641.66580259 0 9975.74030423 0 -695.64565553 0 -483.51434306 0 8932
0.09150000 0.09150830 20660.87807610 0 135.14859187 0 10408.87629885 0 184.36915329 0 -1226.53484516 0 9285
0.09250000 0.09250820 20297.46783797 0 -109.85364312 0 8942.25239472 0 453.48606870 0 -2224.62594552 0 9204
0.09350000 0.09350330 20765.75334742 0 -149.54449326 0 9514.95230882 0 1266.39419265 0 -2122.56083688 0 9349
0.09450000 0.09448040 20526.21508034 0 145.39894127 0 7482.24923388 0 1357.76944245 0 -3399.06037454 0 9564
0.09550000 0.09549270 20047.13854619 0 606.27461376 0 8039.68434428 0 1070.18975821 0 -1930.44687524 0 10155
0.09650000 0.09649430 19715.42694311 0 436.18670723 0 7218.21758886 0 454.92824419 0 -760.63684993 0 9913
0.09750000 0.09749140 19401.13834868 0 554.71936918 0 7474.41450032 0 748.92184373 0 -5.62710348 0 10476
0.09850000 0.09850240 18862.59877215 0 596.96285870 0 7312.03205986 0 267.65001049 0 324.05896805 0 10575
0.09950000 0.09950330 18248.74683573 0 678.94654480 0 7620.30690616 0 468.76436117 0 1271.36256028 0 10882
0.10050000 0.10051200 17833.29238472 0 705.03721921 0 7884.34979183 0 419.37856219 0 997.36045806 0 10875
0.10150000 0.10150300 17043.52426436 0 650.87751586 0 7153.20166503 0 1288.63944045 0 2093.30142303 0 11118
0.10250000 0.10250800 16270.61712010 0 364.09142157 0 5906.55729571 0 1452.55060941 0 600.10462058 0 11575
0.10350000 0.10349800 16392.91540005 0 -9.62040085 0 5863.32575300 0 1055.94560560 0 1377.05839910 0 11364
0.10450000 0.10450100 16060.30454492 0 -66.21833624 0 5183.87337891 0 683.83622787 0 388.59379203 0 12093
0.10550000 0.10551000 16138.76428702 0 76.96653406 0 4368.19555862 0 0.97404398 0 304.87342539 0 12067
0.10650000 0.10649700 16113.92244891 0 180.89354408 0 4997.35726133 0 -1004.99960430 0 958.04178587 0 12054
0.10750000 0.10749900 16098.74757042 0 217.19185342 0 5334.62174587 0 -464.76044138 0 553.32665256 0 12807
0.10850000 0.10850100 16066.82412234 0 134.30666713 0 6022.53832995 0 -432.90893347 0 911.84271136 0 12736
0.10950000 0.10950300 15811.54894424 0 138.69052091 0 6110.13672110 0 155.29633424 0 -167.90834436 0 12933
0.11050000 0.11050200 15921.25769538 0 195.31867117 0 6339.51343992 0 280.09903118 0 -353.10480954 0 13428
0.11150000 0.11150900 15421.72317689 0 206.64812304 0 5952.40791004 0 230.70648780 0 -700.14303989 0 13453
0.11250000 0.11250000 15495.91147172 0 45.96717988 0 5353.41611389 0 142.94623128 0 -1161.04681400 0 13668
0.11350000 0.11349100 15283.80039242 0 34.06906349 0 5419.92704426 0 290.07735683 0 -1068.58908955 0 13791
0.11450000 0.11448600 15287.50980716 0 81.66366478 0 5301.37190100 0 -164.54851386 0 -1716.63845768 0 14205
0.11550000 0.11549300 15062.35957302 0 227.93117113 0 5063.09258681 0 -194.08894398 0 -1481.41660049 0 14776
0.11650000 0.11649800 15186.00673106 0 421.07365232 0 5775.94093422 0 -366.91507303 0 -1204.80666730 0 14553
0.11750000 0.11747300 14654.77357752 0 444.40249884 0 6361.24161778 0 -122.83221086 0 -731.34708632 0 14568
0.11850000 0.11849100 14474.81075931 0 465.45960986 0 6756.69895115 0 -395.41799109 0 -469.17689306 0 16015
0.11950000 0.11950300 14170.41393752 0 307.59029067 0 6411.61097370 0 -91.51137407 0 -1092.34058454 0 15270
0.12050000 0.12050700 14222.45815040 0 36.35619869 0 6900.87153742 0 383.07350846 0 -900.51213543 0 15999
0.12150000 0.12150000 14117.13325305 0 -39.23155715 0 6398.36948714 0 501.51287301 0 -2028.13937074 0 15670
0.12250000 0.12250700 13985.28041998 0 75.47366324 0 5833.42562205 0 442.79958205 0 -1679.56679157 0 16887
0.12350000 0.12352200 13954.25622396 0 96.96814797 0 5540.04463797 0 404.03282581 0 -2065.51453442 0 16407
0.12450000 0.12449800 14058.00743021 0 5.43846288 0 5360.57640840 0 463.18450215 0 -1330.07247905 0 16306
0.12550000 0.12549900 13956.50435411 0 -50.45995557 0 5267.71739272 0 550.54234337 0 -946.63477351 0 17523
0.12650000 0.12650100 14081.38798373 0 -145.66984095 0 5908.37828113 0 651.78126418 0 427.43361250 0 17154
0.12750000 0.12750600 14294.06109556 0 -35.40231707 0 5704.40543296 0 501.91079205 0 689.78253211 0 18007
0.12850000 0.12850300 14332.39171455 0 -10.44647628 0 6364.78242276 0 115.83827798 0 1347.30439662 0 17496
0.12950000 0.12949900 14244.48982583 0 146.99848587 0 5824.89396815 0 57.30809722 0 1438.85949682 0 18405
0.13050000 0.13049000 14199.97684894 0 87.12122552 0 6249.20605194 0 207.41248729 0 1109.73886374 0 18100
0.13150000 0.13148800 13938.29449992 0 332.08704081 0 5825.55716654 0 -36.39554097 0 921.28148578 0 19059
0.13250000 0.13249300 13619.73445821 0 501.28806000 0 5222.06911010 0 -67.96198598 0 -378.06692262 0 18957
0.13350000 0.13349100 12935.40364170 0 440.27493190 0 5422.32130287 0 -60.64791936 0 -707.83838938 0 19468
0.13450000 0.13450700 12644.72041380 0 480.78960933 0 4612.37621445 0 -173.83441542 0 -1084.75089717 0 19953
0.13550000 0.13551000 12320.20282720 0 224.87596226 0 5122.44322267 0 248.47008815 0 -1111.42720948 0 19956
0.13650000 0.13649900 12176.65971736 0 163.31878667 0 4412.41627859 0 309.51244194 0 -1348.75444056 0 19723
0.13750000 0.13749600 12148.78290355 0 64.21974854 0 4619.92993174 0 537.19744282 0 -1251.19683287 0 20946
0.13850000 0.13851100 11945.55193833 0 200.67259311 0 4071.62222973 0 665.58590734 0 -929.21626113 0 20955
0.13950000 0.13949800 11790.09373872 0 129.85199724 0 3880.48620470 0 946.51899480 0 -742.34606306 0 20506
0.14050000 0.14048300 11605.07262769 0 -21.14602456 0 3277.94236292 0 580.62120066 0 -338.79658523 0 21447
0.14150000 0.14148400 11476.36717682 0 43.10733352 0 2672.62208040 0 833.44704097 0 -840.36341336 0 21771
0.14250000 0.14249400 11558.87355319 0 -30.78049871 0 2136.01589581 0 356.76476542 0 -587.40493338 0 22470
0.14350000 0.14350900 11264.48091054 0 124.18670928 0 2191.30865675 0 235.08921752 0 -687.04093739 0 22519
0.14450000 0.14449900 11394.53523950 0 236.63255886 0 2037.33422304 0 -279.09186887 0 -372.87261792 0 22218
0.14550000 0.14550500 11116.66635343 0 196.88561788 0 2577.00910529 0 -54.55852164 0 123.27509250 0 23559
0.14650000 0.14650700 11128.16553913 0 138.09139423 0 2868.10823727 0 -206.45365978 0 224.44881754 0 23044
0.14750000 0.14750500 11128.83997817 0 116.72404126 0 3517.84033082 0 -288.20916068 0 1081.89127562 0 23649
0.14850000 0.14849900 11110.67508659 0 103.41533560 0 3871.07778004 0 -252.38970306 0 1289.21271364 0 23640
0.14950000 0.14949500 11150.05108610 0 235.47814403 0 4596.75170993 0 -219.53440504 0 1791.79344847 0 24457
0.15050000 0.15050000 11023.40267431 0 261.48451356 0 4332.87743402 0 -232.82984672 0 1558.72979622 0 24591
0.15150000 0.15149900 10881.91660356 0 266.52594542 0 4893.79714615 0 -43.99882953 0 2289.02363356 0 25020
0.15250000 0.15250500 10646.06526992 0 186.00354391 0 4589.36660240 0 -159.02598215 0 1685.32200475 0 25297
0.15350000 0.15350100 10557.63507062 0 15.55998318 0 4576.39489146 0 202.21818259 0 1637.95390257 0 25452
0.15450000 0.15450400 10569.87613927 0 120.73695357 0 4387.06861120 0 205.42851243 0 1228.73801271 0 26061
0.15550000 0.15549900 10396.44413914 0 160.20287828 0 4078.14180716 0 245.05630252 0 883.29033444 0 26128
0.15650000 0.15649500 10180.79225487 0 223.89015719 0 3787.11011908 0 337.02281054 0 619.29353544 0 26331
0.15750000 0.15749700 10007.46142060 0 291.88597753 0 3652.79558350 0 221.02154313 0 253.31818081 0 27345
0.15850000 0.15849900 9600.93204626 0 188.35621210 0 3248.94148403 0 361.43862799 0 169.81363466 0 26980
0.15950000 0.15949700 9588.64601501 0 107.92283655 0 3095.21434463 0 406.44731759 0 -365.90791073 0 27777
0.16050000 0.16050000 9373.25266570 0 44.12607370 0 2724.02557620 0 75.10204732 0 -344.31237254 0 28224
0.16150000 0.16150500 9284.51896883 0 90.67270912 0 2402.07085796 0 38.75259302 0 -815.58901915 0 28075
0.16250000 0.16249700 9295.44488134 0 103.20760838 0 2512.70134245 0 -26.88493879 0 -745.82616852 0 28590
0.16350000 0.16349900 9129.31930419 0 6.75421477 0 2405.25196212 0 128.39296078 0 -1001.02940646 0 29163
0.16450000 0.16449100 9167.03168739 0 145.65972437 0 2544.80464094 0 -4.00764045 0 -929.46467951 0 28996
0.16550000 0.16550500 9008.44858688 0 102.94997266 0 2382.14118421 0 35.41535623 0 -1229.38997045 0 30777
0.16650000 0.16650700 8953.30195439 0 172.65976742 0 2637.51752817 0 68.01459222 0 -955.72845995 0 29211
0.16750000 0.16749900 8823.53988235 0 171.71780089 0 2688.39271338 0 41.38627749 0 -378.70426752 0 30922
0.16850000 0.16850800 8858.39714027 0 84.49439785 0 2652.83853512 0 283.61847892 0 -294.97603242 0 30867
0.16950000 0.16949900 8943.00551832 0 20.69336356 0 2837.80344290 0 326.57687382 0 434.02850229 0 30852
0.17050000 0.17049200 8816.85169517 0 31.00216434 0 2720.85571269 0 327.79311223 0 600.91057523 0 31257
0.17150000 0.17149500 8813.72679427 0 169.49777237 0 2771.76461985 0 313.46465474 0 480.03985792 0 32608
0.17250000 0.17250900 8632.97713051 0 175.63516767 0 2615.54205599 0 53.10173331 0 864.83431001 0 32361
0.17350000 0.17350400 8561.49783251 0 169.30780538 0 2599.73770106 0 282.98113402 0 763.28851943 0 32508
0.17450000 0.17449800 8318.81218323 0 119.96359680 0 2444.63920228 0 229.69033297 0 1016.84612610 0 32791
0.17550000 0.17549800 8280.13310407 0 -14.38072651 0 2144.85104728 0 346.79655635 0 571.40386706 0 33633
0.17650000 0.17650100 8237.19381827 0 -16.54365253 0 2121.90887914 0 238.65812413 0 413.25240754 0 33984
0.17750000 0.17750300 8255.38119116 0 47.44274010 0 1798.80761453 0 74.59048531 0 512.42192455 0 34069
