### header ###
fiducial parameters:
Omega_m = 0.31
Omega_nu = 0
Omega_de = 0.69
Omega_k = 0
H_0 = 100
w_de = -1
zeff = 0
beta = 0
fgrowth = 0
b_1 = 2
gamma = 0.55
Lx = 3500 Ly = 3500 Lz = 3500
nx = 700 ny = 700 nz = 700
xoffset = 857.220397 yoffset = 15.9954215 zoffset = 262.898189
bins = 400 dk = 0.001
kx_ny = 0.628318531 ky_ny = 0.628318531 kz_ny = 0.628318531
############################
A(data) = 3.05560927 (not used)
A(ran) = 3.05363378 (used)
Ngal = 186528
weighted Ngal = 0
Nran = 9360983
weighted Nran = 0
SN(data) = 3452.1732
SN(ran) = 68.5731386
SN(data+ran) = 3520.74633
############################
13 columns: k_central k_mean P_0(k) sigma^{lin}_{P_0(k)} P^img_1(k) sigma^{lin}_{P_1(k)} P_2(k) sigma^{lin}_{P_2(k)} P^img_3(k) sigma^{lin}_{P_3(k)} P_4(k) sigma^{lin}_{P_4(k)} N_modes
### header ###
0.00050000 0 0 0 0 0 0 0 0 0 0 0 0
0.00150000 0.00179520 5084.77580207 0 -5330.19292948 0 8204.35987749 0 8935.72157665 0 -6117.29701561 0 3
0.00250000 0.00253879 15798.84700892 0 -9972.44679357 0 7359.72614091 0 2857.02495565 0 10895.16933077 0 6
0.00350000 0.00331552 24949.63595600 0 -11699.15687431 0 9876.65396804 0 -3780.45565385 0 15744.66707239 0 7
0.00450000 0.00420575 38271.26835682 0 -8553.16851032 0 14022.59938040 0 -2497.48150136 0 -4347.16430110 0 24
0.00550000 0.00557378 61294.03196451 0 -14307.10025041 0 6212.42664275 0 6043.92928829 0 968.66307674 0 45
0.00650000 0.00659388 69142.47911791 0 -7700.10428570 0 28628.13890772 0 -14659.15743130 0 -50027.52773684 0 40
0.00750000 0.00754703 89625.97972547 0 -7522.69309521 0 3349.23056985 0 -12013.22065573 0 -22187.80807140 0 57
0.00850000 0.00846663 93307.51765288 0 -4168.05577235 0 22160.94291615 0 -22952.95916665 0 -67440.30737771 0 75
0.00950000 0.00948925 92183.00295376 0 5464.93460979 0 4522.56341511 0 -19258.15727138 0 -50681.50879637 0 112
0.01050000 0.01054430 96694.88775067 0 -3589.11729710 0 831.33379863 0 -21380.39212939 0 -63903.21181219 0 105
0.01150000 0.01145670 88029.69491516 0 -1670.18084821 0 7491.48904878 0 -15481.41103227 0 -72644.05422712 0 144
0.01250000 0.01249090 91765.18796608 0 -636.12416178 0 -8234.84452227 0 -17023.51590606 0 -73393.80563088 0 169
0.01350000 0.01339930 79928.22071381 0 3014.24793742 0 -10249.16913326 0 716.91184265 0 -69395.16894634 0 180
0.01450000 0.01448870 78370.94096154 0 5673.56108736 0 -7548.01828131 0 -14830.12772892 0 -46028.77864580 0 267
0.01550000 0.01550050 77628.38357425 0 5104.28957174 0 1994.30501204 0 -18323.49716310 0 -45330.62182890 0 238
0.01650000 0.01653350 67517.64305474 0 4021.23039250 0 4800.85944590 0 -14137.25401786 0 -22799.52428418 0 315
0.01750000 0.01747870 73314.55904322 0 3145.19027778 0 13029.93751435 0 -8686.75240361 0 -16448.44421466 0 297
0.01850000 0.01844180 68197.81483047 0 -666.15243614 0 11133.76338319 0 -1158.30409523 0 -5119.55437543 0 388
0.01950000 0.01947590 75178.82096696 0 -1512.62064692 0 34926.38791880 0 -3875.63024359 0 -6381.29493868 0 399
0.02050000 0.02045430 75543.80489619 0 -2938.40726694 0 27550.61012864 0 588.53124658 0 289.81432560 0 462
0.02150000 0.02154770 81004.40061480 0 636.95709400 0 36890.35441452 0 1190.20506200 0 -14273.15348520 0 571
0.02250000 0.02255340 76724.07322295 0 4322.61471990 0 36779.63400482 0 -5069.51099838 0 -12790.17443426 0 510
0.02350000 0.02348930 78355.09164401 0 6293.85391665 0 52124.02150468 0 -2938.42974824 0 3325.96242284 0 555
0.02450000 0.02439640 67611.83970787 0 8441.38023880 0 44937.76108585 0 1830.67485935 0 -5314.13003958 0 592
0.02550000 0.02547300 67021.81795100 0 2114.40012445 0 48345.81398098 0 11324.16876592 0 14580.02325015 0 837
0.02650000 0.02652900 65013.33847838 0 -2324.26307360 0 39881.94120006 0 17857.68459680 0 4258.43060423 0 723
0.02750000 0.02749970 69322.21712310 0 -3126.38466911 0 32778.18715760 0 21219.65082394 0 5910.13182264 0 826
0.02850000 0.02848090 69110.33085682 0 -2904.23568872 0 24481.46285305 0 7161.01391729 0 -1727.92407102 0 831
0.02950000 0.02946900 67437.72202804 0 2024.34003079 0 12220.27344220 0 7674.32947357 0 5213.59365945 0 996
0.03050000 0.03053250 69400.11483266 0 597.55074473 0 12680.57808963 0 5031.91102168 0 8177.94434827 0 1041
0.03150000 0.03150510 64016.29275855 0 518.95836295 0 -1472.39035795 0 6334.06172431 0 720.54144877 0 1036
0.03250000 0.03246190 63911.08026770 0 -1857.87723412 0 5481.96419565 0 12742.62648167 0 14936.68909785 0 1059
0.03350000 0.03345080 65887.07425970 0 -22.43364110 0 -4134.50242992 0 2432.25200517 0 6976.95950222 0 1302
0.03450000 0.03451200 64936.00280136 0 2266.53109144 0 6692.93073955 0 897.91891730 0 14927.24695123 0 1339
0.03550000 0.03553350 62765.32073869 0 3861.62439278 0 9592.16433869 0 -8013.78588499 0 17397.04272985 0 1365
0.03650000 0.03647120 59766.20271716 0 3894.78431243 0 16120.32961982 0 -9897.93251987 0 20948.30151529 0 1308
0.03750000 0.03744890 59419.31623560 0 4569.92027664 0 29729.27305333 0 -8152.92265974 0 22624.73216531 0 1579
0.03850000 0.03847530 56786.19380186 0 2934.49552048 0 29631.14217244 0 -4423.90422364 0 18719.61769486 0 1662
0.03950000 0.03950240 53292.03752214 0 1833.65363179 0 29240.07993351 0 2694.41770217 0 11667.79545877 0 1683
0.04050000 0.04050350 52119.18802486 0 1541.18314042 0 27303.76543859 0 6846.91641391 0 5922.31668803 0 1822
0.04150000 0.04152450 51079.54023876 0 -342.27781476 0 17918.27170424 0 8367.01209357 0 4785.04385033 0 1887
0.04250000 0.04250150 48995.74840624 0 -708.84217949 0 17165.03569876 0 7918.57757330 0 -1774.26927398 0 1920
0.04350000 0.04349210 49477.41029007 0 576.78813876 0 7209.34871543 0 1698.29371569 0 -2582.49454284 0 2005
0.04450000 0.04448520 49407.15622300 0 684.27798544 0 9602.05611133 0 2224.92944309 0 -5720.92918954 0 2151
0.04550000 0.04548030 47070.11252952 0 1024.62016015 0 5013.95970246 0 -3302.80668233 0 -713.58123783 0 2274
0.04650000 0.04648670 47479.83424866 0 1563.25977846 0 10476.33144389 0 -215.49563923 0 -1517.45412673 0 2311
0.04750000 0.04749250 45587.47069810 0 1522.17520004 0 12227.46745866 0 320.84639007 0 1848.30019970 0 2568
0.04850000 0.04851840 43901.37308845 0 1821.92963308 0 10111.45992116 0 4072.18426227 0 5870.21627190 0 2493
0.04950000 0.04949480 42948.72793900 0 1444.98565147 0 14466.71749079 0 3547.29083573 0 3870.83048572 0 2644
0.05050000 0.05050630 42193.91824241 0 623.91344289 0 9492.81946753 0 5765.48712904 0 8616.85803736 0 2829
0.05150000 0.05149060 40063.02808334 0 762.41961713 0 12872.11877809 0 4095.98071987 0 3001.39987363 0 2784
0.05250000 0.05249300 39314.06352513 0 1192.14969458 0 7006.49993234 0 455.81850373 0 6191.02444376 0 3055
0.05350000 0.05348950 38335.90209852 0 884.73588213 0 8479.63217324 0 413.97518138 0 3953.77524747 0 3009
0.05450000 0.05448610 37552.20392956 0 900.64702324 0 8374.68945801 0 -951.60763739 0 5456.48164044 0 3336
0.05550000 0.05550870 36805.59990801 0 401.94768510 0 6896.45396168 0 -2066.43626778 0 3454.24072898 0 3349
0.05650000 0.05647670 37327.16610192 0 271.59772703 0 9696.62370593 0 -671.88741614 0 -485.90410541 0 3324
0.05750000 0.05747970 36617.43141477 0 674.31202451 0 8500.82079987 0 -2360.91883563 0 -2753.16134289 0 3639
0.05850000 0.05849280 35912.64261394 0 955.89482158 0 10567.63924977 0 -1237.46075767 0 -4409.53867201 0 3846
0.05950000 0.05951020 35112.98272093 0 1146.45644936 0 12798.60492231 0 -2249.41158038 0 -2933.95596925 0 3787
0.06050000 0.06049470 35092.86195613 0 1265.19144303 0 12042.78356715 0 -1007.19939964 0 -5940.21180400 0 3930
0.06150000 0.06148310 32695.56837473 0 1297.28350086 0 13322.19443336 0 20.05118518 0 -4302.86489657 0 4083
0.06250000 0.06249100 32186.47930312 0 1045.06915196 0 12830.86558990 0 -205.45211780 0 -4652.47161561 0 4303
0.06350000 0.06350600 32402.52461017 0 680.42581444 0 13844.65987933 0 623.42335052 0 -4084.97612280 0 4470
0.06450000 0.06451750 31649.85063722 0 446.76640769 0 13278.01867598 0 733.64692345 0 -1074.30158825 0 4479
0.06550000 0.06550280 30952.03103984 0 799.84199154 0 12603.57963212 0 107.03280182 0 -980.78499449 0 4636
0.06650000 0.06648880 31422.00264691 0 603.36665742 0 14049.68934867 0 2042.28010936 0 845.36550294 0 4653
0.06750000 0.06749660 30499.81966093 0 467.48629919 0 13476.52856789 0 1168.43192153 0 938.48979799 0 5220
0.06850000 0.06852730 30224.42371803 0 607.70779673 0 13601.18738450 0 1466.16303745 0 1405.02513812 0 5029
0.06950000 0.06949320 29839.31902398 0 153.47085256 0 12880.09964011 0 1119.73405037 0 -671.18712360 0 5040
0.07050000 0.07048030 29560.55088585 0 418.57710379 0 12670.79872350 0 -262.48380741 0 -2.81861565 0 5475
0.07150000 0.07148790 29616.41691999 0 128.41319395 0 12169.24088788 0 454.81358955 0 -793.70459625 0 5509
0.07250000 0.07249820 29224.79264852 0 -129.64179708 0 10802.99599478 0 1748.70803422 0 8.52512309 0 5916
0.07350000 0.07351270 29058.09379818 0 7.27907447 0 9711.31523644 0 2350.39758655 0 -783.98705369 0 5721
0.07450000 0.07449140 29624.28537550 0 189.98385833 0 9761.36985414 0 1759.94868495 0 -397.52898530 0 6028
0.07550000 0.07549160 28569.79993042 0 559.89344072 0 9760.72913705 0 1770.07651126 0 1489.36374055 0 6183
0.07650000 0.07648840 28348.92114356 0 711.54668005 0 9258.63175020 0 127.17559831 0 1076.96225028 0 6330
0.07750000 0.07749960 27727.42556464 0 738.42307595 0 8916.80356147 0 174.83033708 0 1949.78079450 0 6583
0.07850000 0.07848650 27391.21770128 0 561.95497606 0 10064.31663199 0 -1365.06462477 0 592.18670620 0 6549
0.07950000 0.07947320 26705.53800669 0 425.28552415 0 9858.90498053 0 -913.98855159 0 935.65490587 0 6828
0.08050000 0.08048110 26763.98939049 0 619.46551739 0 9847.37207288 0 -1422.67295977 0 -2480.14841794 0 7147
0.08150000 0.08149960 26099.55452578 0 436.49919732 0 9413.52791727 0 -1207.87536495 0 -2475.86573001 0 7386
0.08250000 0.08250610 25520.32379361 0 307.43404562 0 9568.59269411 0 588.89993993 0 -4324.81788745 0 7227
0.08350000 0.08350160 25402.40936744 0 285.17980531 0 8294.33004594 0 1041.71494178 0 -4520.74242969 0 7798
0.08450000 0.08449610 24748.99034045 0 288.36428166 0 8042.62939477 0 1131.66375299 0 -4352.03150287 0 7371
0.08550000 0.08548940 24807.77894378 0 559.30780281 0 7938.81074462 0 934.96922618 0 -4406.46997436 0 8256
0.08650000 0.08650700 23846.02886723 0 785.11224283 0 7616.64245402 0 319.03102498 0 -2452.06927241 0 8037
0.08750000 0.08749060 23516.34058129 0 1025.91058685 0 8070.98955656 0 745.33382802 0 -1545.56699421 0 8155
0.08850000 0.08849210 22299.65254617 0 979.61933901 0 7884.54088289 0 514.79145372 0 1384.25241557 0 8718
0.08950000 0.08949900 21772.35362038 0 955.97800239 0 7757.69013939 0 1092.05169982 0 865.29630075 0 8571
0.09050000 0.09049190 20596.69396042 0 714.57153916 0 8286.04568635 0 728.54591615 0 2457.12756524 0 8932
0.09150000 0.09150830 20223.84157568 0 696.94170256 0 7509.53029320 0 854.60306971 0 1673.83405970 0 9285
0.09250000 0.09250820 19471.16760273 0 233.45819910 0 7805.92377168 0 491.98866965 0 2593.00455128 0 9204
0.09350000 0.09350330 19354.48964814 0 342.01590760 0 7081.78981094 0 750.01780718 0 1844.95048578 0 9349
0.09450000 0.09448040 19018.95622382 0 138.66241929 0 6759.36298537 0 317.02456883 0 1094.25374330 0 9564
0.09550000 0.09549270 19132.37438970 0 146.49378065 0 6683.17385471 0 -109.87207779 0 664.12574681 0 10155
0.09650000 0.09649430 18608.78487865 0 -2.54332088 0 6402.47232466 0 -387.29212468 0 -186.91853288 0 9913
0.09750000 0.09749140 19213.53188798 0 150.17959003 0 6669.68507384 0 -278.50847910 0 -257.60873719 0 10476
0.09850000 0.09850240 18985.12186512 0 -84.34040094 0 6762.70145864 0 10.85865970 0 -552.02835740 0 10575
0.09950000 0.09950330 19055.15111918 0 -64.55348346 0 6380.40692727 0 -188.44164105 0 -1275.01577177 0 10882
0.10050000 0.10051200 19417.77451176 0 -202.06081348 0 6970.33875894 0 88.86869709 0 -1738.47904206 0 10875
0.10150000 0.10150300 19374.72281946 0 1.92679366 0 7252.04070691 0 -96.54538710 0 -1969.02478855 0 11118
0.10250000 0.10250800 19550.07697086 0 103.09711278 0 6675.31663985 0 482.01708839 0 -1262.96579418 0 11575
0.10350000 0.10349800 19083.58996553 0 467.17718129 0 6457.93369537 0 544.82647248 0 -1815.71355323 0 11364
0.10450000 0.10450100 18597.99385395 0 775.11368400 0 5745.14155121 0 878.47708780 0 -1452.26959314 0 12093
0.10550000 0.10551000 17756.29392721 0 728.21881322 0 5835.90980587 0 1046.01561475 0 -1327.53209198 0 12067
0.10650000 0.10649700 16891.21344695 0 913.93010020 0 4254.97972446 0 1073.33938855 0 -327.12541757 0 12054
0.10750000 0.10749900 16159.44708437 0 555.00600578 0 4398.55655624 0 722.86264314 0 124.50144750 0 12807
0.10850000 0.10850100 15685.20403003 0 449.16965882 0 4153.74642397 0 121.05731211 0 1281.13068576 0 12736
0.10950000 0.10950300 15468.25947092 0 259.63767465 0 4593.66053098 0 338.24017302 0 1807.87881967 0 12933
0.11050000 0.11050200 15394.40839561 0 80.83477920 0 5252.77856789 0 -476.23939391 0 2147.60500671 0 13428
0.11150000 0.11150900 15612.58942630 0 80.53836324 0 5511.60579163 0 -358.39016352 0 2451.04637319 0 13453
0.11250000 0.11250000 15510.97394369 0 39.19940889 0 5959.46703870 0 -208.84229806 0 2610.78726073 0 13668
0.11350000 0.11349100 15522.32700093 0 157.41744503 0 5696.14355468 0 31.52878883 0 2322.40836623 0 13791
0.11450000 0.11448600 15410.37011965 0 130.36794311 0 5418.72429464 0 466.53871233 0 1963.60679490 0 14205
0.11550000 0.11549300 14996.93898577 0 168.05784501 0 4632.42953535 0 945.72090860 0 1095.00686689 0 14776
0.11650000 0.11649800 14865.64818523 0 335.56939440 0 3934.84599164 0 558.65809320 0 429.02079238 0 14553
0.11750000 0.11747300 14417.70825360 0 251.68491426 0 3214.25283588 0 466.12505638 0 390.64296266 0 14568
0.11850000 0.11849100 14134.89348121 0 259.23975561 0 2899.32352435 0 302.05202205 0 84.61253709 0 16015
0.11950000 0.11950300 13992.58684295 0 201.12221914 0 2550.38000370 0 212.15941409 0 -41.77183181 0 15270
0.12050000 0.12050700 13717.07849354 0 141.87274914 0 3096.46205687 0 -44.71294807 0 21.31036288 0 15999
0.12150000 0.12150000 13842.41174919 0 264.29017999 0 3208.03675602 0 -323.25975779 0 -38.07039793 0 15670
0.12250000 0.12250700 13554.20146444 0 183.56769489 0 3776.24040982 0 -194.32050138 0 523.87839577 0 16887
0.12350000 0.12352200 13662.89855701 0 151.50598681 0 4131.19767861 0 -129.13147153 0 796.74182007 0 16407
0.12450000 0.12449800 13663.12337003 0 63.24687022 0 4328.02147291 0 -430.81255211 0 609.09714116 0 16306
0.12550000 0.12549900 13688.52724068 0 221.23961175 0 4302.93234047 0 -417.51935856 0 634.07274302 0 17523
0.12650000 0.12650100 13415.49183442 0 75.72905082 0 4729.94218044 0 276.67737709 0 754.96931383 0 17154
0.12750000 0.12750600 13350.74568621 0 142.50447371 0 4407.21185731 0 -91.34860945 0 632.37652882 0 18007
0.12850000 0.12850300 13369.74238595 0 -10.02051182 0 3756.35569868 0 661.52128804 0 385.30927389 0 17496
0.12950000 0.12949900 13219.45488567 0 79.51265386 0 3872.83132155 0 641.37466973 0 166.95401311 0 18405
0.13050000 0.13049000 13147.40231449 0 -8.40650050 0 3256.75373629 0 586.86763027 0 165.17349404 0 18100
0.13150000 0.13148800 13110.53298009 0 55.61233265 0 3488.94061779 0 419.70566512 0 304.46426570 0 19059
0.13250000 0.13249300 13065.00834463 0 68.76220790 0 3334.50531740 0 51.39697622 0 355.36755253 0 18957
0.13350000 0.13349100 13013.07653825 0 99.62577502 0 3581.50737656 0 -333.49886654 0 -40.15812399 0 19468
0.13450000 0.13450700 12958.67178872 0 232.62751501 0 3854.77883648 0 -558.90875971 0 154.98609228 0 19953
0.13550000 0.13551000 12853.57170438 0 283.74774640 0 4018.19541681 0 -285.20453474 0 -96.41701886 0 19956
0.13650000 0.13649900 12676.41904886 0 167.43511296 0 3982.25905642 0 21.70884394 0 189.56008580 0 19723
0.13750000 0.13749600 12536.92257329 0 129.45295414 0 3593.78216716 0 706.62327503 0 -81.97975188 0 20946
0.13850000 0.13851100 12412.60097620 0 96.73141987 0 3202.63000302 0 686.28556566 0 -207.26073850 0 20955
0.13950000 0.13949800 12156.65135906 0 123.16830632 0 2426.90145542 0 729.57555976 0 -708.09467621 0 20506
0.14050000 0.14048300 12003.89091563 0 240.79384776 0 2623.08453263 0 486.39869404 0 -67.95524159 0 21447
0.14150000 0.14148400 11682.40830472 0 241.33789526 0 2054.95956339 0 194.64872838 0 -329.19819357 0 21771
0.14250000 0.14249400 11561.23408984 0 195.24673100 0 2393.62912926 0 -93.77063246 0 403.13694595 0 22470
0.14350000 0.14350900 11476.02995730 0 183.87906092 0 2575.37921093 0 -94.76677893 0 185.60674894 0 22519
0.14450000 0.14449900 11317.53678199 0 171.12879079 0 3112.94085084 0 -63.89478132 0 784.81661371 0 22218
0.14550000 0.14550500 11236.59285608 0 188.89913553 0 3029.83871998 0 -54.06011119 0 1014.77110198 0 23559
0.14650000 0.14650700 11178.80467067 0 126.30107568 0 3374.85925352 0 172.73957604 0 1125.15541622 0 23044
0.14750000 0.14750500 11061.96934697 0 223.76763410 0 3352.69269028 0 66.82971523 0 1538.33925579 0 23649
0.14850000 0.14849900 10927.22766666 0 151.21260583 0 3605.24763090 0 221.78253518 0 1555.39132295 0 23640
0.14950000 0.14949500 10764.66537579 0 188.65408935 0 3167.04210281 0 230.07813542 0 1731.82457682 0 24457
0.15050000 0.15050000 10716.75772237 0 64.01685479 0 3518.82950808 0 217.52794888 0 1787.70185161 0 24591
0.15150000 0.15149900 10684.66566453 0 136.41428914 0 3178.46260395 0 -50.17152047 0 1851.26773149 0 25020
0.15250000 0.15250500 10584.44402262 0 147.58862003 0 3745.46350812 0 2.11460246 0 1722.80957494 0 25297
0.15350000 0.15350100 10427.82803598 0 252.00976906 0 3480.47640779 0 -38.19921579 0 1719.24628865 0 25452
0.15450000 0.15450400 10225.53004478 0 234.33496985 0 3589.03861255 0 84.49630876 0 2040.40292069 0 26061
0.15550000 0.15549900 10034.14672543 0 203.38046587 0 3441.04420502 0 168.54231706 0 1762.87125414 0 26128
0.15650000 0.15649500 9874.72057611 0 128.80324453 0 3360.39253603 0 231.53942002 0 1969.71046824 0 26331
0.15750000 0.15749700 9814.21215323 0 111.65439537 0 3451.89143298 0 339.32264768 0 1686.51351373 0 27345
0.15850000 0.15849900 9715.30566745 0 190.84489218 0 3108.03992712 0 157.09596242 0 2054.81343493 0 26980
0.15950000 0.15949700 9391.38383533 0 184.37702175 0 2833.53199562 0 263.96757331 0 1765.02945908 0 27777
0.16050000 0.16050000 9302.79626692 0 254.83679272 0 2862.25185824 0 107.30257744 0 2245.97194126 0 28224
0.16150000 0.16150500 8990.63215547 0 114.09822524 0 2669.86812097 0 362.57842998 0 1731.67844836 0 28075
0.16250000 0.16249700 9036.37036329 0 38.74674788 0 2439.24368993 0 356.26455646 0 1947.15048223 0 28590
0.16350000 0.16349900 8964.13794170 0 -34.12414268 0 2434.62378248 0 150.37180515 0 1688.50310891 0 29163
0.16450000 0.16449100 9081.91748006 0 37.39921867 0 2332.24393562 0 -160.88968204 0 1546.67981863 0 28996
0.16550000 0.16550500 9114.52660783 0 36.49996661 0 2599.67025716 0 -357.29757227 0 1320.24815031 0 30777
0.16650000 0.16650700 9027.15302970 0 146.62866846 0 2584.06823394 0 -576.22498216 0 878.72663024 0 29211
0.16750000 0.16749900 8942.25239472 0 144.48395230 0 2798.59605315 0 -405.58628374 0 566.05219325 0 30922
0.16850000 0.16850800 8785.82749915 0 138.03406691 0 2808.07192171 0 -271.26950003 0 298.92712115 0 30867
0.16950000 0.16949900 8771.63055728 0 40.45926102 0 2812.16351858 0 106.89915048 0 79.12024274 0 30852
0.17050000 0.17049200 8697.89188848 0 55.11853086 0 2655.23279372 0 159.42165306 0 -451.88652410 0 31257
0.17150000 0.17149500 8610.99041768 0 83.86312291 0 2119.09871646 0 388.30490731 0 -722.63445793 0 32608
0.17250000 0.17250900 8549.30172647 0 130.52081596 0 2166.56798449 0 341.47298417 0 -332.34332764 0 32361
0.17350000 0.17350400 8266.47571343 0 136.60650427 0 1738.00693472 0 286.02510224 0 -507.85709629 0 32508
0.17450000 0.17449800 8260.34955878 0 160.57269569 0 1854.66240801 0 237.12827156 0 -25.03742544 0 32791
0.17550000 0.17549800 8205.39401736 0 12.51657700 0 1792.63649728 0 123.60444357 0 -372.36004424 0 33633
0.17650000 0.17650100 8184.87982977 0 -14.09431473 0 1828.46045116 0 81.85700397 0 21.67557162 0 33984
0.17750000 0.17750300 8359.70567059 0 -7.02749747 0 1991.92199409 0 -78.41725244 0 -65.15362180 0 34069
0.17850000 0.17849800 8260.60809375 0 26.58762358 0 2013.93118822 0 -217.36945571 0 91.73877244 0 34536
