### header ###
fiducial parameters:
Omega_m = 0.31
Omega_nu = 0
Omega_de = 0.69
Omega_k = 0
H_0 = 100
w_de = -1
zeff = 0
beta = 0
fgrowth = 0
b_1 = 2
gamma = 0.55
Lx = 3500 Ly = 3500 Lz = 3500
nx = 700 ny = 700 nz = 700
xoffset = 857.220397 yoffset = 15.9954215 zoffset = 262.898189
bins = 400 dk = 0.001
kx_ny = 0.628318531 ky_ny = 0.628318531 kz_ny = 0.628318531
############################
A(data) = 3.0773433 (not used)
A(ran) = 3.07474762 (used)
Ngal = 187533
weighted Ngal = 0
Nran = 9360983
weighted Nran = 0
SN(data) = 3454.40781
SN(ran) = 69.047276
SN(data+ran) = 3523.45509
############################
13 columns: k_central k_mean P_0(k) sigma^{lin}_{P_0(k)} P^img_1(k) sigma^{lin}_{P_1(k)} P_2(k) sigma^{lin}_{P_2(k)} P^img_3(k) sigma^{lin}_{P_3(k)} P_4(k) sigma^{lin}_{P_4(k)} N_modes
### header ###
0.00050000 0 0 0 0 0 0 0 0 0 0 0 0
0.00150000 0.00179520 23858.84320907 0 -40318.19085493 0 -37225.10099329 0 59816.56083243 0 -11631.37575040 0 3
0.00250000 0.00253879 42287.55286300 0 -41999.23017175 0 -24096.69537853 0 -35348.69916676 0 5389.13890191 0 6
0.00350000 0.00331552 66048.93963023 0 -41325.80278646 0 -59132.67964196 0 5965.48078684 0 -583.46620936 0 7
0.00450000 0.00420575 83538.71772861 0 -31632.42762859 0 -60202.45237203 0 -25088.57039904 0 -382.38558063 0 24
0.00550000 0.00557378 103242.11717544 0 -13803.51909766 0 -82992.98413562 0 -28150.74847117 0 13063.54706004 0 45
0.00650000 0.00659388 94566.35812825 0 -3205.42892505 0 -47627.76121228 0 -45170.77977550 0 -6716.18764591 0 40
0.00750000 0.00754703 100420.48902895 0 7733.35413056 0 -59887.60174505 0 -52061.29867360 0 4234.47677752 0 57
0.00850000 0.00846663 89297.19069159 0 12310.64827407 0 -31436.50308635 0 -47926.53770871 0 -14390.73069184 0 75
0.00950000 0.00948925 83937.42361004 0 17719.98662535 0 -5789.85685982 0 -51717.89679377 0 -11852.36694377 0 112
0.01050000 0.01054430 73838.26096078 0 11655.43074296 0 15860.89540095 0 -53891.50142562 0 -12247.92544300 0 105
0.01150000 0.01145670 71961.74672775 0 6060.14954730 0 40878.64970038 0 -22316.62592877 0 -21014.62135460 0 144
0.01250000 0.01249090 66998.66221049 0 -1369.84190133 0 41797.23567812 0 -4590.06352275 0 -21790.56347456 0 169
0.01350000 0.01339930 73717.98599796 0 -5291.12042754 0 39886.66227337 0 39331.93615980 0 -36130.82364462 0 180
0.01450000 0.01448870 78492.56480245 0 -14118.93175717 0 28389.72470571 0 37200.59637469 0 -6557.90804297 0 267
0.01550000 0.01550050 76254.10161588 0 -6203.86126689 0 -1570.39759167 0 42358.36896261 0 -22730.61909520 0 238
0.01650000 0.01653350 89018.08533394 0 -6787.32972439 0 -8116.73900504 0 22817.50932535 0 10177.80224177 0 315
0.01750000 0.01747870 80715.51589101 0 2555.30340872 0 -15500.85735804 0 13507.66517042 0 -5844.86860450 0 297
0.01850000 0.01844180 86837.96112466 0 7797.54948688 0 -2081.61114627 0 -10290.63589381 0 23396.29043148 0 388
0.01950000 0.01947590 74266.19253411 0 10208.11827679 0 -4318.68049215 0 -15770.07094304 0 17339.04097208 0 399
0.02050000 0.02045430 66410.21414472 0 12112.02597566 0 8397.87892047 0 -15528.62176534 0 16850.40988480 0 462
0.02150000 0.02154770 64092.16715098 0 5560.35649385 0 20139.87391472 0 -4625.33668474 0 11665.77214164 0 571
0.02250000 0.02255340 57271.56510043 0 3983.13582718 0 9608.54196680 0 -1555.81846768 0 -1211.65222359 0 510
0.02350000 0.02348930 60280.35008159 0 -1126.11087153 0 15265.81535125 0 3456.11791765 0 -5018.77070098 0 555
0.02450000 0.02439640 58035.14250459 0 -760.75937302 0 11486.59616899 0 -4151.92543855 0 -18156.23628022 0 592
0.02550000 0.02547300 61449.15294460 0 -2906.74235383 0 13921.77074335 0 -2132.26151846 0 -18313.26817093 0 837
0.02650000 0.02652900 64036.07630383 0 -725.35132322 0 17570.14875110 0 -11193.76597679 0 -26951.93307071 0 723
0.02750000 0.02749970 63223.15244297 0 -754.15436665 0 15356.19018313 0 -4986.93717811 0 -25214.35328072 0 826
0.02850000 0.02848090 66991.13097450 0 1323.14823820 0 29698.58607683 0 -9558.68968081 0 -25864.51251900 0 831
0.02950000 0.02946900 67650.73235940 0 86.66440548 0 36178.70881674 0 -2583.87714288 0 -15723.75946203 0 996
0.03050000 0.03053250 65390.91193644 0 2845.24475368 0 31135.59086628 0 3813.07602227 0 -6377.56304264 0 1041
0.03150000 0.03150510 63055.77915358 0 1886.91183496 0 35994.13733174 0 12136.30578124 0 -1815.65734997 0 1036
0.03250000 0.03246190 65625.84153672 0 1877.16619077 0 39681.18317801 0 8652.53586278 0 14199.52722291 0 1059
0.03350000 0.03345080 64192.54616201 0 1616.41681577 0 36285.94462471 0 13818.80638265 0 13817.34509806 0 1302
0.03450000 0.03451200 61723.98685497 0 2776.12599233 0 31459.32160733 0 6897.62298936 0 21253.82240216 0 1339
0.03550000 0.03553350 60248.08941400 0 1658.15335193 0 37311.65400392 0 -505.55838321 0 22632.26340130 0 1365
0.03650000 0.03647120 58724.53161392 0 2115.36682041 0 31859.60117986 0 -301.60689228 0 20301.62687874 0 1308
0.03750000 0.03744890 59376.37694981 0 1537.28263462 0 36676.44483111 0 1327.86931150 0 9086.64979401 0 1579
0.03850000 0.03847530 56163.57415788 0 1905.18913305 0 34803.86482583 0 -1770.87459746 0 6487.53032874 0 1662
0.03950000 0.03950240 54738.48445820 0 933.31460239 0 27518.34946105 0 3727.54591086 0 -5201.81345748 0 1683
0.04050000 0.04050350 51777.80946216 0 1916.47474638 0 25897.89725167 0 691.21346695 0 -14902.51751963 0 1822
0.04150000 0.04152450 49363.87971768 0 1528.44748315 0 11140.96864031 0 -193.82029242 0 -24284.41424574 0 1887
0.04250000 0.04250150 49247.42657611 0 362.44916250 0 16865.58476329 0 -49.31925433 0 -27667.06327022 0 1920
0.04350000 0.04349210 46972.54368117 0 263.04583995 0 6788.13905124 0 -27.00588819 0 -27332.31669145 0 2005
0.04450000 0.04448520 49274.74135739 0 -1149.79492262 0 4932.66731638 0 3752.00556685 0 -28624.99152551 0 2151
0.04550000 0.04548030 46636.11100479 0 520.51406901 0 2328.10737615 0 1323.39553251 0 -26644.72608623 0 2274
0.04650000 0.04648670 46722.66401542 0 2380.76982482 0 1486.04774859 0 3432.43386656 0 -21617.23264029 0 2311
0.04750000 0.04749250 43269.76092388 0 2632.54916055 0 2009.74966615 0 5479.68234355 0 -14962.31778151 0 2568
0.04850000 0.04851840 41162.81335086 0 2648.53336589 0 658.45371445 0 3147.71942420 0 -8909.71071086 0 2493
0.04950000 0.04949480 39145.11654465 0 1423.29119556 0 6441.34249489 0 3017.59765134 0 446.39659028 0 2644
0.05050000 0.05050630 38967.40185659 0 357.61793081 0 6997.82214998 0 1366.35729961 0 6759.10445040 0 2829
0.05150000 0.05149060 38352.65066811 0 553.88531290 0 10367.51070416 0 676.53430116 0 6035.64492870 0 2784
0.05250000 0.05249300 39403.42669845 0 -374.65426106 0 10711.76687345 0 3304.69511166 0 12081.00177964 0 3055
0.05350000 0.05348950 38738.87942723 0 2.03071348 0 9195.99884433 0 1672.57510682 0 9313.51984772 0 3009
0.05450000 0.05448610 39438.27271571 0 374.88694253 0 10856.00690363 0 1473.76171734 0 10865.32540308 0 3336
0.05550000 0.05550870 38216.41398125 0 752.41206579 0 7454.77708349 0 -1834.81141882 0 4346.34373360 0 3349
0.05650000 0.05647670 38144.47381657 0 1311.54788664 0 9078.96118891 0 -1333.53459947 0 2753.76833803 0 3324
0.05750000 0.05747970 36637.88939910 0 2258.89868960 0 7974.35368223 0 -4868.28086899 0 -1368.90892732 0 3639
0.05850000 0.05849280 35357.46687433 0 1881.17910309 0 10678.42710338 0 -5918.20260987 0 -3243.56845298 0 3846
0.05950000 0.05951020 33137.88798099 0 1600.44385108 0 11684.31921534 0 -3982.52883204 0 -7466.45611960 0 3787
0.06050000 0.06049470 33017.27579865 0 860.34479410 0 11167.37292888 0 -958.62180345 0 -8439.98639811 0 3930
0.06150000 0.06148310 31869.04332648 0 142.87991144 0 11968.93249185 0 -652.63105738 0 -10076.59142259 0 4083
0.06250000 0.06249100 32515.49315002 0 242.55413367 0 11070.04013420 0 1668.21373434 0 -10425.24268631 0 4303
0.06350000 0.06350600 31748.76836366 0 385.35536056 0 12066.72615321 0 2591.04867805 0 -6753.36047788 0 4470
0.06450000 0.06451750 30804.66610876 0 103.08508528 0 7389.88480682 0 2529.61852180 0 -9304.01025720 0 4479
0.06550000 0.06550280 32072.16188519 0 -153.24266735 0 9575.30336259 0 1710.06267701 0 -771.04906470 0 4636
0.06650000 0.06648880 31602.07787162 0 -552.55891611 0 7589.09161908 0 4205.99296857 0 -2070.08947927 0 4653
0.06750000 0.06749660 31966.72458133 0 126.44720414 0 8605.57242403 0 2597.03994489 0 3343.50907863 0 5220
0.06850000 0.06852730 31607.81060349 0 305.20165239 0 6817.64575941 0 2452.50765779 0 2070.05575732 0 5029
0.06950000 0.06949320 30403.71209718 0 989.92251947 0 7186.17049362 0 798.05472808 0 4011.58591418 0 5040
0.07050000 0.07048030 30052.66657486 0 1306.71440683 0 6714.16432878 0 -1952.26497831 0 2578.98745981 0 5475
0.07150000 0.07148790 29198.93915184 0 870.76150514 0 6746.97578826 0 -865.41882384 0 4517.56132553 0 5509
0.07250000 0.07249820 28426.36922710 0 347.91500110 0 8042.01115898 0 -234.50357962 0 3275.05351568 0 5916
0.07350000 0.07351270 28449.30015459 0 -108.43788316 0 6143.38656596 0 751.48808430 0 2987.38278217 0 5721
0.07450000 0.07449140 29024.03462646 0 -82.69342079 0 8201.96561888 0 1374.02342340 0 2324.25183295 0 6028
0.07550000 0.07549160 28746.84017944 0 332.80419432 0 7579.43590010 0 -261.19787697 0 1867.42054659 0 6183
0.07650000 0.07648840 28627.80168820 0 546.75536814 0 7789.89460373 0 37.46688739 0 1585.25773194 0 6330
0.07750000 0.07749960 28040.36528099 0 1242.96867653 0 8350.04995161 0 -1810.35176283 0 4726.71611368 0 6583
0.07850000 0.07848650 26745.89194281 0 1036.88708229 0 9142.59451270 0 306.74162154 0 1813.98249302 0 6549
0.07950000 0.07947320 25963.87987146 0 752.28504643 0 9267.88280575 0 181.48030605 0 4861.70508831 0 6828
0.08050000 0.08048110 25510.99405351 0 757.10054121 0 8176.04467830 0 1037.93471094 0 2291.99116535 0 7147
0.08150000 0.08149960 25064.06578044 0 461.95814716 0 9245.33406038 0 1186.47316596 0 3637.38465134 0 7386
0.08250000 0.08250610 24230.79634175 0 345.50500558 0 7074.14616844 0 1146.09674853 0 1714.60389990 0 7227
0.08350000 0.08350160 24166.38741307 0 476.92844580 0 8279.17764875 0 660.70521680 0 2556.02281037 0 7798
0.08450000 0.08449610 23702.48575740 0 693.16371985 0 7620.40807201 0 508.08640556 0 3491.82946503 0 7371
0.08550000 0.08548940 22855.50272482 0 701.25474024 0 7553.00913023 0 630.34084698 0 1751.76549122 0 8256
0.08650000 0.08650700 22759.84478710 0 656.06282804 0 7172.82784121 0 -383.35340066 0 2217.94899899 0 8037
0.08750000 0.08749060 21496.84527096 0 62.49329699 0 7076.46174249 0 382.85881203 0 1037.36593401 0 8155
0.08850000 0.08849210 21916.34635624 0 268.04568140 0 7385.00636440 0 -465.08304806 0 2035.37834981 0 8718
0.08950000 0.08949900 21461.43722116 0 139.32561768 0 7049.85512221 0 268.53464970 0 -876.76288856 0 8571
0.09050000 0.09049190 21660.73395862 0 551.40225315 0 7387.32193846 0 -506.93536293 0 1009.73304232 0 8932
0.09150000 0.09150830 21121.63234956 0 332.91772489 0 7573.93922189 0 -386.11860074 0 -187.39738460 0 9285
0.09250000 0.09250820 21034.06768037 0 298.71130066 0 8158.31817209 0 0.90237696 0 266.42253143 0 9204
0.09350000 0.09350330 21170.30436723 0 289.04546509 0 8402.68991899 0 -680.64613119 0 542.19728427 0 9349
0.09450000 0.09448040 20847.92250426 0 243.90975615 0 8658.33603856 0 -123.87084699 0 158.48305872 0 9564
0.09550000 0.09549270 20619.28766839 0 413.19620429 0 9642.89339544 0 -36.62428821 0 2068.98789550 0 10155
0.09650000 0.09649430 20489.79537197 0 156.18209752 0 7403.14877468 0 1141.08341831 0 821.82308405 0 9913
0.09750000 0.09749140 20112.22191392 0 57.74299799 0 8148.76361897 0 1254.37793702 0 1031.66130377 0 10476
0.09850000 0.09850240 20122.00128005 0 236.19080129 0 6610.66041685 0 1037.11301937 0 -31.37906336 0 10575
0.09950000 0.09950330 19307.84094761 0 480.94473031 0 5556.68080106 0 1381.58838135 0 59.61310505 0 10882
0.10050000 0.10051200 18863.16080469 0 724.35315343 0 5381.45029681 0 643.15406474 0 -1306.86053529 0 10875
0.10150000 0.10150300 17798.22155444 0 600.40362188 0 4160.16483554 0 -366.46657107 0 -2096.23523287 0 11118
0.10250000 0.10250800 17440.88126770 0 517.83654601 0 4913.83922640 0 -156.68118241 0 -1899.17538491 0 11575
0.10350000 0.10349800 17409.74466517 0 324.46250742 0 5267.39141384 0 -890.94296946 0 -2502.56227549 0 11364
0.10450000 0.10450100 17212.80846437 0 177.30665244 0 5546.21575523 0 -95.93704308 0 -1393.73952479 0 12093
0.10550000 0.10551000 17343.08760634 0 207.06852338 0 6187.70845179 0 -44.26658183 0 -1212.33790329 0 12067
0.10650000 0.10649700 17273.05835228 0 128.39408484 0 6773.36883618 0 433.48557886 0 533.39922694 0 12054
0.10750000 0.10749900 17232.25479013 0 257.00286612 0 6640.53806649 0 1060.72400623 0 406.68449532 0 12807
0.10850000 0.10850100 16689.21895332 0 466.46227590 0 6130.52726152 0 867.66807806 0 1309.46836626 0 12736
0.10950000 0.10950300 16298.60634042 0 553.99322315 0 5787.51880447 0 856.38583692 0 1245.95868963 0 12933
0.11050000 0.11050200 15482.53509735 0 647.27263917 0 5606.13966427 0 706.99646464 0 1663.03179435 0 13428
0.11150000 0.11150900 14828.21681829 0 640.74631736 0 4762.32649520 0 187.99538722 0 1067.82360123 0 13453
0.11250000 0.11250000 14393.09122850 0 369.97253003 0 4207.37556861 0 210.54525665 0 478.98211269 0 13668
0.11350000 0.11349100 14096.67526872 0 204.92268315 0 4081.86246255 0 -259.71635920 0 126.94966123 0 13791
0.11450000 0.11448600 14259.66470432 0 -67.18874161 0 4305.87739097 0 -183.44741993 0 -537.60772658 0 14205
0.11550000 0.11549300 14266.40909476 0 -200.15664724 0 4496.55254932 0 -615.07604328 0 -291.23851605 0 14776
0.11650000 0.11649800 14605.87674684 0 -106.10095188 0 4500.97012505 0 -156.70815997 0 -599.66398707 0 14553
0.11750000 0.11747300 14752.67964538 0 -81.36915973 0 4532.27533734 0 -263.34034500 0 -1008.96080961 0 14568
0.11850000 0.11849100 15010.20295363 0 36.46927964 0 4985.61078132 0 568.19016502 0 -859.90753279 0 16015
0.11950000 0.11950300 14710.86442466 0 75.61934207 0 4319.10763688 0 553.23560329 0 -1481.30419398 0 15270
0.12050000 0.12050700 14419.50675772 0 237.84654914 0 4166.36967474 0 483.60988859 0 -888.95787054 0 15999
0.12150000 0.12150000 14385.44758600 0 285.51702483 0 3862.29883182 0 491.13438019 0 -1108.95988665 0 15670
0.12250000 0.12250700 13855.90053006 0 360.47642829 0 3520.00977641 0 295.55605000 0 -675.07863689 0 16887
0.12350000 0.12352200 13735.17594121 0 298.21333983 0 3556.27211567 0 -127.59375051 0 -923.37449495 0 16407
0.12450000 0.12449800 13515.19640641 0 178.90057671 0 3548.12264389 0 164.79468411 0 -761.58443678 0 16306
0.12550000 0.12549900 13371.65329657 0 154.14191941 0 3675.80519554 0 -438.84512112 0 -510.84261312 0 17523
0.12650000 0.12650100 13376.59918289 0 36.66644065 0 3870.29093449 0 -236.11324080 0 -615.12212995 0 17154
0.12750000 0.12750600 13479.45113708 0 25.18051892 0 4196.50585935 0 -346.28398268 0 -653.21894341 0 18007
0.12850000 0.12850300 13518.45619512 0 105.42460192 0 4306.54058936 0 -69.59491531 0 -797.50168806 0 17496
0.12950000 0.12949900 13554.98830999 0 70.85690317 0 4644.09733081 0 -169.39098619 0 -344.98343939 0 18405
0.13050000 0.13049000 13452.58598184 0 110.15545459 0 4182.88219067 0 234.45524482 0 -678.60932528 0 18100
0.13150000 0.13148800 13420.21290773 0 60.23460063 0 4543.30241571 0 629.42810614 0 -714.85592763 0 19059
0.13250000 0.13249300 13312.07784770 0 243.98844070 0 4178.05995150 0 269.49347721 0 -293.03027578 0 18957
0.13350000 0.13349100 13086.70280054 0 243.49834833 0 4072.73505415 0 580.44247432 0 -498.59030382 0 19468
0.13450000 0.13450700 12708.45490344 0 381.91796956 0 3991.28529896 0 286.03184663 0 -47.28076232 0 19953
0.13550000 0.13551000 12410.46525257 0 341.55841311 0 3277.75127186 0 166.40996562 0 116.03049311 0 19956
0.13650000 0.13649900 12198.57898629 0 185.61461739 0 3940.46631700 0 534.67279267 0 274.57987167 0 19723
0.13750000 0.13749600 11949.14894657 0 182.27614412 0 2907.13577660 0 482.68478304 0 392.11773603 0 20946
0.13850000 0.13851100 11858.77411469 0 106.84384648 0 3192.14247589 0 369.17781602 0 577.68514269 0 20955
0.13950000 0.13949800 11796.72572265 0 42.75055527 0 2477.36073656 0 674.05461360 0 924.35243156 0 20506
0.14050000 0.14048300 11554.93932543 0 110.28697021 0 2622.03915211 0 375.89860110 0 750.20552605 0 21447
0.14150000 0.14148400 11383.85662130 0 172.06850919 0 2178.80905314 0 225.25814439 0 349.82591172 0 21771
0.14250000 0.14249400 11260.54668278 0 185.68655756 0 2659.61664751 0 -98.63108984 0 441.43384299 0 22470
0.14350000 0.14350900 11009.62163652 0 345.78826998 0 2265.06980685 0 -414.15165960 0 139.46949801 0 22519
0.14450000 0.14449900 10928.35173173 0 246.23994304 0 2600.24353035 0 -340.03755307 0 330.31663832 0 22218
0.14550000 0.14550500 10664.42125257 0 182.96969227 0 2489.33202958 0 29.99084300 0 -68.44005085 0 23559
0.14650000 0.14650700 10600.36078405 0 48.53229638 0 2509.75629196 0 283.01148378 0 -45.99337060 0 23044
0.14750000 0.14750500 10564.26705456 0 -22.69476142 0 2347.32888890 0 285.11685766 0 -101.55770566 0 23649
0.14850000 0.14849900 10645.37959023 0 -11.69106361 0 2284.42620741 0 396.84667780 0 -46.98502080 0 23640
0.14950000 0.14949500 10559.53474060 0 72.42710967 0 2232.03353435 0 122.77825574 0 -49.30509111 0 24457
0.15050000 0.15050000 10554.33031931 0 117.87508389 0 2230.53852780 0 22.07225418 0 361.31273271 0 24591
0.15150000 0.15149900 10475.15117556 0 61.26019761 0 2175.40313597 0 94.25195713 0 462.20993773 0 25020
0.15250000 0.15250500 10468.57539488 0 199.21130851 0 2519.40077029 0 -226.92738102 0 418.03530443 0 25297
0.15350000 0.15350100 10237.00674917 0 237.95558345 0 2123.06666617 0 -153.57201842 0 342.26207785 0 25452
0.15450000 0.15450400 10143.43957249 0 258.38096990 0 2716.34821175 0 -180.17751463 0 760.83805757 0 26061
0.15550000 0.15549900 9855.54402597 0 205.50607292 0 2513.87037013 0 -144.81555150 0 700.90740414 0 26128
0.15650000 0.15649500 10030.50475459 0 26.73723664 0 2938.00260351 0 293.65075970 0 948.47824023 0 26331
0.15750000 0.15749700 9813.40282638 0 17.26968616 0 2959.17998949 0 274.19993767 0 978.90780582 0 27345
0.15850000 0.15849900 9914.27642604 0 64.29202592 0 2969.88108898 0 518.19624683 0 1511.90124527 0 26980
0.15950000 0.15949700 9770.63215034 0 108.26421511 0 2934.70909285 0 262.49167587 0 1605.63703172 0 27777
0.16050000 0.16050000 9796.73294134 0 51.44834599 0 2571.63607424 0 680.49325834 0 1805.65317082 0 28224
0.16150000 0.16150500 9645.59115161 0 0.27799141 0 2486.97149293 0 355.13262293 0 1719.32497321 0 28075
0.16250000 0.16249700 9608.28343184 0 72.22421592 0 2186.11547612 0 124.01247919 0 1453.43862082 0 28590
0.16350000 0.16349900 9513.82824374 0 89.66768254 0 2269.98197122 0 -210.57785453 0 1472.28919209 0 29163
0.16450000 0.16449100 9394.44129233 0 227.04653192 0 2226.25583988 0 -483.41092908 0 937.51410950 0 28996
0.16550000 0.16550500 9364.58612399 0 179.03546452 0 2307.10984058 0 -644.39952885 0 332.02634129 0 30777
0.16650000 0.16650700 9144.71899569 0 193.26050802 0 2947.70328509 0 -550.90316826 0 56.75955346 0 29211
0.16750000 0.16749900 8976.96352418 0 247.03240892 0 2780.83582499 0 -389.24462571 0 2.70904179 0 30922
0.16850000 0.16850800 8984.65212928 0 241.28843640 0 3309.51735082 0 -202.79482797 0 -309.86652244 0 30867
0.16950000 0.16949900 8673.61208290 0 268.19967831 0 2942.27405079 0 152.29058423 0 -121.61484839 0 30852
0.17050000 0.17049200 8475.87779590 0 264.57119626 0 3129.64445782 0 335.80432400 0 -237.37444181 0 31257
0.17150000 0.17149500 8255.51607896 0 180.46639936 0 2786.02900563 0 183.17314805 0 -261.23384705 0 32608
0.17250000 0.17250900 8191.53429500 0 99.39388040 0 3167.99755812 0 310.26556554 0 288.56886150 0 32361
0.17350000 0.17350400 8074.48539894 0 -12.65494941 0 2797.25841571 0 298.78099269 0 89.46804858 0 32508
0.17450000 0.17449800 8230.01104246 0 -44.15608623 0 2996.28537755 0 172.98462223 0 654.02602213 0 32791
0.17550000 0.17549800 8253.43655858 0 -23.03040725 0 2765.66094650 0 179.17147639 0 618.15598158 0 33633
0.17650000 0.17650100 8372.41884657 0 -46.43726389 0 2929.25737724 0 331.43171087 0 1100.98352089 0 33984
0.17750000 0.17750300 8296.27467852 0 71.56023068 0 2698.81279661 0 451.67744800 0 1091.69199899 0 34069
