### header ###
fiducial parameters:
Omega_m = 0.31
Omega_nu = 0
Omega_de = 0.69
Omega_k = 0
H_0 = 100
w_de = -1
zeff = 0
beta = 0
fgrowth = 0
b_1 = 2
gamma = 0.55
Lx = 3500 Ly = 3500 Lz = 3500
nx = 700 ny = 700 nz = 700
xoffset = 857.220397 yoffset = 15.9954215 zoffset = 262.898189
bins = 400 dk = 0.001
kx_ny = 0.628318531 ky_ny = 0.628318531 kz_ny = 0.628318531
############################
A(data) = 3.10500279 (not used)
A(ran) = 3.10618418 (used)
Ngal = 189284
weighted Ngal = 0
Nran = 9360983
weighted Nran = 0
SN(data) = 3449.68742
SN(ran) = 69.753223
SN(data+ran) = 3519.44065
############################
13 columns: k_central k_mean P_0(k) sigma^{lin}_{P_0(k)} P^img_1(k) sigma^{lin}_{P_1(k)} P_2(k) sigma^{lin}_{P_2(k)} P^img_3(k) sigma^{lin}_{P_3(k)} P_4(k) sigma^{lin}_{P_4(k)} N_modes
### header ###
0.00050000 0 0 0 0 0 0 0 0 0 0 0 0
0.00150000 0.00179520 36787.61486684 0 -26345.16274425 0 39257.18583244 0 60351.61580723 0 -77125.58926706 0 3
0.00250000 0.00253879 78430.40400391 0 -46273.37520571 0 -3301.77254247 0 50873.72392387 0 148794.74185628 0 6
0.00350000 0.00331552 90810.85671902 0 -27966.85142521 0 51971.93550029 0 -48056.92925719 0 -69289.61923598 0 7
0.00450000 0.00420575 113383.31985843 0 -10867.09018525 0 874.32479142 0 32538.42407751 0 13182.69795778 0 24
0.00550000 0.00557378 121223.67374330 0 -16057.15716271 0 -8834.18477860 0 55399.54712769 0 28684.90419391 0 45
0.00650000 0.00659388 135060.91479315 0 -4659.82300118 0 -84870.62243372 0 8900.90928134 0 -58918.43283903 0 40
0.00750000 0.00754703 129651.91366140 0 2529.64100311 0 -11598.10342424 0 -16552.30782741 0 -20070.18188018 0 57
0.00850000 0.00846663 134002.04549429 0 9694.87016442 0 -65210.49949221 0 -27036.01313818 0 10522.00220781 0 75
0.00950000 0.00948925 109139.86180098 0 12913.14715326 0 -28457.39342311 0 -40457.79973701 0 48948.98729920 0 112
0.01050000 0.01054430 110918.46996614 0 10282.12672121 0 -21411.52873191 0 -6994.41623280 0 -22617.98777487 0 105
0.01150000 0.01145670 105091.65384672 0 -2763.50274156 0 -3487.95144053 0 -9543.11013890 0 14390.39347232 0 144
0.01250000 0.01249090 108570.74765447 0 -3096.94540485 0 -5927.72344104 0 1792.05198344 0 -25182.31742613 0 169
0.01350000 0.01339930 121654.19066630 0 -1447.06517185 0 -3610.59818065 0 -7599.62410881 0 4382.43746309 0 180
0.01450000 0.01448870 107678.01517341 0 2903.62869358 0 4376.98574749 0 -8865.34386242 0 -4362.18181048 0 267
0.01550000 0.01550050 117653.64307114 0 1438.19629843 0 23753.40590521 0 -35085.44312664 0 -27220.02259065 0 238
0.01650000 0.01653350 103932.85516286 0 7110.44222965 0 22538.17915468 0 -16345.47985396 0 1424.85364601 0 315
0.01750000 0.01747870 102379.95926437 0 11392.96154840 0 24594.31898639 0 3350.88294551 0 -27957.40927860 0 297
0.01850000 0.01844180 91907.04497831 0 4330.47193477 0 18541.56578728 0 -1535.98995979 0 -8808.51113233 0 388
0.01950000 0.01947590 89045.51252172 0 4914.22140853 0 30535.34011724 0 10170.39465294 0 -25139.94017288 0 399
0.02050000 0.02045430 79815.02736095 0 3738.19080710 0 19145.07632502 0 4560.77038694 0 -11406.00070324 0 462
0.02150000 0.02154770 78550.90377975 0 2583.12401928 0 16602.89075570 0 5116.83413795 0 -21615.43413617 0 571
0.02250000 0.02255340 76963.27427050 0 1166.97063694 0 14010.23466460 0 -1631.24323408 0 -17015.75985705 0 510
0.02350000 0.02348930 75434.88299061 0 2404.28526615 0 15485.45766654 0 -4061.34827496 0 -17810.92348976 0 555
0.02450000 0.02439640 73831.51657034 0 4626.85417259 0 7797.22350801 0 -5373.35702828 0 -28892.29419990 0 592
0.02550000 0.02547300 69877.50526921 0 6118.57844980 0 21402.64861784 0 -5124.07311702 0 -17058.02470380 0 837
0.02650000 0.02652900 65793.77685864 0 6671.86576008 0 24164.70131546 0 -3391.66402636 0 -23982.37796060 0 723
0.02750000 0.02749970 58206.11280220 0 4546.02265318 0 27702.35891351 0 1977.52272050 0 -13634.68452368 0 826
0.02850000 0.02848090 57460.74525223 0 1373.67496323 0 26664.50963152 0 11709.72308600 0 -14092.40382144 0 831
0.02950000 0.02946900 55264.88413193 0 -748.58012795 0 21627.23681944 0 14895.77312919 0 -2486.58931081 0 996
0.03050000 0.03053250 58230.84223381 0 -2108.98213080 0 15633.49703666 0 12442.16388763 0 -6093.73661168 0 1041
0.03150000 0.03150510 58029.52217922 0 -270.30842439 0 12809.05872749 0 5071.48935290 0 -6465.84711348 0 1036
0.03250000 0.03246190 58301.88314643 0 1503.44827592 0 16102.23217214 0 -2601.51372388 0 -531.13535989 0 1059
0.03350000 0.03345080 57088.67971304 0 3155.05956913 0 12041.65950208 0 -5970.93250245 0 -3820.31500134 0 1302
0.03450000 0.03451200 54351.69366655 0 1488.72302346 0 24353.20702821 0 -7229.54816479 0 465.63159182 0 1339
0.03550000 0.03553350 56195.83482547 0 59.66987034 0 23629.75874717 0 -3306.58354098 0 -6922.03768275 0 1365
0.03650000 0.03647120 54331.46049523 0 -2321.31802311 0 31796.54112926 0 2951.82860391 0 -2220.41070150 0 1308
0.03750000 0.03744890 58615.04767580 0 -388.18126015 0 28995.03374758 0 6117.00475870 0 -6626.38608722 0 1579
0.03850000 0.03847530 56910.74021196 0 2302.38876728 0 26668.66867229 0 4098.11644350 0 -7380.89228624 0 1662
0.03950000 0.03950240 53930.95610969 0 3144.71817045 0 25636.43971566 0 5201.53244121 0 -4682.81013193 0 1683
0.04050000 0.04050350 50495.70083979 0 2965.41855064 0 25471.42696293 0 859.76927279 0 -10217.63910796 0 1822
0.04150000 0.04152450 50256.94941826 0 1294.68691054 0 20102.89217381 0 66.45180455 0 -4768.77862872 0 1887
0.04250000 0.04250150 48189.34412280 0 743.42066927 0 21765.83404295 0 1658.87275358 0 -15902.14858913 0 1920
0.04350000 0.04349210 47711.61646674 0 1381.28488378 0 17165.48532479 0 -3768.38319496 0 -8447.80989102 0 2005
0.04450000 0.04448520 46297.09297875 0 1452.52812811 0 18674.09305940 0 1364.69368330 0 -12523.20897940 0 2151
0.04550000 0.04548030 45529.46894033 0 1546.14026740 0 16629.86831746 0 1261.35838113 0 -4920.63982009 0 2274
0.04650000 0.04648670 43188.15379957 0 727.14870327 0 14750.31910873 0 5957.62357198 0 -3963.84687052 0 2311
0.04750000 0.04749250 43013.69890023 0 271.25713531 0 13452.58598184 0 8182.48557117 0 -2234.77625313 0 2568
0.04850000 0.04851840 42459.19759967 0 509.84893960 0 11732.87882650 0 5353.58472365 0 -429.72445712 0 2493
0.04950000 0.04949480 40568.52014671 0 2045.86587694 0 7447.79663939 0 2644.58789748 0 1493.06191465 0 2644
0.05050000 0.05050630 38390.30684806 0 2910.83395069 0 11304.49762714 0 471.75774646 0 7789.50118096 0 2829
0.05150000 0.05149060 35773.14613836 0 1106.35542787 0 7902.25614844 0 -1185.51771065 0 7046.52788959 0 2784
0.05250000 0.05249300 36324.16283720 0 934.31951656 0 13623.10665342 0 2748.39530698 0 9054.80503049 0 3055
0.05350000 0.05348950 35493.70356119 0 -844.33248714 0 6870.00471051 0 2466.83948747 0 4776.33234601 0 3009
0.05450000 0.05448610 35730.31925908 0 -882.01564465 0 8813.38957474 0 3323.42203578 0 6897.72415522 0 3336
0.05550000 0.05550870 37218.01938333 0 -483.19398452 0 4129.82631922 0 1176.96357544 0 1645.23784424 0 3349
0.05650000 0.05647670 35940.63183426 0 -207.80928226 0 4405.21102148 0 -1334.37764828 0 1106.46783438 0 3324
0.05750000 0.05747970 36962.40698570 0 929.14094877 0 2770.35953851 0 -2447.37068041 0 -4296.41276305 0 3639
0.05850000 0.05849280 36131.04845764 0 523.54117625 0 4158.05159320 0 -4094.49695397 0 -7399.20330628 0 3846
0.05950000 0.05951020 35574.63624646 0 1660.06426256 0 4595.13305623 0 -4953.35011372 0 -8195.87318619 0 3787
0.06050000 0.06049470 35091.17585852 0 1578.24356588 0 8630.45922475 0 -3995.90520641 0 -10995.32352879 0 3930
0.06150000 0.06148310 33725.88642073 0 1160.03515544 0 10071.25211349 0 -1907.85316727 0 -10115.02320744 0 4083
0.06250000 0.06249100 33126.08529772 0 1444.52478479 0 12242.52993064 0 -1066.06331533 0 -7778.55278715 0 4303
0.06350000 0.06350600 31840.49207362 0 967.24113443 0 13068.83016588 0 1721.38201229 0 -8900.60578377 0 4470
0.06450000 0.06451750 31554.64232553 0 808.92218921 0 13297.57740826 0 3100.71102284 0 -4031.12216515 0 4479
0.06550000 0.06550280 31200.78664052 0 438.42134859 0 14046.65437297 0 2079.48666328 0 -5372.51397948 0 4636
0.06650000 0.06648880 30767.57196135 0 598.72314460 0 12302.66741206 0 1635.19994314 0 -1547.25309182 0 4653
0.06750000 0.06749660 29741.41295611 0 783.34184034 0 14197.50390578 0 -23.04749304 0 -1236.16808284 0 5220
0.06850000 0.06852730 28783.48470082 0 942.53755631 0 11932.51278348 0 -553.52561208 0 1059.90006653 0 5029
0.06950000 0.06949320 29335.28824520 0 94.64796525 0 15829.53398541 0 837.85112793 0 855.56751754 0 5040
0.07050000 0.07048030 29092.26537640 0 46.16602699 0 13380.42100414 0 945.41853510 0 3302.68303518 0 5475
0.07150000 0.07148790 29583.14459382 0 -434.59840328 0 15888.54740175 0 1515.39708765 0 3461.18745113 0 5509
0.07250000 0.07249820 30031.19693196 0 -317.89234706 0 13437.18629033 0 2405.52173773 0 6176.41159781 0 5916
0.07350000 0.07351270 30316.93427354 0 162.02948403 0 14725.92689664 0 1981.13096938 0 6596.31734652 0 5721
0.07450000 0.07449140 30292.42965495 0 947.33731418 0 14364.42756913 0 1356.28567655 0 8481.18338304 0 6028
0.07550000 0.07549160 29155.10061399 0 774.36842886 0 14767.29249133 0 1100.64854950 0 8165.65831702 0 6183
0.07650000 0.07648840 29127.22380017 0 660.97274428 0 13561.05826139 0 141.55913498 0 8723.81282907 0 6330
0.07750000 0.07749960 28328.57556574 0 566.31185228 0 14818.99948469 0 -64.93813852 0 7489.82543247 0 6583
0.07850000 0.07848650 27933.01706651 0 586.87887093 0 13859.60994480 0 -51.06627627 0 6309.72571548 0 6549
0.07950000 0.07947320 27615.01905733 0 580.70438148 0 13653.68122341 0 -116.03723750 0 4506.37687805 0 6828
0.08050000 0.08048110 27024.43526793 0 897.87507876 0 13391.88646789 0 -753.89245949 0 2820.40291556 0 7147
0.08150000 0.08149960 25799.42915126 0 796.29444217 0 12933.38032457 0 660.40396736 0 2360.50293156 0 7386
0.08250000 0.08250610 25606.42717821 0 590.40393899 0 13600.40053895 0 653.53705383 0 1622.25071350 0 7227
0.08350000 0.08350160 24526.31304947 0 658.13560404 0 10939.95208329 0 854.36814011 0 -596.11756176 0 7798
0.08450000 0.08449610 23962.48200880 0 413.83130105 0 10952.57533406 0 1956.64883209 0 -64.97377139 0 7371
0.08550000 0.08548940 23351.55264158 0 235.50849379 0 10384.66393718 0 1669.25911485 0 -936.66768850 0 8256
0.08650000 0.08650700 23313.44683560 0 398.53502354 0 9521.73042121 0 1563.51831343 0 1056.13332447 0 8037
0.08750000 0.08749060 22981.06079348 0 431.61288644 0 9418.01293691 0 499.05454270 0 968.49783918 0 8155
0.08850000 0.08849210 22641.25592188 0 417.55195644 0 10123.61106460 0 -559.17066687 0 2232.98898966 0 8718
0.08950000 0.08949900 22584.60304220 0 343.30408617 0 10890.76299569 0 -753.90932046 0 2224.29996665 0 8571
0.09050000 0.09049190 22549.98183795 0 231.90698930 0 10787.06799269 0 -224.60843478 0 2969.35277840 0 8932
0.09150000 0.09150830 22399.69433768 0 134.94063983 0 11641.60474257 0 719.03407750 0 3101.37422124 0 9285
0.09250000 0.09250820 22238.95303222 0 244.50663470 0 10274.89898279 0 1298.59865700 0 3448.09209303 0 9204
0.09350000 0.09350330 21885.32216023 0 470.49542139 0 10263.74825726 0 2884.24981172 0 3301.79502377 0 9349
0.09450000 0.09448040 21287.65676086 0 803.50419555 0 8277.77256741 0 2039.31257757 0 2624.35472616 0 9564
0.09550000 0.09549270 20093.67484021 0 649.29370817 0 7249.63520765 0 1308.92881502 0 3478.09338983 0 10155
0.09650000 0.09649430 20120.76480847 0 400.05925578 0 6997.67602152 0 878.95256732 0 3300.65971805 0 9913
0.09750000 0.09749140 19417.32488573 0 247.03802925 0 6510.46125623 0 279.06039505 0 3384.85219202 0 10476
0.09850000 0.09850240 19355.50130671 0 161.05829180 0 5773.59163821 0 -668.85693671 0 2558.23721856 0 10575
0.09950000 0.09950330 19208.92322118 0 269.36758192 0 7311.91965335 0 -872.70388958 0 1682.95022744 0 10882
0.10050000 0.10051200 18838.99340562 0 542.05452801 0 7610.33644896 0 -1275.48787910 0 816.11957787 0 10875
0.10150000 0.10150300 18513.57656696 0 585.86271610 0 8084.80431631 0 -737.09892729 0 -184.66478240 0 11118
0.10250000 0.10250800 17907.25586653 0 618.09078581 0 7519.29841869 0 -48.34817452 0 -235.17239833 0 11575
0.10350000 0.10349800 17358.37489133 0 295.02549128 0 7986.88700780 0 233.54587617 0 -1635.07629598 0 11364
0.10450000 0.10450100 17357.47563927 0 251.98728776 0 6493.11693215 0 1038.49337128 0 -2005.25340585 0 12093
0.10550000 0.10551000 16933.14107418 0 -39.87362312 0 6140.78997564 0 1372.21367864 0 -2654.68200184 0 12067
0.10650000 0.10649700 16806.45894044 0 109.45426280 0 4864.04314366 0 1187.24877086 0 -1757.02611576 0 12054
0.10750000 0.10749900 16713.38635239 0 154.47576674 0 4541.78492786 0 1197.01689634 0 -2453.87901718 0 12807
0.10850000 0.10850100 16525.66748518 0 210.43734640 0 3825.28336896 0 714.46475298 0 -1134.59756283 0 12736
0.10950000 0.10950300 16169.11404399 0 302.25210564 0 3982.36022228 0 282.11110766 0 -579.01603574 0 12933
0.11050000 0.11050200 15997.01968130 0 153.09429076 0 3879.37338028 0 757.70079195 0 -309.41352422 0 13428
0.11150000 0.11150900 15794.01352910 0 119.35098133 0 4030.41400415 0 457.68894801 0 319.14567962 0 13453
0.11250000 0.11250000 15745.90354397 0 76.93303692 0 3446.82189950 0 488.35344320 0 177.39657764 0 13668
0.11350000 0.11349100 15698.24318487 0 124.57113953 0 3915.93921711 0 264.44530097 0 840.32294702 0 13791
0.11450000 0.11448600 15691.72360745 0 166.15705098 0 3607.65313016 0 130.69392198 0 836.20999292 0 14205
0.11550000 0.11549300 15566.16553878 0 209.15478815 0 4096.99237843 0 -471.18784547 0 1349.60873002 0 14776
0.11650000 0.11649800 15296.72714076 0 263.06494906 0 4461.95382637 0 -459.66955067 0 898.29885130 0 14553
0.11750000 0.11747300 15216.58130105 0 226.07533970 0 4690.89215980 0 -399.88727382 0 902.00152165 0 14568
0.11850000 0.11849100 15106.98495642 0 174.41555707 0 4853.16219376 0 -380.93328856 0 273.20289195 0 16015
0.11950000 0.11950300 14811.69306172 0 188.29551259 0 4578.64302160 0 -201.78766566 0 -245.37441294 0 15270
0.12050000 0.12050700 14927.47176425 0 292.84705317 0 5219.51748238 0 -427.54601901 0 -381.33795198 0 15999
0.12150000 0.12150000 14387.92052916 0 207.19104647 0 4280.02389428 0 83.99115392 0 -1046.54617346 0 15670
0.12250000 0.12250700 14420.29360327 0 187.79867583 0 4453.88303914 0 123.25598340 0 -570.89016933 0 16887
0.12350000 0.12352200 14433.10794510 0 -133.59400987 0 4053.52478205 0 902.01501043 0 -980.83894961 0 16407
0.12450000 0.12449800 14449.63170167 0 75.19028643 0 3886.47747154 0 727.45782116 0 -814.15021586 0 16306
0.12550000 0.12549900 14280.57231468 0 274.53041280 0 3881.17188440 0 462.29761481 0 -660.90867257 0 17523
0.12650000 0.12650100 13941.77910165 0 482.50156043 0 3460.10834866 0 4.77808589 0 -543.74961814 0 17154
0.12750000 0.12750600 13567.12821278 0 513.07388229 0 4315.87032947 0 -63.93165066 0 498.92752335 0 18007
0.12850000 0.12850300 13099.17992285 0 412.52288931 0 3864.24346440 0 184.37364955 0 187.28048183 0 17496
0.12950000 0.12949900 13024.65440851 0 234.46985766 0 4404.23308486 0 377.03278275 0 1023.56241491 0 18405
0.13050000 0.13049000 12702.72217157 0 63.33555895 0 4067.23837595 0 644.62546593 0 668.29153197 0 18100
0.13150000 0.13148800 12665.51561765 0 85.10038133 0 3852.76676000 0 528.36116728 0 1245.16060342 0 19059
0.13250000 0.13249300 12730.37417237 0 -44.88099580 0 3291.46486575 0 642.35148228 0 1105.88894087 0 18957
0.13350000 0.13349100 12609.08755098 0 54.24097326 0 3161.80395957 0 398.01907767 0 957.07284177 0 19468
0.13450000 0.13450700 12642.47228365 0 97.85863232 0 3044.33915943 0 76.01388891 0 1055.01150753 0 19953
0.13550000 0.13551000 12525.34470304 0 138.59272725 0 2952.09837953 0 -133.58614142 0 855.29661786 0 19956
0.13650000 0.13649900 12409.56600051 0 181.43084719 0 3557.41866204 0 -296.17990611 0 856.01939170 0 19723
0.13750000 0.13749600 12219.26178363 0 196.48320258 0 2780.39743961 0 33.04582705 0 468.46311173 0 20946
0.13850000 0.13851100 12069.64872240 0 132.67677277 0 3569.58104613 0 38.92929605 0 681.61282716 0 20955
0.13950000 0.13949800 12175.31083927 0 27.65379930 0 2795.03276686 0 337.48480129 0 585.51537999 0 20506
0.14050000 0.14048300 11934.31128760 0 82.86349184 0 3482.60089078 0 200.46126888 0 658.21316453 0 21447
0.14150000 0.14148400 11961.40125586 0 122.40843833 0 2695.86774612 0 -54.83110742 0 45.03038405 0 21771
0.14250000 0.14249400 11859.67336675 0 265.80429564 0 3609.59776274 0 -373.84156201 0 -162.83993494 0 22470
0.14350000 0.14350900 11591.47144031 0 375.37366271 0 3360.54990514 0 -887.39542009 0 -238.49625875 0 22519
0.14450000 0.14449900 11351.14632768 0 359.18150533 0 3989.77905176 0 -556.07274353 0 -142.06159207 0 22218
0.14550000 0.14550500 11116.68883473 0 300.23440883 0 4200.54125297 0 -438.62143217 0 -100.36316171 0 23559
0.14650000 0.14650700 11002.57374851 0 240.88939330 0 4351.48071098 0 184.03867816 0 -0.34864564 0 23044
0.14750000 0.14750500 10893.06732909 0 109.74888026 0 4299.33533224 0 322.64714232 0 -95.09702925 0 23649
0.14850000 0.14849900 10761.45054968 0 182.70553698 0 4341.20675621 0 361.81518979 0 184.68838777 0 23640
0.14950000 0.14949500 10479.29897568 0 206.02426692 0 4159.13069567 0 346.41100203 0 183.19675342 0 24457
0.15050000 0.15050000 10312.43151558 0 203.16464538 0 3887.84883093 0 373.80109567 0 407.72762770 0 24591
0.15150000 0.15149900 10262.36565722 0 108.22172545 0 3820.43864850 0 321.39268570 0 186.04625838 0 25020
0.15250000 0.15250500 10167.57324961 0 15.31920844 0 3513.61384614 0 330.51672190 0 -28.96378474 0 25297
0.15350000 0.15350100 10003.05508551 0 17.14839954 0 3339.24887200 0 461.47367511 0 61.44993979 0 25452
0.15450000 0.15450400 9972.24446186 0 107.04505413 0 2984.86487641 0 100.35057218 0 -230.66489739 0 26061
0.15550000 0.15549900 9944.23276023 0 106.72862981 0 2910.89015395 0 179.23892030 0 209.74941858 0 26128
0.15650000 0.15649500 9784.27830033 0 116.65210109 0 2926.85187799 0 101.28534470 0 450.76695529 0 26331
0.15750000 0.15749700 9774.29660248 0 84.11783605 0 3008.96483158 0 237.07656457 0 578.98006566 0 27345
0.15850000 0.15849900 9836.91826770 0 -41.14460350 0 2961.10214076 0 257.52443231 0 973.76071185 0 26980
0.15950000 0.15949700 9887.40003014 0 80.97753546 0 3204.42850714 0 78.63228609 0 939.37780939 0 27777
0.16050000 0.16050000 9739.58547303 0 155.31544335 0 3286.85619895 0 -111.48713449 0 1127.59463743 0 28224
0.16150000 0.16150500 9610.44163678 0 221.36887924 0 3372.76849248 0 72.92653178 0 1203.44654856 0 28075
0.16250000 0.16249700 9455.56795101 0 245.78582075 0 3259.06931034 0 193.64943453 0 1377.89020726 0 28590
0.16350000 0.16349900 9286.31747295 0 144.56376092 0 2905.24734728 0 412.95565436 0 1253.57985082 0 29163
0.16450000 0.16449100 9088.93164611 0 33.60875884 0 2954.38023163 0 463.97696803 0 1238.16891867 0 28996
0.16550000 0.16550500 9110.33384510 0 94.73159569 0 2496.13262328 0 333.44828361 0 924.29510424 0 30777
0.16650000 0.16650700 8927.15620079 0 14.89959495 0 2254.34622605 0 97.51961429 0 577.14446739 0 29211
0.16750000 0.16749900 8921.44595022 0 132.93081148 0 2382.64701350 0 -355.26863481 0 807.55532608 0 30922
0.16850000 0.16850800 8887.01583703 0 38.17426154 0 2468.82908265 0 -99.22774358 0 461.59507414 0 30867
0.16950000 0.16949900 8883.56495726 0 -18.38217336 0 2675.57837155 0 -303.61896876 0 696.83154418 0 30852
0.17050000 0.17049200 9087.34671436 0 -106.43491161 0 2562.54238779 0 3.08063522 0 -20.41673114 0 31257
0.17150000 0.17149500 9035.47111124 0 2.55321265 0 2719.93397933 0 -10.83748231 0 -105.60006848 0 32608
0.17250000 0.17250900 9106.17480433 0 71.03641636 0 2448.56218938 0 140.85547024 0 -165.18023843 0 32361
0.17350000 0.17350400 8954.03259669 0 217.78086352 0 2568.58985789 0 66.59456082 0 -10.45026437 0 32508
0.17450000 0.17449800 8816.36834719 0 265.31869953 0 2188.92563880 0 191.48560927 0 93.92193162 0 32791
0.17550000 0.17549800 8571.00742303 0 279.27509148 0 2378.40928817 0 271.84502134 0 145.47874989 0 33633
0.17650000 0.17650100 8405.56752557 0 171.94036578 0 2338.95460410 0 98.83387118 0 561.46937995 0 33984
0.17750000 0.17750300 8238.64386222 0 137.54847080 0 2333.04202182 0 81.81912298 0 408.90564790 0 34069
