### header ###
fiducial parameters:
Omega_m = 0.31
Omega_nu = 0
Omega_de = 0.69
Omega_k = 0
H_0 = 100
w_de = -1
zeff = 0
beta = 0
fgrowth = 0
b_1 = 2
gamma = 0.55
Lx = 3500 Ly = 3500 Lz = 3500
nx = 700 ny = 700 nz = 700
xoffset = 857.220397 yoffset = 15.9954215 zoffset = 262.898189
bins = 400 dk = 0.001
kx_ny = 0.628318531 ky_ny = 0.628318531 kz_ny = 0.628318531
############################
A(data) = 3.10026808 (not used)
A(ran) = 3.09825748 (used)
Ngal = 189206
weighted Ngal = 0
Nran = 9360983
weighted Nran = 0
SN(data) = 3454.87192
SN(ran) = 69.5752192
SN(data+ran) = 3524.44714
############################
13 columns: k_central k_mean P_0(k) sigma^{lin}_{P_0(k)} P^img_1(k) sigma^{lin}_{P_1(k)} P_2(k) sigma^{lin}_{P_2(k)} P^img_3(k) sigma^{lin}_{P_3(k)} P_4(k) sigma^{lin}_{P_4(k)} N_modes
### header ###
0.00050000 0 0 0 0 0 0 0 0 0 0 0 0
0.00150000 0.00179520 11221.72147516 0 -18602.37770773 0 -9694.89264572 0 51509.27031620 0 3624.55906886 0 3
0.00250000 0.00253879 27808.24584340 0 -24560.03500166 0 15920.47084982 0 -46422.31382789 0 -12086.17247898 0 6
0.00350000 0.00331552 38437.29276812 0 -18992.31588159 0 -9358.54989455 0 5817.21660370 0 54199.15803613 0 7
0.00450000 0.00420575 58910.67679002 0 -14551.13477778 0 18956.57061227 0 -48824.32848260 0 10536.82862612 0 24
0.00550000 0.00557378 81717.84471670 0 -17252.03833542 0 12058.29566516 0 -29653.17384788 0 43516.83042694 0 45
0.00650000 0.00659388 108465.98478966 0 -8131.01463147 0 53915.89363771 0 10986.82559683 0 -29041.12041557 0 40
0.00750000 0.00754703 117261.34436063 0 -13912.55340975 0 -13286.33675752 0 25360.14452070 0 16306.69960894 0 57
0.00850000 0.00846663 122952.48582573 0 3299.45696842 0 31319.48791224 0 23731.82385581 0 -25401.95974142 0 75
0.00950000 0.00948925 117471.54452930 0 9089.28010629 0 -14482.34199530 0 11480.30140458 0 6712.07356774 0 112
0.01050000 0.01054430 97606.27971194 0 18084.52092856 0 6660.11928006 0 1859.31603741 0 -29397.56145025 0 105
0.01150000 0.01145670 82647.89615818 0 14010.68429063 0 -8038.96494263 0 1273.16106439 0 14177.04592145 0 144
0.01250000 0.01249090 71191.42493315 0 8854.60904097 0 7053.93547842 0 -9947.12160747 0 16011.18290122 0 169
0.01350000 0.01339930 70516.08663723 0 5.60835407 0 2393.71905447 0 -13887.48675862 0 30368.41645389 0 180
0.01450000 0.01448870 71900.70999428 0 1140.26285080 0 26055.94080094 0 -2065.67190353 0 35267.65407499 0 267
0.01550000 0.01550050 73234.18839049 0 -1166.23999464 0 26194.08839843 0 11511.77522662 0 17370.73960714 0 238
0.01650000 0.01653350 79783.32872589 0 719.09252889 0 50188.83107483 0 7020.16856363 0 34863.88990073 0 315
0.01750000 0.01747870 83087.06838224 0 5150.74718121 0 49966.82822289 0 12021.53873727 0 26702.05340496 0 297
0.01850000 0.01844180 82044.38562043 0 2213.82368017 0 67161.76405260 0 15218.04258565 0 36757.15270336 0 388
0.01950000 0.01947590 80400.66526404 0 1112.57150773 0 47644.73459489 0 26489.94232567 0 32287.53275319 0 399
0.02050000 0.02045430 82486.03078765 0 -1248.39791083 0 48635.26073730 0 32944.32397540 0 31621.07457135 0 462
0.02150000 0.02154770 83240.84048424 0 -2114.37764315 0 36295.49917783 0 20549.25841434 0 37891.67158163 0 571
0.02250000 0.02255340 77508.55823746 0 -1359.96136934 0 34983.71523753 0 14863.73727460 0 23927.63599154 0 510
0.02350000 0.02348930 81419.63025280 0 2836.55573066 0 34138.75552208 0 2607.40382486 0 35672.76712734 0 555
0.02450000 0.02439640 80880.97826977 0 4076.03980547 0 32390.72192690 0 1632.63707477 0 26214.88360228 0 592
0.02550000 0.02547300 75952.29014376 0 5411.04693019 0 43191.86321431 0 -2882.99085883 0 42811.25478056 0 837
0.02650000 0.02652900 73776.77460128 0 4485.17701078 0 45526.65877765 0 -2111.21902029 0 31819.92168278 0 723
0.02750000 0.02749970 74052.17054419 0 2406.19617678 0 54851.67781106 0 -2228.39156351 0 27238.00763182 0 826
0.02850000 0.02848090 70020.71115952 0 3626.08779736 0 50425.44677272 0 1988.48235496 0 12650.11592615 0 831
0.02950000 0.02946900 69510.72283585 0 2920.24237536 0 49736.05766339 0 -6614.57216330 0 7343.82062013 0 996
0.03050000 0.03053250 64612.38446681 0 1927.76035971 0 47729.82632092 0 -4191.26771611 0 -5487.76437142 0 1041
0.03150000 0.03150510 69678.77056428 0 1886.54089348 0 57160.17025168 0 -8153.10251015 0 -22882.48028657 0 1036
0.03250000 0.03246190 65598.07712941 0 799.29794405 0 49439.41689060 0 -4161.64860144 0 -30506.67645788 0 1059
0.03350000 0.03345080 66081.64992386 0 676.85465970 0 49842.39421930 0 -1227.64766959 0 -29411.27504415 0 1302
0.03450000 0.03451200 63985.71818856 0 742.46296582 0 44191.60669033 0 2058.90503179 0 -33430.25730650 0 1339
0.03550000 0.03553350 68453.20241508 0 238.11295256 0 46012.81692176 0 10676.99954074 0 -27812.62969718 0 1365
0.03650000 0.03647120 64271.90515617 0 702.59799801 0 37786.23427778 0 10359.28254782 0 -26745.10509726 0 1308
0.03750000 0.03744890 64652.28877691 0 2112.37680732 0 33257.60091128 0 14373.86971575 0 -20082.43418948 0 1579
0.03850000 0.03847530 59441.79753706 0 3604.02239997 0 31196.74000626 0 9949.38097827 0 -10221.71946418 0 1662
0.03950000 0.03950240 55974.73122559 0 5089.98022336 0 23233.75062191 0 4970.61575324 0 -9496.05677494 0 1683
0.04050000 0.04050350 51177.55871313 0 4378.79549226 0 25312.48416160 0 3088.38002899 0 -8460.05095967 0 1822
0.04150000 0.04152450 47987.34962917 0 3669.16197096 0 22600.78957925 0 -5885.80705446 0 -4772.15082394 0 1887
0.04250000 0.04250150 45029.37238931 0 2258.78628309 0 23793.98465435 0 503.12927859 0 -8273.74841445 0 1920
0.04350000 0.04349210 43636.54335723 0 1231.00862415 0 29969.03613342 0 -4682.55159696 0 -224.78266486 0 2005
0.04450000 0.04448520 43358.00003212 0 1570.75729250 0 28588.90903667 0 3699.19698971 0 -6399.22377660 0 2151
0.04550000 0.04548030 43949.25826057 0 1660.36776013 0 33798.16380493 0 4908.44371405 0 6464.02612806 0 2274
0.04650000 0.04648670 41061.19786825 0 967.41986077 0 29878.99852106 0 7896.79319219 0 7247.82546288 0 2311
0.04750000 0.04749250 42224.15559288 0 770.90630843 0 31218.88408820 0 11038.80236581 0 15633.38463016 0 2568
0.04850000 0.04851840 41242.28475153 0 -140.41933300 0 28857.56058914 0 8356.23230951 0 21431.31227720 0 2493
0.04950000 0.04949480 41516.66903587 0 531.10613419 0 23851.87400561 0 6771.30055644 0 18483.22680998 0 2644
0.05050000 0.05050630 41943.58895063 0 364.67593541 0 24816.77146436 0 1252.51198900 0 21516.51640974 0 2829
0.05150000 0.05149060 40170.82592385 0 1400.88857865 0 19750.16055387 0 -885.41818962 0 17662.43449361 0 2784
0.05250000 0.05249300 39481.99884706 0 1386.68039613 0 21984.91432570 0 -3103.25140991 0 11143.55398998 0 3055
0.05350000 0.05348950 37630.21404563 0 1005.46496724 0 20428.87104501 0 -2277.95159259 0 4477.49964633 0 3009
0.05450000 0.05448610 37674.95183554 0 441.81714918 0 21082.51488502 0 78.77785252 0 1846.17571671 0 3336
0.05550000 0.05550870 36814.70483510 0 -186.51836571 0 18416.12012512 0 3320.61187309 0 -1287.51537538 0 3349
0.05650000 0.05647670 35512.02582188 0 141.02183188 0 13909.06880802 0 3990.04882738 0 -4062.66343110 0 3324
0.05750000 0.05747970 36430.61179962 0 169.72708165 0 13846.68319646 0 5018.66953512 0 -2622.09535537 0 3639
0.05850000 0.05849280 33881.56943335 0 1089.54840690 0 10033.98935632 0 2390.88641048 0 -3222.21121659 0 3846
0.05950000 0.05951020 33896.96912485 0 1052.14289346 0 11362.61179142 0 1376.93475194 0 644.93458382 0 3787
0.06050000 0.06049470 32178.38603459 0 670.41713903 0 11288.42349660 0 188.25054999 0 -302.90855964 0 3930
0.06150000 0.06148310 32918.02085269 0 1125.96474307 0 12049.41555109 0 -1485.99154534 0 2538.59980174 0 4083
0.06250000 0.06249100 32453.21994497 0 458.78491146 0 13418.63921663 0 -828.97551011 0 2703.96101464 0 4303
0.06350000 0.06350600 32473.00349025 0 483.17262728 0 15469.15872298 0 1099.10633222 0 6446.83917309 0 4470
0.06450000 0.06451750 32785.83080010 0 -154.02726477 0 14402.64578162 0 1257.52531923 0 4916.32341021 0 4479
0.06550000 0.06550280 33090.90206094 0 -479.04056407 0 15541.77332670 0 3184.28526103 0 5789.29482728 0 4636
0.06650000 0.06648880 33277.72167608 0 38.84274304 0 14373.98212225 0 1078.61237780 0 5360.47524255 0 4653
0.06750000 0.06749660 33495.11586122 0 571.44882967 0 14913.98298337 0 1322.17030158 0 6357.75701605 0 5220
0.06850000 0.06852730 32646.22191802 0 892.17944104 0 13786.77052807 0 -309.70353301 0 8716.41648089 0 5029
0.06950000 0.06949320 32175.80068493 0 222.32096235 0 15035.26960476 0 838.93809885 0 7349.57583330 0 5040
0.07050000 0.07048030 32943.42472334 0 -7.70300437 0 14007.87412795 0 1493.38789352 0 9788.03267768 0 5475
0.07150000 0.07148790 32221.77494642 0 -387.08192451 0 13418.30199711 0 1741.30044539 0 6819.56791068 0 5509
0.07250000 0.07249820 32713.89063542 0 293.95200914 0 12591.55213584 0 1524.50201474 0 6655.48813196 0 5916
0.07350000 0.07351270 31970.20918306 0 609.94805842 0 13437.29869684 0 -185.15037852 0 8021.77798766 0 5721
0.07450000 0.07449140 30757.00574966 0 961.14308140 0 12581.66036320 0 -1132.50680180 0 6428.93281648 0 6028
0.07550000 0.07549160 30670.22792602 0 1060.15522930 0 14386.45924457 0 -582.24659876 0 6465.16143379 0 6183
0.07650000 0.07648840 28817.43146603 0 853.47113618 0 13273.41000918 0 -75.71308910 0 4083.73965122 0 6330
0.07750000 0.07749960 28414.00451129 0 812.29550849 0 12690.02023625 0 222.10514186 0 4313.63343997 0 6583
0.07850000 0.07848650 27717.98341803 0 530.38898068 0 13615.91263696 0 1046.53380875 0 3048.55440345 0 6549
0.07950000 0.07947320 27707.52961285 0 587.13515776 0 12060.99342134 0 1250.49991252 0 2917.10623380 0 6828
0.08050000 0.08048110 26801.42075742 0 244.56508608 0 10644.28924711 0 1809.89089615 0 2087.44504400 0 7147
0.08150000 0.08149960 27157.86179210 0 212.73830760 0 10569.41527259 0 1508.37168094 0 3437.28982768 0 7386
0.08250000 0.08250610 26179.25073946 0 611.18565407 0 8887.66779477 0 1636.43641472 0 2142.70408299 0 7227
0.08350000 0.08350160 25840.56993294 0 910.48821295 0 9037.55063162 0 891.34313662 0 1472.66013357 0 7798
0.08450000 0.08449610 25095.31478947 0 1130.42728141 0 8820.61731316 0 -375.84352191 0 917.01341070 0 7371
0.08550000 0.08548940 23861.65337175 0 1050.29942674 0 8892.79353151 0 -1127.50471222 0 -1062.82375979 0 8256
0.08650000 0.08650700 22993.98754182 0 882.58217345 0 8945.91684686 0 -1782.80092789 0 273.85484969 0 8037
0.08750000 0.08749060 22672.50493092 0 558.38944165 0 10072.05019970 0 -1460.85745030 0 -3598.42455591 0 8155
0.08850000 0.08849210 22319.09887193 0 543.48096658 0 9915.98500495 0 -974.47674130 0 -4059.35867978 0 8718
0.08950000 0.08949900 21902.85757537 0 362.79874673 0 10935.89420837 0 -495.30690975 0 -4515.32443604 0 8571
0.09050000 0.09049190 21408.71856923 0 565.79815454 0 10724.31143966 0 -684.43760268 0 -4558.58970070 0 8932
0.09150000 0.09150830 20927.28149842 0 659.72503205 0 10870.04647639 0 519.45969597 0 -5117.47485504 0 9285
0.09250000 0.09250820 20639.74565272 0 505.94281347 0 10546.45062315 0 1538.21560863 0 -3423.05916386 0 9204
0.09350000 0.09350330 19889.65702944 0 490.66901725 0 10269.30113872 0 1696.75374654 0 -1938.71999418 0 9349
0.09450000 0.09448040 19604.70653341 0 261.69808593 0 10083.95404882 0 2167.02885117 0 -1691.13342118 0 9564
0.09550000 0.09549270 19381.80442942 0 441.79017162 0 9030.82872248 0 1986.20050286 0 -135.28235561 0 10155
0.09650000 0.09649430 18662.74000216 0 528.55450648 0 8608.79849079 0 1385.26407414 0 203.76152393 0 9913
0.09750000 0.09749140 17916.92282616 0 786.20708221 0 7716.04352843 0 1380.75657319 0 1816.73645244 0 10476
0.09850000 0.09850240 17164.92329225 0 531.79068982 0 7100.46053180 0 912.04279495 0 1677.50975249 0 10575
0.09950000 0.09950330 16871.09268214 0 403.40559750 0 7049.88884416 0 896.74651743 0 2431.67873198 0 10882
0.10050000 0.10051200 16457.88636127 0 120.67063373 0 6641.79701937 0 533.33178304 0 1668.67460102 0 10875
0.10150000 0.10150300 16522.29528996 0 -49.33420440 0 6588.04422758 0 433.47995853 0 2184.75535738 0 11118
0.10250000 0.10250800 16394.82631067 0 -38.08231302 0 6320.26944586 0 104.12507029 0 1731.43115405 0 11575
0.10350000 0.10349800 16782.74116740 0 -49.82643250 0 6329.92516484 0 -315.35982845 0 1846.88387770 0 11364
0.10450000 0.10450100 16674.15648134 0 87.11830295 0 6090.80280184 0 -184.63668078 0 1493.62394718 0 12093
0.10550000 0.10551000 16832.87446966 0 148.69357600 0 6737.32006928 0 -640.07412644 0 1316.31392255 0 12067
0.10650000 0.10649700 16498.91473644 0 226.22484035 0 6505.70646097 0 -376.14139915 0 721.86222523 0 12054
0.10750000 0.10749900 16515.55089952 0 336.52372565 0 6746.85214110 0 77.81138137 0 462.37067904 0 12807
0.10850000 0.10850100 16225.76692368 0 337.63879820 0 6808.57455427 0 405.97183806 0 398.90371688 0 12736
0.10950000 0.10950300 15893.04366204 0 289.24330054 0 6050.85352914 0 955.56209832 0 769.08869521 0 12933
0.11050000 0.11050200 15868.20182393 0 156.39004956 0 5915.52733499 0 1396.34735576 0 1099.33339336 0 13428
0.11150000 0.11150900 15544.13386335 0 -58.06065878 0 4747.85977771 0 1361.66994825 0 1604.92887072 0 13453
0.11250000 0.11250000 15591.34459642 0 -175.97126313 0 4296.46896630 0 1173.69254608 0 1034.75697898 0 13668
0.11350000 0.11349100 15636.64441887 0 2.35660243 0 4149.68854906 0 292.02760973 0 1336.53585322 0 13791
0.11450000 0.11448600 15428.80478685 0 119.59265532 0 3759.48059958 0 -151.95673691 0 239.94068237 0 14205
0.11550000 0.11549300 15354.16686600 0 320.81491625 0 4415.18147867 0 -1384.60087574 0 1119.28105215 0 14776
0.11650000 0.11649800 15266.60219680 0 254.83679272 0 4925.61942837 0 -595.35656971 0 544.55444873 0 14553
0.11750000 0.11747300 15344.94953240 0 112.52003788 0 5430.03238927 0 -573.70258014 0 1247.76843439 0 14568
0.11850000 0.11849100 15413.06787583 0 11.62440655 0 5806.65039201 0 290.85520986 0 1042.21852293 0 16015
0.11950000 0.11950300 15521.31534237 0 -64.65071509 0 5691.27635291 0 720.40768502 0 773.30731143 0 15270
0.12050000 0.12050700 15489.84152032 0 29.60967253 0 5915.86455451 0 542.99312234 0 1678.51017041 0 15999
0.12150000 0.12150000 15111.81843624 0 395.15271173 0 5846.45353625 0 365.27281396 0 1373.29278111 0 15670
0.12250000 0.12250700 14861.93877049 0 516.93954208 0 5498.54415548 0 28.52787230 0 1821.61489486 0 16887
0.12350000 0.12352200 14383.76148839 0 496.91769500 0 5270.89849687 0 -343.80429513 0 1299.95877574 0 16407
0.12450000 0.12449800 14078.91504057 0 316.07023758 0 5333.87986292 0 -174.26268422 0 1494.90538137 0 16306
0.12550000 0.12549900 13761.25425091 0 251.79507263 0 4656.40584336 0 -25.06867445 0 46.66230172 0 17523
0.12650000 0.12650100 13560.27141584 0 135.66903400 0 4585.10639577 0 -19.31683347 0 177.82597050 0 17154
0.12750000 0.12750600 13358.72654823 0 170.68478509 0 4017.10507369 0 -63.95255827 0 -851.60294003 0 18007
0.12850000 0.12850300 13364.45928010 0 57.84292738 0 4412.89962658 0 397.96399848 0 -939.52168972 0 17496
0.12950000 0.12949900 13167.52307930 0 93.97004161 0 3856.18391782 0 355.29561237 0 -1104.70530035 0 18405
0.13050000 0.13049000 13076.02418235 0 34.45855204 0 3886.33134308 0 463.73529404 0 -958.56784832 0 18100
0.13150000 0.13148800 12983.17640731 0 74.47459420 0 3572.90827875 0 403.48877831 0 -637.42920133 0 19059
0.13250000 0.13249300 13122.56047637 0 146.90968473 0 4009.73120681 0 311.05353516 0 -274.79681623 0 18957
0.13350000 0.13349100 12839.52089097 0 186.18564245 0 3810.68176366 0 197.17225447 0 191.42828195 0 19468
0.13450000 0.13450700 12828.39264674 0 277.22816898 0 3831.80294639 0 201.72809021 0 541.45315319 0 19953
0.13550000 0.13551000 12658.20919468 0 74.84216348 0 4145.56323024 0 430.53378397 0 913.92223175 0 19956
0.13650000 0.13649900 12456.43951406 0 148.29340883 0 3847.24760049 0 171.49411194 0 825.67862725 0 19723
0.13750000 0.13749600 12548.05081751 0 6.99636087 0 3578.39371631 0 615.24577711 0 580.41437269 0 20946
0.13850000 0.13851100 12410.12803304 0 177.17963308 0 3667.74564897 0 41.48384634 0 372.79842962 0 20955
0.13950000 0.13949800 12349.99055163 0 119.35322946 0 3500.39484088 0 36.55133639 0 394.29392602 0 20506
0.14050000 0.14048300 11999.05743581 0 192.58944117 0 3480.90355252 0 111.37225504 0 317.95192251 0 21447
0.14150000 0.14148400 12067.51299876 0 165.60401096 0 3392.82181339 0 -25.50998239 0 257.03546401 0 21771
0.14250000 0.14249400 11830.11045532 0 15.31729753 0 3456.00551115 0 371.13481332 0 338.65382896 0 22470
0.14350000 0.14350900 11889.79831071 0 209.34475515 0 3490.25577392 0 -130.34208962 0 429.12870263 0 22519
0.14450000 0.14449900 11760.30601428 0 280.76222957 0 3716.36146338 0 -161.93843476 0 430.71251032 0 22218
0.14550000 0.14550500 11585.73870843 0 298.99568912 0 3824.11434129 0 -293.91941125 0 1024.52573868 0 23559
0.14650000 0.14650700 11378.23629594 0 263.67644046 0 4059.06642287 0 13.97201645 0 1050.45679585 0 23044
0.14750000 0.14750500 11132.45946771 0 153.71140249 0 4046.02726802 0 368.81586707 0 1524.80551231 0 23649
0.14850000 0.14849900 11066.72414223 0 162.64434762 0 3787.08763778 0 456.11413284 0 1252.27593534 0 23640
0.14950000 0.14949500 10842.69797316 0 180.26294358 0 3738.30321361 0 536.30605922 0 1209.93240403 0 24457
0.15050000 0.15050000 10612.96155352 0 246.41080093 0 3490.18833002 0 169.84286035 0 774.67867082 0 24591
0.15150000 0.15149900 10381.58399888 0 232.69158672 0 3467.14499602 0 4.25455258 0 865.64925718 0 25020
0.15250000 0.15250500 10109.22303166 0 322.86521095 0 3480.71246145 0 -267.10146673 0 503.19784656 0 25297
0.15350000 0.15350100 9940.65823330 0 174.92251042 0 3497.38234649 0 -215.60692167 0 494.05132906 0 25452
0.15450000 0.15450400 9700.22071417 0 195.12870417 0 3447.53006050 0 -107.35327277 0 -26.70385191 0 26061
0.15550000 0.15549900 9828.99360894 0 97.39900211 0 3380.88424231 0 107.12463794 0 19.49600944 0 26128
0.15650000 0.15649500 9696.67990919 0 21.20458835 0 3343.65520709 0 296.66437816 0 44.07178135 0 26331
0.15750000 0.15749700 9648.27766714 0 1.73968179 0 3154.55373984 0 328.47654379 0 13.63648303 0 27345
0.15850000 0.15849900 9748.70164077 0 -65.73476344 0 3115.17774033 0 388.67360065 0 556.73481786 0 26980
0.15950000 0.15949700 9717.74488865 0 -0.05115193 0 2745.54018170 0 325.90131071 0 562.65526860 0 27777
0.16050000 0.16050000 9858.82629598 0 57.75064163 0 2759.16385038 0 244.26046445 0 849.68191282 0 28224
0.16150000 0.16150500 9754.11963442 0 79.67935271 0 2646.92595283 0 194.19910235 0 1190.26126525 0 28075
0.16250000 0.16249700 9616.77012314 0 151.95111658 0 2988.61925375 0 155.70324580 0 1300.76810259 0 28590
0.16350000 0.16349900 9577.09062606 0 118.55289513 0 2843.86215364 0 120.48403893 0 1702.52020037 0 29163
0.16450000 0.16449100 9435.09872602 0 141.38153270 0 2797.40454417 0 112.17719803 0 1546.18523000 0 28996
0.16550000 0.16550500 9364.58612399 0 116.50035231 0 2822.53863920 0 66.89850801 0 1494.25342362 0 30777
0.16650000 0.16650700 9117.43793637 0 232.08796377 0 2895.49046245 0 -7.07551753 0 895.35042861 0 29211
0.16750000 0.16749900 8948.56964043 0 228.12900659 0 2771.86578571 0 -188.48660365 0 850.44515301 0 30922
0.16850000 0.16850800 8773.39533944 0 215.66874525 0 2613.02415023 0 -162.16774403 0 459.38628627 0 30867
0.16950000 0.16949900 8561.04820648 0 204.18866866 0 2601.80598080 0 -59.98191080 0 353.06097100 0 30852
0.17050000 0.17049200 8501.66384867 0 64.14342452 0 2361.90801290 0 8.21685948 0 -103.72625200 0 31257
0.17150000 0.17149500 8412.01965909 0 31.91782775 0 2382.74817935 0 261.47552104 0 -502.34580523 0 32608
0.17250000 0.17250900 8439.62669729 0 41.37211427 0 1949.97188556 0 93.36001149 0 -292.65371398 0 32361
0.17350000 0.17350400 8302.63688683 0 73.59827307 0 1948.54432292 0 227.36576640 0 -670.74199383 0 32508
0.17450000 0.17449800 8407.56836140 0 136.30637889 0 1884.91099913 0 29.45590043 0 -369.95117279 0 32791
0.17550000 0.17549800 8191.69166411 0 82.09654224 0 1861.35059520 0 255.08296297 0 -492.62039422 0 33633
0.17650000 0.17650100 8111.32101139 0 166.34814204 0 1945.31825616 0 30.85760957 0 -196.39440144 0 33984
0.17750000 0.17750300 8077.91379742 0 148.22596493 0 1638.40352860 0 146.90406440 0 -239.90021603 0 34069
