### header ###
fiducial parameters:
Omega_m = 0.31
Omega_nu = 0
Omega_de = 0.69
Omega_k = 0
H_0 = 100
w_de = -1
zeff = 0
beta = 0
fgrowth = 0
b_1 = 2
gamma = 0.55
Lx = 3500 Ly = 3500 Lz = 3500
nx = 700 ny = 700 nz = 700
xoffset = 857.220397 yoffset = 15.9954215 zoffset = 262.898189
bins = 400 dk = 0.001
kx_ny = 0.628318531 ky_ny = 0.628318531 kz_ny = 0.628318531
############################
A(data) = 3.09790396 (not used)
A(ran) = 3.09658206 (used)
Ngal = 188595
weighted Ngal = 0
Nran = 9360983
weighted Nran = 0
SN(data) = 3444.3336
SN(ran) = 69.5375956
SN(data+ran) = 3513.8712
############################
13 columns: k_central k_mean P_0(k) sigma^{lin}_{P_0(k)} P^img_1(k) sigma^{lin}_{P_1(k)} P_2(k) sigma^{lin}_{P_2(k)} P^img_3(k) sigma^{lin}_{P_3(k)} P_4(k) sigma^{lin}_{P_4(k)} N_modes
### header ###
0.00050000 0 0 0 0 0 0 0 0 0 0 0 0
0.00150000 0.00179520 49178.74620014 0 -71250.21353648 0 -50282.57810193 0 97468.24452096 0 -35723.68727515 0 3
0.00250000 0.00253879 92593.06189242 0 -86268.84697815 0 -53506.73395110 0 -40512.09208004 0 34000.60792459 0 6
0.00350000 0.00331552 130606.24490846 0 -71024.72608281 0 -79237.37031989 0 -60046.99417242 0 -6099.63795332 0 7
0.00450000 0.00420575 165586.02591823 0 -46038.89523146 0 -107210.62891602 0 -44968.22324933 0 2993.94732220 0 24
0.00550000 0.00557378 167118.12661286 0 4644.34462513 0 -93495.79855263 0 -72328.19194158 0 27652.00079824 0 45
0.00650000 0.00659388 155418.85733205 0 20734.50433839 0 -121456.35521343 0 -35052.95764603 0 -4573.73085723 0 40
0.00750000 0.00754703 124067.55837824 0 24427.62013605 0 -28433.00121103 0 -73348.61821494 0 43293.47869692 0 57
0.00850000 0.00846663 103583.94536417 0 21893.30302224 0 -50019.20965530 0 -32626.32596622 0 -14478.63258056 0 75
0.00950000 0.00948925 89738.38623278 0 10603.51940691 0 19498.48238401 0 -24374.33945159 0 18898.23163497 0 112
0.01050000 0.01054430 86393.16857524 0 2078.35135756 0 13603.99754718 0 -28506.51506681 0 34763.28607669 0 105
0.01150000 0.01145670 86880.45078443 0 326.67916374 0 33827.27709032 0 1753.84501160 0 17790.80272495 0 144
0.01250000 0.01249090 86238.16000166 0 2523.23383219 0 28540.34942551 0 8123.35974832 0 27546.78830740 0 169
0.01350000 0.01339930 85460.75659710 0 2662.56169800 0 25007.97493329 0 24887.69997047 0 14228.41569529 0 180
0.01450000 0.01448870 76945.85126187 0 6870.57798370 0 16122.57774997 0 15028.86243384 0 17418.17515322 0 267
0.01550000 0.01550050 70027.23073694 0 5956.18476869 0 10175.71148074 0 9827.08269832 0 -5765.11618756 0 238
0.01650000 0.01653350 62660.55787388 0 5361.19464419 0 8874.72980578 0 -15033.69591366 0 1326.11576999 0 315
0.01750000 0.01747870 65720.93744190 0 4476.34185930 0 18692.41532009 0 -15993.87229910 0 -7103.31565709 0 297
0.01850000 0.01844180 59985.28299990 0 -504.55122091 0 25847.98876242 0 -24574.19822159 0 -8911.59914018 0 388
0.01950000 0.01947590 70872.07804588 0 -786.79946450 0 40501.97549439 0 -16630.76756952 0 -26805.35498518 0 399
0.02050000 0.02045430 70511.47797043 0 -1515.74554782 0 43840.11154197 0 -9188.31023923 0 -25494.24548392 0 462
0.02150000 0.02154770 77551.94714928 0 2630.89678489 0 55282.75676659 0 1409.24038214 0 -27006.11300724 0 571
0.02250000 0.02255340 75763.22239846 0 505.30322044 0 54586.62326682 0 4932.70103833 0 -29141.38702009 0 510
0.02350000 0.02348930 76416.41661244 0 5273.85478801 0 58026.71201654 0 17081.85488335 0 -19325.26395624 0 555
0.02450000 0.02439640 71093.85608481 0 4341.90367656 0 44327.61856417 0 20838.03073162 0 -21374.77180402 0 592
0.02550000 0.02547300 64273.14162775 0 3434.11996417 0 35391.86326557 0 18192.20636256 0 -5534.08709309 0 837
0.02650000 0.02652900 62014.55767637 0 2181.73162233 0 27200.12663885 0 15942.27771224 0 -7133.82278317 0 723
0.02750000 0.02749970 59495.97747358 0 -37.70698769 0 16253.41892448 0 5438.00201064 0 -3420.37264833 0 826
0.02850000 0.02848090 58188.80220008 0 -1500.97533276 0 13970.66757403 0 5624.60805342 0 -8555.95619170 0 831
0.02950000 0.02946900 60559.56784575 0 -2055.92625935 0 10722.04082822 0 -4327.69549403 0 -5745.09658861 0 996
0.03050000 0.03053250 61300.10191591 0 942.35882997 0 14200.76369449 0 -10146.84548966 0 -17057.01304524 0 1041
0.03150000 0.03150510 59261.83471886 0 2417.51551206 0 20325.23224527 0 -10111.89830654 0 -21827.32040245 0 1036
0.03250000 0.03246190 58589.64380515 0 3392.30474346 0 26794.45155397 0 -10617.10935364 0 -16361.44157800 0 1059
0.03350000 0.03345080 57074.17927359 0 2295.05986300 0 25117.23405840 0 -3666.56538064 0 -21709.40597629 0 1302
0.03450000 0.03451200 57296.29453204 0 1325.92467893 0 35874.76162097 0 1488.32960069 0 -13676.72455741 0 1339
0.03550000 0.03553350 56353.54115523 0 1838.52083356 0 30573.33351672 0 8855.74434670 0 -9422.86889803 0 1365
0.03650000 0.03647120 54777.71432925 0 1910.66332995 0 33154.63655058 0 9393.64320613 0 -5843.91314919 0 1308
0.03750000 0.03744890 52959.76388653 0 2141.98468135 0 24943.34119159 0 13523.17726843 0 857.93142639 0 1579
0.03850000 0.03847530 50056.19139621 0 2751.37407942 0 23465.30802697 0 8949.68246486 0 1649.65541998 0 1662
0.03950000 0.03950240 48205.08103383 0 2642.19363887 0 18882.38231744 0 2474.14591045 0 941.28647189 0 1683
0.04050000 0.04050350 45922.66690290 0 823.07754067 0 22058.20336847 0 -2416.89727627 0 -305.81876411 0 1822
0.04150000 0.04152450 45224.95971203 0 477.23081930 0 19797.59609996 0 -2592.49872199 0 8710.45893600 0 1887
0.04250000 0.04250150 45772.49180913 0 82.68937416 0 21180.75817241 0 -2419.57255115 0 -1193.29624095 0 1920
0.04350000 0.04349210 47481.96997230 0 -990.66327835 0 17555.87312468 0 3740.95600718 0 3915.60199759 0 2005
0.04450000 0.04448520 48129.65626742 0 324.40068384 0 21373.76014546 0 2487.71337588 0 -717.02874541 0 2151
0.04550000 0.04548030 46622.62222392 0 91.20967501 0 14401.07209052 0 6231.06364166 0 4149.08155392 0 2274
0.04650000 0.04648670 45348.38205705 0 1427.52892088 0 17981.21934834 0 4200.60869687 0 1588.37139219 0 2311
0.04750000 0.04749250 44156.76067306 0 1321.37221538 0 11741.42172106 0 1760.24094187 0 -2745.14675892 0 2568
0.04850000 0.04851840 43792.78840239 0 1862.99173020 0 13011.05322112 0 1631.60293490 0 -342.03276857 0 2493
0.04950000 0.04949480 41867.37733868 0 2254.69468623 0 12468.12979082 0 -5170.01365656 0 -5899.77918332 0 2644
0.05050000 0.05050630 39576.53271970 0 2025.45285522 0 14211.66712570 0 -2595.41005053 0 -5566.57257370 0 2829
0.05150000 0.05149060 37326.26684987 0 1401.52929574 0 14467.05471031 0 -4000.07548783 0 -9055.10852806 0 2784
0.05250000 0.05249300 38024.98569930 0 885.83296964 0 15774.11757731 0 -1949.08387415 0 -10762.36104239 0 3055
0.05350000 0.05348950 36706.12014904 0 251.38703701 0 17124.68176264 0 948.45913112 0 -10291.16420440 0 3009
0.05450000 0.05448610 37874.58579252 0 -421.03880630 0 15603.14727969 0 1716.46984792 0 -9866.66102954 0 3336
0.05550000 0.05550870 37783.87374112 0 -794.03844357 0 16275.11338039 0 2669.11499738 0 -9626.08862259 0 3349
0.05650000 0.05647670 37487.34537484 0 -159.53181143 0 14639.59869903 0 2513.65679777 0 -9272.23293758 0 3324
0.05750000 0.05747970 39277.86862978 0 -491.02197369 0 13705.50062328 0 1072.78747259 0 -8810.14102668 0 3639
0.05850000 0.05849280 39416.35344679 0 -640.65751622 0 13779.01447906 0 2385.81687700 0 -6884.14544913 0 3846
0.05950000 0.05951020 39804.94274256 0 -156.52718549 0 12777.36009242 0 2289.46201894 0 -3087.71683060 0 3787
0.06050000 0.06049470 39323.95529778 0 1076.77677954 0 12176.88453038 0 1471.23257093 0 -4534.86068701 0 3930
0.06150000 0.06148310 38262.61305576 0 1038.27642672 0 13121.77363082 0 2902.25733419 0 -792.37257913 0 4083
0.06250000 0.06249100 37086.84098930 0 1346.76484538 0 13884.67659593 0 1536.23725410 0 -1544.57781695 0 4303
0.06350000 0.06350600 35811.81397688 0 877.21026646 0 12034.01585958 0 1403.13670880 0 1128.81986836 0 4470
0.06450000 0.06451750 34990.79684749 0 1306.26478080 0 12635.50308020 0 24.82295382 0 -486.97084316 0 4479
0.06550000 0.06550280 34262.17786710 0 1708.54518916 0 15695.77024171 0 -1470.76046360 0 1806.65358874 0 4636
0.06650000 0.06648880 32335.19311229 0 2226.95276022 0 13453.03560786 0 -1020.83880524 0 1155.17919432 0 4653
0.06750000 0.06749660 30735.76091978 0 1398.67417046 0 15236.47725284 0 -17.38568967 0 781.15103751 0 5220
0.06850000 0.06852730 29723.54032145 0 716.13848588 0 12938.55102391 0 -178.80615524 0 -21.96996426 0 5029
0.06950000 0.06949320 29271.77856857 0 623.86623216 0 13603.77273417 0 1510.17018506 0 -2462.34322718 0 5040
0.07050000 0.07048030 28524.72492099 0 1032.77075599 0 11715.11859835 0 -335.84816254 0 -1593.69946064 0 5475
0.07150000 0.07148790 27810.60638005 0 764.49239313 0 10954.91338941 0 1820.71564280 0 -2431.63376938 0 5509
0.07250000 0.07249820 27710.56458855 0 -181.52976492 0 10735.56333104 0 942.77810624 0 -1206.58269012 0 5916
0.07350000 0.07351270 27355.80965148 0 -817.52690734 0 7994.69926005 0 2821.27968632 0 -2558.88917631 0 5721
0.07450000 0.07449140 27987.98384859 0 -555.56803831 0 7718.21297402 0 3223.60505728 0 -2995.08262792 0 6028
0.07550000 0.07549160 28222.91344887 0 -342.39359346 0 7569.56660876 0 1468.06270742 0 -3012.83161543 0 6183
0.07650000 0.07648840 27934.14113159 0 428.62736961 0 5707.06946719 0 347.45413442 0 -2673.10542838 0 6330
0.07750000 0.07749960 28411.64397464 0 595.34870125 0 7103.97885548 0 -376.39993412 0 293.96774605 0 6583
0.07850000 0.07848650 27074.45616368 0 282.52026734 0 6343.75116524 0 -18.71455940 0 -204.96652169 0 6549
0.07950000 0.07947320 27509.69415998 0 346.36716349 0 8973.35527530 0 819.02416202 0 1920.63378715 0 6828
0.08050000 0.08048110 27202.14995598 0 566.69403441 0 6877.43478065 0 788.82390570 0 73.91357332 0 7147
0.08150000 0.08149960 26521.86577374 0 1270.19353260 0 8419.44972923 0 -221.98486690 0 718.68449327 0 7386
0.08250000 0.08250610 25407.13044075 0 1368.32441348 0 7575.44546909 0 -1046.94184437 0 -329.73100041 0 7227
0.08350000 0.08350160 24548.11991189 0 699.70465451 0 8769.67468405 0 -1122.57006655 0 -87.64571429 0 7798
0.08450000 0.08449610 24181.89951107 0 204.02343109 0 8919.72613066 0 -398.26187572 0 285.68900678 0 7371
0.08550000 0.08548940 23940.33792686 0 26.39979231 0 8474.30410479 0 551.17856420 0 -1758.75717597 0 8256
0.08650000 0.08650700 24021.49542514 0 319.74593037 0 8616.19483897 0 1279.78180768 0 -1228.89538182 0 8037
0.08750000 0.08749060 23301.98137185 0 522.78692859 0 7766.16559004 0 1799.45957227 0 -1433.50894707 0 8155
0.08850000 0.08849210 22688.35424845 0 512.26680357 0 6853.37978808 0 2931.04464071 0 -295.31550007 0 8718
0.08950000 0.08949900 22087.20424735 0 406.73395418 0 5391.92658329 0 2641.47423723 0 643.73295826 0 8571
0.09050000 0.09049190 21335.87915249 0 355.43949270 0 4385.03405341 0 2376.53209950 0 1151.85196171 0 8932
0.09150000 0.09150830 21308.56437122 0 372.25775432 0 3598.70557218 0 1582.30144080 0 2316.58570915 0 9285
0.09250000 0.09250820 20396.27315789 0 511.60810144 0 2313.05614482 0 -377.99835465 0 2518.98486621 0 9204
0.09350000 0.09350330 20259.02481247 0 586.37528977 0 3623.98579567 0 -955.35077408 0 3495.04429114 0 9349
0.09450000 0.09448040 19936.86776252 0 423.42856865 0 3214.72494321 0 -1405.07010072 0 1834.28310824 0 9564
0.09550000 0.09549270 19621.45510300 0 314.31444794 0 4553.20542900 0 -930.61797028 0 2153.54007030 0 10155
0.09650000 0.09649430 19555.80970273 0 419.13351600 0 5547.71076177 0 -1659.49098937 0 374.25072170 0 9913
0.09750000 0.09749140 19243.76923844 0 499.26024661 0 6417.11889256 0 -1434.10470156 0 670.12038585 0 10476
0.09850000 0.09850240 19046.49581811 0 829.31722589 0 7854.40469828 0 -1432.49728851 0 222.07366804 0 10575
0.09950000 0.09950330 18471.08690719 0 637.05938392 0 7456.73295672 0 -427.38977396 0 101.35009084 0 10882
0.10050000 0.10051200 18045.74068353 0 318.85791896 0 8658.24611335 0 -101.97529584 0 554.14159974 0 10875
0.10150000 0.10150300 17952.55568897 0 171.51546918 0 7398.27033227 0 1091.11085735 0 -176.04207923 0 11118
0.10250000 0.10250800 17772.59287077 0 86.90630428 0 8441.53760791 0 1024.93489837 0 1026.56142053 0 11575
0.10350000 0.10349800 17580.71496279 0 177.26281390 0 6876.98515462 0 856.62076652 0 -48.54398665 0 11364
0.10450000 0.10450100 17497.64655389 0 -36.21737666 0 7044.39216595 0 736.55263167 0 1319.09036328 0 12093
0.10550000 0.10551000 17578.46683265 0 -86.18870114 0 6342.36856520 0 128.83921461 0 459.59199018 0 12067
0.10650000 0.10649700 17454.14523556 0 67.36061116 0 6048.34686403 0 471.30699637 0 1104.79297742 0 12054
0.10750000 0.10749900 17365.23168828 0 133.82556728 0 5844.45270042 0 91.16516203 0 -61.21399853 0 12807
0.10850000 0.10850100 17225.84761921 0 412.41835125 0 5942.61730325 0 583.95180547 0 950.93881867 0 12736
0.10950000 0.10950300 16818.59884323 0 385.41268787 0 5456.93126647 0 701.80440806 0 980.50173009 0 12933
0.11050000 0.11050200 16322.99855250 0 294.81529111 0 5788.26068742 0 820.81592174 0 1215.56397005 0 13428
0.11150000 0.11150900 16190.69609340 0 203.96048345 0 4977.60743800 0 1169.36489555 0 2643.82353323 0 13453
0.11250000 0.11250000 16031.52847905 0 206.48738173 0 5228.44255906 0 1502.54902386 0 2933.96720990 0 13668
0.11350000 0.11349100 15691.04916841 0 112.74372683 0 3974.72782043 0 1217.01401399 0 3946.48006514 0 13791
0.11450000 0.11448600 15630.91168699 0 43.92025738 0 4057.24543745 0 1270.35090171 0 3941.35432841 0 14205
0.11550000 0.11549300 15350.56985776 0 87.27466041 0 3062.85251118 0 363.46644139 0 4467.94509321 0 14776
0.11650000 0.11649800 15329.54984090 0 124.20581838 0 2687.71827434 0 226.74078622 0 3803.11680572 0 14553
0.11750000 0.11747300 15295.15344966 0 143.68474203 0 2889.38678910 0 -867.32299008 0 3562.82541504 0 14568
0.11850000 0.11849100 15135.87342880 0 177.68995863 0 3168.89681018 0 -710.31020847 0 2326.74725741 0 16015
0.11950000 0.11950300 15164.98671419 0 229.99270648 0 3081.65811985 0 -1309.15362804 0 1627.15163722 0 15270
0.12050000 0.12050700 15069.66599600 0 246.63561395 0 3926.48294749 0 -1124.33484872 0 1155.50517319 0 15999
0.12150000 0.12150000 14790.22341882 0 338.10753334 0 4968.72732392 0 -863.27635581 0 1148.14254696 0 15670
0.12250000 0.12250700 14756.27665362 0 397.29742789 0 5114.52980455 0 -294.95355112 0 1077.67827973 0 16887
0.12350000 0.12352200 14465.36861270 0 471.41265849 0 5717.36590326 0 -132.01132625 0 961.95240826 0 16407
0.12450000 0.12449800 14208.51974349 0 419.16498982 0 5965.50326814 0 184.83564030 0 1592.01336303 0 16306
0.12550000 0.12549900 13932.33695503 0 237.06419985 0 6166.84580404 0 167.88136680 0 1972.32953986 0 17523
0.12650000 0.12650100 13704.48896472 0 112.31826820 0 6330.41975347 0 773.57708705 0 1910.03385351 0 17154
0.12750000 0.12750600 13855.90053006 0 -41.25026561 0 5812.11334827 0 609.68390313 0 1815.03911418 0 18007
0.12850000 0.12850300 13647.94849154 0 -155.99550271 0 5318.40148686 0 550.24559019 0 1067.09633113 0 17496
0.12950000 0.12949900 13731.46652647 0 134.34825754 0 4845.11388783 0 285.20116254 0 1349.48508286 0 18405
0.13050000 0.13049000 13448.42694107 0 170.17670768 0 4533.36568046 0 434.11617936 0 599.01652558 0 18100
0.13150000 0.13148800 13183.93442936 0 399.29264340 0 4444.03622910 0 311.23001337 0 1561.71980931 0 19059
0.13250000 0.13249300 13064.55871860 0 335.86052726 0 4375.27716858 0 275.25093851 0 1023.99742810 0 18957
0.13350000 0.13349100 12623.81280344 0 256.74545522 0 3884.33050725 0 640.01230287 0 1485.63184451 0 19468
0.13450000 0.13450700 12699.57478937 0 193.99452251 0 4340.95946190 0 404.64544127 0 1790.51201429 0 19953
0.13550000 0.13551000 12371.90982056 0 207.63842437 0 4207.52169707 0 289.98743162 0 2868.67026980 0 19956
0.13650000 0.13649900 12380.90234114 0 173.76472339 0 4438.03372161 0 637.25721937 0 3217.71495630 0 19723
0.13750000 0.13749600 12073.58295016 0 160.04888137 0 4252.29320893 0 179.41539851 0 2497.26792900 0 20946
0.13850000 0.13851100 12015.35637937 0 145.55406225 0 3938.53292508 0 506.67120763 0 2651.17491881 0 20955
0.13950000 0.13949800 11773.00794961 0 110.73985603 0 3977.34689205 0 -86.28874293 0 2170.13127078 0 20506
0.14050000 0.14048300 11624.63135996 0 101.63065749 0 3078.74679131 0 122.36459979 0 1746.77464229 0 21447
0.14150000 0.14148400 11591.13422078 0 129.16069722 0 3157.56623424 0 -359.09270419 0 632.30458866 0 21771
0.14250000 0.14249400 11490.75520976 0 115.37628723 0 2778.01442166 0 -495.46427886 0 211.76261912 0 22470
0.14350000 0.14350900 11315.96309089 0 238.49850688 0 3267.19630082 0 -406.87221418 0 -151.60602860 0 22519
0.14450000 0.14449900 11204.65816735 0 262.68389100 0 3293.76919915 0 -476.14609651 0 52.08411719 0 22218
0.14550000 0.14550500 11093.35324381 0 206.21985425 0 3821.98985830 0 -284.49862187 0 -363.81602562 0 23559
0.14650000 0.14650700 11022.84064178 0 94.35424705 0 3773.61009755 0 -68.61978886 0 -777.53154797 0 23044
0.14750000 0.14750500 10999.34768175 0 40.08584660 0 4102.69138835 0 66.73596820 0 -425.63286025 0 23649
0.14850000 0.14849900 11113.40656472 0 9.61231883 0 3830.11684878 0 -42.13355595 0 -1004.30830428 0 23640
0.14950000 0.14949500 11052.14501823 0 -21.91196250 0 3887.86007158 0 209.14354750 0 -851.87721191 0 24457
0.15050000 0.15050000 10920.60692338 0 165.84793308 0 3616.24098732 0 150.18745848 0 -1225.52318660 0 24591
0.15150000 0.15149900 10787.77615369 0 331.80939673 0 3342.47493876 0 179.11190094 0 -1164.11551165 0 25020
0.15250000 0.15250500 10407.68478987 0 363.58784041 0 3416.24732951 0 253.63741529 0 -1009.15752100 0 25297
0.15350000 0.15350100 10178.08325804 0 344.81258150 0 3183.16119595 0 557.07203738 0 -606.66691247 0 25452
0.15450000 0.15450400 9890.87339121 0 77.59151424 0 3004.49105259 0 623.43121897 0 -576.78701470 0 26061
0.15550000 0.15549900 9865.37959536 0 -60.46278584 0 2565.83589846 0 586.14485643 0 -136.85492265 0 26128
0.15650000 0.15649500 9904.23852493 0 -84.65626322 0 2668.80025915 0 497.76748819 0 -53.94455730 0 26331
0.15750000 0.15749700 10063.34993603 0 -57.81336447 0 2185.59840618 0 303.67179982 0 66.55746667 0 27345
0.15850000 0.15849900 9931.11492083 0 5.58165753 0 2090.04163432 0 21.57699111 0 158.15820392 0 26980
0.15950000 0.15949700 10125.24095895 0 127.85228548 0 2268.18346710 0 -71.12544231 0 19.56176725 0 27777
0.16050000 0.16050000 9759.50390612 0 213.17781705 0 2277.98531454 0 -94.13662805 0 -35.27282477 0 28224
0.16150000 0.16150500 9559.79126458 0 300.13886330 0 2595.81471396 0 -89.00144917 0 329.91647115 0 28075
0.16250000 0.16249700 9414.22483762 0 218.23048955 0 2453.58676026 0 -278.15215047 0 42.36871036 0 28590
0.16350000 0.16349900 9332.99989543 0 112.94043822 0 2799.88872798 0 282.96989337 0 430.69789747 0 29163
0.16450000 0.16449100 9276.39197835 0 38.50709721 0 2602.12071902 0 235.59392274 0 596.82347463 0 28996
0.16550000 0.16550500 9344.36419332 0 -1.68589528 0 2546.18724098 0 419.42015260 0 413.00960948 0 30777
0.16650000 0.16650700 9213.68038793 0 128.26032110 0 2348.64404503 0 102.49809850 0 351.64914527 0 29211
0.16750000 0.16749900 9098.89086266 0 261.73630414 0 2020.14726807 0 117.11633997 0 586.06504781 0 30922
0.16850000 0.16850800 8755.99481211 0 342.76903120 0 2078.41880146 0 144.18495099 0 604.63460282 0 30867
0.16950000 0.16949900 8593.12902367 0 167.19793523 0 1948.76913593 0 136.64472248 0 901.88461888 0 30852
0.17050000 0.17049200 8397.23820338 0 80.52869628 0 1986.99858907 0 350.04622848 0 668.44215669 0 31257
0.17150000 0.17149500 8378.36515080 0 -12.10629324 0 1623.08252165 0 338.07043919 0 748.04956924 0 32608
0.17250000 0.17250900 8436.82777526 0 -43.51165973 0 1653.65709164 0 297.83452990 0 1014.31697969 0 32361
0.17350000 0.17350400 8465.96354195 0 -48.96708475 0 1601.00588362 0 62.92381391 0 703.66361169 0 32508
0.17450000 0.17449800 8584.91210799 0 15.30257228 0 1551.10863502 0 -123.72134634 0 986.23558603 0 32791
0.17550000 0.17549800 8624.15321969 0 33.99554963 0 1740.67096895 0 -413.74587211 0 734.21008006 0 33633
0.17650000 0.17650100 8617.97086179 0 104.38293082 0 1910.61836735 0 -349.70676083 0 727.69162670 0 33984
0.17750000 0.17750300 8579.20185741 0 174.91239383 0 2316.93416932 0 -436.73974724 0 638.51729632 0 34069
