### header ###
fiducial parameters:
Omega_m = 0.31
Omega_nu = 0
Omega_de = 0.69
Omega_k = 0
H_0 = 100
w_de = -1
zeff = 0
beta = 0
fgrowth = 0
b_1 = 2
gamma = 0.55
Lx = 3500 Ly = 3500 Lz = 3500
nx = 700 ny = 700 nz = 700
xoffset = 857.220397 yoffset = 15.9954215 zoffset = 262.898189
bins = 400 dk = 0.001
kx_ny = 0.628318531 ky_ny = 0.628318531 kz_ny = 0.628318531
############################
A(data) = 3.08769783 (not used)
A(ran) = 3.08413355 (used)
Ngal = 187884
weighted Ngal = 0
Nran = 9360983
weighted Nran = 0
SN(data) = 3455.26585
SN(ran) = 69.2580487
SN(data+ran) = 3524.5239
############################
13 columns: k_central k_mean P_0(k) sigma^{lin}_{P_0(k)} P^img_1(k) sigma^{lin}_{P_1(k)} P_2(k) sigma^{lin}_{P_2(k)} P^img_3(k) sigma^{lin}_{P_3(k)} P_4(k) sigma^{lin}_{P_4(k)} N_modes
### header ###
0.00050000 0 0 0 0 0 0 0 0 0 0 0 0
0.00150000 0.00179520 17811.48552230 0 -15935.42091530 0 -10363.28421949 0 36618.44307334 0 -36119.13336786 0 3
0.00250000 0.00253879 40014.80569170 0 -26660.91262329 0 -10164.30222025 0 -11546.50883738 0 63014.52596540 0 6
0.00350000 0.00331552 49766.63223338 0 -20186.63502176 0 -14505.16051629 0 -11908.90741695 0 -28488.97965167 0 7
0.00450000 0.00420575 66140.43852718 0 -12686.98526055 0 -17122.99566503 0 -10902.18349683 0 15570.54939257 0 24
0.00550000 0.00557378 73837.13689571 0 -4793.11463755 0 -4313.29622045 0 4469.10288023 0 29488.27350165 0 45
0.00650000 0.00659388 75698.13903073 0 6138.65425200 0 -2643.21653809 0 22493.21655176 0 6968.12435074 0 40
0.00750000 0.00754703 66875.80189800 0 9670.71400600 0 18311.69447983 0 29242.77768969 0 39499.30944918 0 57
0.00850000 0.00846663 64133.42033916 0 12031.99254245 0 15056.96406067 0 36645.87026112 0 27844.32833225 0 75
0.00950000 0.00948925 56144.68986465 0 9838.93034419 0 32729.62754644 0 33653.83384954 0 51916.85631171 0 112
0.01050000 0.01054430 41833.99260601 0 5913.06563248 0 26691.26238026 0 30136.52182931 0 33147.89216014 0 105
0.01150000 0.01145670 43812.12232165 0 1232.45866810 0 27307.02522730 0 22804.24535748 0 35658.82872043 0 144
0.01250000 0.01249090 42874.20242465 0 -5888.87575211 0 19616.73402970 0 15226.36066719 0 32469.29407551 0 169
0.01350000 0.01339930 44877.96082396 0 -5819.28488343 0 13757.88205569 0 13731.80374599 0 34920.09315439 0 180
0.01450000 0.01448870 50566.06731336 0 -6694.14472983 0 1390.29988566 0 8451.01347648 0 27207.99509436 0 267
0.01550000 0.01550050 55021.74885662 0 -5227.70067611 0 -1243.15976759 0 2620.40925776 0 11874.06139968 0 238
0.01650000 0.01653350 56598.02530863 0 1202.82831277 0 -8661.50590207 0 -2879.19151889 0 17648.94571273 0 315
0.01750000 0.01747870 54498.04693906 0 3251.21209548 0 1010.69524202 0 -5088.28288510 0 17818.11750623 0 297
0.01850000 0.01844180 51833.22587027 0 5018.97303269 0 -1451.89865167 0 -12257.70480913 0 18932.74043272 0 388
0.01950000 0.01947590 52342.76456790 0 4397.35380661 0 9334.22512636 0 -3946.58123100 0 21129.83802460 0 399
0.02050000 0.02045430 50511.66256383 0 1856.68572514 0 17748.65028471 0 6127.36863867 0 29057.30695263 0 462
0.02150000 0.02154770 51907.75138461 0 -900.01754679 0 22890.68596160 0 8186.43103957 0 34425.16730270 0 571
0.02250000 0.02255340 52646.03732463 0 -841.74151714 0 18622.83569206 0 10073.92738837 0 28565.86570267 0 510
0.02350000 0.02348930 54027.06367344 0 -1387.68081404 0 23802.63995541 0 5618.65050854 0 30271.63445110 0 555
0.02450000 0.02439640 56465.04841048 0 -1030.03702973 0 27681.33889665 0 5479.79475006 0 28791.91518887 0 592
0.02550000 0.02547300 56528.22086759 0 -1.03178720 0 28777.86437545 0 1850.10994446 0 29678.12809250 0 837
0.02650000 0.02652900 62788.13925968 0 -1017.32272969 0 40388.33251549 0 -7808.16066117 0 34059.50893443 0 723
0.02750000 0.02749970 61673.06670716 0 870.55917342 0 39551.24125556 0 197.25768342 0 21019.56724092 0 826
0.02850000 0.02848090 64968.82550149 0 1303.01623274 0 47777.59908653 0 -3334.52779870 0 23878.73916086 0 831
0.02950000 0.02946900 62322.43909989 0 1926.92855156 0 42747.07066489 0 7703.92610694 0 25370.37351286 0 996
0.03050000 0.03053250 62191.82273840 0 3293.57810808 0 44305.58688874 0 3576.05566095 0 18437.25254849 0 1041
0.03150000 0.03150510 57654.75888385 0 3800.72254711 0 38296.67222747 0 8995.19585967 0 13270.59984650 0 1036
0.03250000 0.03246190 56404.01167701 0 2333.85134867 0 33750.05381980 0 9840.87497676 0 9649.01955009 0 1059
0.03350000 0.03345080 53804.49878896 0 1067.98659067 0 27414.37344179 0 9570.88578685 0 6070.61459313 0 1302
0.03450000 0.03451200 51744.87435552 0 -1553.62654078 0 21509.65961280 0 8477.22667398 0 1961.65092167 0 1339
0.03550000 0.03553350 51976.43176058 0 -1107.65934336 0 14450.86817325 0 7764.61438024 0 -6480.05529600 0 1365
0.03650000 0.03647120 53533.82391936 0 971.14164023 0 13536.66604930 0 -557.98140603 0 -6896.55512754 0 1308
0.03750000 0.03744890 49657.37310827 0 2022.72137709 0 13121.54881781 0 -3046.99195300 0 -12210.83129558 0 1579
0.03850000 0.03847530 48855.68989814 0 3157.89221311 0 13890.85895384 0 -5482.07660216 0 -11673.64059715 0 1662
0.03950000 0.03950240 47151.71965383 0 1885.38310646 0 16608.39867456 0 -8418.40434871 0 -13938.51931294 0 1683
0.04050000 0.04050350 45091.08356182 0 1110.33012197 0 18930.94192860 0 -7631.50259428 0 -20224.40360821 0 1822
0.04150000 0.04152450 45729.55252334 0 1774.61773416 0 26303.23511703 0 -7064.20943319 0 -15856.62395367 0 1887
0.04250000 0.04250150 43445.45229480 0 2010.37914259 0 23672.36081344 0 -3116.32428671 0 -21962.54543075 0 1920
0.04350000 0.04349210 43899.79939735 0 1022.39788350 0 28040.59009401 0 944.13035652 0 -14707.49222944 0 2005
0.04450000 0.04448520 42564.29768400 0 416.19858210 0 22873.71257900 0 7662.89773178 0 -14553.04568840 0 2151
0.04550000 0.04548030 43685.55259442 0 -728.56052900 0 18956.68301877 0 12379.21624353 0 -10445.21732266 0 2274
0.04650000 0.04648670 42509.66812145 0 -1013.52226568 0 10341.27502535 0 9438.23486758 0 -11297.97804972 0 2311
0.04750000 0.04749250 43892.15575485 0 257.85041118 0 11276.73321984 0 6914.05682073 0 -3694.56584161 0 2568
0.04850000 0.04851840 41935.49568211 0 1421.12174997 0 8056.35422931 0 3896.12194987 0 972.13306562 0 2493
0.04950000 0.04949480 39430.96629274 0 1952.43358807 0 7648.21744192 0 -375.06566888 0 -31.27025386 0 2644
0.05050000 0.05050630 37778.92785480 0 1483.85582170 0 8133.77983155 0 -2848.85300256 0 1169.83700288 0 2829
0.05150000 0.05149060 37573.78597896 0 1557.93171001 0 10144.99078229 0 -217.99555995 0 1310.40134027 0 2784
0.05250000 0.05249300 36025.38634077 0 144.30410189 0 11216.79807014 0 493.56460888 0 3079.62356207 0 3055
0.05350000 0.05348950 36543.35552645 0 -193.19756037 0 11013.44345777 0 265.07252928 0 -97.53962265 0 3009
0.05450000 0.05448610 36521.77347705 0 -249.34910704 0 9685.29312999 0 2255.51525373 0 4564.83950251 0 3336
0.05550000 0.05550870 35789.44508192 0 -10.39682632 0 7875.49215905 0 2821.76303430 0 -51.96193132 0 3349
0.05650000 0.05647670 36359.79570002 0 104.03525749 0 8062.77264088 0 1388.59130675 0 2973.28700616 0 3324
0.05750000 0.05747970 36058.20904090 0 308.77168306 0 4960.97127492 0 2233.37117179 0 1224.21927111 0 3639
0.05850000 0.05849280 35461.21808058 0 652.35790956 0 3206.28321451 0 1162.18211973 0 82.05742478 0 3846
0.05950000 0.05951020 34807.01220804 0 169.38086961 0 2884.46338408 0 -145.36184712 0 1912.70912839 0 3787
0.06050000 0.06049470 34124.59230216 0 905.36247622 0 3485.32112825 0 676.16785594 0 335.42326594 0 3930
0.06150000 0.06148310 34083.33911397 0 546.68567611 0 2813.57984057 0 -939.04845833 0 2715.56136620 0 4083
0.06250000 0.06249100 33168.79977050 0 645.35048790 0 4393.46454146 0 -373.78985502 0 2921.81606646 0 4303
0.06350000 0.06350600 33617.75136070 0 804.26518761 0 6996.50699384 0 -827.63562454 0 4594.62722694 0 4470
0.06450000 0.06451750 33222.08045497 0 1042.96827434 0 8556.27092992 0 -1300.76810259 0 6336.65831463 0 4479
0.06550000 0.06550280 32395.44300021 0 1422.99893864 0 10609.12849162 0 -2995.39736614 0 6735.94870990 0 4636
0.06650000 0.06648880 31908.27319753 0 2008.81669214 0 14058.68186925 0 -2927.69492679 0 5771.15241700 0 4653
0.06750000 0.06749660 30718.33791115 0 1083.74710706 0 16989.45673434 0 -3155.26190084 0 6327.99177292 0 5220
0.06850000 0.06852730 30671.01477157 0 1054.03694311 0 19061.10866406 0 -1847.83933302 0 5885.82953576 0 5029
0.06950000 0.06949320 30900.66126600 0 459.28624448 0 19217.35370922 0 -537.30422901 0 4179.24021983 0 5040
0.07050000 0.07048030 30094.25698256 0 10.88507523 0 19287.04574376 0 2277.47948526 0 3085.71599477 0 5475
0.07150000 0.07148790 30366.73035628 0 372.14309969 0 18295.62034928 0 2646.92595283 0 3404.66945926 0 5509
0.07250000 0.07249820 29817.39975506 0 114.39947468 0 16567.81992542 0 4195.94382682 0 2981.93106657 0 5916
0.07350000 0.07351270 29309.65956154 0 628.07023553 0 14277.31252597 0 2963.36151156 0 1829.62947883 0 5721
0.07450000 0.07449140 28331.72294794 0 423.39821889 0 12764.99537662 0 2416.81859172 0 1703.84659715 0 6028
0.07550000 0.07549160 27628.17061869 0 576.24071907 0 12843.11789920 0 -181.01044685 0 1006.05622546 0 6183
0.07650000 0.07648840 26594.03075144 0 394.00953755 0 10015.92563060 0 96.87642426 0 -840.89509614 0 6330
0.07750000 0.07749960 26147.88932392 0 166.49876676 0 11021.68285475 0 -913.32647726 0 -1951.32076365 0 6583
0.07850000 0.07848650 26070.66605340 0 370.46037427 0 9205.48595354 0 337.23638291 0 -3451.73406387 0 6549
0.07950000 0.07947320 26009.17969390 0 408.56393212 0 10030.72956761 0 746.64336383 0 -3093.56196898 0 6828
0.08050000 0.08048110 25140.27739240 0 820.13698644 0 8888.51084358 0 406.50127271 0 -3671.98337429 0 7147
0.08150000 0.08149960 24278.90632688 0 785.55737260 0 7865.21820428 0 1407.28450892 0 -3739.87690471 0 7386
0.08250000 0.08250610 23727.10278250 0 532.03123975 0 8734.15422774 0 1940.66462675 0 -941.60233417 0 7227
0.08350000 0.08350160 23141.46487941 0 298.08519641 0 6746.75097525 0 2057.87089193 0 -2321.72268653 0 7798
0.08450000 0.08449610 23110.32827689 0 -61.30133839 0 6952.98319421 0 1945.38570006 0 -842.52274237 0 7371
0.08550000 0.08548940 22673.29177647 0 205.69379179 0 6247.35134457 0 839.61815822 0 -1957.75041586 0 8256
0.08650000 0.08650700 22434.42794843 0 377.49477350 0 6577.82647606 0 -542.11185532 0 -106.32947431 0 8037
0.08750000 0.08749060 22680.48579294 0 489.08520957 0 8193.04054220 0 -1846.18695736 0 -121.49232530 0 8155
0.08850000 0.08849210 21984.91432570 0 552.94222230 0 7633.53715207 0 -1863.92470421 0 967.41311638 0 8718
0.08950000 0.08949900 22024.14419675 0 348.80301251 0 8769.42738973 0 -873.60988603 0 899.89052744 0 8571
0.09050000 0.09049190 21978.95678081 0 195.85934647 0 9539.40072416 0 210.08101777 0 961.13858514 0 8932
0.09150000 0.09150830 22208.60327525 0 320.49230958 0 10336.09308537 0 59.37581492 0 1725.81082868 0 9285
0.09250000 0.09250820 21463.46053829 0 478.13793982 0 9659.60824307 0 1244.03653835 0 953.70064656 0 9204
0.09350000 0.09350330 21464.24738384 0 700.41843583 0 9996.97389346 0 495.22035673 0 2268.64433378 0 9349
0.09450000 0.09448040 20228.89986851 0 496.36128278 0 8398.31730585 0 1000.07170302 0 1735.52275091 0 9564
0.09550000 0.09549270 19898.08751749 0 740.19460251 0 9284.02438020 0 1340.81854114 0 2155.08003945 0 10155
0.09650000 0.09649430 19098.87725052 0 361.98604769 0 7754.08189051 0 1304.84845881 0 1487.59895839 0 9913
0.09750000 0.09749140 18493.00617612 0 401.67453729 0 7043.58283910 0 1137.46392877 0 1273.21726765 0 10476
0.09850000 0.09850240 18275.83680400 0 184.86711412 0 6154.81830775 0 985.64320374 0 683.14717598 0 10575
0.09950000 0.09950330 17757.75521181 0 162.15537932 0 5096.97190811 0 370.41316354 0 -165.61075535 0 10882
0.10050000 0.10051200 17771.13158618 0 -3.84660688 0 4887.38997523 0 520.75012267 0 -803.61098173 0 10875
0.10150000 0.10150300 17630.28623252 0 -106.78314697 0 4095.81211010 0 -55.93426488 0 -1012.14191377 0 11118
0.10250000 0.10250800 17656.92657475 0 35.06161295 0 4208.13993286 0 372.64443271 0 -1574.51166984 0 11575
0.10350000 0.10349800 17595.10299573 0 91.51137407 0 3750.26326598 0 -496.08026652 0 -1877.78442656 0 11364
0.10450000 0.10450100 17600.27369506 0 346.39526512 0 4775.47805655 0 -129.39675089 0 -1162.53057990 0 12093
0.10550000 0.10551000 17342.41316730 0 462.62246961 0 5014.08334962 0 -489.39320340 0 -265.80879190 0 12067
0.10650000 0.10649700 16949.21520472 0 453.41525260 0 5206.91671291 0 -505.53702598 0 412.63979207 0 12054
0.10750000 0.10749900 17047.57089862 0 200.26455749 0 5238.61534797 0 195.76492500 0 589.60472873 0 12807
0.10850000 0.10850100 16831.63799808 0 377.98823807 0 5517.88931538 0 191.29789040 0 199.84977748 0 12736
0.10950000 0.10950300 16455.63823113 0 267.49938577 0 5331.54180757 0 -383.92667385 0 -387.15049248 0 12933
0.11050000 0.11050200 16186.98667866 0 538.47775294 0 5834.47100257 0 108.78139745 0 -480.70867664 0 13428
0.11150000 0.11150900 15693.74692458 0 364.93671850 0 5228.06037694 0 -175.88695825 0 -432.06700873 0 13453
0.11250000 0.11250000 15478.37605657 0 158.28185107 0 5440.28386274 0 398.10225848 0 -296.19114676 0 13668
0.11350000 0.11349100 15604.72097079 0 -71.58900675 0 5474.57908812 0 601.51082598 0 -535.48436765 0 13791
0.11450000 0.11448600 15643.38880931 0 -10.51891103 0 5607.53350496 0 549.31598838 0 -24.87589729 0 14205
0.11550000 0.11549300 15701.39056708 0 132.32831260 0 5913.88619999 0 352.52928823 0 329.84565505 0 14776
0.11650000 0.11649800 15595.61604370 0 233.26148771 0 5685.58858364 0 79.25928959 0 648.65411515 0 14553
0.11750000 0.11747300 15423.52168101 0 211.01399178 0 6289.63867262 0 -74.72998178 0 1485.33958759 0 14568
0.11850000 0.11849100 15383.95459043 0 203.03537789 0 6409.64385983 0 -49.64905503 0 1355.84729117 0 16015
0.11950000 0.11950300 15290.76959587 0 184.99300941 0 6346.99971330 0 690.53003538 0 1440.77040744 0 15270
0.12050000 0.12050700 14804.94867128 0 305.70186135 0 5742.87093976 0 425.54630724 0 1012.68146501 0 15999
0.12150000 0.12150000 14715.58549797 0 341.17623099 0 5356.88947496 0 734.19883941 0 1118.58975213 0 15670
0.12250000 0.12250700 14090.60531733 0 316.19163661 0 5098.18589839 0 131.21548818 0 402.65921829 0 16887
0.12350000 0.12352200 14012.70760776 0 333.84845078 0 4676.48164557 0 -17.42548158 0 408.23345699 0 16407
0.12450000 0.12449800 13651.88271930 0 249.20747484 0 4865.23465264 0 -484.09998097 0 542.24224687 0 16306
0.12550000 0.12549900 13657.27823165 0 132.16869536 0 4744.56626704 0 -518.55032733 0 -253.08662340 0 17523
0.12650000 0.12650100 13513.28549578 0 142.62924493 0 5362.16134016 0 -302.76805150 0 -572.72014726 0 17154
0.12750000 0.12750600 13427.51933071 0 193.17507907 0 4809.59343152 0 -186.99834150 0 -1381.50969679 0 18007
0.12850000 0.12850300 13232.15682100 0 358.71839052 0 5094.26291129 0 57.24773492 0 -1586.86514500 0 17496
0.12950000 0.12949900 12793.43422297 0 171.55368739 0 4611.30835263 0 245.64868481 0 -1897.08462387 0 18405
0.13050000 0.13049000 12651.35239773 0 134.82261300 0 4477.25235201 0 345.66237469 0 -1911.33776900 0 18100
0.13150000 0.13148800 12850.87394821 0 -161.05267148 0 4357.80919734 0 626.82027517 0 -1456.90074124 0 19059
0.13250000 0.13249300 12785.79058047 0 -227.00381745 0 3979.85355716 0 932.98749945 0 -1470.60309448 0 18957
0.13350000 0.13349100 13008.35546495 0 -38.27621424 0 4269.96351188 0 632.28772768 0 -850.23270471 0 19468
0.13450000 0.13450700 12983.62603334 0 33.79254348 0 3639.70022539 0 534.90547414 0 -708.87590144 0 19953
0.13550000 0.13551000 12962.83082949 0 223.15052238 0 4503.34190236 0 432.21763345 0 215.63052704 0 19956
0.13650000 0.13649900 12847.61415949 0 390.53168022 0 3768.58552668 0 79.48073041 0 703.79962357 0 19723
0.13750000 0.13749600 12441.15222906 0 380.45443684 0 4258.94767416 0 -186.28006391 0 575.65620524 0 20946
0.13850000 0.13851100 12272.20524857 0 398.93181851 0 4498.18244367 0 -169.91255238 0 1096.22760156 0 20955
0.13950000 0.13949800 12036.48880275 0 222.64132090 0 4305.43900559 0 -3.46409878 0 1149.48018440 0 20506
0.14050000 0.14048300 11805.49343022 0 202.42388649 0 4541.12172946 0 -0.06714569 0 1329.21818959 0 21447
0.14150000 0.14148400 11884.96483089 0 154.42968007 0 4500.91392180 0 313.31852628 0 1111.11921565 0 21771
0.14250000 0.14249400 11484.57285185 0 141.20280635 0 4480.79315699 0 100.13711222 0 1163.75581083 0 22470
0.14350000 0.14350900 11565.05591109 0 99.30069540 0 4131.81591440 0 269.39118729 0 1397.79739970 0 22519
0.14450000 0.14449900 11394.19801998 0 29.06472578 0 4442.75479492 0 52.67863521 0 1322.59744631 0 22218
0.14550000 0.14550500 11417.80338651 0 76.53500548 0 4139.42583494 0 327.80435288 0 1381.64458460 0 23559
0.14650000 0.14650700 11400.71759740 0 14.83428677 0 4285.10466841 0 205.18009405 0 804.92164161 0 23044
0.14750000 0.14750500 11416.90413445 0 120.87296544 0 3834.70303427 0 40.09854854 0 1084.09893943 0 23649
0.14850000 0.14849900 11245.03458478 0 183.27431391 0 3926.79768571 0 -21.51539234 0 709.62340471 0 23640
0.14950000 0.14949500 10975.07911682 0 168.77949479 0 3565.70302163 0 148.28216818 0 572.33908920 0 24457
0.15050000 0.15050000 10844.73253094 0 270.14206276 0 3459.73740719 0 273.90318449 0 490.30144797 0 24591
0.15150000 0.15149900 10625.05649371 0 137.43606429 0 3424.39680129 0 392.96078484 0 625.80412034 0 25020
0.15250000 0.15250500 10437.15777609 0 128.00066207 0 2987.50642933 0 678.68800984 0 534.60422470 0 25297
0.15350000 0.15350100 10363.37414469 0 132.46095228 0 2739.99854088 0 453.09826625 0 609.87949045 0 25452
0.15450000 0.15450400 10074.11847943 0 220.00201611 0 2370.12492858 0 404.00022792 0 645.53708270 0 26061
0.15550000 0.15549900 10026.32323252 0 194.90838742 0 2521.70510369 0 355.17758554 0 955.34852595 0 26128
0.15650000 0.15649500 9664.95879282 0 223.43603491 0 2162.90353236 0 127.82980418 0 981.84273973 0 26331
0.15750000 0.15749700 9657.76477635 0 153.28200963 0 2328.93918430 0 216.84564138 0 1113.47188385 0 27345
0.15850000 0.15849900 9441.91056037 0 129.63168049 0 2081.71231213 0 -36.09923742 0 1040.88538175 0 26980
0.15950000 0.15949700 9478.22910288 0 131.77190039 0 2307.35713490 0 -21.98289101 0 1007.82325576 0 27777
0.16050000 0.16050000 9317.21802181 0 129.55524407 0 2257.16762939 0 -403.19539733 0 884.87189400 0 28224
0.16150000 0.16150500 9319.38746740 0 126.57984382 0 2422.77613661 0 -197.76688490 0 648.06173285 0 28075
0.16250000 0.16249700 9179.92471378 0 19.06672899 0 2457.32989695 0 -111.82682695 0 592.88812281 0 28590
0.16350000 0.16349900 9287.12679980 0 -32.03574218 0 2054.12775523 0 314.61232518 0 795.62337533 0 29163
0.16450000 0.16449100 9202.93432583 0 23.51139469 0 2345.21564656 0 256.08450495 0 276.31767627 0 28996
0.16550000 0.16550500 9286.53104531 0 49.44784738 0 1776.23638786 0 374.45979780 0 195.18041116 0 30777
0.16650000 0.16650700 8975.90690301 0 154.14529160 0 1748.23592689 0 394.60529204 0 -50.88946083 0 29211
0.16750000 0.16749900 8905.72027985 0 197.14752504 0 1258.33464608 0 355.92396475 0 421.23102143 0 30922
0.16850000 0.16850800 8710.45893600 0 123.86073040 0 1387.55716688 0 270.33202975 0 32.40904419 0 30867
0.16950000 0.16949900 8596.60238475 0 146.95914359 0 919.50321484 0 24.13862301 0 159.55316867 0 30852
0.17050000 0.17049200 8465.15421510 0 94.14134912 0 1329.21818959 0 -45.94559783 0 94.86457259 0 31257
0.17150000 0.17149500 8510.24046518 0 81.72099210 0 1096.47939214 0 -209.05025010 0 362.31652282 0 32608
0.17250000 0.17250900 8407.20866058 0 35.38433203 0 1341.98756882 0 -89.72478505 0 399.31737283 0 32361
0.17350000 0.17350400 8518.17636460 0 98.67594004 0 1357.30857577 0 42.51843583 0 360.91368961 0 32508
0.17450000 0.17449800 8331.78389417 0 121.45185895 0 1483.28254851 0 -108.76689701 0 34.28589564 0 32791
0.17550000 0.17549800 8308.52698781 0 272.78473974 0 1408.95936588 0 -326.84215317 0 -110.14769855 0 33633
0.17650000 0.17650100 8055.33133010 0 168.46363251 0 1598.19572093 0 -207.53950664 0 -42.89881945 0 33984
0.17750000 0.17750300 7927.18791176 0 65.21286003 0 1629.20867630 0 -141.70189125 0 -356.62088509 0 34069
