### header ###
fiducial parameters:
Omega_m = 0.31
Omega_nu = 0
Omega_de = 0.69
Omega_k = 0
H_0 = 100
w_de = -1
zeff = 0
beta = 0
fgrowth = 0
b_1 = 2
gamma = 0.55
Lx = 3500 Ly = 3500 Lz = 3500
nx = 700 ny = 700 nz = 700
xoffset = 857.220397 yoffset = 15.9954215 zoffset = 262.898189
bins = 400 dk = 0.001
kx_ny = 0.628318531 ky_ny = 0.628318531 kz_ny = 0.628318531
############################
A(data) = 3.06571212 (not used)
A(ran) = 3.06790183 (used)
Ngal = 187155
weighted Ngal = 0
Nran = 9360983
weighted Nran = 0
SN(data) = 3433.85125
SN(ran) = 68.8935454
SN(data+ran) = 3502.74479
############################
13 columns: k_central k_mean P_0(k) sigma^{lin}_{P_0(k)} P^img_1(k) sigma^{lin}_{P_1(k)} P_2(k) sigma^{lin}_{P_2(k)} P^img_3(k) sigma^{lin}_{P_3(k)} P_4(k) sigma^{lin}_{P_4(k)} N_modes
### header ###
0.00050000 0 0 0 0 0 0 0 0 0 0 0 0
0.00150000 0.00179520 -235.31965086 0 -4891.04318672 0 -1790.16355412 0 -9440.11205625 0 13903.44848266 0 3
0.00250000 0.00253879 3282.74212078 0 -7323.77853987 0 -9404.08577066 0 5727.65109868 0 1541.56532255 0 6
0.00350000 0.00331552 7735.05146882 0 -9372.22976649 0 -10512.99844657 0 -3046.28379200 0 -5680.15934934 0 7
0.00450000 0.00420575 14365.21441468 0 -8802.85708501 0 -12252.75892281 0 -6009.64530356 0 -764.09559815 0 24
0.00550000 0.00557378 22696.44751697 0 -7807.14900261 0 -3130.04912125 0 -15072.13893916 0 3717.38436260 0 45
0.00650000 0.00659388 31709.87571213 0 -3327.14269117 0 4.02715422 0 -15088.88750875 0 11568.65291932 0 40
0.00750000 0.00754703 38253.62053517 0 -5918.44990418 0 20691.90227212 0 -21863.17807829 0 5302.75450104 0 57
0.00850000 0.00846663 51761.62292511 0 -5479.00790451 0 38705.60710107 0 -20669.42097065 0 8649.41096188 0 75
0.00950000 0.00948925 62287.93030215 0 -5002.62912653 0 61921.93471435 0 -20930.09166111 0 8007.34499213 0 112
0.01050000 0.01054430 67351.61864345 0 -508.11450719 0 72718.13011544 0 -3528.21545144 0 6427.57269774 0 105
0.01150000 0.01145670 76708.67353144 0 -789.22407286 0 67456.26910175 0 24086.12916685 0 -2819.90832693 0 144
0.01250000 0.01249090 77841.05668608 0 -1860.75484071 0 65593.58086912 0 25380.04047249 0 5410.22636268 0 169
0.01350000 0.01339930 82371.37615020 0 1150.25578930 0 42456.05021746 0 49079.94088022 0 -3784.71586047 0 180
0.01450000 0.01448870 79478.36987156 0 -4976.64074204 0 20462.70540371 0 40277.61210579 0 5920.99029125 0 267
0.01550000 0.01550050 79266.03397925 0 -1417.72707345 0 -17461.22684552 0 21417.93590283 0 -19345.83434708 0 238
0.01650000 0.01653350 75508.62165940 0 5327.67502371 0 -7543.21852344 0 3700.27609218 0 -800.47596425 0 315
0.01750000 0.01747870 62320.07856324 0 8593.70229686 0 -11411.62102861 0 -17671.53942070 0 -18286.40301568 0 297
0.01850000 0.01844180 58333.01974896 0 8784.10767959 0 -5246.97839212 0 -19904.38228190 0 -3214.23035457 0 388
0.01950000 0.01947590 56712.45513307 0 4110.64976907 0 2573.05239623 0 -25161.74703529 0 -14951.86397634 0 399
0.02050000 0.02045430 56655.68984688 0 -3881.47538197 0 11681.28423965 0 -13805.65482130 0 -17603.98310981 0 462
0.02150000 0.02154770 64239.75689508 0 -5835.75243676 0 19668.77824258 0 -9986.85730781 0 -31501.58645408 0 571
0.02250000 0.02255340 68617.87794829 0 -3601.18975599 0 24460.44283619 0 -2024.59856576 0 -40561.43853675 0 510
0.02350000 0.02348930 69998.22985806 0 -1354.76818870 0 19584.47336210 0 -2118.54792457 0 -29093.72666100 0 555
0.02450000 0.02439640 74020.69672214 0 3506.48727358 0 24997.63353462 0 3133.16278150 0 -39803.59386447 0 592
0.02550000 0.02547300 70199.32509963 0 2972.46643865 0 16950.78889583 0 2686.99887269 0 -25991.19465273 0 837
0.02650000 0.02652900 66353.44885853 0 3932.10327286 0 20259.81165802 0 4859.42323621 0 -27605.35209770 0 723
0.02750000 0.02749970 61889.44923373 0 1629.97304055 0 17347.92108615 0 3779.82617741 0 -7422.62882240 0 826
0.02850000 0.02848090 61563.13314301 0 2291.75511169 0 16610.42199169 0 3438.56002121 0 -13973.02811068 0 831
0.02950000 0.02946900 62618.85505967 0 865.19738302 0 18844.05169845 0 -567.53708321 0 -5696.94164088 0 996
0.03050000 0.03053250 60036.20314772 0 1265.98952923 0 19901.23489970 0 -5221.45087431 0 -5999.80973417 0 1041
0.03150000 0.03150510 59105.92689322 0 1804.91128788 0 24657.49144350 0 -8327.47872494 0 -8736.97563107 0 1036
0.03250000 0.03246190 59339.95724144 0 1525.44622940 0 25778.74635392 0 -4236.83731418 0 -9636.83468469 0 1059
0.03350000 0.03345080 57867.99402822 0 1513.68850874 0 29110.81245011 0 -3950.93136283 0 -16203.73524825 0 1302
0.03450000 0.03451200 57568.76790576 0 1045.74021881 0 28203.91674913 0 -1253.13022479 0 -21554.73462223 0 1339
0.03550000 0.03553350 56267.43777063 0 2488.35409297 0 30740.59439959 0 -919.90900233 0 -24333.31107642 0 1365
0.03650000 0.03647120 53042.49507591 0 3687.42802840 0 27902.77971605 0 -3059.10937449 0 -23721.48245713 0 1308
0.03750000 0.03744890 51660.45706853 0 3640.01496361 0 30485.76884752 0 -2222.25416822 0 -19305.25559794 0 1579
0.03850000 0.03847530 49800.80381160 0 1735.97237694 0 35734.02867382 0 -383.66813888 0 -20090.41505150 0 1662
0.03950000 0.03950240 49430.08715049 0 1231.82919166 0 33453.75026653 0 1262.63981531 0 -17297.11334485 0 1683
0.04050000 0.04050350 49066.67691236 0 44.76274415 0 38076.46787965 0 3816.32457033 0 -18731.08315860 0 1822
0.04150000 0.04152450 47712.06609276 0 -188.58102512 0 32044.73469740 0 2880.21441810 0 -14883.07119386 0 1887
0.04250000 0.04250150 47772.42838719 0 1652.89272739 0 32891.04329094 0 8300.70349490 0 -14212.00434522 0 1920
0.04350000 0.04349210 45459.55209278 0 2094.85263283 0 27695.05249054 0 7610.39265221 0 -10329.49482339 0 2005
0.04450000 0.04448520 43368.11661777 0 2086.73688300 0 21984.57710618 0 9298.91824242 0 -7529.25763524 0 2151
0.04550000 0.04548030 41973.48908158 0 413.82343260 0 17561.49345004 0 10166.44918453 0 -84.85926938 0 2274
0.04650000 0.04648670 39894.53072888 0 -182.26377941 0 14027.20804720 0 8940.44264996 0 2039.27885562 0 2311
0.04750000 0.04749250 40868.08348869 0 -351.40859535 0 13376.26196337 0 3154.28396423 0 3552.46153507 0 2568
0.04850000 0.04851840 41521.50251569 0 196.94856552 0 13228.33499975 0 208.66694391 0 5098.75917158 0 2493
0.04950000 0.04949480 40043.69416408 0 1642.86606694 0 15494.45018712 0 -2019.00072170 0 6938.70756778 0 2644
0.05050000 0.05050630 39834.05602795 0 1270.86797165 0 15940.36680162 0 -1793.40086153 0 9375.11861372 0 2829
0.05150000 0.05149060 37999.91904817 0 590.48487168 0 19516.80464470 0 -940.23434698 0 7975.41030340 0 2784
0.05250000 0.05249300 39152.53537413 0 610.37295502 0 16806.12172092 0 792.50746694 0 5117.02522902 0 3055
0.05350000 0.05348950 38399.63658817 0 213.81516194 0 18027.98045538 0 2936.35022785 0 1652.99389325 0 3009
0.05450000 0.05448610 37309.96790631 0 755.76065564 0 15368.66730544 0 903.13233111 0 985.20369429 0 3336
0.05550000 0.05550870 36931.49519619 0 1722.95570340 0 11788.52004762 0 -714.68619380 0 -2602.36801333 0 3349
0.05650000 0.05647670 34167.30677494 0 2436.30988009 0 12812.88054873 0 -1503.32462876 0 -3455.91558594 0 3324
0.05750000 0.05747970 32859.68187540 0 2146.31233188 0 12805.12449973 0 -1515.68934457 0 -2531.88913325 0 3639
0.05850000 0.05849280 31850.60865928 0 1422.63923782 0 14667.36310633 0 549.24292415 0 -2543.34335635 0 3846
0.05950000 0.05951020 30719.79919574 0 -279.46505847 0 12562.10163093 0 2481.71086839 0 -2304.40084376 0 3787
0.06050000 0.06049470 32489.97687286 0 -1846.81643380 0 11153.90662930 0 3255.58470861 0 -1151.86320236 0 3930
0.06150000 0.06148310 33516.36069110 0 -1571.37552829 0 11507.16655982 0 2316.58570915 0 -2352.01624025 0 4083
0.06250000 0.06249100 34988.99834337 0 -1274.00411320 0 8449.92313336 0 2722.62049485 0 -1564.45128744 0 4303
0.06350000 0.06350600 35084.65628109 0 -407.02171484 0 8782.56771044 0 726.82834472 0 580.87186717 0 4470
0.06450000 0.06451750 35157.38329132 0 580.56724554 0 7677.11715495 0 2665.25945417 0 2277.86166738 0 4479
0.06550000 0.06550280 34170.45415714 0 375.50293019 0 6492.84715654 0 2160.90269653 0 1306.44463121 0 4636
0.06650000 0.06648880 33891.23639298 0 699.17297173 0 9189.10832543 0 1292.71979667 0 3060.27840216 0 4653
0.06750000 0.06749660 33214.99884501 0 1486.59854048 0 8224.25582928 0 -288.24063450 0 3519.59387233 0 5220
0.06850000 0.06852730 32211.09632822 0 1174.00728430 0 11191.56280925 0 -126.76081829 0 4690.97084436 0 5029
0.06950000 0.06949320 31339.15905102 0 1171.87156066 0 10785.58422680 0 -2939.58753526 0 4609.46488591 0 5040
0.07050000 0.07048030 30854.57459800 0 1066.82318332 0 13862.19529447 0 -1525.21017574 0 4788.61837726 0 5475
0.07150000 0.07148790 30479.58648962 0 643.83300005 0 14226.50478466 0 -3107.47789458 0 969.06886423 0 5509
0.07250000 0.07249820 30247.46705202 0 568.47342942 0 15207.36396745 0 -1334.53501739 0 1844.54582235 0 5916
0.07350000 0.07351270 29703.64436966 0 392.91020191 0 15191.96427595 0 -1297.18233501 0 -140.30917462 0 5721
0.07450000 0.07449140 29223.10655091 0 659.83743856 0 15076.97241897 0 477.47024517 0 -1735.11808749 0 6028
0.07550000 0.07549160 28961.53660840 0 704.76969173 0 15149.92424222 0 1383.52177327 0 -2049.27179412 0 6183
0.07650000 0.07648840 28355.10350146 0 981.19527824 0 13210.34995858 0 1755.68847832 0 -2055.78013089 0 6330
0.07750000 0.07749960 26513.66009871 0 924.21192343 0 12052.56293329 0 3016.96817490 0 -1027.48202982 0 6583
0.07850000 0.07848650 25947.69333441 0 710.28547904 0 9744.83485692 0 3218.92894658 0 -765.61308600 0 6549
0.07950000 0.07947320 24926.92984152 0 729.45078854 0 10423.35425699 0 2009.14267101 0 141.37029205 0 6828
0.08050000 0.08048110 24398.16963114 0 951.22095900 0 8022.60979582 0 1607.33436998 0 4.01275494 0 7147
0.08150000 0.08149960 23279.94969642 0 449.59567948 0 7996.93614955 0 379.47087990 0 2.95604385 0 7386
0.08250000 0.08250610 23233.07618287 0 171.90664382 0 7246.90372952 0 854.96726679 0 1420.81825240 0 7227
0.08350000 0.08350160 22909.12062880 0 -400.97199662 0 5922.73259211 0 946.17165870 0 -1608.96426433 0 7798
0.08450000 0.08449610 23894.92569791 0 -111.25231729 0 7027.62111506 0 447.35092153 0 1652.08340054 0 7371
0.08550000 0.08548940 23159.44992058 0 709.84934179 0 6226.39877161 0 -273.54797993 0 -1885.81025119 0 8256
0.08650000 0.08650700 23251.06122404 0 848.90518386 0 8184.41896309 0 -184.99188534 0 3034.03148271 0 8037
0.08750000 0.08749060 22174.88132306 0 478.01092047 0 7712.85118362 0 763.24355683 0 1374.01218275 0 8155
0.08850000 0.08849210 22420.82676105 0 131.54371518 0 8945.36605498 0 852.84503194 0 3566.27629482 0 8718
0.08950000 0.08949900 22533.00845534 0 180.39108700 0 8674.41016911 0 -30.07986895 0 2650.86018059 0 8571
0.09050000 0.09049190 21518.65213338 0 693.42787514 0 8209.46313292 0 648.03812749 0 1899.42267922 0 8932
0.09150000 0.09150830 21667.70316207 0 681.52739821 0 8303.28884457 0 -923.20813332 0 2917.57834113 0 9285
0.09250000 0.09250820 20315.79009866 0 498.82523342 0 7366.06586792 0 87.95887882 0 1111.09336216 0 9204
0.09350000 0.09350330 20225.41526678 0 99.32845981 0 7911.77697961 0 1060.17771060 0 1232.30129899 0 9349
0.09450000 0.09448040 19915.73533914 0 59.24935760 0 6288.53708885 0 658.20192388 0 -261.11806835 0 9564
0.09550000 0.09549270 19824.57366171 0 136.96058477 0 5716.55657640 0 1199.72589317 0 187.72111534 0 10155
0.09650000 0.09649430 19589.75646794 0 229.71169021 0 5573.57549911 0 672.40111388 0 -3.72190310 0 9913
0.09750000 0.09749140 19475.66386302 0 257.24791230 0 5350.29121298 0 468.09104620 0 1696.74250589 0 10476
0.09850000 0.09850240 19238.37372609 0 199.58899438 0 4500.47553642 0 670.90947953 0 1551.10863502 0 10575
0.09950000 0.09950330 18995.12604427 0 309.15948551 0 5216.22397172 0 -11.85247935 0 1512.53072171 0 10882
0.10050000 0.10051200 19117.87395026 0 199.97005244 0 4929.48621222 0 92.63128010 0 1442.04060098 0 10875
0.10150000 0.10150300 18635.53762739 0 269.56316924 0 5640.09767013 0 -134.76528568 0 1409.75745208 0 11118
0.10250000 0.10250800 18852.14496697 0 397.05238171 0 5479.45753053 0 -475.45592055 0 2048.55239247 0 11575
0.10350000 0.10349800 18312.70613839 0 397.41657879 0 5588.59300848 0 -142.89902055 0 869.24401729 0 11364
0.10450000 0.10450100 18109.25036016 0 400.36837367 0 5586.34487834 0 234.22481148 0 1793.22101112 0 12093
0.10550000 0.10551000 17731.67690211 0 303.30760274 0 5448.33216866 0 443.24583588 0 2276.47906734 0 12067
0.10650000 0.10649700 17623.65424858 0 131.19862720 0 5695.40167173 0 1324.00252765 0 2664.33772081 0 12054
0.10750000 0.10749900 17456.84299174 0 214.59413904 0 5570.07965673 0 1076.40921026 0 2182.93437196 0 12807
0.10850000 0.10850100 17000.47257206 0 231.47197611 0 5227.71191676 0 461.96151935 0 2407.73614593 0 12736
0.10950000 0.10950300 16829.50227444 0 516.29320466 0 5213.09907081 0 -373.29863858 0 1829.08992760 0 12933
0.11050000 0.11050200 16404.38086379 0 478.45942243 0 5715.98330322 0 -402.88740350 0 2261.09061649 0 13428
0.11150000 0.11150900 16056.93234970 0 499.82340321 0 5830.82903173 0 -319.09622076 0 2359.44631039 0 13453
0.11250000 0.11250000 15515.02057796 0 408.46726252 0 5741.06119500 0 -66.35861956 0 1168.45440284 0 13668
0.11350000 0.11349100 15629.45040240 0 78.93510922 0 5623.98981763 0 741.16467066 0 2126.51754594 0 13791
0.11450000 0.11448600 15285.71130305 0 196.87325316 0 5545.37270642 0 718.33041277 0 1914.00180322 0 14205
0.11550000 0.11549300 15480.62418672 0 62.21497848 0 4943.70563539 0 738.15779659 0 2097.13448493 0 14776
0.11650000 0.11649800 15152.28477887 0 117.50976274 0 5517.73194627 0 428.57566262 0 2507.75545613 0 14553
0.11750000 0.11747300 15170.60703956 0 288.60820378 0 5191.43833685 0 170.44648329 0 2977.26619651 0 14568
0.11850000 0.11849100 14990.19459533 0 265.44234669 0 5639.68176605 0 -28.42895458 0 3941.27564386 0 16015
0.11950000 0.11950300 15084.61606147 0 227.64903080 0 5781.10039290 0 -274.95418534 0 3480.65625820 0 15270
0.12050000 0.12050700 14737.39236039 0 200.70743913 0 6285.18737493 0 -136.03660328 0 4158.13027776 0 15999
0.12150000 0.12150000 14884.30766544 0 215.41133435 0 6749.61734118 0 -25.68691024 0 3901.75351589 0 15670
0.12250000 0.12250700 14458.17459623 0 163.19289138 0 6392.62551462 0 -47.44330213 0 4170.78725048 0 16887
0.12350000 0.12352200 14408.15370048 0 224.34765168 0 6938.12305394 0 150.02784124 0 3632.23643331 0 16407
0.12450000 0.12449800 14162.65788851 0 208.79845952 0 6113.19417810 0 572.03446757 0 3682.86432420 0 16306
0.12550000 0.12549900 13993.93572104 0 292.89988423 0 6346.30279296 0 610.50222250 0 3333.42621493 0 17523
0.12650000 0.12650100 13661.32486591 0 188.70467228 0 5063.76702585 0 613.19098616 0 3516.46897143 0 17154
0.12750000 0.12750600 13271.38669205 0 124.21593497 0 5103.18798797 0 754.16785543 0 2994.57679864 0 18007
0.12850000 0.12850300 13468.32289286 0 36.95420131 0 4260.11670184 0 738.73781417 0 2376.40845234 0 17496
0.12950000 0.12949900 13149.76285114 0 45.27351932 0 4100.22968584 0 571.57809715 0 1738.38911685 0 18405
0.13050000 0.13049000 13059.16320625 0 212.46853199 0 3596.85086481 0 -120.98199975 0 1161.66504979 0 18100
0.13150000 0.13148800 12912.80993373 0 301.93511929 0 3669.81392870 0 -567.13691605 0 799.94203334 0 19059
0.13250000 0.13249300 12695.97778113 0 294.35105224 0 3920.13197983 0 -618.55952095 0 499.37040498 0 18957
0.13350000 0.13349100 12395.06556106 0 232.49262720 0 4160.98540304 0 -274.98790729 0 342.58131233 0 19468
0.13450000 0.13450700 12423.39200091 0 87.51105129 0 4422.21812603 0 -183.76665441 0 413.72788707 0 19953
0.13550000 0.13551000 12434.63265164 0 -42.66265338 0 4352.35748174 0 326.76346862 0 646.81851688 0 19956
0.13650000 0.13649900 12460.26133530 0 -35.66085204 0 4223.79815933 0 361.35769531 0 261.45753600 0 19723
0.13750000 0.13749600 12520.62362973 0 -73.15269367 0 4223.65203087 0 345.75567209 0 665.05984489 0 20946
0.13850000 0.13851100 12512.86758072 0 3.92411117 0 4068.50856948 0 327.23894815 0 986.66048263 0 20955
0.13950000 0.13949800 12524.44545098 0 77.61332110 0 4048.78122745 0 387.00436402 0 1144.97268346 0 20506
0.14050000 0.14048300 12449.13309108 0 194.36658805 0 3778.36489281 0 288.58235028 0 1306.35470600 0 21447
0.14150000 0.14148400 12333.69160807 0 152.39737042 0 3856.99324467 0 513.46056068 0 1042.36127920 0 21771
0.14250000 0.14249400 12149.56974910 0 194.62175082 0 3779.33158877 0 203.27705188 0 1457.29416402 0 22470
0.14350000 0.14350900 11974.44041071 0 208.01948243 0 3496.55053833 0 153.64957891 0 1146.40024610 0 22519
0.14450000 0.14449900 11733.32845253 0 274.71588354 0 3710.83106322 0 -338.48184701 0 1237.40455442 0 22218
0.14550000 0.14550500 11517.84517802 0 299.60718052 0 3469.84275220 0 -167.41825199 0 724.60044775 0 23559
0.14650000 0.14650700 11341.81658757 0 175.26984652 0 3480.72370211 0 -192.59955775 0 238.06574183 0 23044
0.14750000 0.14750500 11118.54354210 0 314.75283331 0 3681.22318919 0 -267.87594757 0 531.49168851 0 23649
0.14850000 0.14849900 10867.22507306 0 189.67474043 0 2972.39899475 0 39.26955055 0 -244.44143893 0 23640
0.14950000 0.14949500 10824.13965880 0 267.72981911 0 3719.21658866 0 167.96342355 0 347.34510011 0 24457
0.15050000 0.15050000 10475.48839508 0 175.32380165 0 2886.92508659 0 627.35083388 0 -340.09263226 0 24591
0.15150000 0.15149900 10515.53883364 0 110.27055886 0 3558.56520842 0 488.57151183 0 612.93919558 0 25020
0.15250000 0.15250500 10275.43853402 0 54.72904231 0 2887.64448824 0 321.70967205 0 501.06661918 0 25297
0.15350000 0.15350100 10438.14695335 0 21.22212377 0 3347.06112426 0 162.33185753 0 806.21206831 0 25452
0.15450000 0.15450400 10462.28063047 0 75.73871778 0 3485.01763068 0 -87.43292877 0 969.52298652 0 26061
0.15550000 0.15549900 10367.16224399 0 186.88256279 0 3474.06923687 0 -314.94729657 0 827.97621626 0 26128
0.15650000 0.15649500 10109.80754550 0 305.85923046 0 3728.19786860 0 -44.32109899 0 914.77090088 0 26331
0.15750000 0.15749700 9876.12565745 0 239.88785132 0 3504.38527189 0 9.23824121 0 543.32134934 0 27345
0.15850000 0.15849900 9639.21770265 0 183.31365619 0 3214.16291067 0 489.14478501 0 590.66022583 0 26980
0.15950000 0.15949700 9556.03688724 0 -24.59285770 0 3161.90512542 0 498.68584936 0 87.75092678 0 27777
0.16050000 0.16050000 9509.92773794 0 -114.25222216 0 2339.64028380 0 409.59020353 0 -156.33834256 0 28224
0.16150000 0.16150500 9657.16902187 0 -110.32979709 0 2152.07878570 0 215.69010249 0 -265.83464540 0 28075
0.16250000 0.16249700 9633.23767646 0 49.63028314 0 1871.34353370 0 61.39171322 0 -745.41813290 0 28590
0.16350000 0.16349900 9606.48492772 0 88.56767246 0 1833.03539600 0 -207.46307022 0 -246.77274989 0 29163
0.16450000 0.16449100 9447.20490686 0 201.94728290 0 1838.70068397 0 -145.74515331 0 -981.58982508 0 28996
0.16550000 0.16550500 9360.12358565 0 222.94257034 0 1906.21203226 0 87.50779150 0 -654.69034459 0 30777
0.16650000 0.16650700 9106.11860108 0 209.22560425 0 1888.69909842 0 -108.44507718 0 -791.28336008 0 29211
0.16750000 0.16749900 9115.67315420 0 185.60450081 0 1972.75668459 0 225.17496357 0 -242.43610684 0 30922
0.16850000 0.16850800 8943.41018175 0 44.82760271 0 2083.36468778 0 91.31769766 0 -424.11649647 0 30867
0.16950000 0.16949900 8967.74619058 0 59.67144403 0 2053.99286742 0 89.43309016 0 -187.32207224 0 30852
0.17050000 0.17049200 8953.29071374 0 115.70001797 0 2137.26360804 0 227.63666608 0 40.67924056 0 31257
0.17150000 0.17149500 8872.40299108 0 153.97668184 0 2075.73228594 0 52.52801049 0 296.41933197 0 32608
0.17250000 0.17250900 8784.65847148 0 171.50310446 0 2148.36937096 0 184.72323379 0 563.86588668 0 32361
0.17350000 0.17350400 8642.90262511 0 186.22498473 0 2321.47539222 0 178.02717815 0 525.06428443 0 32508
0.17450000 0.17449800 8548.06525489 0 124.69253856 0 2405.88143856 0 74.39546002 0 846.70763664 0 32791
0.17550000 0.17549800 8380.25358013 0 146.52413041 0 2301.09609244 0 132.72398351 0 795.03099303 0 33633
0.17650000 0.17650100 8293.61064429 0 112.64705724 0 2448.11256335 0 43.05708781 0 919.97532217 0 33984
0.17750000 0.17750300 8180.25992232 0 92.29147523 0 2176.89814252 0 276.24573610 0 882.10219766 0 34069
