### header ###
fiducial parameters:
Omega_m = 0.31
Omega_nu = 0
Omega_de = 0.69
Omega_k = 0
H_0 = 100
w_de = -1
zeff = 0
beta = 0
fgrowth = 0
b_1 = 2
gamma = 0.55
Lx = 3500 Ly = 3500 Lz = 3500
nx = 700 ny = 700 nz = 700
xoffset = 857.220397 yoffset = 15.9954215 zoffset = 262.898189
bins = 400 dk = 0.001
kx_ny = 0.628318531 ky_ny = 0.628318531 kz_ny = 0.628318531
############################
A(data) = 3.10760542 (not used)
A(ran) = 3.11052584 (used)
Ngal = 190406
weighted Ngal = 0
Nran = 9360983
weighted Nran = 0
SN(data) = 3438.31684
SN(ran) = 69.8507205
SN(data+ran) = 3508.16756
############################
13 columns: k_central k_mean P_0(k) sigma^{lin}_{P_0(k)} P^img_1(k) sigma^{lin}_{P_1(k)} P_2(k) sigma^{lin}_{P_2(k)} P^img_3(k) sigma^{lin}_{P_3(k)} P_4(k) sigma^{lin}_{P_4(k)} N_modes
### header ###
0.00050000 0 0 0 0 0 0 0 0 0 0 0 0
0.00150000 0.00179520 17390.63555893 0 -34339.40113763 0 -25788.86293958 0 57890.58773618 0 23801.62829684 0 3
0.00250000 0.00253879 30682.03060928 0 -35314.19036902 0 -5813.83316783 0 -45622.20430886 0 -30006.46750035 0 6
0.00350000 0.00331552 51305.81453797 0 -32680.84312227 0 -26909.55581746 0 -2044.68560862 0 18678.47691318 0 7
0.00450000 0.00420575 67790.11642846 0 -25170.62714937 0 -21324.97572129 0 -30609.75322508 0 5146.58814044 0 24
0.00550000 0.00557378 80261.73082100 0 -1278.00578486 0 -25191.53475973 0 -43681.84317968 0 22942.61776798 0 45
0.00650000 0.00659388 76309.74283700 0 6648.20419029 0 -12017.15488349 0 -21878.80258280 0 -3956.36059714 0 40
0.00750000 0.00754703 67523.03856709 0 11389.25213365 0 -18328.10582990 0 -16546.01306300 0 31587.91465169 0 57
0.00850000 0.00846663 60120.28321518 0 5698.06570595 0 -24905.68501164 0 -3000.27580856 0 2867.84970230 0 75
0.00950000 0.00948925 56187.17952441 0 1338.31187603 0 -27009.26038944 0 -1186.83286678 0 15042.46362123 0 112
0.01050000 0.01054430 54330.67364968 0 -981.03566100 0 -26286.59895394 0 -3300.89577171 0 -9272.82869207 0 105
0.01150000 0.01145670 51474.87392496 0 -349.96754392 0 -28983.11865780 0 -14698.49970886 0 -7616.28275319 0 144
0.01250000 0.01249090 54371.02758580 0 2111.32018615 0 -15435.88639681 0 -28821.59050680 0 -14317.77886860 0 169
0.01350000 0.01339930 52618.27291732 0 4081.09809830 0 -1438.62344316 0 -31149.75408620 0 -13485.29627546 0 180
0.01450000 0.01448870 51530.29033307 0 2090.37885384 0 10773.02841993 0 -21790.00144203 0 -9070.85667974 0 267
0.01550000 0.01550050 55909.53545135 0 -429.17703743 0 23804.43845953 0 -6507.60613095 0 -17901.18591513 0 238
0.01650000 0.01653350 62517.80160960 0 -6303.48715432 0 24795.97626051 0 2078.93587140 0 -8396.22654482 0 315
0.01750000 0.01747870 64785.82770759 0 -6105.47185105 0 21390.05908902 0 14385.11036648 0 -13706.06265582 0 297
0.01850000 0.01844180 73867.26183966 0 -5318.26659905 0 26383.15614372 0 8772.77710365 0 -5059.73163224 0 388
0.01950000 0.01947590 72336.62242963 0 -2415.12125346 0 25130.38561975 0 5216.86468881 0 -18678.70172620 0 399
0.02050000 0.02045430 75613.27211771 0 -2266.57605405 0 18236.94415247 0 6419.80540809 0 -2109.63408854 0 462
0.02150000 0.02154770 72635.96095859 0 988.36456528 0 17899.94944355 0 4059.62845540 0 -17941.31503824 0 571
0.02250000 0.02255340 71322.71573369 0 2384.78273713 0 1342.58332331 0 8882.26104177 0 -6821.38889610 0 510
0.02350000 0.02348930 69083.91532760 0 2847.47040252 0 13079.50878407 0 3009.51562346 0 -490.85223986 0 555
0.02450000 0.02439640 70920.30043752 0 3546.75128450 0 7270.20559849 0 2950.09754370 0 -603.88147922 0 592
0.02550000 0.02547300 67317.67187824 0 2607.48250942 0 16963.49083115 0 1848.05290538 0 13399.19289086 0 837
0.02650000 0.02652900 67123.43343361 0 1874.08625247 0 27430.11035281 0 -1250.73596619 0 21167.38179804 0 723
0.02750000 0.02749970 69531.06841368 0 1619.53047602 0 32338.79012052 0 -2.87597669 0 36699.93779113 0 826
0.02850000 0.02848090 68370.58363221 0 239.59671846 0 36690.94527055 0 4201.09204485 0 24927.71668708 0 831
0.02950000 0.02946900 70118.28000786 0 20.05096037 0 36117.44727025 0 11326.52930258 0 32584.51074550 0 996
0.03050000 0.03053250 68442.97342292 0 814.62681945 0 37287.71141786 0 6439.83624769 0 25695.22831899 0 1041
0.03150000 0.03150510 67590.59487799 0 1994.72091612 0 29043.93057826 0 8128.02461837 0 17207.18813900 0 1036
0.03250000 0.03246190 65570.20031560 0 3180.44095848 0 31943.68124733 0 2631.31268897 0 22436.78848509 0 1059
0.03350000 0.03345080 61617.31307954 0 3271.28789769 0 23501.61532883 0 -3078.63438481 0 6133.96690065 0 1302
0.03450000 0.03451200 60076.33227083 0 4148.65440919 0 33420.14072085 0 -9051.69137024 0 8509.03771555 0 1339
0.03550000 0.03553350 57773.01052954 0 3631.95541704 0 31223.38034849 0 -7500.66141978 0 -6074.12167616 0 1365
0.03650000 0.03647120 56405.36055510 0 3647.42255245 0 38239.79453477 0 -8069.58447522 0 -4273.05469083 0 1308
0.03750000 0.03744890 53633.30367833 0 2090.94088638 0 33389.00411832 0 -4234.38685232 0 -16266.79529885 0 1579
0.03850000 0.03847530 51272.76702482 0 1564.51873134 0 33174.64490888 0 2403.06003522 0 -16240.71698915 0 1662
0.03950000 0.03950240 49475.83659896 0 1723.63014244 0 27476.75905334 0 8714.48308896 0 -22582.01769253 0 1683
0.04050000 0.04050350 47266.93632382 0 1998.91367884 0 24921.53432917 0 6001.02372445 0 -21137.25685408 0 1822
0.04150000 0.04152450 45358.94826874 0 2101.79935498 0 20421.90184156 0 6628.80282713 0 -21271.69503682 0 1887
0.04250000 0.04250150 44727.89813670 0 2072.77599479 0 23917.51940588 0 -37.62549297 0 -16545.67584348 0 1920
0.04350000 0.04349210 44349.76264611 0 1025.16757984 0 23633.13094239 0 -278.09819535 0 -10423.15192528 0 2005
0.04450000 0.04448520 43569.09945284 0 476.03031781 0 29213.66440429 0 199.44848625 0 -698.85598538 0 2151
0.04550000 0.04548030 45505.86357379 0 508.33257581 0 32195.02219768 0 3311.88912813 0 6236.66148573 0 2274
0.04650000 0.04648670 43972.52640758 0 1403.36152181 0 32727.37941630 0 6557.88556167 0 9077.98325230 0 2311
0.04750000 0.04749250 43349.68195057 0 1347.61913484 0 28490.77815578 0 7496.47989770 0 9329.42536850 0 2568
0.04850000 0.04851840 40820.31072309 0 808.99862563 0 26769.04768332 0 7605.80646671 0 8091.59366935 0 2493
0.04950000 0.04949480 41148.76253745 0 731.06607005 0 23648.53063389 0 6872.25284066 0 11567.97848028 0 2644
0.05050000 0.05050630 38718.30903639 0 398.75983655 0 15891.91959697 0 4596.47069366 0 6404.75417676 0 2829
0.05150000 0.05149060 38237.77121764 0 580.74372376 0 17222.81264352 0 3177.68699905 0 10559.25372433 0 2784
0.05250000 0.05249300 36875.74156857 0 95.35848679 0 10419.18397557 0 1462.35245685 0 1949.42109367 0 3055
0.05350000 0.05348950 37040.41710178 0 703.95024829 0 12460.71096133 0 -752.63800286 0 957.28416601 0 3009
0.05450000 0.05448610 35966.71014395 0 1008.94507270 0 11301.23783843 0 -2658.52630439 0 32.94983189 0 3336
0.05550000 0.05550870 35420.30211192 0 1161.11425791 0 12571.31896453 0 -3517.82909017 0 -1004.94564917 0 3349
0.05650000 0.05647670 34313.99726697 0 768.69639650 0 15891.58237745 0 -2272.58980219 0 -497.88101876 0 3324
0.05750000 0.05747970 35264.28187977 0 -38.19505674 0 16352.11183789 0 307.88704385 0 -1312.52582325 0 3639
0.05850000 0.05849280 35514.72357806 0 -93.47860036 0 16606.26295092 0 3095.94498693 0 -433.94981773 0 3846
0.05950000 0.05951020 35379.04892374 0 -191.41366910 0 14709.62795308 0 4104.00654449 0 2104.03624448 0 3787
0.06050000 0.06049470 35851.94309999 0 67.11815033 0 16170.80014160 0 4158.52370053 0 1475.70634992 0 3930
0.06150000 0.06148310 35169.97282014 0 562.21575916 0 14890.60242985 0 2212.53100533 0 2553.72971762 0 4083
0.06250000 0.06249100 34580.40068930 0 1312.36845414 0 14903.97880422 0 742.55401509 0 3773.86863252 0 4303
0.06350000 0.06350600 33081.34750781 0 569.36368896 0 13478.21466550 0 -1557.87550676 0 3908.74520064 0 4470
0.06450000 0.06451750 33639.10859709 0 6.86754301 0 14367.35013832 0 -1052.49360176 0 4495.10250537 0 4479
0.06550000 0.06550280 33129.12027342 0 -195.63003719 0 12028.95756676 0 835.08030752 0 -379.12579192 0 4636
0.06650000 0.06648880 32369.47709702 0 125.93463046 0 10872.78919517 0 977.29140024 0 -19.44374041 0 4653
0.06750000 0.06749660 32355.42628361 0 753.42260029 0 9064.21345516 0 1838.38594575 0 -2617.44172596 0 5220
0.06850000 0.06852730 30983.50486189 0 1506.35960446 0 8260.52940919 0 1170.65757038 0 -1229.71594932 0 5029
0.06950000 0.06949320 29851.79614629 0 1813.74643935 0 7793.34548351 0 -106.56811332 0 -3864.74929368 0 5040
0.07050000 0.07048030 27976.96801087 0 1283.53618502 0 9389.31555560 0 -585.68961008 0 1488.37456329 0 5475
0.07150000 0.07148790 27741.81359758 0 968.90475073 0 9464.20077077 0 -665.83544979 0 -433.01234746 0 5509
0.07250000 0.07249820 27539.36947791 0 98.90153990 0 11368.79414932 0 -1065.42709450 0 1888.64289517 0 5916
0.07350000 0.07351270 28450.08700014 0 79.10922690 0 14044.51864933 0 -671.30065418 0 1401.20331687 0 5721
0.07450000 0.07449140 28106.68512031 0 -157.07348112 0 11982.53367924 0 -142.84618949 0 954.20085551 0 6028
0.07550000 0.07549160 28700.75351144 0 -195.17141864 0 14500.55184949 0 432.05914028 0 2080.66693161 0 6183
0.07650000 0.07648840 28442.78057716 0 -111.65518222 0 12373.93313769 0 1112.52991732 0 248.51729888 0 6330
0.07750000 0.07749960 29266.27064972 0 -92.06126671 0 13458.54352672 0 2347.13779784 0 1866.18407501 0 6583
0.07850000 0.07848650 28105.44864873 0 340.33205812 0 10484.44719371 0 1428.46189489 0 1059.44819237 0 6549
0.07950000 0.07947320 27849.72384460 0 610.17961583 0 10777.44599567 0 1969.19339831 0 3147.88803396 0 6828
0.08050000 0.08048110 27304.55228414 0 1044.63975910 0 10164.79680888 0 1823.59324939 0 2071.38215410 0 7147
0.08150000 0.08149960 26065.38294756 0 1035.78325039 0 8628.17737265 0 1791.55739481 0 3585.10438479 0 7386
0.08250000 0.08250610 25101.72196039 0 1084.69806611 0 8639.84516811 0 565.04840314 0 3415.08954249 0 7227
0.08350000 0.08350160 23941.79921146 0 920.30242510 0 7353.11663828 0 983.61539035 0 4159.89505992 0 7798
0.08450000 0.08449610 23451.48202657 0 666.90218754 0 8294.77967197 0 890.53605790 0 5075.67087498 0 7371
0.08550000 0.08548940 22777.94223477 0 500.77773446 0 5324.43771630 0 827.34224356 0 1583.88637255 0 8256
0.08650000 0.08650700 22421.05157406 0 -31.98740738 0 6052.64079261 0 909.33941845 0 3155.91385858 0 8037
0.08750000 0.08749060 22329.77749013 0 114.45455387 0 4908.62356446 0 643.73295826 0 1334.78231170 0 8155
0.08850000 0.08849210 22158.02034696 0 75.71814739 0 4580.54269158 0 33.79816380 0 1647.35108658 0 8718
0.08950000 0.08949900 21755.60505079 0 452.56770754 0 4645.34504304 0 -195.27483263 0 906.92043041 0 8571
0.09050000 0.09049190 21310.92490787 0 765.69289462 0 5300.92227497 0 -529.78535773 0 363.45182854 0 8932
0.09150000 0.09150830 20447.30571221 0 706.05787030 0 4672.58113976 0 121.56876172 0 79.60404035 0 9285
0.09250000 0.09250820 20013.64140701 0 811.63118603 0 5428.13271930 0 -12.59267620 0 -32.97827074 0 9204
0.09350000 0.09350330 19097.30355942 0 239.73385440 0 5104.72795712 0 71.23200368 0 -427.29872469 0 9349
0.09450000 0.09448040 19098.20281148 0 254.42650897 0 5127.08561142 0 -257.13438173 0 -769.71592352 0 9564
0.09550000 0.09549270 18922.73625357 0 51.91887963 0 4629.94535154 0 -268.60096954 0 557.11924812 0 10155
0.09650000 0.09649430 18901.71623670 0 85.57113979 0 4929.59861873 0 84.14323992 0 -652.74233982 0 9913
0.09750000 0.09749140 18950.05103484 0 99.08150271 0 4760.69660084 0 123.22900583 0 916.87852289 0 10476
0.09850000 0.09850240 18522.45668103 0 552.56453644 0 5443.86963032 0 293.88231710 0 8.58134882 0 10575
0.09950000 0.09950330 18078.00135113 0 758.80349979 0 4868.70801372 0 839.11232894 0 787.54584371 0 10882
0.10050000 0.10051200 17482.92130143 0 664.07628795 0 5517.12495113 0 108.13033896 0 776.38050534 0 10875
0.10150000 0.10150300 17166.60938986 0 398.80817135 0 4860.89576146 0 411.79561920 0 418.37477208 0 11118
0.10250000 0.10250800 17063.75743567 0 18.00954579 0 5773.07456828 0 255.27630217 0 1135.68790595 0 11575
0.10350000 0.10349800 16876.48819450 0 21.05542492 0 5277.00217022 0 -163.19963577 0 349.29085675 0 11364
0.10450000 0.10450100 17528.89556292 0 -83.77859322 0 5874.29662811 0 -497.44825371 0 1037.24453498 0 12093
0.10550000 0.10551000 17392.88368908 0 64.05979408 0 6621.32779439 0 -653.53705383 0 629.60908061 0 12067
0.10650000 0.10649700 17433.68725123 0 309.77097691 0 6954.54564466 0 -416.40653413 0 1309.78310448 0 12054
0.10750000 0.10749900 17199.09487047 0 433.65306455 0 7174.95232419 0 -47.23355159 0 660.98286087 0 12807
0.10850000 0.10850100 16859.62721840 0 625.25557659 0 7429.94648603 0 -201.23574971 0 1005.75834822 0 12736
0.10950000 0.10950300 16401.79551413 0 394.32989610 0 6738.57902217 0 325.99910437 0 430.22691421 0 12933
0.11050000 0.11050200 16089.30542380 0 223.06396937 0 6726.91122671 0 544.40719620 0 183.15853521 0 13428
0.11150000 0.11150900 15556.16135963 0 265.33106424 0 6043.41221836 0 294.01495678 0 -400.91017304 0 13453
0.11250000 0.11250000 15707.57292498 0 76.77667947 0 5530.05169947 0 698.01068844 0 -1146.44520870 0 13668
0.11350000 0.11349100 15030.43612494 0 391.96149099 0 5085.82118259 0 31.93277782 0 -1081.31687837 0 13791
0.11450000 0.11448600 15153.40884394 0 164.03818831 0 4923.07904130 0 751.10365404 0 -889.71099414 0 14205
0.11550000 0.11549300 14619.14071470 0 228.68429473 0 4735.11287978 0 443.22672678 0 -824.24319615 0 14776
0.11650000 0.11649800 14648.02918708 0 330.65048564 0 5117.25004203 0 553.75379729 0 -23.35548687 0 14553
0.11750000 0.11747300 14239.76875253 0 244.08511030 0 5022.34522791 0 549.38343228 0 516.85523720 0 14568
0.11850000 0.11849100 14204.92273526 0 216.32295112 0 5393.78129066 0 362.07709696 0 1083.39864688 0 16015
0.11950000 0.11950300 14307.66228294 0 10.16597708 0 5309.91479556 0 -30.21824136 0 1298.95835782 0 15270
0.12050000 0.12050700 14162.32066899 0 -178.14970124 0 6165.38451944 0 363.96103002 0 1907.79696402 0 15999
0.12150000 0.12150000 14643.19570726 0 -234.50133148 0 5375.23421696 0 279.27171928 0 1879.07710140 0 15670
0.12250000 0.12250700 14711.20164418 0 -145.06621801 0 5673.36999630 0 525.68364428 0 2630.21110520 0 16887
0.12350000 0.12352200 14865.19855920 0 -19.10427276 0 5054.79698657 0 778.05761043 0 1777.55154400 0 16407
0.12450000 0.12449800 14621.83847087 0 212.44267849 0 4627.21387341 0 787.08610110 0 2282.02070815 0 16306
0.12550000 0.12549900 14554.05734697 0 412.93766932 0 4029.60467730 0 579.95350601 0 1815.29764915 0 17523
0.12650000 0.12650100 14108.25313897 0 366.43060098 0 3682.36973557 0 361.20257433 0 2254.75088948 0 17154
0.12750000 0.12750600 13862.64492050 0 215.19776198 0 3371.61070546 0 -17.16031463 0 2102.01292735 0 18007
0.12850000 0.12850300 13771.93286910 0 112.43798113 0 3897.13360843 0 -218.87120664 0 1910.06757546 0 17496
0.12950000 0.12949900 13756.53317760 0 77.31870365 0 3951.86433684 0 -343.11749137 0 1734.90451512 0 18405
0.13050000 0.13049000 13621.98258835 0 145.36072306 0 3895.25641976 0 50.99928199 0 1617.63080605 0 18100
0.13150000 0.13148800 13713.59389181 0 201.97763266 0 4638.19598918 0 -337.15207803 0 2492.29956138 0 19059
0.13250000 0.13249300 13330.40010839 0 240.66907654 0 4380.00948254 0 234.82056597 0 1397.98849076 0 18957
0.13350000 0.13349100 13356.81563761 0 361.97255890 0 4899.50739672 0 287.36161561 0 2667.55254692 0 19468
0.13450000 0.13450700 12823.33435391 0 434.89178426 0 4759.32524145 0 258.64512519 0 2267.20553049 0 19953
0.13550000 0.13551000 12588.96678617 0 313.03301375 0 4235.72448975 0 197.18237106 0 2362.12158526 0 19956
0.13650000 0.13649900 12389.44523570 0 149.40735732 0 4905.19516599 0 -52.20843879 0 2297.66769397 0 19723
0.13750000 0.13749600 12355.04884446 0 28.10027795 0 4360.83293239 0 6.50034467 0 1380.57672278 0 20946
0.13850000 0.13851100 12320.09042069 0 -50.63339881 0 4789.80988624 0 -68.66913532 0 1670.06844171 0 20955
0.13950000 0.13949800 12474.87418125 0 -7.57006120 0 4490.96594590 0 52.26160707 0 982.88474805 0 20506
0.14050000 0.14048300 12348.86648656 0 73.76092528 0 4568.81869287 0 214.40866830 0 827.74578292 0 21447
0.14150000 0.14148400 12333.01716903 0 196.07966322 0 4350.60394022 0 344.67544556 0 406.11796652 0 21771
0.14250000 0.14249400 12066.27652718 0 181.00707466 0 4163.97541614 0 441.49229437 0 727.86023646 0 22470
0.14350000 0.14350900 11881.36782266 0 223.69906613 0 3620.53491590 0 424.90109389 0 440.15016067 0 22519
0.14450000 0.14449900 11617.99937603 0 162.57240746 0 3352.72641223 0 627.45424787 0 253.90831497 0 22218
0.14550000 0.14550500 11497.61200670 0 112.74372683 0 3143.77395579 0 481.50001845 0 615.42113126 0 23559
0.14650000 0.14650700 11243.12367415 0 56.47954885 0 2914.92554756 0 195.84248549 0 227.44782315 0 23044
0.14750000 0.14750500 11366.20879966 0 82.94937041 0 2806.65559972 0 121.66318319 0 642.20535382 0 23649
0.14850000 0.14849900 11272.46177256 0 47.72431840 0 2736.06431313 0 -238.80537665 0 193.97766153 0 23640
0.14950000 0.14949500 11280.77985410 0 93.33831704 0 2784.03941045 0 -44.67394301 0 416.81456976 0 24457
0.15050000 0.15050000 11162.66309622 0 156.54404647 0 2732.23125123 0 21.68951002 0 621.94408088 0 24591
0.15150000 0.15149900 11022.22240599 0 155.09512659 0 2747.24876061 0 439.86464814 0 340.01282364 0 25020
0.15250000 0.15250500 10905.02738147 0 109.37917526 0 2530.51777386 0 401.35417874 0 701.22776268 0 25297
0.15350000 0.15350100 10765.21616767 0 52.29116998 0 1952.71460434 0 268.69201881 0 469.16340428 0 25452
0.15450000 0.15450400 10849.67841727 0 111.42171390 0 2287.69723677 0 96.87372650 0 672.72821682 0 26061
0.15550000 0.15549900 10519.49554269 0 117.55135315 0 2041.07735973 0 -162.43414745 0 178.50602987 0 26128
0.15650000 0.15649500 10493.23738259 0 287.35599529 0 2333.03078117 0 -134.23247883 0 492.94300090 0 26331
0.15750000 0.15749700 10145.00202294 0 223.26854921 0 2294.63271827 0 -243.74901484 0 46.65533252 0 27345
0.15850000 0.15849900 10143.54073834 0 154.20261892 0 2574.54740278 0 -78.27258527 0 366.36315708 0 26980
0.15950000 0.15949700 10007.89980597 0 88.53158997 0 2414.45805506 0 61.31257904 0 -118.96992327 0 27777
0.16050000 0.16050000 9957.18198988 0 40.71397417 0 2273.71386726 0 -30.63864170 0 134.65849950 0 28224
0.16150000 0.16150500 9942.23192440 0 169.54048685 0 2440.28907044 0 -104.43373856 0 -142.37520622 0 28075
0.16250000 0.16249700 9812.51481497 0 143.97475082 0 2296.63355410 0 -86.44229022 0 -86.40384719 0 28590
0.16350000 0.16349900 9590.98407036 0 227.40848087 0 2300.32048754 0 -82.88102725 0 -89.68375667 0 29163
0.16450000 0.16449100 9475.43018085 0 143.91405131 0 2058.19687080 0 163.01079284 0 -549.07094219 0 28996
0.16550000 0.16550500 9395.72272651 0 127.73538271 0 2023.00239336 0 231.10440683 0 -463.70044802 0 30777
0.16650000 0.16650700 9249.40317595 0 129.89021546 0 1898.84940603 0 302.86134891 0 -854.60194565 0 29211
0.16750000 0.16749900 9178.18241292 0 132.72960383 0 1794.99703393 0 16.94854077 0 -320.95542439 0 30922
0.16850000 0.16850800 9078.30923117 0 81.60633746 0 1563.15861260 0 185.81470097 0 -684.70063391 0 30867
0.16950000 0.16949900 9118.53952014 0 107.40329367 0 1646.68788819 0 -175.01805595 0 -101.70394653 0 30852
0.17050000 0.17049200 8988.18169361 0 153.49220980 0 1763.45576798 0 -111.00288725 0 -386.06239749 0 31257
0.17150000 0.17149500 8932.97885787 0 128.51885607 0 2131.76692983 0 -185.82032130 0 70.93536291 0 32608
0.17250000 0.17250900 8928.70741059 0 86.07798073 0 2098.58452887 0 32.59103032 0 276.95951743 0 32361
0.17350000 0.17350400 8888.88178505 0 11.32023454 0 2320.83467513 0 130.60399678 0 -9.50145229 0 32508
0.17450000 0.17449800 8850.75349777 0 84.81554325 0 2145.28943266 0 260.00861612 0 305.51526654 0 32791
0.17550000 0.17549800 8718.55220453 0 122.99744843 0 2288.82130184 0 327.56942328 0 37.85828685 0 33633
0.17650000 0.17650100 8510.31914973 0 262.86486547 0 1907.03259977 0 86.12058280 0 381.95506371 0 33984
0.17750000 0.17750300 8279.52610893 0 269.49010502 0 1872.17534185 0 92.63487711 0 34.13808108 0 34069
0.17850000 0.17849800 8094.80849546 0 139.28964760 0 1817.90548012 0 106.51539467 0 326.69827285 0 34536
