### header ###
fiducial parameters:
Omega_m = 0.31
Omega_nu = 0
Omega_de = 0.69
Omega_k = 0
H_0 = 100
w_de = -1
zeff = 0
beta = 0
fgrowth = 0
b_1 = 2
gamma = 0.55
Lx = 3500 Ly = 3500 Lz = 3500
nx = 700 ny = 700 nz = 700
xoffset = 857.220397 yoffset = 15.9954215 zoffset = 262.898189
bins = 400 dk = 0.001
kx_ny = 0.628318531 ky_ny = 0.628318531 kz_ny = 0.628318531
############################
A(data) = 3.07183712 (not used)
A(ran) = 3.07546823 (used)
Ngal = 187611
weighted Ngal = 0
Nran = 9360983
weighted Nran = 0
SN(data) = 3428.82908
SN(ran) = 69.0634582
SN(data+ran) = 3497.89254
############################
13 columns: k_central k_mean P_0(k) sigma^{lin}_{P_0(k)} P^img_1(k) sigma^{lin}_{P_1(k)} P_2(k) sigma^{lin}_{P_2(k)} P^img_3(k) sigma^{lin}_{P_3(k)} P_4(k) sigma^{lin}_{P_4(k)} N_modes
### header ###
0.00050000 0 0 0 0 0 0 0 0 0 0 0 0
0.00150000 0.00179520 6474.65978365 0 -10521.26032486 0 -13313.20191277 0 15025.37783212 0 19063.58160722 0 3
0.00250000 0.00253879 11728.04534669 0 -8681.54798232 0 5154.83877807 0 -27792.28411936 0 -21059.58395753 0 6
0.00350000 0.00331552 16837.25832344 0 -3117.61696154 0 -1949.14007740 0 -4814.49435524 0 15325.50320663 0 7
0.00450000 0.00420575 23173.50073400 0 -865.93701784 0 15473.09295073 0 -28384.89122590 0 3798.98024625 0 24
0.00550000 0.00557378 24345.56338572 0 2153.60751420 0 23926.84914599 0 -19572.44586582 0 15164.19986864 0 45
0.00650000 0.00659388 30992.94700850 0 3255.03391673 0 40843.12924407 0 10465.52917853 0 16171.92420668 0 40
0.00750000 0.00754703 29146.33290642 0 -2019.78756725 0 24661.65048427 0 14964.90313118 0 -2144.36769930 0 57
0.00850000 0.00846663 38532.61348632 0 -8600.84011007 0 32408.59456156 0 19423.05761760 0 -880.47455143 0 75
0.00950000 0.00948925 42699.52271229 0 -4196.12367723 0 18893.62296817 0 13611.64118968 0 -14821.69724087 0 112
0.01050000 0.01054430 51951.25270294 0 -13677.17418344 0 8778.41991032 0 18570.56666616 0 575.79671337 0 105
0.01150000 0.01145670 61568.64106187 0 -14050.47619422 0 -7552.19980338 0 4867.13432261 0 594.41685131 0 144
0.01250000 0.01249090 80453.04669644 0 -15786.59469962 0 -8298.18558914 0 12325.59833955 0 435.24024443 0 169
0.01350000 0.01339930 90310.87257451 0 -13570.50040800 0 -10071.66801757 0 8352.05078744 0 15432.28938858 0 180
0.01450000 0.01448870 99039.68749315 0 -5384.64264162 0 -10903.54361557 0 3944.72652363 0 21509.77201930 0 267
0.01550000 0.01550050 105961.11818076 0 -5288.90601934 0 -23622.56473070 0 13547.23226099 0 5979.71145067 0 238
0.01650000 0.01653350 104684.74229026 0 -2556.86585918 0 -14201.77535306 0 8821.78634084 0 22338.32038468 0 315
0.01750000 0.01747870 106751.22352064 0 -1502.29048890 0 -24937.04642718 0 15866.74053933 0 13908.95640151 0 297
0.01850000 0.01844180 105944.48201768 0 2492.58057765 0 -12239.15773543 0 -10184.86137043 0 18350.47472485 0 388
0.01950000 0.01947590 97927.64991634 0 6271.41757779 0 -30339.86520103 0 -15432.17698207 0 2382.95051107 0 399
0.02050000 0.02045430 93693.52159899 0 9290.06060964 0 -4418.64359910 0 -23520.72443508 0 6719.57108178 0 462
0.02150000 0.02154770 84569.37299413 0 7276.12942142 0 -6654.40902949 0 -28569.01308487 0 3472.88896855 0 571
0.02250000 0.02255340 79752.19212337 0 5604.43108536 0 8824.56278157 0 -9144.16820380 0 -13002.28551355 0 510
0.02350000 0.02348930 75025.38608448 0 5895.49649539 0 20345.80263611 0 -11004.27108677 0 8826.21515723 0 555
0.02450000 0.02439640 74512.25037861 0 3934.23899650 0 21678.83140630 0 -2169.27698132 0 -9082.58067845 0 592
0.02550000 0.02547300 69570.63550425 0 4894.04444046 0 39701.30394282 0 -48.03085095 0 9993.93891777 0 837
0.02650000 0.02652900 69395.28135285 0 3429.08415265 0 45434.37303514 0 -7106.13706042 0 -1892.39727251 0 723
0.02750000 0.02749970 63417.50329411 0 4418.05908526 0 47307.73988597 0 -4036.88861897 0 6081.04591701 0 826
0.02850000 0.02848090 66472.26253676 0 3105.46581810 0 58650.11850608 0 -6123.82783369 0 7073.64033916 0 831
0.02950000 0.02946900 62168.21737186 0 4069.64387520 0 47557.50714521 0 2343.52954895 0 -135.35429578 0 996
0.03050000 0.03053250 60579.91342357 0 4665.51077045 0 55500.60057776 0 6180.70552639 0 -641.50393722 0 1041
0.03150000 0.03150510 54416.43981476 0 2824.31466202 0 42108.71410987 0 13061.97336893 0 -12742.40166865 0 1036
0.03250000 0.03246190 52960.32591906 0 167.68577947 0 38610.51119588 0 14953.10044792 0 -10040.55389635 0 1059
0.03350000 0.03345080 52424.59650523 0 -1130.60713182 0 28717.05245500 0 10683.93502224 0 -10660.10484269 0 1302
0.03450000 0.03451200 53371.05929678 0 -1692.17880169 0 27174.94758121 0 9065.20263242 0 -6275.95880068 0 1339
0.03550000 0.03553350 55449.11839741 0 -708.51282842 0 25828.09281063 0 4967.16487347 0 1294.10239671 0 1365
0.03650000 0.03647120 55042.88128000 0 1786.07195725 0 29642.38282317 0 408.50997700 0 3735.11086880 0 1308
0.03750000 0.03744890 53598.34525456 0 3707.94221598 0 27764.96933808 0 2072.25892486 0 7429.37321284 0 1579
0.03850000 0.03847530 50040.79170470 0 2986.30367970 0 26881.45419063 0 5097.25292438 0 12821.87306932 0 1662
0.03950000 0.03950240 49273.95451184 0 2312.06696756 0 27416.73397844 0 5299.78696925 0 14611.94669823 0 1683
0.04050000 0.04050350 46555.85275858 0 1267.34964797 0 23832.87730588 0 8076.02536809 0 10117.69848231 0 1822
0.04150000 0.04152450 45707.52084791 0 1250.37626536 0 22060.22668560 0 3368.46332325 0 12453.85416439 0 1887
0.04250000 0.04250150 43617.99628352 0 1588.75357432 0 16542.64086779 0 1899.09670035 0 7796.05448034 0 1920
0.04350000 0.04349210 43422.74618033 0 1191.71130920 0 15582.68929536 0 1116.25731710 0 7935.75328762 0 2005
0.04450000 0.04448520 41550.84061409 0 1727.91283037 0 13355.12954000 0 -2786.04024628 0 3856.95952272 0 2151
0.04550000 0.04548030 39882.27841959 0 1536.38338256 0 15183.30897489 0 -365.94950113 0 1211.85455531 0 2274
0.04650000 0.04648670 39113.30550308 0 1078.32349308 0 17069.93979358 0 -2798.59605315 0 -918.05204683 0 2311
0.04750000 0.04749250 37855.70149930 0 475.96849423 0 15390.81138738 0 -306.90573504 0 -4198.22567891 0 2568
0.04850000 0.04851840 38717.74700386 0 -614.97262930 0 18397.23583189 0 -81.91118391 0 -6627.16169212 0 2493
0.04950000 0.04949480 38183.36646810 0 -610.36733469 0 14474.81075931 0 829.02496897 0 -6299.05833793 0 2644
0.05050000 0.05050630 39964.89720246 0 -1019.90358310 0 16165.06740973 0 1504.31380603 0 -4455.24315788 0 2829
0.05150000 0.05149060 40021.99970817 0 -43.09867822 0 14126.80021268 0 1765.33295665 0 -4677.96541146 0 2784
0.05250000 0.05249300 41406.17343919 0 50.58393995 0 14673.20824471 0 2291.15935720 0 -1894.28570184 0 3055
0.05350000 0.05348950 39370.04196577 0 1241.37250413 0 14647.69196755 0 -940.87506407 0 -1408.37485204 0 3009
0.05450000 0.05448610 39468.84728570 0 1853.60578684 0 14775.16094684 0 1203.19925425 0 3847.15767528 0 3336
0.05550000 0.05550870 37433.16543832 0 1321.95672922 0 17460.55240648 0 332.53104651 0 5711.01493559 0 3349
0.05650000 0.05647670 37761.72965918 0 723.53258593 0 15804.69214730 0 4069.03688006 0 6758.83467478 0 3324
0.05750000 0.05747970 37152.03676354 0 169.80351807 0 17299.47388150 0 1659.95185605 0 6385.63382986 0 3639
0.05850000 0.05849280 36925.08802528 0 833.69545935 0 18089.91644091 0 1256.61482652 0 9754.26576288 0 3846
0.05950000 0.05951020 36290.44088500 0 1660.32279752 0 18923.41069261 0 -227.86934755 0 9095.74348046 0 3787
0.06050000 0.06049470 33941.36969524 0 1338.59289230 0 18286.74023521 0 1159.95647088 0 7992.86703398 0 3930
0.06150000 0.06148310 34493.51045915 0 792.01512644 0 19310.98832981 0 2087.32139684 0 9094.32715846 0 4083
0.06250000 0.06249100 33087.64227222 0 -346.66279261 0 18442.08602831 0 840.34992458 0 6560.95425932 0 4303
0.06350000 0.06350600 34207.54830455 0 -434.03637074 0 18223.68018460 0 2731.47812763 0 7495.18722287 0 4470
0.06450000 0.06451750 33813.56349643 0 25.85574481 0 13986.06726553 0 735.40158903 0 2483.30704079 0 4479
0.06550000 0.06550280 34036.80281995 0 262.28822009 0 14715.69790448 0 1499.01945953 0 5535.79567200 0 4636
0.06650000 0.06648880 32857.54615176 0 777.39328797 0 13005.77011528 0 1628.23073969 0 1766.35585587 0 4653
0.06750000 0.06749660 32471.09257963 0 852.57750445 0 10026.30075122 0 2546.06359382 0 2496.42488020 0 5220
0.06850000 0.06852730 30945.96108845 0 735.86020758 0 8681.28944735 0 3097.39503088 0 1569.58826482 0 5029
0.06950000 0.06949320 30331.77193251 0 754.01273445 0 5912.79585687 0 2718.52889799 0 520.27014689 0 5040
0.07050000 0.07048030 30025.23938707 0 478.44930584 0 6701.70968777 0 777.74849253 0 2071.98914924 0 5475
0.07150000 0.07148790 28788.54299365 0 720.27729348 0 6043.65951268 0 -124.27888261 0 -376.30101639 0 5509
0.07250000 0.07249820 28860.82037785 0 1131.89980666 0 6768.04076773 0 -1863.39639363 0 975.73119792 0 5916
0.07350000 0.07351270 28399.61647836 0 756.86111534 0 8572.32257917 0 -1776.41623827 0 58.27052173 0 5721
0.07450000 0.07449140 27193.15743540 0 907.36668424 0 7980.23254256 0 -1334.87223691 0 -458.21950672 0 6028
0.07550000 0.07549160 27223.84441189 0 377.48128472 0 9208.82442681 0 699.55852605 0 -1135.10339212 0 6183
0.07650000 0.07648840 26155.19574690 0 181.08913141 0 7490.06148614 0 873.72903693 0 -3017.60889199 0 6330
0.07750000 0.07749960 25670.83610690 0 803.99203979 0 6608.34484280 0 1970.72212681 0 -2675.29735528 0 6583
0.07850000 0.07848650 25394.76572495 0 375.06229668 0 5940.91996499 0 990.37776583 0 -3054.25341337 0 6549
0.07950000 0.07947320 24691.77542823 0 328.16517777 0 5613.60345636 0 -78.80853949 0 -811.98414246 0 6828
0.08050000 0.08048110 24477.19140578 0 373.86966364 0 6078.50552994 0 19.00760317 0 -1539.15982329 0 7147
0.08150000 0.08149960 24749.77718600 0 225.19407268 0 7450.76417118 0 -456.11076065 0 898.65517993 0 7386
0.08250000 0.08250610 24589.03588055 0 485.97829370 0 9225.26949883 0 -683.64513681 0 2315.22559041 0 7227
0.08350000 0.08350160 24321.50839315 0 848.48703165 0 10994.27814827 0 -1339.27857199 0 3302.40201891 0 7798
0.08450000 0.08449610 24453.81085226 0 781.23983865 0 12784.32929588 0 491.94820331 0 6903.83906921 0 7371
0.08550000 0.08548940 23674.49653708 0 383.01056081 0 11716.80469596 0 331.90831446 0 2771.24754992 0 8256
0.08650000 0.08650700 23562.42724929 0 147.01085059 0 12607.06423385 0 1664.11089682 0 6872.43269107 0 8037
0.08750000 0.08749060 23366.95233308 0 46.91442952 0 10371.27632215 0 849.57962290 0 913.73788508 0 8155
0.08850000 0.08849210 23332.89316136 0 65.43025421 0 9913.17484226 0 723.40781470 0 4375.78299786 0 8718
0.08950000 0.08949900 22732.08037979 0 390.64970705 0 7792.31134364 0 111.98014943 0 -314.25037623 0 8571
0.09050000 0.09049190 22398.90749212 0 310.22172700 0 7674.61048984 0 -160.45354479 0 -523.30849478 0 8932
0.09150000 0.09150830 21969.51463420 0 123.07725705 0 7113.74698096 0 316.01403433 0 -1684.49019659 0 9285
0.09250000 0.09250820 21536.52476804 0 207.33829899 0 6267.87677281 0 1025.08777122 0 -2591.19480651 0 9204
0.09350000 0.09350330 21412.54039048 0 225.24915187 0 5936.41246405 0 1089.25165372 0 -1978.72547013 0 9349
0.09450000 0.09448040 21037.21506257 0 470.13234837 0 5489.87761376 0 1222.49945155 0 -2549.37958579 0 9564
0.09550000 0.09549270 20049.72389585 0 718.08873878 0 5094.73501862 0 917.23147932 0 -1670.25953277 0 10155
0.09650000 0.09649430 19661.80903913 0 734.34159567 0 4546.58468572 0 731.17398029 0 -533.82974387 0 9913
0.09750000 0.09749140 18975.90453152 0 272.38120038 0 4697.00707380 0 234.54629409 0 -317.61582705 0 10476
0.09850000 0.09850240 19018.39419129 0 219.75696992 0 4565.45773830 0 -2.76602065 0 -944.26524433 0 10575
0.09950000 0.09950330 18975.11768597 0 4.83564926 0 5694.25512535 0 -530.91616720 0 -635.56325331 0 10882
0.10050000 0.10051200 19003.55653232 0 254.40290360 0 5055.67375733 0 -1219.14973763 0 -1429.67588517 0 10875
0.10150000 0.10150300 18777.73185914 0 416.17160453 0 6553.90637131 0 -1098.43638943 0 -925.46638005 0 11118
0.10250000 0.10250800 18794.03080270 0 448.71890873 0 6139.13759998 0 -722.15335808 0 -937.56469243 0 11575
0.10350000 0.10349800 18378.23913216 0 560.48807114 0 6848.19784810 0 253.66439285 0 -1864.64410586 0 11364
0.10450000 0.10450100 17761.46462655 0 484.00780763 0 5664.25382855 0 1034.76484743 0 -1630.47886983 0 12093
0.10550000 0.10551000 17344.32407792 0 445.86153531 0 5024.68328326 0 1216.24964974 0 -2103.62034040 0 12067
0.10650000 0.10649700 16582.20795836 0 390.03371939 0 4579.89073384 0 819.45917520 0 -1890.10417977 0 12054
0.10750000 0.10749900 16481.15450829 0 427.32120599 0 3974.33439766 0 251.35443913 0 -1319.68611777 0 12807
0.10850000 0.10850100 15896.30345075 0 388.53309252 0 3995.55674624 0 42.49348158 0 -1183.21337725 0 12736
0.10950000 0.10950300 15804.24252127 0 320.16745477 0 4116.59607331 0 -322.14918149 0 -711.04085077 0 12933
0.11050000 0.11050200 15634.62110174 0 74.88049410 0 5102.49106762 0 -92.98682189 0 -246.03536320 0 13428
0.11150000 0.11150900 15713.98009590 0 105.79700468 0 4693.02788344 0 543.17522088 0 333.55394573 0 13453
0.11250000 0.11250000 15461.06545445 0 5.38409185 0 5458.93210230 0 616.99931862 0 378.11638148 0 13668
0.11350000 0.11349100 15614.72514994 0 250.91717781 0 4792.15918224 0 538.51597116 0 1506.06734754 0 13791
0.11450000 0.11448600 15300.09933598 0 414.99808060 0 5182.10859675 0 235.65799445 0 580.43348180 0 14205
0.11550000 0.11549300 14898.80810488 0 575.71128442 0 4777.20911677 0 48.11583027 0 994.01074414 0 14776
0.11650000 0.11649800 14144.56044084 0 418.12522963 0 4890.04276880 0 -611.49252383 0 38.93806376 0 14553
0.11750000 0.11747300 14195.36818214 0 294.73435843 0 4988.02752123 0 -339.81386412 0 22.20073482 0 14568
0.11850000 0.11849100 13897.37853126 0 -123.50102958 0 4872.97946099 0 -441.98800707 0 -1453.86576555 0 16015
0.11950000 0.11950300 14430.29778242 0 -227.41522526 0 5250.18197757 0 -747.03116628 0 -1790.60193949 0 15270
0.12050000 0.12050700 14611.38466569 0 -248.51505075 0 5315.98474695 0 -556.79888957 0 -1961.86449403 0 15999
0.12150000 0.12150000 14880.26103118 0 14.35341173 0 5678.83295255 0 -241.33227493 0 -1984.09850118 0 15670
0.12250000 0.12250700 14991.65587992 0 138.23752269 0 6099.03095818 0 149.21739032 0 -1109.48819723 0 16887
0.12350000 0.12352200 14746.72210049 0 351.21638022 0 6147.64677259 0 918.63318847 0 -1029.74140062 0 16407
0.12450000 0.12449800 14597.67107180 0 307.62176449 0 5969.11151703 0 1186.75418223 0 -119.85456248 0 16306
0.12550000 0.12549900 14333.29096661 0 213.78706032 0 5500.98337668 0 1445.00813277 0 257.00961051 0 17523
0.12650000 0.12650100 14070.03492649 0 2.43511837 0 4769.75656533 0 1111.05739207 0 395.19317807 0 17154
0.12750000 0.12750600 13880.74236818 0 -10.99296299 0 4158.06283385 0 1267.78803335 0 501.76691172 0 18007
0.12850000 0.12850300 13967.85741134 0 22.65294620 0 3659.86595280 0 624.25403461 0 769.47537359 0 17496
0.12950000 0.12949900 13472.48193363 0 383.88171124 0 3210.53218048 0 236.17843657 0 204.44832769 0 18405
0.13050000 0.13049000 13196.86117771 0 570.08533873 0 2832.73390942 0 88.56025363 0 341.86753101 0 18100
0.13150000 0.13148800 12326.27277859 0 752.78525539 0 3396.98085416 0 -517.67917690 0 961.93105102 0 19059
0.13250000 0.13249300 11996.80930566 0 570.33263305 0 3276.21130271 0 -199.42825307 0 584.37332988 0 18957
0.13350000 0.13349100 11552.46638227 0 304.72167660 0 4101.37623222 0 -329.90523050 0 1312.01999397 0 19468
0.13450000 0.13450700 11399.93075185 0 13.35130772 0 3649.52455413 0 105.18079221 0 997.02885886 0 19953
0.13550000 0.13551000 11487.72023406 0 -144.84702532 0 4043.47564030 0 37.05570439 0 981.40997467 0 19956
0.13650000 0.13649900 11740.85968852 0 -207.27197915 0 3456.76987540 0 195.28607328 0 599.96748464 0 19723
0.13750000 0.13749600 11805.94305625 0 -145.26630159 0 3740.70871286 0 -17.82441227 0 262.40399879 0 20946
0.13850000 0.13851100 12147.32161895 0 -135.95342246 0 3235.16044624 0 -64.62643528 0 356.76926168 0 20955
0.13950000 0.13949800 12059.41973024 0 -49.44031614 0 3501.32781489 0 195.93803102 0 -219.78844374 0 20506
0.14050000 0.14048300 12269.17027288 0 132.13272528 0 3215.92769284 0 268.50542401 0 350.72179159 0 21447
0.14150000 0.14148400 12067.40059226 0 52.20326809 0 2904.49422368 0 371.18652031 0 162.33747786 0 21771
0.14250000 0.14249400 12079.31568203 0 263.72365119 0 2931.86520821 0 276.65939205 0 686.71383446 0 22470
0.14350000 0.14350900 11920.26047419 0 299.90168557 0 3013.40488861 0 240.34309767 0 656.93622661 0 22519
0.14450000 0.14449900 11491.87927483 0 296.20800774 0 2795.13393272 0 286.31735916 0 638.03956866 0 22218
0.14550000 0.14550500 11291.45847230 0 280.02596695 0 2967.50931168 0 101.22307149 0 1521.56820490 0 23559
0.14650000 0.14650700 11051.18956292 0 274.61022142 0 2957.60629839 0 20.58949994 0 1231.04234611 0 23044
0.14750000 0.14750500 10968.34596703 0 110.18737804 0 3264.64467310 0 202.18333657 0 2046.73140705 0 23649
0.14850000 0.14849900 10738.57582544 0 164.60471711 0 3542.80581609 0 -111.07179244 0 1337.86225000 0 23640
0.14950000 0.14949500 10899.67683172 0 73.44180321 0 3417.13534092 0 240.89950988 0 2013.61645000 0 24457
0.15050000 0.15050000 10765.10376117 0 59.73810109 0 3904.52995662 0 149.75806562 0 1994.68719417 0 24591
0.15150000 0.15149900 10844.40655207 0 55.69933528 0 3370.66649080 0 280.01697442 0 2046.10193061 0 25020
0.15250000 0.15250500 10687.59947438 0 -61.22096773 0 3676.28854352 0 473.08526732 0 1410.15087485 0 25297
0.15350000 0.15350100 10850.09432134 0 60.47582500 0 3023.24045800 0 -51.69238052 0 1426.91068509 0 25452
0.15450000 0.15450400 10627.16973605 0 149.37925569 0 3260.84533316 0 -16.86794530 0 1460.56519338 0 26061
0.15550000 0.15549900 10493.68700862 0 316.52435987 0 3042.48445206 0 -190.13223492 0 1172.96190378 0 26128
0.15650000 0.15649500 10237.58002236 0 271.23465401 0 3345.15021364 0 109.49484155 0 1720.38159438 0 26331
0.15750000 0.15749700 9972.84021634 0 283.73650575 0 3197.77404190 0 35.84665999 0 1228.87290051 0 27345
0.15850000 0.15849900 9862.07484404 0 231.54391628 0 3569.82834045 0 252.72355038 0 1650.91437286 0 26980
0.15950000 0.15949700 9649.66026718 0 213.48019055 0 3321.78090077 0 -50.31416433 0 1236.32545195 0 27777
0.16050000 0.16050000 9515.94148608 0 217.55942270 0 3402.55621692 0 -107.92204970 0 1474.90826371 0 28224
0.16150000 0.16150500 9281.18049556 0 202.24066389 0 3368.58697041 0 -237.91174492 0 799.76218292 0 28075
0.16250000 0.16249700 9106.29845149 0 230.07476323 0 3206.96889420 0 -187.91782673 0 634.03002855 0 28590
0.16350000 0.16349900 8941.47678982 0 135.71399660 0 3017.13678466 0 -48.87839601 0 229.61839281 0 29163
0.16450000 0.16449100 8893.01834452 0 42.96513929 0 2897.14283810 0 141.45684506 0 -161.83389670 0 28996
0.16550000 0.16550500 8783.29835274 0 14.12488930 0 2442.30114693 0 383.22413318 0 -493.75232775 0 30777
0.16650000 0.16650700 8754.49980556 0 3.95921572 0 2486.46566365 0 280.70827444 0 -1005.19069536 0 29211
0.16750000 0.16749900 8681.03091239 0 78.57923022 0 2047.60817781 0 209.20986734 0 -655.97065471 0 30922
0.16850000 0.16850800 8568.44455466 0 172.68112466 0 2154.33815650 0 95.26766233 0 -611.08336414 0 30867
0.16950000 0.16949900 8495.58265663 0 142.90351681 0 2277.36707875 0 102.33510907 0 -321.55455107 0 30852
0.17050000 0.17049200 8414.77361852 0 95.60454463 0 2055.54407722 0 288.94542330 0 -274.34269394 0 31257
0.17150000 0.17149500 8254.75171472 0 43.91205171 0 2201.65005543 0 224.05764289 0 -16.00679905 0 32608
0.17250000 0.17250900 8352.83763299 0 49.17065293 0 1860.64243420 0 234.87676922 0 175.47217824 0 32361
0.17350000 0.17350400 8344.84553032 0 17.42053569 0 2242.88076231 0 7.66455011 0 450.37240845 0 32508
0.17450000 0.17449800 8384.98589408 0 147.14349026 0 2041.14480364 0 -146.47242342 0 576.94663194 0 32791
0.17550000 0.17549800 8303.39001043 0 182.60212299 0 2441.99764936 0 -162.58252404 0 876.96522027 0 33633
0.17650000 0.17650100 8144.04254567 0 247.28981982 0 2464.35530366 0 -229.69033297 0 864.84892285 0 33984
0.17750000 0.17750300 8072.55200702 0 202.61834975 0 2986.46104881 0 -160.30966447 0 1139.13878573 0 34069
