### header ###
fiducial parameters:
Omega_m = 0.31
Omega_nu = 0
Omega_de = 0.69
Omega_k = 0
H_0 = 100
w_de = -1
zeff = 0
beta = 0
fgrowth = 0
b_1 = 2
gamma = 0.55
Lx = 3500 Ly = 3500 Lz = 3500
nx = 700 ny = 700 nz = 700
xoffset = 857.220397 yoffset = 15.9954215 zoffset = 262.898189
bins = 400 dk = 0.001
kx_ny = 0.628318531 ky_ny = 0.628318531 kz_ny = 0.628318531
############################
A(data) = 3.07262586 (not used)
A(ran) = 3.07503586 (used)
Ngal = 187260
weighted Ngal = 0
Nran = 9360983
weighted Nran = 0
SN(data) = 3439.39514
SN(ran) = 69.0537489
SN(data+ran) = 3508.44888
############################
13 columns: k_central k_mean P_0(k) sigma^{lin}_{P_0(k)} P^img_1(k) sigma^{lin}_{P_1(k)} P_2(k) sigma^{lin}_{P_2(k)} P^img_3(k) sigma^{lin}_{P_3(k)} P_4(k) sigma^{lin}_{P_4(k)} N_modes
### header ###
0.00050000 0 0 0 0 0 0 0 0 0 0 0 0
0.00150000 0.00179520 9135.36677428 0 -18143.42193839 0 -6092.37649294 0 -1428.04599082 0 36891.81569911 0 3
0.00250000 0.00253879 19552.54991402 0 -23006.35225763 0 -19730.71422811 0 -1362.62540356 0 -5518.48506987 0 6
0.00350000 0.00331552 32998.05428590 0 -25764.92035352 0 -35656.80540330 0 21591.60395662 0 1545.04992428 0 7
0.00450000 0.00420575 48467.77504141 0 -26547.94408344 0 -45147.39922198 0 6296.54043217 0 3991.18413310 0 24
0.00550000 0.00557378 65578.63080365 0 -19590.76812651 0 -62855.69557057 0 13049.38384011 0 28306.31907729 0 45
0.00650000 0.00659388 72942.94313005 0 -12807.37262988 0 -68177.13203313 0 20716.29448420 0 41203.05488048 0 40
0.00750000 0.00754703 71207.83628322 0 -6031.74442290 0 -77017.67902004 0 16099.53441597 0 37292.54489767 0 57
0.00850000 0.00846663 69141.91708537 0 -2981.76245681 0 -59278.35847543 0 8282.61728788 0 56386.02663584 0 75
0.00950000 0.00948925 65035.37015382 0 620.38163043 0 -50789.41904339 0 -7294.40671951 0 50649.58534829 0 112
0.01050000 0.01054430 60604.41804217 0 110.13701993 0 -36966.56602647 0 -14975.91896890 0 51923.37588913 0 105
0.01150000 0.01145670 63374.33919530 0 -717.27379160 0 -19952.49226703 0 -18770.53784267 0 60415.57510989 0 144
0.01250000 0.01249090 64237.95839096 0 -883.55898599 0 -6232.27763194 0 -23216.32761328 0 42251.92000019 0 169
0.01350000 0.01339930 69637.40496959 0 1279.64691987 0 12893.47601448 0 -25903.06795100 0 36000.99412868 0 180
0.01450000 0.01448870 74936.13531767 0 -192.63890003 0 9160.26481565 0 -15157.56788471 0 32701.52591961 0 267
0.01550000 0.01550050 78116.34022249 0 4024.41149666 0 20468.77535511 0 -12701.14848047 0 11897.77917272 0 238
0.01650000 0.01653350 79725.43937463 0 4943.07615895 0 21523.82283272 0 -13579.60533510 0 7780.11523760 0 315
0.01750000 0.01747870 83823.33100512 0 1548.66941381 0 38492.14714368 0 5087.38363304 0 -5246.56248804 0 297
0.01850000 0.01844180 74003.04890049 0 4695.53454856 0 23852.88566418 0 -2056.42084798 0 -997.26491253 0 388
0.01950000 0.01947590 78253.70097442 0 1200.38909156 0 19264.90166182 0 10879.75839862 0 -3825.95780801 0 399
0.02050000 0.02045430 76176.20390632 0 -2403.77943687 0 20253.85411313 0 23021.86435564 0 6320.88768165 0 462
0.02150000 0.02154770 73022.07731120 0 -2330.82761363 0 4432.72813446 0 27255.54304696 0 5643.98693528 0 571
0.02250000 0.02255340 75862.47734442 0 251.90523101 0 1152.62756661 0 21400.62530070 0 4289.31991244 0 510
0.02350000 0.02348930 67764.48774479 0 3310.18054921 0 -4779.20995260 0 10224.02379758 0 20955.72034477 0 555
0.02450000 0.02439640 67471.55638675 0 4184.38843787 0 -4622.18930254 0 -4306.46190480 0 7911.96807067 0 592
0.02550000 0.02547300 62274.77874079 0 4377.72763044 0 8714.98891824 0 -13784.85961744 0 25462.09722283 0 837
0.02650000 0.02652900 58495.22233900 0 4613.42159497 0 21501.11671824 0 -13389.86315076 0 5268.88642039 0 723
0.02750000 0.02749970 58034.13084602 0 3062.72886402 0 31991.79123246 0 -14039.12313698 0 17648.15886718 0 826
0.02850000 0.02848090 56871.84756044 0 2845.40212279 0 34553.98516008 0 -4194.97713085 0 -4231.66661484 0 831
0.02950000 0.02946900 58204.98873713 0 1236.35917390 0 36949.25542435 0 -4596.84163514 0 -2668.90142501 0 996
0.03050000 0.03053250 55234.64678147 0 262.42985229 0 31768.21468942 0 4892.25717700 0 -14979.62838364 0 1041
0.03150000 0.03150510 56209.77323238 0 637.54835223 0 27980.78983212 0 6598.08212868 0 -23947.75675635 0 1036
0.03250000 0.03246190 53795.16904886 0 2396.61914235 0 23521.73609364 0 7043.24561958 0 -17470.21936611 0 1059
0.03350000 0.03345080 52279.47970429 0 1819.25435821 0 14377.57913049 0 9687.97964552 0 -19422.04595904 0 1302
0.03450000 0.03451200 47989.14813328 0 2075.64236073 0 14107.46629342 0 4959.83596919 0 -11834.60671562 0 1339
0.03550000 0.03553350 48305.01041882 0 772.13828375 0 7936.39400471 0 4273.59424207 0 -12316.15619293 0 1365
0.03650000 0.03647120 46945.79093243 0 715.12682731 0 11391.50026380 0 2069.66233454 0 -7600.91678365 0 1308
0.03750000 0.03744890 45889.05735721 0 1368.87520537 0 10175.02580104 0 536.01492637 0 -2455.57635544 0 1579
0.03850000 0.03847530 45239.01052544 0 153.52817988 0 10045.60094853 0 1131.05675785 0 -2568.48869203 0 1662
0.03950000 0.03950240 44902.69025557 0 1007.97837674 0 10670.59236982 0 1840.16196857 0 1369.06629643 0 1683
0.04050000 0.04050350 43729.39113227 0 1014.25065985 0 6169.68968867 0 715.56521269 0 -6429.68594008 0 1822
0.04150000 0.04152450 41771.15736842 0 1651.27407368 0 7624.11748675 0 1126.17831544 0 2075.49623227 0 1887
0.04250000 0.04250150 39397.80637308 0 1902.64874598 0 5735.94669891 0 -1829.08992760 0 -3498.67502132 0 1920
0.04350000 0.04349210 39746.04173273 0 273.69410839 0 5647.16803944 0 -128.29741525 0 2306.19934787 0 2005
0.04450000 0.04448520 39886.99949289 0 47.66586702 0 9710.20241201 0 -1223.76964508 0 2340.47209195 0 2151
0.04550000 0.04548030 40355.84703488 0 -1007.86934243 0 7316.51707950 0 3393.99084106 0 6088.39730258 0 2274
0.04650000 0.04648670 41291.40639522 0 269.93973104 0 12172.16345707 0 2493.94069638 0 7449.29164594 0 2311
0.04750000 0.04749250 41903.68464054 0 734.58551779 0 10901.44161388 0 548.38863469 0 8584.57488846 0 2568
0.04850000 0.04851840 40861.33909826 0 2329.66982660 0 15019.19547421 0 -170.51617533 0 8504.22671704 0 2493
0.04950000 0.04949480 40351.12596158 0 1018.91890210 0 14727.95021377 0 -298.97208375 0 8420.31525933 0 2644
0.05050000 0.05050630 39082.05649405 0 224.75905950 0 16015.45434850 0 -268.66166906 0 9532.02685728 0 2829
0.05150000 0.05149060 38975.94475115 0 -412.28795971 0 17162.11312957 0 714.36808339 0 6745.79551994 0 2784
0.05250000 0.05249300 39801.90776686 0 25.69320500 0 16584.79330803 0 -1144.35444767 0 105.29207465 0 3055
0.05350000 0.05348950 38967.62666961 0 728.59874721 0 16147.08236856 0 -835.29837615 0 -1209.99984794 0 3009
0.05450000 0.05448610 39670.05493378 0 1071.77806216 0 19110.90474680 0 -3231.66460386 0 -834.37327059 0 3336
0.05550000 0.05550870 38308.36250423 0 1305.93880193 0 20127.84641843 0 -3515.77205108 0 -676.89849824 0 3349
0.05650000 0.05647670 39099.02987665 0 926.31055292 0 22222.87890168 0 -1668.58467581 0 -2900.93093740 0 3324
0.05750000 0.05747970 37860.08535308 0 743.79273480 0 19774.10313993 0 404.38803037 0 -1618.67618656 0 3639
0.05850000 0.05849280 38056.23470834 0 195.99311021 0 19705.75998349 0 1918.83528303 0 -4650.11107895 0 3846
0.05950000 0.05951020 38088.38296943 0 -145.69794258 0 17894.10430517 0 3348.58985276 0 -1423.40360207 0 3787
0.06050000 0.06049470 36564.15073030 0 -171.55930772 0 15749.16333268 0 4666.51118837 0 -4760.58419434 0 3930
0.06150000 0.06148310 37344.36429754 0 150.81918305 0 14598.45791735 0 5168.06902398 0 -356.16001841 0 4083
0.06250000 0.06249100 35727.39668989 0 427.29760063 0 12724.19181447 0 4945.86384033 0 -1545.57823486 0 4303
0.06350000 0.06350600 35312.27945839 0 788.03818421 0 9670.52291493 0 2343.00123837 0 398.11125100 0 4470
0.06450000 0.06451750 34424.26805065 0 632.46420590 0 11130.37994732 0 1937.57344780 0 1634.01967481 0 4479
0.06550000 0.06550280 34280.16290827 0 687.01508390 0 8479.38487892 0 972.79176776 0 2020.12478677 0 4636
0.06650000 0.06648880 33411.37301328 0 879.76639044 0 10786.94434554 0 804.57992583 0 4799.58925237 0 4653
0.06750000 0.06749660 32423.09500101 0 798.37396256 0 6330.73449169 0 1401.31572338 0 3946.37889929 0 5220
0.06850000 0.06852730 31157.73494822 0 959.70315405 0 7154.75287483 0 2430.90312708 0 4954.28308773 0 5029
0.06950000 0.06949320 31331.29059551 0 452.74643388 0 5165.97826295 0 1538.57530946 0 3631.52827231 0 5040
0.07050000 0.07048030 29611.92065969 0 349.15147268 0 4792.35027330 0 520.88501048 0 1279.96165809 0 5475
0.07150000 0.07148790 29929.35663634 0 596.98309187 0 5715.94958126 0 -1599.29730470 0 1208.08893731 0 5509
0.07250000 0.07249820 29156.22467906 0 312.58113959 0 6015.37803544 0 -2774.43989472 0 1354.18367486 0 5916
0.07350000 0.07351270 29426.22510962 0 566.33882984 0 7691.64007570 0 -1750.00070905 0 -506.49023316 0 5721
0.07450000 0.07449140 28720.76186974 0 587.38582427 0 7006.18519412 0 -1024.29642941 0 -377.77354164 0 6028
0.07550000 0.07549160 28711.99416217 0 718.67437668 0 9407.95255451 0 647.09728502 0 50.70421491 0 6183
0.07650000 0.07648840 27949.20360357 0 862.99084329 0 9157.55581883 0 875.95356171 0 -522.07876759 0 6330
0.07750000 0.07749960 27466.19284165 0 758.32914433 0 9889.42334727 0 1131.91104731 0 1860.79980331 0 6583
0.07850000 0.07848650 26745.32991028 0 648.21010944 0 8802.95825087 0 1976.66843104 0 2160.99262173 0 6549
0.07950000 0.07947320 25775.93619124 0 864.66907244 0 8972.59091105 0 1078.60113715 0 4120.14811894 0 6828
0.08050000 0.08048110 25432.87153093 0 893.99593020 0 9488.71663001 0 753.88571510 0 4103.38830870 0 7147
0.08150000 0.08149960 24512.93667510 0 491.29849369 0 8629.39136293 0 795.72454118 0 5764.13825095 0 7386
0.08250000 0.08250610 24504.50618705 0 158.59883742 0 9341.32921763 0 192.56695987 0 4866.61725268 0 7227
0.08350000 0.08350160 24526.76267550 0 58.90292074 0 8356.70441685 0 -704.04017349 0 3103.13900340 0 7798
0.08450000 0.08449610 24481.57525956 0 413.27826104 0 9442.48383355 0 -1089.42813194 0 2296.80216386 0 7371
0.08550000 0.08548940 24068.25653218 0 729.90153863 0 8492.58140288 0 -1774.20183008 0 202.75098943 0 8256
0.08650000 0.08650700 23100.43650425 0 673.01934967 0 9049.06105797 0 -382.45976893 0 653.46286553 0 8037
0.08750000 0.08749060 22586.73876584 0 697.55094583 0 9520.60635613 0 -35.60689691 0 -1851.63867296 0 8155
0.08850000 0.08849210 22504.34479598 0 123.68762438 0 9335.16934103 0 577.90433538 0 -167.71388110 0 8718
0.08950000 0.08949900 22449.71523343 0 -182.14350444 0 10298.65047778 0 294.99738965 0 -1095.69591878 0 8571
0.09050000 0.09049190 22746.91803876 0 -86.84897696 0 10105.90703970 0 794.17220732 0 327.57167141 0 8932
0.09150000 0.09150830 22578.75790382 0 8.28887833 0 10556.56720880 0 784.82223404 0 94.22059571 0 9285
0.09250000 0.09250820 22533.23326836 0 438.83050828 0 9354.10983751 0 1145.11881192 0 748.20806241 0 9204
0.09350000 0.09350330 21870.82172078 0 692.57470975 0 9236.60007477 0 1274.20644491 0 1633.52508618 0 9349
0.09450000 0.09448040 21034.29249338 0 975.76379581 0 7963.13551280 0 1210.75297154 0 770.15430890 0 9564
0.09550000 0.09549270 19993.07101617 0 942.21157744 0 6677.81206432 0 1150.08717954 0 1297.44086997 0 10155
0.09650000 0.09649430 19100.00131559 0 939.80945038 0 6290.41427752 0 139.14239507 0 39.94028018 0 9913
0.09750000 0.09749140 18279.54621874 0 742.10776126 0 5752.42549289 0 -171.83807585 0 1308.71524266 0 10476
0.09850000 0.09850240 17603.42107727 0 709.12881608 0 5786.96801258 0 -144.00847278 0 293.39222473 0 10575
0.09950000 0.09950330 17432.11356013 0 432.83586924 0 6617.28116013 0 -132.41711374 0 1904.17747448 0 10882
0.10050000 0.10051200 16945.73060300 0 638.78594787 0 6552.99587860 0 257.15011864 0 1434.45316173 0 10875
0.10150000 0.10150300 16571.52934016 0 463.11031386 0 7448.84201991 0 805.76469041 0 2325.43210128 0 11118
0.10250000 0.10250800 16059.74251238 0 227.94016365 0 7070.38055044 0 926.57358415 0 3405.93965279 0 11575
0.10350000 0.10349800 15903.04784119 0 142.56966948 0 7151.99891540 0 1475.75131252 0 3071.59773745 0 11364
0.10450000 0.10450100 15856.06192114 0 -153.25503207 0 6262.58242631 0 420.66224450 0 3353.09735371 0 12093
0.10550000 0.10551000 16242.85271279 0 -229.61277248 0 6508.19064478 0 838.36707379 0 2640.46257866 0 12067
0.10650000 0.10649700 16186.87427215 0 -210.72173486 0 5481.96419565 0 145.51359591 0 3755.05178319 0 12054
0.10750000 0.10749900 16633.46532569 0 -218.09784987 0 5483.11074202 0 332.00610812 0 2031.62397247 0 12807
0.10850000 0.10850100 16792.52053353 0 -67.41063206 0 5063.57593479 0 -122.56243525 0 2100.38303299 0 12736
0.10950000 0.10950300 17013.28691389 0 31.37333063 0 5713.02701207 0 -291.81853363 0 1511.81132006 0 12933
0.11050000 0.11050200 16619.86413831 0 361.77809565 0 5271.68534242 0 -26.91967240 0 1213.06854559 0 13428
0.11150000 0.11150900 16417.98205118 0 383.45007026 0 5045.50096841 0 48.39853263 0 1842.23024830 0 13453
0.11250000 0.11250000 16229.02671239 0 333.00989823 0 5241.08829113 0 438.25611103 0 1869.82604585 0 13668
0.11350000 0.11349100 15967.90639591 0 356.49274167 0 4896.34877386 0 990.28334436 0 2758.91655607 0 13791
0.11450000 0.11448600 15675.19985087 0 145.02125541 0 4988.27481554 0 1153.15587719 0 2887.30726871 0 14205
0.11550000 0.11549300 15482.31028433 0 41.41291783 0 4001.72786349 0 1274.22892621 0 3096.28220645 0 14776
0.11650000 0.11649800 15615.51199549 0 9.03705604 0 4039.35032148 0 616.91951000 0 3226.69623624 0 14553
0.11750000 0.11747300 15194.88684514 0 198.76280655 0 4085.12225126 0 321.71754051 0 2860.91422080 0 14568
0.11850000 0.11849100 15092.59692349 0 398.36866191 0 3599.81839660 0 -448.24230513 0 2372.03583921 0 16015
0.11950000 0.11950300 14555.96825759 0 611.52512172 0 4243.73907372 0 -626.93268168 0 1934.01016152 0 15270
0.12050000 0.12050700 14115.44715544 0 706.30516462 0 3763.70708426 0 -458.81188902 0 1717.67259755 0 15999
0.12150000 0.12150000 13466.86160826 0 401.41487825 0 3871.31383371 0 17.61792152 0 957.90464993 0 15670
0.12250000 0.12250700 13369.29275992 0 33.68384639 0 3472.97889375 0 376.24706127 0 1178.76207956 0 16887
0.12350000 0.12352200 13430.21708688 0 -204.45956834 0 3559.88036455 0 639.85830595 0 811.52664798 0 16407
0.12450000 0.12449800 13661.32486591 0 -280.80944030 0 3157.97089767 0 598.88163778 0 1459.26127790 0 16306
0.12550000 0.12549900 14003.15305464 0 -279.83599995 0 3600.20057872 0 340.08701193 0 1023.79959264 0 17523
0.12650000 0.12650100 14235.60971176 0 -97.47622538 0 3129.27351635 0 178.16993441 0 1763.24219562 0 17154
0.12750000 0.12750600 14270.56813553 0 257.20294970 0 3523.91028221 0 -87.43630096 0 1766.55818758 0 18007
0.12850000 0.12850300 14038.56110444 0 407.47583713 0 3450.38518578 0 -162.56678713 0 1799.36964706 0 17496
0.12950000 0.12949900 13439.65923349 0 547.46128101 0 3725.45514982 0 13.69313591 0 1374.39436488 0 18405
0.13050000 0.13049000 13309.38009152 0 559.38873550 0 3710.68493476 0 -178.33966824 0 1841.42092145 0 18100
0.13150000 0.13148800 12617.29322602 0 342.36998809 0 3589.78049550 0 34.64334833 0 1270.98037815 0 19059
0.13250000 0.13249300 12469.59107541 0 316.61878134 0 3927.33723695 0 157.06448860 0 1282.11986303 0 18957
0.13350000 0.13349100 12337.40102281 0 56.77821294 0 3536.81454925 0 90.63078149 0 1238.48365689 0 19468
0.13450000 0.13450700 12141.70129359 0 109.01194320 0 3969.00632921 0 15.65035801 0 1020.19021969 0 19953
0.13550000 0.13551000 12331.66829094 0 184.80529054 0 4216.89639978 0 -375.95030809 0 881.36818317 0 19956
0.13650000 0.13649900 11939.03236091 0 318.35771000 0 4226.82189437 0 -554.37203308 0 571.47355910 0 19723
0.13750000 0.13749600 11705.11441920 0 417.56094896 0 4502.76862917 0 -421.07140419 0 142.66071875 0 20946
0.13850000 0.13851100 11443.31966367 0 375.32870010 0 4395.99368788 0 -284.78638253 0 310.03063594 0 20955
0.13950000 0.13949800 11258.63577216 0 147.72013565 0 4516.10004094 0 360.51801870 0 110.77132985 0 20506
0.14050000 0.14048300 11175.58984456 0 55.01657816 0 4275.69624375 0 574.44671122 0 161.86537053 0 21447
0.14150000 0.14148400 11126.90658624 0 -68.04269385 0 4206.46507590 0 853.31938740 0 239.66416237 0 21771
0.14250000 0.14249400 11107.13428161 0 -54.64968332 0 3763.54971515 0 751.71851764 0 884.06256715 0 22470
0.14350000 0.14350900 11197.50911349 0 -62.08863356 0 3464.37979594 0 754.07680616 0 1234.45950393 0 22519
0.14450000 0.14449900 11181.43498294 0 20.58545331 0 3304.63890840 0 489.73042292 0 1661.77284147 0 22218
0.14550000 0.14550500 11210.89672851 0 95.60319575 0 3660.41674469 0 193.21779355 0 1882.42681532 0 23559
0.14650000 0.14650700 11041.75865696 0 276.66388831 0 3544.61556086 0 -464.33442072 0 1484.58646399 0 23044
0.14750000 0.14750500 10764.05838065 0 370.92798534 0 3790.99938423 0 -426.25109604 0 1872.66993048 0 23649
0.14850000 0.14849900 10630.76674428 0 381.71226565 0 4300.18962170 0 -509.72416837 0 1514.18309737 0 23640
0.14950000 0.14949500 10320.32245239 0 232.95686607 0 3895.82969295 0 177.34037439 0 1529.65023277 0 24457
0.15050000 0.15050000 10287.97185959 0 38.47719708 0 4170.57367812 0 635.46321151 0 1397.92104686 0 24591
0.15150000 0.15149900 10110.83044472 0 28.20908745 0 3528.57515227 0 683.79126527 0 1188.88990586 0 25020
0.15250000 0.15250500 10156.87215011 0 10.44229475 0 3413.77438635 0 647.28275576 0 1378.64333085 0 25297
0.15350000 0.15350100 9976.79692540 0 56.46774617 0 2964.89024006 0 518.38396570 0 1453.20256715 0 25452
0.15450000 0.15450400 10090.68719861 0 21.52539652 0 2584.54034128 0 263.97094551 0 1678.77994602 0 26061
0.15550000 0.15549900 9973.91931881 0 -31.47269798 0 2681.03008715 0 158.53364165 0 1636.96472530 0 26128
0.15650000 0.15649500 9993.63542020 0 34.38458855 0 2745.30412803 0 -190.23677297 0 995.06511718 0 26331
0.15750000 0.15749700 9911.11780318 0 143.15530738 0 2526.53858350 0 -162.56453900 0 868.35712995 0 27345
0.15850000 0.15849900 9852.25051530 0 142.53819566 0 2583.41627620 0 -264.18226974 0 729.54858220 0 26980
0.15950000 0.15949700 9663.75604319 0 197.20710049 0 2612.13613882 0 -301.71592660 0 639.11754707 0 27777
0.16050000 0.16050000 9605.81048868 0 202.83529431 0 2542.55651080 0 75.14712233 0 212.47078012 0 28224
0.16150000 0.16150500 9336.50697846 0 208.26340455 0 2401.00299614 0 162.64884388 0 -56.43323737 0 28075
0.16250000 0.16249700 9149.32766249 0 198.17829271 0 2416.34648439 0 42.55451832 0 81.11736915 0 28590
0.16350000 0.16349900 8964.34027341 0 186.84434458 0 2082.94878371 0 262.75358303 0 -170.33182866 0 29163
0.16450000 0.16449100 8832.01533301 0 173.01834418 0 2455.70000260 0 206.25020400 0 179.74250145 0 28996
0.16550000 0.16550500 8659.69615730 0 140.60705186 0 2010.84000927 0 6.38720752 0 -129.97564440 0 30777
0.16650000 0.16650700 8712.31364337 0 130.03746798 0 2558.90041696 0 -55.39842306 0 333.89678557 0 29211
0.16750000 0.16749900 8485.90445635 0 194.70717977 0 2446.38150314 0 -194.37895277 0 514.89936397 0 30922
0.16850000 0.16850800 8416.14497791 0 188.63048398 0 2543.09606203 0 -71.23177887 0 463.89715941 0 30867
0.16950000 0.16949900 8321.82467763 0 139.54818256 0 2630.54832472 0 -135.02944097 0 865.46491051 0 30852
0.17050000 0.17049200 8167.28821138 0 136.92686281 0 2524.42534117 0 -22.70262987 0 202.34745007 0 31257
0.17150000 0.17149500 8139.01797479 0 123.79553463 0 2705.61339030 0 181.23188767 0 686.93415121 0 32608
0.17250000 0.17250900 7916.54301552 0 47.26041675 0 2417.68412182 0 175.45531726 0 369.24413586 0 32361
0.17350000 0.17350400 8005.71509777 0 20.78227710 0 2441.26700706 0 412.35652768 0 569.75373954 0 32508
0.17450000 0.17449800 7893.62332868 0 -64.09610138 0 2106.56539089 0 404.64993753 0 644.15785486 0 32791
0.17550000 0.17549800 8021.64309986 0 -70.72909697 0 2074.13611353 0 392.95179232 0 667.77221391 0 33633
0.17650000 0.17650100 8035.73887587 0 -5.35848565 0 1898.11876374 0 379.36634185 0 1001.19576809 0 33984
0.17750000 0.17750300 8110.88262601 0 49.56767272 0 1973.04894151 0 155.00182919 0 1044.15416299 0 34069
0.17850000 0.17849800 8006.24340835 0 136.42777792 0 1807.89006032 0 -114.18477826 0 1238.03403086 0 34536
