### header ###
fiducial parameters:
Omega_m = 0.31
Omega_nu = 0
Omega_de = 0.69
Omega_k = 0
H_0 = 100
w_de = -1
zeff = 0
beta = 0
fgrowth = 0
b_1 = 2
gamma = 0.55
Lx = 3500 Ly = 3500 Lz = 3500
nx = 700 ny = 700 nz = 700
xoffset = 857.220397 yoffset = 15.9954215 zoffset = 262.898189
bins = 400 dk = 0.001
kx_ny = 0.628318531 ky_ny = 0.628318531 kz_ny = 0.628318531
############################
A(data) = 3.06497457 (not used)
A(ran) = 3.06530764 (used)
Ngal = 187584
weighted Ngal = 0
Nran = 9360983
weighted Nran = 0
SN(data) = 3449.02499
SN(ran) = 68.8352897
SN(data+ran) = 3517.86028
############################
13 columns: k_central k_mean P_0(k) sigma^{lin}_{P_0(k)} P^img_1(k) sigma^{lin}_{P_1(k)} P_2(k) sigma^{lin}_{P_2(k)} P^img_3(k) sigma^{lin}_{P_3(k)} P_4(k) sigma^{lin}_{P_4(k)} N_modes
### header ###
0.00050000 0 0 0 0 0 0 0 0 0 0 0 0
0.00150000 0.00179520 30652.91732389 0 -33515.12421952 0 -40499.27773821 0 88405.02024307 0 -12706.99361885 0 3
0.00250000 0.00253879 62810.28334162 0 -45523.51139544 0 -8302.19850145 0 -53435.69303848 0 38781.14427398 0 6
0.00350000 0.00331552 80869.40039952 0 -27910.87298457 0 -31848.24812262 0 -45205.85060578 0 -39321.59476112 0 7
0.00450000 0.00420575 105757.88721554 0 -13425.04638754 0 -21493.47307574 0 -61377.66240595 0 9183.10581794 0 24
0.00550000 0.00557378 99250.89932039 0 12292.43841989 0 -11005.81105592 0 -68389.46792544 0 18477.38167160 0 45
0.00650000 0.00659388 107591.12494326 0 18636.66169246 0 34691.68313154 0 -50573.37373634 0 -26924.05625690 0 40
0.00750000 0.00754703 71727.37916001 0 16805.55968838 0 32267.74920791 0 -22799.18706465 0 -10310.80162122 0 57
0.00850000 0.00846663 66040.62154869 0 11423.42371188 0 36396.32781489 0 6484.67520346 0 -25450.29453956 0 75
0.00950000 0.00948925 52134.92493589 0 385.90952464 0 30523.76224699 0 21880.71349343 0 -22779.74073889 0 112
0.01050000 0.01054430 56265.97648603 0 -2631.32392962 0 15815.14595248 0 31730.10888344 0 -33493.87938964 0 105
0.01150000 0.01145670 56567.90036467 0 -1935.08926399 0 1393.97557845 0 11564.15665903 0 -21670.28851174 0 144
0.01250000 0.01249090 53938.93697170 0 3252.10010689 0 -782.93942504 0 -6686.13014586 0 -18094.52510771 0 169
0.01350000 0.01339930 51251.85941446 0 1092.18546356 0 8740.84241493 0 -8341.13611558 0 -2438.79406390 0 180
0.01450000 0.01448870 51151.81762296 0 -1500.90788886 0 -3425.26233140 0 2861.71230700 0 6309.34353335 0 267
0.01550000 0.01550050 51526.80573134 0 -4562.29911544 0 -13713.03185927 0 12610.99846161 0 -9930.63157285 0 238
0.01650000 0.01653350 54695.88239193 0 -4973.80809805 0 -7809.74559293 0 11082.42733130 0 1278.89379627 0 315
0.01750000 0.01747870 57306.18630468 0 -5896.08100923 0 -15412.39343678 0 13056.46545008 0 -3051.60061980 0 297
0.01850000 0.01844180 58715.08946730 0 -3158.45424565 0 -11649.92282411 0 -2036.61482139 0 12982.83918779 0 388
0.01950000 0.01947590 62123.47958195 0 -2204.70751242 0 -2810.52238357 0 -16218.12328118 0 9294.73672035 0 399
0.02050000 0.02045430 68300.77919117 0 -457.24943857 0 6597.39644899 0 -14039.34794999 0 23247.23940279 0 462
0.02150000 0.02154770 71535.16403251 0 1484.85623961 0 29421.16681679 0 -17611.06471977 0 30296.47628921 0 571
0.02250000 0.02255340 70464.94167641 0 3727.20869133 0 32154.10622901 0 -10177.42005965 0 21763.58591281 0 510
0.02350000 0.02348930 69683.49163759 0 2654.41222622 0 41186.53112390 0 1746.06648130 0 27253.29491681 0 555
0.02450000 0.02439640 67665.79483138 0 3535.28582075 0 45385.58861097 0 7177.96481859 0 11272.68658557 0 592
0.02550000 0.02547300 66718.20797475 0 4227.32772366 0 44754.98810496 0 12755.77804302 0 18208.61771263 0 837
0.02650000 0.02652900 61678.01259348 0 3872.82008090 0 37756.78377286 0 9769.48560397 0 -2630.63824992 0 723
0.02750000 0.02749970 59932.11472195 0 2478.43983903 0 21321.60352607 0 7108.30650601 0 5463.58573170 0 826
0.02850000 0.02848090 55059.74225609 0 2710.45811076 0 25825.28264794 0 2864.85968920 0 -18525.82887625 0 831
0.02950000 0.02946900 54308.64197425 0 2648.83686346 0 17078.81990765 0 -2546.24344423 0 -11567.41644774 0 996
0.03050000 0.03053250 52744.05579900 0 1993.60809170 0 18075.97803400 0 -4336.13722273 0 -20744.05889151 0 1041
0.03150000 0.03150510 51392.14273558 0 1418.41275314 0 18085.64499363 0 -4363.80046418 0 -21504.82613298 0 1036
0.03250000 0.03246190 51624.14976667 0 -2147.49260020 0 17226.07243223 0 3416.56206773 0 -18471.31172021 0 1059
0.03350000 0.03345080 55136.85312011 0 -2970.08342070 0 22213.66156808 0 3930.66446957 0 -20697.97222351 0 1302
0.03450000 0.03451200 59348.94976202 0 -888.06199068 0 17982.00619389 0 4618.32251868 0 -16409.10193710 0 1339
0.03550000 0.03553350 56736.62253214 0 2470.63882742 0 18798.97668902 0 3868.97577835 0 -19823.44959664 0 1365
0.03650000 0.03647120 54738.93408423 0 5049.49139942 0 19867.28813449 0 -3648.56909882 0 -11593.15753792 0 1308
0.03750000 0.03744890 51332.79209972 0 5317.35610634 0 19049.64320032 0 -6769.82803120 0 -12038.39971337 0 1579
0.03850000 0.03847530 48204.06937526 0 3981.04506614 0 28601.04893946 0 -1165.83533122 0 -5602.39652758 0 1662
0.03950000 0.03950240 45462.36225546 0 1166.03766293 0 26999.59342981 0 2932.49468465 0 -6895.07136164 0 1683
0.04050000 0.04050350 45840.38533955 0 -826.97017802 0 27225.64291601 0 3125.41797315 0 -4790.03469925 0 1822
0.04150000 0.04152450 46993.67610455 0 -1285.67190866 0 28944.00119326 0 9719.43098626 0 -402.42990902 0 1887
0.04250000 0.04250150 46875.19964584 0 882.06173132 0 25768.18014223 0 4110.24510564 0 -2562.59859105 0 1920
0.04350000 0.04349210 47083.15168437 0 751.40153128 0 22224.56499929 0 4827.94941417 0 -22.69757158 0 2005
0.04450000 0.04448520 44724.41353497 0 1449.42570851 0 24332.41182436 0 3742.24868201 0 1582.95339854 0 2151
0.04550000 0.04548030 44648.98876857 0 2502.46110964 0 22446.23063170 0 1836.67736684 0 2411.06337854 0 2274
0.04650000 0.04648670 41435.17431807 0 1588.40511415 0 17523.38764406 0 3736.05508346 0 2079.28433157 0 2311
0.04750000 0.04749250 40766.35559958 0 781.16789849 0 18363.17666018 0 4362.12560722 0 1343.07791194 0 2568
0.04850000 0.04851840 38626.02329389 0 935.01980911 0 13482.82333230 0 3884.31926660 0 -2766.42531075 0 2493
0.04950000 0.04949480 38118.62031989 0 267.06774478 0 11922.28379132 0 3990.82443228 0 -578.24829929 0 2644
0.05050000 0.05050630 36398.91316456 0 1640.47180833 0 9595.13187048 0 1739.15348110 0 -2226.61554070 0 2829
0.05150000 0.05149060 36219.51237889 0 1134.85609780 0 10316.55683440 0 -1255.61440860 0 -3536.36492322 0 2784
0.05250000 0.05249300 34400.99990363 0 1124.80695605 0 10656.94621983 0 -1682.11841929 0 158.60782994 0 3055
0.05350000 0.05348950 35244.04870846 0 -309.11339884 0 11891.03478229 0 -906.33704064 0 -889.08039363 0 3009
0.05450000 0.05448610 36104.40811541 0 -1285.35717044 0 11311.35442409 0 -340.80641358 0 2768.85329131 0 3336
0.05550000 0.05550870 38276.32664965 0 -1332.16324008 0 14109.82683008 0 1542.97040389 0 1045.42210839 0 3349
0.05650000 0.05647670 38272.39242189 0 17.69053612 0 13201.02021848 0 874.24273467 0 320.09551461 0 3324
0.05750000 0.05747970 38589.26636600 0 1207.77419909 0 15110.13233863 0 1099.70208670 0 3187.11790501 0 3639
0.05850000 0.05849280 37556.25056382 0 1439.24167895 0 15932.04872008 0 -639.72117001 0 2733.13050329 0 3846
0.05950000 0.05951020 36390.37027000 0 1483.49612087 0 16377.40330204 0 1189.71047337 0 8387.49255920 0 3787
0.06050000 0.06049470 36349.79152086 0 225.27163317 0 16121.45368489 0 5021.42349455 0 7684.91816656 0 3930
0.06150000 0.06148310 35197.40000792 0 -195.93465883 0 16306.36238942 0 2326.01661511 0 9906.30680467 0 4083
0.06250000 0.06249100 36268.18439656 0 -117.79864747 0 13412.23204571 0 5207.43378284 0 9178.23861617 0 4303
0.06350000 0.06350600 34836.79993247 0 -471.11702937 0 12257.14277659 0 2006.26506442 0 9295.77086021 0 4470
0.06450000 0.06451750 34913.23635744 0 287.78651221 0 9020.88074659 0 3058.41245414 0 7925.72662717 0 4479
0.06550000 0.06550280 34759.23944243 0 454.98332338 0 7567.55453228 0 1305.92756128 0 5598.94564781 0 4636
0.06650000 0.06648880 33313.80416493 0 1175.05266481 0 7019.17938636 0 -54.86044552 0 4197.50627727 0 4653
0.06750000 0.06749660 31825.54200815 0 1736.43324362 0 6030.03584399 0 -319.59080939 0 2935.14747823 0 5220
0.06850000 0.06852730 30386.62630807 0 1303.28600835 0 5820.73492738 0 -554.06066705 0 2981.48144054 0 5029
0.06950000 0.06949320 29781.09245320 0 873.33449009 0 6151.27750277 0 -67.08903704 0 -162.29251525 0 5040
0.07050000 0.07048030 29042.24448065 0 62.62706073 0 6150.67050763 0 441.08088655 0 -195.74918809 0 5475
0.07150000 0.07148790 28503.70490413 0 462.05481675 0 4767.18245631 0 -237.24629839 0 -2303.40042584 0 5509
0.07250000 0.07249820 28479.87472458 0 671.23883060 0 4573.13510275 0 294.01158458 0 42.52079637 0 5916
0.07350000 0.07351270 27714.49881630 0 509.68145390 0 4456.54707336 0 -127.00586448 0 -1536.52951102 0 5721
0.07450000 0.07449140 28185.48208193 0 211.54679863 0 3674.65864917 0 1489.31877795 0 -1963.85408921 0 6028
0.07550000 0.07549160 27173.82351614 0 -60.60711580 0 3258.11385503 0 273.10060203 0 -2084.75852847 0 6183
0.07650000 0.07648840 27706.74276730 0 -162.40604583 0 3447.23780358 0 -324.48836091 0 -2047.95663798 0 6330
0.07750000 0.07749960 27860.40246279 0 492.38209243 0 4982.41843651 0 -1660.73870160 0 -2197.36736750 0 6583
0.07850000 0.07848650 27562.41281191 0 634.11320936 0 4714.50876699 0 -1503.03237184 0 -2519.98528413 0 6549
0.07950000 0.07947320 26967.22035571 0 900.35364225 0 6808.48462906 0 -1567.31765337 0 -480.32874265 0 6828
0.08050000 0.08048110 26460.04219472 0 710.16520408 0 6883.48225074 0 -338.72801726 0 -1745.39204225 0 7147
0.08150000 0.08149960 25708.94191288 0 850.95660261 0 6788.85845289 0 898.98902725 0 -1500.69431649 0 7386
0.08250000 0.08250610 24902.65003595 0 772.19336294 0 6285.17613428 0 749.76039628 0 -1917.58757080 0 7227
0.08350000 0.08350160 23884.92151876 0 835.79858510 0 5596.78744286 0 1032.58865745 0 -2307.33465360 0 7798
0.08450000 0.08449610 23376.39447969 0 580.78306603 0 5063.59841609 0 182.80895097 0 -1732.52149717 0 7371
0.08550000 0.08548940 22613.15429506 0 513.18741286 0 5389.36371493 0 -117.72333511 0 -2876.03289603 0 8256
0.08650000 0.08650700 22725.78561538 0 567.91701721 0 5967.57154788 0 197.53982375 0 -856.60278148 0 8037
0.08750000 0.08749060 21699.28939063 0 623.83700646 0 6055.18117967 0 308.55473850 0 -1336.22111500 0 8155
0.08850000 0.08849210 21730.42599315 0 771.81680114 0 6543.04790270 0 66.76125967 0 545.13221818 0 8718
0.08950000 0.08949900 20922.33561210 0 373.58415111 0 6370.08800990 0 907.61847482 0 633.25442365 0 8571
0.09050000 0.09049190 20991.46561410 0 -67.11151834 0 6180.77297029 0 1302.63405061 0 2732.23125123 0 8932
0.09150000 0.09150830 20652.89721408 0 167.07990840 0 6356.05967779 0 539.54673883 0 1109.62758130 0 9285
0.09250000 0.09250820 20963.47639378 0 -79.57144246 0 5334.17211984 0 -183.64075912 0 503.33723063 0 9204
0.09350000 0.09350330 20634.68735990 0 349.79556197 0 5932.56816150 0 -835.68842673 0 34.87007226 0 9349
0.09450000 0.09448040 20315.11565961 0 347.07420043 0 5658.20635846 0 -1344.61788109 0 -902.82096509 0 9564
0.09550000 0.09549270 19806.47621404 0 303.19856843 0 5861.19002936 0 -582.23535811 0 -1667.66294245 0 10155
0.09650000 0.09649430 20088.27932786 0 -17.79439973 0 5530.42264095 0 213.17556892 0 -2898.51419749 0 9913
0.09750000 0.09749140 19413.16584496 0 570.66086005 0 6172.82583023 0 72.10551465 0 -2306.57028935 0 10476
0.09850000 0.09850240 19193.52352967 0 775.96010500 0 5840.04636533 0 143.50826382 0 -2740.92027424 0 10575
0.09950000 0.09950330 18489.40916789 0 724.60831620 0 6117.66795709 0 422.35845870 0 -856.81185758 0 10882
0.10050000 0.10051200 17765.96088684 0 780.98467588 0 6121.22000272 0 297.32645249 0 -675.50802974 0 10875
0.10150000 0.10150300 17760.56537449 0 317.18643420 0 6628.69042062 0 462.19082863 0 22.11631753 0 11118
0.10250000 0.10250800 16936.40086289 0 204.46743680 0 6132.53933801 0 547.01390311 0 68.85651696 0 11575
0.10350000 0.10349800 17357.70045229 0 151.75777739 0 6363.73704224 0 590.34885981 0 150.88662696 0 11364
0.10450000 0.10450100 16813.20333088 0 189.84222613 0 5388.12724335 0 635.58011428 0 -101.36594016 0 12093
0.10550000 0.10551000 16689.10654681 0 321.04872179 0 5427.08733878 0 -36.91632032 0 -400.65838246 0 12067
0.10650000 0.10649700 16336.37492687 0 126.62930268 0 5429.14437786 0 -78.28764774 0 -550.58168565 0 12054
0.10750000 0.10749900 16251.84523337 0 -15.71544138 0 4982.66573083 0 395.66528541 0 -1177.13218520 0 12807
0.10850000 0.10850100 16684.27306700 0 -72.56683096 0 5629.96984382 0 -93.77872573 0 -817.25713172 0 12736
0.10950000 0.10950300 16502.39933817 0 34.02331404 0 4735.68615297 0 -81.79169579 0 -1521.82673987 0 12933
0.11050000 0.11050200 16575.68838093 0 54.00458237 0 5087.75457451 0 757.28376381 0 -595.68479671 0 13428
0.11150000 0.11150900 16319.06432475 0 82.70589792 0 4131.93956155 0 771.63807480 0 -449.39334777 0 13453
0.11250000 0.11250000 16366.27505782 0 97.36977642 0 3465.49262036 0 1575.44464385 0 -1107.59189945 0 13668
0.11350000 0.11349100 16007.13626696 0 35.95513227 0 2728.97146252 0 904.12375651 0 -768.39402299 0 13791
0.11450000 0.11448600 15863.81797014 0 201.04915491 0 1683.83823885 0 295.44364349 0 -1894.94890023 0 14205
0.11550000 0.11549300 15573.69677477 0 318.74663652 0 2440.18790459 0 -282.97326557 0 -1219.19470024 0 14776
0.11650000 0.11649800 15243.55886280 0 450.53877008 0 2361.63823728 0 -1342.79689567 0 -2189.93729736 0 14553
0.11750000 0.11747300 15080.45702070 0 432.00743328 0 3281.03354187 0 -938.07839017 0 -1349.37267635 0 14568
0.11850000 0.11849100 14763.69548310 0 318.76349749 0 3683.89846407 0 -449.51587086 0 -1177.21086976 0 16015
0.11950000 0.11950300 14839.79468855 0 200.17463228 0 4349.96322313 0 115.54152480 0 -878.32196682 0 15270
0.12050000 0.12050700 14687.03424511 0 224.02504500 0 4575.52936135 0 645.82034710 0 -468.54516848 0 15999
0.12150000 0.12150000 14371.50917909 0 220.62924442 0 4331.46111203 0 665.25655628 0 -109.58544120 0 15670
0.12250000 0.12250700 14426.25114815 0 196.57649998 0 4212.55750860 0 739.51004688 0 270.32191317 0 16887
0.12350000 0.12352200 13975.05142781 0 164.47432556 0 3813.28959463 0 339.09221434 0 217.74264531 0 16407
0.12450000 0.12449800 13995.62181865 0 219.74010894 0 3985.72117685 0 350.04173222 0 999.99189440 0 16306
0.12550000 0.12549900 13547.90670003 0 314.42685444 0 3746.89107076 0 -36.49861774 0 210.06528086 0 17523
0.12650000 0.12650100 13397.61919976 0 395.05491807 0 3821.58519487 0 87.59704227 0 483.35922208 0 17154
0.12750000 0.12750600 13093.78441050 0 174.88878846 0 3676.52459719 0 188.44838544 0 692.20039608 0 18007
0.12850000 0.12850300 12998.91331833 0 16.47159996 0 3457.93890307 0 618.05481573 0 202.11027234 0 17496
0.12950000 0.12949900 12927.19796667 0 -98.77350888 0 3360.17896367 0 575.84842036 0 617.16118399 0 18405
0.13050000 0.13049000 13110.98260612 0 -180.40907204 0 2961.21454727 0 584.98369721 0 225.19969300 0 18100
0.13150000 0.13148800 13015.43707491 0 70.32814296 0 2746.86657848 0 205.94221017 0 998.22036784 0 19059
0.13250000 0.13249300 13240.36249603 0 177.28866739 0 3062.43660710 0 -184.93006176 0 825.06713585 0 18957
0.13350000 0.13349100 12908.65089296 0 351.58956982 0 3458.23115999 0 -472.97398487 0 1385.88230993 0 19468
0.13450000 0.13450700 12735.20765218 0 393.72290096 0 3733.03134841 0 -678.85661960 0 1581.28978223 0 19953
0.13550000 0.13551000 12492.07237687 0 359.62438697 0 4356.85374203 0 -395.76420313 0 1647.15999552 0 19956
0.13650000 0.13649900 12330.88144539 0 250.26072381 0 4475.85851132 0 -169.30668131 0 1682.12965994 0 19723
0.13750000 0.13749600 12138.89113090 0 243.25105401 0 4607.65514114 0 87.03444770 0 1260.45912907 0 20946
0.13850000 0.13851100 12002.87925706 0 123.48304454 0 4058.88657245 0 524.73156116 0 1065.74745304 0 20955
0.13950000 0.13949800 11727.82053367 0 97.68282854 0 4195.08953736 0 269.84081332 0 949.29206334 0 20506
0.14050000 0.14048300 11766.82559171 0 116.44302499 0 3305.24590354 0 498.44305130 0 682.01636652 0 21447
0.14150000 0.14148400 11545.49717882 0 -3.11269356 0 3550.19092362 0 613.57429235 0 792.08931474 0 21771
0.14250000 0.14249400 11595.85529409 0 96.58697750 0 3314.08105502 0 -24.44301983 0 255.07172232 0 22470
0.14350000 0.14350900 11638.68217338 0 52.59815215 0 3440.16743427 0 153.31123532 0 526.01187128 0 22519
0.14450000 0.14449900 11471.30888399 0 106.48324641 0 4060.15676599 0 -274.37866402 0 1229.64850542 0 22218
0.14550000 0.14550500 11485.02247788 0 124.11252098 0 3417.19154417 0 -451.64597418 0 924.63794409 0 23559
0.14650000 0.14650700 11674.53984921 0 194.44864480 0 4720.06164845 0 -95.55250042 0 1594.73360051 0 23044
0.14750000 0.14750500 11186.74057009 0 374.39460203 0 3841.16640845 0 -416.60661772 0 1018.57044192 0 23649
0.14850000 0.14849900 11169.67726228 0 349.43473708 0 4665.62317696 0 204.19428898 0 1283.07531834 0 23640
0.14950000 0.14949500 10607.63348508 0 389.80890637 0 3649.46835088 0 383.67825547 0 765.06454225 0 24457
0.15050000 0.15050000 10312.15049931 0 210.73522364 0 3619.28720367 0 788.24950845 0 827.05111070 0 24591
0.15150000 0.15149900 10124.91498008 0 82.00729147 0 2672.19493568 0 956.41526371 0 672.01331143 0 25020
0.15250000 0.15250500 9949.48214413 0 44.79466760 0 2486.36449779 0 651.80824174 0 79.01368137 0 25297
0.15350000 0.15350100 9902.97957205 0 70.64512931 0 2068.11112474 0 27.12796166 0 -87.36447320 0 25452
0.15450000 0.15450400 9906.18315751 0 116.18449002 0 2092.90800025 0 -175.79028865 0 -114.01841662 0 26061
0.15550000 0.15549900 9754.64794500 0 141.36579579 0 2379.44342804 0 -554.03706168 0 -97.90145920 0 26128
0.15650000 0.15649500 9796.83410720 0 92.57979792 0 2369.45048954 0 -326.06542421 0 75.10384583 0 26331
0.15750000 0.15749700 9745.86899678 0 -1.97841073 0 2807.92579325 0 20.77519549 0 -170.87587615 0 27345
0.15850000 0.15849900 9734.77447451 0 65.50129513 0 2483.64426031 0 410.91097999 0 199.33607974 0 26980
0.15950000 0.15949700 9678.27896394 0 -15.78547063 0 2596.11821153 0 617.78728824 0 195.87058712 0 27777
0.16050000 0.16050000 9667.72399290 0 56.01688367 0 2375.86890111 0 391.55233130 0 921.38714790 0 28224
0.16150000 0.16150500 9778.45564325 0 -13.42909302 0 2332.58115514 0 569.48396392 0 1003.09318993 0 28075
0.16250000 0.16249700 9676.14324030 0 21.42760286 0 2363.47046335 0 101.66572832 0 1451.86492972 0 28590
0.16350000 0.16349900 9777.98353592 0 100.19398992 0 2297.49908421 0 -130.33646929 0 1579.89594154 0 29163
0.16450000 0.16449100 9580.84500340 0 253.78129562 0 2708.83945706 0 -220.50672132 0 1775.30341385 0 28996
0.16550000 0.16550500 9377.20937476 0 345.39597127 0 2627.71568073 0 -408.05248251 0 1683.97312666 0 30777
0.16650000 0.16650700 9168.47049069 0 273.99198563 0 3089.12191194 0 -323.83865130 0 1082.84223467 0 29211
0.16750000 0.16749900 8993.50976206 0 180.23034569 0 3087.52573953 0 -19.06380642 0 1179.05433648 0 30922
0.16850000 0.16850800 8888.56704683 0 112.09963754 0 3178.66493566 0 146.37462975 0 863.63380851 0 30867
0.16950000 0.16949900 8810.79298442 0 0.70029029 0 2855.35009869 0 282.38313140 0 559.06612882 0 30852
0.17050000 0.17049200 8766.12263842 0 46.76762662 0 3007.25625266 0 209.19975075 0 350.59140004 0 31257
0.17150000 0.17149500 8791.69511883 0 7.26519227 0 2671.44181208 0 287.91690376 0 109.46145682 0 32608
0.17250000 0.17250900 8656.68366290 0 71.98917392 0 2676.24156994 0 165.88277910 0 386.26135700 0 32361
0.17350000 0.17350400 8724.80200633 0 142.16500606 0 2224.08639428 0 -32.03990122 0 -151.01477038 0 32508
0.17450000 0.17449800 8469.27953392 0 113.45188783 0 2232.10097826 0 98.74405838 0 -194.94885376 0 32791
0.17550000 0.17549800 8412.67161683 0 181.19591759 0 2044.76429317 0 -51.67338382 0 -364.41065605 0 33633
0.17650000 0.17650100 8212.86905009 0 109.19291767 0 1974.15052528 0 20.18596058 0 -578.26291214 0 33984
0.17750000 0.17750300 8132.84685754 0 58.28569661 0 1788.60110366 0 32.72580573 0 -887.78097441 0 34069
