### header ###
fiducial parameters:
Omega_m = 0.31
Omega_nu = 0
Omega_de = 0.69
Omega_k = 0
H_0 = 100
w_de = -1
zeff = 0
beta = 0
fgrowth = 0
b_1 = 2
gamma = 0.55
Lx = 3500 Ly = 3500 Lz = 3500
nx = 700 ny = 700 nz = 700
xoffset = 857.220397 yoffset = 15.9954215 zoffset = 262.898189
bins = 400 dk = 0.001
kx_ny = 0.628318531 ky_ny = 0.628318531 kz_ny = 0.628318531
############################
A(data) = 3.07474112 (not used)
A(ran) = 3.07352258 (used)
Ngal = 187725
weighted Ngal = 0
Nran = 9360983
weighted Nran = 0
SN(data) = 3442.71378
SN(ran) = 69.0197663
SN(data+ran) = 3511.73354
############################
13 columns: k_central k_mean P_0(k) sigma^{lin}_{P_0(k)} P^img_1(k) sigma^{lin}_{P_1(k)} P_2(k) sigma^{lin}_{P_2(k)} P^img_3(k) sigma^{lin}_{P_3(k)} P_4(k) sigma^{lin}_{P_4(k)} N_modes
### header ###
0.00050000 0 0 0 0 0 0 0 0 0 0 0 0
0.00150000 0.00179520 27678.75354698 0 -39571.81164640 0 -8289.32795636 0 33036.94693743 0 -6574.27443043 0 3
0.00250000 0.00253879 44058.18016615 0 -32635.43089332 0 -13821.61654533 0 -15797.72294384 0 -15095.06986665 0 6
0.00350000 0.00331552 70794.85477536 0 -25918.69245552 0 -8063.97539051 0 -11615.41402636 0 -10152.96040366 0 7
0.00450000 0.00420575 80388.41295474 0 -9844.42702239 0 -15600.11230399 0 -1588.43883610 0 -1420.43607027 0 24
0.00550000 0.00557378 80765.87400629 0 20245.64843810 0 11309.10629394 0 -18928.69379845 0 -7484.28379166 0 45
0.00650000 0.00659388 55259.37621307 0 16956.07200167 0 8294.25136138 0 -11296.62917163 0 11138.88911992 0 40
0.00750000 0.00754703 51616.16890465 0 14758.63719027 0 47347.41938305 0 4055.91904066 0 4503.62291863 0 57
0.00850000 0.00846663 40802.21327541 0 6055.28234553 0 31627.25692925 0 -509.39594137 0 -8742.53975319 0 75
0.00950000 0.00948925 47990.72182439 0 -4618.38996259 0 39227.96014053 0 16653.47368399 0 -15534.01727769 0 112
0.01050000 0.01054430 48341.54253370 0 -860.27172987 0 30526.57240967 0 2018.01154443 0 -13893.89392953 0 105
0.01150000 0.01145670 54430.60303468 0 -2463.37736705 0 31362.98923057 0 -7050.43963605 0 -17489.77809838 0 144
0.01250000 0.01249090 52636.93239753 0 -437.18937327 0 18720.17972739 0 1258.13231437 0 -25551.68520915 0 169
0.01350000 0.01339930 50995.57257779 0 1928.47976136 0 22592.58390422 0 -14.45772497 0 -18344.40477346 0 180
0.01450000 0.01448870 52475.74146605 0 -142.19198362 0 12050.42720965 0 2965.69956691 0 -10409.83175416 0 267
0.01550000 0.01550050 50523.35284059 0 280.31485167 0 7666.03387333 0 8641.02543643 0 -16282.75702288 0 238
0.01650000 0.01653350 57871.70344296 0 -6969.01236215 0 4845.56351386 0 6944.09183948 0 -5040.01553086 0 315
0.01750000 0.01747870 57847.98566991 0 -6850.55838475 0 -1894.45431160 0 10980.69944219 0 -7317.73106978 0 297
0.01850000 0.01844180 64072.83323172 0 1270.33966106 0 9372.10611933 0 -10410.01160457 0 -12186.43908350 0 388
0.01950000 0.01947590 64224.46961008 0 2815.31090078 0 9496.85486114 0 -9053.60228087 0 -665.82758133 0 399
0.02050000 0.02045430 58878.41612242 0 9257.21542821 0 17449.98619479 0 -7559.30389464 0 5579.57800660 0 462
0.02150000 0.02154770 53910.38571885 0 4814.77537151 0 16404.60567681 0 3715.61958043 0 -2908.25984168 0 571
0.02250000 0.02255340 47840.88395014 0 -565.40360770 0 21280.23793138 0 5750.85180178 0 -2001.10560573 0 510
0.02350000 0.02348930 51368.87458857 0 1605.90680733 0 10972.57245171 0 7592.98088423 0 -11176.91624135 0 555
0.02450000 0.02439640 50080.58360829 0 -2481.98064401 0 8763.33495704 0 2920.75944529 0 -4436.34762400 0 592
0.02550000 0.02547300 51351.11436042 0 -3737.43768350 0 4982.05873569 0 3571.44699415 0 -2627.07496364 0 837
0.02650000 0.02652900 56274.18216107 0 -3261.68838196 0 9054.69262399 0 -743.72866310 0 -11574.04843167 0 723
0.02750000 0.02749970 59081.64708764 0 -970.07827467 0 17216.40547260 0 -8788.50277403 0 -13639.40559698 0 826
0.02850000 0.02848090 60263.93873153 0 556.01091995 0 15538.62594449 0 -6151.04144911 0 -13083.33060532 0 831
0.02950000 0.02946900 60891.05463581 0 -331.55086177 0 22130.36834616 0 -9915.23188135 0 -5232.29810226 0 996
0.03050000 0.03053250 62539.49606551 0 -1210.73049024 0 26181.27405660 0 968.85641594 0 -7283.26723464 0 1041
0.03150000 0.03150510 64673.75841980 0 -823.31809060 0 24593.41973434 0 5180.91708777 0 -9954.21445808 0 1036
0.03250000 0.03246190 63611.17970620 0 4325.04270046 0 31276.32381343 0 2642.93552182 0 -766.82482815 0 1059
0.03350000 0.03345080 58419.01072705 0 6191.49655109 0 20696.73575193 0 3816.54938334 0 -12045.14410381 0 1302
0.03450000 0.03451200 52066.24455992 0 6638.49226806 0 31748.20633112 0 1119.66435834 0 7367.94305659 0 1339
0.03550000 0.03553350 47097.76453032 0 3363.46123368 0 20921.66117306 0 8059.44540826 0 -2649.56750575 0 1365
0.03650000 0.03647120 46270.90226254 0 -292.57053316 0 27818.81205509 0 7764.79423065 0 2445.01014375 0 1308
0.03750000 0.03744890 45930.53535841 0 -378.79644085 0 16693.26558758 0 4316.66841567 0 -910.90636516 0 1579
0.03850000 0.03847530 46918.92577719 0 -732.99046945 0 17898.82537848 0 2677.35439436 0 -1240.12479190 0 1662
0.03950000 0.03950240 46555.29072604 0 233.17156250 0 9138.35678738 0 1602.44468691 0 -4004.79656114 0 1683
0.04050000 0.04050350 45313.19882026 0 541.50148799 0 8232.00063764 0 -796.76654950 0 -3669.85889130 0 1822
0.04150000 0.04152450 45808.12467195 0 1453.34869561 0 7934.15711522 0 -375.39277181 0 -8912.91429632 0 1887
0.04250000 0.04250150 43371.93843902 0 1995.10309824 0 8500.27000798 0 230.35128323 0 -9616.21933125 0 1920
0.04350000 0.04349210 41971.01613842 0 2369.88887492 0 8767.08933438 0 -2576.22225973 0 -8875.08950661 0 2005
0.04450000 0.04448520 39538.08969420 0 2332.19897302 0 8321.98204674 0 30.10324950 0 -10220.01088527 0 2151
0.04550000 0.04548030 38800.92781926 0 1613.29191486 0 13171.79452658 0 2502.15761207 0 -3386.65069614 0 2274
0.04650000 0.04648670 37350.43424894 0 601.90874502 0 12864.02550956 0 648.22022603 0 -2949.76032418 0 2311
0.04750000 0.04749250 36807.62322514 0 201.32117866 0 14381.06373222 0 2973.68042893 0 313.43542905 0 2568
0.04850000 0.04851840 38978.64250732 0 -81.39816061 0 17471.68065070 0 802.95452773 0 7164.94814504 0 2493
0.04950000 0.04949480 38046.00571617 0 -472.18264306 0 15465.67412125 0 573.91615250 0 7300.54411481 0 2644
0.05050000 0.05050630 39270.67461331 0 288.91619761 0 18670.15883164 0 -867.73439789 0 8372.76730674 0 2829
0.05150000 0.05149060 38340.39835882 0 616.22933405 0 15640.24142710 0 -1211.82083336 0 6637.27827778 0 2784
0.05250000 0.05249300 38701.11084077 0 1218.26172622 0 20808.13060067 0 -673.63870953 0 7693.84324324 0 3055
0.05350000 0.05348950 37259.72219754 0 1230.01944689 0 18098.57174197 0 -817.84951402 0 4563.13092360 0 3009
0.05450000 0.05448610 35963.22554223 0 912.76332066 0 17665.01984327 0 -997.90787775 0 -737.69018552 0 3336
0.05550000 0.05550870 35677.37579414 0 704.70112376 0 14830.12772892 0 1063.81068892 0 -1681.57886805 0 3349
0.05650000 0.05647670 34457.42797030 0 635.99939055 0 16941.00952969 0 850.77450407 0 -3582.42910992 0 3324
0.05750000 0.05747970 34986.41299370 0 18.50537089 0 11530.32230033 0 3570.60394535 0 -4613.36539171 0 3639
0.05850000 0.05849280 33205.44429188 0 70.22933764 0 11771.65907152 0 5505.47963698 0 -4431.48042223 0 3846
0.05950000 0.05951020 34373.34790283 0 390.26977305 0 9747.17291227 0 4242.41267694 0 -1170.80369884 0 3787
0.06050000 0.06049470 32167.37019688 0 322.74493598 0 4865.29085589 0 5432.32548202 0 -3697.17367258 0 3930
0.06150000 0.06148310 33151.48916838 0 764.80151102 0 7807.78971970 0 1510.01281595 0 1484.77755506 0 4083
0.06250000 0.06249100 31555.20435807 0 959.96168901 0 2694.39522087 0 1117.58371389 0 1615.06793768 0 4303
0.06350000 0.06350600 31151.55259032 0 611.10809358 0 4520.98972400 0 877.41259817 0 4697.69275350 0 4470
0.06450000 0.06451750 30713.72924435 0 209.04912603 0 2204.93232544 0 -1386.77032133 0 3510.81492411 0 4479
0.06550000 0.06550280 30621.10628232 0 -358.91060565 0 5972.53991550 0 1668.88817338 0 5415.29589616 0 4636
0.06650000 0.06648880 30696.86826825 0 569.74249889 0 4732.95467484 0 -600.88359767 0 2784.15181696 0 4653
0.06750000 0.06749660 30094.81901510 0 546.95769985 0 6859.59586794 0 -445.19384066 0 3953.95509788 0 5220
0.06850000 0.06852730 30265.00246716 0 1235.40371859 0 8542.56857668 0 -1560.44961578 0 6119.66879292 0 5029
0.06950000 0.06949320 28472.90552112 0 1192.84661492 0 9044.49735377 0 -1649.20579395 0 6616.79781215 0 5040
0.07050000 0.07048030 29333.48974109 0 374.11246169 0 11466.47540418 0 694.03824247 0 9469.36022945 0 5475
0.07150000 0.07148790 28445.14111382 0 585.20738616 0 11001.24735172 0 478.37624161 0 8354.74854362 0 5509
0.07250000 0.07249820 28338.13011886 0 190.45034534 0 11642.39158812 0 2031.97243264 0 8703.57965775 0 5916
0.07350000 0.07351270 28169.07073186 0 -241.46491461 0 10886.68263947 0 2777.56479563 0 8562.68934149 0 5721
0.07450000 0.07449140 28541.24867757 0 13.93986819 0 10921.20267787 0 1052.85779885 0 8998.56805489 0 6028
0.07550000 0.07549160 28645.78672937 0 331.55423396 0 11352.38279926 0 -254.44899027 0 10261.23035150 0 6183
0.07650000 0.07648840 28107.80918538 0 712.42457487 0 11582.36651321 0 -1456.37243066 0 8915.26359232 0 6330
0.07750000 0.07749960 27783.74122481 0 607.56728860 0 12396.41443915 0 -928.15177151 0 10008.11337834 0 6583
0.07850000 0.07848650 26709.24742143 0 804.52035038 0 12603.57963212 0 -1749.64100823 0 5613.91819458 0 6549
0.07950000 0.07947320 26560.19639274 0 1110.84044751 0 13603.54792115 0 -434.63437336 0 6597.21659857 0 6828
0.08050000 0.08048110 25409.04135138 0 1177.37947952 0 13147.62712750 0 -721.58682929 0 4697.60282829 0 7147
0.08150000 0.08149960 24126.37069646 0 923.79826748 0 12181.49319718 0 1148.67085755 0 1549.40005611 0 7386
0.08250000 0.08250610 23901.78249486 0 714.28827477 0 11938.69514139 0 1890.52008384 0 3332.67309133 0 7227
0.08350000 0.08350160 22795.36524341 0 238.46028867 0 11218.96751573 0 2480.87906023 0 1546.51120887 0 7798
0.08450000 0.08449610 22625.74382388 0 122.84120338 0 8989.50809040 0 1872.37767356 0 3344.17227702 0 7371
0.08550000 0.08548940 22672.39252441 0 51.59110225 0 9748.76908467 0 1885.54047557 0 1849.69404039 0 8256
0.08650000 0.08650700 22447.12988376 0 51.63909983 0 7190.73419782 0 1176.07556403 0 2526.99945018 0 8037
0.08750000 0.08749060 22050.11009994 0 -60.68838570 0 7055.47544757 0 1216.08103998 0 1116.76764264 0 8155
0.08850000 0.08849210 21891.95414416 0 39.02360511 0 5061.92355913 0 736.18955865 0 2036.31132382 0 8718
0.08950000 0.08949900 22134.97701296 0 147.44361564 0 5290.42350719 0 433.59236504 0 540.98554212 0 8571
0.09050000 0.09049190 21137.59407360 0 136.12877661 0 2816.37876260 0 106.07060212 0 -1348.24861128 0 8932
0.09150000 0.09150830 21240.33362128 0 121.58674676 0 4259.95933273 0 -333.53146442 0 -1892.92558310 0 9285
0.09250000 0.09250820 21105.78303203 0 286.23193021 0 3693.13827897 0 -656.34159618 0 -2195.02931215 0 9204
0.09350000 0.09350330 20553.75467463 0 340.07015096 0 4668.78179982 0 -135.63980831 0 -1433.48646577 0 9349
0.09450000 0.09448040 20189.89481047 0 623.23001132 0 4987.43176674 0 -310.56119466 0 -1747.37039678 0 9564
0.09550000 0.09549270 19917.53384326 0 682.17373563 0 5522.32937242 0 -161.33705994 0 344.05046538 0 10155
0.09650000 0.09649430 19023.90211014 0 811.70312620 0 5223.96878007 0 343.78518602 0 -613.21121933 0 9913
0.09750000 0.09749140 18991.97866207 0 488.03870498 0 4991.12994083 0 487.68237635 0 1879.85270630 0 10476
0.09850000 0.09850240 18352.38563547 0 176.76148087 0 5395.68096064 0 564.76738687 0 177.95748611 0 10575
0.09950000 0.09950330 18616.54092765 0 147.35593856 0 4585.94944458 0 383.94128669 0 1072.45812153 0 10882
0.10050000 0.10051200 18183.43865499 0 246.08594613 0 4614.77047305 0 -232.39258541 0 54.68790153 0 10875
0.10150000 0.10150300 17842.28490530 0 519.25624019 0 4343.23007334 0 -471.56665540 0 494.50432728 0 11118
0.10250000 0.10250800 17528.55834340 0 572.08617456 0 4742.99257594 0 -373.27952947 0 33.75646099 0 11575
0.10350000 0.10349800 17273.28316530 0 585.02416355 0 5201.85842008 0 -18.89227409 0 -623.45594840 0 11364
0.10450000 0.10450100 16694.16483964 0 436.39578333 0 5413.62103920 0 107.41453432 0 659.42715481 0 12093
0.10550000 0.10551000 16294.55970615 0 444.31257364 0 5418.98282960 0 163.55259220 0 311.12210313 0 12067
0.10650000 0.10649700 16125.50031916 0 177.70906773 0 5471.16193030 0 817.40663238 0 1320.83266415 0 12054
0.10750000 0.10749900 16057.94400826 0 99.13467099 0 5464.38381790 0 911.36048745 0 992.51910979 0 12807
0.10850000 0.10850100 16086.83248064 0 -72.45937034 0 4954.83387962 0 754.10715592 0 1776.88834560 0 12736
0.10950000 0.10950300 15964.08457466 0 0.91688302 0 5005.66410222 0 669.97650552 0 913.86490443 0 12933
0.11050000 0.11050200 15690.93676190 0 261.29791876 0 4467.15824765 0 398.10787881 0 917.40121315 0 13428
0.11150000 0.11150900 15544.69589589 0 399.66246081 0 4562.75998212 0 123.61456015 0 1595.68905582 0 13453
0.11250000 0.11250000 14980.86485522 0 345.57582168 0 3892.04159365 0 -32.25729540 0 516.49441231 0 13668
0.11350000 0.11349100 14906.33934087 0 187.83576998 0 3920.70525302 0 42.02497126 0 1219.89162058 0 13791
0.11450000 0.11448600 14641.28479664 0 155.86848336 0 3094.76471861 0 485.34656913 0 -386.71660336 0 14205
0.11550000 0.11549300 14521.00983382 0 244.75392902 0 3095.74265522 0 164.99364362 0 233.46044723 0 14776
0.11650000 0.11649800 14019.67681121 0 283.39254184 0 2588.71062270 0 40.40137167 0 -1017.33172221 0 14553
0.11750000 0.11747300 13876.80814042 0 349.14697642 0 2403.38601409 0 17.71875015 0 -303.30647867 0 14568
0.11850000 0.11849100 13621.30814931 0 170.09802312 0 2531.14725030 0 136.77848622 0 -874.14943727 0 16015
0.11950000 0.11950300 13674.58883377 0 -70.47236051 0 2742.94359138 0 131.59092591 0 -836.97660530 0 15270
0.12050000 0.12050700 13870.28856300 0 -128.28167834 0 2675.98303497 0 138.11162740 0 -684.96029294 0 15999
0.12150000 0.12150000 13865.23027017 0 2.22938074 0 2780.10518269 0 -38.34939088 0 -880.20927208 0 15670
0.12250000 0.12250700 14016.97905504 0 178.06314823 0 2890.34224441 0 -92.63262898 0 -77.83633561 0 16887
0.12350000 0.12352200 14035.86334827 0 55.24408893 0 3670.56705230 0 114.00043158 0 641.42188047 0 16407
0.12450000 0.12449800 14077.67856899 0 179.53454941 0 3906.73312416 0 198.52000849 0 1270.21601390 0 16306
0.12550000 0.12549900 14083.74852038 0 7.03837842 0 4043.81285982 0 654.16540620 0 1666.06677005 0 17523
0.12650000 0.12650100 13889.73488876 0 32.00606686 0 3837.61436281 0 566.85589978 0 2216.28538268 0 17154
0.12750000 0.12750600 14015.63017695 0 126.67426528 0 4191.94215516 0 261.36873486 0 2621.90426431 0 18007
0.12850000 0.12850300 13936.04636978 0 192.07686750 0 4452.12949763 0 190.67628241 0 2848.52702369 0 17496
0.12950000 0.12949900 13646.93683297 0 341.19196790 0 4266.35526300 0 -127.18908709 0 3022.04894903 0 18405
0.13050000 0.13049000 13573.98500973 0 325.25946955 0 4138.63898939 0 -255.76639454 0 2764.90782290 0 18100
0.13150000 0.13148800 13201.80706403 0 303.82579674 0 4014.64337118 0 -239.26174707 0 2573.13108078 0 19059
0.13250000 0.13249300 12939.56268247 0 303.62346502 0 3944.22069435 0 -82.00369446 0 1694.23584078 0 18957
0.13350000 0.13349100 12628.64628325 0 174.25818796 0 3700.80440277 0 -101.53117773 0 997.40766879 0 19468
0.13450000 0.13450700 12604.25407117 0 164.26187726 0 3763.97685988 0 -143.99610806 0 485.22292197 0 19953
0.13550000 0.13551000 12421.59349679 0 164.31021206 0 3371.09363553 0 -215.09097580 0 -71.46625884 0 19956
0.13650000 0.13649900 12152.26750527 0 236.59321659 0 3370.73393470 0 220.94623077 0 -485.29935840 0 19723
0.13750000 0.13749600 12004.45294816 0 159.16761435 0 3440.61706030 0 193.57074998 0 -659.68568978 0 20946
0.13850000 0.13851100 11778.29105545 0 176.05444394 0 3233.49682993 0 288.56324118 0 -860.44258777 0 20955
0.13950000 0.13949800 11695.44745957 0 288.61719630 0 3197.31317522 0 118.47645870 0 -650.66619163 0 20506
0.14050000 0.14048300 11431.51698040 0 170.56900639 0 3187.25279282 0 79.60246666 0 -407.39153225 0 21447
0.14150000 0.14148400 11328.32780669 0 169.07737204 0 3239.46561547 0 1.42452767 0 -271.25825938 0 21771
0.14250000 0.14249400 11106.30247345 0 122.60402565 0 3193.30026291 0 198.58970053 0 -168.42653836 0 22470
0.14350000 0.14350900 11154.81712201 0 57.33754772 0 3040.59602273 0 275.37683380 0 -232.61402623 0 22519
0.14450000 0.14449900 11066.99391785 0 200.83333442 0 2643.13785354 0 -62.91268567 0 -611.11708610 0 22218
0.14550000 0.14550500 10831.79454195 0 275.12167103 0 2903.76358138 0 -28.68917564 0 -353.08120418 0 23559
0.14650000 0.14650700 10676.12276998 0 277.97454819 0 2935.61958556 0 -177.61464627 0 -939.93759380 0 23044
0.14750000 0.14750500 10475.34226662 0 214.89763661 0 3281.64053701 0 -136.95159225 0 -650.69204513 0 23649
0.14850000 0.14849900 10232.33063847 0 110.85990618 0 3077.64520754 0 58.64775797 0 -628.47040270 0 23640
0.14950000 0.14949500 10300.93232988 0 14.02349863 0 3080.29800111 0 223.41242954 0 -653.88551400 0 24457
0.15050000 0.15050000 10312.77997575 0 29.62799479 0 3224.03220201 0 408.74265847 0 -507.55135059 0 24591
0.15150000 0.15149900 10290.60217186 0 53.98659733 0 3015.09098622 0 462.45161172 0 -5.20872646 0 25020
0.15250000 0.15250500 10050.65924135 0 121.62496497 0 2963.75493434 0 449.26632842 0 75.09923716 0 25297
0.15350000 0.15350100 10045.83700219 0 94.20272308 0 2636.91053303 0 169.61692327 0 571.14195990 0 25452
0.15450000 0.15450400 10027.27868783 0 87.86726751 0 3016.06892284 0 359.75815071 0 553.61666135 0 26061
0.15550000 0.15549900 9879.67770309 0 159.52057078 0 2824.95537911 0 -231.16847854 0 620.83462865 0 26128
0.15650000 0.15649500 9751.09589937 0 185.64609121 0 3060.86291600 0 -325.64727200 0 343.94255513 0 26331
0.15750000 0.15749700 9689.72194638 0 196.86201251 0 3364.37172639 0 -432.08836597 0 539.94016160 0 27345
0.15850000 0.15849900 9537.50105418 0 145.06846614 0 3474.62002876 0 -271.69776882 0 708.20595866 0 26980
0.15950000 0.15949700 9565.54647776 0 155.00857358 0 3344.22848028 0 -104.71115782 0 116.65210109 0 27777
0.16050000 0.16050000 9423.95924115 0 102.36253626 0 3274.68257421 0 77.31342054 0 225.86963579 0 28224
0.16150000 0.16150500 9340.72222249 0 89.66217462 0 3187.73614080 0 151.23283900 0 -185.46062048 0 28075
0.16250000 0.16249700 9239.16294313 0 100.65822879 0 2833.16105414 0 191.17311918 0 -147.29074279 0 28590
0.16350000 0.16349900 9160.83808884 0 72.80479553 0 2655.49132869 0 264.35649983 0 -95.66142232 0 29163
0.16450000 0.16449100 8975.07509486 0 102.27261105 0 2270.49904115 0 162.25654517 0 -517.99166699 0 28996
0.16550000 0.16550500 8921.24361851 0 118.84964831 0 2041.07735973 0 258.81823121 0 -261.14279778 0 30777
0.16650000 0.16650700 8776.23922408 0 111.18532301 0 1745.16722924 0 517.09915932 0 -793.09872517 0 29211
0.16750000 0.16749900 8694.77822823 0 91.94211581 0 1753.95741811 0 197.10481057 0 -224.74444665 0 30922
0.16850000 0.16850800 8648.80396674 0 124.55652669 0 1551.81679602 0 139.33011394 0 -568.38687641 0 30867
0.16950000 0.16949900 8509.00399360 0 82.94656025 0 1858.93385529 0 159.05858004 0 -209.81573841 0 30852
0.17050000 0.17049200 8440.14376722 0 231.40902847 0 1617.52964019 0 -162.34422225 0 -637.21787709 0 31257
0.17150000 0.17149500 8330.61486650 0 173.87712990 0 1818.60240047 0 80.40830891 0 -141.33544603 0 32608
0.17250000 0.17250900 8112.57996427 0 61.61753789 0 1861.33935454 0 200.23420773 0 -79.91102252 0 32361
0.17350000 0.17350400 8232.07932219 0 35.82620201 0 1825.74021368 0 325.64277574 0 146.01605300 0 32508
0.17450000 0.17449800 8036.86294095 0 -7.34944095 0 1710.30997132 0 314.89221738 0 51.60549029 0 32791
0.17550000 0.17549800 8246.50107708 0 -3.48548974 0 1788.57862236 0 44.44148636 0 356.61863696 0 33633
0.17650000 0.17650100 8171.54841800 0 69.59435328 0 1670.78784335 0 -67.82248950 0 685.65384109 0 33984
0.17750000 0.17750300 8220.51269259 0 31.13098220 0 1748.07855778 0 46.74660660 0 830.72343130 0 34069
0.17850000 0.17849800 8217.62384535 0 -82.81976571 0 1685.54681776 0 255.91477113 0 1015.70295192 0 34536
