### header ###
fiducial parameters:
Omega_m = 0.31
Omega_nu = 0
Omega_de = 0.69
Omega_k = 0
H_0 = 100
w_de = -1
zeff = 0
beta = 0
fgrowth = 0
b_1 = 2
gamma = 0.55
Lx = 3500 Ly = 3500 Lz = 3500
nx = 700 ny = 700 nz = 700
xoffset = 857.220397 yoffset = 15.9954215 zoffset = 262.898189
bins = 400 dk = 0.001
kx_ny = 0.628318531 ky_ny = 0.628318531 kz_ny = 0.628318531
############################
A(data) = 3.05722778 (not used)
A(ran) = 3.0579214 (used)
Ngal = 186026
weighted Ngal = 0
Nran = 9360983
weighted Nran = 0
SN(data) = 3439.26241
SN(ran) = 68.6694225
SN(data+ran) = 3507.93183
############################
13 columns: k_central k_mean P_0(k) sigma^{lin}_{P_0(k)} P^img_1(k) sigma^{lin}_{P_1(k)} P_2(k) sigma^{lin}_{P_2(k)} P^img_3(k) sigma^{lin}_{P_3(k)} P_4(k) sigma^{lin}_{P_4(k)} N_modes
### header ###
0.00050000 0 0 0 0 0 0 0 0 0 0 0 0
0.00150000 0.00179520 4298.32367367 0 -10065.02479299 0 -9501.65461900 0 17499.89468404 0 4275.62879985 0 3
0.00250000 0.00253879 13033.64692909 0 -16401.00866857 0 -7816.95085004 0 -12348.07964101 0 20689.09210943 0 6
0.00350000 0.00331552 22330.22711616 0 -16771.05089064 0 -18526.05368927 0 -119.17675125 0 -38881.18606548 0 7
0.00450000 0.00420575 39647.23641280 0 -23000.28230623 0 -20652.78480757 0 -12276.36428934 0 -1020.86915500 0 24
0.00550000 0.00557378 61095.63447911 0 -21345.43370562 0 -26950.58419262 0 -22555.93938284 0 -2564.65563013 0 45
0.00650000 0.00659388 97331.10858204 0 -27949.31601007 0 -27983.59999480 0 -23543.54295606 0 5881.06349985 0 40
0.00750000 0.00754703 95240.23513957 0 -14396.23861070 0 -33851.78170892 0 -23819.16371198 0 -18040.12035817 0 57
0.00850000 0.00846663 112396.39072425 0 -6090.12836280 0 -23345.48269018 0 -28937.14439631 0 -564.98208330 0 75
0.00950000 0.00948925 102076.34928813 0 1149.35653724 0 -21549.33910988 0 -21788.31534442 0 -14154.22740046 0 112
0.01050000 0.01054430 111400.24425647 0 5597.00101523 0 -28388.15101461 0 -13715.50480243 0 3656.37011043 0 105
0.01150000 0.01145670 98826.45234879 0 5490.69818127 0 -21106.45747107 0 -7972.35284640 0 -1243.17100824 0 144
0.01250000 0.01249090 94980.12648166 0 4614.84915761 0 -18240.20394118 0 -6502.60404137 0 -8466.21083627 0 169
0.01350000 0.01339930 85469.07467864 0 3957.18116464 0 5367.86035008 0 -19614.26108654 0 -11039.34191705 0 180
0.01450000 0.01448870 88560.59084919 0 9361.78720196 0 9661.15945288 0 -23200.59070226 0 5906.60225831 0 267
0.01550000 0.01550050 81188.07284774 0 8758.63636503 0 32555.73467963 0 -15269.63717250 0 -9634.15940982 0 238
0.01650000 0.01653350 76797.69948523 0 10404.27887270 0 47941.60018069 0 -16942.24600127 0 25061.70524379 0 315
0.01750000 0.01747870 77226.75512364 0 4121.85669785 0 79952.50051939 0 5080.20085722 0 22626.75548244 0 297
0.01850000 0.01844180 79418.68201618 0 285.10674108 0 76625.71752905 0 11349.34782356 0 20830.94912166 0 388
0.01950000 0.01947590 80027.47565977 0 838.53343543 0 77722.13060135 0 15427.34350226 0 31505.40827533 0 399
0.02050000 0.02045430 84094.00587472 0 240.12615311 0 87716.30557278 0 16242.06586724 0 31879.94675769 0 462
0.02150000 0.02154770 83155.18672567 0 -951.45701267 0 76024.45512145 0 23923.13973125 0 38813.62975459 0 571
0.02250000 0.02255340 81987.95755376 0 -1362.82773528 0 59807.34349883 0 29298.19409779 0 21322.83999765 0 510
0.02350000 0.02348930 86995.10542188 0 -5646.15638088 0 48734.96530929 0 22219.95633249 0 24795.07700845 0 555
0.02450000 0.02439640 86796.70793648 0 -1011.75748352 0 34051.52807241 0 23889.41777905 0 810.33738713 0 592
0.02550000 0.02547300 83465.87831187 0 4058.14468951 0 23136.51899309 0 7318.27062101 0 679.66931864 0 837
0.02650000 0.02652900 75571.45689699 0 6283.44507407 0 8955.39271543 0 4548.03472966 0 -10190.86387792 0 723
0.02750000 0.02749970 67629.26271650 0 8181.20413698 0 14986.48518059 0 -2520.18761584 0 2144.33397735 0 826
0.02850000 0.02848090 61750.73960371 0 6944.81124113 0 1974.09432203 0 3108.38838729 0 -14628.69526782 0 831
0.02950000 0.02946900 56476.73868724 0 3761.27910370 0 22191.62989264 0 -4032.29119282 0 -3487.46809254 0 996
0.03050000 0.03053250 54601.23611277 0 2984.83115446 0 14714.68624591 0 -2286.15726762 0 -3896.61653850 0 1041
0.03150000 0.03150510 55750.14302399 0 2154.36063780 0 30663.70834859 0 -717.84481666 0 3110.38922312 0 1036
0.03250000 0.03246190 53629.48185708 0 585.29731137 0 28743.58039072 0 -9763.34820867 0 8863.60156156 0 1059
0.03350000 0.03345080 55290.06318957 0 1375.79944622 0 31525.41663363 0 2998.69087681 0 4119.01281321 0 1302
0.03450000 0.03451200 54017.28430730 0 311.62568428 0 35815.63579813 0 777.69004115 0 6703.29461952 0 1339
0.03550000 0.03553350 52779.12662928 0 -189.40046856 0 28750.32478116 0 7920.56716848 0 692.53649154 0 1365
0.03650000 0.03647120 54782.77262208 0 257.51993605 0 34094.80457772 0 8049.34006326 0 3454.08335987 0 1308
0.03750000 0.03744890 51357.29671832 0 992.73043402 0 19819.96499491 0 11594.39400950 0 2356.09659647 0 1579
0.03850000 0.03847530 49908.82646512 0 1481.54024765 0 20069.95706717 0 8750.18339568 0 4176.63238886 0 1662
0.03950000 0.03950240 49551.14895886 0 1409.17293824 0 13514.18474784 0 4395.75763421 0 8595.33219121 0 1683
0.04050000 0.04050350 47134.85867773 0 1541.34050953 0 12217.01365349 0 1210.25838290 0 2665.75404281 0 1822
0.04150000 0.04152450 48146.62965003 0 1568.64405016 0 14543.82835480 0 -4071.63347038 0 8830.41916060 0 1887
0.04250000 0.04250150 47164.08436963 0 490.53075725 0 17201.90503316 0 -5047.24326928 0 1894.02716687 0 1920
0.04350000 0.04349210 47278.40178756 0 1019.64280000 0 23408.43033427 0 -7238.59688863 0 4256.30612124 0 2005
0.04450000 0.04448520 48936.28536388 0 -306.57750804 0 24281.26686354 0 -4637.44286558 0 -1815.78099713 0 2151
0.04550000 0.04548030 47647.76957058 0 -205.01710462 0 23906.50356816 0 -2265.26089791 0 -5051.06509053 0 2274
0.04650000 0.04648670 50197.71118891 0 -418.81090933 0 25537.74680225 0 0.52464950 0 -7085.03835900 0 2311
0.04750000 0.04749250 48935.72333134 0 11.41791579 0 21787.19127934 0 -810.23284908 0 -16097.39869233 0 2568
0.04850000 0.04851840 48179.33994365 0 1185.75376431 0 22005.03509051 0 -173.10152500 0 -12481.05653916 0 2493
0.04950000 0.04949480 47718.58567019 0 1586.38179701 0 22693.97457381 0 -903.19078250 0 -18506.60736350 0 2644
0.05050000 0.05050630 46302.82571062 0 1691.62800981 0 23048.72951088 0 1319.58495191 0 -14571.70516861 0 2829
0.05150000 0.05149060 45556.33409558 0 2222.37781537 0 21580.25089939 0 654.69821305 0 -17539.01214858 0 2784
0.05250000 0.05249300 43362.27147939 0 1600.64618279 0 22355.06895427 0 3248.93024338 0 -13586.57453855 0 3055
0.05350000 0.05348950 41364.35821847 0 1970.71088616 0 18976.80378358 0 5156.88457651 0 -12556.93093159 0 3009
0.05450000 0.05448610 39821.35409262 0 1555.96459614 0 19190.60096048 0 4984.16073738 0 -6374.10092221 0 3336
0.05550000 0.05550870 37493.41532624 0 863.28197614 0 13011.95247318 0 5980.56574012 0 -5295.70661304 0 3349
0.05650000 0.05647670 38397.05123850 0 365.25932518 0 14957.70911472 0 4681.97832377 0 -487.47667245 0 3324
0.05750000 0.05747970 37010.17975131 0 -222.64918935 0 9269.82743833 0 3905.51913388 0 119.21496946 0 3639
0.05850000 0.05849280 36351.92724450 0 1011.76197978 0 10821.55430914 0 3715.50717392 0 3887.52285206 0 3846
0.05950000 0.05951020 35277.88306716 0 1899.43391987 0 8513.90491732 0 -533.83986045 0 5401.67222748 0 3787
0.06050000 0.06049470 34147.74804266 0 1134.78865390 0 11338.55679886 0 3852.96909171 0 6709.69054979 0 3930
0.06150000 0.06148310 32095.09281268 0 757.35795211 0 8194.62547395 0 1098.67581529 0 6561.29147884 0 4083
0.06250000 0.06249100 32518.41571921 0 -408.75389912 0 6416.05103074 0 3455.97178920 0 4259.52094735 0 4303
0.06350000 0.06350600 32217.84071866 0 -1048.41099742 0 6348.55092310 0 2579.97663708 0 4808.96395508 0 4470
0.06450000 0.06451750 33469.93680358 0 -522.42048337 0 3454.57794850 0 345.06999240 0 2646.27399509 0 4479
0.06550000 0.06550280 33538.95439907 0 -342.09571622 0 4273.84153638 0 375.31745945 0 1583.12200830 0 4636
0.06650000 0.06648880 32977.48389506 0 829.29474459 0 3175.76484777 0 -453.43098951 0 125.09382979 0 4653
0.06750000 0.06749660 32667.12952838 0 872.78482227 0 3927.70817842 0 -414.00553114 0 -120.68749470 0 5220
0.06850000 0.06852730 31388.84272725 0 1617.25986457 0 4621.84084236 0 -417.23272196 0 499.96166321 0 5029
0.06950000 0.06949320 29219.62194918 0 1270.73308384 0 3411.71734727 0 1043.38417841 0 -967.59071866 0 5040
0.07050000 0.07048030 29367.09928677 0 848.57133653 0 4746.29732726 0 50.75266212 0 2344.21522865 0 5475
0.07150000 0.07148790 28287.77200358 0 320.95317626 0 6438.75714522 0 -171.58740934 0 579.50275592 0 5509
0.07250000 0.07249820 28740.77022804 0 379.15726574 0 5586.18750923 0 -948.94472723 0 3607.70933341 0 5916
0.07350000 0.07351270 28215.38221288 0 579.62303088 0 6266.23563780 0 -1371.94390302 0 2130.91264038 0 5721
0.07450000 0.07449140 28406.13605578 0 909.59795341 0 8128.46300375 0 -1280.20895240 0 3511.16338428 0 6028
0.07550000 0.07549160 27436.29271071 0 673.07667699 0 8081.27475198 0 -1802.89921139 0 3276.91946370 0 6183
0.07650000 0.07648840 27284.76873886 0 399.70967154 0 7720.92197085 0 422.93398001 0 2595.44377248 0 6330
0.07750000 0.07749960 26810.30087150 0 251.82205020 0 7176.57097790 0 815.51483086 0 872.21267315 0 6583
0.07850000 0.07848650 26847.84464494 0 162.33747786 0 6054.25944631 0 543.98791993 0 153.20107694 0 6549
0.07950000 0.07947320 25725.91529548 0 587.06096947 0 5288.65872503 0 356.14540557 0 -1897.63541576 0 6828
0.08050000 0.08048110 25473.22546705 0 483.21646582 0 4465.91053542 0 -125.70756932 0 -2742.57264990 0 7147
0.08150000 0.08149960 25082.05082161 0 518.85607303 0 4512.94141808 0 481.53711260 0 -1908.12294289 0 7386
0.08250000 0.08250610 24345.11375969 0 121.62496497 0 4373.22012950 0 460.50135882 0 -1832.81058299 0 7227
0.08350000 0.08350160 24693.34911933 0 249.15689191 0 4870.70884955 0 1113.54157588 0 50.71331984 0 7798
0.08450000 0.08449610 24062.29898730 0 390.26190460 0 5601.57596008 0 1141.15086221 0 2464.99602075 0 7371
0.08550000 0.08548940 24271.71231041 0 648.16402278 0 6317.40307993 0 562.51700860 0 3303.18886446 0 8256
0.08650000 0.08650700 23585.58298979 0 640.48778239 0 6417.79333161 0 379.56080510 0 5063.63213804 0 8037
0.08750000 0.08749060 23116.28582178 0 947.62844703 0 8370.09203187 0 -1177.01977869 0 4435.92047927 0 8155
0.08850000 0.08849210 22735.11535549 0 420.80612483 0 7394.39230776 0 -610.35496998 0 5448.26472476 0 8718
0.08950000 0.08949900 22483.66199864 0 379.37083811 0 9267.56806753 0 -1156.13464963 0 3482.51096557 0 8571
0.09050000 0.09049190 22582.46731856 0 232.50274378 0 8617.04912843 0 -982.83753731 0 3666.98128472 0 8932
0.09150000 0.09150830 22283.12878959 0 390.17197939 0 9027.35536141 0 201.70223672 0 221.21713045 0 9285
0.09250000 0.09250820 21787.07887284 0 792.84356240 0 9140.59367687 0 -109.32128590 0 475.76616251 0 9204
0.09350000 0.09350330 20910.87014836 0 936.72276769 0 8353.43338748 0 181.88609354 0 780.42938773 0 9349
0.09450000 0.09448040 20286.56440676 0 696.25377473 0 9053.31002395 0 1312.99793059 0 427.69327153 0 9564
0.09550000 0.09549270 19330.88428161 0 550.21524044 0 8530.52983975 0 1187.79956274 0 834.78467841 0 10155
0.09650000 0.09649430 19230.61767709 0 213.91520374 0 7946.39818386 0 2209.93441501 0 1782.78968724 0 9913
0.09750000 0.09749140 18456.36165474 0 519.12697271 0 7331.34349781 0 944.70362971 0 2195.88360160 0 10476
0.09850000 0.09850240 18187.26047624 0 525.81178770 0 6354.29489563 0 1245.21680668 0 2078.94711205 0 10575
0.09950000 0.09950330 17543.62081538 0 504.42195342 0 6303.23986001 0 719.45335378 0 2730.34282191 0 10882
0.10050000 0.10051200 16911.89624430 0 524.56969579 0 4703.13322845 0 385.40369535 0 1194.09432715 0 10875
0.10150000 0.10150300 16421.57905941 0 370.79422160 0 4805.33322490 0 -139.91799997 0 1580.81767490 0 11118
0.10250000 0.10250800 16251.95763988 0 223.41804986 0 4221.33645682 0 519.43047028 0 95.52732136 0 11575
0.10350000 0.10349800 16057.49438224 0 -17.34364964 0 3799.23878122 0 -139.02774044 0 -409.19790482 0 11364
0.10450000 0.10450100 16378.41496061 0 -222.73012204 0 4124.32964101 0 -31.69481324 0 -402.02074933 0 12093
0.10550000 0.10551000 16370.54650509 0 -258.81148682 0 3795.56308843 0 -233.13334429 0 -868.82024476 0 12067
0.10650000 0.10649700 16785.10170405 0 -175.53849808 0 4179.09409137 0 -298.12453869 0 -574.59396374 0 12054
0.10750000 0.10749900 16957.30847325 0 107.26020019 0 4134.37878276 0 -425.64634904 0 -316.90316980 0 12807
0.10850000 0.10850100 16936.17604988 0 71.67207516 0 4422.38673579 0 -200.50510741 0 -1001.83536112 0 12736
0.10950000 0.10950300 16659.65604189 0 208.48034911 0 5187.57155300 0 73.01072425 0 -811.94142799 0 12933
0.11050000 0.11050200 16837.14591694 0 238.81998950 0 4343.81458718 0 4.61375881 0 -600.03492854 0 13428
0.11150000 0.11150900 16222.50713497 0 162.71179153 0 5123.46612188 0 531.80530267 0 183.42493863 0 13453
0.11250000 0.11250000 16499.58917549 0 199.08653729 0 4914.32257438 0 257.79870419 0 -115.70339017 0 13668
0.11350000 0.11349100 16132.13230309 0 173.69840355 0 4756.68368853 0 656.79234628 0 378.68515841 0 13791
0.11450000 0.11448600 16153.48953948 0 259.92093905 0 4577.68756629 0 665.16101075 0 365.02102338 0 14205
0.11550000 0.11549300 15786.81951263 0 242.02582308 0 4709.04581073 0 432.04677556 0 755.34812376 0 14776
0.11650000 0.11649800 15547.50605857 0 269.01687362 0 4281.23788456 0 720.03899168 0 739.59659989 0 14553
0.11750000 0.11747300 15222.20162642 0 173.01159979 0 4020.30865914 0 222.04781454 0 592.74087028 0 14568
0.11850000 0.11849100 15094.05820808 0 177.58092431 0 3700.97301253 0 61.49467758 0 277.33607923 0 16015
0.11950000 0.11950300 15168.80853544 0 72.24377465 0 3724.90435793 0 91.82779839 0 -397.65488058 0 15270
0.12050000 0.12050700 14924.54919506 0 209.55832751 0 3957.47342156 0 -392.30995116 0 -62.45979985 0 15999
0.12150000 0.12150000 14809.33252507 0 281.21972405 0 3781.79329128 0 -405.70206244 0 -1284.18814276 0 15670
0.12250000 0.12250700 14601.15567353 0 342.03389264 0 4351.96405896 0 -416.58076422 0 -314.88210080 0 16887
0.12350000 0.12352200 14517.07560606 0 448.90550353 0 4330.33704696 0 -519.07638978 0 -1774.48284635 0 16407
0.12450000 0.12449800 14024.62269754 0 393.18334972 0 4836.09888595 0 -458.77929113 0 -1059.32229708 0 16306
0.12550000 0.12549900 13826.56243166 0 401.64193940 0 4431.75019785 0 -243.86366948 0 -1684.49019659 0 17523
0.12650000 0.12650100 13399.75492340 0 202.53404487 0 4755.93056493 0 379.68670039 0 -779.09287436 0 17154
0.12750000 0.12750600 13268.91374889 0 182.96069975 0 4223.86560323 0 336.97447574 0 -1387.00637500 0 18007
0.12850000 0.12850300 13332.87305155 0 -61.31145497 0 3852.87916651 0 925.22470606 0 -1526.95247660 0 17496
0.12950000 0.12949900 13252.61480533 0 -33.82368008 0 3826.59852510 0 474.80283875 0 -1629.50093322 0 18405
0.13050000 0.13049000 13406.83653336 0 -106.45031130 0 3212.81403258 0 204.37975972 0 -1345.73070551 0 18100
0.13150000 0.13148800 13341.07872658 0 -48.38650514 0 3258.90070058 0 206.34574953 0 -886.43546852 0 19059
0.13250000 0.13249300 13496.76173921 0 116.17324937 0 3035.16678843 0 253.99374392 0 -403.24035993 0 18957
0.13350000 0.13349100 13252.95202485 0 144.90435264 0 3287.95778272 0 465.50120027 0 -337.23863104 0 19468
0.13450000 0.13450700 13265.65396018 0 191.48336114 0 2986.79826833 0 639.21421666 0 439.78933578 0 19953
0.13550000 0.13551000 12801.30267848 0 326.79269431 0 3129.05994399 0 540.97430147 0 231.91036149 0 19956
0.13650000 0.13649900 12535.12406917 0 345.98273324 0 2936.78861323 0 434.85581418 0 954.20422771 0 19723
0.13750000 0.13749600 12363.25451950 0 284.16589861 0 3027.08476055 0 247.73045333 0 904.22829456 0 20946
0.13850000 0.13851100 12082.12584471 0 283.49483176 0 2883.01334014 0 -136.38618751 0 1405.68833651 0 20955
0.13950000 0.13949800 12045.25651032 0 146.69049204 0 3191.50175880 0 29.76411907 0 1680.70209730 0 20506
0.14050000 0.14048300 11764.24024204 0 155.36377814 0 3075.35211479 0 289.47373388 0 1852.84142259 0 21447
0.14150000 0.14148400 11744.00707072 0 155.95054011 0 3004.64842170 0 371.13368925 0 1871.46718085 0 21771
0.14250000 0.14249400 11665.65973513 0 176.49957371 0 3054.66931745 0 664.65967772 0 2126.23652967 0 22470
0.14350000 0.14350900 11333.94813206 0 186.53635075 0 2901.25691627 0 384.56514281 0 2031.80382288 0 22519
0.14450000 0.14449900 11247.28271492 0 142.29652167 0 2863.37592331 0 42.48269056 0 2281.40247236 0 22218
0.14550000 0.14550500 11085.00144032 0 241.30642144 0 3069.99032439 0 -208.25103983 0 2059.86048710 0 23559
0.14650000 0.14650700 10982.50918695 0 248.05868033 0 3058.14267852 0 -512.00714454 0 1736.81542575 0 23044
0.14750000 0.14750500 10681.40587582 0 256.20590398 0 3275.57058561 0 -271.82928443 0 2200.79576597 0 23649
0.14850000 0.14849900 10495.77776965 0 254.37480198 0 3223.47016948 0 17.99718107 0 1439.28664155 0 23640
0.14950000 0.14949500 10293.70459146 0 200.02400756 0 3122.01205598 0 215.44056004 0 1647.57589959 0 24457
0.15050000 0.15050000 10241.68285988 0 79.64832851 0 2783.89328199 0 435.81801388 0 1411.67960335 0 24591
0.15150000 0.15149900 10160.42419574 0 117.88182828 0 2837.25265101 0 -37.90279983 0 1703.52061828 0 25020
0.15250000 0.15250500 10093.59852715 0 142.96196819 0 2852.31512299 0 38.41290056 0 1787.60068575 0 25297
0.15350000 0.15350100 10075.61348598 0 72.28154324 0 3133.88218315 0 -428.84319010 0 2077.49706810 0 25452
0.15450000 0.15450400 10066.73337190 0 73.24216925 0 3128.83513097 0 -76.44249492 0 1774.66269676 0 26061
0.15550000 0.15549900 10100.19678913 0 31.17054929 0 3457.45555509 0 -68.96690015 0 1789.62400288 0 26128
0.15650000 0.15649500 10131.87294289 0 147.29074279 0 3681.83018433 0 -85.73401682 0 1784.63315396 0 26331
0.15750000 0.15749700 9898.08988898 0 129.49679268 0 3578.12394069 0 134.56407803 0 928.40356209 0 27345
0.15850000 0.15849900 9847.56316395 0 205.31722999 0 3527.76582541 0 -57.46580355 0 1347.55169093 0 26980
0.15950000 0.15949700 9679.36930706 0 138.26450025 0 3142.72857527 0 196.91821577 0 418.87048477 0 27777
0.16050000 0.16050000 9635.73310092 0 84.45044691 0 3190.01799290 0 117.74694047 0 1070.18413789 0 28224
0.16150000 0.16150500 9447.37351662 0 61.23827834 0 2901.41428538 0 231.30111822 0 456.37379187 0 28075
0.16250000 0.16249700 9534.66841020 0 15.35495371 0 2892.20819243 0 253.84873952 0 689.01142347 0 28590
0.16350000 0.16349900 9470.64166364 0 36.35406297 0 2892.11826723 0 256.91968530 0 768.20068380 0 29163
0.16450000 0.16449100 9410.95380825 0 99.85362301 0 2786.83833248 0 -1.97475752 0 647.30074080 0 28996
0.16550000 0.16550500 9422.21694029 0 180.73954717 0 2933.93348795 0 -186.34076343 0 729.78126367 0 30777
0.16650000 0.16650700 9255.15838912 0 119.86243094 0 3006.78414533 0 -164.11462474 0 339.79587908 0 29211
0.16750000 0.16749900 9134.57992873 0 106.48740545 0 3161.75899696 0 6.95027420 0 813.91978252 0 30922
0.16850000 0.16850800 9108.34424993 0 32.58541000 0 3004.65966235 0 295.83931439 0 89.77649204 0 30867
0.16950000 0.16949900 8991.39651972 0 23.62515008 0 2720.28243950 0 266.03135679 0 278.65348349 0 30852
0.17050000 0.17049200 9040.87786424 0 60.80011777 0 2516.55688565 0 274.20668206 0 -297.39839265 0 31257
0.17150000 0.17149500 8819.84170826 0 67.38489097 0 2350.95961909 0 216.62982089 0 -168.63561446 0 32608
0.17250000 0.17250900 8839.04073971 0 191.77899025 0 2396.14703502 0 -113.26641709 0 -71.97130128 0 32361
0.17350000 0.17350400 8615.03705194 0 137.07973566 0 2077.65443721 0 116.43852873 0 -100.59955260 0 32508
0.17450000 0.17449800 8489.04059790 0 197.93774279 0 2377.93718084 0 -91.67739848 0 165.83332023 0 32791
0.17550000 0.17549800 8495.00938344 0 87.89143491 0 2114.88347243 0 -10.75402048 0 148.43279290 0 33633
0.17650000 0.17650100 8426.96972456 0 88.95322678 0 2325.99413381 0 217.54368579 0 412.95790249 0 33984
0.17750000 0.17750300 8365.24731140 0 20.12447422 0 2100.68653056 0 254.32084685 0 235.53097509 0 34069
