### header ###
fiducial parameters:
Omega_m = 0.31
Omega_nu = 0
Omega_de = 0.69
Omega_k = 0
H_0 = 100
w_de = -1
zeff = 0
beta = 0
fgrowth = 0
b_1 = 2
gamma = 0.55
Lx = 3500 Ly = 3500 Lz = 3500
nx = 700 ny = 700 nz = 700
xoffset = 857.220397 yoffset = 15.9954215 zoffset = 262.898189
bins = 400 dk = 0.001
kx_ny = 0.628318531 ky_ny = 0.628318531 kz_ny = 0.628318531
############################
A(data) = 3.07737199 (not used)
A(ran) = 3.0780444 (used)
Ngal = 187500
weighted Ngal = 0
Nran = 9360983
weighted Nran = 0
SN(data) = 3442.11086
SN(ran) = 69.1213094
SN(data+ran) = 3511.23217
############################
13 columns: k_central k_mean P_0(k) sigma^{lin}_{P_0(k)} P^img_1(k) sigma^{lin}_{P_1(k)} P_2(k) sigma^{lin}_{P_2(k)} P^img_3(k) sigma^{lin}_{P_3(k)} P_4(k) sigma^{lin}_{P_4(k)} N_modes
### header ###
0.00050000 0 0 0 0 0 0 0 0 0 0 0 0
0.00150000 0.00179520 1329.34183675 0 -5828.14251621 0 -3961.46385257 0 6442.07313718 0 -8242.56684932 0 3
0.00250000 0.00253879 6269.49542651 0 -9522.74207977 0 -7002.98160866 0 1908.46016241 0 15734.77529975 0 6
0.00350000 0.00331552 9579.05773994 0 -7114.73615823 0 -432.13894890 0 -21872.05819236 0 -20820.60772299 0 7
0.00450000 0.00420575 18006.51081248 0 -10465.88887936 0 -14149.84354668 0 2843.34508371 0 7616.81106378 0 24
0.00550000 0.00557378 32177.93640856 0 -15544.13386335 0 -15776.59052047 0 4188.24398107 0 11115.17134688 0 45
0.00650000 0.00659388 53912.18422297 0 -19491.17596103 0 -43012.68724166 0 5532.68201175 0 -4223.77567803 0 40
0.00750000 0.00754703 66348.84019173 0 -15963.29772911 0 -7492.56815125 0 -10566.76247902 0 1492.29755040 0 57
0.00850000 0.00846663 73542.18222052 0 -5077.97520838 0 -28753.47216337 0 -15059.32459732 0 -8684.52675476 0 75
0.00950000 0.00948925 74161.65448231 0 7128.01136674 0 7136.68914911 0 -21027.09847691 0 -2177.47141570 0 112
0.01050000 0.01054430 72825.70314293 0 8776.72257206 0 9590.07357765 0 -27299.94361734 0 -1236.49406171 0 105
0.01150000 0.01145670 62212.16831622 0 10518.86606625 0 14581.82175427 0 -7679.21915664 0 -18168.37618301 0 144
0.01250000 0.01249090 59259.47418220 0 5057.56218665 0 30611.43932269 0 -9433.99714225 0 -10781.76240555 0 169
0.01350000 0.01339930 53477.50825920 0 445.31074342 0 17094.66922518 0 9890.09778631 0 -33061.33914951 0 180
0.01450000 0.01448870 57576.07432873 0 -3445.24820840 0 27534.98562413 0 8398.49715626 0 -16792.63294004 0 267
0.01550000 0.01550050 53207.84504816 0 -4876.12684320 0 -5386.14888882 0 13524.86336604 0 -40475.67237167 0 238
0.01650000 0.01653350 63512.26197977 0 -8270.80336396 0 11095.90487153 0 9552.91198634 0 -18740.75011823 0 315
0.01750000 0.01747870 62519.71252022 0 -7909.73118118 0 -22120.02694749 0 15820.20424530 0 -33179.25357568 0 297
0.01850000 0.01844180 73361.20774376 0 -4611.61185020 0 5443.83590837 0 -6230.99619776 0 -9412.92092213 0 388
0.01950000 0.01947590 73654.81354085 0 -4296.16546873 0 -16856.03021017 0 -3449.65454348 0 -17039.47763009 0 399
0.02050000 0.02045430 83058.62953589 0 -391.09483682 0 3148.25897543 0 -11945.66434484 0 9885.80385773 0 462
0.02150000 0.02154770 83589.41306341 0 -1242.30547814 0 -1047.59605024 0 -2973.30948746 0 9536.75917124 0 571
0.02250000 0.02255340 85970.40770124 0 3432.52379177 0 14610.26060062 0 1451.65135735 0 18226.26553427 0 510
0.02350000 0.02348930 85602.27638980 0 5191.35965230 0 16354.47237455 0 -423.65900199 0 13436.39944478 0 555
0.02450000 0.02439640 80607.04361146 0 7270.86879688 0 23331.54428327 0 5331.86778644 0 19753.42034259 0 592
0.02550000 0.02547300 70890.84993261 0 6951.13972749 0 25929.14626070 0 -897.85484559 0 18751.42873642 0 837
0.02650000 0.02652900 67199.75745207 0 4996.76150684 0 30100.55174697 0 13620.52130376 0 19800.96829518 0 723
0.02750000 0.02749970 64622.83827199 0 4436.62864027 0 30605.25696479 0 6618.13544958 0 18305.51212193 0 826
0.02850000 0.02848090 61348.21190104 0 1084.99369522 0 24258.33593604 0 5032.96764285 0 11882.94151376 0 831
0.02950000 0.02946900 61453.64920489 0 954.59989861 0 23085.48643877 0 -1035.98333397 0 2917.64578504 0 996
0.03050000 0.03053250 59627.04346111 0 1981.78292713 0 25120.49384711 0 -1313.08785579 0 -1712.33328845 0 1041
0.03150000 0.03150510 60374.77154773 0 3080.20807591 0 27164.60618254 0 -7997.91408616 0 -3961.66618428 0 1036
0.03250000 0.03246190 58081.45398560 0 2037.77260842 0 29287.06585357 0 -510.05464350 0 -485.29373807 0 1059
0.03350000 0.03345080 54352.36810559 0 2947.50095338 0 25405.21953013 0 763.55492285 0 -14728.73705932 0 1302
0.03450000 0.03451200 56029.69800767 0 -487.75094432 0 24325.21780789 0 8225.54850412 0 -7843.13032560 0 1339
0.03550000 0.03553350 51109.66518271 0 544.33750417 0 22099.68136967 0 3532.86908085 0 -16575.35116141 0 1365
0.03650000 0.03647120 53770.10239773 0 1770.71722835 0 16322.54892647 0 2860.40839152 0 -13019.93333520 0 1308
0.03750000 0.03744890 50498.73581548 0 3039.86538044 0 17238.21233502 0 -2030.27509438 0 -14340.93460911 0 1579
0.03850000 0.03847530 49197.51808687 0 2778.50901029 0 20562.97200823 0 -3588.60022717 0 -9875.46245906 0 1662
0.03950000 0.03950240 45967.29228630 0 1779.87835870 0 18953.08601054 0 1708.51146721 0 -7565.86843467 0 1683
0.04050000 0.04050350 45588.25754365 0 1130.85442614 0 23274.89140359 0 5345.10927300 0 -2803.02486953 0 1822
0.04150000 0.04152450 44690.35436326 0 339.19787646 0 21468.51883112 0 6301.60996565 0 -2401.58750998 0 1887
0.04250000 0.04250150 44901.56619050 0 1508.07942402 0 22043.02848998 0 9506.72415248 0 4946.34718832 0 1920
0.04350000 0.04349210 43050.00620209 0 1509.93413139 0 23811.63247600 0 5545.59751944 0 12290.19028974 0 2005
0.04450000 0.04448520 42796.86674762 0 233.09287795 0 18431.29500361 0 3762.95396066 0 18567.86890999 0 2151
0.04550000 0.04548030 43347.65863344 0 -329.66243244 0 23137.41824515 0 4383.83130379 0 21078.91787678 0 2274
0.04650000 0.04648670 44035.81127119 0 -130.97269012 0 21307.77752567 0 -769.55518221 0 16376.05442395 0 2311
0.04750000 0.04749250 43314.94833982 0 917.94638471 0 20284.20387010 0 -2071.84302078 0 15527.72251328 0 2568
0.04850000 0.04851840 43155.78072547 0 1960.62802245 0 23763.74730388 0 -3212.75782933 0 11285.95055344 0 2493
0.04950000 0.04949480 40410.47659744 0 1486.19387705 0 19608.07872863 0 -2346.26102708 0 3044.40660333 0 2644
0.05050000 0.05050630 39536.85322262 0 486.23795274 0 17269.91097008 0 2665.94513387 0 -1397.98849076 0 2829
0.05150000 0.05149060 39557.64842647 0 -676.33758977 0 13354.00547492 0 4000.26657889 0 -7576.68194067 0 2784
0.05250000 0.05249300 39389.60069805 0 -751.36893340 0 10222.41638452 0 3617.94956623 0 -9714.95720727 0 3055
0.05350000 0.05348950 39644.76346964 0 101.06705126 0 6570.27275877 0 2937.49677423 0 -14092.85344747 0 3009
0.05450000 0.05448610 38409.97798684 0 1257.33422817 0 9159.47797010 0 -861.81169902 0 -8552.17933306 0 3336
0.05550000 0.05550870 37340.99210232 0 979.55526730 0 5650.94489809 0 -16.41236173 0 -8385.08705994 0 3349
0.05650000 0.05647670 36751.98200402 0 1204.82914860 0 10779.70536647 0 -1404.46310558 0 -4996.71654424 0 3324
0.05750000 0.05747970 36259.64150200 0 758.83160142 0 9634.93501472 0 -554.91720464 0 -7645.96931178 0 3639
0.05850000 0.05849280 35174.58148694 0 585.24897657 0 12425.41531804 0 -2882.19277263 0 -7438.57930579 0 3846
0.05950000 0.05951020 35501.34720369 0 1056.20414057 0 12012.77102970 0 -4134.97453725 0 -6463.81255570 0 3787
0.06050000 0.06049470 34828.14463141 0 211.68730676 0 12140.46482201 0 -823.13486799 0 -8169.63750738 0 3930
0.06150000 0.06148310 34682.24098492 0 -238.17477614 0 11843.82404922 0 200.34886237 0 -7984.45902724 0 4083
0.06250000 0.06249100 34496.20821532 0 -14.80742161 0 11289.43515516 0 895.58311008 0 -10663.51075986 0 4303
0.06350000 0.06350600 34236.77399645 0 618.45048663 0 11812.35022717 0 845.62965823 0 -8555.25927136 0 4470
0.06450000 0.06451750 33914.05491397 0 1446.89656209 0 12125.85197606 0 265.34904929 0 -7703.43151831 0 4479
0.06550000 0.06550280 32114.76395146 0 1577.56912684 0 12403.83326863 0 753.79241769 0 -4680.01120990 0 4636
0.06650000 0.06648880 31868.59370045 0 354.98424634 0 13328.60160427 0 2630.48088081 0 -2774.81083620 0 4653
0.06750000 0.06749660 31134.35439470 0 -156.42377151 0 12494.77013305 0 3204.91185512 0 -2822.60608311 0 5220
0.06850000 0.06852730 31549.35921969 0 527.96662044 0 11327.99058717 0 2720.55221512 0 -1878.40266235 0 5029
0.06950000 0.06949320 30480.93536771 0 1362.78277267 0 12223.87045043 0 657.33302158 0 -1974.65635456 0 5040
0.07050000 0.07048030 29362.49061997 0 1288.79680956 0 10257.97056279 0 1787.43207599 0 119.86355500 0 5475
0.07150000 0.07148790 27908.84966744 0 1335.95133938 0 8589.59945934 0 2122.57207753 0 538.93524743 0 5509
0.07250000 0.07249820 27052.42448825 0 495.99371350 0 7207.14554789 0 1664.22330333 0 -368.77652479 0 5916
0.07350000 0.07351270 27107.39127032 0 319.30642092 0 6911.05556698 0 1578.94048623 0 -324.27928481 0 5721
0.07450000 0.07449140 26079.32135447 0 348.85584357 0 4558.62342265 0 1020.29812994 0 -820.43149149 0 6028
0.07550000 0.07549160 26198.80947174 0 309.33821186 0 5415.90289130 0 -659.81495726 0 -1249.94912064 0 6183
0.07650000 0.07648840 25183.66630422 0 381.90560485 0 4096.95865648 0 -482.61958727 0 -3973.69368056 0 6330
0.07750000 0.07749960 24922.54598774 0 472.87731528 0 4795.81239373 0 -1154.43731137 0 -2744.48356053 0 6583
0.07850000 0.07848650 24799.46086223 0 393.77460795 0 4499.29526809 0 -734.92161325 0 -4991.65825141 0 6549
0.07950000 0.07947320 24063.53545888 0 273.35126854 0 5531.88392554 0 -667.58224691 0 -3714.69784707 0 6828
0.08050000 0.08048110 24467.29963313 0 206.37272710 0 6273.59826403 0 -754.84566667 0 -4734.13494317 0 7147
0.08150000 0.08149960 24287.89884747 0 443.06036515 0 5816.91310613 0 -652.64904242 0 -4762.93349034 0 7386
0.08250000 0.08250610 23950.00488649 0 508.28648914 0 7329.36514329 0 -232.29141955 0 -4010.13587023 0 7227
0.08350000 0.08350160 23455.19144132 0 612.48057703 0 7916.92519765 0 -60.88093805 0 -4502.21783728 0 7798
0.08450000 0.08449610 23202.16439336 0 128.27043769 0 6889.31614847 0 -391.89966741 0 -4461.59412554 0 7371
0.08550000 0.08548940 23043.33399853 0 349.31558618 0 8125.46175001 0 -522.94204957 0 -4939.50163202 0 8256
0.08650000 0.08650700 23065.70289349 0 204.23700346 0 7988.49442085 0 -384.37742394 0 -4084.62766263 0 8037
0.08750000 0.08749060 22540.65209784 0 616.61826056 0 8315.05780589 0 -188.88901895 0 -5304.01345393 0 8155
0.08850000 0.08849210 22438.36217619 0 718.45405993 0 8414.16662338 0 -24.05667866 0 -2714.12256290 0 8718
0.08950000 0.08949900 21539.33493073 0 602.62140227 0 7856.55166257 0 2018.20263550 0 -3247.41275553 0 8571
0.09050000 0.09049190 21362.18227520 0 302.31954954 0 7805.74392127 0 1684.10801447 0 -1708.15176638 0 8932
0.09150000 0.09150830 20660.54085658 0 400.85846604 0 7155.24746346 0 1382.97098139 0 -2082.08325360 0 9285
0.09250000 0.09250820 20531.16096666 0 678.49129845 0 7614.66409949 0 859.78838189 0 -776.67838258 0 9204
0.09350000 0.09350330 19453.74459410 0 820.74622971 0 6719.58232243 0 -557.51716715 0 -804.48662843 0 9349
0.09450000 0.09448040 18858.32732488 0 663.34227346 0 6568.98008394 0 -573.11132191 0 -1858.64159837 0 9564
0.09550000 0.09549270 19014.68477654 0 108.25848238 0 7792.70476642 0 -868.43918670 0 -572.56502628 0 10155
0.09650000 0.09649430 18595.29609777 0 -270.76591887 0 6592.45056266 0 -82.23997294 0 -3531.83494098 0 9913
0.09750000 0.09749140 19432.05013819 0 -522.98813624 0 7095.13246335 0 351.15792884 0 -2065.23351815 0 10476
0.09850000 0.09850240 19495.33500180 0 -293.51587189 0 6411.07142247 0 587.07783044 0 -4219.58291530 0 10575
0.09950000 0.09950330 19634.71907087 0 61.09844464 0 6149.61388647 0 838.47048778 0 -2841.31052592 0 10882
0.10050000 0.10051200 19371.68784376 0 661.71575130 0 5715.94958126 0 903.15481241 0 -2515.43282058 0 10875
0.10150000 0.10150300 18835.17158437 0 764.07424092 0 5853.92856899 0 482.29473246 0 -1878.18908999 0 11118
0.10250000 0.10250800 17869.82449959 0 811.08489041 0 5720.04117813 0 111.04380322 0 -1467.63556269 0 11575
0.10350000 0.10349800 17311.95100381 0 883.52751217 0 6892.77826889 0 -385.63075650 0 -1292.87716578 0 11364
0.10450000 0.10450100 16563.09885212 0 672.97663520 0 6347.95516861 0 -668.00601945 0 -775.23283490 0 12093
0.10550000 0.10551000 16239.81773709 0 375.46021572 0 7215.30626032 0 -316.73231191 0 -554.99813732 0 12067
0.10650000 0.10649700 16055.02143907 0 -140.04052307 0 6802.39219637 0 -244.91242219 0 -307.30253001 0 12054
0.10750000 0.10749900 16071.43278914 0 -292.81445528 0 6230.95123516 0 1082.74556508 0 -1613.48300593 0 12807
0.10850000 0.10850100 16325.92112169 0 -102.08590384 0 6293.05583044 0 1150.41315841 0 -1166.43108570 0 12736
0.10950000 0.10950300 16208.45632155 0 34.23497549 0 5068.10591703 0 608.20350943 0 -1879.89766890 0 12933
0.11050000 0.11050200 16127.52363629 0 280.07879800 0 5272.51715058 0 442.66694237 0 -1169.31993294 0 13428
0.11150000 0.11150900 15741.85690971 0 403.09535554 0 5036.22743156 0 269.26641607 0 -938.55499376 0 13453
0.11250000 0.11250000 15719.15079523 0 227.46805632 0 5452.47996878 0 -463.64199664 0 -1143.50015821 0 13668
0.11350000 0.11349100 15447.91389309 0 369.74659295 0 5816.63208986 0 -424.12436493 0 -239.82715180 0 13791
0.11450000 0.11448600 15278.06766055 0 225.67629660 0 5886.00938617 0 -572.86402759 0 -504.28706561 0 14205
0.11550000 0.11549300 15267.38904235 0 180.18313496 0 6214.18018426 0 -100.57830777 0 -221.40372525 0 14776
0.11650000 0.11649800 15431.95216906 0 -82.89564010 0 6008.73481085 0 373.50546655 0 -486.48187486 0 14553
0.11750000 0.11747300 15369.67896401 0 92.32115055 0 5980.77931249 0 897.41196395 0 108.05131718 0 14568
0.11850000 0.11849100 15155.43216107 0 82.90901647 0 5263.60331455 0 834.69025694 0 -625.09258715 0 16015
0.11950000 0.11950300 15162.06414500 0 189.36449847 0 5278.11499464 0 536.69161354 0 97.99104719 0 15270
0.12050000 0.12050700 15024.92820609 0 96.01808817 0 4981.04707712 0 484.86097302 0 -70.16796368 0 15999
0.12150000 0.12150000 14943.20867527 0 151.24632778 0 5334.14963854 0 199.61709601 0 347.52607458 0 15670
0.12250000 0.12250700 14883.85803941 0 182.90000024 0 5512.11162091 0 -14.39466492 0 64.25515659 0 16887
0.12350000 0.12352200 14550.90996476 0 333.55282166 0 5205.96125760 0 -403.25384871 0 225.96405725 0 16407
0.12450000 0.12449800 14398.59914736 0 338.13675903 0 5842.32821743 0 122.37471638 0 295.49535048 0 16306
0.12550000 0.12549900 14010.00985159 0 219.24776844 0 4665.58945501 0 415.87260322 0 -27.26453557 0 17523
0.12650000 0.12650100 13928.62754029 0 125.17139028 0 4924.18062507 0 1157.26995536 0 111.35899107 0 17154
0.12750000 0.12750600 13637.83190588 0 54.48478297 0 3889.18646837 0 813.55895763 0 -74.14715404 0 18007
0.12850000 0.12850300 13743.49402275 0 111.40372886 0 3532.03727269 0 845.36887514 0 59.08513169 0 17496
0.12950000 0.12949900 13503.84334917 0 129.23713365 0 3419.90054100 0 150.81019053 0 359.51310452 0 18405
0.13050000 0.13049000 13563.41879804 0 194.36883618 0 3549.94362931 0 249.77625176 0 751.12613534 0 18100
0.13150000 0.13148800 13423.24788343 0 160.94138904 0 4075.68010465 0 -102.03577054 0 2156.03549476 0 19059
0.13250000 0.13249300 13356.92804411 0 272.88365747 0 3818.53897852 0 256.22950935 0 1667.47185139 0 18957
0.13350000 0.13349100 13128.29320825 0 207.42035574 0 4128.18518421 0 260.40765922 0 1993.15846567 0 19468
0.13450000 0.13450700 12705.86955378 0 383.31405838 0 3817.21258174 0 470.66965147 0 1558.97709053 0 19953
0.13550000 0.13551000 12494.65772654 0 390.09104671 0 3851.18182825 0 124.41826668 0 1891.56546436 0 19956
0.13650000 0.13649900 11995.91005361 0 273.00505650 0 3162.33227015 0 234.65645246 0 1338.59289230 0 19723
0.13750000 0.13749600 11806.39268228 0 163.39409903 0 3083.44538332 0 101.00241752 0 724.82526076 0 20946
0.13850000 0.13851100 11694.77302052 0 22.31527705 0 2741.92069216 0 79.81671346 0 578.57765036 0 20955
0.13950000 0.13949800 11717.70394801 0 0.05097556 0 2930.93223420 0 57.16264319 0 123.21888925 0 20506
0.14050000 0.14048300 11697.02115067 0 -12.06897428 0 2177.59506286 0 169.00318374 0 490.31606082 0 21447
0.14150000 0.14148400 11756.25938002 0 15.90844335 0 2651.81563590 0 333.32238832 0 280.66780810 0 21771
0.14250000 0.14249400 11627.66633566 0 33.81682329 0 1902.68246793 0 535.29777285 0 166.90792644 0 22470
0.14350000 0.14350900 11640.70549051 0 34.72855247 0 2206.20251897 0 498.32727260 0 377.14518926 0 22519
0.14450000 0.14449900 11599.90192835 0 202.75548569 0 2080.91422592 0 -131.92814543 0 663.48727785 0 22218
0.14550000 0.14550500 11292.91975689 0 316.84584248 0 2275.66974049 0 -202.26988958 0 272.69931080 0 23559
0.14650000 0.14650700 11166.43995487 0 310.46452506 0 2421.74199674 0 -363.35853114 0 450.44210048 0 23044
0.14750000 0.14750500 10956.56576507 0 307.68808433 0 2390.45926575 0 -438.50452941 0 954.11317844 0 23649
0.14850000 0.14849900 10712.10409297 0 163.96287595 0 2650.97258710 0 -120.41659502 0 661.14022998 0 23640
0.14950000 0.14949500 10747.19740455 0 197.02162975 0 2984.50517559 0 -98.45404959 0 1162.28328558 0 24457
0.15050000 0.15050000 10520.66457037 0 112.29994594 0 2769.79750597 0 93.66429591 0 329.93670432 0 24591
0.15150000 0.15149900 10555.88152911 0 132.62843797 0 3312.39495741 0 138.45334318 0 918.31282992 0 25020
0.15250000 0.15250500 10329.94444942 0 172.42146563 0 3056.67015328 0 -37.09448463 0 229.13954109 0 25297
0.15350000 0.15350100 10118.80006609 0 260.75611940 0 3403.65780069 0 -371.84297431 0 91.17179401 0 25452
0.15450000 0.15450400 10079.79500805 0 276.80889271 0 3539.65843389 0 -463.94549421 0 160.49288707 0 26061
0.15550000 0.15549900 9853.66683729 0 190.97528372 0 3601.52697551 0 -311.26373533 0 -262.59621392 0 26128
0.15650000 0.15649500 9871.22473374 0 85.04058107 0 3699.54544989 0 -354.26934096 0 -548.90458056 0 26331
0.15750000 0.15749700 9966.39932348 0 37.50566764 0 4063.28166689 0 -47.01154874 0 -405.61550943 0 27345
0.15850000 0.15849900 9741.17040478 0 137.35737974 0 4090.85498313 0 245.30696903 0 -772.26305498 0 26980
0.15950000 0.15949700 9741.82236252 0 137.92166040 0 3738.20204775 0 248.77470978 0 -501.30154878 0 27777
0.16050000 0.16050000 9515.35697224 0 36.63609089 0 3571.24466244 0 623.03217587 0 -626.82027517 0 28224
0.16150000 0.16150500 9670.66904339 0 47.32156589 0 3571.69428847 0 432.11421947 0 -578.64959053 0 28075
0.16250000 0.16249700 9477.65582969 0 -29.06090396 0 3101.63275620 0 533.82637167 0 -439.52742862 0 28590
0.16350000 0.16349900 9547.23545772 0 24.96919469 0 3016.01271958 0 261.34288137 0 -235.85920209 0 29163
0.16450000 0.16449100 9461.06462921 0 76.12371007 0 2621.88178300 0 99.64533375 0 -426.05550872 0 28996
0.16550000 0.16550500 9374.68022835 0 149.25111228 0 2689.96640448 0 139.87753363 0 -108.73497356 0 30777
0.16650000 0.16650700 9192.71657431 0 190.44922127 0 2579.86423057 0 142.66633908 0 -345.49039274 0 29211
0.16750000 0.16749900 9111.72768580 0 155.81565230 0 2586.93459988 0 220.62924442 0 135.52964993 0 30922
0.16850000 0.16850800 8884.45296867 0 180.27306016 0 2498.05477455 0 265.58285482 0 207.27647541 0 30867
0.16950000 0.16949900 8767.24670349 0 133.19946303 0 2586.81095272 0 303.77633787 0 395.33368621 0 30852
0.17050000 0.17049200 8639.36182013 0 48.67662633 0 2148.06587339 0 313.43992531 0 532.44377163 0 31257
0.17150000 0.17149500 8585.17064295 0 5.80953924 0 2141.14163254 0 391.74454643 0 453.77832562 0 32608
0.17250000 0.17250900 8677.56879196 0 -31.51777299 0 1816.41047357 0 281.85931708 0 802.89495228 0 32361
0.17350000 0.17350400 8708.36817496 0 2.21701602 0 1780.51907579 0 258.54171120 0 643.93866217 0 32508
0.17450000 0.17449800 8631.69569633 0 96.59124895 0 1611.74070506 0 57.00133986 0 725.91223169 0 32791
0.17550000 0.17549800 8566.32007168 0 116.13727929 0 1746.12268455 0 -30.50555239 0 567.48537622 0 33633
0.17650000 0.17650100 8536.82460416 0 153.92834705 0 1653.65709164 0 -83.93989655 0 759.13397492 0 33984
0.17750000 0.17750300 8365.80934394 0 150.12226271 0 1696.65258069 0 -17.84599432 0 554.98240041 0 34069
