### header ###
fiducial parameters:
Omega_m = 0.31
Omega_nu = 0
Omega_de = 0.69
Omega_k = 0
H_0 = 100
w_de = -1
zeff = 0
beta = 0
fgrowth = 0
b_1 = 2
gamma = 0.55
Lx = 3500 Ly = 3500 Lz = 3500
nx = 700 ny = 700 nz = 700
xoffset = 857.220397 yoffset = 15.9954215 zoffset = 262.898189
bins = 400 dk = 0.001
kx_ny = 0.628318531 ky_ny = 0.628318531 kz_ny = 0.628318531
############################
A(data) = 3.13705789 (not used)
A(ran) = 3.13181983 (used)
Ngal = 191030
weighted Ngal = 0
Nran = 9360983
weighted Nran = 0
SN(data) = 3462.38473
SN(ran) = 70.3289035
SN(data+ran) = 3532.71364
############################
13 columns: k_central k_mean P_0(k) sigma^{lin}_{P_0(k)} P^img_1(k) sigma^{lin}_{P_1(k)} P_2(k) sigma^{lin}_{P_2(k)} P^img_3(k) sigma^{lin}_{P_3(k)} P_4(k) sigma^{lin}_{P_4(k)} N_modes
### header ###
0.00050000 0 0 0 0 0 0 0 0 0 0 0 0
0.00150000 0.00179520 19376.40891707 0 -26865.04284056 0 -22492.09248668 0 44430.13329884 0 18695.67510880 0 3
0.00250000 0.00253879 28741.10744756 0 -21766.50848200 0 -650.13338478 0 -42443.91031467 0 -28786.85689604 0 6
0.00350000 0.00331552 43529.98198830 0 -16592.99898306 0 -26157.21906403 0 9931.39593710 0 26522.20299327 0 7
0.00450000 0.00420575 50489.63088839 0 -11379.13554800 0 -17900.96110212 0 -24657.94106953 0 -5879.71462176 0 24
0.00550000 0.00557378 60534.83841414 0 -1760.53319879 0 -21488.52718942 0 -29532.33685252 0 -232.80286916 0 45
0.00650000 0.00659388 60872.73237512 0 -8121.57248485 0 -7203.61598356 0 -28574.97062976 0 -24929.17797167 0 40
0.00750000 0.00754703 62973.38518372 0 2465.04098335 0 -9989.02675340 0 -26350.67066311 0 -7244.55443352 0 57
0.00850000 0.00846663 61545.59772787 0 -33.91315566 0 -1643.59670923 0 -21155.24189525 0 -24724.37331535 0 75
0.00950000 0.00948925 58577.95352838 0 1246.82421973 0 2867.01789415 0 -16695.28890471 0 -23952.70264267 0 112
0.01050000 0.01054430 61201.74622201 0 2904.64035214 0 12012.54621669 0 -14957.48430170 0 -23492.96002777 0 105
0.01150000 0.01145670 54326.17738939 0 2140.51215610 0 7418.05387755 0 -10647.32422281 0 -29371.14592104 0 144
0.01250000 0.01249090 57967.36138068 0 -395.45058898 0 18980.40079182 0 -5133.15556281 0 -23260.27855764 0 169
0.01350000 0.01339930 58801.97969745 0 -742.30672078 0 12640.78618604 0 -9217.41228397 0 -21781.68336049 0 180
0.01450000 0.01448870 55897.17073555 0 -1005.07604072 0 21165.92051344 0 -5257.72445422 0 -19911.23907885 0 267
0.01550000 0.01550050 66760.13560198 0 -2685.76240111 0 14250.11015120 0 -11773.23276263 0 -34986.07577418 0 238
0.01650000 0.01653350 62551.29874878 0 -81.77618369 0 27493.62002944 0 -5905.33206478 0 -9427.26399246 0 315
0.01750000 0.01747870 68865.73429691 0 -1905.43642736 0 30124.38192652 0 -6383.75664119 0 -12845.25362284 0 297
0.01850000 0.01844180 74331.72552787 0 -3038.35913324 0 37954.39441271 0 6248.89131372 0 -4765.97970669 0 388
0.01950000 0.01947590 78414.32987336 0 -1836.54247903 0 31593.98460309 0 10330.58516651 0 -8800.74384267 0 399
0.02050000 0.02045430 78091.49838437 0 1833.20400577 0 37853.22855613 0 8474.18045763 0 10946.93252739 0 462
0.02150000 0.02154770 77127.83739720 0 4902.25011550 0 38147.28397926 0 10192.74106659 0 11155.87374318 0 571
0.02250000 0.02255340 76280.96677113 0 6352.50763216 0 50417.91553673 0 8458.10632709 0 29124.75085701 0 510
0.02350000 0.02348930 68146.55746314 0 5914.48195447 0 47248.50165662 0 11002.69739567 0 19713.29121948 0 555
0.02450000 0.02439640 64940.38665514 0 4705.76354072 0 38029.25714658 0 9042.17053907 0 7538.80094771 0 592
0.02550000 0.02547300 61483.54933584 0 1170.53392322 0 39758.74366805 0 3724.05006848 0 14925.33604061 0 837
0.02650000 0.02652900 61143.29483821 0 -1640.34816117 0 30376.39731591 0 1580.41301148 0 -2259.70801645 0 723
0.02750000 0.02749970 62846.70304999 0 -1078.73265277 0 28784.27154637 0 4859.18718255 0 2480.74417243 0 826
0.02850000 0.02848090 61512.32540171 0 1179.76249747 0 21207.73573416 0 -11.40049278 0 -13194.16342153 0 831
0.02950000 0.02946900 57964.77603101 0 4460.93092715 0 18814.82600655 0 3595.59191193 0 -14947.36771604 0 996
0.03050000 0.03053250 55991.81701471 0 4072.11681836 0 20995.06262233 0 1798.85257713 0 -8790.82958873 0 1041
0.03150000 0.03150510 51349.20344979 0 2741.67339784 0 16402.58235968 0 9775.96021879 0 -10849.86950833 0 1036
0.03250000 0.03246190 52059.94979551 0 877.79253217 0 18840.67950323 0 8251.40200080 0 7642.63083851 0 1059
0.03350000 0.03345080 49429.97474398 0 318.39030789 0 13244.40913030 0 12846.37768791 0 -2793.79629528 0 1302
0.03450000 0.03451200 49589.59198436 0 1290.51662912 0 12615.71953491 0 5679.67600136 0 17803.50466028 0 1339
0.03550000 0.03553350 46791.79401742 0 1539.80054038 0 10758.89892196 0 5013.73488945 0 9431.00712916 0 1365
0.03650000 0.03647120 47423.40618199 0 1791.81592977 0 14284.84376196 0 1319.34889825 0 21131.97374823 0 1308
0.03750000 0.03744890 45529.91856636 0 -199.94082675 0 8060.34466032 0 1206.36911775 0 13714.94276990 0 1579
0.03850000 0.03847530 47103.38485568 0 -721.25523009 0 12736.33171726 0 29.67947697 0 14395.67657817 0 1662
0.03950000 0.03950240 48016.68772757 0 -782.50665999 0 14073.96915424 0 -4061.43820017 0 9854.18390723 0 1683
0.04050000 0.04050350 49741.90280177 0 94.31659087 0 18507.39420905 0 -2991.63174815 0 8362.04372594 0 1822
0.04150000 0.04152450 50746.36735109 0 389.29183644 0 21364.43040535 0 -4042.61011020 0 9707.18991762 0 1887
0.04250000 0.04250150 50516.38363713 0 1651.45392410 0 23551.29900507 0 1152.38027229 0 7179.17880887 0 1920
0.04350000 0.04349210 49991.67006101 0 1487.21677627 0 26664.73444454 0 3185.90391473 0 14799.66556544 0 2005
0.04450000 0.04448520 48058.72776131 0 1900.83900121 0 24949.52354949 0 4731.30229918 0 10038.26080360 0 2151
0.04550000 0.04548030 46378.36288353 0 2067.50412960 0 25578.77517741 0 5304.22702629 0 13063.20984051 0 2274
0.04650000 0.04648670 45774.51512626 0 642.91688701 0 23088.97104050 0 4480.50090007 0 9107.74849544 0 2311
0.04750000 0.04749250 44086.84382551 0 641.55452015 0 21371.84923483 0 3548.39241951 0 5360.82370272 0 2568
0.04850000 0.04851840 43810.32381753 0 -482.85002061 0 18196.36540333 0 -619.31152048 0 2297.64521267 0 2493
0.04950000 0.04949480 42597.23279064 0 548.33580363 0 15017.50937660 0 -471.02598010 0 -6185.53900620 0 2644
0.05050000 0.05050630 42943.22002014 0 844.76188000 0 15546.26958699 0 -2625.32142213 0 -6829.81938415 0 2829
0.05150000 0.05149060 39793.81449833 0 465.93621345 0 11927.67930367 0 276.82013336 0 -13761.14184440 0 2784
0.05250000 0.05249300 40661.70514127 0 240.65333963 0 9394.82347446 0 2265.87913370 0 -8648.34310006 0 3055
0.05350000 0.05348950 40015.81735027 0 -535.60014636 0 8331.54784051 0 4745.03837437 0 -10724.46880877 0 3009
0.05450000 0.05448610 40901.58062787 0 29.17376009 0 8082.89340569 0 3484.05093472 0 -4192.88636982 0 3336
0.05550000 0.05550870 40081.68756355 0 385.68133943 0 5247.82144092 0 4788.97807808 0 -4335.10308287 0 3349
0.05650000 0.05647670 39753.46056221 0 862.45916051 0 6931.46858871 0 76.71508070 0 374.83298741 0 3324
0.05750000 0.05747970 37523.42786369 0 1925.61339542 0 6691.22216064 0 -738.94913840 0 1042.15782342 0 3639
0.05850000 0.05849280 37609.41884178 0 1736.90535095 0 8950.57047626 0 -2174.53760586 0 1032.74040624 0 3846
0.05950000 0.05951020 35168.06190952 0 1394.18915082 0 9587.55567189 0 -1369.34731270 0 135.79717742 0 3787
0.06050000 0.06049470 34688.53574933 0 892.43910007 0 9257.11426235 0 -1996.01359095 0 -4009.34902468 0 3930
0.06150000 0.06148310 33950.81184186 0 663.80426420 0 7875.21114278 0 739.95405258 0 -5189.72975794 0 4083
0.06250000 0.06249100 32647.57079611 0 109.67064533 0 7526.85213598 0 395.00096295 0 -7507.54069802 0 4303
0.06350000 0.06350600 33427.78436334 0 81.30744856 0 6465.91455739 0 372.40500685 0 -8826.36128569 0 4470
0.06450000 0.06451750 32971.75116319 0 -116.60376629 0 7157.50683426 0 644.31185177 0 -6370.16669446 0 4479
0.06550000 0.06550280 32828.20805335 0 52.31005427 0 5353.43859519 0 1636.95348465 0 -4853.89283605 0 4636
0.06650000 0.06648880 34174.61319791 0 51.35594784 0 7028.74518014 0 772.89927581 0 -4188.87345751 0 4653
0.06750000 0.06749660 33002.55054619 0 633.55454902 0 7658.99722597 0 94.19642831 0 -723.35498365 0 5220
0.06850000 0.06852730 33745.66996602 0 1243.20473020 0 11090.74541284 0 -1008.08741105 0 34.69157073 0 5029
0.06950000 0.06949320 31815.53782900 0 1047.97486017 0 9422.63284436 0 421.74921543 0 238.80425258 0 5040
0.07050000 0.07048030 31883.43135941 0 801.42804736 0 10853.37659136 0 165.38032201 0 3004.53601519 0 5475
0.07150000 0.07148790 30940.11595007 0 519.92505891 0 8332.68314623 0 1042.84575124 0 -846.03094946 0 5509
0.07250000 0.07249820 30664.83241367 0 521.20874122 0 10304.06847143 0 864.35321015 0 -98.95088635 0 5916
0.07350000 0.07351270 29869.78118746 0 855.23816648 0 7877.43679163 0 1131.01179525 0 -630.87252976 0 5721
0.07450000 0.07449140 28557.88484065 0 638.61284185 0 7809.40837340 0 657.93214826 0 -349.90909254 0 6028
0.07550000 0.07549160 28668.94246987 0 330.45040206 0 6649.06972040 0 1656.99556491 0 1087.54757107 0 6183
0.07650000 0.07648840 27779.46977753 0 9.48723286 0 7073.14575052 0 2563.94746914 0 381.75498013 0 6330
0.07750000 0.07749960 27782.27994021 0 228.30998106 0 4166.21230563 0 2377.70112717 0 1122.34525354 0 6583
0.07850000 0.07848650 27229.68955027 0 377.51051041 0 5961.02948915 0 804.27418013 0 1115.23891415 0 6549
0.07950000 0.07947320 26823.11521333 0 831.50802872 0 4255.22701877 0 315.95783107 0 3736.07756476 0 6828
0.08050000 0.08048110 26074.37546814 0 1031.71076263 0 4569.20087499 0 -157.66586341 0 2885.99211258 0 7147
0.08150000 0.08149960 25056.87176397 0 891.81749209 0 5550.22866754 0 -680.74055266 0 1971.36284390 0 7386
0.08250000 0.08250610 24296.66655504 0 932.76381050 0 5736.60989731 0 -721.23162472 0 1460.46402753 0 7227
0.08350000 0.08350160 23674.83375660 0 780.22143569 0 5387.36287910 0 -541.68920686 0 -120.46043356 0 7798
0.08450000 0.08449610 23034.79110398 0 709.15017332 0 6020.18903395 0 -910.78159393 0 914.99683796 0 7371
0.08550000 0.08548940 22573.81201750 0 301.21346951 0 6082.23742598 0 -1080.36591932 0 -996.24988177 0 8256
0.08650000 0.08650700 22674.64065456 0 330.18175051 0 7490.03900483 0 -1096.93463849 0 -49.33341755 0 8037
0.08750000 0.08749060 22647.43827979 0 -89.49839834 0 6948.44197131 0 -1430.54141528 0 -1756.07066045 0 8155
0.08850000 0.08849210 22957.23061393 0 386.33554530 0 8410.65954035 0 -1411.96061962 0 -692.33191169 0 8718
0.08950000 0.08949900 22804.91979653 0 148.66659844 0 8377.75815566 0 -284.34912122 0 -2674.51050973 0 8571
0.09050000 0.09049190 22365.97238548 0 469.61303030 0 8907.64243112 0 -609.38602588 0 -626.37626946 0 8932
0.09150000 0.09150830 22334.49856344 0 516.18192222 0 9247.40234012 0 521.85283051 0 -1446.32328891 0 9285
0.09250000 0.09250820 21644.54742157 0 609.90309582 0 8697.04883968 0 1645.48513856 0 -2225.87365775 0 9204
0.09350000 0.09350330 21049.80459139 0 769.57091913 0 8772.10266461 0 1103.99264309 0 -1539.84550299 0 9349
0.09450000 0.09448040 20314.21640755 0 756.73634412 0 7291.61903813 0 927.87187931 0 -2520.15389389 0 9564
0.09550000 0.09549270 19485.66804217 0 852.41788721 0 7259.34712988 0 849.95281250 0 -696.36618124 0 10155
0.09650000 0.09649430 18877.54883763 0 649.19366638 0 6675.82246914 0 1046.66644843 0 -1349.10290073 0 9913
0.09750000 0.09749140 18425.44986523 0 206.26931311 0 6130.87572170 0 1537.24891267 0 194.81059375 0 10476
0.09850000 0.09850240 18001.34011315 0 -25.91059919 0 5549.67787565 0 1644.75449626 0 -136.46037581 0 10575
0.09950000 0.09950330 18110.59923825 0 89.44848985 0 4547.29284672 0 1321.87804466 0 447.43972267 0 10882
0.10050000 0.10051200 17711.10651127 0 60.88498468 0 4299.57138591 0 860.71910777 0 1184.96691876 0 10875
0.10150000 0.10150300 17670.52776213 0 155.08950627 0 4711.85597342 0 -121.38329098 0 1310.60367198 0 11118
0.10250000 0.10250800 17914.89950902 0 -76.48464736 0 4520.18039715 0 -695.88732952 0 1906.30195747 0 11575
0.10350000 0.10349800 17666.25631485 0 148.41593193 0 5611.89487745 0 -514.34407582 0 1278.73642716 0 11364
0.10450000 0.10450100 17711.21891778 0 167.62507996 0 5605.29661547 0 -622.93213408 0 1173.62510217 0 12093
0.10550000 0.10551000 17508.77479811 0 119.55443711 0 5525.61164244 0 309.96881236 0 73.17618663 0 12067
0.10650000 0.10649700 17702.90083624 0 142.68095192 0 6202.88333028 0 -103.61957823 0 512.77038472 0 12054
0.10750000 0.10749900 17202.35465919 0 109.16863787 0 5172.58776558 0 508.88673989 0 -494.01311085 0 12807
0.10850000 0.10850100 17280.36477526 0 139.40879850 0 5911.72799505 0 668.55793540 0 460.54632142 0 12736
0.10950000 0.10950300 16970.90966064 0 95.26698789 0 4834.62636070 0 213.00583509 0 -421.39625899 0 12933
0.11050000 0.11050200 17222.92505002 0 250.29669389 0 5833.60547247 0 487.15968610 0 510.58969848 0 13428
0.11150000 0.11150900 16710.12656368 0 402.32199877 0 5072.63589928 0 -533.93765411 0 321.51296066 0 13453
0.11250000 0.11250000 16566.35864083 0 506.68694455 0 5477.92880204 0 -39.59564183 0 288.92069387 0 13668
0.11350000 0.11349100 15921.14528887 0 565.93529048 0 5296.79695616 0 -302.19815051 0 650.63471781 0 13791
0.11450000 0.11448600 15868.42663694 0 466.48026095 0 5895.72130840 0 -186.48801595 0 566.15785537 0 14205
0.11550000 0.11549300 15517.15630160 0 327.34123807 0 5432.30300072 0 -103.11565985 0 428.13053285 0 14776
0.11650000 0.11649800 15168.13409640 0 388.60166049 0 5495.55414238 0 -34.30264421 0 -60.89723699 0 14553
0.11750000 0.11747300 14972.54677368 0 295.71004691 0 4937.44459294 0 194.66558936 0 -728.84379340 0 14568
0.11850000 0.11849100 14619.59034073 0 239.90696042 0 5493.35097484 0 37.49734955 0 -258.35624047 0 16015
0.11950000 0.11950300 14421.08044882 0 257.65257573 0 4130.19726069 0 299.92304280 0 -1356.29691720 0 15270
0.12050000 0.12050700 14271.69220060 0 116.27891149 0 4969.88511095 0 522.83975965 0 -46.29259672 0 15999
0.12150000 0.12150000 14010.34707111 0 182.67181503 0 3890.27681149 0 616.34848495 0 -868.26720474 0 15670
0.12250000 0.12250700 14103.53206567 0 202.38454422 0 4551.15963057 0 640.40010532 0 599.61452820 0 16887
0.12350000 0.12352200 13803.85631718 0 16.53780739 0 4034.53932297 0 456.19056927 0 176.80419535 0 16407
0.12450000 0.12449800 13845.89635091 0 121.14049293 0 4675.81844717 0 351.20289144 0 1398.53928265 0 16306
0.12550000 0.12549900 13822.51579739 0 -105.53172532 0 4475.06042512 0 507.93465678 0 1134.31654657 0 17523
0.12650000 0.12650100 14093.86510604 0 -116.72179313 0 4292.86071742 0 432.96963299 0 2648.45468133 0 17154
0.12750000 0.12750600 14112.97421228 0 -109.17673114 0 4383.58400947 0 304.51709676 0 1996.11475681 0 18007
0.12850000 0.12850300 14251.23421627 0 54.71184412 0 3695.35268716 0 230.94816179 0 1900.07463696 0 17496
0.12950000 0.12949900 14074.98081281 0 185.28301819 0 3592.24219801 0 341.04808757 0 1298.43004724 0 18405
0.13050000 0.13049000 13611.41637666 0 353.43640874 0 3185.01590332 0 461.98737285 0 1238.68598860 0 18100
0.13150000 0.13148800 13263.06861051 0 261.48451356 0 2696.99181119 0 552.23293724 0 889.10961932 0 19059
0.13250000 0.13249300 13077.59787345 0 31.18280160 0 1996.65430804 0 568.15644307 0 367.75924590 0 18957
0.13350000 0.13349100 12829.96633785 0 120.79428089 0 1969.92404061 0 514.22267680 0 529.65384212 0 19468
0.13450000 0.13450700 12713.96282230 0 143.80501700 0 1404.33945843 0 346.61670594 0 -102.11119531 0 19953
0.13550000 0.13551000 12668.21337383 0 133.39954662 0 1999.61059919 0 -211.56927993 0 352.70351831 0 19956
0.13650000 0.13649900 12680.12846360 0 221.93203584 0 1903.40186958 0 -678.77343878 0 388.96473350 0 19723
0.13750000 0.13749600 12463.97075004 0 238.64013908 0 2581.48288428 0 -814.37952513 0 -20.27824633 0 20946
0.13850000 0.13851100 12401.13551246 0 216.61633211 0 2746.84409718 0 -700.60053437 0 -37.96181324 0 20955
0.13950000 0.13949800 12304.46591617 0 252.60552355 0 3322.64643088 0 -589.74074060 0 -493.67139506 0 20506
0.14050000 0.14048300 12066.38893369 0 380.79278042 0 3447.45137594 0 -542.90319714 0 -351.94140219 0 21447
0.14150000 0.14148400 11695.33505306 0 356.75689697 0 3755.13046775 0 -104.78219873 0 -601.13651231 0 21771
0.14250000 0.14249400 11507.72859236 0 334.63754446 0 3528.23793274 0 -213.71961641 0 -939.64196469 0 22470
0.14350000 0.14350900 11325.74245702 0 197.51734245 0 3699.90515071 0 154.39595812 0 -833.69208716 0 22519
0.14450000 0.14449900 11116.73379733 0 147.82242557 0 3580.66432775 0 236.43697154 0 -674.67509752 0 22218
0.14550000 0.14550500 11091.84699661 0 60.12826408 0 3569.74965589 0 380.22400350 0 -281.58167301 0 23559
0.14650000 0.14650700 10929.55448136 0 97.50387738 0 3624.01951762 0 154.65224495 0 -430.48657324 0 23044
0.14750000 0.14750500 10981.32891863 0 94.19609109 0 3780.91652053 0 239.24713422 0 26.38439262 0 23649
0.14850000 0.14849900 10821.74540020 0 98.99753505 0 3519.79620405 0 276.17267187 0 112.31242306 0 23640
0.14950000 0.14949500 10768.03757101 0 163.97748880 0 3602.59483733 0 196.63719950 0 212.75854078 0 24457
0.15050000 0.15050000 10565.43608223 0 86.38721103 0 3356.46954892 0 433.55414682 0 137.69459926 0 24591
0.15150000 0.15149900 10532.65834470 0 92.96760037 0 3164.08581166 0 463.80161388 0 348.18702485 0 25020
0.15250000 0.15250500 10520.70953297 0 55.21328955 0 2787.86123170 0 378.20405856 0 139.36158776 0 25297
0.15350000 0.15350100 10389.78967391 0 110.95354080 0 2605.57159879 0 327.50422750 0 303.50206600 0 25452
0.15450000 0.15450400 10271.31321520 0 104.84211140 0 2192.62381289 0 393.16311655 0 327.07933091 0 26061
0.15550000 0.15549900 10264.17540199 0 159.79933892 0 2302.52365509 0 121.93857913 0 271.34144019 0 26128
0.15650000 0.15649500 10045.25248835 0 250.71034984 0 1881.29150959 0 10.55975955 0 525.68252022 0 26331
0.15750000 0.15749700 9936.90385596 0 153.77097793 0 2022.02445674 0 283.42851192 0 523.69854536 0 27345
0.15850000 0.15849900 9819.13555825 0 131.16153305 0 1877.17743142 0 32.39398172 0 697.48687412 0 26980
0.15950000 0.15949700 9743.89064226 0 -35.03632148 0 1984.78418087 0 334.90619601 0 547.90416265 0 27777
0.16050000 0.16050000 9791.52852005 0 -64.45344167 0 1817.29848498 0 269.00338484 0 404.90734844 0 28224
0.16150000 0.16150500 9805.55685217 0 -68.93340301 0 1639.12293024 0 21.32104149 0 105.63884872 0 28075
0.16250000 0.16249700 9929.21525086 0 36.13678119 0 1520.91624716 0 -352.83728206 0 -269.57890616 0 28590
0.16350000 0.16349900 9807.16426522 0 158.40437417 0 2049.76638275 0 -539.10722938 0 -4.57710305 0 29163
0.16450000 0.16449100 9810.54770109 0 136.02199043 0 1974.24045049 0 -381.54815215 0 -311.02655760 0 28996
0.16550000 0.16550500 9636.63235298 0 143.05189340 0 2142.22073501 0 -13.80565482 0 -128.32776501 0 30777
0.16650000 0.16650700 9705.04295333 0 111.41081047 0 2194.44479831 0 116.75888727 0 -263.37406695 0 29211
0.16750000 0.16749900 9484.18664777 0 194.42391537 0 1980.99608158 0 416.31323673 0 -111.14137207 0 30922
0.16850000 0.16850800 9471.69828480 0 207.36864875 0 2009.40120597 0 160.97286286 0 89.63991813 0 30867
0.16950000 0.16949900 9078.61272874 0 255.61127356 0 1946.39735863 0 224.16105688 0 304.87230132 0 30852
0.17050000 0.17049200 8951.45848767 0 260.07943222 0 2117.91844813 0 -11.69297452 0 398.34393247 0 31257
0.17150000 0.17149500 8758.08557315 0 184.27023556 0 2106.66655675 0 122.85806436 0 818.08107142 0 32608
0.17250000 0.17250900 8656.45884989 0 181.25774117 0 2316.06863922 0 65.47139500 0 960.94412189 0 32361
0.17350000 0.17350400 8573.14314667 0 119.40381239 0 2411.32191351 0 26.75600853 0 788.91945123 0 32508
0.17450000 0.17449800 8548.41371506 0 90.41102677 0 2409.09626467 0 61.94340436 0 1059.90793499 0 32791
0.17550000 0.17549800 8474.25914219 0 32.25156267 0 2272.24134202 0 179.51993656 0 853.52733944 0 33633
0.17650000 0.17650100 8424.02467407 0 83.09504924 0 2081.29640805 0 206.34350140 0 880.48017176 0 33984
0.17750000 0.17750300 8321.65606787 0 26.43239019 0 1966.36075432 0 179.08604745 0 302.14531945 0 34069
0.17850000 0.17849800 8255.51607896 0 96.56595749 0 1681.76995912 0 165.60176283 0 397.18502138 0 34536
