### header ###
fiducial parameters:
Omega_m = 0.31
Omega_nu = 0
Omega_de = 0.69
Omega_k = 0
H_0 = 100
w_de = -1
zeff = 0
beta = 0
fgrowth = 0
b_1 = 2
gamma = 0.55
Lx = 3500 Ly = 3500 Lz = 3500
nx = 700 ny = 700 nz = 700
xoffset = 857.220397 yoffset = 15.9954215 zoffset = 262.898189
bins = 400 dk = 0.001
kx_ny = 0.628318531 ky_ny = 0.628318531 kz_ny = 0.628318531
############################
A(data) = 3.05629018 (not used)
A(ran) = 3.05194035 (used)
Ngal = 186881
weighted Ngal = 0
Nran = 9360983
weighted Nran = 0
SN(data) = 3460.0707
SN(ran) = 68.5351105
SN(data+ran) = 3528.60581
############################
13 columns: k_central k_mean P_0(k) sigma^{lin}_{P_0(k)} P^img_1(k) sigma^{lin}_{P_1(k)} P_2(k) sigma^{lin}_{P_2(k)} P^img_3(k) sigma^{lin}_{P_3(k)} P_4(k) sigma^{lin}_{P_4(k)} N_modes
### header ###
0.00050000 0 0 0 0 0 0 0 0 0 0 0 0
0.00150000 0.00179520 3000.19712401 0 858.84866349 0 12144.73626928 0 -20288.13809786 0 -21319.13058291 0 3
0.00250000 0.00253879 9125.28391058 0 -625.12068878 0 10017.39815584 0 3334.88749952 0 5891.05643835 0 6
0.00350000 0.00331552 15912.04036178 0 -3529.54184823 0 30582.77566333 0 -17939.62894063 0 18431.51981662 0 7
0.00450000 0.00420575 26632.13655742 0 -4695.63571441 0 38842.74303998 0 -4768.40768724 0 3327.89581477 0 24
0.00550000 0.00557378 53622.28784061 0 -14240.55559808 0 74571.93823399 0 16875.47653593 0 6075.84149572 0 45
0.00650000 0.00659388 68638.44833913 0 -12043.57041271 0 69744.07874503 0 10492.48425899 0 -21371.17479579 0 40
0.00750000 0.00754703 95174.36492629 0 -8335.51579022 0 112878.61464061 0 13901.64997854 0 -12177.67137593 0 57
0.00850000 0.00846663 103073.95704051 0 -2050.03615837 0 79103.49416968 0 37594.01915028 0 -30594.91556612 0 75
0.00950000 0.00948925 109160.09497229 0 8818.67268059 0 85126.57205087 0 35798.43760251 0 -8964.04801649 0 112
0.01050000 0.01054430 100092.71165363 0 2532.21511212 0 81923.43621857 0 10830.05224109 0 -35624.65714221 0 105
0.01150000 0.01145670 106419.06229154 0 -910.66019491 0 50210.41312424 0 25284.38253477 0 -45123.34422942 0 144
0.01250000 0.01249090 99722.21980554 0 -5352.93276591 0 36962.96901824 0 11222.22730444 0 -55720.35529955 0 169
0.01350000 0.01339930 102076.23688162 0 -2121.96508239 0 6149.58016451 0 -16612.55771533 0 -55435.17999051 0 180
0.01450000 0.01448870 104620.55817458 0 697.73529250 0 15904.73393880 0 -15573.02233573 0 -57364.75009499 0 267
0.01550000 0.01550050 108096.84181965 0 10035.27079050 0 10376.81796297 0 -18768.28971252 0 -79543.00361326 0 238
0.01650000 0.01653350 93840.77412356 0 8225.52602281 0 17843.85859640 0 -18698.26045847 0 -41251.61449164 0 315
0.01750000 0.01747870 94856.92894964 0 10097.20677603 0 32945.78526000 0 -5121.95987469 0 -42106.46597973 0 297
0.01850000 0.01844180 84423.91897367 0 11203.54534293 0 35404.00316836 0 7297.48665781 0 -26577.61940137 0 388
0.01950000 0.01947590 76048.51011401 0 7557.26933686 0 36061.46882961 0 20615.91547317 0 -26109.33389192 0 399
0.02050000 0.02045430 69737.22194808 0 5967.33549421 0 36706.68218157 0 14916.68073955 0 -3398.25104769 0 462
0.02150000 0.02154770 65465.99948332 0 3184.25153908 0 30578.61662256 0 19598.52417551 0 -132.01357438 0 571
0.02250000 0.02255340 64021.57586439 0 1416.33323276 0 31890.06334334 0 10441.62031443 0 -9481.01678426 0 510
0.02350000 0.02348930 62042.88411621 0 496.86149174 0 18843.26485290 0 652.75358047 0 -5433.70808206 0 555
0.02450000 0.02439640 64582.59674237 0 -1048.74484475 0 29076.64087188 0 2488.10679865 0 -3461.50218936 0 592
0.02550000 0.02547300 62907.51497044 0 -325.35951134 0 22084.95611721 0 1493.98364801 0 4366.99280899 0 837
0.02650000 0.02652900 67217.06805420 0 -1107.86279914 0 25864.06289297 0 6412.45402251 0 1020.77810573 0 723
0.02750000 0.02749970 65062.23530906 0 -1269.51909356 0 27606.47616278 0 5567.74160138 0 3949.52628149 0 826
0.02850000 0.02848090 68844.48946703 0 1025.12374130 0 28010.57755656 0 8556.64187140 0 5227.44214115 0 831
0.02950000 0.02946900 64547.41350559 0 1610.65036194 0 21703.44843140 0 6160.58476158 0 14396.46342372 0 996
0.03050000 0.03053250 62920.44171878 0 2494.23295330 0 23503.52623946 0 1985.03147519 0 12032.10494896 0 1041
0.03150000 0.03150510 59266.55579217 0 3454.92640868 0 22556.61382188 0 -535.62150359 0 6660.18672397 0 1036
0.03250000 0.03246190 56420.98505961 0 2139.37685038 0 18177.36870359 0 519.53051207 0 4086.07770657 0 1059
0.03350000 0.03345080 54822.90174519 0 1500.78424170 0 16902.22928467 0 318.59825993 0 -145.05947362 0 1302
0.03450000 0.03451200 52197.53536046 0 2445.84195191 0 12416.98482999 0 -1194.48774993 0 -5157.28923993 0 1339
0.03550000 0.03553350 50274.37242689 0 3486.41147137 0 11493.67777895 0 647.35244779 0 -4919.94289975 0 1365
0.03650000 0.03647120 47588.64374774 0 2984.23539997 0 12351.33942972 0 2555.62938760 0 -371.89580537 0 1308
0.03750000 0.03744890 46233.24608260 0 3077.31922867 0 20744.05889151 0 -491.27826052 0 3909.91422832 0 1579
0.03850000 0.03847530 45280.60093314 0 1256.80591758 0 19161.60008160 0 1129.28073504 0 4562.54640976 0 1662
0.03950000 0.03950240 45945.03579785 0 838.27152826 0 28662.76011197 0 -764.37211816 0 11152.93993334 0 1683
0.04050000 0.04050350 45187.75315811 0 464.49628609 0 24865.44348203 0 -1955.62593288 0 6922.56599333 0 1822
0.04150000 0.04152450 45597.58728376 0 1236.50530236 0 30368.30404738 0 3481.46558505 0 12163.62056251 0 1887
0.04250000 0.04250150 44691.92805436 0 989.61002938 0 29117.33202753 0 -1499.53652947 0 5373.98650473 0 1920
0.04350000 0.04349210 42299.69276579 0 1573.46628932 0 27486.31360646 0 4355.96573062 0 4344.71383924 0 2005
0.04450000 0.04448520 42426.03768001 0 1359.00591403 0 26351.68232168 0 1710.88324451 0 2301.25346155 0 2151
0.04550000 0.04548030 38664.35391288 0 1814.13986213 0 22980.94838697 0 3534.99356383 0 -156.02360434 0 2274
0.04650000 0.04648670 37528.71096953 0 1789.30926466 0 20279.59520330 0 2680.81651479 0 -2299.20766312 0 2311
0.04750000 0.04749250 36530.54118462 0 807.12705728 0 19572.89549185 0 3521.12260083 0 234.52943311 0 2568
0.04850000 0.04851840 36336.97717903 0 -26.97486400 0 18028.09286189 0 3197.93141101 0 395.92494444 0 2493
0.04950000 0.04949480 35430.64351059 0 -591.87309205 0 15475.90311341 0 4054.16549915 0 1028.74435490 0 2644
0.05050000 0.05050630 36235.81132245 0 -205.14412397 0 13805.99204082 0 4020.42106565 0 457.65635012 0 2829
0.05150000 0.05149060 36416.11136018 0 -665.01263416 0 12681.25252867 0 2280.14351948 0 2875.76312041 0 2784
0.05250000 0.05249300 36007.62611261 0 637.27970067 0 11675.66391428 0 2315.47288473 0 535.59115384 0 3055
0.05350000 0.05348950 36058.20904090 0 314.21328208 0 8612.05827950 0 505.24476906 0 223.67208857 0 3009
0.05450000 0.05448610 35218.08280527 0 654.63189321 0 9529.87989299 0 1552.42379116 0 1790.52325494 0 3336
0.05550000 0.05550870 36067.31396799 0 -194.85106010 0 8853.32760679 0 907.68367059 0 998.87007745 0 3349
0.05650000 0.05647670 35896.79329641 0 -90.60267987 0 8282.98822935 0 18.52279390 0 -365.18850908 0 3324
0.05750000 0.05747970 35631.85115868 0 42.97536828 0 7699.38488405 0 740.61275471 0 -1258.41333064 0 3639
0.05850000 0.05849280 35628.92858949 0 597.53388375 0 9264.08346580 0 -1104.55467563 0 1498.44618635 0 3846
0.05950000 0.05951020 35159.51901496 0 1062.14707261 0 8515.34372061 0 1318.43840554 0 4258.16082861 0 3787
0.06050000 0.06049470 34632.33249568 0 1308.64779875 0 11718.49079357 0 -275.32512681 0 7586.65239787 0 3930
0.06150000 0.06148310 33244.67416294 0 1245.04819692 0 11572.24992756 0 1475.04315152 0 6591.78736427 0 4083
0.06250000 0.06249100 32747.16296158 0 1138.25077432 0 13719.88865622 0 1068.23838124 0 10156.51244929 0 4303
0.06350000 0.06350600 32095.20521918 0 957.56068602 0 15877.64397054 0 -433.89136635 0 12674.39573173 0 4470
0.06450000 0.06451750 32283.26130591 0 169.81251059 0 15458.70491780 0 -500.32698436 0 11529.53545478 0 4479
0.06550000 0.06550280 32039.00196553 0 23.74902205 0 18434.89201184 0 -349.08964910 0 12287.49253357 0 4636
0.06650000 0.06648880 32500.20586502 0 -362.83022056 0 14280.68472119 0 -104.48555796 0 9878.49743476 0 4653
0.06750000 0.06749660 33016.60135960 0 -424.10300769 0 15093.15895602 0 3047.43033838 0 8473.39361208 0 5220
0.06850000 0.06852730 32642.06287725 0 229.18337962 0 12026.03499757 0 3253.19045001 0 6187.77589570 0 5029
0.06950000 0.06949320 31440.43731410 0 228.66743376 0 10086.83165541 0 3399.74605424 0 2861.34136553 0 5040
0.07050000 0.07048030 30890.99430637 0 842.14393244 0 8082.94960894 0 1492.90454554 0 2289.93412627 0 5475
0.07150000 0.07148790 29959.93120633 0 969.23522587 0 5944.48325128 0 925.53832021 0 -666.09510882 0 5509
0.07250000 0.07249820 28700.41629192 0 1235.59480965 0 6497.43334203 0 -1982.99691741 0 550.99309347 0 5916
0.07350000 0.07351270 27879.73638205 0 776.38162940 0 7130.32694079 0 -1202.44613065 0 -243.11504214 0 5721
0.07450000 0.07449140 27873.21680462 0 239.15608495 0 6912.37072312 0 -48.55421565 0 -2115.18697000 0 6028
0.07550000 0.07549160 27669.64861989 0 -342.12381784 0 7031.38673306 0 1620.95803866 0 321.85580051 0 6183
0.07650000 0.07648840 27992.81732840 0 -75.08080249 0 5846.75703382 0 1241.81088951 0 -922.11666613 0 6330
0.07750000 0.07749960 27510.59341204 0 565.68012771 0 5828.47973573 0 2094.05454663 0 -463.25194606 0 6583
0.07850000 0.07848650 27072.09562703 0 1450.42612642 0 6118.49976524 0 1105.80126379 0 1283.88464519 0 6549
0.07950000 0.07947320 25576.41464076 0 1801.23559509 0 5488.64114218 0 -203.80086621 0 3019.00273268 0 6828
0.08050000 0.08048110 24010.25477441 0 1420.58219873 0 6282.32100900 0 -428.12603659 0 2650.12953829 0 7147
0.08150000 0.08149960 23138.31749721 0 729.62501862 0 6394.61510980 0 68.83212475 0 3925.87595235 0 7386
0.08250000 0.08250610 22817.73413836 0 247.97999578 0 7474.35829707 0 70.67098280 0 1558.14528238 0 7227
0.08350000 0.08350160 22891.69762017 0 266.95758641 0 7366.99884193 0 -819.46479553 0 2359.59243885 0 7798
0.08450000 0.08449610 22067.87032810 0 324.35234904 0 8094.61740440 0 -221.50151891 0 2774.55230123 0 7371
0.08550000 0.08548940 22477.14242121 0 316.79863175 0 7111.97095815 0 2.35874939 0 1993.85538601 0 8256
0.08650000 0.08650700 22072.36658839 0 173.96930323 0 8150.29234747 0 871.62253898 0 3002.99604604 0 8037
0.08750000 0.08749060 22188.59491695 0 258.27980404 0 7314.31391196 0 1166.95939629 0 2306.41292024 0 8155
0.08850000 0.08849210 21698.27773206 0 198.00518669 0 7676.27410615 0 1174.26581926 0 2530.38288605 0 8718
0.08950000 0.08949900 21460.08834307 0 621.06393793 0 7272.86963271 0 -516.67426272 0 2486.48814495 0 8571
0.09050000 0.09049190 21001.58219975 0 628.92452498 0 7538.49745014 0 -769.69793848 0 1683.91692341 0 8932
0.09150000 0.09150830 20736.19043600 0 485.07791758 0 8682.06505225 0 -1342.24610379 0 984.12009556 0 9285
0.09250000 0.09250820 20327.70518843 0 250.84748578 0 8271.59020951 0 -768.24564640 0 1290.55035108 0 9204
0.09350000 0.09350330 20349.06242482 0 189.38248352 0 10075.48983882 0 -84.22743240 0 742.28423948 0 9349
0.09450000 0.09448040 19964.40735681 0 425.55754789 0 9154.45339922 0 -195.03653083 0 -206.50873897 0 9564
0.09550000 0.09549270 19852.56288203 0 370.29850890 0 9928.94547524 0 1648.48639230 0 1187.85576600 0 10155
0.09650000 0.09649430 19457.90363487 0 472.07136062 0 8878.12448230 0 1289.74102422 0 2030.92705212 0 9913
0.09750000 0.09749140 18814.37638052 0 491.78184168 0 8305.67186253 0 2492.73794676 0 3868.34630191 0 10476
0.09850000 0.09850240 18338.33482206 0 409.16980319 0 6476.15479020 0 2801.05775566 0 4042.82368256 0 10575
0.09950000 0.09950330 17808.33814009 0 193.56400559 0 6038.45509139 0 2162.17289006 0 4884.52360930 0 10882
0.10050000 0.10051200 17588.69582481 0 386.85935962 0 4521.21453702 0 1310.72731914 0 3828.26214141 0 10875
0.10150000 0.10150300 16865.24754376 0 464.25011584 0 4406.23392069 0 49.04531968 0 4129.34297124 0 11118
0.10250000 0.10250800 16604.46444681 0 512.42304861 0 3844.11145894 0 -241.69984421 0 4071.15012240 0 11575
0.10350000 0.10349800 16080.42530973 0 318.50271440 0 4985.43093091 0 -895.03793852 0 3143.22316391 0 11364
0.10450000 0.10450100 16203.51043523 0 288.11024295 0 4542.57177341 0 -196.24265266 0 2918.36518668 0 12093
0.10550000 0.10551000 15654.51705353 0 226.18662214 0 5311.46600536 0 -392.76519752 0 2172.58173264 0 12067
0.10650000 0.10649700 15658.11406176 0 402.58615406 0 5058.43895741 0 -488.47259410 0 2961.03469686 0 12054
0.10750000 0.10749900 15390.58657437 0 263.87877217 0 5126.41117238 0 194.88365798 0 1820.28849808 0 12807
0.10850000 0.10850100 15272.33492868 0 147.46609694 0 5633.31955774 0 -117.78403462 0 2316.27097093 0 12736
0.10950000 0.10950300 15018.63344168 0 -23.90481747 0 5060.33862738 0 121.22929407 0 1611.79690832 0 12933
0.11050000 0.11050200 15250.97769229 0 -36.25166064 0 5056.28075247 0 408.38183358 0 1861.38431715 0 13428
0.11150000 0.11150900 15165.66115324 0 147.15135872 0 4939.16441250 0 80.87738126 0 1464.10599836 0 13453
0.11250000 0.11250000 15045.16137740 0 167.70151639 0 4369.22969849 0 439.51956017 0 932.56597505 0 13668
0.11350000 0.11349100 14847.55073755 0 180.94525108 0 4896.48366167 0 -10.82172292 0 722.32646410 0 13791
0.11450000 0.11448600 14873.74145375 0 208.33646878 0 4419.50912921 0 -70.89231122 0 494.91348697 0 14205
0.11550000 0.11549300 14814.50322440 0 80.56983706 0 4727.05333321 0 -39.57923048 0 711.89401616 0 14776
0.11650000 0.11649800 14734.58219771 0 106.58834649 0 4833.33368587 0 -108.30884049 0 828.55061351 0 14553
0.11750000 0.11747300 14661.63037446 0 -110.34429753 0 4677.96541146 0 346.23339975 0 391.56357195 0 14568
0.11850000 0.11849100 14777.07185747 0 80.39234718 0 4499.83481933 0 293.49001839 0 457.07633254 0 16015
0.11950000 0.11950300 14545.62685892 0 245.66442173 0 4391.40750238 0 532.36508708 0 0.84015771 0 15270
0.12050000 0.12050700 14197.39149927 0 392.53026792 0 4111.22304226 0 247.63378373 0 248.37903888 0 15999
0.12150000 0.12150000 13960.32617535 0 328.16405370 0 4222.62913165 0 170.58249517 0 47.27356831 0 15670
0.12250000 0.12250700 13532.16978901 0 133.76149557 0 4241.13124276 0 196.47870632 0 729.78463586 0 16887
0.12350000 0.12352200 13695.04681810 0 93.99949211 0 3719.23906997 0 234.06631830 0 815.64971867 0 16407
0.12450000 0.12449800 13463.26460003 0 138.11612366 0 3956.39431909 0 403.22349896 0 731.48197412 0 16306
0.12550000 0.12549900 13316.23688847 0 198.62005029 0 4067.04728488 0 -399.62311853 0 577.76495131 0 17523
0.12650000 0.12650100 13476.52856789 0 197.76351270 0 4591.68217645 0 -42.53484718 0 842.16304155 0 17154
0.12750000 0.12750600 13092.77275194 0 181.95353745 0 4455.52417415 0 -249.62787517 0 1128.98847812 0 18007
0.12850000 0.12850300 13046.34886442 0 155.76169718 0 4468.03501841 0 105.99540217 0 1146.87235343 0 17496
0.12950000 0.12949900 12988.79673267 0 -11.24424774 0 4681.25892213 0 205.69716399 0 675.09437380 0 18405
0.13050000 0.13049000 13114.01758182 0 199.52267454 0 4165.62779180 0 380.66800920 0 185.60337674 0 18100
0.13150000 0.13148800 12726.43994461 0 285.67102174 0 4200.03542368 0 212.58543475 0 717.65484966 0 19059
0.13250000 0.13249300 12372.47185309 0 412.12609434 0 4011.59715483 0 -117.21300956 0 123.95515187 0 18957
0.13350000 0.13349100 12213.19183224 0 243.06558328 0 3935.43050548 0 133.75475118 0 -171.00739177 0 19468
0.13450000 0.13450700 11913.06645772 0 87.57366172 0 3718.01383904 0 285.72947313 0 -137.73281747 0 19953
0.13550000 0.13551000 12050.08999013 0 -85.49571502 0 3298.11933098 0 358.00685733 0 -337.07564160 0 19956
0.13650000 0.13649900 12117.30908150 0 -298.83719594 0 2721.22665416 0 586.24602229 0 -452.89031421 0 19723
0.13750000 0.13749600 12364.94061710 0 -117.68399283 0 2985.05596747 0 472.32539933 0 -1093.81873011 0 20946
0.13850000 0.13851100 12281.75980170 0 76.16395160 0 2234.37158970 0 41.12425792 0 -762.79505487 0 20955
0.13950000 0.13949800 12169.91532692 0 320.12361623 0 2447.58425277 0 195.75818061 0 -762.51066640 0 20506
0.14050000 0.14048300 11972.75431310 0 307.53745961 0 2477.73167803 0 -337.60957251 0 112.37638237 0 21447
0.14150000 0.14148400 11657.56646660 0 266.79010071 0 2566.22932123 0 28.81226077 0 -286.42414534 0 21771
0.14250000 0.14249400 11510.76356806 0 171.37945730 0 2789.10894393 0 319.79763736 0 356.10943548 0 22470
0.14350000 0.14350900 11438.82340338 0 177.00877519 0 2564.98160900 0 151.64649495 0 218.06412792 0 22519
0.14450000 0.14449900 11311.24201758 0 83.80152414 0 2495.52562814 0 270.48153041 0 326.99277789 0 22218
0.14550000 0.14550500 11281.00466712 0 149.67263668 0 2634.08912970 0 36.42161928 0 623.80216045 0 23559
0.14650000 0.14650700 11084.76538665 0 181.33192946 0 2473.44899010 0 -113.83519402 0 16.62582168 0 23044
0.14750000 0.14750500 10941.03118576 0 240.99730354 0 3014.22545612 0 -87.31580119 0 618.63595737 0 23649
0.14850000 0.14849900 10763.44014486 0 224.23524517 0 2429.83526526 0 155.93705133 0 202.36093885 0 23640
0.14950000 0.14949500 10645.40207153 0 218.95438746 0 3040.75339184 0 136.89314086 0 741.13544497 0 24457
0.15050000 0.15050000 10313.07223267 0 179.41989477 0 2349.68942555 0 508.89798054 0 585.38836064 0 24591
0.15150000 0.15149900 10351.41409231 0 147.39528084 0 2775.41783134 0 244.42232982 0 542.22088964 0 25020
0.15250000 0.15250500 10160.17690143 0 87.94954908 0 2541.10646685 0 313.45791035 0 548.48980055 0 25297
0.15350000 0.15350100 10154.81511103 0 131.88318283 0 2726.82449823 0 -119.32962410 0 548.17056607 0 25452
0.15450000 0.15450400 10099.58979399 0 61.59550622 0 2539.00446516 0 -129.17868227 0 724.95565231 0 26061
0.15550000 0.15549900 10017.94894773 0 102.67367747 0 2812.09607467 0 -219.18482080 0 710.98464752 0 26128
0.15650000 0.15649500 9977.66245551 0 182.19970770 0 2839.32093074 0 -147.83928654 0 739.01321011 0 26331
0.15750000 0.15749700 9709.87643314 0 212.50675020 0 2903.22403015 0 148.55756413 0 497.88214283 0 27345
0.15850000 0.15849900 9670.07328890 0 233.84937374 0 2945.24158258 0 136.04671986 0 1040.88200956 0 26980
0.15950000 0.15949700 9327.19971966 0 158.90570719 0 2820.45911882 0 309.74287528 0 576.80050348 0 27777
0.16050000 0.16050000 9338.46285169 0 147.98991126 0 2952.44683970 0 344.54730214 0 994.92123685 0 28224
0.16150000 0.16150500 9200.93349000 0 9.54662846 0 2563.65521222 0 291.34867443 0 1031.91084621 0 28075
0.16250000 0.16249700 9229.42853960 0 70.45943376 0 2441.57050463 0 282.51239889 0 1054.68777679 0 28590
0.16350000 0.16349900 9152.44132274 0 1.00406326 0 2246.10682907 0 308.46144110 0 1417.22124416 0 29163
0.16450000 0.16449100 9093.56279421 0 68.18398883 0 2135.11664375 0 284.20186869 0 1145.05136801 0 28996
0.16550000 0.16550500 9000.96231349 0 116.60938662 0 2099.97836956 0 196.23028794 0 1342.59456396 0 30777
0.16650000 0.16650700 8950.12085024 0 101.86907169 0 2100.11325737 0 -2.39640557 0 1220.85831654 0 29211
0.16750000 0.16749900 8864.51205427 0 98.22833732 0 2130.26068263 0 -39.93376060 0 1230.13185340 0 30922
0.16850000 0.16850800 8820.43746275 0 28.70828475 0 2158.04757124 0 -163.17827853 0 1029.44127525 0 30867
0.16950000 0.16949900 8799.19263287 0 104.48994181 0 2236.49607269 0 -328.57321339 0 1016.82252074 0 30852
0.17050000 0.17049200 8764.57142862 0 166.23910773 0 2446.77492592 0 -403.86758824 0 534.02420712 0 31257
0.17150000 0.17149500 8647.78106752 0 294.69838834 0 2759.99565854 0 -487.32155147 0 500.11903232 0 32608
0.17250000 0.17250900 8484.92651973 0 275.36109689 0 2759.68092031 0 -264.16428470 0 616.51709471 0 32361
0.17350000 0.17350400 8263.05855561 0 271.88099143 0 3173.05585095 0 -84.19011344 0 796.65301893 0 32508
0.17450000 0.17449800 8151.03423042 0 184.20728792 0 2940.52050928 0 200.41181001 0 586.05268310 0 32791
0.17550000 0.17549800 7974.67966110 0 132.78917928 0 3169.33519556 0 490.06651837 0 660.49164443 0 33633
0.17650000 0.17650100 7970.67798944 0 86.68688678 0 2998.52226705 0 310.44991221 0 788.59684455 0 33984
0.17750000 0.17750300 7766.78382583 0 33.50725576 0 2636.33725984 0 237.14850473 0 622.61402366 0 34069
0.17850000 0.17849800 7749.47322371 0 -16.93628846 0 2559.33880234 0 114.13869159 0 562.13932273 0 34536
