### header ###
fiducial parameters:
Omega_m = 0.31
Omega_nu = 0
Omega_de = 0.69
Omega_k = 0
H_0 = 100
w_de = -1
zeff = 0
beta = 0
fgrowth = 0
b_1 = 2
gamma = 0.55
Lx = 3500 Ly = 3500 Lz = 3500
nx = 700 ny = 700 nz = 700
xoffset = 857.220397 yoffset = 15.9954215 zoffset = 262.898189
bins = 400 dk = 0.001
kx_ny = 0.628318531 ky_ny = 0.628318531 kz_ny = 0.628318531
############################
A(data) = 3.0712978 (not used)
A(ran) = 3.07065816 (used)
Ngal = 186896
weighted Ngal = 0
Nran = 9360983
weighted Nran = 0
SN(data) = 3447.78099
SN(ran) = 68.9554422
SN(data+ran) = 3516.73643
############################
13 columns: k_central k_mean P_0(k) sigma^{lin}_{P_0(k)} P^img_1(k) sigma^{lin}_{P_1(k)} P_2(k) sigma^{lin}_{P_2(k)} P^img_3(k) sigma^{lin}_{P_3(k)} P_4(k) sigma^{lin}_{P_4(k)} N_modes
### header ###
0.00050000 0 0 0 0 0 0 0 0 0 0 0 0
0.00150000 0.00179520 26490.50435820 0 -47042.91015475 0 20119.19111737 0 -159813.95176787 0 75418.47164054 0 3
0.00250000 0.00253879 53024.73484775 0 -58144.73884921 0 -96845.17525094 0 63523.50263050 0 -60223.35998239 0 6
0.00350000 0.00331552 102226.07475587 0 -81778.20701112 0 -62418.65907015 0 -66499.46491153 0 13655.81694705 0 7
0.00450000 0.00420575 149116.22446718 0 -77663.56681104 0 -128621.14598937 0 -10160.91878438 0 -13308.59324597 0 24
0.00550000 0.00557378 206648.12303854 0 -34467.20733644 0 -96301.12775556 0 -76647.63679798 0 -682.86053939 0 45
0.00650000 0.00659388 187662.66395390 0 14298.66976236 0 -169226.87269000 0 -68034.71298837 0 -13036.45709177 0 40
0.00750000 0.00754703 181760.19825505 0 34632.33249568 0 -27327.48321163 0 -95504.84005778 0 78540.67478758 0 57
0.00850000 0.00846663 127344.20806633 0 43815.60692337 0 -65937.99440752 0 -24290.70901015 0 23924.03898330 0 75
0.00950000 0.00948925 108159.67705724 0 26246.13261131 0 8945.66955255 0 6249.77932513 0 61001.55023249 0 112
0.01050000 0.01054430 82162.52485961 0 5885.20005932 0 -5942.01030812 0 25093.17906584 0 58948.89500251 0 105
0.01150000 0.01145670 80899.30053047 0 -4519.93310284 0 -8333.95333977 0 36579.88764133 0 56236.52598112 0 144
0.01250000 0.01249090 88688.05982848 0 -8182.76658743 0 -7028.43044192 0 20383.68362907 0 70502.59785636 0 169
0.01350000 0.01339930 89956.34245045 0 -396.00924932 0 -26159.80441370 0 14922.07625190 0 53899.36988113 0 180
0.01450000 0.01448870 84394.13124924 0 6139.90196423 0 -10257.18371724 0 -3925.34764177 0 61764.34079110 0 267
0.01550000 0.01550050 76064.69665107 0 9197.28027851 0 -9511.37778188 0 -26218.93023654 0 31134.80402073 0 238
0.01650000 0.01653350 68431.62036568 0 10519.25948903 0 12223.98285694 0 -15868.53904345 0 42437.39073725 0 315
0.01750000 0.01747870 60533.82675558 0 8672.90392191 0 16893.46157710 0 -14767.18008482 0 33921.58614996 0 297
0.01850000 0.01844180 58977.22144235 0 1489.75716333 0 35566.65538444 0 -10456.27812298 0 35647.92528922 0 388
0.01950000 0.01947590 62684.05083391 0 -1690.66131385 0 32466.82113235 0 7879.58375592 0 18517.51079471 0 399
0.02050000 0.02045430 67266.86413693 0 -2270.21802488 0 48703.71630025 0 5215.44836682 0 25864.73733201 0 462
0.02150000 0.02154770 71250.66316250 0 -1988.33622650 0 44503.42234160 0 11464.78930657 0 17681.65600636 0 571
0.02250000 0.02255340 74102.07903343 0 1177.28955431 0 51482.18034794 0 6320.89892230 0 20731.13214317 0 510
0.02350000 0.02348930 72965.31202501 0 768.96167586 0 36975.33373404 0 3892.94084571 0 626.41223955 0 555
0.02450000 0.02439640 71112.96519105 0 1658.47933080 0 43298.64939626 0 4957.20565692 0 -4411.34841677 0 592
0.02550000 0.02547300 74031.37534034 0 -719.34769166 0 33095.28591472 0 7761.42203543 0 -6474.96328122 0 837
0.02650000 0.02652900 68105.19186845 0 1807.44043429 0 19926.75117686 0 9878.17145589 0 -14376.23025240 0 723
0.02750000 0.02749970 66769.80256161 0 2481.44109277 0 17820.14082336 0 13090.29980878 0 -13739.67220151 0 826
0.02850000 0.02848090 63758.76945030 0 4298.07637936 0 8430.22951328 0 6537.36013343 0 -12691.81874036 0 831
0.02950000 0.02946900 60536.63691826 0 5650.67512247 0 14797.75465481 0 8303.37876978 0 -4845.08016588 0 996
0.03050000 0.03053250 56039.81459333 0 4474.81313080 0 12724.52903399 0 570.65861192 0 10211.27689965 0 1041
0.03150000 0.03150510 52693.02324468 0 1810.64401975 0 19217.80333525 0 2965.73328886 0 7452.43902814 0 1036
0.03250000 0.03246190 53106.00475254 0 2665.40558263 0 25211.54311803 0 -547.86257224 0 27868.60813782 0 1059
0.03350000 0.03345080 51946.98125567 0 256.40486350 0 28816.98184000 0 2543.62437261 0 19045.14694003 0 1302
0.03450000 0.03451200 52899.51399861 0 596.09508046 0 31196.74000626 0 3457.89394047 0 26458.24369061 0 1339
0.03550000 0.03553350 53807.87098418 0 -3.03516679 0 30643.58758378 0 2242.32997042 0 15463.20117809 0 1365
0.03650000 0.03647120 51910.33673428 0 400.56845725 0 24589.71031959 0 1497.13103021 0 12064.47802307 0 1308
0.03750000 0.03744890 51656.97246681 0 1174.20961601 0 22356.19301935 0 1818.28766225 0 4372.51196850 0 1579
0.03850000 0.03847530 49223.59639656 0 631.20075676 0 14946.58087049 0 -850.48337122 0 -1965.52894617 0 1662
0.03950000 0.03950240 48953.59596600 0 1107.20746920 0 14927.13454473 0 10.87268803 0 -8050.94747631 0 1683
0.04050000 0.04050350 47585.38395903 0 741.89081670 0 11753.78643686 0 -851.58945125 0 -14624.87344657 0 1822
0.04150000 0.04152450 47955.20136808 0 1613.82022545 0 15258.39652177 0 -3363.23642066 0 -9182.73487646 0 1887
0.04250000 0.04250150 46849.45855567 0 1724.10224977 0 12583.12164779 0 -2810.52238357 0 -14129.16074933 0 1920
0.04350000 0.04349210 45462.58706848 0 1820.23229482 0 24041.16656392 0 -2592.04909596 0 -3394.98001833 0 2005
0.04450000 0.04448520 44696.53672116 0 950.49818516 0 22132.84128932 0 1802.51702927 0 -1139.64461501 0 2151
0.04550000 0.04548030 44713.51010377 0 1281.28805487 0 25267.85877819 0 4904.83546517 0 2566.48785620 0 2274
0.04650000 0.04648670 44773.87239819 0 1536.65315818 0 26775.34244773 0 4583.77999899 0 2842.92917963 0 2311
0.04750000 0.04749250 41493.06366934 0 2643.00296573 0 25998.05144968 0 7136.63294585 0 6743.26637352 0 2568
0.04850000 0.04851840 39807.07846620 0 1521.29842928 0 22942.50536147 0 5093.89196981 0 7537.20477530 0 2493
0.04950000 0.04949480 37876.04707712 0 386.40411327 0 21495.94601890 0 6171.69052450 0 9044.76712939 0 2644
0.05050000 0.05050630 38329.60733411 0 -69.29209218 0 19112.02881187 0 4317.44402057 0 10478.16366996 0 2829
0.05150000 0.05149060 37980.58512892 0 -790.43019469 0 17628.48772840 0 5954.86961255 0 12756.56488857 0 2784
0.05250000 0.05249300 38543.62932403 0 -1324.08121221 0 12873.46765617 0 4449.92633008 0 12834.23778512 0 3055
0.05350000 0.05348950 39881.04194801 0 -269.44851461 0 13288.80970069 0 3975.33481557 0 11992.42545188 0 3009
0.05450000 0.05448610 39375.21266511 0 -405.88528505 0 11516.60870644 0 2426.22701638 0 11036.52051372 0 3336
0.05550000 0.05550870 39051.81914358 0 1014.34170912 0 11000.05584274 0 1706.30829966 0 11490.86761626 0 3349
0.05650000 0.05647670 38629.62030212 0 1037.73013109 0 11619.91028665 0 -758.49775409 0 10587.35535116 0 3324
0.05750000 0.05747970 37908.86977725 0 741.39397994 0 9809.50232057 0 1.01262751 0 8028.71346917 0 3639
0.05850000 0.05849280 37162.26575570 0 1008.55727025 0 10680.39421726 0 196.22354355 0 4625.86499532 0 3846
0.05950000 0.05951020 36252.44748553 0 549.32048464 0 9838.63808727 0 -2069.23518981 0 1810.64401975 0 3787
0.06050000 0.06049470 35253.49085507 0 1292.32637389 0 11250.76731665 0 -2027.71222601 0 -1304.56744254 0 3930
0.06150000 0.06148310 34953.25307405 0 860.24924857 0 10043.28537448 0 -1193.09390924 0 -2231.16800425 0 4083
0.06250000 0.06249100 33669.90798009 0 631.81224816 0 11026.80859148 0 -2860.30722566 0 -6251.54410729 0 4303
0.06350000 0.06350600 34120.99529392 0 92.17097546 0 10164.87549343 0 -513.21326636 0 -4366.19472279 0 4470
0.06450000 0.06451750 33451.05251036 0 389.76281971 0 12339.08712042 0 173.78832876 0 -6049.92055513 0 4479
0.06550000 0.06550280 33894.60858820 0 535.07745610 0 10848.79040586 0 -321.27016261 0 -3286.63138593 0 4636
0.06650000 0.06648880 33395.41128924 0 515.35123813 0 11149.45533161 0 445.41865367 0 -5041.44309350 0 4653
0.06750000 0.06749660 33217.69660118 0 623.07151815 0 10928.02575286 0 904.21480578 0 -2762.36743584 0 5220
0.06850000 0.06852730 33292.10970902 0 16.01489232 0 11053.70746868 0 1205.05396162 0 -2194.91690564 0 5029
0.06950000 0.06949320 31715.04641146 0 549.84429896 0 10450.23065289 0 1180.49313977 0 -2513.39826280 0 5040
0.07050000 0.07048030 32628.79890938 0 898.10663617 0 11526.27566607 0 -555.16337489 0 -4390.55321292 0 5475
0.07150000 0.07148790 30757.11815617 0 1098.84779725 0 9569.78420308 0 -837.51840466 0 -4169.44961304 0 5509
0.07250000 0.07249820 30251.51368629 0 1302.11698068 0 11294.49344799 0 222.98640888 0 -2806.19473304 0 5916
0.07350000 0.07351270 28582.16464623 0 559.09310638 0 9877.48577619 0 1205.29001528 0 -5197.37340044 0 5721
0.07450000 0.07449140 28377.69720943 0 37.53039707 0 8659.99965487 0 3478.28448090 0 -5473.21896938 0 6028
0.07550000 0.07549160 27584.21967433 0 -55.80376093 0 7402.05843156 0 2769.53897101 0 -5217.53912785 0 6183
0.07650000 0.07648840 27524.75663196 0 250.08649372 0 5280.59917845 0 2401.74487909 0 -4190.51459251 0 6330
0.07750000 0.07749960 27014.99312131 0 431.36446806 0 4796.08216934 0 1702.47523776 0 -3272.16466844 0 6583
0.07850000 0.07848650 26786.58309846 0 524.17739708 0 4321.63678329 0 548.07277241 0 -2119.91928396 0 6549
0.07950000 0.07947320 26182.17330865 0 778.98384005 0 4972.29061020 0 -1092.02921852 0 -1368.86396472 0 6828
0.08050000 0.08048110 25542.24306254 0 662.16987359 0 5462.50662923 0 -771.90447822 0 -1507.76468580 0 7147
0.08150000 0.08149960 25043.27057659 0 1202.99692253 0 6458.49572790 0 -867.14538780 0 325.22462353 0 7386
0.08250000 0.08250610 24377.03720776 0 931.08558135 0 7533.22558494 0 -372.83102751 0 -365.75503788 0 7227
0.08350000 0.08350160 23778.13533682 0 494.72464404 0 7168.69128174 0 -261.10233144 0 295.96296155 0 7798
0.08450000 0.08449610 23300.85730678 0 352.52366790 0 8040.93205651 0 1581.22233833 0 422.12465316 0 7371
0.08550000 0.08548940 23485.54119829 0 -121.69465701 0 6598.85773358 0 1406.50890402 0 1050.99072676 0 8256
0.08650000 0.08650700 23180.58234396 0 345.64551372 0 6523.82638995 0 1410.89275780 0 914.72144202 0 8037
0.08750000 0.08749060 22898.55441712 0 615.44361256 0 5991.21063636 0 301.50460236 0 458.68486966 0 8155
0.08850000 0.08849210 22251.76737406 0 877.27209004 0 6087.79030745 0 -1050.10608755 0 1577.74897725 0 8718
0.08950000 0.08949900 21600.14685118 0 679.98068467 0 6902.18669356 0 -1192.03728807 0 804.15165703 0 8571
0.09050000 0.09049190 21550.46317495 0 695.31293227 0 8066.40337107 0 -1305.87135802 0 1353.25070085 0 8932
0.09150000 0.09150830 20850.39544742 0 348.01279476 0 8206.24830681 0 -486.38520526 0 253.89707432 0 9285
0.09250000 0.09250820 20857.81427691 0 244.77978251 0 8886.20651018 0 542.04441142 0 1682.28702905 0 9204
0.09350000 0.09350330 20484.96189216 0 134.72931560 0 7839.34222630 0 1438.06141062 0 815.83069314 0 9349
0.09450000 0.09448040 20092.43836863 0 408.29303244 0 6895.48726572 0 1749.35999196 0 -539.72996143 0 9564
0.09550000 0.09549270 19806.13899451 0 525.69600900 0 6534.06662277 0 1793.64815584 0 774.21105975 0 10155
0.09650000 0.09649430 18507.16939604 0 650.33234430 0 5135.75215313 0 1472.41283925 0 -365.72131592 0 9913
0.09750000 0.09749140 18347.21493614 0 635.68352827 0 5383.39492939 0 746.10493666 0 2007.52401730 0 10476
0.09850000 0.09850240 17370.73960714 0 399.15101120 0 4142.12359112 0 587.49710672 0 1044.86007585 0 10575
0.09950000 0.09950330 17531.81813211 0 205.66006984 0 5220.04579296 0 48.35109709 0 1898.07380113 0 10882
0.10050000 0.10051200 17264.74027074 0 134.41457738 0 4600.24755231 0 10.74949050 0 1851.06539978 0 10875
0.10150000 0.10150300 17494.38676518 0 95.64770873 0 5586.81698567 0 -585.98973545 0 2483.67798227 0 11118
0.10250000 0.10250800 17337.80450050 0 61.78367471 0 5273.83230671 0 -237.96007971 0 1965.58514942 0 11575
0.10350000 0.10349800 17459.42834140 0 131.59654624 0 5336.03806786 0 -147.67629711 0 1814.25226863 0 11364
0.10450000 0.10450100 17369.95276159 0 -3.39590175 0 4603.06895564 0 -15.94160327 0 632.19780248 0 12093
0.10550000 0.10551000 17308.57880859 0 83.62572037 0 4513.69454168 0 49.27474136 0 73.57410567 0 12067
0.10650000 0.10649700 16923.47411455 0 186.43181270 0 3738.04467864 0 125.85482184 0 -1605.19864634 0 12054
0.10750000 0.10749900 16974.95629490 0 45.15245751 0 3712.51716083 0 -232.94112916 0 -1967.74335436 0 12807
0.10850000 0.10850100 16639.31046407 0 210.28334948 0 3171.40347529 0 192.98736021 0 -3293.12848206 0 12736
0.10950000 0.10950300 16522.85732250 0 278.73441618 0 3653.32389408 0 -15.82975880 0 -2425.56381799 0 12933
0.11050000 0.11050200 16212.61536232 0 307.67234742 0 3159.08372209 0 77.87983693 0 -3382.68274643 0 13428
0.11150000 0.11150900 15937.21941941 0 430.33819665 0 3810.09724982 0 438.21339655 0 -1997.93574223 0 13453
0.11250000 0.11250000 15480.62418672 0 334.78367292 0 2982.81907798 0 409.15069409 0 -2559.86711292 0 13668
0.11350000 0.11349100 15340.79049163 0 250.64515406 0 3346.49909173 0 1026.19834751 0 -1112.04207308 0 13791
0.11450000 0.11448600 15284.47483147 0 96.17377118 0 3163.92844255 0 678.09337941 0 -1180.38073326 0 14205
0.11550000 0.11549300 14701.75949757 0 205.93771391 0 2443.90855998 0 767.57682769 0 -547.08809140 0 14776
0.11650000 0.11649800 14913.19613782 0 310.49037856 0 2070.28057033 0 -40.67451948 0 -693.69427856 0 14553
0.11750000 0.11747300 14432.99553859 0 380.34652659 0 2384.96258755 0 -237.06419985 0 -325.62703883 0 14568
0.11850000 0.11849100 14470.65171854 0 258.05611509 0 2008.01860593 0 -344.44950848 0 139.51783281 0 16015
0.11950000 0.11950300 14049.12731613 0 221.09011110 0 2005.00611154 0 212.12906433 0 -332.28375219 0 15270
0.12050000 0.12050700 13944.92648385 0 49.82497121 0 1820.71564280 0 418.92443990 0 615.88424607 0 15999
0.12150000 0.12150000 13902.88645012 0 60.24404278 0 1761.30880369 0 548.95179129 0 97.14057955 0 15670
0.12250000 0.12250700 13866.46674175 0 222.98753294 0 2152.32608002 0 318.51058285 0 1044.35087438 0 16887
0.12350000 0.12352200 13584.21400190 0 191.52495155 0 1632.25489265 0 550.41757215 0 826.00573019 0 16407
0.12450000 0.12449800 13490.57938131 0 252.80897933 0 2598.88341161 0 -298.45613788 0 1907.27989408 0 16306
0.12550000 0.12549900 13404.92562274 0 141.10950895 0 2535.03651546 0 -289.40291779 0 1781.26095874 0 17523
0.12650000 0.12650100 13449.55100614 0 -21.01765633 0 3420.10287271 0 -255.81023308 0 2055.08321054 0 17154
0.12750000 0.12750600 13610.85434413 0 -29.88180868 0 3405.00667878 0 -734.14600835 0 1788.42125325 0 18007
0.12850000 0.12850300 13604.44717321 0 -8.89361410 0 3937.15032504 0 -169.79789775 0 1716.22255361 0 17496
0.12950000 0.12949900 13490.91660083 0 220.82033548 0 4174.72147824 0 -87.06906890 0 2423.34940979 0 18405
0.13050000 0.13049000 13361.19949139 0 180.58555025 0 3593.88333301 0 576.05187614 0 1702.58764427 0 18100
0.13150000 0.13148800 13307.69399391 0 185.67306877 0 3869.02074096 0 969.29142912 0 2520.64848252 0 19059
0.13250000 0.13249300 13049.38384011 0 31.34455456 0 3072.37334235 0 1092.24616307 0 2025.27300481 0 18957
0.13350000 0.13349100 12980.14143161 0 13.33186139 0 2888.25148338 0 802.24636674 0 2205.77537424 0 19468
0.13450000 0.13450700 12962.71842298 0 173.91197591 0 2492.18715487 0 85.23302101 0 1743.00902430 0 19953
0.13550000 0.13551000 12763.53409203 0 251.46234937 0 2889.21817934 0 -185.32011234 0 2097.15696623 0 19956
0.13650000 0.13649900 12387.19710555 0 282.32468002 0 2826.93373364 0 -426.43207052 0 1919.08257735 0 19723
0.13750000 0.13749600 12318.96635562 0 373.12553256 0 3143.47045822 0 -557.73860797 0 1372.42725100 0 20946
0.13850000 0.13851100 11965.89751615 0 368.83272805 0 3145.95464203 0 -174.85619058 0 1085.08474449 0 20955
0.13950000 0.13949800 11641.71714907 0 374.56433585 0 3407.80560081 0 68.32393493 0 856.36447968 0 20506
0.14050000 0.14048300 11345.63840882 0 393.54754681 0 3015.25959599 0 -35.63050228 0 889.92119431 0 21447
0.14150000 0.14148400 11002.69739567 0 225.52229968 0 3047.58770749 0 178.13508839 0 727.92992849 0 21771
0.14250000 0.14249400 10781.33526082 0 174.47850471 0 2748.56391674 0 262.54338286 0 427.95293057 0 22470
0.14350000 0.14350900 10709.27144898 0 64.23087678 0 2379.53335324 0 391.39159000 0 278.72205146 0 22519
0.14450000 0.14449900 10729.60578616 0 -44.77083742 0 2373.76689942 0 354.08387022 0 -87.20912741 0 22218
0.14550000 0.14550500 10723.85057298 0 15.46185230 0 2307.12108123 0 219.46920926 0 239.82153148 0 23559
0.14650000 0.14650700 10596.74129452 0 144.67167117 0 2223.28830808 0 87.99136430 0 87.80578115 0 23044
0.14750000 0.14750500 10600.11348974 0 107.86528441 0 2240.20548743 0 41.85737316 0 670.85215221 0 23649
0.14850000 0.14849900 10341.28626600 0 253.73633302 0 2316.63067175 0 -1.25877303 0 562.89806666 0 23640
0.14950000 0.14949500 10366.08314152 0 190.96291901 0 2368.59620008 0 23.23386303 0 1045.40412335 0 24457
0.15050000 0.15050000 10247.60668281 0 118.41913139 0 2612.00125101 0 84.37670824 0 1235.59480965 0 24591
0.15150000 0.15149900 10086.24714157 0 114.06562736 0 2699.04885027 0 68.94846549 0 1272.46414405 0 25020
0.15250000 0.15250500 10126.72472485 0 82.82369994 0 2645.59955605 0 -104.49938396 0 1082.42745466 0 25297
0.15350000 0.15350100 10054.71711627 0 93.69644417 0 2608.82014685 0 -141.58836067 0 1104.46812261 0 25452
0.15450000 0.15450400 10031.48269121 0 207.31694176 0 2682.18787418 0 -279.94391020 0 960.69233131 0 26061
0.15550000 0.15549900 9827.15014222 0 128.23783980 0 2706.88358383 0 -324.42428920 0 488.30848060 0 26128
0.15650000 0.15649500 9737.20245507 0 183.48901034 0 2639.94550873 0 -96.30202701 0 114.25784249 0 26331
0.15750000 0.15749700 9605.16977158 0 164.06066961 0 2718.40525083 0 -182.10191404 0 -590.28141590 0 27345
0.15850000 0.15849900 9480.37606717 0 145.55968258 0 2668.40683638 0 -23.12201855 0 -627.18110006 0 26980
0.15950000 0.15949700 9314.53150628 0 206.51211116 0 2793.91994244 0 -47.04628235 0 -882.38771019 0 27777
0.16050000 0.16050000 9194.45887518 0 135.15533626 0 2765.91948147 0 21.91634636 0 -1004.88045340 0 28224
0.16150000 0.16150500 8999.27621588 0 201.02892174 0 2705.82696266 0 -43.80537793 0 -997.89551303 0 28075
0.16250000 0.16249700 8906.57456930 0 211.09492447 0 2962.14752128 0 -94.94809063 0 -837.90845525 0 28590
0.16350000 0.16349900 8819.99907737 0 137.11120949 0 2797.30337831 0 2.89264658 0 -728.10078638 0 29163
0.16450000 0.16449100 8681.75031403 0 121.33158399 0 3178.22655028 0 17.89646484 0 -552.01486862 0 28996
0.16550000 0.16550500 8737.97604899 0 33.10607694 0 3006.61553557 0 16.56939362 0 -172.75194076 0 30777
0.16650000 0.16650700 8657.59415561 0 8.06099662 0 3125.17067883 0 302.46680206 0 -16.62143783 0 29211
0.16750000 0.16749900 8812.98491132 0 -82.71848744 0 2976.60299812 0 394.46365984 0 543.38654512 0 30922
0.16850000 0.16850800 8943.42142240 0 -148.08995306 0 2917.78067285 0 584.54868403 0 354.10972372 0 30867
0.16950000 0.16949900 8911.14951415 0 2.17920248 0 2924.33397222 0 301.60127196 0 655.63568332 0 30852
0.17050000 0.17049200 9006.29038194 0 26.47982574 0 2438.69289804 0 176.84578576 0 397.23785244 0 31257
0.17150000 0.17149500 8798.74300684 0 227.63554202 0 2644.89139505 0 -153.79570737 0 781.54108809 0 32608
0.17250000 0.17250900 8683.16663603 0 267.46566382 0 2371.10286520 0 -2.73227621 0 504.26683244 0 32361
0.17350000 0.17350400 8366.45006103 0 144.21979701 0 2373.46340185 0 202.93196391 0 481.85072676 0 32508
0.17450000 0.17449800 8295.31922320 0 202.31597625 0 2085.46668947 0 -0.93816719 0 222.52441813 0 32791
0.17550000 0.17549800 8149.77527754 0 89.54100041 0 2091.39051241 0 119.63761793 0 134.25496014 0 33633
0.17650000 0.17650100 8076.90213885 0 114.03864980 0 2002.97155376 0 134.49213787 0 79.23826957 0 33984
0.17750000 0.17750300 7930.49266308 0 72.05560616 0 1798.56032021 0 -5.63066676 0 -21.72188310 0 34069
