### header ###
fiducial parameters:
Omega_m = 0.31
Omega_nu = 0
Omega_de = 0.69
Omega_k = 0
H_0 = 100
w_de = -1
zeff = 0
beta = 0
fgrowth = 0
b_1 = 2
gamma = 0.55
Lx = 3500 Ly = 3500 Lz = 3500
nx = 700 ny = 700 nz = 700
xoffset = 857.220397 yoffset = 15.9954215 zoffset = 262.898189
bins = 400 dk = 0.001
kx_ny = 0.628318531 ky_ny = 0.628318531 kz_ny = 0.628318531
############################
A(data) = 3.14348934 (not used)
A(ran) = 3.15064574 (used)
Ngal = 192205
weighted Ngal = 0
Nran = 9360983
weighted Nran = 0
SN(data) = 3426.20016
SN(ran) = 70.7516626
SN(data+ran) = 3496.95182
############################
13 columns: k_central k_mean P_0(k) sigma^{lin}_{P_0(k)} P^img_1(k) sigma^{lin}_{P_1(k)} P_2(k) sigma^{lin}_{P_2(k)} P^img_3(k) sigma^{lin}_{P_3(k)} P_4(k) sigma^{lin}_{P_4(k)} N_modes
### header ###
0.00050000 0 0 0 0 0 0 0 0 0 0 0 0
0.00150000 0.00179520 10115.94494080 0 -3225.32487685 0 9312.13724768 0 4183.35429800 0 57110.26176244 0 3
0.00250000 0.00253879 17249.45298575 0 -4612.55606486 0 9303.57187182 0 1112.42537927 0 -15421.61077038 0 6
0.00350000 0.00331552 24334.65995451 0 -3394.10324757 0 20310.28217980 0 8841.08653814 0 27497.55425719 0 7
0.00450000 0.00420575 36930.82075715 0 -6793.98418962 0 27101.20891242 0 7713.03103404 0 -7218.62225228 0 24
0.00550000 0.00557378 61522.77920689 0 -9187.86061320 0 69135.50991445 0 16443.49832834 0 32833.60356570 0 45
0.00650000 0.00659388 86544.46773408 0 -11479.85177855 0 36629.34650454 0 48941.79328274 0 -40413.28676012 0 40
0.00750000 0.00754703 96131.28152302 0 -757.06681925 0 111139.57356602 0 31661.87813350 0 60972.21213409 0 57
0.00850000 0.00846663 107513.33964020 0 2761.22088947 0 86186.45300829 0 62023.88741648 0 18286.06579616 0 75
0.00950000 0.00948925 115602.22431273 0 935.06252358 0 128038.88028150 0 64313.04593784 0 80667.06868636 0 112
0.01050000 0.01054430 111486.34764107 0 6533.63947804 0 88577.90145131 0 48132.46643010 0 26488.14382155 0 105
0.01150000 0.01145670 115193.06462612 0 7078.77731654 0 86706.78273063 0 56714.81566972 0 47007.50210495 0 144
0.01250000 0.01249090 106593.96681692 0 7162.22790757 0 77073.99468020 0 24871.85065294 0 18535.38342938 0 169
0.01350000 0.01339930 105406.72928671 0 6782.45128197 0 66234.85999332 0 15137.44711990 0 16045.46688595 0 180
0.01450000 0.01448870 96205.24500483 0 5322.49308373 0 61666.65953625 0 13852.19111532 0 2461.87111985 0 267
0.01550000 0.01550050 91216.75661692 0 6633.23164352 0 40109.56437737 0 16208.68113457 0 -38202.81279387 0 238
0.01650000 0.01653350 85123.08744914 0 3292.83622514 0 48389.98973835 0 14505.61014231 0 -1449.35826460 0 315
0.01750000 0.01747870 87965.96042552 0 2658.96468977 0 36883.27280456 0 33301.88907516 0 -13595.11743310 0 297
0.01850000 0.01844180 81215.50003553 0 991.52880846 0 36779.40919180 0 25862.48920186 0 15440.15784409 0 388
0.01950000 0.01947590 82119.36076081 0 -1201.91782006 0 37906.39683409 0 23151.58146507 0 22012.56632650 0 399
0.02050000 0.02045430 83546.69859063 0 -395.46857402 0 32654.31518654 0 18870.80444719 0 41459.67893667 0 462
0.02150000 0.02154770 86864.15184087 0 74.58789996 0 36036.40217848 0 18409.37573468 0 52571.51181028 0 571
0.02250000 0.02255340 89943.19088910 0 875.27912267 0 42851.60871668 0 7148.25577871 0 59847.47262194 0 510
0.02350000 0.02348930 84735.06018591 0 1924.80406857 0 27617.04237446 0 13849.94298518 0 46060.58968737 0 555
0.02450000 0.02439640 83763.08111720 0 2490.25376294 0 46915.77839498 0 6558.98714544 0 38456.17706134 0 592
0.02550000 0.02547300 79561.32587396 0 5333.46395884 0 23982.60277361 0 -2647.17324715 0 27206.87102929 0 837
0.02650000 0.02652900 74444.01962867 0 3793.11262657 0 33633.60067823 0 -5179.96163246 0 7644.19328896 0 723
0.02750000 0.02749970 69927.75097797 0 1836.76729205 0 10218.81937629 0 -9389.03453933 0 4238.92807521 0 826
0.02850000 0.02848090 70839.48015876 0 -184.46582289 0 22971.50624036 0 -5186.06530581 0 -19954.51558416 0 831
0.02950000 0.02946900 73218.11425995 0 -1943.56471464 0 7810.36382872 0 -7130.96765788 0 -28563.16794649 0 996
0.03050000 0.03053250 73162.58544534 0 -1656.04010959 0 15094.95746014 0 -774.29424056 0 -32923.19155203 0 1041
0.03150000 0.03150510 75981.06620963 0 823.44286182 0 9706.80773549 0 -4445.17153482 0 -46366.56020027 0 1036
0.03250000 0.03246190 72613.59206364 0 2952.52552426 0 18327.99342339 0 -6866.32901772 0 -37758.80708999 0 1059
0.03350000 0.03345080 70893.21046926 0 5456.18938352 0 16993.61577511 0 -2864.51122903 0 -43446.80117289 0 1302
0.03450000 0.03451200 65545.80810351 0 6902.16421225 0 23112.23918751 0 -4199.12493097 0 -29391.82871838 0 1339
0.03550000 0.03553350 60321.82808279 0 5694.63730748 0 22297.51682253 0 3900.13486218 0 -29816.50050300 0 1365
0.03650000 0.03647120 54857.86016896 0 4210.89389229 0 26556.71179101 0 904.68466498 0 -16190.02165435 0 1308
0.03750000 0.03744890 54299.42464065 0 2363.80768287 0 20706.17789854 0 10496.86811277 0 -23445.18726216 0 1579
0.03850000 0.03847530 48807.24269349 0 2274.75924778 0 15115.75266399 0 7118.29944451 0 -15639.45458155 0 1662
0.03950000 0.03950240 47206.79884241 0 3175.51755346 0 10110.42578129 0 5433.49450970 0 -17098.71585945 0 1683
0.04050000 0.04050350 43726.13134356 0 1728.84580438 0 9861.41164565 0 3720.58794805 0 -13906.25864534 0 1822
0.04150000 0.04152450 40701.04741883 0 1711.32162989 0 6383.82408510 0 -5.70329261 0 -11010.43096337 0 1887
0.04250000 0.04250150 41233.51704396 0 989.49425068 0 7451.80955170 0 157.28592942 0 -12099.43644684 0 1920
0.04350000 0.04349210 39552.02810111 0 -8.73732409 0 7925.28824179 0 766.00088845 0 -10453.83890177 0 2005
0.04450000 0.04448520 39706.02501612 0 470.40662025 0 10564.95273425 0 -696.71801361 0 -6072.14332163 0 2151
0.04550000 0.04548030 39182.54791158 0 1349.24902919 0 10481.90680665 0 1902.22160125 0 354.70098195 0 2274
0.04650000 0.04648670 39334.85872899 0 1072.30749681 0 14604.19064923 0 313.00940839 0 1467.46695293 0 2311
0.04750000 0.04749250 38127.72524699 0 863.65853794 0 14723.67876650 0 1185.78748626 0 3533.89198006 0 2568
0.04850000 0.04851840 38619.16649694 0 -623.05690530 0 13279.47996058 0 2959.15750819 0 3079.25262060 0 2493
0.04950000 0.04949480 39519.09299447 0 -1437.75791305 0 13680.99600469 0 340.10387291 0 5441.35172456 0 2644
0.05050000 0.05050630 40425.65147592 0 -1320.38303812 0 12217.80049904 0 1752.59729937 0 968.58664032 0 2829
0.05150000 0.05149060 41189.34128659 0 -445.53892863 0 10692.97250543 0 2070.86508417 0 -260.93934200 0 2784
0.05250000 0.05249300 40432.84549239 0 1841.43216210 0 12541.75605310 0 -1117.92093341 0 1033.52725179 0 3055
0.05350000 0.05348950 38645.80683918 0 2230.14510503 0 10604.23880855 0 -1752.17015465 0 655.13997062 0 3009
0.05450000 0.05448610 37941.69247739 0 1487.38538603 0 13927.27866221 0 -126.40224154 0 4458.87388807 0 3336
0.05550000 0.05550870 36580.00004784 0 783.76448880 0 16296.58302328 0 -978.96063688 0 5873.63342972 0 3349
0.05650000 0.05647670 36777.04865515 0 -198.27945857 0 16261.73700602 0 2259.24714977 0 6102.31322819 0 3324
0.05750000 0.05747970 37054.13069567 0 537.39078202 0 17959.86211195 0 1059.06601025 0 5799.09667472 0 3639
0.05850000 0.05849280 36863.82647879 0 1348.82188447 0 16551.97060789 0 1201.06353061 0 5206.87175031 0 3846
0.05950000 0.05951020 35420.41451843 0 1438.07265127 0 18038.88388659 0 1947.37529524 0 6619.85526915 0 3787
0.06050000 0.06049470 34202.82723125 0 1704.49855490 0 13210.46236509 0 1282.35591669 0 5862.46022289 0 3930
0.06150000 0.06148310 33023.23334353 0 931.12604769 0 15983.53090043 0 1389.77157508 0 3184.36394558 0 4083
0.06250000 0.06249100 32223.23623101 0 426.80076387 0 13889.51007575 0 1708.57891111 0 4893.07774450 0 4303
0.06350000 0.06350600 31405.81610985 0 67.79067846 0 12596.72283518 0 1189.75543597 0 1408.62214635 0 4470
0.06450000 0.06451750 31871.17905012 0 341.67419181 0 13253.17683787 0 -1055.01600379 0 603.79605028 0 4479
0.06550000 0.06550280 31174.59592432 0 869.37890510 0 13164.15088408 0 -1808.21603919 0 -262.78618092 0 4636
0.06650000 0.06648880 29850.33486170 0 749.72330213 0 13697.29494825 0 -2308.09901785 0 -1501.53736530 0 4653
0.06750000 0.06749660 30308.84100502 0 344.18872538 0 14710.86442466 0 -1155.58385775 0 -857.72572248 0 5220
0.06850000 0.06852730 30445.30250489 0 36.48141954 0 14666.01422825 0 246.28715378 0 -2440.94102819 0 5029
0.06950000 0.06949320 30462.61310702 0 -59.28757581 0 15134.63695722 0 2321.59903938 0 -3218.42311730 0 5040
0.07050000 0.07048030 30224.64853104 0 335.28050968 0 13100.30398793 0 1481.78754196 0 -4099.04941752 0 5475
0.07150000 0.07148790 29797.16658374 0 782.88434585 0 12082.46306424 0 2134.59957382 0 -4666.08404364 0 5509
0.07250000 0.07249820 28563.84238554 0 793.14143964 0 11925.54358003 0 2061.40045626 0 -2603.61572557 0 5916
0.07350000 0.07351270 27790.03598921 0 386.42659457 0 10991.63659535 0 1500.69431649 0 -2548.17683616 0 5721
0.07450000 0.07449140 27800.26498138 0 417.36536164 0 10269.33486068 0 2685.90852957 0 -2779.07104283 0 6028
0.07550000 0.07549160 26530.52107481 0 242.40238488 0 8096.80933129 0 1738.76005832 0 -1299.99249769 0 6183
0.07650000 0.07648840 26324.36754040 0 618.02109378 0 6807.67530221 0 599.52797519 0 -3284.21464603 0 6330
0.07750000 0.07749960 26051.44454065 0 553.99209908 0 7567.75686399 0 -951.48511430 0 -893.54967636 0 6583
0.07850000 0.07848650 25647.23074037 0 784.39958557 0 6683.48859293 0 -683.02802508 0 -3144.52707939 0 6549
0.07950000 0.07947320 25348.22943092 0 192.78840069 0 8385.87390549 0 -597.77668181 0 243.60963077 0 6828
0.08050000 0.08048110 25125.66454645 0 296.00904822 0 7686.19960074 0 -135.30820911 0 -1726.63139618 0 7147
0.08150000 0.08149960 25197.94193065 0 104.15676893 0 7902.61584927 0 1024.05363135 0 -990.06415167 0 7386
0.08250000 0.08250610 25276.28926624 0 413.29961827 0 9194.71741014 0 -23.01804253 0 -713.90159638 0 7227
0.08350000 0.08350160 24579.03170140 0 905.94699005 0 8726.62299175 0 -355.75085872 0 -1211.16887561 0 7798
0.08450000 0.08449610 24018.12322992 0 1331.10661891 0 10236.14121907 0 -1357.09500340 0 382.06184989 0 7371
0.08550000 0.08548940 22846.17298471 0 1009.11255840 0 10276.05676981 0 -969.91640930 0 -546.71152960 0 8256
0.08650000 0.08650700 22502.99591789 0 555.79285133 0 11005.75485267 0 172.76430548 0 499.51428531 0 8037
0.08750000 0.08749060 21790.90069408 0 144.18944725 0 10159.74975670 0 1240.10231060 0 -1793.78304365 0 8155
0.08850000 0.08849210 21977.04587019 0 -108.11774943 0 9010.83160483 0 1399.61838512 0 -2072.36009072 0 8718
0.08950000 0.08949900 21646.90795822 0 -57.81089152 0 9012.38281463 0 1738.74881767 0 -1793.58071194 0 8571
0.09050000 0.09049190 21525.17171080 0 285.99362842 0 6983.34419183 0 1139.54344916 0 -1579.63740658 0 8932
0.09150000 0.09150830 21144.11365102 0 369.29921505 0 6599.74574499 0 1389.45683686 0 -1606.65993093 0 9285
0.09250000 0.09250820 20644.46672603 0 727.67364166 0 6207.44703448 0 177.71131586 0 -784.18713727 0 9204
0.09350000 0.09350330 20246.54769015 0 711.81757974 0 6432.08019868 0 73.11110326 0 -228.28412757 0 9349
0.09450000 0.09448040 19617.85809477 0 349.30546960 0 6353.85651025 0 -401.46096492 0 -326.50380959 0 9564
0.09550000 0.09549270 19367.97842902 0 259.26673318 0 7183.12427728 0 -162.85454779 0 146.99848587 0 10155
0.09650000 0.09649430 19241.52110830 0 143.20364218 0 7237.96741219 0 414.65636482 0 -334.33966721 0 9913
0.09750000 0.09749140 18991.97866207 0 103.48727577 0 6571.50923035 0 582.66137877 0 -402.40180739 0 10476
0.09850000 0.09850240 18996.81214188 0 176.93121470 0 6982.52362433 0 588.74257082 0 665.99956329 0 10575
0.09950000 0.09950330 18529.42588449 0 337.70511804 0 5912.51484060 0 1405.14878528 0 -559.19090004 0 10882
0.10050000 0.10051200 18197.15224888 0 467.48067886 0 5725.75142870 0 1004.03066020 0 68.61911442 0 10875
0.10150000 0.10150300 17631.85992362 0 352.71700709 0 4754.39059578 0 780.23717260 0 -31.86623316 0 11118
0.10250000 0.10250800 17148.28712917 0 252.19973606 0 4266.09672803 0 1027.39772494 0 -278.77488252 0 11575
0.10350000 0.10349800 17238.99918057 0 170.40714102 0 3878.86755100 0 341.89001231 0 -488.16684840 0 11364
0.10450000 0.10450100 16900.20596754 0 56.34230050 0 3576.04442030 0 228.22904838 0 -589.06068123 0 12093
0.10550000 0.10551000 16722.37887297 0 187.29959094 0 2816.41248455 0 678.76894252 0 -890.36744814 0 12067
0.10650000 0.10649700 16544.66418492 0 106.67085287 0 2691.51761428 0 548.84275698 0 -196.41575868 0 12054
0.10750000 0.10749900 16368.97281399 0 33.02604351 0 1985.63847033 0 781.29154564 0 -934.14191428 0 12807
0.10850000 0.10850100 16374.03110682 0 -115.33469683 0 1555.86343028 0 696.61459962 0 -481.85297489 0 12736
0.10950000 0.10950300 16450.24271878 0 -6.78222647 0 1624.71241601 0 -119.72304687 0 -1177.80662424 0 12933
0.11050000 0.11050200 16428.32344985 0 358.10465099 0 2004.42159770 0 -581.34397451 0 -473.59446879 0 13428
0.11150000 0.11150900 16220.03419181 0 537.33907502 0 2543.20846854 0 -1105.92491095 0 185.75400146 0 13453
0.11250000 0.11250000 15845.04608342 0 458.12620932 0 3470.31485953 0 -594.08300398 0 537.87525406 0 13668
0.11350000 0.11349100 15849.42993720 0 365.71232340 0 4349.09769303 0 -561.84481768 0 1041.99708211 0 13791
0.11450000 0.11448600 15572.46030319 0 354.01867445 0 4797.94811737 0 -197.14302878 0 1073.58443473 0 14205
0.11550000 0.11549300 15485.57007304 0 170.10364345 0 5266.62704959 0 89.92340734 0 1968.84493814 0 14776
0.11650000 0.11649800 15287.28499415 0 354.44357104 0 5467.36259035 0 -114.67711876 0 1564.55245329 0 14553
0.11750000 0.11747300 15197.35978830 0 327.62225434 0 5837.35984981 0 -102.48281122 0 2833.53199562 0 14568
0.11850000 0.11849100 14775.04854034 0 337.56460991 0 5482.12156476 0 -69.94449955 0 1864.81271562 0 16015
0.11950000 0.11950300 14463.12048255 0 440.87967891 0 5619.89822077 0 154.43867259 0 1452.26959314 0 15270
0.12050000 0.12050700 13974.48939528 0 219.47370552 0 5060.30490543 0 474.78485371 0 1155.87611467 0 15999
0.12150000 0.12150000 14001.35455052 0 35.06082610 0 4335.39533979 0 473.95192149 0 555.02399082 0 15670
0.12250000 0.12250700 13882.20365277 0 20.86601995 0 4497.99135261 0 363.60807359 0 531.72212185 0 16887
0.12350000 0.12352200 13882.65327880 0 -19.90426988 0 3898.69605889 0 232.26556605 0 -415.80740745 0 16407
0.12450000 0.12449800 13836.34179779 0 17.33600600 0 3942.20861787 0 -17.06533113 0 258.83396812 0 16306
0.12550000 0.12549900 14011.02151015 0 200.59053636 0 4362.00196007 0 -480.64348087 0 265.96840914 0 17523
0.12650000 0.12650100 13840.27602555 0 226.73404183 0 4439.67485662 0 -415.06664857 0 247.41009478 0 17154
0.12750000 0.12750600 13826.22521213 0 348.56808291 0 5345.41277057 0 -482.38240953 0 485.87038346 0 18007
0.12850000 0.12850300 13463.71422606 0 260.81681891 0 5055.66251667 0 -355.74523840 0 421.85712567 0 17496
0.12950000 0.12949900 13416.95311902 0 157.59617138 0 5722.22186437 0 296.43956514 0 421.30071346 0 18405
0.13050000 0.13049000 13276.78220440 0 160.41307845 0 5317.76076977 0 616.47438023 0 -96.54527469 0 18100
0.13150000 0.13148800 13112.33148421 0 104.70744840 0 5072.51225212 0 710.02694407 0 26.53479252 0 19059
0.13250000 0.13249300 12859.86646879 0 172.60693636 0 4633.03653049 0 640.93178810 0 436.81505960 0 18957
0.13350000 0.13349100 12753.30509986 0 149.62992221 0 4263.41021250 0 780.38330106 0 570.36860313 0 19468
0.13450000 0.13450700 12677.88033346 0 210.32156770 0 4632.28340689 0 292.12203120 0 1393.48098982 0 19953
0.13550000 0.13551000 12495.44457209 0 233.22664169 0 4210.63535732 0 274.39889719 0 1666.90981885 0 19956
0.13650000 0.13649900 12343.80819373 0 248.63420165 0 5250.73276946 0 -65.23983759 0 2409.95055412 0 19723
0.13750000 0.13749600 12125.62716304 0 207.81939884 0 4895.70805677 0 -328.57321339 0 2256.08852692 0 20946
0.13850000 0.13851100 12099.21163382 0 208.76810977 0 5665.83876031 0 301.96209685 0 3017.20422856 0 20955
0.13950000 0.13949800 11836.18040672 0 60.46705729 0 5211.26684474 0 360.73833545 0 3039.80917718 0 20506
0.14050000 0.14048300 11879.68172505 0 62.22644394 0 4858.86120368 0 954.10755811 0 2054.30760564 0 21447
0.14150000 0.14148400 11675.55150777 0 -38.84442914 0 4445.38510719 0 751.56114852 0 1874.65952566 0 21771
0.14250000 0.14249400 11465.35133910 0 89.48704528 0 3025.44362555 0 613.57991267 0 1187.75460014 0 22470
0.14350000 0.14350900 11273.24861811 0 154.65112089 0 2922.90640958 0 560.72974513 0 1163.87945799 0 22519
0.14450000 0.14449900 11041.03925531 0 244.62690966 0 2033.73721481 0 142.40892818 0 710.28997530 0 22218
0.14550000 0.14550500 10783.96557309 0 208.42414585 0 1820.55827369 0 673.65781863 0 1054.54614459 0 23559
0.14650000 0.14650700 10608.73506885 0 184.59059411 0 1436.43151626 0 408.27954366 0 747.31555474 0 23044
0.14750000 0.14750500 10575.40653943 0 68.30786080 0 1425.06721837 0 395.23814068 0 1694.61802290 0 23649
0.14850000 0.14849900 10420.81386993 0 106.73177719 0 1369.54964441 0 124.10015627 0 1596.88056480 0 23640
0.14950000 0.14949500 10493.83313707 0 -0.84393232 0 2057.16273093 0 -19.98025667 0 2337.06617478 0 24457
0.15050000 0.15050000 10444.92506574 0 -20.75282660 0 1682.15214124 0 -169.97999629 0 2053.47579749 0 24591
0.15150000 0.15149900 10749.90640138 0 31.40851387 0 2487.58972872 0 -383.06114374 0 2616.47503000 0 25020
0.15250000 0.15250500 10569.92110187 0 64.39971135 0 2244.78043228 0 -307.84657750 0 1993.49568519 0 25297
0.15350000 0.15350100 10570.97772304 0 268.28623132 0 2643.20529744 0 -203.37709368 0 1864.59914326 0 25452
0.15450000 0.15450400 10263.29863123 0 232.42181110 0 2419.79736416 0 -42.80147541 0 1606.10913905 0 26061
0.15550000 0.15549900 10245.51592178 0 212.42019719 0 2495.25585252 0 91.04893370 0 1311.73897770 0 26128
0.15650000 0.15649500 9896.60612309 0 44.07459152 0 1951.36572625 0 416.94046504 0 1134.11421485 0 26331
0.15750000 0.15749700 9949.35849697 0 41.29556544 0 2192.73621940 0 213.56224730 0 1117.96589601 0 27345
0.15850000 0.15849900 9892.69437663 0 78.93657051 0 2047.64189976 0 143.97362676 0 1322.30518939 0 26980
0.15950000 0.15949700 9881.42000395 0 149.25560854 0 1969.47441458 0 175.48679108 0 1300.38592047 0 27777
0.16050000 0.16050000 9698.82687347 0 200.56243473 0 2094.95379869 0 -20.37648961 0 1482.58562816 0 28224
0.16150000 0.16150500 9662.50833096 0 176.26352005 0 2159.25032087 0 -268.88535801 0 1176.42402420 0 28075
0.16250000 0.16249700 9388.96709542 0 122.65348452 0 2442.93062337 0 30.41810013 0 1009.11255840 0 28590
0.16350000 0.16349900 9423.17239560 0 175.48229482 0 2517.86080114 0 -122.50510793 0 952.32928717 0 29163
0.16450000 0.16449100 9156.57788221 0 43.82459944 0 2048.48494857 0 59.15684704 0 471.56328321 0 28996
0.16550000 0.16550500 9200.45014201 0 174.70556586 0 2308.04281459 0 -7.30045419 0 705.84317387 0 30777
0.16650000 0.16650700 9001.09720130 0 166.56396253 0 2143.56961310 0 146.07113218 0 -10.05479580 0 29211
0.16750000 0.16749900 8877.56244977 0 157.99071822 0 2208.46188977 0 97.03918888 0 507.60530571 0 30922
0.16850000 0.16850800 8776.03689236 0 151.02601103 0 2073.28182408 0 18.53617027 0 231.30673855 0 30867
0.16950000 0.16949900 8751.21753555 0 118.70576798 0 1934.22373388 0 -51.89201447 0 559.12008395 0 30852
0.17050000 0.17049200 8621.53414807 0 69.91066519 0 2406.90433777 0 -47.59774867 0 344.68443808 0 31257
0.17150000 0.17149500 8697.07132098 0 151.08221428 0 2275.15267056 0 -188.42927633 0 309.90811285 0 32608
0.17250000 0.17250900 8513.26420023 0 176.05669207 0 2537.26216430 0 -209.23796897 0 435.37176005 0 32361
0.17350000 0.17350400 8431.98305479 0 241.29180859 0 2496.43612085 0 -309.24041820 0 381.98653753 0 32508
0.17450000 0.17449800 8246.02896975 0 214.99093401 0 2729.42108855 0 -41.85029155 0 381.88424761 0 32791
0.17550000 0.17549800 8132.88057949 0 156.96332274 0 2981.94230722 0 59.48889586 0 417.49800132 0 33633
0.17650000 0.17650100 8026.57774553 0 59.88569083 0 2697.39647461 0 410.54790697 0 683.31690981 0 33984
0.17750000 0.17750300 7926.70456378 0 35.41411975 0 2754.39781447 0 505.19531019 0 762.97040902 0 34069
