### header ###
fiducial parameters:
Omega_m = 0.31
Omega_nu = 0
Omega_de = 0.69
Omega_k = 0
H_0 = 100
w_de = -1
zeff = 0
beta = 0
fgrowth = 0
b_1 = 2
gamma = 0.55
Lx = 3500 Ly = 3500 Lz = 3500
nx = 700 ny = 700 nz = 700
xoffset = 857.220397 yoffset = 15.9954215 zoffset = 262.898189
bins = 400 dk = 0.001
kx_ny = 0.628318531 ky_ny = 0.628318531 kz_ny = 0.628318531
############################
A(data) = 3.06501674 (not used)
A(ran) = 3.06748748 (used)
Ngal = 187905
weighted Ngal = 0
Nran = 9360983
weighted Nran = 0
SN(data) = 3440.29131
SN(ran) = 68.8842407
SN(data+ran) = 3509.17555
############################
13 columns: k_central k_mean P_0(k) sigma^{lin}_{P_0(k)} P^img_1(k) sigma^{lin}_{P_1(k)} P_2(k) sigma^{lin}_{P_2(k)} P^img_3(k) sigma^{lin}_{P_3(k)} P_4(k) sigma^{lin}_{P_4(k)} N_modes
### header ###
0.00050000 0 0 0 0 0 0 0 0 0 0 0 0
0.00150000 0.00179520 4494.03464355 0 -4245.73990955 0 12003.55369610 0 -5390.70135236 0 -11425.89665504 0 3
0.00250000 0.00253879 21225.04633629 0 -21264.72583337 0 -22719.04122494 0 23168.55484768 0 53297.99506702 0 6
0.00350000 0.00331552 33797.82658541 0 -36196.58145140 0 -26805.13017217 0 -10308.65465693 0 -27979.21614102 0 7
0.00450000 0.00420575 60109.37978398 0 -43159.37773370 0 -50200.85857111 0 2385.07499405 0 -13440.67089206 0 24
0.00550000 0.00557378 112840.39642813 0 -50683.08248747 0 -79606.17607037 0 -6194.01445685 0 -14398.71155386 0 45
0.00650000 0.00659388 125329.88345533 0 -20462.25577768 0 -38960.20784012 0 -85785.94862275 0 -46889.13805275 0 40
0.00750000 0.00754703 137001.05110932 0 14725.14005109 0 -44229.26287027 0 -80878.05570058 0 -1643.15832386 0 57
0.00850000 0.00846663 125631.13289492 0 26008.73006787 0 -26575.03405170 0 -57594.50899593 0 2164.40977955 0 75
0.00950000 0.00948925 93020.09421369 0 29727.02492318 0 2861.66734440 0 -36487.26467930 0 50268.63969502 0 112
0.01050000 0.01054430 78768.18555838 0 7533.96746789 0 32602.49578667 0 31653.22283244 0 16115.38373350 0 105
0.01150000 0.01145670 74062.84916238 0 805.12734552 0 32761.88821404 0 40744.99836319 0 25291.68895774 0 144
0.01250000 0.01249090 76845.80947036 0 -531.18819094 0 36915.30865914 0 30334.80690820 0 42700.53437086 0 169
0.01350000 0.01339930 77281.27227968 0 2356.80475747 0 52927.95284496 0 23837.82319220 0 51212.74194992 0 180
0.01450000 0.01448870 84205.96275600 0 559.34264883 0 53904.31576745 0 8971.50056793 0 68378.56449423 0 267
0.01550000 0.01550050 73477.43607231 0 -4721.11826962 0 35376.91320010 0 3136.38884826 0 1905.79612819 0 238
0.01650000 0.01653350 90884.37057480 0 1528.67229616 0 61550.09398817 0 -5115.19300295 0 41004.54498857 0 315
0.01750000 0.01747870 83133.49226976 0 2102.44007207 0 31669.97140203 0 5510.27939484 0 -1095.91173928 0 297
0.01850000 0.01844180 84958.52432244 0 7766.71638193 0 54091.24778911 0 9480.20745741 0 20712.24784994 0 388
0.01950000 0.01947590 79012.10767924 0 2534.60937073 0 21212.00718144 0 15618.43456468 0 -18124.87486468 0 399
0.02050000 0.02045430 72996.22381452 0 2051.48620231 0 9859.10731225 0 16096.16222075 0 -19222.07478253 0 462
0.02150000 0.02154770 69412.14232894 0 1048.26149676 0 -4656.56321247 0 10562.41234718 0 -23018.37975391 0 571
0.02250000 0.02255340 67521.80209551 0 18.42241489 0 -9918.34554160 0 2501.79791124 0 -23809.49675236 0 510
0.02350000 0.02348930 70094.44982831 0 -2796.85375228 0 -6180.60436053 0 -12338.18786837 0 -19083.81477854 0 555
0.02450000 0.02439640 73057.59776751 0 -2701.60047799 0 7904.18954037 0 -11529.19823526 0 -16887.72884523 0 592
0.02550000 0.02547300 74895.33175552 0 886.89408707 0 12081.11418615 0 -7846.79477774 0 -619.22047121 0 837
0.02650000 0.02652900 74303.28668152 0 3372.81345509 0 17007.21696250 0 -3242.03972448 0 -9034.97652260 0 723
0.02750000 0.02749970 71634.53138497 0 4955.91298209 0 22698.47083411 0 7100.17951553 0 17494.83639121 0 826
0.02850000 0.02848090 63940.30595960 0 6865.02510224 0 20301.96409826 0 11925.99320606 0 619.56443512 0 831
0.02950000 0.02946900 60579.68861056 0 1863.91346356 0 18436.24088993 0 13035.10821369 0 21649.38090138 0 996
0.03050000 0.03053250 57659.25514414 0 1717.33537803 0 15486.91895113 0 8474.76497147 0 16568.15714494 0 1041
0.03150000 0.03150510 54902.59795887 0 1751.19221803 0 9997.62585121 0 273.39510708 0 5802.07544716 0 1036
0.03250000 0.03246190 56455.83107688 0 1242.90123263 0 18903.96436684 0 -5946.79882533 0 22215.12285267 0 1059
0.03350000 0.03345080 54478.60061330 0 3027.79292155 0 23144.27504210 0 -10638.33170222 0 10303.55140150 0 1302
0.03450000 0.03451200 54353.04254463 0 2396.23696023 0 27627.04655362 0 -7850.58287703 0 16109.20137560 0 1339
0.03550000 0.03553350 53762.34634872 0 1793.54698999 0 37225.88783884 0 -3454.26321028 0 8305.39084626 0 1365
0.03650000 0.03647120 51223.08334859 0 1691.67297241 0 30877.50552550 0 2215.86947860 0 1574.56787310 0 1308
0.03750000 0.03744890 52285.54965568 0 277.45298199 0 34725.06786421 0 5676.21388093 0 -3564.38786550 0 1579
0.03850000 0.03847530 50739.51055414 0 370.17036548 0 31322.63529444 0 2687.26864831 0 -5904.25296231 0 1662
0.03950000 0.03950240 49476.73585102 0 148.36984526 0 22941.26888989 0 5290.19869418 0 -10013.62129720 0 1683
0.04050000 0.04050350 46600.92776801 0 1075.79884293 0 20164.60334632 0 2412.45721923 0 -17325.88941072 0 1822
0.04150000 0.04152450 47178.47240256 0 2189.07176726 0 14401.07209052 0 480.31412980 0 -12276.36428934 0 1887
0.04250000 0.04250150 43437.24661977 0 1937.01141527 0 16722.49127948 0 1468.01774482 0 -19478.24921269 0 1920
0.04350000 0.04349210 43016.95868894 0 2967.45310843 0 14331.82968201 0 145.13366191 0 -7309.98626143 0 2005
0.04450000 0.04448520 39519.31780748 0 755.19974717 0 11577.19581388 0 1516.04904539 0 -11688.81547564 0 2151
0.04550000 0.04548030 41109.30785338 0 35.99346289 0 17309.14084113 0 4423.38715371 0 -3218.74909617 0 2274
0.04650000 0.04648670 41308.26737132 0 -114.42083192 0 15891.69478395 0 3173.87641845 0 -2951.71619740 0 2311
0.04750000 0.04749250 39929.82637218 0 361.13737856 0 15182.74694235 0 2054.30760564 0 -3478.83527278 0 2568
0.04850000 0.04851840 40737.91675323 0 634.92366028 0 16850.63469781 0 1338.41304189 0 -2213.53142325 0 2493
0.04950000 0.04949480 39569.33870323 0 620.48729255 0 14264.72299715 0 -232.90403502 0 -4075.12931276 0 2644
0.05050000 0.05050630 39369.36752673 0 1344.49423393 0 14076.77931693 0 -54.63540769 0 -7449.46025570 0 2829
0.05150000 0.05149060 38056.23470834 0 1068.69250353 0 12954.96237397 0 -6458.67557831 0 -9496.30406925 0 2784
0.05250000 0.05249300 37711.70876343 0 2364.42591866 0 16166.41628782 0 -3197.98761427 0 -9385.89839777 0 3055
0.05350000 0.05348950 36795.37091584 0 1353.09333174 0 17240.68527818 0 -2012.55982883 0 -10219.13411451 0 3009
0.05450000 0.05448610 35903.53768684 0 226.64299256 0 17021.82980845 0 2060.05157817 0 -6688.68177357 0 3336
0.05550000 0.05550870 36882.26114599 0 -964.71873240 0 18129.82075100 0 2336.02079426 0 -6019.58203881 0 3349
0.05650000 0.05647670 36958.80997747 0 -482.15984465 0 16364.02692767 0 6176.99611165 0 -4018.86985585 0 3324
0.05750000 0.05747970 37255.90037629 0 73.91289888 0 17582.28865389 0 3177.96801532 0 1373.32650306 0 3639
0.05850000 0.05849280 37395.84647789 0 575.07731172 0 14829.34088337 0 3381.86217893 0 3398.07119728 0 3846
0.05950000 0.05951020 36814.03039605 0 839.45629285 0 17727.63026785 0 1612.44886606 0 6998.28301666 0 3787
0.06050000 0.06049470 35902.63843479 0 542.25236346 0 14207.28327191 0 782.68988259 0 4970.63823455 0 3930
0.06150000 0.06148310 34340.52520270 0 690.01746171 0 15366.41917529 0 802.02155372 0 5210.95210652 0 4083
0.06250000 0.06249100 34282.29863191 0 761.99472053 0 12865.71160717 0 317.56861632 0 2007.92868073 0 4303
0.06350000 0.06350600 33834.92073282 0 479.77795076 0 13856.01293657 0 1509.93413139 0 3169.45884271 0 4470
0.06450000 0.06451750 33318.52523824 0 353.10368548 0 11911.71757963 0 1026.21071223 0 -29.37204517 0 4479
0.06550000 0.06550280 32766.94650687 0 591.77080212 0 11806.95471482 0 1591.49629310 0 424.82240934 0 4636
0.06650000 0.06648880 31718.19379367 0 809.60786890 0 8551.10023059 0 1903.58171999 0 -1838.37470510 0 4653
0.06750000 0.06749660 31738.08974546 0 866.54176485 0 8803.14934193 0 1367.20034841 0 -843.10838027 0 5220
0.06850000 0.06852730 30212.50862825 0 450.62981935 0 6581.34479974 0 981.93940932 0 -2895.60286895 0 5029
0.06950000 0.06949320 30752.05986334 0 27.03949774 0 7495.09729766 0 1397.03303545 0 -1687.09802756 0 5040
0.07050000 0.07048030 29952.06275081 0 -147.50319109 0 4946.45959482 0 1849.04208265 0 -2211.26081180 0 5475
0.07150000 0.07148790 30363.80778709 0 346.18169276 0 5698.15563116 0 855.17409477 0 -1618.15911663 0 5509
0.07250000 0.07249820 29414.98445889 0 1309.33347845 0 5992.34594209 0 -71.80314115 0 105.28341935 0 5916
0.07350000 0.07351270 28527.08545765 0 1445.42403685 0 8494.68340457 0 -53.92409931 0 3268.93860168 0 5721
0.07450000 0.07449140 28720.42465022 0 574.02181462 0 8822.70807420 0 552.46337058 0 6193.83460644 0 6028
0.07550000 0.07549160 27967.30105124 0 39.25223995 0 11355.97980749 0 1427.57388349 0 9007.93151695 0 6183
0.07650000 0.07648840 28301.26078446 0 69.38246701 0 11367.33286473 0 519.23263483 0 6852.18827910 0 6330
0.07750000 0.07749960 28069.14134687 0 692.01829754 0 13061.07411688 0 -1221.83625316 0 6720.52653709 0 6583
0.07850000 0.07848650 27689.88179120 0 1306.61324097 0 13060.51208434 0 -1241.40622608 0 6419.90657394 0 6549
0.07950000 0.07947320 26173.51800759 0 1266.14689834 0 12250.17357314 0 -2316.11360182 0 4245.45889329 0 6828
0.08050000 0.08048110 25593.61283638 0 409.98812257 0 11685.66809343 0 -382.05735363 0 1309.32223780 0 7147
0.08150000 0.08149960 25184.34074326 0 -192.58494491 0 10539.75119531 0 512.04086649 0 -660.49276850 0 7386
0.08250000 0.08250610 25256.61812746 0 -44.64010865 0 8640.33975674 0 1836.36262862 0 -2694.67623714 0 7227
0.08350000 0.08350160 24918.61175998 0 337.72197902 0 8161.67912666 0 1077.72998672 0 -2297.66769397 0 7798
0.08450000 0.08449610 24935.80995560 0 214.47498814 0 7130.76532617 0 826.70489866 0 -593.12979680 0 7371
0.08550000 0.08548940 24597.69118161 0 219.26238129 0 8436.17581751 0 1010.50302689 0 -211.76037099 0 8256
0.08650000 0.08650700 24591.73363673 0 579.23410436 0 7954.83991256 0 -106.32576489 0 1495.26508219 0 8037
0.08750000 0.08749060 24202.80712143 0 369.14859033 0 9770.64339100 0 411.31901561 0 2511.91449690 0 8155
0.08850000 0.08849210 23727.32759551 0 911.26719005 0 9643.99497921 0 96.36643594 0 2732.35489839 0 8718
0.08950000 0.08949900 23007.70113571 0 684.10600349 0 9908.57741612 0 1202.92947863 0 3034.59351524 0 8571
0.09050000 0.09049190 22128.56984204 0 461.51638958 0 9005.34616728 0 1427.39403307 0 3088.21141923 0 8932
0.09150000 0.09150830 21715.81314720 0 358.42500953 0 7697.90111815 0 2035.35586851 0 1248.00448806 0 9285
0.09250000 0.09250820 21125.45417081 0 184.15670499 0 6634.08593297 0 933.40452760 0 1401.79907136 0 9204
0.09350000 0.09350330 20680.66162138 0 332.24440992 0 6314.84021156 0 625.77264652 0 1171.54558179 0 9349
0.09450000 0.09448040 20801.72342976 0 509.32737340 0 6907.18878313 0 -428.08894244 0 1154.95438131 0 9564
0.09550000 0.09549270 20163.81650077 0 508.23140996 0 6440.17346721 0 -756.16194687 0 956.37816956 0 10155
0.09650000 0.09649430 20157.52173636 0 457.40343548 0 6821.50130261 0 -235.50736973 0 758.75179280 0 9913
0.09750000 0.09749140 19598.74898853 0 447.02831486 0 6910.29120273 0 10.38548450 0 1109.64331821 0 10476
0.09850000 0.09850240 19268.94829608 0 390.45299566 0 7186.97982048 0 173.83216729 0 60.36555421 0 10575
0.09950000 0.09950330 18808.30642912 0 427.79556145 0 6257.80514975 0 603.74659141 0 -172.03141505 0 10882
0.10050000 0.10051200 18265.94503135 0 399.75463414 0 5804.62707488 0 1306.63572227 0 -1063.23853980 0 10875
0.10150000 0.10150300 17945.92370504 0 230.94366553 0 4531.82571131 0 848.53311832 0 -996.49267982 0 11118
0.10250000 0.10250800 17454.59486159 0 167.00684417 0 4451.66863095 0 463.20023906 0 -1560.66318814 0 11575
0.10350000 0.10349800 17493.82473264 0 273.24785455 0 4013.59799066 0 12.21645162 0 -2247.82664863 0 11364
0.10450000 0.10450100 17026.77569477 0 417.36423758 0 4340.90325864 0 -768.89423195 0 -3042.97904069 0 12093
0.10550000 0.10551000 17005.86808441 0 563.23528618 0 4952.30473320 0 -1479.16847034 0 -2665.33813873 0 12067
0.10650000 0.10649700 16378.41496061 0 462.61347709 0 5776.05334072 0 -1382.33026429 0 -2029.79174640 0 12054
0.10750000 0.10749900 16667.41209090 0 240.35321426 0 6947.93614203 0 -891.76241290 0 -2569.87129207 0 12807
0.10850000 0.10850100 16541.74161573 0 87.34513929 0 7131.55217172 0 -46.59845482 0 -2196.10841462 0 12736
0.10950000 0.10950300 16609.41033313 0 -76.31817333 0 7261.14563400 0 670.79482489 0 -2384.42303631 0 12933
0.11050000 0.11050200 16747.44552410 0 -142.75738835 0 7222.97238412 0 925.73278347 0 -2450.29324960 0 13428
0.11150000 0.11150900 16791.84609449 0 13.37412624 0 6249.76808448 0 1054.45846751 0 -1752.10271074 0 13453
0.11250000 0.11250000 16354.58478106 0 334.17218152 0 6055.43971464 0 1025.13723008 0 -1793.14232656 0 13668
0.11350000 0.11349100 16173.04827175 0 516.41235556 0 5226.62157364 0 780.92510043 0 -1315.20109813 0 13791
0.11450000 0.11448600 15558.18467676 0 609.03756571 0 5098.97274394 0 503.51483291 0 -865.95387882 0 14205
0.11550000 0.11549300 15035.71923079 0 483.96958942 0 4077.30999900 0 818.82857469 0 39.41545419 0 14776
0.11650000 0.11649800 14614.08242187 0 112.21462940 0 4231.88018720 0 777.59449562 0 259.55336977 0 14553
0.11750000 0.11747300 14662.64203303 0 16.49576735 0 3628.34716816 0 1016.45382739 0 296.34739181 0 14568
0.11850000 0.11849100 14450.08132770 0 134.37523510 0 3027.60183049 0 485.79731923 0 -139.81458599 0 16015
0.11950000 0.11950300 14245.83870392 0 262.16232480 0 2693.94559484 0 -134.57981494 0 -225.83591384 0 15270
0.12050000 0.12050700 14048.56528359 0 373.33910492 0 3254.57305005 0 -610.57528673 0 -469.18813371 0 15999
0.12150000 0.12150000 13801.60818703 0 257.43113491 0 2937.27196121 0 -530.60592524 0 -1048.75833353 0 15670
0.12250000 0.12250700 13526.77427666 0 63.91726263 0 3005.92985588 0 -332.88625107 0 -1420.07636945 0 16887
0.12350000 0.12352200 13703.81452567 0 1.65974952 0 3305.89786129 0 -125.73791908 0 -2096.66237760 0 16407
0.12450000 0.12449800 13579.83014811 0 35.45312481 0 3258.90070058 0 83.74329757 0 -2134.54337056 0 16306
0.12550000 0.12549900 13548.91835860 0 205.89162724 0 3364.83259307 0 270.57820001 0 -2047.96787863 0 17523
0.12650000 0.12650100 13221.70301582 0 321.74114587 0 3297.57977975 0 148.10793810 0 -1478.76380692 0 17154
0.12750000 0.12750600 13213.72215380 0 303.47958470 0 3467.12251472 0 352.19206870 0 -821.61400795 0 18007
0.12850000 0.12850300 12917.64341355 0 237.14625660 0 3544.14345353 0 155.93817540 0 -576.73305958 0 17496
0.12950000 0.12949900 12951.36536574 0 196.24602485 0 3585.34043846 0 21.57968887 0 -68.48973453 0 18405
0.13050000 0.13049000 12819.28771965 0 17.84936652 0 3781.90569779 0 -259.07564211 0 -378.49743954 0 18100
0.13150000 0.13148800 12875.37856680 0 53.96456566 0 3724.43225060 0 -289.49171893 0 215.97336688 0 19059
0.13250000 0.13249300 12836.03628924 0 -84.27160816 0 3839.91869621 0 299.97924606 0 -849.24465151 0 18957
0.13350000 0.13349100 12809.95797954 0 21.76291147 0 3546.29041782 0 -7.91402511 0 -612.29173410 0 19468
0.13450000 0.13450700 12777.24768592 0 -4.71342966 0 3224.45934674 0 420.53747328 0 -1790.92791837 0 19953
0.13550000 0.13551000 12657.98438166 0 167.50592906 0 3479.98181916 0 -40.71700914 0 -1273.14982374 0 19956
0.13650000 0.13649900 12470.15310795 0 268.53015344 0 3362.30344665 0 91.80936372 0 -1008.04694471 0 19723
0.13750000 0.13749600 12218.25012507 0 348.55459413 0 3458.29860390 0 -270.66812521 0 -1127.43726832 0 20946
0.13850000 0.13851100 12050.31480314 0 285.68451052 0 3873.82049882 0 379.07296086 0 8.21086821 0 20955
0.13950000 0.13949800 11916.32624643 0 146.95801953 0 3798.01355029 0 151.12492875 0 -588.66051407 0 20506
0.14050000 0.14048300 11882.15466821 0 179.74025332 0 4108.05317875 0 300.39065387 0 609.15222035 0 21447
0.14150000 0.14148400 11724.89796448 0 164.03144392 0 3847.51737611 0 340.07689535 0 65.43677379 0 21771
0.14250000 0.14249400 11398.91909328 0 279.71460092 0 3855.94786416 0 200.86705637 0 163.85608977 0 22470
0.14350000 0.14350900 11182.44664151 0 204.95752917 0 3632.33759916 0 346.18731308 0 629.52927199 0 22519
0.14450000 0.14449900 10928.18312197 0 187.92794331 0 3504.17169953 0 268.17270075 0 374.92628481 0 22218
0.14550000 0.14550500 10893.38206731 0 272.03498834 0 3513.32158922 0 298.67083431 0 551.11336843 0 23559
0.14650000 0.14650700 10582.40946484 0 168.07133379 0 3151.57496740 0 361.20482246 0 275.05197900 0 23044
0.14750000 0.14750500 10515.67372145 0 134.33814095 0 2877.64030909 0 189.09809505 0 720.50323056 0 23649
0.14850000 0.14849900 10492.43929638 0 58.15373137 0 3115.93086393 0 22.55728826 0 339.73293143 0 23640
0.14950000 0.14949500 10465.59662244 0 23.09279286 0 2926.09875439 0 -83.32581980 0 235.02851800 0 24457
0.15050000 0.15050000 10514.87563524 0 130.79508784 0 3428.66824857 0 -209.59991792 0 135.43185627 0 24591
0.15150000 0.15149900 10340.73547412 0 123.61118796 0 2983.23498205 0 -236.56174276 0 356.85356656 0 25020
0.15250000 0.15250500 10334.58683817 0 160.97735912 0 3449.14871420 0 -198.22100719 0 251.07005066 0 25297
0.15350000 0.15350100 10172.60906114 0 175.66776556 0 3174.89931767 0 300.31983778 0 455.33627981 0 25452
0.15450000 0.15450400 10133.50283724 0 281.89079090 0 3311.47322405 0 279.04803033 0 630.29813250 0 26061
0.15550000 0.15549900 9900.49538824 0 137.45517340 0 3494.98808788 0 324.55468075 0 527.16291392 0 26128
0.15650000 0.15649500 9851.16017218 0 239.89571977 0 3317.81295106 0 210.69250917 0 1215.56397005 0 26331
0.15750000 0.15749700 9658.42797475 0 61.40778735 0 3128.95877813 0 216.89847244 0 909.75644659 0 27345
0.15850000 0.15849900 9678.09911353 0 51.33627670 0 3304.69511166 0 123.88096358 0 1480.65223624 0 26980
0.15950000 0.15949700 9589.47782316 0 -0.10988500 0 2976.92897699 0 101.03872482 0 909.14270706 0 27777
0.16050000 0.16050000 9600.87584300 0 104.80310634 0 3084.28843212 0 -167.35080808 0 643.60144264 0 28224
0.16150000 0.16150500 9482.84901033 0 45.53936071 0 2854.24851491 0 -166.09522740 0 86.87719100 0 28075
0.16250000 0.16249700 9550.12430495 0 45.23957256 0 3115.98706719 0 -265.07927367 0 22.09732083 0 28590
0.16350000 0.16349900 9428.74775836 0 69.04052642 0 2813.01780803 0 37.56333217 0 -381.99103379 0 29163
0.16450000 0.16449100 9389.77642228 0 135.12273837 0 2836.25223309 0 69.14427762 0 -339.49912590 0 28996
0.16550000 0.16550500 9270.09721394 0 219.78844374 0 2771.79834180 0 244.32790835 0 -559.47191631 0 30777
0.16650000 0.16650700 9054.77130854 0 300.21305159 0 2688.38147273 0 111.65889163 0 -423.49938475 0 29211
0.16750000 0.16749900 8797.94492064 0 208.28813398 0 2718.89983946 0 206.38509181 0 -146.55785236 0 30922
0.16850000 0.16850800 8687.26947354 0 111.14598074 0 2468.77287940 0 183.36648724 0 -229.56331362 0 30867
0.16950000 0.16949900 8548.46991832 0 112.05400050 0 2482.94733997 0 148.28891257 0 -167.69477200 0 30852
0.17050000 0.17049200 8438.59255742 0 97.28221175 0 2061.95124814 0 119.23183043 0 -510.68411995 0 31257
0.17150000 0.17149500 8311.61816676 0 79.99588943 0 2106.12700551 0 379.98008138 0 -315.24629788 0 32608
0.17250000 0.17250900 8239.39698582 0 65.11562840 0 1568.17194283 0 315.26428292 0 -340.36015974 0 32361
0.17350000 0.17350400 8272.19720465 0 -17.96087377 0 1716.50356988 0 487.98924612 0 -458.79053178 0 32508
0.17450000 0.17449800 8192.98433895 0 64.71759696 0 1521.01741301 0 77.14514800 0 -220.53594702 0 32791
0.17550000 0.17549800 8197.91898462 0 36.76704448 0 1718.53812766 0 37.47217050 0 -26.60122477 0 33633
0.17650000 0.17650100 8229.31412211 0 96.08305913 0 1855.93260154 0 -309.13025982 0 320.86549918 0 33984
0.17750000 0.17750300 8309.03281709 0 40.54266665 0 2131.47467291 0 -304.11580553 0 681.80391822 0 34069
