### header ###
fiducial parameters:
Omega_m = 0.31
Omega_nu = 0
Omega_de = 0.69
Omega_k = 0
H_0 = 100
w_de = -1
zeff = 0
beta = 0
fgrowth = 0
b_1 = 2
gamma = 0.55
Lx = 3500 Ly = 3500 Lz = 3500
nx = 700 ny = 700 nz = 700
xoffset = 857.220397 yoffset = 15.9954215 zoffset = 262.898189
bins = 400 dk = 0.001
kx_ny = 0.628318531 ky_ny = 0.628318531 kz_ny = 0.628318531
############################
A(data) = 3.06578317 (not used)
A(ran) = 3.06464108 (used)
Ngal = 186377
weighted Ngal = 0
Nran = 9360983
weighted Nran = 0
SN(data) = 3441.9199
SN(ran) = 68.8203212
SN(data+ran) = 3510.74022
############################
13 columns: k_central k_mean P_0(k) sigma^{lin}_{P_0(k)} P^img_1(k) sigma^{lin}_{P_1(k)} P_2(k) sigma^{lin}_{P_2(k)} P^img_3(k) sigma^{lin}_{P_3(k)} P_4(k) sigma^{lin}_{P_4(k)} N_modes
### header ###
0.00050000 0 0 0 0 0 0 0 0 0 0 0 0
0.00150000 0.00179520 11092.19545679 0 -21387.02411332 0 -16391.45411545 0 -13002.28551355 0 -24422.56184322 0 3
0.00250000 0.00253879 25479.96985749 0 -28465.59909815 0 -23105.60720358 0 6056.04670978 0 23203.17605193 0 6
0.00350000 0.00331552 43737.48440079 0 -32052.49074641 0 -29981.17603621 0 -19938.77867314 0 -26266.02856311 0 7
0.00450000 0.00420575 63860.49733941 0 -28211.56039163 0 -43222.21297129 0 -14754.47814950 0 2191.94937384 0 24
0.00550000 0.00557378 85488.18378488 0 -15552.11472537 0 -52721.91171706 0 -28458.40508168 0 -2788.65931790 0 45
0.00650000 0.00659388 85872.05200735 0 -452.09335208 0 -42155.47521691 0 -33379.33715869 0 17226.07243223 0 40
0.00750000 0.00754703 89366.43310009 0 911.19075362 0 -35317.33775122 0 -34136.28257892 0 -3035.87494943 0 57
0.00850000 0.00846663 81128.38499236 0 5860.20085209 0 -30907.29324993 0 -22371.25549133 0 -6052.70823651 0 75
0.00950000 0.00948925 79359.66859984 0 6834.97884284 0 -19489.15264390 0 -24568.35308321 0 -11033.28320631 0 112
0.01050000 0.01054430 66888.84105285 0 3319.79130559 0 -13585.45047348 0 -13327.14031968 0 -11261.22112183 0 105
0.01150000 0.01145670 65131.59012407 0 445.43663871 0 -12490.49868577 0 -3685.57332103 0 -1447.28998487 0 144
0.01250000 0.01249090 65850.42973832 0 -7769.23428769 0 -27154.03997086 0 17829.24575045 0 -3932.44049238 0 169
0.01350000 0.01339930 65249.50455024 0 -8442.77407949 0 -29496.81639621 0 19059.75978598 0 4988.92677329 0 180
0.01450000 0.01448870 74926.58076455 0 -7011.80551948 0 -50404.42675585 0 9907.83553317 0 -2007.43409210 0 267
0.01550000 0.01550050 66153.02805600 0 247.03240892 0 -30447.10100901 0 965.34258852 0 -1587.50586209 0 238
0.01650000 0.01653350 68244.46353101 0 10623.73009692 0 -39727.49465902 0 -26239.95025341 0 12442.05148112 0 315
0.01750000 0.01747870 58761.06372879 0 4459.21110759 0 -17364.33243622 0 -19781.74678243 0 20813.18889350 0 297
0.01850000 0.01844180 56336.00574009 0 8666.92389572 0 -7763.43411191 0 -26902.58661400 0 33612.80547438 0 388
0.01950000 0.01947590 59044.21572071 0 1654.05051441 0 13896.81649872 0 -16013.99306391 0 20127.95882494 0 399
0.02050000 0.02045430 58238.48587631 0 1137.55385398 0 22059.77705957 0 -11473.66942064 0 18557.19029179 0 462
0.02150000 0.02154770 61554.92746798 0 1567.03663711 0 30328.39973729 0 -5234.09660638 0 1322.81101867 0 571
0.02250000 0.02255340 59521.04412472 0 1034.01284790 0 31526.09107267 0 -4627.00030105 0 -5217.34803679 0 510
0.02350000 0.02348930 56495.84779348 0 2568.29760097 0 32421.40890340 0 -397.96062628 0 -6021.18945186 0 555
0.02450000 0.02439640 60946.80826343 0 399.00713087 0 30733.62519614 0 9529.64383932 0 -6759.65524229 0 592
0.02550000 0.02547300 55673.70659902 0 -331.97238617 0 22727.35930648 0 12571.65618405 0 -10073.71381600 0 837
0.02650000 0.02652900 62027.14720519 0 -1489.95949504 0 17529.68240847 0 10904.07192615 0 -10567.85282214 0 723
0.02750000 0.02749970 61125.98423609 0 -728.70890559 0 11893.17050593 0 7828.83221787 0 -7289.88797792 0 826
0.02850000 0.02848090 60792.24931588 0 2000.41992604 0 19956.42649479 0 1422.53807196 0 -1432.09262508 0 831
0.02950000 0.02946900 57894.97158997 0 2654.43470752 0 18314.84186203 0 -3350.53448534 0 3314.95782578 0 996
0.03050000 0.03053250 58521.18824219 0 2976.99642090 0 30669.32867396 0 -1230.92993960 0 9072.16059522 0 1041
0.03150000 0.03150510 57048.88780945 0 3976.96470993 0 32073.84798280 0 -2752.92528923 0 8894.81684864 0 1036
0.03250000 0.03246190 54071.01461779 0 3221.58174015 0 37362.91137125 0 -1522.13023744 0 8128.23819074 0 1059
0.03350000 0.03345080 53585.53091272 0 3253.28037521 0 42371.40811746 0 -3153.51959998 0 4191.53749173 0 1302
0.03450000 0.03451200 51143.27472840 0 1892.17245950 0 41017.35933040 0 1882.07835514 0 546.68455204 0 1339
0.03550000 0.03553350 50139.93424415 0 1108.48553119 0 43692.07217184 0 5133.56022624 0 1987.33580859 0 1365
0.03650000 0.03647120 50894.74394074 0 -962.94832991 0 36770.75389074 0 7328.75814815 0 -6175.11892297 0 1308
0.03750000 0.03744890 51606.05231899 0 -1079.74880759 0 36081.02756189 0 10076.56894129 0 -4437.02206304 0 1579
0.03850000 0.03847530 49799.11771399 0 -97.38326520 0 27637.38795229 0 10777.89562170 0 -7709.20921279 0 1662
0.03950000 0.03950240 49107.70528752 0 885.12480864 0 21132.87300029 0 8889.50002084 0 -568.41160584 0 1683
0.04050000 0.04050350 46957.48120919 0 2300.79259487 0 16168.88923098 0 5482.39134038 0 -3530.04767751 0 1822
0.04150000 0.04152450 43787.39289004 0 2206.68586695 0 18742.54862235 0 2407.91599634 0 4373.16392624 0 1887
0.04250000 0.04250150 42895.67206755 0 1052.35309363 0 17853.97518206 0 1221.69012470 0 1866.72362624 0 1920
0.04350000 0.04349210 42716.72090791 0 -972.70409068 0 15188.47967422 0 -685.45038532 0 5768.33101367 0 2005
0.04450000 0.04448520 43592.36759986 0 -411.05486032 0 18516.94876218 0 -995.61028874 0 737.24730388 0 2151
0.04550000 0.04548030 44189.80818621 0 591.55610569 0 19870.66032971 0 -1704.79081181 0 5710.61027217 0 2274
0.04650000 0.04648670 43972.63881409 0 2166.26448692 0 23304.11709549 0 -2189.83613151 0 2749.14843058 0 2311
0.04750000 0.04749250 40782.87935615 0 2909.23777829 0 23446.53614025 0 -220.79448198 0 2243.07185337 0 2568
0.04850000 0.04851840 39316.19924877 0 1801.85383088 0 24582.74111614 0 521.49762595 0 3122.76517958 0 2493
0.04950000 0.04949480 37529.38540857 0 515.05223682 0 18845.96260907 0 3526.42818798 0 -3378.40005850 0 2644
0.05050000 0.05050630 38230.01516864 0 874.15280946 0 22347.08809225 0 2368.27022121 0 -1093.91202751 0 2829
0.05150000 0.05149060 36538.97167267 0 854.78966451 0 15048.64597913 0 218.78240550 0 -6078.84274946 0 2784
0.05250000 0.05249300 35979.41207928 0 1262.39252099 0 19397.54134044 0 1995.42907711 0 -356.95023616 0 3055
0.05350000 0.05348950 34289.60505489 0 612.28161751 0 15769.95853654 0 1529.29053195 0 -2572.49036369 0 3009
0.05450000 0.05448610 35576.32234407 0 -1109.89061253 0 17169.08233302 0 5586.26619378 0 2837.35381687 0 3336
0.05550000 0.05550870 36417.79745779 0 -1252.29841664 0 15671.15321661 0 2052.92500560 0 1730.44197678 0 3349
0.05650000 0.05647670 38431.22281672 0 -1065.54961759 0 15800.30829351 0 2513.29709694 0 5903.61224522 0 3324
0.05750000 0.05747970 38626.02329389 0 -543.17184869 0 18252.68106349 0 -408.35373195 0 6926.30913003 0 3639
0.05850000 0.05849280 39370.60399831 0 1013.61556308 0 17549.24114075 0 -1668.10132783 0 10617.33416666 0 3846
0.05950000 0.05951020 39073.28878648 0 1524.77179036 0 20616.02787968 0 -884.53804667 0 8982.02181701 0 3787
0.06050000 0.06049470 37646.73780221 0 2095.95421660 0 20487.54724183 0 -430.68440869 0 9351.37835938 0 3930
0.06150000 0.06148310 35777.64239866 0 1133.01263108 0 19764.99821284 0 1683.83823885 0 6927.06225362 0 4083
0.06250000 0.06249100 35691.08938803 0 119.22845824 0 20646.71485618 0 2278.61479098 0 5324.94354559 0 4303
0.06350000 0.06350600 35732.45498272 0 -685.79772142 0 16916.61731761 0 2240.98109233 0 1688.35698045 0 4470
0.06450000 0.06451750 36223.22179363 0 -277.75085924 0 18254.36716110 0 1731.35246949 0 1917.14918542 0 4479
0.06550000 0.06550280 35214.71061005 0 1371.43807374 0 16337.83621147 0 -981.27171467 0 -627.23280705 0 4636
0.06650000 0.06648880 33873.13894531 0 1649.55425412 0 15749.05092618 0 1092.09553836 0 -215.95313371 0 4653
0.06750000 0.06749660 31845.55036645 0 1669.43896527 0 14762.90863755 0 951.08269900 0 -564.49086686 0 5220
0.06850000 0.06852730 31034.87463573 0 966.10807683 0 12822.77232138 0 2023.27216898 0 -726.70806976 0 5029
0.06950000 0.06949320 30181.70924525 0 -249.02650036 0 12991.49448885 0 4017.94812249 0 -1347.69781939 0 5040
0.07050000 0.07048030 29708.36544297 0 68.80829457 0 10302.05639495 0 1558.01039457 0 -1475.81875642 0 5475
0.07150000 0.07148790 29609.33531003 0 410.08928842 0 8989.11466762 0 1334.29896372 0 -2841.68146740 0 5509
0.07250000 0.07249820 28689.06323468 0 1073.83847344 0 8556.70931530 0 679.76598824 0 -2599.36675959 0 5916
0.07350000 0.07351270 27515.53929836 0 1530.34715312 0 8904.03418224 0 -526.00849909 0 -3438.35768950 0 5721
0.07450000 0.07449140 26992.73663287 0 1217.81210020 0 10062.27083356 0 528.78718795 0 -2028.90373499 0 6028
0.07550000 0.07549160 26019.74590559 0 735.95575311 0 9410.23440661 0 -185.07281803 0 -2409.01758011 0 6183
0.07650000 0.07648840 25924.08796787 0 208.27014894 0 10347.58103041 0 485.58037467 0 -725.89874291 0 6330
0.07750000 0.07749960 25614.97007277 0 207.47768306 0 10446.08285277 0 286.03634289 0 -239.99576156 0 6583
0.07850000 0.07848650 25968.82575778 0 523.34671299 0 11308.88148093 0 205.67805488 0 -785.54051162 0 6549
0.07950000 0.07947320 25029.55698270 0 599.80224707 0 11065.92605603 0 472.55920486 0 1786.94872801 0 6828
0.08050000 0.08048110 24648.38651641 0 769.43715538 0 11240.61700904 0 920.91728870 0 1554.01996356 0 7147
0.08150000 0.08149960 24210.78798345 0 219.68502976 0 10896.99031619 0 1344.83145346 0 2688.25782557 0 7386
0.08250000 0.08250610 23785.66657281 0 213.98489577 0 10133.87377872 0 1245.86876442 0 1203.89617459 0 7227
0.08350000 0.08350160 24050.72111704 0 132.86673977 0 9930.32807528 0 -324.62886905 0 1521.09609757 0 7798
0.08450000 0.08449610 23794.20946736 0 168.50072665 0 9666.88094410 0 -196.93844894 0 2424.82193504 0 7371
0.08550000 0.08548940 23563.55131436 0 514.73637453 0 10167.14610488 0 371.30454714 0 2400.69949857 0 8256
0.08650000 0.08650700 23190.13689708 0 233.67851585 0 9915.83887649 0 726.70694569 0 2378.88139550 0 8037
0.08750000 0.08749060 23092.90526826 0 107.53020062 0 9849.96866320 0 2146.77319856 0 2142.40058542 0 8155
0.08850000 0.08849210 22723.98711126 0 168.29839494 0 9043.26088219 0 2170.36732444 0 2435.06216785 0 8718
0.08950000 0.08949900 22445.89341218 0 199.83741276 0 7274.97163440 0 1421.79618901 0 1166.12758813 0 8571
0.09050000 0.09049190 22335.62262851 0 542.78292217 0 7291.61903813 0 375.75921703 0 1581.08745052 0 8932
0.09150000 0.09150830 21548.77707734 0 532.56629472 0 6485.74306527 0 -366.39687903 0 324.04098301 0 9285
0.09250000 0.09250820 21343.07316896 0 259.73884051 0 6462.85710039 0 -542.76606120 0 192.25559384 0 9204
0.09350000 0.09350330 21015.29579365 0 525.76232884 0 6469.62397213 0 -989.77189475 0 -1077.09039369 0 9349
0.09450000 0.09448040 20643.45506747 0 391.96935945 0 6548.28604594 0 -838.99879837 0 -2243.93738348 0 9564
0.09550000 0.09549270 20325.45705829 0 388.83546602 0 7080.66574586 0 -735.40720936 0 -1905.68372168 0 10155
0.09650000 0.09649430 20073.55407540 0 258.19999542 0 6552.37764281 0 -753.70923688 0 -3038.67387146 0 9913
0.09750000 0.09749140 19840.64779226 0 262.22414838 0 7261.21307790 0 590.56917656 0 -2616.87969343 0 10476
0.09850000 0.09850240 19919.44475388 0 456.38840472 0 7062.80435185 0 561.82570858 0 -3127.34012442 0 10575
0.09950000 0.09950330 18807.18236405 0 648.37534701 0 6566.85560095 0 656.89351213 0 -3031.16511677 0 10882
0.10050000 0.10051200 18605.52508994 0 725.10964922 0 6856.85314916 0 906.01668209 0 -1754.60937585 0 10875
0.10150000 0.10150300 17664.34540423 0 486.70668787 0 6201.09606681 0 925.06396475 0 -881.19957341 0 11118
0.10250000 0.10250800 17277.55461258 0 736.06366336 0 6423.11015940 0 980.58491091 0 255.93837649 0 11575
0.10350000 0.10349800 16976.08035997 0 371.02128274 0 6898.03889344 0 854.36926418 0 843.13198564 0 11364
0.10450000 0.10450100 16399.77219699 0 397.13443846 0 6408.62096061 0 169.22574862 0 1272.38545949 0 12093
0.10550000 0.10551000 16525.44267217 0 229.78138224 0 6529.85137874 0 -28.79820995 0 1756.31795477 0 12067
0.10650000 0.10649700 15908.55576005 0 273.85822189 0 6632.02889389 0 -255.46402103 0 1137.21663445 0 12054
0.10750000 0.10749900 16036.24955235 0 296.49352027 0 6729.45161377 0 -412.87022541 0 451.19185189 0 12807
0.10850000 0.10850100 15570.88661209 0 218.64976582 0 6649.02475779 0 12.99632797 0 553.74930103 0 12736
0.10950000 0.10950300 15286.72296161 0 320.01458192 0 6341.54799770 0 344.28876717 0 90.50533583 0 12933
0.11050000 0.11050200 15080.79424022 0 44.99463878 0 5882.19880558 0 889.25125152 0 172.05052415 0 13428
0.11150000 0.11150900 14944.55755336 0 119.19473629 0 5489.27061862 0 1216.15972454 0 804.39670322 0 13453
0.11250000 0.11250000 14839.12024950 0 79.70453176 0 4663.29636226 0 868.45042735 0 392.79779540 0 13668
0.11350000 0.11349100 14706.70538389 0 68.07529174 0 4849.03687494 0 694.07758475 0 1012.11830840 0 13791
0.11450000 0.11448600 14628.80767433 0 135.36216423 0 4617.53567313 0 -233.80890740 0 509.00813892 0 14205
0.11550000 0.11549300 14432.32109955 0 186.15754082 0 4720.85973465 0 -765.64568389 0 207.58671737 0 14776
0.11650000 0.11649800 14384.77314696 0 113.35521823 0 4656.27095555 0 -972.75130141 0 -744.17491693 0 14553
0.11750000 0.11747300 14577.55030699 0 140.42720145 0 5061.38400790 0 -748.98591544 0 -1508.56277200 0 14568
0.11850000 0.11849100 14140.85102609 0 152.69299953 0 4771.34149709 0 58.62325335 0 -1955.65965483 0 16015
0.11950000 0.11950300 14100.15987045 0 212.75854078 0 4428.95127582 0 314.76294990 0 -2899.16615524 0 15270
0.12050000 0.12050700 13860.50919686 0 201.70673298 0 4004.60547007 0 333.92039094 0 -2349.68942555 0 15999
0.12150000 0.12150000 13811.94958571 0 123.66851528 0 3782.68130269 0 637.83723695 0 -2820.15562125 0 15670
0.12250000 0.12250700 13741.02107959 0 108.70900766 0 3815.87494430 0 321.43315204 0 -1578.71567322 0 16887
0.12350000 0.12352200 13711.00854214 0 68.10654075 0 4096.54275240 0 -15.32550321 0 -1804.28181143 0 16407
0.12450000 0.12449800 13671.21663855 0 168.71542308 0 4256.42976840 0 -34.72045920 0 -975.57158068 0 16306
0.12550000 0.12549900 13610.62953111 0 300.99090462 0 4995.37890680 0 -417.98472150 0 -818.84431161 0 17523
0.12650000 0.12650100 13518.23138210 0 222.06355145 0 4826.10594745 0 58.21207035 0 -508.96767258 0 17154
0.12750000 0.12750600 13332.31101901 0 97.22567128 0 5093.36365923 0 208.00149739 0 -173.30048451 0 18007
0.12850000 0.12850300 13482.82333230 0 -128.38734045 0 4703.00958129 0 871.04926580 0 -272.29127518 0 17496
0.12950000 0.12949900 13329.61326284 0 -142.00426475 0 4356.48280056 0 986.24570262 0 -289.81544967 0 18405
0.13050000 0.13049000 13636.48302779 0 -104.35786417 0 3644.23020764 0 935.50090896 0 -357.92142838 0 18100
0.13150000 0.13148800 13268.91374889 0 292.24680242 0 3341.63188996 0 445.50970294 0 -139.61225427 0 19059
0.13250000 0.13249300 13125.70785858 0 431.22733212 0 3196.76238334 0 244.50663470 0 -543.89012627 0 18957
0.13350000 0.13349100 12621.67707980 0 468.73401142 0 3174.35976643 0 -548.85174950 0 -603.12610749 0 19468
0.13450000 0.13450700 12346.39354340 0 401.72174802 0 3461.22117309 0 -561.65260255 0 -1036.76455920 0 19953
0.13550000 0.13551000 12045.48132333 0 332.58275350 0 3805.34245457 0 -862.37148343 0 -634.26945441 0 19956
0.13650000 0.13649900 11682.18349170 0 246.10730336 0 3951.63952383 0 -270.32416130 0 -990.91057267 0 19723
0.13750000 0.13749600 11751.08868069 0 239.51578578 0 3911.25186575 0 181.31506849 0 -1147.26577621 0 20946
0.13850000 0.13851100 11396.78336964 0 183.77789506 0 3937.84724538 0 651.29566807 0 -1043.42239662 0 20955
0.13950000 0.13949800 11410.27215052 0 5.90292657 0 3433.69281945 0 910.90748922 0 -906.12459234 0 20506
0.14050000 0.14048300 11187.66230345 0 41.72911733 0 2974.13005496 0 1011.32359440 0 -846.93469778 0 21447
0.14150000 0.14148400 11260.09705676 0 63.37332754 0 2488.63510924 0 194.09119211 0 -919.91462265 0 21771
0.14250000 0.14249400 11032.57504531 0 189.30042677 0 2809.72429737 0 -245.93419734 0 -685.13339896 0 22470
0.14350000 0.14350900 11125.13056343 0 212.79563492 0 3010.42611617 0 -675.69125235 0 -671.05560799 0 22519
0.14450000 0.14449900 10938.22102307 0 189.48814563 0 3505.77911258 0 -700.01040021 0 -662.31262985 0 22218
0.14550000 0.14550500 10969.89717683 0 115.76521375 0 3699.28691492 0 -473.31570066 0 -426.13868954 0 23559
0.14650000 0.14650700 11068.36527724 0 111.66473677 0 4177.05953359 0 184.22527296 0 -432.14119703 0 23044
0.14750000 0.14750500 10907.93871000 0 7.93901308 0 4078.49026733 0 244.89780935 0 -285.55524304 0 23649
0.14850000 0.14849900 10848.48690829 0 111.68834213 0 4200.95715704 0 529.86179416 0 -379.95535194 0 23640
0.14950000 0.14949500 10857.60307603 0 81.71256161 0 3796.40613723 0 474.82981631 0 -286.19596013 0 24457
0.15050000 0.15050000 10665.17437617 0 171.74815065 0 3698.46634742 0 165.66808267 0 -447.34417714 0 24591
0.15150000 0.15149900 10429.93003767 0 134.97885804 0 3522.87614235 0 -70.13165638 0 -157.70970195 0 25020
0.15250000 0.15250500 10377.33503290 0 127.34870433 0 3754.43354740 0 -99.00686479 0 -366.63518083 0 25297
0.15350000 0.15350100 10336.44154554 0 116.38794580 0 3799.96942352 0 -298.81246651 0 -358.60598401 0 25452
0.15450000 0.15450400 10240.19909398 0 29.01639098 0 3923.00958642 0 -93.53570286 0 -302.09136433 0 26061
0.15550000 0.15549900 10317.16382954 0 3.34721849 0 4004.24576925 0 75.12216809 0 -361.41727076 0 26128
0.15650000 0.15649500 10425.69231234 0 10.91061398 0 3684.53918116 0 176.27588476 0 7.54982803 0 26331
0.15750000 0.15749700 10372.23177747 0 92.35936876 0 3663.00209436 0 636.72890879 0 138.05767228 0 27345
0.15850000 0.15849900 10207.91594508 0 119.82421273 0 3201.70826966 0 643.85435729 0 166.16154724 0 26980
0.15950000 0.15949700 10055.78497809 0 216.28023665 0 2851.91045956 0 421.72111380 0 -480.56142412 0 27777
0.16050000 0.16050000 9778.45564325 0 362.41544054 0 2833.23973870 0 14.49639281 0 -447.53189601 0 28224
0.16150000 0.16150500 9374.37673078 0 380.61855034 0 2861.77975090 0 -90.02221266 0 -683.89467925 0 28075
0.16250000 0.16249700 9192.64913041 0 263.80345981 0 2791.23342692 0 -351.45805421 0 -616.46988397 0 28590
0.16350000 0.16349900 8989.65421886 0 92.66016858 0 2631.25648571 0 3.79445026 0 -543.97443115 0 29163
0.16450000 0.16449100 8992.73415716 0 7.67798269 0 2902.05500247 0 37.43159175 0 -738.22299237 0 28996
0.16550000 0.16550500 9019.65551566 0 35.55665121 0 2443.45893395 0 249.72679290 0 -647.35019966 0 30777
0.16650000 0.16650700 8985.83239761 0 72.31515279 0 2782.89286407 0 413.02759452 0 -738.89181109 0 29211
0.16750000 0.16749900 8764.08808064 0 174.83708147 0 2404.89226129 0 303.70889397 0 -34.71180390 0 30922
0.16850000 0.16850800 8685.12250925 0 187.24900801 0 2518.51275888 0 376.30888485 0 -215.99022786 0 30867
0.16950000 0.16949900 8613.32847303 0 61.23535577 0 2615.20483647 0 230.63005137 0 407.81305665 0 30852
0.17050000 0.17049200 8564.22931064 0 17.61938280 0 2423.01219027 0 205.37006105 0 543.94070920 0 31257
0.17150000 0.17149500 8748.74459239 0 -96.15792187 0 2518.82749710 0 160.38722496 0 697.32388468 0 32608
0.17250000 0.17250900 8742.03392390 0 -76.98508113 0 2267.13808658 0 247.37862096 0 994.60312644 0 32361
0.17350000 0.17350400 8817.21139599 0 105.39436457 0 2481.00270739 0 69.75767993 0 741.96725313 0 32508
0.17450000 0.17449800 8671.38643406 0 148.15402476 0 2261.13557909 0 -51.73520740 0 610.97770203 0 32791
0.17550000 0.17549800 8471.70751447 0 259.82089726 0 2129.91222246 0 -13.43167837 0 489.81023154 0 33633
0.17650000 0.17650100 8321.10527598 0 156.21132321 0 1979.04020835 0 158.18068522 0 286.45786729 0 33984
0.17750000 0.17750300 8129.96925095 0 65.06695638 0 1860.72111875 0 96.96050433 0 337.85574276 0 34069
