### header ###
fiducial parameters:
Omega_m = 0.31
Omega_nu = 0
Omega_de = 0.69
Omega_k = 0
H_0 = 100
w_de = -1
zeff = 0
beta = 0
fgrowth = 0
b_1 = 2
gamma = 0.55
Lx = 3500 Ly = 3500 Lz = 3500
nx = 700 ny = 700 nz = 700
xoffset = 857.220397 yoffset = 15.9954215 zoffset = 262.898189
bins = 400 dk = 0.001
kx_ny = 0.628318531 ky_ny = 0.628318531 kz_ny = 0.628318531
############################
A(data) = 3.08399802 (not used)
A(ran) = 3.0859711 (used)
Ngal = 188620
weighted Ngal = 0
Nran = 9360983
weighted Nran = 0
SN(data) = 3435.10867
SN(ran) = 69.2993132
SN(data+ran) = 3504.40798
############################
13 columns: k_central k_mean P_0(k) sigma^{lin}_{P_0(k)} P^img_1(k) sigma^{lin}_{P_1(k)} P_2(k) sigma^{lin}_{P_2(k)} P^img_3(k) sigma^{lin}_{P_3(k)} P_4(k) sigma^{lin}_{P_4(k)} N_modes
### header ###
0.00050000 0 0 0 0 0 0 0 0 0 0 0 0
0.00150000 0.00179520 2099.04539555 0 -9645.25393209 0 -16220.82103736 0 25749.74547503 0 5910.37911696 0 3
0.00250000 0.00253879 5034.53009330 0 -9642.00538403 0 -3359.84174414 0 -15656.54037066 0 -13096.93179271 0 6
0.00350000 0.00331552 14609.92338110 0 -16401.57070111 0 -20427.63457343 0 11319.44769262 0 5645.80792070 0 7
0.00450000 0.00420575 22509.06586929 0 -18975.00527946 0 -12864.36272908 0 -7460.56601862 0 -8984.79825774 0 24
0.00550000 0.00557378 42138.95146034 0 -11852.92897631 0 -10870.85580324 0 -19265.57610086 0 -2255.98736106 0 45
0.00650000 0.00659388 48050.40967977 0 -9823.01358275 0 17289.69451537 0 -16622.67430099 0 -2135.73487954 0 40
0.00750000 0.00754703 52422.46078159 0 7866.90430189 0 13724.72213603 0 -17218.87841576 0 25404.43268458 0 57
0.00850000 0.00846663 53993.00450172 0 6102.93146398 0 31905.57544135 0 -644.53329259 0 11936.33460473 0 75
0.00950000 0.00948925 53622.06302760 0 -978.12433246 0 43706.46020478 0 22566.05596849 0 50832.69554870 0 112
0.01050000 0.01054430 63894.21929161 0 -2181.99015730 0 37814.11109159 0 33186.22277913 0 14689.39478177 0 105
0.01150000 0.01145670 71649.03182441 0 -7322.98045367 0 53641.28454035 0 37939.21953423 0 35821.36853000 0 144
0.01250000 0.01249090 78050.80722872 0 -2748.56391674 0 39856.31251640 0 27615.91830939 0 26447.56507241 0 169
0.01350000 0.01339930 85824.39164825 0 783.36432164 0 36783.34341956 0 34735.52166939 0 62161.58538793 0 180
0.01450000 0.01448870 83831.42427364 0 4181.36470282 0 40635.28961205 0 9972.50299682 0 38349.84050543 0 267
0.01550000 0.01550050 82457.14231527 0 2254.78461143 0 29172.18640310 0 10076.51273804 0 -12613.47140477 0 238
0.01650000 0.01653350 82682.62976894 0 -312.92510350 0 38207.19664765 0 8925.31273407 0 21855.30962277 0 315
0.01750000 0.01747870 80167.19694836 0 2698.58798359 0 11728.60737922 0 4305.14674867 0 5185.06488789 0 297
0.01850000 0.01844180 78758.51859875 0 -247.93503317 0 26258.60973362 0 11268.30273179 0 1806.41753507 0 388
0.01950000 0.01947590 81415.69602505 0 1218.31792948 0 26518.83079805 0 12472.73845762 0 -12553.55873637 0 399
0.02050000 0.02045430 77484.61565140 0 4946.98790541 0 21300.47110269 0 7145.26576561 0 7006.98328032 0 462
0.02150000 0.02154770 73030.28298623 0 2987.11300656 0 20563.30922775 0 10646.24512034 0 19387.64956780 0 571
0.02250000 0.02255340 72314.81556721 0 879.31676441 0 18315.06667505 0 8452.77825864 0 27803.41236358 0 510
0.02350000 0.02348930 74455.70990543 0 3039.84289913 0 32955.11500011 0 5356.27123917 0 39078.68429883 0 555
0.02450000 0.02439640 70246.42342620 0 119.87142346 0 30899.64960744 0 -2261.18054170 0 41711.13229352 0 592
0.02550000 0.02547300 73707.30737976 0 2401.07044004 0 43037.97870580 0 -3115.17774033 0 48997.77172338 0 837
0.02650000 0.02652900 73669.53879331 0 2553.76343957 0 50041.24133073 0 2182.70955894 0 39604.40953352 0 723
0.02750000 0.02749970 69827.03474742 0 4317.43277992 0 52183.82176657 0 -937.51748170 0 42900.61795387 0 826
0.02850000 0.02848090 68149.14281281 0 6442.62392907 0 58993.29557289 0 5802.19909432 0 32310.68849370 0 831
0.02950000 0.02946900 60778.19850247 0 5342.45647943 0 43686.78906600 0 4542.24579454 0 20776.31955911 0 996
0.03050000 0.03053250 58855.71000795 0 4526.50888351 0 47057.74781371 0 10606.64430781 0 21827.88243499 0 1041
0.03150000 0.03150510 52872.08681083 0 897.23211354 0 37384.15620113 0 10074.32081114 0 16740.36391414 0 1036
0.03250000 0.03246190 56391.75936771 0 -2727.79119419 0 33242.08881327 0 17852.85111699 0 17747.97584567 0 1059
0.03350000 0.03345080 55510.60475691 0 -2892.23067373 0 27040.17217895 0 10458.51501248 0 8757.52354061 0 1302
0.03450000 0.03451200 59815.66158037 0 -1414.83822621 0 20064.78636783 0 3500.41732219 0 11361.93735238 0 1339
0.03550000 0.03553350 57191.98129325 0 1134.69872869 0 20789.80833998 0 817.78094605 0 4153.12818818 0 1365
0.03650000 0.03647120 56013.17425109 0 4436.30266140 0 21381.40378795 0 -3023.72380599 0 12231.51409293 0 1308
0.03750000 0.03744890 52508.33935317 0 3410.00876836 0 20610.18274130 0 -237.12827156 0 5463.34967804 0 1579
0.03850000 0.03847530 49151.99345140 0 3855.92538285 0 20638.84640067 0 -1695.64092212 0 5437.43997810 0 1662
0.03950000 0.03950240 45015.20916939 0 3411.32392449 0 18838.43137308 0 1457.99108436 0 -5640.56977746 0 1683
0.04050000 0.04050350 42700.30955785 0 2436.70330286 0 17407.94616106 0 1526.27803756 0 -4694.37676153 0 1822
0.04150000 0.04152450 40952.72558870 0 1446.07599459 0 15795.81203322 0 633.82544870 0 -5316.72662990 0 1887
0.04250000 0.04250150 41102.56346294 0 -70.07623997 0 12982.05234224 0 2482.92485867 0 -5827.36691131 0 1920
0.04350000 0.04349210 40794.56963291 0 -2565.19518137 0 12149.12012307 0 4984.22818128 0 -4374.37791652 0 2005
0.04450000 0.04448520 43975.44897677 0 -1967.48481940 0 11441.63356606 0 3441.46010910 0 -6180.50319467 0 2151
0.04550000 0.04548030 44977.55298944 0 -931.00914492 0 9024.88241825 0 2682.41268719 0 -2047.36088349 0 2274
0.04650000 0.04648670 46286.97639309 0 1261.06612421 0 9988.37479565 0 -1265.94456663 0 -4022.35445758 0 2311
0.04750000 0.04749250 44491.17003231 0 2169.54675694 0 13168.53473786 0 -2660.27984590 0 -2274.28714045 0 2568
0.04850000 0.04851840 42684.79745984 0 2506.68759431 0 14324.86047856 0 -2513.56687256 0 -1624.56628755 0 2493
0.04950000 0.04949480 41722.59775726 0 1041.76102845 0 17992.23518605 0 -946.95962831 0 -814.04118155 0 2644
0.05050000 0.05050630 39964.55998294 0 565.49016071 0 15737.24824291 0 2065.99788240 0 -1668.50599125 0 2829
0.05150000 0.05149060 41627.05222605 0 847.13478137 0 18209.29215167 0 1851.00919652 0 -2714.27993201 0 2784
0.05250000 0.05249300 39288.09762195 0 426.42195394 0 14186.60047457 0 591.88882896 0 -2456.26203513 0 3055
0.05350000 0.05348950 39162.31474027 0 627.48122543 0 16960.34344895 0 1141.18458416 0 -4758.02132597 0 3009
0.05450000 0.05448610 38899.95795220 0 -168.66034389 0 13078.49712551 0 286.05882419 0 -607.48860404 0 3336
0.05550000 0.05550870 38837.23512113 0 -136.20970930 0 11480.41381108 0 1246.98158884 0 -2862.76892817 0 3349
0.05650000 0.05647670 38784.17924968 0 -252.14128468 0 12963.95489456 0 2557.88875839 0 -3419.91178165 0 3324
0.05750000 0.05747970 39162.31474027 0 380.52750107 0 10729.50462030 0 550.14779653 0 -4816.22541545 0 3639
0.05850000 0.05849280 38207.87108670 0 789.15662896 0 11537.74112981 0 487.93304287 0 -3295.57894391 0 3846
0.05950000 0.05951020 37194.97604933 0 1457.93488111 0 12449.47031060 0 -325.77429136 0 -1094.67526770 0 3787
0.06050000 0.06049470 35950.97323293 0 1968.51895926 0 15315.94865351 0 -1018.96611283 0 -2581.39295907 0 3930
0.06150000 0.06148310 35344.54012599 0 1277.83717510 0 14930.95636598 0 -136.05571238 0 1511.49658184 0 4083
0.06250000 0.06249100 34068.61386152 0 1368.70659561 0 15632.93500413 0 895.68989626 0 -268.65380060 0 4303
0.06350000 0.06350600 34238.01046803 0 1327.61077654 0 18946.90365264 0 -180.72605839 0 2466.85072812 0 4470
0.06450000 0.06451750 31916.14165304 0 231.68667254 0 15492.76408951 0 1786.90376540 0 -85.41669325 0 4479
0.06550000 0.06550280 32730.30198549 0 172.69124125 0 18912.28244839 0 2885.17154508 0 4140.13399594 0 4636
0.06650000 0.06648880 32443.21576582 0 -303.35818567 0 13125.37063906 0 1914.17041298 0 -321.45450928 0 4653
0.06750000 0.06749660 33460.04503094 0 -373.32111988 0 14568.44537990 0 3642.43170352 0 1197.54520693 0 5220
0.06850000 0.06852730 32332.60776262 0 400.13569220 0 12154.17841590 0 1566.46336392 0 1040.51556435 0 5029
0.06950000 0.06949320 32168.94388798 0 569.92909369 0 8834.35338836 0 2995.88071413 0 -802.49703325 0 5040
0.07050000 0.07048030 30834.79105272 0 1136.03636613 0 9230.18166320 0 892.81566187 0 840.24313840 0 5475
0.07150000 0.07148790 29751.41713527 0 1003.39668750 0 6679.57684648 0 679.92448142 0 -1335.55791660 0 5509
0.07250000 0.07249820 28734.36305713 0 677.42456069 0 6891.09217128 0 156.36419606 0 547.18251287 0 5916
0.07350000 0.07351270 28228.42136772 0 574.62318943 0 6226.74723178 0 103.43197177 0 -336.32701426 0 5721
0.07450000 0.07449140 27619.62772413 0 529.15138503 0 7016.13317002 0 503.28215144 0 464.07363762 0 6028
0.07550000 0.07549160 27521.94646928 0 810.84658861 0 8147.18992787 0 -1213.93407569 0 1018.21186517 0 6183
0.07650000 0.07648840 26646.74940337 0 665.15089416 0 8082.99457155 0 -571.72872187 0 53.10757844 0 6330
0.07750000 0.07749960 26379.44672898 0 637.84960167 0 8933.28235544 0 67.50347983 0 1130.68581638 0 6583
0.07850000 0.07848650 26224.10093588 0 108.02265352 0 9436.23403175 0 -418.67264932 0 345.64663778 0 6549
0.07950000 0.07947320 26113.38052618 0 318.01936642 0 9474.63209465 0 937.73330219 0 844.50784129 0 6828
0.08050000 0.08048110 25448.72084846 0 417.14954115 0 8361.85263488 0 430.04593973 0 -1617.32730848 0 7147
0.08150000 0.08149960 25067.55038217 0 677.43018102 0 8135.93803649 0 -440.00628034 0 -1655.80405593 0 7386
0.08250000 0.08250610 24539.35220432 0 948.51196218 0 9192.99759058 0 -188.51470528 0 -2106.07080226 0 7227
0.08350000 0.08350160 23856.70748543 0 767.35763500 0 8802.46366223 0 -630.65783333 0 -1474.82957916 0 7798
0.08450000 0.08449610 23155.40328632 0 512.31626243 0 8568.74805223 0 456.17820455 0 -1570.83597705 0 7371
0.08550000 0.08548940 23443.38875805 0 309.23030161 0 9181.34103577 0 710.96553841 0 -3163.90596125 0 8256
0.08650000 0.08650700 23014.89515218 0 268.01757977 0 8334.23435603 0 652.38376306 0 -2984.13423411 0 8037
0.08750000 0.08749060 22352.70841762 0 203.37596961 0 6470.68059330 0 1172.63592491 0 -4340.55479847 0 8155
0.08850000 0.08849210 21850.25132994 0 547.01277904 0 6399.56099612 0 1273.32967416 0 -3192.86187754 0 8718
0.08950000 0.08949900 21619.81798996 0 261.07647794 0 4745.39807520 0 1416.80534009 0 -4156.66899316 0 8571
0.09050000 0.09049190 21018.78039537 0 586.30110148 0 4364.62103169 0 610.48086527 0 -2854.43960598 0 8932
0.09150000 0.09150830 20445.16998857 0 800.96830475 0 4333.92281454 0 124.60486148 0 -3871.74097843 0 9285
0.09250000 0.09250820 19751.62183847 0 819.95601196 0 4556.55514292 0 -250.46755178 0 -2006.53484004 0 9204
0.09350000 0.09350330 18842.81522687 0 673.15423748 0 5738.07118190 0 -333.42580231 0 -555.34996969 0 9349
0.09450000 0.09448040 18944.43070948 0 516.43820905 0 6206.84003934 0 -704.30994911 0 -627.71503097 0 9564
0.09550000 0.09549270 18689.82997042 0 100.71870349 0 7139.12837031 0 -192.21063124 0 -658.95617154 0 10155
0.09650000 0.09649430 18607.32359405 0 289.46811356 0 7727.22797591 0 -586.35955286 0 -273.87620693 0 9913
0.09750000 0.09749140 18480.75386682 0 342.64538404 0 8087.46835054 0 75.63732711 0 1089.01447599 0 10476
0.09850000 0.09850240 17956.60232324 0 466.31951964 0 8093.96544666 0 663.15792679 0 87.62851609 0 10575
0.09950000 0.09950330 17880.27830477 0 367.66257630 0 7753.47489537 0 589.67217263 0 805.54212553 0 10882
0.10050000 0.10051200 17593.86652415 0 107.07203169 0 7443.77248643 0 1325.52001550 0 13.11221908 0 10875
0.10150000 0.10150300 17456.61817872 0 101.68888406 0 6060.41932292 0 829.27451142 0 -661.75958983 0 11118
0.10250000 0.10250800 17142.44199079 0 201.75169558 0 6663.00812730 0 450.43423203 0 -918.10375382 0 11575
0.10350000 0.10349800 16928.75722039 0 375.50293019 0 5470.37508474 0 -574.22077414 0 -1868.01630108 0 11364
0.10450000 0.10450100 16477.78231307 0 324.54793636 0 5622.91071516 0 -717.76500804 0 -2237.84495078 0 12093
0.10550000 0.10551000 16373.35666778 0 432.55148078 0 6269.91133059 0 -1108.29556419 0 -2268.73425899 0 12067
0.10650000 0.10649700 16149.55531172 0 183.00453829 0 6793.28726927 0 -454.47524596 0 -1764.05152247 0 12054
0.10750000 0.10749900 16121.00405887 0 287.40882635 0 7430.18253969 0 -238.55695827 0 -1918.08215943 0 12807
0.10850000 0.10850100 16147.30718158 0 183.64525538 0 8268.17305169 0 -80.46923323 0 -105.22777813 0 12736
0.10950000 0.10950300 16088.85579777 0 53.88644313 0 8795.30336772 0 619.51160406 0 108.36830353 0 12933
0.11050000 0.11050200 16190.02165435 0 -23.35188986 0 8903.56207491 0 807.50024689 0 979.98016390 0 13428
0.11150000 0.11150900 16407.52824600 0 -100.48680887 0 9065.86583081 0 982.19119990 0 2929.81940978 0 13453
0.11250000 0.11250000 16079.63846418 0 -124.96006605 0 7622.49883305 0 1648.62128011 0 1026.17699027 0 13668
0.11350000 0.11349100 16523.98138757 0 6.68655729 0 8080.91505116 0 1304.25270432 0 3506.58843944 0 13791
0.11450000 0.11448600 16159.10986484 0 204.01219044 0 6422.19966669 0 1030.33715511 0 1799.94292025 0 14205
0.11550000 0.11549300 15839.98779059 0 294.52865452 0 6208.59358085 0 365.16153152 0 2303.26553803 0 14776
0.11650000 0.11649800 15541.54851368 0 440.16364945 0 5587.30033365 0 67.55035335 0 2133.82396891 0 14553
0.11750000 0.11747300 15315.49902748 0 175.15631595 0 5168.88959149 0 160.69634285 0 1222.80294912 0 14568
0.11850000 0.11849100 14864.52412016 0 199.85539780 0 5366.52271264 0 218.13831622 0 1805.77681798 0 16015
0.11950000 0.11950300 15112.49287528 0 127.37230969 0 5091.63259901 0 404.20930403 0 1059.65389628 0 15270
0.12050000 0.12050700 14781.90533728 0 133.85254484 0 5067.84738207 0 641.00485233 0 1102.80450631 0 15999
0.12150000 0.12150000 14781.45571125 0 392.66515573 0 4213.99631189 0 286.21956550 0 449.06062451 0 15670
0.12250000 0.12250700 14419.50675772 0 462.84840669 0 4886.70429554 0 -163.52111838 0 373.88202835 0 16887
0.12350000 0.12352200 13955.71750855 0 398.53951980 0 4423.13985939 0 -594.63604399 0 -7.52372724 0 16407
0.12450000 0.12449800 13730.90449393 0 228.99678482 0 4691.04952891 0 -141.68727840 0 114.72320543 0 16306
0.12550000 0.12549900 13750.68803922 0 26.40226525 0 4819.37279766 0 -16.90515185 0 -41.64537449 0 17523
0.12650000 0.12650100 13661.54967892 0 -42.38411005 0 4607.14931186 0 549.73976091 0 -128.61440160 0 17154
0.12750000 0.12750600 13797.44914626 0 40.38911936 0 4738.20405873 0 661.24589210 0 378.76946329 0 18007
0.12850000 0.12850300 13651.77031279 0 114.44668542 0 4161.10905020 0 930.92933630 0 353.73316192 0 17496
0.12950000 0.12949900 13477.42781995 0 139.91799997 0 4242.67121191 0 708.52069688 0 974.26766520 0 18405
0.13050000 0.13049000 13401.10380149 0 176.96830885 0 4284.85737410 0 620.72109808 0 1522.11899678 0 18100
0.13150000 0.13148800 13179.32576257 0 135.25650212 0 3839.55899539 0 324.05784399 0 1810.82387016 0 19059
0.13250000 0.13249300 13179.43816907 0 24.78990631 0 4338.12681791 0 207.30120485 0 1977.68008961 0 18957
0.13350000 0.13349100 13112.78111024 0 30.47003194 0 3778.51102127 0 -101.36279278 0 1982.28875641 0 19468
0.13450000 0.13450700 13071.30310904 0 68.65002621 0 4162.87383237 0 -180.85869807 0 1785.49868406 0 19953
0.13550000 0.13551000 13243.17265872 0 165.92324544 0 4201.41802372 0 -475.26932575 0 2137.11747958 0 19956
0.13650000 0.13649900 12911.01142962 0 283.84554006 0 4360.79921044 0 403.21001018 0 2115.04084154 0 19723
0.13750000 0.13749600 12757.80136015 0 336.80474192 0 4571.33659863 0 352.46634058 0 2081.53246171 0 20946
0.13850000 0.13851100 12312.78399771 0 308.52438874 0 3899.58407029 0 606.98951915 0 2176.13377827 0 20955
0.13950000 0.13949800 12260.73978483 0 220.12791140 0 3985.77738010 0 768.73798691 0 2324.19562969 0 20506
0.14050000 0.14048300 11866.08053766 0 100.40655062 0 3839.94117752 0 382.25406502 0 2623.52291801 0 21447
0.14150000 0.14148400 11901.37618096 0 89.13071665 0 3455.72449488 0 460.17088369 0 2389.44760719 0 21771
0.14250000 0.14249400 11709.72308600 0 146.44432179 0 3216.17498715 0 194.16875260 0 2434.83735484 0 22470
0.14350000 0.14350900 11597.09176567 0 289.86153633 0 3099.99162120 0 -81.57767380 0 1886.13623006 0 22519
0.14450000 0.14449900 11266.95385370 0 297.58161526 0 3074.09316191 0 -85.48514881 0 1567.32889403 0 22218
0.14550000 0.14550500 11058.74328021 0 225.70777042 0 2917.19615901 0 196.49444323 0 1319.62991452 0 23559
0.14650000 0.14650700 10716.48794675 0 171.26367860 0 2383.29897124 0 39.90206196 0 456.81217725 0 23044
0.14750000 0.14750500 10738.53086284 0 97.34965566 0 2514.06146119 0 210.58684705 0 749.00839674 0 23649
0.14850000 0.14849900 10432.59407189 0 170.00135353 0 2213.91360537 0 -125.80761111 0 210.10349907 0 23640
0.14950000 0.14949500 10440.50749001 0 197.84556945 0 2158.21618100 0 -82.11542653 0 468.09779059 0 24457
0.15050000 0.15050000 10198.50752042 0 186.40033888 0 2064.07573113 0 -94.86041355 0 364.84679330 0 24591
0.15150000 0.15149900 10138.93207155 0 156.06407068 0 2443.56009981 0 -30.50869978 0 431.64098807 0 25020
0.15250000 0.15250500 10095.95906380 0 29.35866880 0 2023.98032997 0 -203.29054067 0 243.03748165 0 25297
0.15350000 0.15350100 10135.91957715 0 88.15356689 0 2845.73934231 0 -131.63476445 0 130.35895059 0 25452
0.15450000 0.15450400 10117.23761563 0 78.71524209 0 2399.13704812 0 -92.20582147 0 455.64427364 0 26061
0.15550000 0.15549900 9885.20810325 0 187.16807532 0 2704.10714310 0 59.13110595 0 258.60241072 0 26128
0.15650000 0.15649500 9919.55953188 0 174.31888747 0 2465.74914435 0 118.85976489 0 253.83187855 0 26331
0.15750000 0.15749700 9508.63506311 0 262.11623814 0 2500.31414535 0 299.93428346 0 83.25466648 0 27345
0.15850000 0.15849900 9502.26161414 0 151.83646194 0 2573.67063202 0 295.12103681 0 624.94083837 0 26980
0.15950000 0.15949700 9333.94411010 0 170.29698264 0 2694.11420460 0 139.99443640 0 613.66534162 0 27777
0.16050000 0.16050000 9346.94954299 0 149.22413471 0 3032.98610219 0 29.07461755 0 1246.86918234 0 28224
0.16150000 0.16150500 9246.22207179 0 166.61904172 0 2960.02303829 0 -130.23193124 0 1254.04071750 0 28075
0.16250000 0.16249700 9279.05601258 0 62.75992523 0 3444.94471083 0 67.24606893 0 2217.17339409 0 28590
0.16350000 0.16349900 9280.98940450 0 35.49437800 0 3486.68124699 0 215.07973515 0 2568.33132292 0 29163
0.16450000 0.16449100 9362.82134182 0 -168.24668795 0 3272.40072211 0 521.43243017 0 2331.40088681 0 28996
0.16550000 0.16550500 9379.16524799 0 -73.92380231 0 3182.39683170 0 433.23716047 0 2042.23514676 0 30777
0.16650000 0.16650700 9405.87303412 0 54.26941210 0 2637.71985988 0 307.01589342 0 1623.66703549 0 29211
0.16750000 0.16749900 9216.62543842 0 158.07052684 0 2560.94621539 0 121.48670497 0 1665.40357165 0 30922
0.16850000 0.16850800 9135.13072062 0 120.17492103 0 2157.27196634 0 -127.43413327 0 1389.31070840 0 30867
0.16950000 0.16949900 8931.14663180 0 110.35542577 0 2052.71143324 0 -16.86378626 0 1031.80518409 0 30852
0.17050000 0.17049200 8932.45054729 0 72.04414070 0 1841.93799138 0 36.34731858 0 787.05462727 0 31257
0.17150000 0.17149500 8831.79051999 0 163.35250862 0 2071.28098825 0 -67.94040393 0 638.49818721 0 32608
0.17250000 0.17250900 8716.68625651 0 194.45089293 0 1817.08491262 0 -172.53612027 0 677.61789989 0 32361
0.17350000 0.17350400 8503.65344385 0 232.31839711 0 2232.96650836 0 -1.68463633 0 784.13543028 0 32508
0.17450000 0.17449800 8414.13290143 0 221.85335128 0 2179.74202715 0 -72.52254279 0 797.03857325 0 32791
0.17550000 0.17549800 8263.65431009 0 105.16202032 0 2349.11615237 0 162.55442242 0 906.88108813 0 33633
0.17650000 0.17650100 8264.47487760 0 40.72285428 0 2313.60693671 0 214.92573824 0 682.13439335 0 33984
0.17750000 0.17750300 8195.49100406 0 13.19022919 0 1967.19256248 0 43.85933305 0 430.30559876 0 34069
