### header ###
fiducial parameters:
Omega_m = 0.31
Omega_nu = 0
Omega_de = 0.69
Omega_k = 0
H_0 = 100
w_de = -1
zeff = 0
beta = 0
fgrowth = 0
b_1 = 2
gamma = 0.55
Lx = 3500 Ly = 3500 Lz = 3500
nx = 700 ny = 700 nz = 700
xoffset = 857.220397 yoffset = 15.9954215 zoffset = 262.898189
bins = 400 dk = 0.001
kx_ny = 0.628318531 ky_ny = 0.628318531 kz_ny = 0.628318531
############################
A(data) = 3.03956825 (not used)
A(ran) = 3.03671749 (used)
Ngal = 185273
weighted Ngal = 0
Nran = 9360983
weighted Nran = 0
SN(data) = 3454.16618
SN(ran) = 68.1932623
SN(data+ran) = 3522.35945
############################
13 columns: k_central k_mean P_0(k) sigma^{lin}_{P_0(k)} P^img_1(k) sigma^{lin}_{P_1(k)} P_2(k) sigma^{lin}_{P_2(k)} P^img_3(k) sigma^{lin}_{P_3(k)} P_4(k) sigma^{lin}_{P_4(k)} N_modes
### header ###
0.00050000 0 0 0 0 0 0 0 0 0 0 0 0
0.00150000 0.00179520 5044.21953423 0 -10940.64900363 0 14642.74608123 0 -39609.80504587 0 -2772.49526215 0 3
0.00250000 0.00253879 13214.39659285 0 -13887.37435211 0 -13824.42670802 0 7281.87339395 0 -5294.60502926 0 6
0.00350000 0.00331552 28918.03529007 0 -24325.10540139 0 -6227.96122206 0 -9735.14541599 0 215.95762997 0 7
0.00450000 0.00420575 45624.34003250 0 -25790.88625671 0 -16648.07817164 0 -11727.37090764 0 -15452.85977942 0 24
0.00550000 0.00557378 73495.30870698 0 -20039.71971670 0 -14818.77467168 0 -28810.79948210 0 -16279.27242116 0 45
0.00650000 0.00659388 86266.82366102 0 -13797.11192674 0 -33058.86620635 0 -33158.90799786 0 -52667.73178054 0 40
0.00750000 0.00754703 95816.76811556 0 -8877.46128391 0 -25729.51230372 0 -42720.43032265 0 -21786.17962078 0 57
0.00850000 0.00846663 90864.13740349 0 558.02412050 0 -21839.46030524 0 -38458.98722403 0 -64376.78042749 0 75
0.00950000 0.00948925 89479.73885946 0 -1487.17181366 0 -17982.11860040 0 -33763.20538116 0 -47448.69764614 0 112
0.01050000 0.01054430 88803.95093751 0 9582.39621320 0 -12773.42586467 0 -38572.18057689 0 -41705.96159418 0 105
0.01150000 0.01145670 79069.43499797 0 8880.84471978 0 4000.62627971 0 -30942.13926720 0 -34951.79178945 0 144
0.01250000 0.01249090 76506.11700527 0 7984.02064186 0 13690.88777733 0 -26792.09101732 0 -21027.77291596 0 169
0.01350000 0.01339930 83010.51955076 0 -590.06109915 0 37675.40146157 0 -19394.28155173 0 8136.44386577 0 180
0.01450000 0.01448870 83415.52019660 0 -2807.08274445 0 43828.53367171 0 -8520.70551101 0 6927.56808291 0 267
0.01550000 0.01550050 92846.20134688 0 -4353.48154681 0 60595.98755412 0 9902.90088750 0 -11285.61333392 0 238
0.01650000 0.01653350 96252.11851837 0 -232.50724005 0 60778.19850247 0 9745.13835449 0 9222.79655567 0 315
0.01750000 0.01747870 95221.91287888 0 6222.30717474 0 42360.84190577 0 23603.34321795 0 -4984.45299429 0 297
0.01850000 0.01844180 90314.91920877 0 7902.97555009 0 50193.10252211 0 23881.43691703 0 7539.43042415 0 388
0.01950000 0.01947590 80998.33066341 0 8320.11609872 0 37909.31940328 0 15428.24275431 0 -12847.05212696 0 399
0.02050000 0.02045430 70729.99622064 0 6864.51927296 0 29082.71082328 0 7833.73314159 0 3794.88864939 0 462
0.02150000 0.02154770 65914.72626050 0 3558.79002143 0 24941.20546795 0 2835.64523795 0 2105.69986079 0 571
0.02250000 0.02255340 63833.18255814 0 1840.87012956 0 21850.58854947 0 735.71632725 0 -722.64007826 0 510
0.02350000 0.02348930 64571.13127863 0 -2952.05341693 0 19308.62779316 0 -989.77639101 0 7676.49891916 0 555
0.02450000 0.02439640 65640.56678917 0 -798.69544517 0 30362.00928297 0 4765.85605953 0 -646.68025688 0 592
0.02550000 0.02547300 67543.94617745 0 504.22636610 0 14554.95659902 0 5651.67554038 0 2489.96150602 0 837
0.02650000 0.02652900 64317.31738512 0 1544.33052263 0 19790.28967698 0 13561.28307440 0 4007.20206039 0 723
0.02750000 0.02749970 62831.97779753 0 3081.44454749 0 819.98860985 0 6859.43849883 0 5097.72503171 0 826
0.02850000 0.02848090 58863.46605695 0 2418.01010070 0 6046.17741844 0 12464.98240861 0 3970.35520730 0 831
0.02950000 0.02946900 55948.31569638 0 2045.40501026 0 -2557.88875839 0 -1251.94995647 0 1607.08707566 0 996
0.03050000 0.03053250 53947.92949229 0 2155.18120530 0 -1274.50994248 0 -5475.00623285 0 4227.75486839 0 1041
0.03150000 0.03150510 52740.34638426 0 2453.46311310 0 4289.70209456 0 -11979.49870354 0 -1128.03302281 0 1036
0.03250000 0.03246190 54387.43893587 0 -351.46592267 0 9170.19031025 0 -8003.35456112 0 6253.82595939 0 1059
0.03350000 0.03345080 53200.42621868 0 -303.03557899 0 19289.06906089 0 -3525.11303184 0 -2763.58142612 0 1302
0.03450000 0.03451200 55715.52181974 0 -1073.70695782 0 20173.14624088 0 4375.45701899 0 12504.09987315 0 1339
0.03550000 0.03553350 55911.89598801 0 -107.06539971 0 22238.84062571 0 6407.65426465 0 4076.25337783 0 1365
0.03650000 0.03647120 54107.77154568 0 1722.96694405 0 17812.04755484 0 5486.75271286 0 12761.28596188 0 1308
0.03750000 0.03744890 53891.83864514 0 2719.74288827 0 19612.01295639 0 5818.43059398 0 12748.35921354 0 1579
0.03850000 0.03847530 51131.58445164 0 2726.52100066 0 18057.76817982 0 843.38602435 0 19511.85875838 0 1662
0.03950000 0.03950240 49286.54404065 0 2380.08414513 0 16296.58302328 0 795.05347433 0 19626.73820885 0 1683
0.04050000 0.04050350 47705.99614137 0 1368.08835982 0 17705.93581194 0 2556.13521688 0 17371.75126570 0 1822
0.04150000 0.04152450 47284.13451944 0 -30.69158516 0 13151.89857478 0 3859.10648701 0 16393.36502608 0 1887
0.04250000 0.04250150 45762.48762998 0 496.78730345 0 16715.07245000 0 5590.56012236 0 13316.57410799 0 1920
0.04350000 0.04349210 46180.86465019 0 953.30834784 0 10820.70001968 0 3423.23901427 0 11501.65864096 0 2005
0.04450000 0.04448520 44124.94963149 0 1246.56568477 0 12736.21931075 0 1348.72071861 0 8901.10037240 0 2151
0.04550000 0.04548030 42434.46816806 0 3301.66013596 0 12491.95997037 0 -3120.58449333 0 10264.32153045 0 2274
0.04650000 0.04648670 39417.25269884 0 3322.12936094 0 13558.81013124 0 -777.71477058 0 4980.46256328 0 2311
0.04750000 0.04749250 37496.00067590 0 3530.40737834 0 16336.59973989 0 -4236.44389140 0 7456.09223963 0 2568
0.04850000 0.04851840 34802.62835425 0 2094.42548810 0 18030.22858552 0 673.98716970 0 8440.54843065 0 2493
0.04950000 0.04949480 33357.53029627 0 995.24721572 0 18986.47074321 0 1589.39429141 0 6966.75299136 0 2644
0.05050000 0.05050630 33541.53974874 0 -946.92253416 0 16063.45192712 0 4119.99074983 0 8363.22399427 0 2829
0.05150000 0.05149060 35175.59314551 0 -1283.67107283 0 17040.26447565 0 6170.58894073 0 7830.63072198 0 2784
0.05250000 0.05249300 35792.92968365 0 -1263.92124949 0 9770.47478123 0 3637.22728223 0 6306.80314629 0 3055
0.05350000 0.05348950 36672.84782287 0 -299.04065172 0 11013.73571468 0 4000.19913499 0 8446.14627471 0 3009
0.05450000 0.05448610 34859.61845346 0 625.28030602 0 7380.02675613 0 2253.95280328 0 9044.07020905 0 3336
0.05550000 0.05550870 34717.64903472 0 515.30290333 0 6118.81450346 0 2692.10212812 0 8409.51299398 0 3349
0.05650000 0.05647670 33604.82461236 0 539.38712159 0 6203.56900997 0 1448.67258491 0 6254.34302933 0 3324
0.05750000 0.05747970 33355.28216613 0 328.93628641 0 4552.59843386 0 403.87208450 0 7540.67813638 0 3639
0.05850000 0.05849280 34071.53643071 0 275.61401153 0 7868.02836697 0 -267.41732902 0 8977.93022014 0 3846
0.05950000 0.05951020 34166.29511637 0 225.76622180 0 6734.33005619 0 -359.94586958 0 11292.58253737 0 3787
0.06050000 0.06049470 34067.26498343 0 754.34096145 0 12570.86933850 0 -1067.51111114 0 11449.05239554 0 3930
0.06150000 0.06148310 34865.46359184 0 176.67830006 0 10132.36753152 0 199.06967632 0 10656.05820842 0 4083
0.06250000 0.06249100 34276.90311956 0 256.69824448 0 13961.33783392 0 -1453.07892000 0 11959.60275175 0 4303
0.06350000 0.06350600 34338.95151160 0 858.61485796 0 14628.69526782 0 -1185.50646999 0 9200.20284770 0 4470
0.06450000 0.06451750 33830.76169205 0 455.49364892 0 15646.87341103 0 -1076.58906067 0 5346.53683564 0 4479
0.06550000 0.06550280 33461.16909601 0 1433.55390968 0 14669.61123648 0 -1506.53945487 0 3806.44403834 0 4636
0.06650000 0.06648880 32430.28901748 0 486.56280754 0 12746.44830291 0 -420.91178695 0 -1492.83710163 0 4653
0.06750000 0.06749660 31628.26858782 0 377.98936213 0 12907.41442138 0 1491.98281218 0 -2439.31113383 0 5220
0.06850000 0.06852730 30674.16215377 0 82.98399162 0 9906.12695426 0 985.44087202 0 -6992.41539697 0 5029
0.06950000 0.06949320 31087.70569417 0 -101.80387591 0 10312.51020013 0 476.68339961 0 -8054.02741461 0 5040
0.07050000 0.07048030 30985.52817902 0 399.81870585 0 9616.74764184 0 -568.77467886 0 -7135.45267753 0 5475
0.07150000 0.07148790 30694.73254461 0 491.59974313 0 10489.95511257 0 -175.89707483 0 -5609.50061884 0 5509
0.07250000 0.07249820 30459.91535084 0 266.32586183 0 11519.98090166 0 -88.07600640 0 -2294.19433289 0 5916
0.07350000 0.07351270 30780.16149017 0 233.14008868 0 11254.58913790 0 1173.06306964 0 -1677.52099314 0 5721
0.07450000 0.07449140 29613.49435080 0 857.20640442 0 10850.98233275 0 1314.15571761 0 -2219.72502180 0 6028
0.07550000 0.07549160 29093.05222195 0 1228.50195904 0 10312.93734486 0 2110.57830320 0 22.93598578 0 6183
0.07650000 0.07648840 27482.37937871 0 1243.64311558 0 10183.57993625 0 1092.76885333 0 -1128.38148298 0 6330
0.07750000 0.07749960 26157.10665752 0 972.32752888 0 8075.02495018 0 1037.68404443 0 348.11396062 0 6583
0.07850000 0.07848650 26235.79121264 0 130.90749435 0 9597.75094210 0 789.61412344 0 -403.18303261 0 6549
0.07950000 0.07947320 26074.03824862 0 37.71092192 0 8557.39499500 0 -159.36544980 0 1221.30794257 0 6828
0.08050000 0.08048110 26330.99952433 0 525.58023029 0 10449.33140083 0 -262.19267456 0 1837.90259777 0 7147
0.08150000 0.08149960 25507.95907781 0 973.57861331 0 10694.47875262 0 -25.51155609 0 3799.95818287 0 7386
0.08250000 0.08250610 25457.26374301 0 822.33228553 0 11746.59242039 0 506.14514518 0 3509.81450620 0 7227
0.08350000 0.08350160 24366.80821560 0 680.05262483 0 11672.40412557 0 1170.92734600 0 4216.10955423 0 7798
0.08450000 0.08449610 24364.56008545 0 309.22805348 0 11737.37508679 0 1143.96102489 0 4332.29292018 0 7371
0.08550000 0.08548940 23490.93671064 0 277.15285662 0 10800.30947926 0 1107.74027604 0 2145.55920828 0 8256
0.08650000 0.08650700 23466.43209205 0 215.10671271 0 9856.18474306 0 -494.26490142 0 2129.67616880 0 8037
0.08750000 0.08749060 22548.74536637 0 515.94474449 0 10110.79672277 0 162.97032649 0 962.84266779 0 8155
0.08850000 0.08849210 22461.40551019 0 597.44395855 0 9443.96759945 0 -90.11146343 0 245.61383880 0 8718
0.08950000 0.08949900 21774.60175052 0 631.41657725 0 9532.80246218 0 590.40506306 0 -642.50435513 0 8571
0.09050000 0.09049190 21141.30348834 0 592.37554913 0 8590.16149188 0 920.69359975 0 -935.66052620 0 8932
0.09150000 0.09150830 20625.91965232 0 306.31672494 0 8228.76333022 0 1793.69311845 0 -627.45312380 0 9285
0.09250000 0.09250820 19914.94849359 0 216.06554022 0 6932.50272858 0 2013.59396870 0 -1260.05446564 0 9204
0.09350000 0.09350330 19932.37150222 0 -37.97620128 0 5426.03071761 0 1378.64333085 0 -484.47879090 0 9349
0.09450000 0.09448040 19843.68276796 0 175.80602556 0 4932.59987247 0 861.17885039 0 -1669.16918965 0 9564
0.09550000 0.09549270 19238.26131958 0 700.93887796 0 5397.13100458 0 -201.91468502 0 -663.77841071 0 10155
0.09650000 0.09649430 18883.95600854 0 468.36306994 0 5174.17269733 0 -665.37233498 0 301.65635115 0 9913
0.09750000 0.09749140 18491.43248502 0 604.24118004 0 5641.46902952 0 -908.97971762 0 174.61226846 0 10476
0.09850000 0.09850240 18330.24155353 0 278.34773779 0 5968.92042597 0 -90.20386158 0 26.92113369 0 10575
0.09950000 0.09950330 18002.80139774 0 202.35531852 0 6688.51316381 0 112.82465952 0 398.01233328 0 10882
0.10050000 0.10051200 18086.09461966 0 230.09499640 0 6193.37373976 0 698.64578521 0 -363.65753245 0 10875
0.10150000 0.10150300 17849.92854780 0 187.10287955 0 6034.01503435 0 908.28167321 0 -494.04683280 0 11118
0.10250000 0.10250800 17549.24114075 0 200.08695521 0 5080.47063284 0 495.71494537 0 -646.80390404 0 11575
0.10350000 0.10349800 17386.25170515 0 122.03524873 0 4521.03468661 0 817.43023774 0 -813.53984853 0 11364
0.10450000 0.10450100 17279.24071019 0 111.41744245 0 4265.51221419 0 237.70154475 0 -743.29589804 0 12093
0.10550000 0.10551000 17386.92614419 0 111.47892881 0 4016.07093382 0 413.70877796 0 -708.55217070 0 12067
0.10650000 0.10649700 17160.20221895 0 71.67769548 0 4171.59657733 0 131.75841161 0 420.29242709 0 12054
0.10750000 0.10749900 17114.22795746 0 312.58001553 0 4598.32540103 0 -310.70282686 0 -163.70209286 0 12807
0.10850000 0.10850100 16931.45497657 0 488.28599930 0 5310.52179070 0 -199.71601373 0 1072.77173568 0 12736
0.10950000 0.10950300 16450.80475131 0 659.88015303 0 5344.33366810 0 -279.31555782 0 176.15560980 0 12933
0.11050000 0.11050200 16205.30893935 0 556.99222876 0 5262.22071451 0 167.82965980 0 895.62807268 0 13428
0.11150000 0.11150900 15527.61010678 0 258.19887136 0 5304.78905883 0 120.73133324 0 733.13884604 0 13453
0.11250000 0.11250000 15666.99417584 0 55.29242373 0 5143.84542166 0 618.07617296 0 126.74058512 0 13668
0.11350000 0.11349100 15295.37826267 0 15.53693985 0 4904.85794647 0 614.63316165 0 28.91398866 0 13791
0.11450000 0.11448600 15318.53400318 0 65.90955556 0 4749.65828183 0 344.62598670 0 -137.49001942 0 14205
0.11550000 0.11549300 15100.24056598 0 174.21772161 0 4325.91947122 0 148.68008722 0 -462.85964735 0 14776
0.11650000 0.11649800 14791.45989040 0 355.93970166 0 4384.38209567 0 -159.16424216 0 -143.44531617 0 14553
0.11750000 0.11747300 14777.18426398 0 216.27236819 0 4401.92875146 0 -367.14438231 0 -564.94386509 0 14568
0.11850000 0.11849100 14746.72210049 0 133.13201913 0 4917.03157121 0 -337.94229577 0 -205.01036023 0 16015
0.11950000 0.11950300 14631.95505653 0 -43.44118085 0 4792.73245543 0 -150.91810078 0 -1066.80295015 0 15270
0.12050000 0.12050700 14706.03094485 0 16.59266176 0 4710.86679615 0 430.89460886 0 -782.36839998 0 15999
0.12150000 0.12150000 14536.07230580 0 -20.39391262 0 4256.11503018 0 562.44506843 0 -1046.36857118 0 15670
0.12250000 0.12250700 14520.89742731 0 98.17876605 0 3853.96950963 0 927.86401085 0 -446.33701484 0 16887
0.12350000 0.12352200 14283.49488387 0 236.50329138 0 3635.65359113 0 820.16283994 0 -864.03172754 0 16407
0.12450000 0.12449800 14017.76590059 0 303.78195820 0 3159.08372209 0 209.31552946 0 28.46537429 0 16306
0.12550000 0.12549900 13774.96784480 0 268.68302629 0 3453.27403302 0 199.02583778 0 -253.11360097 0 17523
0.12650000 0.12650100 13636.59543430 0 205.74887098 0 3505.47561501 0 -285.30232840 0 866.03143931 0 17154
0.12750000 0.12750600 13441.00811158 0 274.87550078 0 3609.49659688 0 321.28365139 0 757.23430495 0 18007
0.12850000 0.12850300 13252.05277279 0 302.39261377 0 4032.38111803 0 43.81706821 0 1106.48019910 0 17496
0.12950000 0.12949900 13032.86008354 0 353.43191248 0 3230.81031440 0 599.62464479 0 1212.76504802 0 18405
0.13050000 0.13049000 12626.62296612 0 353.85793314 0 3942.07373006 0 640.33490954 0 1345.77566812 0 18100
0.13150000 0.13148800 12534.11241061 0 110.88688374 0 2742.10054257 0 151.19911705 0 1242.82254807 0 19059
0.13250000 0.13249300 12246.80137792 0 113.23044701 0 3284.24836798 0 7.58743924 0 547.14317059 0 18957
0.13350000 0.13349100 12489.48702720 0 48.25330343 0 2950.96307380 0 -465.19545457 0 365.51786015 0 19468
0.13450000 0.13450700 12242.64233715 0 15.13913322 0 3333.96576616 0 -514.70939697 0 109.07938710 0 19953
0.13550000 0.13551000 12609.53717701 0 64.31787942 0 3568.54690627 0 -592.81056232 0 151.90390585 0 19956
0.13650000 0.13649900 12337.06380329 0 156.58900907 0 4125.66727845 0 64.55112292 0 410.86264519 0 19723
0.13750000 0.13749600 12395.74000011 0 266.80134136 0 4007.85401813 0 571.57247682 0 681.38126975 0 20946
0.13850000 0.13851100 12156.42654604 0 145.66646876 0 3776.81368301 0 1024.44480600 0 1331.10661891 0 20955
0.13950000 0.13949800 12014.79434683 0 95.91062755 0 3893.34550914 0 896.89939028 0 1615.22530679 0 20506
0.14050000 0.14048300 11885.30205041 0 65.78163696 0 3295.53398131 0 1177.40196082 0 2293.50865320 0 21447
0.14150000 0.14148400 11725.12277750 0 140.46092340 0 2820.59400663 0 628.32202611 0 2213.56514520 0 21771
0.14250000 0.14249400 11570.11420392 0 156.79358892 0 2696.09255913 0 320.47657267 0 2382.65825415 0 22470
0.14350000 0.14350900 11370.48024693 0 105.10222006 0 2153.69743941 0 -92.60834918 0 2112.08455040 0 22519
0.14450000 0.14449900 11353.28205132 0 35.11107181 0 2219.92735351 0 -49.71200267 0 2012.33501581 0 22218
0.14550000 0.14550500 11253.68988584 0 -2.98245938 0 2114.42260575 0 -472.96049609 0 1633.43516097 0 23559
0.14650000 0.14650700 11442.98244415 0 41.98124513 0 2397.66452287 0 -189.12057635 0 1602.90555359 0 23044
0.14750000 0.14750500 11330.35112382 0 113.45975628 0 2462.66920605 0 -346.37503195 0 1330.88180590 0 23649
0.14850000 0.14849900 11374.75169421 0 357.10872933 0 3027.09600121 0 -435.73595713 0 553.62003354 0 23640
0.14950000 0.14949500 10932.56697576 0 425.43839700 0 3012.75293087 0 -688.13015645 0 788.19442926 0 24457
0.15050000 0.15050000 10682.95708562 0 486.72017665 0 3557.62099376 0 -177.34149845 0 646.98263038 0 24591
0.15150000 0.15149900 10379.97658582 0 414.04037716 0 3725.74740674 0 -251.17908497 0 767.46217305 0 25020
0.15250000 0.15250500 10131.85046158 0 258.47988762 0 3846.33710778 0 211.45912155 0 677.56057257 0 25297
0.15350000 0.15350100 10037.17046048 0 136.72228297 0 3793.24751438 0 459.46609489 0 875.47246186 0 25452
0.15450000 0.15450400 9782.00768888 0 115.34031715 0 3289.34038276 0 435.51226818 0 712.65613228 0 26061
0.15550000 0.15549900 9605.00116182 0 127.93321816 0 3257.60802575 0 548.04129858 0 908.91676998 0 26128
0.15650000 0.15649500 9478.92602322 0 70.96717395 0 2608.96627531 0 439.95794555 0 810.49025998 0 26331
0.15750000 0.15749700 9435.94177483 0 51.83356309 0 2538.89205866 0 468.98355386 0 977.98045213 0 27345
0.15850000 0.15849900 9356.25680180 0 -87.14055944 0 1875.44637121 0 487.97350921 0 644.99528333 0 26980
0.15950000 0.15949700 9363.21476460 0 -17.07140108 0 1862.05875619 0 342.72519266 0 642.85393937 0 27777
0.16050000 0.16050000 9350.43414472 0 -13.20383038 0 1486.50861527 0 22.00784525 0 380.13745049 0 28224
0.16150000 0.16150500 9392.53038171 0 152.74807872 0 1708.07308183 0 -303.94157544 0 345.92090966 0 28075
0.16250000 0.16249700 9247.53722793 0 174.10194291 0 1715.71672432 0 -438.84174893 0 282.18529595 0 28590
0.16350000 0.16349900 9096.50784471 0 196.01446745 0 2031.01697733 0 -299.20813742 0 402.75588789 0 29163
0.16450000 0.16449100 8948.68204694 0 157.35562145 0 2109.01585275 0 -296.20351148 0 368.44267747 0 28996
0.16550000 0.16550500 9006.39154779 0 136.00737758 0 2238.42946462 0 151.78700308 0 184.82552371 0 30777
0.16650000 0.16650700 8737.62758882 0 134.78327072 0 2028.26301790 0 243.95022249 0 -64.44703449 0 29211
0.16750000 0.16749900 8760.18757483 0 218.65313802 0 2024.11521778 0 214.91337352 0 72.00715896 0 30922
0.16850000 0.16850800 8452.39607652 0 145.82945819 0 1801.37048289 0 206.35024579 0 -123.42122096 0 30867
0.16950000 0.16949900 8338.53952526 0 101.81050790 0 1773.44870648 0 85.00506062 0 -122.58042029 0 30852
0.17050000 0.17049200 8408.35520695 0 -25.78324261 0 1923.85985391 0 38.71864626 0 77.99505360 0 31257
0.17150000 0.17149500 8413.06503961 0 -57.38925471 0 1997.28378449 0 56.07083879 0 -30.40629745 0 32608
0.17250000 0.17250900 8539.92702376 0 2.34674438 0 1967.17008118 0 54.60753088 0 377.12495609 0 32361
0.17350000 0.17350400 8478.14840734 0 84.10356043 0 2153.56255160 0 31.49472966 0 370.99992551 0 32508
0.17450000 0.17449800 8469.11092416 0 163.79426619 0 2043.30300858 0 56.32476509 0 603.54650783 0 32791
0.17550000 0.17549800 8320.54324344 0 212.40558434 0 2248.07394294 0 107.72005521 0 602.90916293 0 33633
0.17650000 0.17650100 8222.96315445 0 167.95667916 0 2140.74820977 0 -8.68587563 0 996.64218048 0 33984
0.17750000 0.17750300 8013.63975654 0 129.39113056 0 2178.22453930 0 -44.96215330 0 648.97447369 0 34069
0.17850000 0.17849800 8028.76967242 0 45.75023532 0 2143.73822286 0 -82.43421139 0 685.58190093 0 34536
