### header ###
fiducial parameters:
Omega_m = 0.31
Omega_nu = 0
Omega_de = 0.69
Omega_k = 0
H_0 = 100
w_de = -1
zeff = 0
beta = 0
fgrowth = 0
b_1 = 2
gamma = 0.55
Lx = 3500 Ly = 3500 Lz = 3500
nx = 700 ny = 700 nz = 700
xoffset = 857.220397 yoffset = 15.9954215 zoffset = 262.898189
bins = 400 dk = 0.001
kx_ny = 0.628318531 ky_ny = 0.628318531 kz_ny = 0.628318531
############################
A(data) = 3.07055196 (not used)
A(ran) = 3.06743344 (used)
Ngal = 186432
weighted Ngal = 0
Nran = 9360983
weighted Nran = 0
SN(data) = 3453.66006
SN(ran) = 68.883027
SN(data+ran) = 3522.54308
############################
13 columns: k_central k_mean P_0(k) sigma^{lin}_{P_0(k)} P^img_1(k) sigma^{lin}_{P_1(k)} P_2(k) sigma^{lin}_{P_2(k)} P^img_3(k) sigma^{lin}_{P_3(k)} P_4(k) sigma^{lin}_{P_4(k)} N_modes
### header ###
0.00050000 0 0 0 0 0 0 0 0 0 0 0 0
0.00150000 0.00179520 8141.32230819 0 -6711.25300024 0 2669.19368193 0 7394.42602972 0 3354.95206108 0 3
0.00250000 0.00253879 21763.69831932 0 -16887.95365824 0 -12723.29256241 0 26688.33981107 0 23272.98049297 0 6
0.00350000 0.00331552 35472.90835734 0 -18321.58625247 0 -1173.99604365 0 -12950.46611368 0 -30123.25786145 0 7
0.00450000 0.00420575 62245.10342286 0 -27681.45130315 0 -13595.79187215 0 20507.78041314 0 699.44611954 0 24
0.00550000 0.00557378 95613.42474384 0 -27599.16973980 0 -17967.61816095 0 37514.99737564 0 30417.65050409 0 45
0.00650000 0.00659388 137754.17470830 0 -28723.23481290 0 -30597.27610277 0 19403.49888533 0 -29238.73105542 0 40
0.00750000 0.00754703 135494.80391137 0 -15884.61317399 0 -20559.93703253 0 26492.52767534 0 41532.63075991 0 57
0.00850000 0.00846663 148377.71371416 0 -3140.66029554 0 -25151.63044964 0 12266.36011019 0 15786.48229311 0 75
0.00950000 0.00948925 133755.87524328 0 5887.99898135 0 -19476.56311508 0 4732.21279189 0 47910.80079769 0 112
0.01050000 0.01054430 132295.71471333 0 16622.78670750 0 -42262.48621187 0 6496.70269974 0 30070.98883555 0 105
0.01150000 0.01145670 108016.24635391 0 16559.61425039 0 -31880.73360324 0 4036.68628726 0 34369.63848809 0 144
0.01250000 0.01249090 94637.39904087 0 12814.22942682 0 -40784.34064075 0 -2069.13402396 0 19119.44764136 0 169
0.01350000 0.01339930 81662.09108907 0 5681.68807784 0 -33093.71222362 0 1054.55738524 0 5104.09848067 0 180
0.01450000 0.01448870 75583.37198676 0 6035.34143113 0 -26976.43768931 0 -18907.11174905 0 4953.59740804 0 267
0.01550000 0.01550050 78091.16116485 0 3323.15226016 0 -15775.80367492 0 -25134.65706703 0 1927.86152557 0 238
0.01650000 0.01653350 70235.51999499 0 1274.38629532 0 5659.21801702 0 -22499.73612918 0 9635.93543263 0 315
0.01750000 0.01747870 79376.30476292 0 -1632.71575933 0 9247.57094988 0 -16321.64967441 0 7684.07511775 0 297
0.01850000 0.01844180 78967.25748282 0 -927.84040548 0 23967.09067560 0 -1844.34349064 0 -12466.66850622 0 388
0.01950000 0.01947590 80661.44836100 0 4945.92004359 0 32265.83829728 0 -14400.84727750 0 -27998.99968630 0 399
0.02050000 0.02045430 74665.79766759 0 8417.57254055 0 30706.31041486 0 -12937.42695883 0 -26234.66714757 0 462
0.02150000 0.02154770 67415.80275912 0 7013.46913579 0 32213.90649090 0 -805.27010178 0 -22389.69015852 0 571
0.02250000 0.02255340 63595.55520168 0 -3272.09722454 0 12937.08973931 0 14996.37695323 0 -27155.72606846 0 510
0.02350000 0.02348930 66675.83072150 0 -4994.59206125 0 15848.30587213 0 18056.08208221 0 -33723.30107106 0 555
0.02450000 0.02439640 68874.72681749 0 -1744.25673653 0 7002.17228181 0 13858.26106672 0 -38869.83300825 0 592
0.02550000 0.02547300 66582.87053995 0 4497.94639001 0 -271.07503677 0 593.06909728 0 -23886.15799034 0 837
0.02650000 0.02652900 60534.83841414 0 7053.03622637 0 5367.50064925 0 -5104.42445955 0 -20593.32176520 0 723
0.02750000 0.02749970 54165.88570996 0 6311.17575942 0 4762.01175698 0 -6689.94072645 0 -8592.97165456 0 826
0.02850000 0.02848090 50293.93115917 0 1984.12098248 0 9359.80884743 0 -1837.83515387 0 -20920.87432751 0 831
0.02950000 0.02946900 50190.40476593 0 -474.39592719 0 11415.55525637 0 -3272.33327820 0 -17664.90743677 0 996
0.03050000 0.03053250 49725.26663869 0 -1594.80104441 0 12543.55455722 0 -5369.65885419 0 -24153.68547774 0 1041
0.03150000 0.03150510 52689.20142343 0 -1358.60125060 0 11646.43822238 0 -3941.96132355 0 -24860.16037618 0 1036
0.03250000 0.03246190 51632.35544171 0 101.14798394 0 11961.73847538 0 -2936.09169289 0 -25063.16652838 0 1059
0.03350000 0.03345080 53872.39231938 0 1126.00970568 0 10633.55442566 0 -1238.22512192 0 -25683.53804223 0 1302
0.03450000 0.03451200 51111.46368683 0 1492.82586098 0 9509.47811191 0 1458.83413317 0 -19305.59281746 0 1339
0.03550000 0.03553350 51947.88050772 0 -41.57905465 0 11356.31702701 0 4155.94959152 0 -15146.21482747 0 1365
0.03650000 0.03647120 50325.06776169 0 -449.34164078 0 9855.15060319 0 5031.77613387 0 -11872.82492810 0 1308
0.03750000 0.03744890 52996.18359490 0 -1162.63174576 0 12419.79499267 0 3025.05020277 0 -6603.16290281 0 1579
0.03850000 0.03847530 52251.37807746 0 -35.83744266 0 12916.40694197 0 2762.60348950 0 -1611.80814897 0 1662
0.03950000 0.03950240 53675.79333809 0 1840.91509217 0 15857.41079922 0 -2873.68360003 0 126.80128464 0 1683
0.04050000 0.04050350 50899.57742055 0 1105.11333597 0 16124.26384758 0 2257.19011069 0 3915.03996505 0 1822
0.04150000 0.04152450 48251.72973436 0 3595.79424364 0 12104.04511364 0 644.79519975 0 6739.99534416 0 1887
0.04250000 0.04250150 47238.27266445 0 4197.34890816 0 15619.67103626 0 880.56222851 0 7367.58335577 0 1920
0.04350000 0.04349210 43223.56184937 0 1825.05453399 0 9703.19948661 0 6079.85440803 0 9268.69213260 0 2005
0.04450000 0.04448520 39456.03294387 0 1494.50071794 0 9015.21545862 0 6777.40422979 0 7497.87373839 0 2151
0.04550000 0.04548030 39671.85343790 0 -1145.06260866 0 184.78505737 0 5024.05380682 0 6971.36165815 0 2274
0.04650000 0.04648670 39206.26568462 0 -727.69612296 0 3352.43415531 0 1070.04812601 0 2942.02675647 0 2311
0.04750000 0.04749250 40203.98584351 0 -534.25464046 0 -985.76572683 0 -2462.54555889 0 961.10935945 0 2568
0.04850000 0.04851840 39320.13347653 0 1149.18792748 0 4547.19168086 0 -6336.90560895 0 359.66597737 0 2493
0.04950000 0.04949480 40057.63257099 0 1248.19557912 0 3860.60149356 0 -6054.74279430 0 -391.49950024 0 2644
0.05050000 0.05050630 38877.02702471 0 1135.72162791 0 8393.24777237 0 -4489.68451172 0 -3087.49201758 0 2829
0.05150000 0.05149060 39601.03733830 0 1487.75632750 0 9628.32551209 0 -3751.81447578 0 -5851.98393641 0 2784
0.05250000 0.05249300 38889.50414702 0 966.08447147 0 12744.31257928 0 -329.76247423 0 -3259.93484045 0 3055
0.05350000 0.05348950 37487.68259436 0 478.06487559 0 11473.21979462 0 -613.33037023 0 -7079.08081411 0 3009
0.05450000 0.05448610 37526.91246541 0 506.70605365 0 12800.06620690 0 293.53160880 0 -4863.49235178 0 3336
0.05550000 0.05550870 37632.68698879 0 719.24090548 0 16187.09908516 0 -1525.24389769 0 -4505.92725203 0 3349
0.05650000 0.05647670 36414.20044955 0 1437.63426589 0 14061.82925146 0 -1868.97175639 0 -8845.34674477 0 3324
0.05750000 0.05747970 36084.62457012 0 1434.77914061 0 17942.10188379 0 -4595.76253267 0 -3998.27698371 0 3639
0.05850000 0.05849280 34719.22272583 0 1621.73364356 0 20137.85059759 0 -2021.70971852 0 -4957.77893011 0 3846
0.05950000 0.05951020 34706.74560352 0 687.97391140 0 19847.61699571 0 222.24564999 0 -2535.07023741 0 3787
0.06050000 0.06049470 33313.46694541 0 -411.90015726 0 19213.53188798 0 3277.89740032 0 -3449.09251095 0 3930
0.06150000 0.06148310 33558.28831833 0 345.44992639 0 16601.99150364 0 4186.87262168 0 -2900.23401706 0 4083
0.06250000 0.06249100 32971.97597620 0 -44.80512141 0 14620.71440580 0 6072.19952488 0 -4700.13197470 0 4303
0.06350000 0.06350600 32364.41880419 0 582.99522610 0 13443.36864824 0 3175.48383150 0 -1527.52574979 0 4470
0.06450000 0.06451750 31364.56292167 0 1038.98683585 0 10091.45156286 0 3512.24248675 0 -1978.02854978 0 4479
0.06550000 0.06550280 30739.69514753 0 1060.10801857 0 10817.22665861 0 935.80215840 0 2021.52986811 0 4636
0.06650000 0.06648880 29207.59445290 0 263.68543298 0 8814.97450650 0 982.33395616 0 533.10697002 0 4653
0.06750000 0.06749660 29805.25985227 0 42.78596332 0 9626.60569253 0 1457.79999330 0 1957.10969877 0 5220
0.06850000 0.06852730 29591.23786235 0 -331.01468273 0 8377.15116052 0 1111.55198071 0 629.42923020 0 5029
0.06950000 0.06949320 29746.35884244 0 164.22253498 0 9520.42650572 0 -147.43125092 0 1567.27269077 0 5040
0.07050000 0.07048030 29301.79110603 0 1200.42281351 0 10525.57673474 0 -827.19274290 0 2277.70429827 0 5475
0.07150000 0.07148790 28098.70425829 0 1418.17669948 0 10420.29679999 0 -832.60736436 0 1620.27235897 0 5509
0.07250000 0.07249820 27370.08527790 0 1310.25521181 0 11290.22200071 0 -60.46773173 0 1931.44729315 0 5916
0.07350000 0.07351270 26726.89524308 0 401.17095613 0 10761.03464560 0 1256.56986392 0 1812.25143280 0 5721
0.07450000 0.07449140 26450.15042208 0 121.46984399 0 10533.59131871 0 1410.40940982 0 1876.26693872 0 6028
0.07550000 0.07549160 26049.75844304 0 -12.28378312 0 10416.89088282 0 1352.26152359 0 1893.34148718 0 6183
0.07650000 0.07648840 26476.00391876 0 -326.68590813 0 8715.09008410 0 1851.88596728 0 2628.79478320 0 6330
0.07750000 0.07749960 25974.78330267 0 -4.40281676 0 7552.70563266 0 1468.38868629 0 1767.50240224 0 6583
0.07850000 0.07848650 26597.85257269 0 145.33824176 0 7614.21447346 0 1079.05750757 0 831.67663848 0 6549
0.07950000 0.07947320 26225.44981397 0 252.79886274 0 7758.66807600 0 870.55692529 0 3496.83155460 0 6828
0.08050000 0.08048110 25646.44389481 0 513.88320914 0 7599.63534946 0 -277.10789402 0 1910.35983238 0 7147
0.08150000 0.08149960 25433.77078298 0 257.76723037 0 6950.25171608 0 -215.53610557 0 2652.22029933 0 7386
0.08250000 0.08250610 25714.78705126 0 -19.22083831 0 6892.11507050 0 110.22391016 0 2424.20369925 0 7227
0.08350000 0.08350160 25435.68169361 0 543.14824332 0 6513.65360104 0 3.31121469 0 584.40929996 0 7798
0.08450000 0.08449610 24984.48197327 0 737.79697170 0 5307.39688980 0 -498.17889601 0 -207.54849916 0 7371
0.08550000 0.08548940 24128.95604613 0 982.76334902 0 6055.19242033 0 -1376.45140396 0 -2082.88133980 0 8256
0.08650000 0.08650700 23154.39162775 0 1242.49656920 0 5784.00048079 0 -1392.10963043 0 -1753.53027338 0 8037
0.08750000 0.08749060 22343.26627101 0 752.96285767 0 6422.67177402 0 316.31303564 0 -3600.94246167 0 8155
0.08850000 0.08849210 21513.81865357 0 566.24328431 0 5616.06515887 0 701.62230952 0 -2154.30443455 0 8718
0.08950000 0.08949900 21400.06326817 0 42.04734016 0 5314.89440383 0 1007.15556111 0 -4004.68415463 0 8571
0.09050000 0.09049190 21014.95857412 0 100.84471119 0 5336.56637844 0 1122.64537891 0 -2681.78321075 0 8932
0.09150000 0.09150830 20817.34793427 0 317.06840736 0 4835.19963389 0 891.15766589 0 -2677.73657649 0 9285
0.09250000 0.09250820 20475.85696507 0 43.60877895 0 4715.93632963 0 78.09824277 0 -1654.94976647 0 9204
0.09350000 0.09350330 20738.10134662 0 266.69792737 0 5422.48991263 0 633.39830398 0 -163.08722926 0 9349
0.09450000 0.09448040 20234.52019387 0 30.05750005 0 5376.78542676 0 507.88294978 0 -1918.12712204 0 9564
0.09550000 0.09549270 20351.19814846 0 254.64794979 0 5124.93864713 0 203.67272279 0 -893.77673751 0 10155
0.09650000 0.09649430 20055.56903423 0 474.75562801 0 5369.17550621 0 -309.28425673 0 -701.17043536 0 9913
0.09750000 0.09749140 19458.46566740 0 641.20830810 0 5548.49760732 0 -707.87098726 0 -252.04686321 0 10476
0.09850000 0.09850240 19290.64275199 0 638.96579828 0 6069.29943699 0 -380.96139018 0 -652.90195706 0 10575
0.09950000 0.09950330 18928.24417242 0 296.34514368 0 6167.25046746 0 -713.53065491 0 -1407.63296909 0 10882
0.10050000 0.10051200 18674.54268542 0 271.41450442 0 6358.64502746 0 -995.16853117 0 -2599.88382952 0 10875
0.10150000 0.10150300 18735.35460588 0 362.51773046 0 6851.61500592 0 -576.54421664 0 -2334.12112429 0 11118
0.10250000 0.10250800 18153.87574357 0 359.46364566 0 7329.21901483 0 -151.56668633 0 -1800.80845036 0 11575
0.10350000 0.10349800 18028.87970744 0 445.63784636 0 6929.95110086 0 -56.26237948 0 -2146.71699530 0 11364
0.10450000 0.10450100 17883.65049999 0 382.00452257 0 7696.04641078 0 1068.75994744 0 -1364.74988655 0 12093
0.10550000 0.10551000 17248.66614020 0 495.45978260 0 7342.74151766 0 1415.80492217 0 -1007.20277184 0 12067
0.10650000 0.10649700 16746.77108506 0 334.37226510 0 6824.91846043 0 1719.40365776 0 541.59028913 0 12054
0.10750000 0.10749900 16386.84544865 0 242.56987058 0 5760.60868662 0 1151.94188691 0 -268.16595636 0 12807
0.10850000 0.10850100 16142.13648224 0 199.86551439 0 5687.42080971 0 857.06702035 0 -188.14601194 0 12736
0.10950000 0.10950300 15804.13011476 0 182.01086477 0 5100.65884155 0 -28.17289255 0 -1106.33069844 0 12933
0.11050000 0.11050200 15501.30698407 0 279.90119572 0 5468.94752210 0 -763.14576317 0 -424.83477405 0 13428
0.11150000 0.11150900 15684.41718447 0 244.78652690 0 5182.18728130 0 -842.74305912 0 -975.05001449 0 13453
0.11250000 0.11250000 15590.89497039 0 246.87841200 0 6381.90193382 0 -370.25691849 0 -704.89333888 0 13668
0.11350000 0.11349100 15519.85405777 0 217.86179621 0 6300.84560140 0 -409.45868792 0 -472.63339316 0 13791
0.11450000 0.11448600 15531.20711501 0 152.91444035 0 6992.12314005 0 141.11850147 0 -617.10160855 0 14205
0.11550000 0.11549300 15542.11054622 0 71.89295395 0 7444.72794174 0 -129.24387804 0 -77.42121838 0 14776
0.11650000 0.11649800 15416.32766454 0 93.56043229 0 7116.39977454 0 18.88496767 0 -458.63990706 0 14553
0.11750000 0.11747300 15470.62000757 0 73.97179989 0 7273.30801809 0 -22.05640486 0 -678.48792625 0 14568
0.11850000 0.11849100 15454.43347052 0 -11.89170922 0 7000.72223786 0 18.92959305 0 -926.08349177 0 16015
0.11950000 0.11950300 15665.19567172 0 -38.69054463 0 6937.29124579 0 544.48138450 0 -1280.28763696 0 15270
0.12050000 0.12050700 15443.75485232 0 -159.37107013 0 6015.28811023 0 756.08775857 0 -1465.18510083 0 15999
0.12150000 0.12150000 15625.40376814 0 70.35051185 0 5877.06182819 0 476.75196758 0 -1541.73393231 0 15670
0.12250000 0.12250700 15322.58063744 0 291.77919135 0 5462.67523899 0 224.08349639 0 -1723.20299771 0 16887
0.12350000 0.12352200 14979.29116412 0 466.78375852 0 5687.01614628 0 93.90192326 0 -766.96084003 0 16407
0.12450000 0.12449800 14817.20098058 0 468.85878264 0 5606.78038136 0 7.19655685 0 -729.04162885 0 16306
0.12550000 0.12549900 14200.20166195 0 430.97891374 0 5907.83872989 0 117.82225283 0 -144.96505215 0 17523
0.12650000 0.12650100 14188.96101122 0 432.24011475 0 6038.12911252 0 -151.36435461 0 15.69037473 0 17154
0.12750000 0.12750600 13558.47291172 0 354.29182226 0 6009.82515398 0 306.69103861 0 -66.35041388 0 18007
0.12850000 0.12850300 13517.78175608 0 300.23890509 0 6252.66817237 0 342.05637394 0 496.15220668 0 17496
0.12950000 0.12949900 13127.73117571 0 132.97802221 0 5425.82838590 0 765.59959722 0 -80.74755175 0 18405
0.13050000 0.13049000 13077.03584091 0 118.11450975 0 5683.13812178 0 823.72050589 0 218.72732631 0 18100
0.13150000 0.13148800 12835.92388273 0 -23.35874666 0 4748.65786391 0 758.48651344 0 21.66399375 0 19059
0.13250000 0.13249300 12908.42607995 0 20.93739808 0 4340.81333344 0 699.50232279 0 -495.52835056 0 18957
0.13350000 0.13349100 12683.16343930 0 112.43460894 0 3832.20760981 0 181.13184588 0 -408.39532236 0 19468
0.13450000 0.13450700 12471.61439254 0 218.64526956 0 3352.68144963 0 -56.47021911 0 -803.60536141 0 19953
0.13550000 0.13551000 12414.96151286 0 264.44417690 0 3588.88124344 0 3.29880501 0 -392.47968499 0 19956
0.13650000 0.13649900 12044.46966476 0 123.20427640 0 3395.82306713 0 -20.96932153 0 -553.33676914 0 19723
0.13750000 0.13749600 12071.11000700 0 143.04290088 0 3561.43157435 0 64.42590207 0 -530.96562606 0 20946
0.13850000 0.13851100 12051.88849425 0 126.52364056 0 3499.92273355 0 118.99240457 0 -55.28747784 0 20955
0.13950000 0.13949800 11953.53280035 0 227.31630754 0 3676.18737767 0 95.38231696 0 136.93473127 0 20506
0.14050000 0.14048300 11798.07460074 0 287.04013300 0 3940.18530073 0 -190.82690713 0 586.69789645 0 21447
0.14150000 0.14148400 11725.45999702 0 161.48094027 0 4112.50447644 0 56.50416588 0 382.46089299 0 21771
0.14250000 0.14249400 11474.90589222 0 114.56021599 0 4131.50117618 0 301.35734984 0 616.07983339 0 22470
0.14350000 0.14350900 11487.94504707 0 107.52547954 0 4002.66083750 0 339.73630363 0 280.28899817 0 22519
0.14450000 0.14449900 11252.79063378 0 196.98678374 0 3982.43890683 0 354.69985788 0 215.05050946 0 22218
0.14550000 0.14550500 11015.44429360 0 331.41484989 0 3519.26789346 0 343.27148828 0 240.18235636 0 23559
0.14650000 0.14650700 10751.88475591 0 311.92468559 0 3359.18978640 0 419.54267569 0 -145.46301298 0 23044
0.14750000 0.14750500 10403.76180277 0 250.24049064 0 3254.48312484 0 185.08181055 0 380.18578528 0 23649
0.14850000 0.14849900 10248.79819179 0 203.16914164 0 2971.71331505 0 288.87348314 0 191.57553447 0 23640
0.14950000 0.14949500 10191.83057389 0 93.31662258 0 3018.09223997 0 113.77112231 0 505.37965687 0 24457
0.15050000 0.15050000 10030.76328956 0 76.28265287 0 3210.75699350 0 155.25586790 0 533.91292468 0 24591
0.15150000 0.15149900 10231.73488398 0 -75.65857194 0 3065.57274866 0 261.25295616 0 880.75107144 0 25020
0.15250000 0.15250500 10191.17861614 0 -187.75258916 0 2993.80119374 0 235.48713655 0 758.32914433 0 25297
0.15350000 0.15350100 10486.60539865 0 -126.29882755 0 2895.35557464 0 358.71164613 0 714.66371250 0 25452
0.15450000 0.15450400 10522.86773791 0 44.63718609 0 2948.31028023 0 0.37445193 0 813.28243762 0 26061
0.15550000 0.15549900 10437.62988342 0 179.48846274 0 2599.64777586 0 222.37042122 0 537.59423780 0 26128
0.15650000 0.15649500 10281.41856021 0 257.11864482 0 2745.07931502 0 -248.59036311 0 911.16714825 0 26331
0.15750000 0.15749700 10056.57182364 0 290.63938937 0 2419.38146008 0 181.67252118 0 511.00335443 0 27345
0.15850000 0.15849900 9793.55183718 0 152.72896961 0 2724.07053880 0 141.99190003 0 729.24058837 0 26980
0.15950000 0.15949700 9717.78985126 0 164.30459173 0 2312.37046513 0 84.12334397 0 512.91201692 0 27777
0.16050000 0.16050000 9606.36128056 0 155.03555114 0 2715.30283123 0 -120.50652023 0 182.33909177 0 28224
0.16150000 0.16150500 9375.54575845 0 120.77854397 0 2385.13119731 0 -95.81721774 0 -73.19237317 0 28075
0.16250000 0.16249700 9282.36076389 0 131.26494704 0 2634.49379312 0 -262.48942774 0 -305.39723971 0 28590
0.16350000 0.16349900 9230.46267947 0 72.05897836 0 2561.30591621 0 143.97362676 0 -335.51768741 0 29163
0.16450000 0.16449100 9184.16243911 0 97.01479667 0 2705.42229924 0 84.92750013 0 -330.98995329 0 28996
0.16550000 0.16550500 9124.80056260 0 103.74389982 0 2454.59841883 0 152.38837789 0 -546.01236113 0 30777
0.16650000 0.16650700 9060.57148432 0 110.57113386 0 2539.24051883 0 174.35710568 0 -99.85778205 0 29211
0.16750000 0.16749900 8924.84062674 0 230.43558812 0 2480.02477078 0 147.91797110 0 119.47125629 0 30922
0.16850000 0.16850800 8806.13935502 0 246.19385638 0 2631.26772636 0 109.91805205 0 399.28365088 0 30867
0.16950000 0.16949900 8603.26809063 0 240.09692742 0 2632.68404836 0 149.01955487 0 645.69220368 0 30852
0.17050000 0.17049200 8404.75819872 0 214.35358911 0 2643.89097713 0 248.90172914 0 759.12498240 0 31257
0.17150000 0.17149500 8307.95371462 0 20.59590711 0 2288.55152623 0 243.64897305 0 310.52859677 0 32608
0.17250000 0.17250900 8357.32265264 0 -101.04277145 0 2072.36009072 0 225.46946862 0 434.46576360 0 32361
0.17350000 0.17350400 8308.87544798 0 -52.65390578 0 2044.06737283 0 196.38990518 0 -125.44791029 0 32508
0.17450000 0.17449800 8421.91143174 0 14.86160155 0 1616.81023854 0 -128.85382746 0 -127.00249228 0 32791
0.17550000 0.17549800 8272.51194287 0 153.38542361 0 1991.97819734 0 -283.59487355 0 -516.08075636 0 33633
0.17650000 0.17650100 8228.79705218 0 135.90059140 0 1812.76850274 0 -211.27702301 0 -179.19395769 0 33984
0.17750000 0.17750300 8104.76771201 0 163.80213465 0 2236.42862879 0 -139.12890629 0 -166.83486221 0 34069
