### header ###
fiducial parameters:
Omega_m = 0.31
Omega_nu = 0
Omega_de = 0.69
Omega_k = 0
H_0 = 100
w_de = -1
zeff = 0
beta = 0
fgrowth = 0
b_1 = 2
gamma = 0.55
Lx = 3500 Ly = 3500 Lz = 3500
nx = 700 ny = 700 nz = 700
xoffset = 857.220397 yoffset = 15.9954215 zoffset = 262.898189
bins = 400 dk = 0.001
kx_ny = 0.628318531 ky_ny = 0.628318531 kz_ny = 0.628318531
############################
A(data) = 3.06795899 (not used)
A(ran) = 3.06640657 (used)
Ngal = 186955
weighted Ngal = 0
Nran = 9360983
weighted Nran = 0
SN(data) = 3449.60723
SN(ran) = 68.8599675
SN(data+ran) = 3518.4672
############################
13 columns: k_central k_mean P_0(k) sigma^{lin}_{P_0(k)} P^img_1(k) sigma^{lin}_{P_1(k)} P_2(k) sigma^{lin}_{P_2(k)} P^img_3(k) sigma^{lin}_{P_3(k)} P_4(k) sigma^{lin}_{P_4(k)} N_modes
### header ###
0.00050000 0 0 0 0 0 0 0 0 0 0 0 0
0.00150000 0.00179520 2053.36339098 0 -6977.67890387 0 -7532.00035401 0 13953.13215889 0 -30694.84495112 0 3
0.00250000 0.00253879 6802.97671020 0 -10296.53723544 0 -2172.68289849 0 9294.11848456 0 24129.74289168 0 6
0.00350000 0.00331552 16473.06123976 0 -12936.30289376 0 247.81251008 0 -5791.58792003 0 -38574.99073957 0 7
0.00450000 0.00420575 25720.63218964 0 -12993.63021249 0 -12483.97910835 0 12129.33657778 0 -3303.72841569 0 24
0.00550000 0.00557378 39583.05229713 0 -7757.37540117 0 -16666.17561932 0 -2127.58540776 0 -6068.22033452 0 45
0.00650000 0.00659388 40649.56523848 0 -2720.55221512 0 -22351.02232001 0 -12431.37286293 0 16117.96908317 0 40
0.00750000 0.00754703 50979.83566677 0 -5750.10991884 0 -13230.69553641 0 2302.55737704 0 9320.25299751 0 57
0.00850000 0.00846663 46328.90402032 0 -4523.50762977 0 -23290.85312763 0 -4926.40627392 0 6420.32247802 0 75
0.00950000 0.00948925 56453.58294673 0 -5147.47615185 0 -27860.73968231 0 6823.00754981 0 8820.50490666 0 112
0.01050000 0.01054430 55422.92768121 0 -5832.78490496 0 -21042.61057492 0 -4262.80321736 0 -9287.93612665 0 105
0.01150000 0.01145670 56138.39510024 0 -3295.81499758 0 -24871.85065294 0 -10053.04225931 0 -2320.84591578 0 144
0.01250000 0.01249090 56497.64629760 0 -2691.20287606 0 -28998.63075581 0 1757.89164587 0 -5969.10027638 0 169
0.01350000 0.01339930 48980.79834077 0 -1783.12690676 0 -42520.45914615 0 1255.05237607 0 4163.89673158 0 180
0.01450000 0.01448870 56168.18282467 0 -4844.46193009 0 -36058.99588645 0 -5212.69440739 0 -9373.70229173 0 267
0.01550000 0.01550050 62546.46526896 0 -3942.29854307 0 -48284.66484100 0 -7328.15115301 0 -18655.32117267 0 238
0.01650000 0.01653350 58632.80790395 0 -2741.41486288 0 -37580.30555639 0 -16527.46598930 0 -14698.94933489 0 315
0.01750000 0.01747870 64580.01139270 0 -5272.61831643 0 -39741.54547243 0 -28927.14021716 0 -17785.85683863 0 297
0.01850000 0.01844180 65234.10485874 0 -3222.17749464 0 -26106.74854225 0 -18895.87109832 0 -6405.36117190 0 388
0.01950000 0.01947590 71690.28501259 0 -3901.05659554 0 -23033.55463240 0 -17291.94264551 0 -27531.05139637 0 399
0.02050000 0.02045430 72979.70005795 0 -1283.13152159 0 -8952.70619990 0 -16812.30407882 0 -22055.39320579 0 462
0.02150000 0.02154770 75228.16742367 0 2819.62731066 0 2326.10654032 0 -16210.59204519 0 -15683.96755844 0 571
0.02250000 0.02255340 72381.36021953 0 5251.04750768 0 7101.47219037 0 -10123.08275401 0 -13159.54221728 0 510
0.02350000 0.02348930 71954.55271128 0 3108.81553202 0 12845.14121633 0 -7076.56290835 0 -6743.24389222 0 555
0.02450000 0.02439640 68255.59177523 0 1936.49434533 0 15161.61451898 0 5748.90716921 0 -13224.51317850 0 592
0.02550000 0.02547300 71336.87895361 0 525.17556687 0 21161.19944013 0 1522.00659028 0 3585.28423520 0 837
0.02650000 0.02652900 67700.75325515 0 -1257.36795012 0 6771.62653532 0 7161.91316935 0 -10945.80846232 0 723
0.02750000 0.02749970 73563.20223739 0 1100.50916543 0 17958.85045338 0 6216.88918109 0 6101.39149483 0 826
0.02850000 0.02848090 67463.12589870 0 422.84293074 0 3378.65859347 0 4585.75835352 0 -12038.96174591 0 831
0.02950000 0.02946900 68290.55019901 0 2533.86748778 0 13082.31894676 0 0.06078303 0 3292.12806414 0 996
0.03050000 0.03053250 65761.51619104 0 2974.37734928 0 7954.36780523 0 -2336.67275201 0 -2966.38524661 0 1041
0.03150000 0.03150510 62522.63508941 0 4472.02544942 0 9371.81386241 0 -5216.07784326 0 -4247.54965432 0 1036
0.03250000 0.03246190 59323.09626534 0 2759.19757233 0 15035.04479174 0 -4337.57602603 0 4073.47693710 0 1059
0.03350000 0.03345080 57993.88931640 0 2288.46160102 0 11318.54844056 0 -114.11845842 0 -7103.43930424 0 1302
0.03450000 0.03451200 56801.70589987 0 1126.00970568 0 19545.80552358 0 1595.00337612 0 5766.35265914 0 1339
0.03550000 0.03553350 55629.53084165 0 975.69635191 0 9939.16322675 0 6823.28856608 0 -2435.62420039 0 1365
0.03650000 0.03647120 54483.20928010 0 892.25475340 0 19096.06708784 0 6837.45178600 0 8359.58202343 0 1308
0.03750000 0.03744890 53904.09095444 0 1217.09269855 0 6496.29803631 0 8218.29828439 0 2712.98725718 0 1579
0.03850000 0.03847530 51373.48325537 0 534.16359119 0 7514.41997627 0 6346.71869703 0 9373.70229173 0 1662
0.03950000 0.03950240 50502.44523023 0 2041.57194837 0 1914.94601788 0 -272.13840233 0 2968.39732309 0 1683
0.04050000 0.04050350 48387.96642122 0 1624.21782737 0 6663.35658747 0 -2946.61294197 0 4034.25830670 0 1822
0.04150000 0.04152450 46017.87521459 0 3674.46755810 0 8660.67409391 0 -7918.91479283 0 -136.72565517 0 1887
0.04250000 0.04250150 44990.92936381 0 3045.80044402 0 12505.78597076 0 -6670.89906412 0 -369.41836595 0 1920
0.04350000 0.04349210 43206.02643423 0 2598.78224575 0 12580.87351765 0 -5553.43225300 0 -889.43110194 0 2005
0.04450000 0.04448520 41940.44156843 0 2548.00822640 0 16015.67916152 0 -3179.94636985 0 1819.31056146 0 2151
0.04550000 0.04548030 39539.32616578 0 1157.26995536 0 16199.57620748 0 2321.92501825 0 -2274.18597459 0 2274
0.04650000 0.04648670 38906.92715566 0 636.12528584 0 17727.74267435 0 4154.90421100 0 -2594.80305539 0 2311
0.04750000 0.04749250 39009.10467080 0 249.61438639 0 15700.15409550 0 3822.41700303 0 -1426.38237451 0 2568
0.04850000 0.04851840 38045.55609014 0 -49.40603216 0 14822.03446039 0 3116.61654363 0 -1410.03846835 0 2493
0.04950000 0.04949480 39353.18098968 0 -1039.34541260 0 14593.06240500 0 1593.73318259 0 -2015.61728583 0 2644
0.05050000 0.05050630 38717.18497132 0 -525.79267859 0 12905.61591727 0 311.83700851 0 -3893.23310263 0 2829
0.05150000 0.05149060 40244.56459265 0 54.43925834 0 16383.92287946 0 -2179.85443366 0 212.29205377 0 2784
0.05250000 0.05249300 40649.56523848 0 266.61249843 0 16641.33378120 0 -1422.68420042 0 -4152.35258328 0 3055
0.05350000 0.05348950 41030.73570477 0 1384.20745297 0 19330.54706209 0 -2571.96205311 0 -2193.32073323 0 3009
0.05450000 0.05448610 38773.38822497 0 1258.60442170 0 19689.23622691 0 363.33829797 0 -501.65225708 0 3336
0.05550000 0.05550870 38714.26240213 0 1032.84606835 0 19855.82267074 0 1008.52242424 0 461.54111901 0 3349
0.05650000 0.05647670 37411.13376288 0 -42.28440548 0 19388.77363287 0 3691.95801064 0 -57.75300217 0 3324
0.05750000 0.05747970 37855.02706025 0 420.68360174 0 19241.63351480 0 2467.97479319 0 1269.68770332 0 3639
0.05850000 0.05849280 37501.95822079 0 24.35028446 0 17642.76335483 0 3181.77859591 0 1445.16550188 0 3846
0.05950000 0.05951020 37156.64543034 0 446.25720622 0 16706.64196195 0 1623.93681111 0 3674.41135485 0 3787
0.06050000 0.06049470 36247.72641223 0 1221.02692630 0 16416.63317309 0 2439.36733708 0 3502.98019055 0 3930
0.06150000 0.06148310 35652.08432999 0 446.98672445 0 15056.73924766 0 3032.87369568 0 4500.43057382 0 4083
0.06250000 0.06249100 34766.43345890 0 308.13658629 0 13669.53054094 0 5324.67376997 0 6108.18084787 0 4303
0.06350000 0.06350600 34530.26738704 0 32.46749557 0 10587.16426009 0 4482.65910501 0 5930.49988177 0 4470
0.06450000 0.06451750 33298.17966042 0 100.86382029 0 7876.09915419 0 3695.07167089 0 6771.68273857 0 4479
0.06550000 0.06550280 34560.84195703 0 308.54124972 0 6511.81013432 0 2279.53652434 0 7217.98153519 0 4636
0.06650000 0.06648880 33216.12291008 0 732.13055967 0 4980.72109825 0 2591.30721302 0 8822.31465142 0 4653
0.06750000 0.06749660 33096.97201233 0 507.32428944 0 5058.64128912 0 763.52906936 0 7608.47050094 0 5220
0.06850000 0.06852730 31702.45688264 0 765.27699055 0 6472.10815594 0 -116.70155995 0 8205.97853119 0 5029
0.06950000 0.06949320 31995.50064720 0 1259.21141684 0 5062.31698191 0 -935.61331546 0 7499.32378234 0 5040
0.07050000 0.07048030 30556.58494713 0 1243.83420664 0 8132.48715671 0 -1667.21331642 0 7131.33859936 0 5475
0.07150000 0.07148790 30045.69737140 0 1580.12075456 0 9772.76787398 0 -2996.62259707 0 7655.53510555 0 5509
0.07250000 0.07249820 28839.46314146 0 1008.68316554 0 10843.10263659 0 -2682.33400263 0 6570.21655552 0 5916
0.07350000 0.07351270 28190.76518777 0 1067.00078560 0 13098.50548381 0 -163.85496571 0 6095.81613207 0 5721
0.07450000 0.07449140 27251.49641269 0 675.76768878 0 12059.41973024 0 -842.36762139 0 5160.00947741 0 6028
0.07550000 0.07549160 27711.35143410 0 -74.08870266 0 12161.03521284 0 2239.19382887 0 5134.15598073 0 6183
0.07650000 0.07648840 27281.62135665 0 -399.65571642 0 11278.98134998 0 3112.97457279 0 5354.38280985 0 6330
0.07750000 0.07749960 27256.66711203 0 -18.14117381 0 8203.39318153 0 2934.37187333 0 3728.74866048 0 6583
0.07850000 0.07848650 27430.11035281 0 364.51519410 0 7986.34745656 0 888.00466336 0 3713.83231696 0 6549
0.07950000 0.07947320 25993.10556336 0 1437.84783825 0 7389.26657103 0 -76.37291529 0 3313.64266964 0 6828
0.08050000 0.08048110 25092.27981378 0 1808.59822132 0 7681.53473069 0 -1651.91479078 0 2464.79368904 0 7147
0.08150000 0.08149960 23298.27195711 0 1416.86154334 0 8598.06366934 0 -1738.26546969 0 3026.77002233 0 7386
0.08250000 0.08250610 22699.81971219 0 1048.04118001 0 9773.99310491 0 -1183.32578375 0 1561.10157352 0 7227
0.08350000 0.08350160 22089.78959702 0 544.23858644 0 10276.30406413 0 -165.84793308 0 759.68476681 0 7798
0.08450000 0.08449610 21427.94008198 0 303.92808666 0 9445.53004990 0 -532.41004968 0 -586.39102668 0 7371
0.08550000 0.08548940 21667.70316207 0 139.04235328 0 10589.03020812 0 351.13769566 0 -923.34639332 0 8256
0.08650000 0.08650700 21266.29952447 0 -123.15369347 0 9448.32897193 0 782.98888390 0 -2430.38605715 0 8037
0.08750000 0.08749060 21471.77861983 0 -122.48037850 0 9094.40584302 0 756.09562703 0 -3054.99529632 0 8155
0.08850000 0.08849210 21263.37695528 0 -117.10959558 0 7226.32209804 0 1016.09525063 0 -4780.81736565 0 8718
0.08950000 0.08949900 21267.98562208 0 93.47579019 0 6392.98521544 0 960.56531196 0 -5177.25263563 0 8571
0.09050000 0.09049190 20892.66029417 0 286.64895836 0 5234.43382590 0 887.70116579 0 -6123.16463530 0 8932
0.09150000 0.09150830 20595.45748884 0 634.11658156 0 5094.39779909 0 -97.58739542 0 -5352.62926834 0 9285
0.09250000 0.09250820 19937.54220156 0 740.42503585 0 5229.21816396 0 -587.43191094 0 -6016.71567287 0 9204
0.09350000 0.09350330 19697.44190195 0 709.64588601 0 6523.53413303 0 -671.73117110 0 -3255.12384193 0 9349
0.09450000 0.09448040 19043.12362289 0 631.60879238 0 6990.07734162 0 -384.61684980 0 -3601.81923243 0 9564
0.09550000 0.09549270 18734.00572779 0 321.62536717 0 8371.13741238 0 -256.06314772 0 -873.81446588 0 10155
0.09650000 0.09649430 18651.49935143 0 233.91794171 0 8872.35802848 0 577.47943878 0 -1336.54709387 0 9913
0.09750000 0.09749140 18588.32689432 0 220.84506491 0 9618.53490530 0 286.34770892 0 191.68119659 0 10476
0.09850000 0.09850240 18306.18656097 0 461.25560649 0 9110.39004836 0 491.44574622 0 -218.53960745 0 10575
0.09950000 0.09950330 17880.39071128 0 743.48361691 0 9759.05428009 0 308.26472971 0 70.60848479 0 10882
0.10050000 0.10051200 17064.43187472 0 430.37079454 0 8338.97791064 0 542.73908363 0 -408.55493960 0 10875
0.10150000 0.10150300 16869.51899104 0 305.42758947 0 8787.81709433 0 686.73181950 0 -272.54194169 0 11118
0.10250000 0.10250800 16802.63711919 0 -23.85670749 0 7606.07624233 0 445.32086001 0 -466.37235070 0 11575
0.10350000 0.10349800 16734.18155624 0 -171.15014803 0 7576.11990813 0 1161.48519938 0 -1716.08766580 0 11364
0.10450000 0.10450100 16856.81705572 0 -120.04790168 0 6838.89058929 0 546.33834000 0 -737.51370731 0 12093
0.10550000 0.10551000 16753.51547550 0 34.67886879 0 6803.62866795 0 809.71353102 0 -1245.54278555 0 12067
0.10650000 0.10649700 16904.25260180 0 58.68114270 0 6196.25134635 0 624.24616615 0 -280.14849004 0 12054
0.10750000 0.10749900 16583.66924295 0 200.08470708 0 5630.70048612 0 533.82187541 0 -1109.22966226 0 12807
0.10850000 0.10850100 16713.61116540 0 330.62463215 0 5902.80291837 0 227.24324331 0 -977.05647064 0 12736
0.10950000 0.10950300 16126.62438423 0 317.61133079 0 5167.73180446 0 -76.72755782 0 -1146.92855669 0 12933
0.11050000 0.11050200 16047.60260959 0 242.40575708 0 5614.66007753 0 -126.26960186 0 -1015.25669809 0 13428
0.11150000 0.11150900 15851.56566084 0 79.97217166 0 5034.39520549 0 -109.21000346 0 -1207.47070152 0 13453
0.11250000 0.11250000 15724.54630758 0 75.09429127 0 5458.49371692 0 224.21613607 0 -2469.97562903 0 13668
0.11350000 0.11349100 15542.44776574 0 443.39870873 0 5379.89908701 0 -326.80618309 0 -1809.25017906 0 13791
0.11450000 0.11448600 14958.15874074 0 686.09559867 0 6054.10207720 0 183.25857700 0 -1197.19674675 0 14205
0.11550000 0.11549300 14544.16557432 0 525.42286118 0 5614.16548889 0 -62.81579126 0 -864.45437601 0 14776
0.11650000 0.11649800 14468.29118189 0 199.22030104 0 6125.95231668 0 720.28291380 0 -342.92527624 0 14553
0.11750000 0.11747300 14274.72717630 0 -86.67418484 0 5200.76807696 0 748.30135981 0 -417.07872505 0 14568
0.11850000 0.11849100 14284.95616847 0 -193.20992509 0 5175.55529737 0 1097.44383997 0 -62.66415488 0 16015
0.11950000 0.11950300 14501.45110154 0 -44.12584888 0 4661.72267116 0 707.00658122 0 -35.23539341 0 15270
0.12050000 0.12050700 14468.29118189 0 -2.28243661 0 4397.38752857 0 350.57903532 0 -73.08828474 0 15999
0.12150000 0.12150000 14527.86663076 0 195.59069491 0 4003.14418548 0 -230.25011738 0 74.43435267 0 15670
0.12250000 0.12250700 14245.72629741 0 376.82033446 0 4498.10375912 0 -97.68575111 0 -102.23517968 0 16887
0.12350000 0.12352200 14027.32045371 0 271.13686035 0 4379.21139633 0 -80.35469100 0 -5.70781135 0 16407
0.12450000 0.12449800 13644.23907680 0 388.14191787 0 4459.81810273 0 -199.73961910 0 757.96494725 0 16306
0.12550000 0.12549900 13580.05496113 0 281.67721854 0 4507.07379840 0 318.15987455 0 509.12054543 0 17523
0.12650000 0.12650100 13401.66583402 0 122.99295217 0 4896.16892345 0 455.41271624 0 716.48132572 0 17154
0.12750000 0.12750600 13253.06443136 0 138.03743911 0 4653.15729530 0 343.42098894 0 1081.52370634 0 18007
0.12850000 0.12850300 12929.67090983 0 175.61605857 0 4584.98274862 0 183.13268171 0 584.73190664 0 17496
0.12950000 0.12949900 13031.73601847 0 198.96851046 0 5030.28112732 0 -397.86058449 0 770.62641623 0 18405
0.13050000 0.13049000 12696.98943970 0 342.60154550 0 5127.02940817 0 -340.82102642 0 363.27310219 0 18100
0.13150000 0.13148800 12556.70611858 0 414.18987781 0 5598.37237462 0 -207.59346177 0 1543.46499252 0 19059
0.13250000 0.13249300 12132.25914697 0 223.57317084 0 5150.53360884 0 0.40030655 0 551.37302746 0 18957
0.13350000 0.13349100 12178.00859545 0 70.59859301 0 5519.46300649 0 706.21861161 0 1239.70888782 0 19468
0.13450000 0.13450700 11941.73011708 0 3.14263865 0 5116.36203062 0 677.42118850 0 808.47818350 0 19953
0.13550000 0.13551000 11958.81590619 0 -96.39847179 0 4441.51832334 0 643.46655484 0 1001.61954062 0 19956
0.13650000 0.13649900 12079.99012107 0 -124.19794993 0 4149.00286936 0 258.85195316 0 709.03327055 0 19723
0.13750000 0.13749600 12080.32734060 0 12.00108075 0 3576.53900894 0 227.26460054 0 105.11379793 0 20946
0.13850000 0.13851100 12126.75122812 0 54.00132258 0 3304.77379621 0 218.27320402 0 129.60020667 0 20955
0.13950000 0.13949800 11855.62673248 0 169.37300115 0 3044.24923422 0 61.43274159 0 -348.26908160 0 20506
0.14050000 0.14048300 11842.13795161 0 122.12629800 0 2741.03268075 0 241.89093528 0 -415.57809818 0 21447
0.14150000 0.14148400 11538.86519488 0 150.05819100 0 2638.88888756 0 176.37030623 0 -669.34590501 0 21771
0.14250000 0.14249400 11603.72374960 0 151.17888388 0 2683.35690185 0 315.71390895 0 -757.62435553 0 22470
0.14350000 0.14350900 11324.39357894 0 142.82820445 0 2555.01115181 0 -75.43746834 0 -654.68922053 0 22519
0.14450000 0.14449900 11422.63686633 0 190.57624062 0 2734.46814073 0 -114.08923272 0 -276.49078229 0 22218
0.14550000 0.14550500 11179.98493900 0 158.99450833 0 2820.58276598 0 -78.41736485 0 -500.53268827 0 23559
0.14650000 0.14650700 11128.00817002 0 266.56191550 0 3216.33235626 0 -353.26667491 0 103.68061496 0 23044
0.14750000 0.14750500 10928.26180653 0 345.86470641 0 3539.84952495 0 12.16980292 0 286.11615151 0 23649
0.14850000 0.14849900 10724.08662665 0 274.13361783 0 3632.68605934 0 5.82551220 0 440.11531466 0 23640
0.14950000 0.14949500 10528.00471530 0 141.61758636 0 3765.32573796 0 320.74410015 0 1075.09517819 0 24457
0.15050000 0.15050000 10350.35747114 0 75.38407525 0 3555.84497094 0 255.36735144 0 793.09198078 0 24591
0.15150000 0.15149900 10477.12953009 0 19.20094236 0 3750.87026112 0 719.69727590 0 1293.47292027 0 25020
0.15250000 0.15250500 10286.15087417 0 44.68192388 0 3289.48651122 0 467.96290278 0 1051.30096872 0 25297
0.15350000 0.15350100 10255.55382288 0 103.59327510 0 3017.36159767 0 495.35974080 0 1303.28600835 0 25452
0.15450000 0.15450400 10110.56066910 0 15.67857205 0 2435.03968655 0 555.52757197 0 843.40176126 0 26061
0.15550000 0.15549900 10030.12257247 0 42.76370683 0 2118.25566765 0 343.06803251 0 787.78077331 0 26128
0.15650000 0.15649500 9965.24153645 0 155.84712612 0 1744.00944221 0 126.06839421 0 378.91559175 0 26331
0.15750000 0.15749700 9690.38514478 0 193.54602055 0 1670.06844171 0 -281.58504520 0 -78.53258152 0 27345
0.15850000 0.15849900 9523.76497899 0 286.70853380 0 1905.00928263 0 -394.42544163 0 149.19266089 0 26980
0.15950000 0.15949700 9467.87646356 0 180.53946359 0 2028.12813009 0 -524.81586604 0 -313.80524646 0 27777
0.16050000 0.16050000 9318.17347712 0 26.36910533 0 2163.79154376 0 -227.20952136 0 -15.71971283 0 28224
0.16150000 0.16150500 9594.90705747 0 -23.49936720 0 2573.51326291 0 -344.64621987 0 -132.24850398 0 28075
0.16250000 0.16249700 9595.70514367 0 7.07329188 0 2812.96160478 0 -171.12317047 0 -144.48732450 0 28590
0.16350000 0.16349900 9635.71061962 0 149.79178758 0 3112.78348173 0 -159.08330947 0 287.04462926 0 29163
0.16450000 0.16449100 9568.49152825 0 114.82549535 0 2856.90130849 0 -60.99581750 0 -94.10571626 0 28996
0.16550000 0.16550500 9405.78310892 0 167.47445524 0 3199.49386147 0 181.19254539 0 319.36936857 0 30777
0.16650000 0.16650700 9423.67822488 0 59.61051970 0 2918.75860946 0 132.53401651 0 -213.39925787 0 29211
0.16750000 0.16749900 9301.67220185 0 0.43333495 0 2897.74983324 0 606.07340611 0 7.00470143 0 30922
0.16850000 0.16850800 9151.94673411 0 42.06993386 0 2309.21184227 0 445.60075221 0 -34.57095854 0 30867
0.16950000 0.16949900 9174.27066646 0 118.18869805 0 2371.84474814 0 368.47077909 0 146.40610358 0 30852
0.17050000 0.17049200 8977.01972743 0 157.95812033 0 2021.19264859 0 343.54688423 0 311.55711631 0 31257
0.17150000 0.17149500 8959.95641963 0 247.18865396 0 2362.09910396 0 132.29908691 0 588.25922284 0 32608
0.17250000 0.17250900 8734.73874158 0 239.93056579 0 2164.12876329 0 -114.67599469 0 789.91649695 0 32361
0.17350000 0.17350400 8555.50656567 0 245.84089994 0 2604.95336300 0 -318.05646056 0 712.84160302 0 32508
0.17450000 0.17449800 8436.94018176 0 241.94489040 0 2892.97255668 0 -421.31757444 0 1030.82612342 0 32791
0.17550000 0.17549800 8277.81753002 0 120.94040934 0 2856.45168246 0 -159.79259453 0 648.12018424 0 33633
0.17650000 0.17650100 8269.07230375 0 9.93285722 0 2936.28278395 0 148.45527420 0 1135.73286856 0 33984
0.17750000 0.17750300 8300.33255343 0 -52.60669505 0 2712.40274334 0 458.49377860 0 486.25706184 0 34069
