### header ###
fiducial parameters:
Omega_m = 0.31
Omega_nu = 0
Omega_de = 0.69
Omega_k = 0
H_0 = 100
w_de = -1
zeff = 0
beta = 0
fgrowth = 0
b_1 = 2
gamma = 0.55
Lx = 3500 Ly = 3500 Lz = 3500
nx = 700 ny = 700 nz = 700
xoffset = 857.220397 yoffset = 15.9954215 zoffset = 262.898189
bins = 400 dk = 0.001
kx_ny = 0.628318531 ky_ny = 0.628318531 kz_ny = 0.628318531
############################
A(data) = 3.09208083 (not used)
A(ran) = 3.0971045 (used)
Ngal = 189162
weighted Ngal = 0
Nran = 9360983
weighted Nran = 0
SN(data) = 3430.4696
SN(ran) = 69.5493277
SN(data+ran) = 3500.01893
############################
13 columns: k_central k_mean P_0(k) sigma^{lin}_{P_0(k)} P^img_1(k) sigma^{lin}_{P_1(k)} P_2(k) sigma^{lin}_{P_2(k)} P^img_3(k) sigma^{lin}_{P_3(k)} P_4(k) sigma^{lin}_{P_4(k)} N_modes
### header ###
0.00050000 0 0 0 0 0 0 0 0 0 0 0 0
0.00150000 0.00179520 32184.23117297 0 -51523.88316215 0 -33182.85058392 0 122490.49508068 0 26588.86005210 0 3
0.00250000 0.00253879 61138.12413888 0 -60086.89848251 0 12342.57172215 0 -77727.41370719 0 -20074.00370143 0 6
0.00350000 0.00331552 92366.22556067 0 -51724.30396468 0 -17127.37951881 0 -13492.26547892 0 34768.00715000 0 7
0.00450000 0.00420575 124420.51481119 0 -31323.42213999 0 17118.16218521 0 -68518.39818932 0 10319.69297595 0 24
0.00550000 0.00557378 140480.03251056 0 18894.97184626 0 45091.42078134 0 -86947.66987580 0 41893.79286790 0 45
0.00650000 0.00659388 134728.19153151 0 39418.71398344 0 96799.08858294 0 -30741.83087117 0 3280.20173371 0 40
0.00750000 0.00754703 105019.37646252 0 48464.51525270 0 90840.19481743 0 -18443.65971941 0 59119.52808060 0 57
0.00850000 0.00846663 87334.46066745 0 31130.86979297 0 105405.71762814 0 39375.66229114 0 3769.59718524 0 75
0.00950000 0.00948925 72582.45546111 0 5907.52399167 0 99400.62478813 0 62445.86144492 0 25183.89111723 0 112
0.01050000 0.01054430 68381.93668945 0 -10870.14764225 0 50192.54048957 0 83079.19992673 0 -26193.63877240 0 105
0.01150000 0.01145670 75182.53038170 0 -16308.16089354 0 42538.66900033 0 51754.31650214 0 -26428.56837268 0 144
0.01250000 0.01249090 78088.46340867 0 -11925.31876702 0 -5759.85556302 0 25845.40341275 0 -33432.39303014 0 169
0.01350000 0.01339930 81333.86408773 0 -5755.49419054 0 -12175.08602626 0 10797.54427918 0 -26270.74963641 0 180
0.01450000 0.01448870 78360.37474986 0 -2611.13572090 0 -33854.92909112 0 -8329.45707947 0 -15037.85495443 0 267
0.01550000 0.01550050 81538.21911801 0 -5429.70641040 0 -30392.35903995 0 -9068.58606829 0 -30852.55128087 0 238
0.01650000 0.01653350 79304.58941126 0 -1571.51041610 0 -39675.56285264 0 -4760.21325286 0 885.83858996 0 315
0.01750000 0.01747870 87545.22286866 0 -3008.98731288 0 -43682.40521221 0 6291.27980763 0 8534.23925449 0 297
0.01850000 0.01844180 85678.48800176 0 992.95412297 0 -45403.68605865 0 1478.26921828 0 32209.85985664 0 388
0.01950000 0.01947590 85091.38881408 0 -961.28696173 0 -27921.21438325 0 -6057.36186592 0 26239.50062738 0 399
0.02050000 0.02045430 90301.76764742 0 2103.01334526 0 -27501.48848495 0 -9330.77424659 0 42162.66923338 0 462
0.02150000 0.02154770 87871.20173986 0 469.01615175 0 -10164.86425278 0 -11411.05899607 0 37220.82954601 0 571
0.02250000 0.02255340 89785.14733982 0 6533.36970242 0 -9483.02886074 0 -21700.86308173 0 27355.47243195 0 510
0.02350000 0.02348930 80414.60367094 0 3796.02395511 0 6613.15584131 0 -9488.59298285 0 17275.19407592 0 555
0.02450000 0.02439640 79023.68554949 0 7785.42082474 0 3986.98012973 0 640.16180352 0 306.03683274 0 592
0.02550000 0.02547300 70034.64956643 0 5482.67235664 0 1201.09725256 0 -203.12979936 0 -7625.17410792 0 837
0.02650000 0.02652900 64999.73729100 0 5485.78601690 0 -3351.70351301 0 -2003.26381067 0 -21682.65322755 0 723
0.02750000 0.02749970 58816.59254340 0 4026.88443982 0 -2013.26798982 0 -3737.20162983 0 -19581.77560592 0 826
0.02850000 0.02848090 56598.13771514 0 4394.73473499 0 -6197.76883420 0 -13065.45797066 0 -28837.77704385 0 831
0.02950000 0.02946900 53286.97922931 0 3894.18855794 0 2338.49373742 0 -13111.88185818 0 -26800.52150537 0 996
0.03050000 0.03053250 52355.24169022 0 3426.53252493 0 8039.96536055 0 -17069.15294802 0 -28839.35073495 0 1041
0.03150000 0.03150510 49258.10519431 0 3207.69953650 0 13111.54463866 0 -12070.43556795 0 -31829.81345543 0 1036
0.03250000 0.03246190 48728.67054488 0 2300.10691518 0 19125.62999926 0 -1731.19510038 0 -22211.30103142 0 1059
0.03350000 0.03345080 49492.80998157 0 -363.47093765 0 12951.92739828 0 2869.05245193 0 -27751.70537022 0 1302
0.03450000 0.03451200 49375.68240095 0 -1063.53192078 0 14969.62420449 0 11557.63708161 0 -11052.66208817 0 1339
0.03550000 0.03553350 50355.52992517 0 185.84167854 0 11360.13884826 0 9331.95451492 0 -8978.50349333 0 1365
0.03650000 0.03647120 49064.65359523 0 494.86177998 0 9917.96335948 0 4667.61277214 0 1519.47744386 0 1308
0.03750000 0.03744890 50010.55435424 0 1744.32418044 0 12830.97799641 0 -1363.43473042 0 5383.56353915 0 1579
0.03850000 0.03847530 48179.11513064 0 -146.49490472 0 14977.38025349 0 -2570.63565632 0 12295.58580209 0 1662
0.03950000 0.03950240 50363.84800671 0 267.24197487 0 23129.99941567 0 -2711.55969454 0 20547.01028419 0 1683
0.04050000 0.04050350 51838.05935008 0 -1224.99487601 0 24943.67841111 0 1704.58848010 0 13031.51120545 0 1822
0.04150000 0.04152450 51327.73380690 0 576.57906266 0 25185.46480834 0 4733.41554152 0 14699.84858695 0 1887
0.04250000 0.04250150 49336.45252990 0 1336.94051664 0 17050.83068733 0 8112.09661629 0 3268.28664394 0 1920
0.04350000 0.04349210 47378.21876605 0 1998.47529346 0 16801.28824111 0 5165.27010195 0 6471.69225186 0 2005
0.04450000 0.04448520 44982.16165624 0 2145.86270585 0 9416.07954499 0 1921.97142459 0 -1634.96388947 0 2151
0.04550000 0.04548030 41230.59447477 0 3367.77764356 0 12235.22350767 0 -838.25354322 0 1672.20416535 0 2274
0.04650000 0.04648670 38765.63217597 0 1364.86229306 0 5621.82037204 0 -1616.31564991 0 -3201.37105014 0 2311
0.04750000 0.04749250 37720.36406449 0 1394.73994270 0 11095.38780159 0 -2350.46503045 0 -3840.27839704 0 2568
0.04850000 0.04851840 37493.64013925 0 -939.96569543 0 8180.97932397 0 652.34779298 0 -6594.64248956 0 2493
0.04950000 0.04949480 37414.61836461 0 -1823.17734531 0 7110.02632557 0 3343.71141035 0 -7057.64489317 0 2644
0.05050000 0.05050630 40010.75905744 0 -575.65620524 0 4164.88590885 0 988.51069374 0 -7943.50933662 0 2829
0.05150000 0.05149060 39914.87630671 0 -163.65263399 0 3874.59610372 0 3221.32320519 0 -7379.02633822 0 2784
0.05250000 0.05249300 39074.18803853 0 1475.35788974 0 2897.82851780 0 -439.82755400 0 -7152.05511866 0 3055
0.05350000 0.05348950 37846.70897871 0 1990.86537292 0 2463.11883208 0 -384.98666721 0 -4542.75162382 0 3009
0.05450000 0.05448610 36119.69540040 0 2124.35934100 0 4612.16264208 0 779.29745420 0 -171.53570235 0 3336
0.05550000 0.05550870 35152.43740500 0 1887.97969678 0 5892.50648230 0 -72.32526937 0 768.83128431 0 3349
0.05650000 0.05647670 33964.75024876 0 1260.63897948 0 6632.50100122 0 452.15629972 0 4396.04989113 0 3324
0.05750000 0.05747970 33361.01489800 0 555.32074400 0 7580.33515216 0 -771.41213772 0 6499.22060550 0 3639
0.05850000 0.05849280 34023.53885209 0 -139.45376110 0 9602.61814387 0 1549.74851628 0 9040.51816341 0 3846
0.05950000 0.05951020 34379.75507375 0 -216.80292691 0 7402.98016492 0 1813.42046048 0 10424.03993669 0 3787
0.06050000 0.06049470 34211.59493882 0 -416.96856667 0 8780.62307786 0 279.37962953 0 10044.26331109 0 3930
0.06150000 0.06148310 34328.94733245 0 418.08925955 0 8414.88602503 0 1609.44761231 0 6492.67854678 0 4083
0.06250000 0.06249100 33133.39172070 0 1397.46018018 0 9723.91600591 0 -1862.47466027 0 5833.23453099 0 4303
0.06350000 0.06350600 32201.87899462 0 1894.27446119 0 10726.73942022 0 -1682.44439816 0 6859.69703379 0 4470
0.06450000 0.06451750 30527.24684872 0 1281.13068576 0 10605.45279883 0 -1755.50862791 0 5168.74346303 0 4479
0.06550000 0.06550280 29809.41889304 0 852.97767162 0 11634.97275863 0 1476.40327026 0 6599.20619375 0 4636
0.06650000 0.06648880 29494.34345305 0 -87.16034299 0 9431.13077632 0 2652.41139039 0 3756.61423365 0 4653
0.06750000 0.06749660 28990.42508078 0 29.77625897 0 8890.69152982 0 3271.52395135 0 2962.65335056 0 5220
0.06850000 0.06852730 29048.65165156 0 115.77195814 0 7021.42751651 0 3090.35838352 0 1817.28724433 0 5029
0.06950000 0.06949320 28360.38660731 0 -167.84876891 0 5053.49307108 0 891.87369534 0 1964.66341606 0 5040
0.07050000 0.07048030 28312.50143519 0 465.39104189 0 5621.20213625 0 -536.95014851 0 2494.69381998 0 5475
0.07150000 0.07148790 28274.17081620 0 530.45080426 0 6781.14736649 0 -1610.59415869 0 2878.13489772 0 5509
0.07250000 0.07249820 28361.51067238 0 242.10450764 0 7932.90940299 0 -1148.96311447 0 4402.04115797 0 5916
0.07350000 0.07351270 28536.07797823 0 474.24867467 0 9274.98689701 0 -628.42431603 0 4988.21861229 0 5721
0.07450000 0.07449140 28703.90089364 0 -97.66416906 0 10396.44413914 0 -204.86760396 0 4117.18058714 0 6028
0.07550000 0.07549160 28764.48800108 0 249.20185451 0 10269.25617612 0 772.89815174 0 4733.93261145 0 6183
0.07650000 0.07648840 28631.28628992 0 549.33509748 0 10617.19927885 0 -55.92572199 0 3207.53092674 0 6330
0.07750000 0.07749960 27611.64686211 0 657.66574484 0 9220.22244665 0 570.85757144 0 2089.63697089 0 6583
0.07850000 0.07848650 26918.43593153 0 1112.96268237 0 8875.30307897 0 678.17431210 0 1855.97756415 0 6549
0.07950000 0.07947320 25971.18629443 0 782.43584389 0 8274.90620148 0 656.43714171 0 2200.68335946 0 6828
0.08050000 0.08048110 24820.25606609 0 760.11865593 0 7288.97748521 0 1302.45420020 0 -138.41287684 0 7147
0.08150000 0.08149960 23938.87664227 0 886.49616803 0 5263.98549667 0 1987.21216143 0 93.12575633 0 7386
0.08250000 0.08250610 23176.98533572 0 597.53838001 0 4959.28517731 0 1144.97268346 0 -1489.66723812 0 7227
0.08350000 0.08350160 22220.63077153 0 589.91159849 0 3898.24643286 0 88.82092432 0 -1056.48740497 0 7798
0.08450000 0.08449610 22128.34502903 0 431.45664140 0 4287.94855305 0 -182.23230559 0 -1578.37845369 0 7371
0.08550000 0.08548940 21348.69349433 0 388.98833887 0 3479.98181916 0 -740.79035699 0 -3118.77474857 0 8256
0.08650000 0.08650700 21045.75795713 0 573.87793429 0 3773.58761625 0 -1218.53150184 0 -3012.43819265 0 8037
0.08750000 0.08749060 20661.66492165 0 655.95266967 0 4287.72374004 0 -1212.51775370 0 -5101.92903508 0 8155
0.08850000 0.08849210 20442.24741938 0 511.49906712 0 4855.09558568 0 -1016.97988985 0 -4752.05254043 0 8718
0.08950000 0.08949900 20098.05869400 0 324.49398124 0 4814.67420565 0 -910.37243425 0 -4893.57233313 0 8571
0.09050000 0.09049190 19655.62668123 0 102.20831453 0 5963.52491361 0 -455.44756225 0 -4828.84866623 0 8932
0.09150000 0.09150830 19929.56133954 0 -74.05677921 0 4843.57391868 0 500.84967462 0 -4808.25579409 0 9285
0.09250000 0.09250820 19857.73358137 0 -101.46598195 0 5202.93752255 0 935.28284033 0 -4731.94301627 0 9204
0.09350000 0.09350330 19887.74611882 0 183.40807765 0 4381.63937689 0 1202.34496479 0 -4275.44894944 0 9349
0.09450000 0.09448040 19562.32928016 0 272.85105958 0 3752.20789856 0 1020.56902962 0 -5057.16876387 0 9564
0.09550000 0.09549270 19168.45687854 0 456.48844651 0 3445.25944905 0 386.81327295 0 -3904.21521840 0 10155
0.09650000 0.09649430 18929.14342448 0 528.93106828 0 3885.70186664 0 -313.18026628 0 -4017.00390783 0 9913
0.09750000 0.09749140 18908.46062714 0 493.34654026 0 4733.59539193 0 -1134.75493194 0 -3217.26533027 0 10476
0.09850000 0.09850240 18135.55348287 0 389.57510084 0 4824.10511162 0 -953.26675744 0 -3406.73773899 0 10575
0.09950000 0.09950330 18421.74045048 0 300.70314397 0 5953.08234909 0 -882.86094158 0 -2890.56705743 0 10882
0.10050000 0.10051200 18409.15092167 0 18.35485858 0 6054.36061217 0 -492.22472331 0 -3359.18978640 0 10875
0.10150000 0.10150300 18403.08097027 0 346.51441602 0 7067.93008858 0 162.65446421 0 -2777.07020700 0 11118
0.10250000 0.10250800 18185.91159815 0 130.61860962 0 6327.93556966 0 445.31523968 0 -2354.06203869 0 11575
0.10350000 0.10349800 17600.49850808 0 375.50068206 0 6498.56864776 0 802.51277016 0 -2541.12894815 0 11364
0.10450000 0.10450100 17405.47321790 0 509.25543324 0 6485.73182462 0 1083.96854788 0 -2196.67044715 0 12093
0.10550000 0.10551000 16786.67539515 0 475.85721179 0 6618.07924633 0 1329.15074569 0 -1289.71854292 0 12067
0.10650000 0.10649700 16120.55443284 0 431.62637522 0 5224.71066302 0 936.66206818 0 -770.55222793 0 12054
0.10750000 0.10749900 15941.82808621 0 122.32975378 0 5028.39269800 0 1143.76993383 0 -224.87034194 0 12807
0.10850000 0.10850100 15534.69171674 0 3.51033158 0 3873.70809231 0 1245.13812212 0 -499.86386955 0 12736
0.10950000 0.10950300 15671.82765566 0 -84.77822428 0 3595.61439323 0 899.03511392 0 -456.89535807 0 12933
0.11050000 0.11050200 15545.03311541 0 2.52317763 0 3191.24322383 0 330.41668011 0 -771.57400309 0 13428
0.11150000 0.11150900 15637.09404490 0 96.83438423 0 3197.62791345 0 -504.04988788 0 -446.13243499 0 13453
0.11250000 0.11250000 15883.26429591 0 222.02308511 0 3110.45666703 0 -805.35103447 0 -1184.48357078 0 13668
0.11350000 0.11349100 15437.79730744 0 216.65904658 0 3937.94841124 0 -1057.28436711 0 -195.02866238 0 13791
0.11450000 0.11448600 15676.43632245 0 153.49783012 0 4422.93752768 0 -653.66407318 0 -855.10215460 0 14205
0.11550000 0.11549300 15711.28233972 0 65.10146518 0 5006.64203884 0 -37.57828224 0 -134.89455316 0 14776
0.11650000 0.11649800 15587.85999469 0 239.02119714 0 4548.58552155 0 51.09415308 0 -723.18187762 0 14553
0.11750000 0.11747300 15182.63453584 0 318.33185651 0 4945.83011838 0 535.45626603 0 -660.63777289 0 14568
0.11850000 0.11849100 15040.88993012 0 319.34126694 0 4642.56860231 0 216.90858903 0 -932.93916465 0 16015
0.11950000 0.11950300 14628.80767433 0 239.70238058 0 4707.30350987 0 835.05895028 0 -644.06905371 0 15270
0.12050000 0.12050700 14467.95396237 0 47.38024208 0 4327.84162249 0 780.60249375 0 -158.12897822 0 15999
0.12150000 0.12150000 14478.74498707 0 -154.18013762 0 3637.02495052 0 690.61434026 0 -160.95038156 0 15670
0.12250000 0.12250700 14626.33473117 0 -17.64905812 0 3907.93587379 0 626.06939970 0 -336.13030287 0 16887
0.12350000 0.12352200 14545.73926542 0 119.79161484 0 3276.90822305 0 19.92810005 0 -261.15853469 0 16407
0.12450000 0.12449800 14493.91986555 0 240.74101671 0 4028.91899760 0 -771.31771625 0 -118.90023124 0 16306
0.12550000 0.12549900 14248.53646010 0 392.71124239 0 3770.20418038 0 -691.35060288 0 -54.13553595 0 17523
0.12650000 0.12650100 14236.50896381 0 348.35001428 0 4498.05879651 0 -530.65426003 0 223.86317963 0 17154
0.12750000 0.12750600 13756.64558411 0 291.72411216 0 4344.24173191 0 235.33201557 0 217.50321945 0 18007
0.12850000 0.12850300 13729.66802235 0 271.74610362 0 4152.04908571 0 746.99294807 0 674.11643718 0 17496
0.12950000 0.12949900 13337.48171835 0 213.60833397 0 3759.45811828 0 967.20066808 0 779.74932836 0 18405
0.13050000 0.13049000 13017.12317252 0 302.90518744 0 3682.25732906 0 1063.86014778 0 982.18220738 0 18100
0.13150000 0.13148800 12993.74261900 0 78.07385056 0 3494.19000168 0 403.50788742 0 1809.78973029 0 19059
0.13250000 0.13249300 12595.37395709 0 145.02350354 0 3160.72485710 0 264.58805723 0 1092.26189999 0 18957
0.13350000 0.13349100 12593.57545297 0 137.75642284 0 3402.50001367 0 -246.10168304 0 1593.69946064 0 19468
0.13450000 0.13450700 12445.76089586 0 170.52629191 0 3252.54973292 0 -328.92279763 0 1118.95732141 0 19953
0.13550000 0.13551000 12270.18193144 0 226.00115140 0 3284.05727692 0 68.44184936 0 763.82807067 0 19956
0.13650000 0.13649900 12018.16654205 0 280.06193703 0 3110.99621826 0 -273.10285016 0 205.33858723 0 19723
0.13750000 0.13749600 11811.45097511 0 208.39042390 0 2660.45969631 0 -117.35801396 0 -794.08902650 0 20946
0.13850000 0.13851100 11627.55392915 0 142.76525680 0 3092.31425675 0 153.37418296 0 -329.38703650 0 20955
0.13950000 0.13949800 11600.01433486 0 101.59929607 0 2922.87268763 0 33.50163544 0 -736.74934306 0 20506
0.14050000 0.14048300 11412.29546765 0 123.71010568 0 3105.35341159 0 368.68210333 0 27.94347087 0 21447
0.14150000 0.14148400 11338.33198584 0 231.64395807 0 3309.38246301 0 295.50659113 0 21.67118776 0 21771
0.14250000 0.14249400 11099.04101308 0 339.28105727 0 3376.78140480 0 107.53953036 0 805.02280747 0 22470
0.14350000 0.14350900 11017.80483025 0 309.81144325 0 3980.50551491 0 15.73376364 0 1129.49430740 0 22519
0.14450000 0.14449900 10907.77010024 0 167.06641962 0 3648.58033947 0 -173.44324078 0 1622.88018994 0 22218
0.14550000 0.14550500 10668.76014375 0 112.29095342 0 4042.14924352 0 60.69366881 0 1708.77000217 0 23559
0.14650000 0.14650700 10775.41143789 0 37.65449385 0 3973.52507080 0 -73.48058345 0 1559.53912307 0 23044
0.14750000 0.14750500 10607.72341028 0 -42.25956364 0 3718.31733661 0 440.03887823 0 1532.29178570 0 23649
0.14850000 0.14849900 10735.22611152 0 -24.74494371 0 3577.97781223 0 396.26441209 0 1071.54425662 0 23640
0.14950000 0.14949500 10625.21386282 0 -31.80407237 0 3240.20749841 0 326.11263494 0 1055.67582999 0 24457
0.15050000 0.15050000 10790.12544969 0 -12.58042389 0 3413.17863186 0 356.79399111 0 818.68357030 0 24591
0.15150000 0.15149900 10676.19021388 0 85.33182633 0 3338.60815491 0 -7.53271976 0 931.31826282 0 25020
0.15250000 0.15250500 10686.52037191 0 238.13768200 0 3389.20232385 0 -144.42550092 0 957.96197725 0 25297
0.15350000 0.15350100 10377.64977112 0 252.56955347 0 3425.77940133 0 -374.08323600 0 496.02293920 0 25452
0.15450000 0.15450400 10423.65775456 0 133.40179475 0 3459.99594216 0 -121.49120123 0 803.27713441 0 26061
0.15550000 0.15549900 10228.89099935 0 111.23882851 0 3441.19033348 0 96.56415898 0 540.13125267 0 26128
0.15650000 0.15649500 10129.91706966 0 115.29872674 0 3209.28446825 0 325.63041103 0 516.35390417 0 26331
0.15750000 0.15749700 10005.84276689 0 146.25997512 0 2869.79433488 0 186.57681709 0 -7.00028385 0 27345
0.15850000 0.15849900 9866.04279375 0 193.28074119 0 2817.50282768 0 153.87326786 0 -71.48649201 0 26980
0.15950000 0.15949700 9711.40516164 0 202.96343773 0 2704.81530410 0 3.57758439 0 -188.65746154 0 27777
0.16050000 0.16050000 9496.58508552 0 184.27023556 0 2676.42142035 0 15.55413804 0 -201.84162079 0 28224
0.16150000 0.16150500 9363.91168494 0 132.04055194 0 2933.57378712 0 113.95546898 0 -10.30560844 0 28075
0.16250000 0.16249700 9290.26294136 0 68.81672506 0 2643.02544703 0 221.63865485 0 296.90267995 0 28590
0.16350000 0.16349900 9212.12917812 0 110.90082214 0 2686.84150358 0 245.61721099 0 313.91540483 0 29163
0.16450000 0.16449100 9353.25554805 0 115.57637082 0 2848.36965458 0 278.99969553 0 569.89199954 0 28996
0.16550000 0.16550500 8897.91926824 0 218.87233071 0 2413.85105993 0 83.28479143 0 399.76137853 0 30777
0.16650000 0.16650700 8883.55371661 0 295.85392724 0 2466.10884517 0 113.44626750 0 372.25325806 0 29211
0.16750000 0.16749900 8545.53610848 0 113.33610913 0 2321.77888979 0 17.73414985 0 504.07574138 0 30922
0.16850000 0.16850800 8544.62561577 0 56.12232097 0 2161.41976646 0 178.64204174 0 135.41724342 0 30867
0.16950000 0.16949900 8596.15275872 0 -47.36619127 0 1918.61047002 0 -22.22894885 0 52.32837653 0 30852
0.17050000 0.17049200 8472.46063807 0 36.33574071 0 1968.50771861 0 99.61914304 0 -313.13979993 0 31257
0.17150000 0.17149500 8594.07323833 0 110.52639607 0 2026.73428940 0 -313.32527067 0 -325.59893720 0 32608
0.17250000 0.17250900 8445.78657389 0 243.29601662 0 2183.14794432 0 -295.94834871 0 -218.55309623 0 32361
0.17350000 0.17350400 8357.77227866 0 225.31209951 0 2510.83539443 0 -261.22148234 0 -423.98835305 0 32508
0.17450000 0.17449800 8117.91927337 0 170.65106314 0 2715.35903448 0 -193.57637030 0 -485.39040767 0 32791
0.17550000 0.17549800 8197.24454558 0 100.62720460 0 2822.16769773 0 -83.13776372 0 -352.15160236 0 33633
0.17650000 0.17650100 8065.62776617 0 14.83248827 0 2934.56296439 0 209.70108378 0 -385.93650220 0 33984
0.17750000 0.17750300 8114.94050092 0 10.92424889 0 2698.88024051 0 243.67257842 0 -414.79237669 0 34069
