### header ###
fiducial parameters:
Omega_m = 0.31
Omega_nu = 0
Omega_de = 0.69
Omega_k = 0
H_0 = 100
w_de = -1
zeff = 0
beta = 0
fgrowth = 0
b_1 = 2
gamma = 0.55
Lx = 3500 Ly = 3500 Lz = 3500
nx = 700 ny = 700 nz = 700
xoffset = 857.220397 yoffset = 15.9954215 zoffset = 262.898189
bins = 400 dk = 0.001
kx_ny = 0.628318531 ky_ny = 0.628318531 kz_ny = 0.628318531
############################
A(data) = 3.05881059 (not used)
A(ran) = 3.0611101 (used)
Ngal = 187534
weighted Ngal = 0
Nran = 9360983
weighted Nran = 0
SN(data) = 3435.70444
SN(ran) = 68.7410285
SN(data+ran) = 3504.44547
############################
13 columns: k_central k_mean P_0(k) sigma^{lin}_{P_0(k)} P^img_1(k) sigma^{lin}_{P_1(k)} P_2(k) sigma^{lin}_{P_2(k)} P^img_3(k) sigma^{lin}_{P_3(k)} P_4(k) sigma^{lin}_{P_4(k)} N_modes
### header ###
0.00050000 0 0 0 0 0 0 0 0 0 0 0 0
0.00150000 0.00179520 36944.87157056 0 -46741.43590214 0 -44593.12273444 0 63331.17509649 0 -5598.82200065 0 3
0.00250000 0.00253879 67653.54252208 0 -51298.84533452 0 -10862.20050218 0 -61124.52295149 0 24863.75738442 0 6
0.00350000 0.00331552 89256.49953594 0 -32274.71841136 0 -44429.00923376 0 -33364.94912576 0 -21257.30700388 0 7
0.00450000 0.00420575 109417.84309356 0 -13567.91505834 0 -28730.42882937 0 -60127.58963816 0 28590.70754078 0 24
0.00550000 0.00557378 104695.19609544 0 7784.71266375 0 -20190.34443650 0 -60143.77617521 0 27270.15589291 0 45
0.00650000 0.00659388 108783.87039233 0 10023.85028936 0 24554.86430233 0 -17262.82936012 0 27121.89170976 0 40
0.00750000 0.00754703 91151.89806220 0 2821.76303430 0 7366.66162241 0 3105.33093029 0 -6412.18424689 0 57
0.00850000 0.00846663 89135.99976011 0 5755.64031900 0 28308.79202045 0 6818.18531064 0 13398.40604531 0 75
0.00950000 0.00948925 86996.79151949 0 -4291.80409625 0 4808.40192255 0 24208.65225981 0 9552.75461723 0 112
0.01050000 0.01054430 86977.23278722 0 3066.08981859 0 3414.69611971 0 27712.92512520 0 11027.61791834 0 105
0.01150000 0.01145670 84969.20294064 0 -1985.76211749 0 -11331.70000191 0 9718.03714557 0 10912.77218982 0 144
0.01250000 0.01249090 80382.45540985 0 2911.83436861 0 -5529.21989132 0 -3373.63402259 0 15151.49793332 0 169
0.01350000 0.01339930 82279.65244023 0 7425.18045012 0 -7764.80547130 0 -8950.82901123 0 5488.16903485 0 180
0.01450000 0.01448870 74614.87751978 0 644.96156138 0 -6847.04006107 0 -11102.90779693 0 26411.70739658 0 267
0.01550000 0.01550050 74360.05196771 0 -3173.03336965 0 12036.37639624 0 1166.86947108 0 -3834.78171883 0 238
0.01650000 0.01653350 82611.47644981 0 -7561.40589633 0 -5063.86819171 0 12177.67137593 0 22692.28847620 0 315
0.01750000 0.01747870 85660.39055408 0 -7218.37495797 0 -5019.10792050 0 29583.03218732 0 860.27959833 0 297
0.01850000 0.01844180 88186.27717984 0 -3763.97685988 0 -24951.54686662 0 13562.51954598 0 28206.27728578 0 388
0.01950000 0.01947590 93073.37489816 0 -2860.36342891 0 -29612.70750524 0 13167.86029882 0 14157.14996965 0 399
0.02050000 0.02045430 89966.45903611 0 -52.12424632 0 -24822.05457020 0 2105.08162500 0 23047.83025882 0 462
0.02150000 0.02154770 92495.26823106 0 4667.72517865 0 -32876.31803848 0 -16361.55398451 0 22627.65473450 0 571
0.02250000 0.02255340 80585.68637507 0 8305.07610804 0 -7923.95060435 0 -18481.54071237 0 9080.80465563 0 510
0.02350000 0.02348930 82279.76484674 0 9207.90269345 0 -2964.77783355 0 -38785.86534728 0 12997.33962723 0 555
0.02450000 0.02439640 73491.59929223 0 7469.80583352 0 16805.55968838 0 -19460.60139104 0 -2155.49594352 0 592
0.02550000 0.02547300 72052.57118565 0 3909.71189660 0 28869.92530494 0 -14911.28522720 0 452.41033843 0 837
0.02650000 0.02652900 71277.64072426 0 3007.78456325 0 34271.05798118 0 -2028.22929595 0 -12092.35483688 0 723
0.02750000 0.02749970 69976.31058913 0 3989.59920135 0 38862.07695924 0 2501.24711936 0 -15436.56083586 0 826
0.02850000 0.02848090 65019.18361676 0 5375.72880559 0 29999.04867087 0 10204.39762140 0 -16099.08478994 0 831
0.02950000 0.02946900 57132.51825089 0 4398.33174323 0 25441.52683199 0 9741.02427632 0 -16427.08697827 0 996
0.03050000 0.03053250 54512.32256549 0 1552.55867896 0 18864.39727627 0 10256.92518227 0 -17504.50335084 0 1041
0.03150000 0.03150510 52329.27578703 0 795.03998555 0 15408.34680252 0 9277.99939141 0 -19314.24811853 0 1036
0.03250000 0.03246190 48632.11335510 0 648.89129288 0 10921.05654941 0 3371.41961440 0 -16521.05881838 0 1059
0.03350000 0.03345080 49376.01962047 0 1271.77846436 0 7266.40625854 0 2632.95382397 0 -15496.81072377 0 1302
0.03450000 0.03451200 46063.51225656 0 1897.66913771 0 4135.12066571 0 2689.48305650 0 -9550.57393098 0 1339
0.03550000 0.03553350 46498.30062683 0 1014.86889564 0 7186.78872941 0 3902.98998747 0 -4961.02747817 0 1365
0.03650000 0.03647120 45437.74523036 0 513.37737986 0 2450.03471463 0 5484.86428354 0 -166.90455425 0 1308
0.03750000 0.03744890 45086.47489502 0 70.70998786 0 4608.20593303 0 4137.88586579 0 5518.64243898 0 1579
0.03850000 0.03847530 45508.44892346 0 579.89055837 0 222.14223601 0 2620.24064800 0 7245.90331161 0 1662
0.03950000 0.03950240 44132.59327399 0 637.51463027 0 4309.75541547 0 1568.49792170 0 11450.51368014 0 1683
0.04050000 0.04050350 44317.16475899 0 688.38194703 0 1910.76449581 0 -304.35523139 0 8212.53183057 0 1822
0.04150000 0.04152450 43372.83769108 0 1069.78059852 0 4411.22476962 0 -4457.85098885 0 11133.15638805 0 1887
0.04250000 0.04250150 41438.77132631 0 2529.44991204 0 5167.21473453 0 -4782.26740960 0 4171.19191391 0 1920
0.04350000 0.04349210 39902.62399741 0 1271.82342696 0 8197.15462037 0 -3035.89743073 0 2068.96541420 0 2005
0.04450000 0.04448520 38564.42452788 0 800.51081026 0 7888.54255455 0 -3324.87207972 0 -3463.99761382 0 2151
0.04550000 0.04548030 39476.60333470 0 -192.50064003 0 6568.35060750 0 -110.14915983 0 -4896.09023890 0 2274
0.04650000 0.04648670 37248.81876633 0 73.39908874 0 5938.84044461 0 550.66486647 0 -9457.11916081 0 2311
0.04750000 0.04749250 38785.86534728 0 -72.26715521 0 5558.89520925 0 -1222.02734422 0 -9443.11331000 0 2568
0.04850000 0.04851840 39116.67769830 0 203.10394586 0 4804.96228342 0 675.93629854 0 -8538.51070177 0 2493
0.04950000 0.04949480 39195.81187944 0 -467.99550066 0 5370.61430951 0 1056.54810448 0 -7762.99572654 0 2644
0.05050000 0.05050630 38941.43595340 0 78.01877137 0 6778.26975990 0 2639.22610708 0 -1149.83988523 0 2829
0.05150000 0.05149060 40104.84330406 0 -234.97793508 0 8871.47001707 0 3681.32435505 0 3931.54124032 0 2784
0.05250000 0.05249300 38218.43729838 0 744.88757419 0 6301.59872500 0 3160.85974490 0 3664.40717570 0 3055
0.05350000 0.05348950 39095.09564889 0 1674.63214590 0 6301.74485346 0 1970.08140972 0 3983.40560279 0 3009
0.05450000 0.05448610 36895.41270735 0 1472.44656120 0 7533.27054755 0 -558.10954944 0 7562.13653862 0 3336
0.05550000 0.05550870 35835.53174992 0 1756.99239381 0 7474.45946292 0 -3585.73386123 0 6220.56487388 0 3349
0.05650000 0.05647670 34736.30851494 0 1728.85704503 0 10453.42299770 0 -5695.05321156 0 3012.52811786 0 3324
0.05750000 0.05747970 33881.90665288 0 1453.61847123 0 12807.03541035 0 -5052.59381903 0 1659.49098937 0 3639
0.05850000 0.05849280 32573.15768827 0 1269.92375698 0 16291.52473045 0 -2810.46618032 0 -976.65180722 0 3846
0.05950000 0.05951020 32456.47973368 0 159.95445990 0 17711.33132429 0 -1211.09019106 0 -914.68996819 0 3787
0.06050000 0.06049470 32598.44915241 0 -90.81737630 0 18911.72041585 0 2513.24089369 0 -2373.40719860 0 3930
0.06150000 0.06148310 33165.09035576 0 13.66896851 0 19879.20322427 0 536.51401126 0 -1855.41553161 0 4083
0.06250000 0.06249100 33470.49883612 0 -107.31808954 0 19201.27957868 0 3836.73759206 0 1419.19959869 0 4303
0.06350000 0.06350600 32277.97820007 0 823.48332816 0 17886.57306918 0 2577.69478498 0 1688.84032843 0 4470
0.06450000 0.06451750 32343.06156780 0 351.18827859 0 16164.50537719 0 3140.10950365 0 3761.61632322 0 4479
0.06550000 0.06550280 31747.19467255 0 360.39099935 0 15511.87319575 0 2070.73019636 0 3489.19915276 0 4636
0.06650000 0.06648880 31221.80665739 0 662.97920044 0 13374.57586576 0 1829.91049510 0 1239.46159350 0 4653
0.06750000 0.06749660 30574.68239480 0 315.49921252 0 12182.28004273 0 1219.84665798 0 877.85660388 0 5220
0.06850000 0.06852730 30442.82956173 0 -68.86404820 0 10673.27888534 0 -360.77093334 0 -192.81987451 0 5029
0.06950000 0.06949320 30201.60519704 0 147.79994427 0 10900.38499271 0 -412.54424654 0 -1137.83487024 0 5040
0.07050000 0.07048030 30486.44328656 0 -28.09578169 0 10559.19752108 0 -105.80273741 0 -2465.42316548 0 5475
0.07150000 0.07148790 29903.05351363 0 284.24008690 0 8179.50679872 0 354.55597755 0 -3873.53948255 0 5509
0.07250000 0.07249820 29948.24092957 0 229.15190580 0 9624.63857865 0 445.76486571 0 -3207.22742917 0 5916
0.07350000 0.07351270 29675.76755585 0 229.67684419 0 7823.33553966 0 305.28033694 0 -4031.79660419 0 5721
0.07450000 0.07449140 29023.92221996 0 555.65346726 0 8713.50515235 0 1642.64125392 0 -2691.82111185 0 6028
0.07550000 0.07549160 28590.48272777 0 462.46734863 0 7866.75817343 0 12.71902112 0 -2866.63571202 0 6183
0.07650000 0.07648840 28115.34042137 0 692.78603398 0 8808.32004126 0 733.32656491 0 -1834.49668060 0 6330
0.07750000 0.07749960 27558.70339717 0 756.81165648 0 8704.74868543 0 735.16553537 0 -53.19255776 0 6583
0.07850000 0.07848650 26696.88270563 0 618.60673168 0 7690.76330494 0 2312.26929927 0 -145.37421184 0 6549
0.07950000 0.07947320 26046.72346735 0 502.47170052 0 7540.12734449 0 2028.42038701 0 1079.47453571 0 6828
0.08050000 0.08048110 25642.39726055 0 519.32031190 0 6329.63290792 0 2479.42901629 0 -265.78181434 0 7147
0.08150000 0.08149960 24916.92566237 0 356.66809582 0 4080.16512429 0 1901.59212481 0 2710.19957580 0 7386
0.08250000 0.08250610 24426.04644495 0 682.53456052 0 4513.63833843 0 484.55859952 0 1265.33757149 0 7227
0.08350000 0.08350160 23834.33859047 0 610.20771745 0 3062.13310953 0 280.14511784 0 1639.37022456 0 7798
0.08450000 0.08449610 23462.04823826 0 1029.73690436 0 5295.56048458 0 -1388.66999131 0 1911.10171533 0 7371
0.08550000 0.08548940 22279.08215533 0 1091.32105752 0 4279.21456743 0 -1078.65621634 0 549.09567162 0 8256
0.08650000 0.08650700 21493.24826273 0 1155.06678782 0 6887.52888500 0 -579.59155706 0 2365.52750243 0 8037
0.08750000 0.08749060 20877.48541568 0 535.36634082 0 5514.91054294 0 94.58310670 0 386.92343133 0 8155
0.08850000 0.08849210 20558.13852842 0 311.40761566 0 6734.26261229 0 41.87457136 0 934.19024908 0 8718
0.08950000 0.08949900 20498.56307954 0 92.64240835 0 6375.69709462 0 321.14651545 0 232.09470816 0 8571
0.09050000 0.09049190 20531.04856016 0 6.04174860 0 6587.23490072 0 761.52261320 0 861.57002503 0 8932
0.09150000 0.09150830 20541.05273931 0 -64.75457870 0 6516.20522876 0 212.21449328 0 392.36053409 0 9285
0.09250000 0.09250820 20813.86333255 0 -24.18785706 0 6589.12333005 0 65.45801862 0 1234.66183564 0 9204
0.09350000 0.09350330 21278.55183377 0 91.46719832 0 6751.41584530 0 -65.65517964 0 1061.76713862 0 9349
0.09450000 0.09448040 20798.23882803 0 375.66254743 0 7354.17325945 0 -1246.30714980 0 1724.59683840 0 9564
0.09550000 0.09549270 20750.01643640 0 580.08951788 0 7057.18402649 0 -191.66658374 0 2326.97207043 0 10155
0.09650000 0.09649430 20283.97905709 0 588.00293600 0 8121.39263444 0 297.38265574 0 2234.49523686 0 9913
0.09750000 0.09749140 19809.06156370 0 187.73235599 0 7028.40796061 0 861.06419575 0 1757.70055481 0 10476
0.09850000 0.09850240 19324.25229768 0 140.40584422 0 7302.29765633 0 1306.36594665 0 1026.97282835 0 10575
0.09950000 0.09950330 19005.24262993 0 336.66648191 0 6712.90537590 0 817.76858133 0 1107.73465572 0 10882
0.10050000 0.10051200 18644.41774147 0 581.78235988 0 6720.21179887 0 656.66195473 0 1431.57555515 0 10875
0.10150000 0.10150300 17908.37993160 0 736.60771086 0 6380.87903461 0 -457.96996428 0 1014.37880327 0 11118
0.10250000 0.10250800 17362.30911909 0 604.46711712 0 6152.07558898 0 403.06388172 0 1787.10609712 0 11575
0.10350000 0.10349800 16851.30913686 0 678.58796804 0 6715.94035159 0 -281.70869236 0 1045.07477228 0 11364
0.10450000 0.10450100 16624.81002463 0 275.84444487 0 6177.08603685 0 132.69026155 0 1145.30990298 0 12093
0.10550000 0.10551000 16317.15341412 0 102.26440537 0 6276.25105760 0 432.88195591 0 742.13136663 0 12067
0.10650000 0.10649700 16307.93608052 0 -142.71017762 0 5335.54347923 0 597.17530699 0 482.74098629 0 12054
0.10750000 0.10749900 16787.23742769 0 -317.00770785 0 5663.09604153 0 299.65551532 0 364.26340352 0 12807
0.10850000 0.10850100 16827.47895731 0 -254.76260443 0 5070.85987646 0 17.70020308 0 -125.79974266 0 12736
0.10950000 0.10950300 17012.94969437 0 -25.03944876 0 4958.27351874 0 -13.40784819 0 -408.44927748 0 12933
0.11050000 0.11050200 16965.62655479 0 361.65894475 0 4965.47877586 0 -449.30005037 0 -495.60029073 0 13428
0.11150000 0.11150900 16669.09818851 0 372.97715597 0 5119.37452502 0 130.34208962 0 -243.82882346 0 13453
0.11250000 0.11250000 16233.52297268 0 608.00792210 0 5275.34979456 0 110.39296954 0 -1123.40524690 0 13668
0.11350000 0.11349100 16013.43103137 0 411.19649252 0 4778.77156722 0 716.30259938 0 -564.90677094 0 13791
0.11450000 0.11448600 15015.93568550 0 274.31796450 0 4452.72525212 0 626.19192279 0 -1536.86673054 0 14205
0.11550000 0.11549300 15376.19854143 0 213.13060632 0 4276.93271533 0 334.15981680 0 -657.62752663 0 14776
0.11650000 0.11649800 14868.12112839 0 103.80066511 0 4043.54308421 0 278.71867927 0 -1152.42523489 0 14553
0.11750000 0.11747300 14945.56921193 0 216.92320187 0 4308.73251625 0 -292.42440470 0 -202.28450242 0 14568
0.11850000 0.11849100 15035.94404380 0 143.49927130 0 4336.05853818 0 130.84229857 0 -167.41825199 0 16015
0.11950000 0.11950300 14753.91611696 0 251.81755394 0 4913.55821013 0 96.66970869 0 174.88878846 0 15270
0.12050000 0.12050700 14589.12817725 0 255.09869988 0 4761.26987403 0 551.86199577 0 923.84435415 0 15999
0.12150000 0.12150000 14421.75488786 0 214.53793579 0 4600.38244012 0 672.16618428 0 33.59189786 0 15670
0.12250000 0.12250700 14141.86268466 0 161.38314661 0 4616.80503084 0 537.99777716 0 1415.24288963 0 16887
0.12350000 0.12352200 13967.74500484 0 59.76811363 0 4021.46644617 0 732.99496571 0 624.56652470 0 16407
0.12450000 0.12449800 13859.49753830 0 38.40109787 0 4368.46533424 0 183.62502221 0 1130.87690744 0 16306
0.12550000 0.12549900 13855.90053006 0 91.80138286 0 3367.26057363 0 244.06937339 0 914.12793566 0 17523
0.12650000 0.12650100 13788.79384520 0 149.35789846 0 3757.06385968 0 146.90968473 0 431.19361017 0 17154
0.12750000 0.12750600 13624.68034453 0 152.20065903 0 3688.55209347 0 -196.69452682 0 367.36245093 0 18007
0.12850000 0.12850300 13205.51647877 0 344.42927531 0 3789.03227035 0 -16.23869367 0 9.96104877 0 17496
0.12950000 0.12949900 13318.26020560 0 261.43168251 0 3877.66480137 0 -108.55860775 0 169.36176050 0 18405
0.13050000 0.13049000 12784.66651540 0 158.63705564 0 3760.62714596 0 190.23564891 0 -203.41306376 0 18100
0.13150000 0.13148800 12985.53694396 0 204.69449794 0 4059.85326842 0 -36.05438722 0 21.68984724 0 19059
0.13250000 0.13249300 12807.26022337 0 75.51098220 0 3672.89386700 0 -277.55527191 0 -469.03301273 0 18957
0.13350000 0.13349100 12769.60404342 0 240.26441311 0 4172.72064241 0 -282.21901790 0 -78.94511340 0 19468
0.13450000 0.13450700 12713.85041579 0 210.63742998 0 3742.34984787 0 -162.97482275 0 -284.64025407 0 19953
0.13550000 0.13551000 12559.17906174 0 156.58676094 0 3880.41876080 0 339.10907532 0 234.17085635 0 19956
0.13650000 0.13649900 12489.71184022 0 80.83770176 0 3578.31503175 0 316.66149581 0 -351.19839518 0 19723
0.13750000 0.13749600 12289.62825721 0 78.15500806 0 3807.38825300 0 357.68649878 0 -210.88922056 0 20946
0.13850000 0.13851100 12113.71207327 0 169.10547366 0 3385.49290911 0 285.95203801 0 -361.68255012 0 20955
0.13950000 0.13949800 11908.68260393 0 242.75196912 0 3105.66814981 0 -16.72282850 0 81.84205391 0 20506
0.14050000 0.14048300 11728.04534669 0 325.86983689 0 3328.17683103 0 196.79569267 0 402.70530496 0 21447
0.14150000 0.14148400 11496.37553512 0 331.70485868 0 3390.85469951 0 113.36645888 0 203.06797578 0 21771
0.14250000 0.14249400 11264.70572356 0 273.28719683 0 3635.61986918 0 434.42979352 0 854.36251979 0 22470
0.14350000 0.14350900 11050.97599056 0 260.83592802 0 3529.56432953 0 95.72920345 0 624.26415119 0 22519
0.14450000 0.14449900 10828.13008981 0 306.80906544 0 3903.94544278 0 -284.45478333 0 1103.28110990 0 22218
0.14550000 0.14550500 10776.31068994 0 181.96365403 0 4226.33854639 0 48.93549852 0 1426.18004280 0 23559
0.14650000 0.14650700 10578.82369725 0 56.86173097 0 4269.42396065 0 -106.98109483 0 1587.85432226 0 23044
0.14750000 0.14750500 10664.54489973 0 71.07609586 0 3989.26198183 0 384.70677501 0 1398.29198833 0 23649
0.14850000 0.14849900 10520.61960777 0 15.58336373 0 3728.40020031 0 288.15632962 0 817.88885629 0 23640
0.14950000 0.14949500 10450.55663176 0 159.41940493 0 3580.31586758 0 323.08889990 0 390.43051436 0 24457
0.15050000 0.15050000 10214.50296641 0 220.73940279 0 3186.58959443 0 216.66466690 0 342.94213722 0 24591
0.15150000 0.15149900 9987.79028182 0 301.50347830 0 2743.67423367 0 40.11338620 0 -5.39864849 0 25020
0.15250000 0.15250500 9701.43470444 0 138.46008757 0 2717.65212723 0 193.79781112 0 -182.26715160 0 25297
0.15350000 0.15350100 9696.01671079 0 36.30831352 0 2304.86171044 0 299.05638863 0 -401.24289630 0 25452
0.15450000 0.15450400 9623.48079162 0 -50.20704093 0 2333.88507062 0 257.82118549 0 -27.04388159 0 26061
0.15550000 0.15549900 9670.71400600 0 -3.58231670 0 2098.19110610 0 298.06159104 0 -532.17961634 0 26128
0.15650000 0.15649500 9573.90952190 0 108.02928551 0 2103.67654365 0 34.88760767 0 -127.78034531 0 26331
0.15750000 0.15749700 9583.55400023 0 188.37307308 0 2025.38541131 0 33.79647771 0 -152.81889482 0 27345
0.15850000 0.15849900 9354.07611556 0 165.42978087 0 2110.62326581 0 -22.26739188 0 146.83212424 0 26980
0.15950000 0.15949700 9359.37046205 0 55.25443033 0 2185.78949724 0 22.75512371 0 143.93878074 0 27777
0.16050000 0.16050000 9348.30966173 0 82.70612273 0 2059.39962042 0 -44.73497975 0 -7.40690315 0 28224
0.16150000 0.16150500 9262.73458772 0 119.94336363 0 2393.33687234 0 -58.77421529 0 88.54856335 0 28075
0.16250000 0.16249700 9152.78978292 0 183.30353960 0 2424.96806350 0 -137.18090152 0 -154.92988903 0 28590
0.16350000 0.16349900 9086.93081028 0 184.86261786 0 2610.32639405 0 -129.91494489 0 235.89067592 0 29163
0.16450000 0.16449100 8961.35026032 0 132.70487440 0 2779.10476478 0 -77.11659675 0 -25.08789596 0 28996
0.16550000 0.16550500 8945.83816231 0 -23.42720222 0 2563.16062358 0 34.30781491 0 103.51099354 0 30777
0.16650000 0.16650700 8984.14630000 0 -83.91381824 0 2688.02177190 0 203.30852571 0 -174.68533268 0 29211
0.16750000 0.16749900 9077.30881326 0 5.64062598 0 2479.59762605 0 72.05403247 0 4.26210630 0 30922
0.16850000 0.16850800 9089.02157132 0 18.46793952 0 2588.96915766 0 106.84542017 0 7.99251857 0 30867
0.16950000 0.16949900 8910.73361007 0 125.15790150 0 2264.08062959 0 144.52217051 0 -317.59559388 0 30852
0.17050000 0.17049200 8962.14834652 0 69.21464410 0 2451.90066265 0 40.30357801 0 -68.28908891 0 31257
0.17150000 0.17149500 8821.42664002 0 103.16860332 0 2233.28124658 0 82.99556949 0 -273.67724741 0 32608
0.17250000 0.17250900 8817.08774883 0 140.19564405 0 2455.52015219 0 84.91715873 0 127.52967880 0 32361
0.17350000 0.17350400 8604.03245488 0 167.94656257 0 2271.17348020 0 138.19256009 0 350.87129224 0 32508
0.17450000 0.17449800 8653.28898638 0 131.93039356 0 2447.43812431 0 197.84781758 0 740.54643487 0 32791
0.17550000 0.17549800 8457.94895798 0 117.47716485 0 2273.65766401 0 280.29349443 0 528.63094290 0 33633
0.17650000 0.17650100 8472.42691612 0 104.52388858 0 2165.24158771 0 224.73995039 0 398.42261703 0 33984
0.17750000 0.17750300 8312.34880906 0 72.21668469 0 2154.58545081 0 -32.00977627 0 490.46218928 0 34069
0.17850000 0.17849800 8238.74502807 0 120.84598788 0 1957.62676871 0 -69.78207214 0 418.10162426 0 34536
