### header ###
fiducial parameters:
Omega_m = 0.31
Omega_nu = 0
Omega_de = 0.69
Omega_k = 0
H_0 = 100
w_de = -1
zeff = 0
beta = 0
fgrowth = 0
b_1 = 2
gamma = 0.55
Lx = 3500 Ly = 3500 Lz = 3500
nx = 700 ny = 700 nz = 700
xoffset = 857.220397 yoffset = 15.9954215 zoffset = 262.898189
bins = 400 dk = 0.001
kx_ny = 0.628318531 ky_ny = 0.628318531 kz_ny = 0.628318531
############################
A(data) = 3.06885445 (not used)
A(ran) = 3.07146885 (used)
Ngal = 187529
weighted Ngal = 0
Nran = 9360983
weighted Nran = 0
SN(data) = 3435.80328
SN(ran) = 68.9736472
SN(data+ran) = 3504.77693
############################
13 columns: k_central k_mean P_0(k) sigma^{lin}_{P_0(k)} P^img_1(k) sigma^{lin}_{P_1(k)} P_2(k) sigma^{lin}_{P_2(k)} P^img_3(k) sigma^{lin}_{P_3(k)} P_4(k) sigma^{lin}_{P_4(k)} N_modes
### header ###
0.00050000 0 0 0 0 0 0 0 0 0 0 0 0
0.00150000 0.00179520 6343.05424490 0 -7895.24198239 0 -7332.04041816 0 7624.79192580 0 5317.72704782 0 3
0.00250000 0.00253879 14324.86047856 0 -9538.44526884 0 -1033.93641147 0 -7612.79815147 0 21359.25970601 0 6
0.00350000 0.00331552 19836.93837752 0 -10631.26133291 0 -10772.57879390 0 -2957.06674715 0 -3533.20630037 0 7
0.00450000 0.00420575 25775.82378473 0 -8578.42625251 0 -9544.06559421 0 -13558.69772474 0 3125.83387723 0 24
0.00550000 0.00557378 39893.06944429 0 -17578.12961312 0 -31355.00836855 0 4474.01504460 0 12399.22460183 0 45
0.00650000 0.00659388 41271.96006946 0 -11831.23452040 0 -7852.26897464 0 -24965.26046052 0 -25030.79345428 0 40
0.00750000 0.00754703 60646.79529542 0 -12189.69887221 0 -40863.25000888 0 -9605.18101223 0 -8385.86266484 0 57
0.00850000 0.00846663 58552.32484472 0 -7195.89365651 0 -20267.79252004 0 -14358.24521123 0 -1522.74847323 0 75
0.00950000 0.00948925 63284.07676993 0 -406.48103954 0 -26092.69772884 0 -20329.05406652 0 15444.42929137 0 112
0.01050000 0.01054430 65854.13915306 0 -3171.02129316 0 -2329.31012578 0 -1499.21055060 0 10137.54947151 0 105
0.01150000 0.01145670 69900.99822923 0 -494.26490142 0 8275.15349579 0 -10835.20045912 0 23384.15052870 0 144
0.01250000 0.01249090 76991.71311685 0 1145.25369973 0 32082.16606434 0 1585.20152869 0 32827.19639479 0 169
0.01350000 0.01339930 82325.62670172 0 6977.06066808 0 53742.56280343 0 -11101.05308956 0 60589.69278971 0 180
0.01450000 0.01448870 76055.70413048 0 6195.09355932 0 58530.63038881 0 25856.53165698 0 60598.68531030 0 267
0.01550000 0.01550050 71247.96540633 0 4920.03282495 0 73200.57884481 0 29911.48400167 0 57586.19091439 0 238
0.01650000 0.01653350 77417.84618606 0 -3912.65694709 0 56316.78422734 0 45593.99027552 0 55125.94968890 0 315
0.01750000 0.01747870 77430.88534091 0 -1990.94405747 0 60429.17629727 0 43018.86959956 0 51269.73204912 0 297
0.01850000 0.01844180 75939.47580192 0 3889.65857570 0 25606.76439773 0 22999.94508671 0 33654.39588208 0 388
0.01950000 0.01947590 72471.95986443 0 4307.39487881 0 25045.85592626 0 14168.39062039 0 33409.12488313 0 399
0.02050000 0.02045430 67844.40877149 0 5454.68313632 0 13429.99227387 0 4005.97682946 0 34791.83732955 0 462
0.02150000 0.02154770 62540.84494360 0 1131.09047981 0 13396.83235421 0 1214.81084645 0 22828.30035005 0 571
0.02250000 0.02255340 65293.90512063 0 779.73921178 0 11439.16062290 0 3244.42274244 0 16173.94752381 0 510
0.02350000 0.02348930 63443.46919729 0 -2073.46167449 0 19269.51032862 0 7000.83464437 0 16420.45499434 0 555
0.02450000 0.02439640 65161.04062899 0 -348.69173007 0 8761.61513748 0 4625.70762621 0 5530.43388160 0 592
0.02550000 0.02547300 65738.02323101 0 -1566.08118179 0 11800.88476342 0 7919.04968063 0 16235.43388331 0 837
0.02650000 0.02652900 64657.90910227 0 510.04227879 0 6512.27100100 0 2457.09384329 0 9572.45947796 0 723
0.02750000 0.02749970 63687.16650514 0 824.36459518 0 7403.84569503 0 3538.19714929 0 14828.77885083 0 826
0.02850000 0.02848090 63733.36557965 0 1736.00609889 0 2918.02796716 0 -6224.13940081 0 2422.98970897 0 831
0.02950000 0.02946900 61946.21451993 0 3313.64266964 0 5992.26725753 0 -12282.32183423 0 -2602.52538244 0 996
0.03050000 0.03053250 59142.79622762 0 3711.91016569 0 7783.85837429 0 -10233.01631816 0 -6955.32124956 0 1041
0.03150000 0.03150510 56926.47712299 0 2927.88601785 0 13682.45728928 0 -7430.87946004 0 -10364.40828456 0 1036
0.03250000 0.03246190 53640.27288178 0 2788.63683660 0 11219.45086371 0 -4205.17240107 0 -10160.75017461 0 1059
0.03350000 0.03345080 54484.78297120 0 2523.76214277 0 19805.12733595 0 -422.86316391 0 -16864.57310472 0 1302
0.03450000 0.03451200 51378.54154820 0 1780.82257336 0 18564.38430826 0 1083.79206966 0 -14997.38861180 0 1339
0.03550000 0.03553350 49618.81767626 0 1358.56752865 0 14981.42688776 0 3229.57384282 0 -13716.06683497 0 1365
0.03650000 0.03647120 48680.11093372 0 512.99632180 0 14441.20121363 0 191.51258683 0 -9620.49077853 0 1308
0.03750000 0.03744890 48827.36345829 0 -1871.47842150 0 9909.72396249 0 1632.80568453 0 -15336.06941832 0 1579
0.03850000 0.03847530 51192.73359162 0 -2892.77022497 0 10290.05137997 0 2131.32854445 0 -17775.51543996 0 1662
0.03950000 0.03950240 55770.48860181 0 -4105.11936891 0 5777.32353426 0 1645.63126702 0 -17009.91471867 0 1683
0.04050000 0.04050350 55717.09551084 0 -1297.29474151 0 7763.58024037 0 1085.75356321 0 -20356.36884780 0 1822
0.04150000 0.04152450 57188.04706550 0 1626.92682420 0 4761.78694396 0 -456.45022830 0 -14227.17922371 0 1887
0.04250000 0.04250150 52850.61716793 0 5412.30588307 0 10657.40708651 0 835.74462998 0 -16728.78604389 0 1920
0.04350000 0.04349210 50152.29895996 0 5820.63376152 0 9131.44378718 0 3560.73465401 0 -3328.48032860 0 2005
0.04450000 0.04448520 43343.83681219 0 4941.05284182 0 10505.80443010 0 3155.18321628 0 -5056.78658175 0 2151
0.04550000 0.04548030 42040.48335994 0 2503.40532430 0 12399.22460183 0 2721.72124280 0 4235.27486372 0 2274
0.04650000 0.04648670 39068.79252618 0 1507.79840775 0 10609.54439570 0 -46.14208441 0 -1647.92435977 0 2311
0.04750000 0.04749250 39620.25885105 0 326.87475106 0 13543.29803323 0 -998.55421517 0 738.77715645 0 2568
0.04850000 0.04851840 39255.05010880 0 -189.08573034 0 11697.69558971 0 -2394.19116180 0 2615.39592753 0 2493
0.04950000 0.04949480 39987.04128440 0 402.50859357 0 12735.99449773 0 -1760.04985081 0 -1733.12849231 0 2644
0.05050000 0.05050630 39229.87105116 0 14.39196716 0 12217.57568602 0 686.76891365 0 -3999.96308132 0 2829
0.05150000 0.05149060 39949.38510445 0 446.62477549 0 15650.69523228 0 -302.04640173 0 -1191.84619701 0 2784
0.05250000 0.05249300 38687.73446640 0 1196.94945244 0 10239.13123216 0 2901.45924798 0 -1295.12529592 0 3055
0.05350000 0.05348950 38045.66849665 0 1125.72868941 0 10729.54958290 0 3688.61953737 0 -48.66043979 0 3009
0.05450000 0.05448610 35936.13557396 0 1218.08187581 0 10168.58490817 0 4112.76301141 0 -403.98673914 0 3336
0.05550000 0.05550870 35282.49173396 0 1135.14835472 0 8769.92197837 0 1067.99221099 0 1259.34630465 0 3349
0.05650000 0.05647670 33711.83560732 0 247.78216032 0 8127.66491755 0 415.59833135 0 -285.56198743 0 3324
0.05750000 0.05747970 33962.95174465 0 -109.89028764 0 6988.86335134 0 -2365.29144877 0 -2142.15329111 0 3639
0.05850000 0.05849280 34791.83732955 0 -379.19211176 0 9896.47123528 0 -3232.57509657 0 -1903.48055414 0 3846
0.05950000 0.05951020 35195.60150381 0 -653.47860244 0 8998.73666465 0 -2560.81132758 0 -4069.83496627 0 3787
0.06050000 0.06049470 36212.31836242 0 382.70706324 0 12729.47492031 0 -2458.03805795 0 -2398.26027736 0 3930
0.06150000 0.06148310 35792.92968365 0 585.92566374 0 12580.76111114 0 -2833.71184603 0 -7208.33705687 0 4083
0.06250000 0.06249100 35552.26735150 0 1398.95518673 0 15826.04938368 0 -1633.28903251 0 -4773.88188415 0 4303
0.06350000 0.06350600 34361.43281306 0 2213.48646065 0 17466.06032534 0 -891.08122946 0 -5113.15844516 0 4470
0.06450000 0.06451750 32604.63151031 0 1712.73795188 0 17155.48114564 0 55.84085508 0 -3677.48005250 0 4479
0.06550000 0.06550280 31136.15289882 0 1340.82978180 0 18317.31480519 0 2697.57632503 0 -821.80397494 0 4636
0.06650000 0.06648880 30927.30160823 0 244.99335488 0 15493.21371554 0 2816.35628130 0 -3728.66997593 0 4653
0.06750000 0.06749660 30156.53018761 0 -95.55103913 0 14903.19195867 0 4457.01918069 0 -2006.66972785 0 5220
0.06850000 0.06852730 30735.42370026 0 -29.08911799 0 12931.01978792 0 2891.02792411 0 -559.96088462 0 5029
0.06950000 0.06949320 29996.57572771 0 381.03670254 0 12428.22548072 0 1622.26195415 0 1369.27986880 0 5040
0.07050000 0.07048030 29787.94925014 0 654.35087694 0 12538.04663836 0 644.46584869 0 2748.90113626 0 5475
0.07150000 0.07148790 29570.66747151 0 207.56086388 0 12015.01915985 0 1350.32813166 0 3109.29888000 0 5509
0.07250000 0.07249820 29276.61204839 0 252.07159264 0 11891.70922133 0 2127.63037036 0 4285.38568468 0 5916
0.07350000 0.07351270 28790.11668475 0 314.97315007 0 11812.68744669 0 1723.34912617 0 5089.11469325 0 5721
0.07450000 0.07449140 29113.84742580 0 603.50379336 0 10776.58046556 0 2061.73767578 0 4604.27170527 0 6028
0.07550000 0.07549160 28067.79246878 0 536.90630997 0 9977.30275468 0 1198.26460857 0 4138.06571620 0 6183
0.07650000 0.07648840 27884.23264234 0 478.46054649 0 9041.73215369 0 1057.57100370 0 3882.73433485 0 6330
0.07750000 0.07749960 27308.59891841 0 320.07752956 0 9639.15025874 0 1305.70274826 0 3551.86578058 0 6583
0.07850000 0.07848650 26705.65041320 0 665.11155188 0 6925.60096903 0 617.99299215 0 2423.23700329 0 6549
0.07950000 0.07947320 26381.69485913 0 717.80210218 0 9028.56935169 0 128.05012093 0 2864.02788105 0 6828
0.08050000 0.08048110 25145.56049824 0 938.72922385 0 7719.32579845 0 -38.99246851 0 1966.58556734 0 7147
0.08150000 0.08149960 24595.33064496 0 514.00236004 0 6198.79173341 0 907.16098033 0 2350.47627110 0 7386
0.08250000 0.08250610 24139.63466433 0 -35.02631730 0 6713.56857429 0 1711.65884941 0 1443.31079451 0 7227
0.08350000 0.08350160 24039.03084028 0 -53.89296271 0 5159.29007576 0 1189.55310426 0 487.81501603 0 7798
0.08450000 0.08449610 23730.81219724 0 -11.58270373 0 4599.52815066 0 779.94491569 0 686.72844730 0 7371
0.08550000 0.08548940 23698.77634266 0 569.26701936 0 3914.42172926 0 -162.73764502 0 -571.39824674 0 8256
0.08650000 0.08650700 22939.92001181 0 754.74000455 0 4472.96966408 0 -1075.41104048 0 568.02043119 0 8037
0.08750000 0.08749060 22703.97875296 0 777.93621140 0 5376.87535196 0 -1137.91355480 0 -746.22521162 0 8155
0.08850000 0.08849210 21627.91125849 0 916.37606580 0 4678.76349766 0 -364.21619279 0 161.86087427 0 8718
0.08950000 0.08949900 21152.31932606 0 828.46068831 0 5689.60149595 0 -170.91409436 0 -1240.22595775 0 8571
0.09050000 0.09049190 20675.60332856 0 619.67908976 0 6451.90870657 0 -415.72535070 0 -447.61395276 0 8932
0.09150000 0.09150830 20020.16098443 0 515.37259537 0 6249.23977389 0 580.22103350 0 -1725.12514899 0 9285
0.09250000 0.09250820 19787.14229478 0 261.47327291 0 6594.82233997 0 39.88070473 0 -999.69176902 0 9204
0.09350000 0.09350330 19290.41793898 0 65.30851797 0 5415.80172545 0 115.93269944 0 -976.72037519 0 9349
0.09450000 0.09448040 19429.68960153 0 224.51626144 0 6810.57539010 0 298.87878635 0 -833.40095430 0 9564
0.09550000 0.09549270 19165.42190285 0 183.59804465 0 5412.81171235 0 329.42525471 0 -621.89799421 0 10155
0.09650000 0.09649430 19137.88230856 0 -4.82927581 0 5134.41451570 0 626.83601208 0 -1597.91470466 0 9913
0.09750000 0.09749140 18844.83854400 0 330.82696386 0 4908.48867665 0 45.74090558 0 -1809.47499207 0 10476
0.09850000 0.09850240 18619.12627732 0 392.35603783 0 4449.38677885 0 -58.92090578 0 -2569.80384817 0 10575
0.09950000 0.09950330 18255.37881967 0 630.29251218 0 4558.02766816 0 -900.17379184 0 -3225.39232075 0 10882
0.10050000 0.10051200 17684.69098205 0 666.71446868 0 4322.10889062 0 -63.24462209 0 -3463.00843655 0 10875
0.10150000 0.10150300 16994.06540114 0 464.23999926 0 4251.98971136 0 217.21545879 0 -2969.29657515 0 11118
0.10250000 0.10250800 16818.48643672 0 239.84288871 0 4653.22473920 0 1045.00732838 0 -2223.36699264 0 11575
0.10350000 0.10349800 16694.61446567 0 326.12837185 0 4555.40859654 0 610.25155599 0 -2251.25504710 0 11364
0.10450000 0.10450100 16237.23238742 0 215.14155873 0 3937.19528764 0 920.79251748 0 -1404.75536250 0 12093
0.10550000 0.10551000 16090.76670840 0 320.84301788 0 4860.10891591 0 660.67711517 0 217.08394318 0 12067
0.10650000 0.10649700 16004.55091729 0 -90.10797883 0 3720.35189439 0 724.80053133 0 661.91246268 0 12054
0.10750000 0.10749900 16232.17409460 0 -68.30965931 0 5054.87567112 0 326.87699919 0 810.13055916 0 12807
0.10850000 0.10850100 16059.63010587 0 105.77396135 0 3820.25879809 0 -225.73137578 0 16.88885291 0 12736
0.10950000 0.10950300 16009.15958409 0 210.19454834 0 5358.30579696 0 -369.52065587 0 1459.40740636 0 12933
0.11050000 0.11050200 15550.99066030 0 477.25779687 0 4494.76528585 0 -707.17631505 0 -223.38095572 0 13428
0.11150000 0.11150900 15573.69677477 0 432.68636859 0 5002.58416392 0 284.28280138 0 1123.46257422 0 13453
0.11250000 0.11250000 14843.84132281 0 433.99365627 0 4188.37886887 0 768.81442333 0 -161.79005817 0 13668
0.11350000 0.11349100 14578.11233953 0 511.33270549 0 4168.17941951 0 797.14198724 0 1067.75728139 0 13791
0.11450000 0.11448600 14281.02194071 0 238.86495210 0 3298.82749198 0 1390.24368241 0 268.45034482 0 14205
0.11550000 0.11549300 13780.02613763 0 341.19084383 0 2708.40107168 0 851.86147500 0 877.52275655 0 14776
0.11650000 0.11649800 13749.56397415 0 18.78604994 0 2324.49912726 0 576.92527470 0 1073.80924775 0 14553
0.11750000 0.11747300 13474.61765727 0 -19.42923998 0 2198.06428784 0 407.92658722 0 1434.93650972 0 14568
0.11850000 0.11849100 13709.88447707 0 16.30894774 0 1939.87778120 0 -43.47894943 0 1787.55572315 0 16015
0.11950000 0.11950300 13661.21245940 0 -43.20748772 0 2287.76468068 0 -276.92916767 0 1468.59101800 0 15270
0.12050000 0.12050700 13673.46476870 0 132.09787926 0 2653.27692050 0 -709.47053186 0 1540.59862659 0 15999
0.12150000 0.12150000 13836.90383033 0 101.35402507 0 3388.74145717 0 -433.73287317 0 1164.22791816 0 15670
0.12250000 0.12250700 13617.26151504 0 209.44254881 0 3280.50523128 0 -482.22953668 0 1241.00156265 0 16887
0.12350000 0.12352200 13602.08663656 0 111.38563141 0 3668.57745712 0 -94.79903960 0 777.37193073 0 16407
0.12450000 0.12449800 13595.00502660 0 -80.00611842 0 3738.59547052 0 287.54933448 0 1312.51458260 0 16306
0.12550000 0.12549900 13681.55803723 0 -95.37197557 0 3517.73916496 0 762.68489649 0 716.53640491 0 17523
0.12650000 0.12650100 13846.68319646 0 33.80198563 0 3659.12406986 0 248.47683254 0 1245.38541644 0 17154
0.12750000 0.12750600 13733.37743710 0 198.09623596 0 3501.63131246 0 -124.35531904 0 1195.96027517 0 18007
0.12850000 0.12850300 13434.15131464 0 593.62213730 0 4119.73221486 0 -479.13048928 0 1152.03181212 0 17496
0.12950000 0.12949900 13030.16232736 0 642.04236439 0 4549.82199313 0 -750.53038085 0 2022.24926976 0 18405
0.13050000 0.13049000 12585.59459095 0 486.72130072 0 4874.37330169 0 -546.65869854 0 1047.49713251 0 18100
0.13150000 0.13148800 12362.01804791 0 191.67894846 0 5271.07834728 0 56.43346218 0 1565.38426145 0 19059
0.13250000 0.13249300 12158.67467619 0 183.55645424 0 5007.83354781 0 -149.47592529 0 307.28904123 0 18957
0.13350000 0.13349100 12111.35153661 0 172.24611148 0 4918.75139077 0 94.33199056 0 -125.65473826 0 19468
0.13450000 0.13450700 11983.43293130 0 101.59749757 0 4595.95362373 0 141.49056701 0 -155.15807424 0 19953
0.13550000 0.13551000 11792.22946236 0 116.23844514 0 4185.54622489 0 427.89785138 0 -481.03353145 0 19956
0.13650000 0.13649900 11824.82734948 0 -101.54163153 0 4068.11514670 0 537.05243843 0 -421.71324534 0 19723
0.13750000 0.13749600 11742.65819264 0 -82.99624392 0 3483.72495585 0 549.01024268 0 -945.47811055 0 20946
0.13850000 0.13851100 12072.90851111 0 -62.18743888 0 3650.43504684 0 472.77165316 0 -245.86562937 0 20955
0.13950000 0.13949800 11902.61265254 0 5.24368488 0 3171.48215984 0 340.12410608 0 -469.70745177 0 20506
0.14050000 0.14048300 11914.75255533 0 71.74536420 0 3014.41654718 0 328.30118964 0 -344.14713498 0 21447
0.14150000 0.14148400 11890.47274975 0 90.99419173 0 2898.42427229 0 142.75289209 0 -501.35550390 0 21771
0.14250000 0.14249400 11580.79282211 0 163.51212586 0 2295.38584187 0 257.22205881 0 -887.65845132 0 22470
0.14350000 0.14350900 11515.70945438 0 303.23903477 0 2358.24356076 0 -243.96483534 0 -1300.74562129 0 22519
0.14450000 0.14449900 11248.40678000 0 247.77541593 0 1990.41574689 0 -13.46641198 0 -1201.59184119 0 22218
0.14550000 0.14550500 10934.38796117 0 395.12685824 0 2294.64395892 0 -145.32138078 0 -1320.02333729 0 23559
0.14650000 0.14650700 10620.66139927 0 263.77648225 0 2177.14543683 0 139.10979719 0 -1165.13841087 0 23044
0.14750000 0.14750500 10381.29174196 0 231.65969498 0 2373.31727339 0 6.24303493 0 -855.16735038 0 23649
0.14850000 0.14849900 10273.68499251 0 192.08248782 0 2317.45123926 0 324.69294076 0 -733.73797273 0 23640
0.14950000 0.14949500 10107.94159748 0 173.71414046 0 2393.58416666 0 207.82839137 0 -727.96814671 0 24457
0.15050000 0.15050000 9901.87798828 0 132.74196855 0 2501.51689498 0 124.32159708 0 -491.28500491 0 24591
0.15150000 0.15149900 9917.00790416 0 106.95996240 0 2269.88080536 0 -137.38548136 0 -328.65077388 0 25020
0.15250000 0.15250500 9833.19761231 0 62.55781833 0 2390.42554380 0 -6.70969055 0 -550.91216078 0 25297
0.15350000 0.15350100 9864.82880347 0 84.93840356 0 2545.80505886 0 -255.73829291 0 -400.98885759 0 25452
0.15450000 0.15450400 9840.06564991 0 82.98758862 0 2624.90551805 0 102.41177031 0 -517.55440567 0 26061
0.15550000 0.15549900 9862.06360339 0 45.58454813 0 3010.94318610 0 -110.55798230 0 -280.94545218 0 26128
0.15650000 0.15649500 9756.09798895 0 75.67633217 0 2950.64833558 0 136.24567938 0 -262.31070139 0 26331
0.15750000 0.15749700 9889.22101556 0 -15.10102741 0 3089.78511033 0 68.66980975 0 -136.13214881 0 27345
0.15850000 0.15849900 9717.75612931 0 23.52286016 0 2708.23246192 0 406.85198101 0 -99.11983333 0 26980
0.15950000 0.15949700 9804.69132206 0 74.08836544 0 2687.72951499 0 33.06830835 0 -147.29299092 0 27777
0.16050000 0.16050000 9578.47322610 0 186.26207887 0 2380.29771749 0 334.60382250 0 -253.70261106 0 28224
0.16150000 0.16150500 9497.11339611 0 213.16882453 0 2204.68503112 0 -59.35839191 0 -606.45783637 0 28075
0.16250000 0.16249700 9321.48946909 0 183.15179082 0 2421.87688455 0 -66.10165828 0 -295.11316836 0 28590
0.16350000 0.16349900 9184.90432205 0 163.57282537 0 2183.81114272 0 -8.80866850 0 -97.56356524 0 29163
0.16450000 0.16449100 9076.92663113 0 166.21999862 0 2587.29430070 0 107.66373955 0 359.30515249 0 28996
0.16550000 0.16550500 9031.64928999 0 179.76161056 0 2508.12639761 0 20.93492514 0 357.80677374 0 30777
0.16650000 0.16650700 8807.60063962 0 215.96212623 0 2727.08303320 0 318.14301357 0 529.95396749 0 29211
0.16750000 0.16749900 8674.62374147 0 131.88655503 0 2633.60578172 0 198.40422979 0 1101.19934138 0 30922
0.16850000 0.16850800 8577.31342809 0 98.94065736 0 2542.89373032 0 84.00925137 0 709.96399643 0 30867
0.16950000 0.16949900 8528.05689659 0 81.73729104 0 2775.60892240 0 80.35603988 0 996.60171414 0 30852
0.17050000 0.17049200 8377.72443371 0 136.66045939 0 2577.12151179 0 -151.80386406 0 456.19506553 0 31257
0.17150000 0.17149500 8314.51825465 0 137.31803746 0 2626.67030022 0 -104.38720227 0 527.34051620 0 32608
0.17250000 0.17250900 8231.35992054 0 65.51849332 0 2784.66888689 0 14.89700960 0 833.51111268 0 32361
0.17350000 0.17350400 8187.76867701 0 61.02234544 0 2586.42877060 0 95.67805849 0 333.42467824 0 32508
0.17450000 0.17449800 8228.79705218 0 83.50746872 0 2583.51744206 0 120.58183259 0 652.12747622 0 32791
0.17550000 0.17549800 8096.83181260 0 125.39507923 0 2631.99836866 0 56.90995337 0 187.41199744 0 33633
0.17650000 0.17650100 7943.19459840 0 175.52838149 0 2354.66903383 0 -20.83409650 0 587.03961223 0 33984
0.17750000 0.17750300 7859.30562200 0 83.95271090 0 2419.20160967 0 120.92354837 0 295.09181112 0 34069
