### header ###
fiducial parameters:
Omega_m = 0.31
Omega_nu = 0
Omega_de = 0.69
Omega_k = 0
H_0 = 100
w_de = -1
zeff = 0
beta = 0
fgrowth = 0
b_1 = 2
gamma = 0.55
Lx = 3500 Ly = 3500 Lz = 3500
nx = 700 ny = 700 nz = 700
xoffset = 857.220397 yoffset = 15.9954215 zoffset = 262.898189
bins = 400 dk = 0.001
kx_ny = 0.628318531 ky_ny = 0.628318531 kz_ny = 0.628318531
############################
A(data) = 3.05032139 (not used)
A(ran) = 3.04803105 (used)
Ngal = 186254
weighted Ngal = 0
Nran = 9360983
weighted Nran = 0
SN(data) = 3452.66659
SN(ran) = 68.4473222
SN(data+ran) = 3521.11391
############################
13 columns: k_central k_mean P_0(k) sigma^{lin}_{P_0(k)} P^img_1(k) sigma^{lin}_{P_1(k)} P_2(k) sigma^{lin}_{P_2(k)} P^img_3(k) sigma^{lin}_{P_3(k)} P_4(k) sigma^{lin}_{P_4(k)} N_modes
### header ###
0.00050000 0 0 0 0 0 0 0 0 0 0 0 0
0.00150000 0.00179520 52931.66225970 0 -70002.61371184 0 -33009.63215615 0 56543.50815258 0 -76548.71907154 0 3
0.00250000 0.00253879 94295.12122611 0 -73620.64196263 0 -47396.54102675 0 -35585.42727116 0 38400.42343372 0 6
0.00350000 0.00331552 124724.01238093 0 -58648.43240847 0 -79022.22426490 0 -21374.43458450 0 46755.48671556 0 7
0.00450000 0.00420575 142428.03728224 0 -29326.74535065 0 -99850.58803689 0 -43090.80976424 0 12893.92564051 0 24
0.00550000 0.00557378 147568.38686152 0 -8705.25451471 0 -121574.38204611 0 -28221.22735126 0 36345.63248009 0 45
0.00650000 0.00659388 109940.87057207 0 14212.00434522 0 -108609.52789949 0 -33119.90293982 0 -5964.22183396 0 40
0.00750000 0.00754703 117279.32940180 0 6916.77705821 0 -108738.57056988 0 -25687.13505046 0 62359.87046683 0 57
0.00850000 0.00846663 81519.89685732 0 17950.41996533 0 -73962.58255786 0 -25102.73361896 0 33622.24762099 0 75
0.00950000 0.00948925 75589.55434467 0 15262.21834302 0 -59586.68952498 0 -25795.94454954 0 66425.16421020 0 112
0.01050000 0.01054430 63071.29125159 0 6899.43273413 0 -16862.77460060 0 -28830.35821437 0 57924.42209489 0 105
0.01150000 0.01145670 57802.57344096 0 5067.19542432 0 3917.36677975 0 -19470.83038321 0 50629.01495746 0 144
0.01250000 0.01249090 64495.03207318 0 -1599.37598926 0 21080.49156789 0 -16384.48491200 0 43557.40917608 0 169
0.01350000 0.01339930 60044.18400974 0 -198.94827729 0 34151.56986391 0 -12116.29742294 0 33428.34639588 0 180
0.01450000 0.01448870 74052.84498323 0 3051.63434175 0 43987.02684702 0 -4560.14091050 0 29600.00556992 0 267
0.01550000 0.01550050 66899.74448406 0 5970.89878049 0 47833.68993367 0 11470.85925796 0 -16413.26097787 0 238
0.01650000 0.01653350 68518.62300234 0 5947.49574567 0 45385.36379796 0 1254.10816141 0 9120.86633484 0 315
0.01750000 0.01747870 63334.32247870 0 882.53159052 0 43646.09791035 0 11091.63342425 0 -15580.32875870 0 297
0.01850000 0.01844180 62585.58273351 0 832.72651526 0 48753.62478950 0 9737.31486158 0 -4510.28862451 0 388
0.01950000 0.01947590 64648.46695566 0 -959.34907355 0 37746.21756118 0 6687.08560117 0 -3899.02203776 0 399
0.02050000 0.02045430 67109.04540067 0 349.65280570 0 45521.48807831 0 9995.55757147 0 13155.94520904 0 462
0.02150000 0.02154770 64905.20341835 0 1854.62868606 0 36109.80362776 0 15044.26212534 0 6632.64712968 0 571
0.02250000 0.02255340 65300.98673059 0 612.06804515 0 36178.70881674 0 20456.18582629 0 30792.52620597 0 510
0.02350000 0.02348930 62279.49981410 0 -941.08414017 0 21575.64223259 0 18305.51212193 0 21293.50189924 0 555
0.02450000 0.02439640 62647.63112554 0 -394.66037123 0 17332.29658164 0 18161.74419908 0 8374.26231329 0 592
0.02550000 0.02547300 60892.51592040 0 -1180.06599504 0 4018.56635828 0 10710.33931080 0 16134.60524625 0 837
0.02650000 0.02652900 61194.88942507 0 -449.26295622 0 -812.63497614 0 2896.18738279 0 3090.62815914 0 723
0.02750000 0.02749970 62260.95274039 0 -388.56793853 0 -8841.74973654 0 -5144.56482331 0 13284.31344039 0 826
0.02850000 0.02848090 62128.31306177 0 -216.89510024 0 -2820.95370745 0 -4971.81850287 0 1328.93717332 0 831
0.02950000 0.02946900 62620.09153125 0 231.23142619 0 749.87280279 0 -5732.87800126 0 4508.31026998 0 996
0.03050000 0.03053250 63757.64538523 0 2048.68728028 0 9085.33463788 0 -5514.14617869 0 5441.82383189 0 1041
0.03150000 0.03150510 61365.07287713 0 3253.96605491 0 19636.62998149 0 -5148.12810959 0 4291.01725070 0 1036
0.03250000 0.03246190 61038.53197340 0 3552.75379199 0 18133.86738526 0 -1413.38818226 0 14771.00190607 0 1059
0.03350000 0.03345080 58451.60861417 0 768.86950252 0 26740.04680443 0 6013.08494269 0 11990.28972824 0 1302
0.03450000 0.03451200 60457.50273711 0 -1671.10258157 0 16199.12658145 0 11388.46528810 0 14943.54589479 0 1339
0.03550000 0.03553350 61429.48180582 0 -2852.36008559 0 16841.52977072 0 10099.61227529 0 8199.91982045 0 1365
0.03650000 0.03647120 61284.81463091 0 -206.84933069 0 3508.94897609 0 5643.18884908 0 -410.32759022 0 1308
0.03750000 0.03744890 62239.82031702 0 2426.02468467 0 10337.91407079 0 -6006.17194249 0 3493.53804394 0 1579
0.03850000 0.03847530 58240.17197392 0 3929.67529230 0 7315.68527135 0 -9749.19622940 0 -3423.74484355 0 1662
0.03950000 0.03950240 57574.72545064 0 2857.13736215 0 19424.29408918 0 -7217.12724574 0 3822.73174125 0 1683
0.04050000 0.04050350 54160.04057158 0 138.70625783 0 18666.44941690 0 -4149.49745800 0 -5377.83080728 0 1822
0.04150000 0.04152450 57361.15308676 0 -1242.99115783 0 22826.83906545 0 2139.06211216 0 -1466.19675940 0 1887
0.04250000 0.04250150 56896.68939855 0 -261.43505470 0 22937.10984912 0 1536.04616304 0 -10526.98181608 0 1920
0.04350000 0.04349210 57287.41441796 0 2451.60840573 0 20457.75951739 0 3310.18054921 0 2501.77542994 0 2005
0.04450000 0.04448520 53989.18268047 0 2378.47673207 0 18718.15641026 0 2062.70437174 0 -7159.09176601 0 2151
0.04550000 0.04548030 51259.84027648 0 3948.46966032 0 15950.48338728 0 233.28396901 0 -4638.57817130 0 2274
0.04650000 0.04648670 46503.92095220 0 3427.16200137 0 14738.96605149 0 4907.11731726 0 -8054.60068780 0 2311
0.04750000 0.04749250 44011.53146562 0 2750.28373630 0 12414.84910635 0 670.70377562 0 -6034.18364411 0 2568
0.04850000 0.04851840 41043.77485962 0 2041.45954186 0 14090.60531733 0 4620.78422119 0 -7459.14969663 0 2493
0.04950000 0.04949480 40193.98166436 0 2095.25729626 0 13092.32312591 0 845.80501238 0 -3764.52765176 0 2644
0.05050000 0.05050630 37948.99890036 0 1860.56374964 0 13899.40184839 0 1744.48154955 0 -4091.52942218 0 2829
0.05150000 0.05149060 37074.70108651 0 1638.20119688 0 15369.90377702 0 -512.70518895 0 -1096.08034904 0 2784
0.05250000 0.05249300 35980.76095737 0 1424.37029803 0 13789.69309726 0 117.67275218 0 279.66176986 0 3055
0.05350000 0.05348950 35194.02781270 0 18.02696880 0 13810.48830111 0 -150.81805899 0 -2320.92460033 0 3009
0.05450000 0.05448610 35197.73722745 0 -97.42429358 0 12291.42676132 0 179.03771265 0 -1715.73920563 0 3336
0.05550000 0.05550870 35316.88812519 0 541.27667497 0 12855.48261501 0 -216.03968672 0 -6195.91412683 0 3349
0.05650000 0.05647670 33878.75927067 0 1485.24966239 0 11743.44503819 0 -1534.77596951 0 -7864.86974411 0 3324
0.05750000 0.05747970 32635.65570633 0 1879.31315506 0 12873.35524967 0 -1981.64803932 0 -6124.15381256 0 3639
0.05850000 0.05849280 31876.12493644 0 1668.74204492 0 14708.39148150 0 -1030.98012033 0 -5544.68702673 0 3846
0.05950000 0.05951020 30751.94745683 0 -143.57345959 0 16619.30210577 0 932.13433406 0 -1415.82740347 0 3787
0.06050000 0.06049470 31958.51890630 0 -184.70075249 0 16652.79924495 0 1582.81851073 0 -1022.91495343 0 3930
0.06150000 0.06148310 32231.89153207 0 -206.80774028 0 19864.81519133 0 1584.13366687 0 1612.78608558 0 4083
0.06250000 0.06249100 32580.91373727 0 -189.78489881 0 17913.32581792 0 1103.98027837 0 3563.05022806 0 4303
0.06350000 0.06350600 33617.86376720 0 -254.02746587 0 20721.68999655 0 1758.31879060 0 7342.43802009 0 4470
0.06450000 0.06451750 34159.21350641 0 -307.04174691 0 19201.72920471 0 2191.30865675 0 4507.05131710 0 4479
0.06550000 0.06550280 34053.32657652 0 493.79841442 0 16902.22928467 0 2596.50039365 0 6226.49993747 0 4636
0.06650000 0.06648880 32468.05760393 0 1326.22817650 0 16954.72312358 0 1188.13678227 0 3386.88674980 0 4653
0.06750000 0.06749660 31598.59326989 0 1510.49616393 0 14547.08814351 0 923.13844128 0 3156.61077893 0 5220
0.06850000 0.06852730 30016.69649252 0 957.33924520 0 14885.99376305 0 561.45589117 0 993.67127649 0 5029
0.06950000 0.06949320 29457.24930564 0 1083.83703226 0 12186.66389651 0 358.57001393 0 -349.40213919 0 5040
0.07050000 0.07048030 28608.91739497 0 484.35177154 0 14761.55975946 0 899.47237523 0 395.23701661 0 5475
0.07150000 0.07148790 28200.54455391 0 474.67919159 0 12536.58535377 0 878.94357480 0 -1506.89915570 0 5509
0.07250000 0.07249820 27406.61739278 0 441.02917956 0 13435.94981875 0 1708.00563792 0 1115.27713236 0 5916
0.07350000 0.07351270 27571.85495853 0 186.81961515 0 11985.00662240 0 1387.80446120 0 -1142.54470290 0 5721
0.07450000 0.07449140 27507.67084285 0 -14.45648850 0 13751.02525874 0 964.64566817 0 -440.17601417 0 6028
0.07550000 0.07549160 27387.84550606 0 470.63368139 0 11748.61573752 0 244.94277195 0 671.64686622 0 6183
0.07650000 0.07648840 26572.78592156 0 639.56155277 0 13136.16166376 0 737.67894487 0 -134.65063104 0 6330
0.07750000 0.07749960 26207.01514677 0 888.99384062 0 11785.26025891 0 1045.69075994 0 999.75696480 0 6583
0.07850000 0.07848650 25489.86163013 0 748.01809541 0 10902.81297327 0 2273.97240223 0 -781.56019720 0 6549
0.07950000 0.07947320 24272.04952994 0 894.82324209 0 10241.90767289 0 1378.99179103 0 -255.26506152 0 6828
0.08050000 0.08048110 23192.04780770 0 786.60724937 0 8932.83272941 0 1985.79583944 0 -2094.43672875 0 7147
0.08150000 0.08149960 22665.87294699 0 209.47402263 0 7797.79678120 0 807.75878185 0 -1322.82225932 0 7386
0.08250000 0.08250610 22241.08875586 0 40.64776673 0 6718.61562647 0 122.79174452 0 -3150.45090233 0 7227
0.08350000 0.08350160 22355.96820633 0 -166.15255472 0 5778.42511803 0 -415.04529133 0 -2711.91939536 0 7798
0.08450000 0.08449610 21965.24318692 0 293.54060132 0 5702.24722802 0 49.66557878 0 -3401.72440877 0 7371
0.08550000 0.08548940 21898.13650206 0 637.89681240 0 5253.58789475 0 -234.74525361 0 -4246.47055185 0 8256
0.08650000 0.08650700 21221.33692155 0 871.74393801 0 5978.11527826 0 749.34112001 0 -2956.95434064 0 8037
0.08750000 0.08749060 20490.24499800 0 916.94147053 0 5530.06294013 0 -357.46168577 0 -2827.15854665 0 8155
0.08850000 0.08849210 19804.34049040 0 699.69566199 0 5868.22667672 0 1024.46166697 0 -1442.56891156 0 8718
0.08950000 0.08949900 19581.77560592 0 290.85858205 0 7134.95808889 0 201.11659881 0 -4.12935421 0 8571
0.09050000 0.09049190 19218.02814827 0 -46.44355866 0 5871.70003779 0 911.23796435 0 470.75508042 0 8932
0.09150000 0.09150830 19991.94695110 0 -352.92158694 0 7521.96245291 0 918.19367903 0 2488.73627510 0 9285
0.09250000 0.09250820 19580.53913434 0 -6.23288463 0 5852.37735919 0 103.68499881 0 817.89672475 0 9204
0.09350000 0.09350330 19994.86952029 0 392.41898547 0 7596.57789246 0 377.65101854 0 4122.48617429 0 9349
0.09450000 0.09448040 19283.11151600 0 548.71686169 0 6527.77185836 0 -1030.44394129 0 1582.51501316 0 9564
0.09550000 0.09549270 19453.07015505 0 521.68197262 0 8342.47375302 0 216.05317551 0 4992.61370672 0 10155
0.09650000 0.09649430 18997.26176791 0 44.30884668 0 8321.38629225 0 196.97779121 0 2593.89256268 0 9913
0.09750000 0.09749140 19197.57016394 0 -186.33514310 0 8209.15963535 0 375.58273881 0 4601.22548892 0 10476
0.09850000 0.09850240 19265.68850737 0 22.94880013 0 8137.99507557 0 598.19933028 0 3219.76075473 0 10575
0.09950000 0.09950330 19239.61019767 0 361.42851141 0 8109.71359833 0 469.94912576 0 3229.41647371 0 10882
0.10050000 0.10051200 18477.83129763 0 830.60428040 0 7768.08774132 0 -10.75261540 0 2706.56884561 0 10875
0.10150000 0.10150300 18036.29853692 0 1006.06859018 0 7479.22549883 0 -316.19163661 0 1339.62703217 0 11118
0.10250000 0.10250800 16733.95674323 0 942.79496722 0 6965.89870190 0 -160.35462707 0 2033.89458392 0 11575
0.10350000 0.10349800 16367.84874892 0 505.97428729 0 6578.71448747 0 411.60228001 0 196.32133721 0 11364
0.10450000 0.10450100 15933.95963070 0 78.98636659 0 6882.47059217 0 697.85781559 0 1330.20736685 0 12093
0.10550000 0.10551000 15863.70556363 0 -109.67289346 0 6055.47343659 0 1073.43718221 0 -1095.57901602 0 12067
0.10650000 0.10649700 16195.07994718 0 -262.20503928 0 5584.93979699 0 962.69429121 0 684.31957585 0 12054
0.10750000 0.10749900 15912.48998781 0 90.10775402 0 4863.71716479 0 896.29576734 0 -283.49820396 0 12807
0.10850000 0.10850100 16266.57048583 0 237.48122799 0 4910.56819704 0 779.20640493 0 876.86180629 0 12736
0.10950000 0.10950300 15544.80830239 0 446.24259337 0 4352.33500044 0 551.40000502 0 1181.31370727 0 12933
0.11050000 0.11050200 15494.33778061 0 549.40141732 0 4383.74137858 0 585.67612130 0 1399.10131519 0 13428
0.11150000 0.11150900 14823.15852547 0 341.15824595 0 4324.99773786 0 -136.52444752 0 2372.13700506 0 13453
0.11250000 0.11250000 14673.88268376 0 281.91889253 0 5033.65332254 0 60.16041234 0 2445.49349173 0 13668
0.11350000 0.11349100 14698.72452187 0 -45.08580046 0 5157.31172124 0 -427.44710128 0 3016.79956514 0 13791
0.11450000 0.11448600 14755.48980806 0 -28.71738967 0 5395.02900289 0 -192.42532767 0 2456.27327578 0 14205
0.11550000 0.11549300 15126.65609520 0 -85.57664771 0 5963.01908433 0 -185.55166975 0 2478.82202115 0 14776
0.11650000 0.11649800 15073.71263026 0 -36.28751832 0 5852.98435433 0 -125.40294769 0 2061.63650992 0 14553
0.11750000 0.11747300 15040.66511711 0 19.66304551 0 5685.10523566 0 336.66760598 0 2529.88829742 0 14568
0.11850000 0.11849100 15071.91412614 0 139.13565068 0 5557.33275880 0 782.23463624 0 2488.28664907 0 16015
0.11950000 0.11950300 14972.43436717 0 24.34061750 0 4593.12097975 0 1538.49662490 0 1969.60930239 0 15270
0.12050000 0.12050700 14798.42909386 0 20.65581978 0 4362.55275195 0 1038.16177208 0 2079.34053482 0 15999
0.12150000 0.12150000 14806.18514286 0 71.27584222 0 3102.66689607 0 857.79991078 0 1659.54719262 0 15670
0.12250000 0.12250700 14472.56262917 0 198.43457955 0 3750.19582208 0 161.49330499 0 2025.53153977 0 16887
0.12350000 0.12352200 14619.25312121 0 353.25655833 0 3433.32187797 0 -570.09433125 0 2166.86024141 0 16407
0.12450000 0.12449800 14249.77293168 0 275.89952406 0 3945.11994641 0 -350.34298166 0 1961.48231191 0 16306
0.12550000 0.12549900 14121.29229382 0 244.14693388 0 4070.92530939 0 -281.39620227 0 1950.19669857 0 17523
0.12650000 0.12650100 13763.16516153 0 101.64088648 0 3689.70988050 0 406.36076458 0 1428.43941359 0 17154
0.12750000 0.12750600 13823.97708199 0 54.42487030 0 3839.37914498 0 417.77227320 0 733.88072899 0 18007
0.12850000 0.12850300 13589.49710774 0 127.80507475 0 3562.17345730 0 187.50304671 0 441.79691601 0 17496
0.12950000 0.12949900 13313.76394531 0 226.92288476 0 3195.02008248 0 411.60003188 0 239.75858383 0 18405
0.13050000 0.13049000 13096.93179271 0 295.72578382 0 3188.43306115 0 260.64483696 0 276.52450424 0 18100
0.13150000 0.13148800 12951.92739828 0 147.26826149 0 2830.62066708 0 429.77504005 0 1220.94824175 0 19059
0.13250000 0.13249300 12670.57391048 0 153.09204263 0 3314.00237046 0 102.02666561 0 1113.92600614 0 18957
0.13350000 0.13349100 12767.58072629 0 123.64490991 0 2912.56501091 0 365.23009949 0 1195.82538737 0 19468
0.13450000 0.13450700 12515.45293039 0 201.35152841 0 3073.62105458 0 -37.73936076 0 1373.51759412 0 19953
0.13550000 0.13551000 12490.49868577 0 163.41658033 0 2965.20497828 0 213.99838455 0 1430.42900877 0 19956
0.13650000 0.13649900 12368.08799931 0 162.97257462 0 2856.81138328 0 129.84862505 0 1378.17122352 0 19723
0.13750000 0.13749600 12032.21735547 0 145.25843314 0 2414.45805506 0 380.92879230 0 637.07062457 0 20946
0.13850000 0.13851100 11911.15554709 0 300.67616640 0 2178.89897835 0 315.49808846 0 328.41022395 0 20955
0.13950000 0.13949800 11416.67932144 0 283.55777941 0 2015.14517850 0 -96.37351755 0 161.58997458 0 20506
0.14050000 0.14048300 11284.37686233 0 330.78986971 0 1699.68755638 0 -103.43984022 0 -200.21959489 0 21447
0.14150000 0.14148400 10827.34324426 0 303.37167445 0 1610.76276845 0 -323.74085764 0 -518.96623140 0 21771
0.14250000 0.14249400 10701.72897234 0 232.66910542 0 1853.39221448 0 -255.52359648 0 -471.35645523 0 22470
0.14350000 0.14350900 10632.41911994 0 123.77754959 0 1875.61498097 0 -210.19230021 0 -773.38037566 0 22519
0.14450000 0.14449900 10630.14850849 0 90.71542359 0 1965.51770552 0 71.48761608 0 -450.45221707 0 22218
0.14550000 0.14550500 10567.76289693 0 55.54432671 0 2015.24634435 0 -18.94341905 0 -827.78512520 0 23559
0.14650000 0.14650700 10488.78608490 0 31.92333567 0 2289.32713113 0 120.34353079 0 -900.94152828 0 23044
0.14750000 0.14750500 10643.88458368 0 94.23419690 0 2212.66589314 0 -200.99632385 0 -537.57850088 0 23649
0.14850000 0.14849900 10598.14637586 0 73.89300293 0 2812.63562591 0 -70.43650283 0 -532.89339766 0 23640
0.14950000 0.14949500 10496.22739568 0 237.29688132 0 2615.26103972 0 -374.02366055 0 -478.02328518 0 24457
0.15050000 0.15050000 10456.01958802 0 183.99371556 0 2984.89859836 0 -183.74080091 0 -452.42944753 0 24591
0.15150000 0.15149900 10172.96876196 0 248.43973839 0 2794.62810344 0 42.06116616 0 67.76729791 0 25020
0.15250000 0.15250500 10010.90105972 0 238.69634234 0 2896.35599255 0 100.94722592 0 -77.70223465 0 25297
0.15350000 0.15350100 9856.78049755 0 188.12802689 0 2950.53592908 0 414.01901992 0 269.15738175 0 25452
0.15450000 0.15450400 9691.04834317 0 137.77665601 0 2590.67773657 0 494.58638403 0 131.81236673 0 26061
0.15550000 0.15549900 9641.51079540 0 69.82366255 0 2653.00714488 0 376.09643655 0 537.08054006 0 26128
0.15650000 0.15649500 9474.53092879 0 33.23006132 0 2147.89726363 0 379.12916412 0 270.88956603 0 26331
0.15750000 0.15749700 9550.57393098 0 34.19012530 0 2329.90588027 0 76.52072985 0 633.09593047 0 27345
0.15850000 0.15849900 9317.04941205 0 178.92305801 0 1950.34282703 0 33.78096561 0 712.71233553 0 26980
0.15950000 0.15949700 9469.92226199 0 182.70778511 0 2283.94285943 0 83.57412578 0 766.12116342 0 27777
0.16050000 0.16050000 9067.09106174 0 260.83143176 0 1968.49647796 0 57.51863460 0 547.54895808 0 28224
0.16150000 0.16150500 8938.70034909 0 258.93850617 0 2266.21635322 0 -146.34877626 0 286.74675202 0 28075
0.16250000 0.16249700 8727.31991210 0 181.55337028 0 2298.26344846 0 -215.82836249 0 157.64113398 0 28590
0.16350000 0.16349900 8723.98143883 0 106.98536628 0 2794.48197498 0 -274.19768954 0 460.95885331 0 29163
0.16450000 0.16449100 8704.81612933 0 0.36156902 0 2768.84205066 0 -277.67442281 0 470.94729555 0 28996
0.16550000 0.16550500 8812.53528529 0 -109.64940050 0 3030.05229235 0 135.88373043 0 584.30588597 0 30777
0.16650000 0.16650700 8949.16539492 0 -14.32800786 0 3057.01861345 0 184.60295882 0 570.59004395 0 29211
0.16750000 0.16749900 8944.54548747 0 190.08052793 0 3189.09625954 0 292.72003382 0 791.33057081 0 30922
0.16850000 0.16850800 8671.68993163 0 321.57253611 0 3154.07039186 0 87.92830425 0 968.98118716 0 30867
0.16950000 0.16949900 8375.77980114 0 234.99592012 0 3019.21630504 0 287.86969303 0 1379.09295688 0 30852
0.17050000 0.17049200 8316.83382870 0 171.03324526 0 2915.94844678 0 349.43586114 0 1323.31684796 0 31257
0.17150000 0.17149500 8206.38319462 0 8.73057970 0 2985.64048131 0 249.30189630 0 1478.59519715 0 32608
0.17250000 0.17250900 8152.25946135 0 -44.90167860 0 2609.97793388 0 336.09882905 0 1340.61620943 0 32361
0.17350000 0.17350400 8225.35741305 0 -32.61463569 0 2720.41732731 0 26.64922235 0 1228.04109236 0 32508
0.17450000 0.17449800 8250.17676987 0 64.13364515 0 2420.89894793 0 -116.97245964 0 1194.19549301 0 32791
0.17550000 0.17549800 8197.51432119 0 126.01893535 0 2680.64790503 0 -46.46716402 0 1028.47570335 0 33633
0.17650000 0.17650100 8095.39300930 0 147.21318230 0 2581.65149404 0 -263.87090371 0 1062.68212759 0 33984
0.17750000 0.17750300 7959.66215173 0 123.21776518 0 2527.30294775 0 -96.85461740 0 582.57145357 0 34069
