### header ###
fiducial parameters:
Omega_m = 0.31
Omega_nu = 0
Omega_de = 0.69
Omega_k = 0
H_0 = 100
w_de = -1
zeff = 0
beta = 0
fgrowth = 0
b_1 = 2
gamma = 0.55
Lx = 3500 Ly = 3500 Lz = 3500
nx = 700 ny = 700 nz = 700
xoffset = 857.220397 yoffset = 15.9954215 zoffset = 262.898189
bins = 400 dk = 0.001
kx_ny = 0.628318531 ky_ny = 0.628318531 kz_ny = 0.628318531
############################
A(data) = 3.07247558 (not used)
A(ran) = 3.07159495 (used)
Ngal = 187509
weighted Ngal = 0
Nran = 9360983
weighted Nran = 0
SN(data) = 3447.82996
SN(ran) = 68.976479
SN(data+ran) = 3516.80644
############################
13 columns: k_central k_mean P_0(k) sigma^{lin}_{P_0(k)} P^img_1(k) sigma^{lin}_{P_1(k)} P_2(k) sigma^{lin}_{P_2(k)} P^img_3(k) sigma^{lin}_{P_3(k)} P_4(k) sigma^{lin}_{P_4(k)} N_modes
### header ###
0.00050000 0 0 0 0 0 0 0 0 0 0 0 0
0.00150000 0.00179520 1112.39165731 0 -7917.29613912 0 -608.68123708 0 -22709.82389134 0 -4255.04716836 0 3
0.00250000 0.00253879 6854.31276209 0 -12181.26838416 0 -20846.91084570 0 18596.53256935 0 12275.12781776 0 6
0.00350000 0.00331552 16755.42638612 0 -19390.23491747 0 -23674.83375660 0 704.69550343 0 -11045.72660667 0 7
0.00450000 0.00420575 30027.93714325 0 -24575.43469317 0 -44762.74415397 0 13287.79804212 0 5621.64052163 0 24
0.00550000 0.00557378 54607.41847068 0 -23271.18198885 0 -62094.47870307 0 11475.80514428 0 9924.74147187 0 45
0.00650000 0.00659388 59015.21484182 0 -13580.27977414 0 -71857.99552150 0 -678.11586071 0 17617.24707767 0 40
0.00750000 0.00754703 64409.26590810 0 -5007.42888439 0 -60985.92572798 0 -8093.70691169 0 27574.10308867 0 57
0.00850000 0.00846663 63867.24172985 0 1947.40901719 0 -54874.15911252 0 -5765.29603797 0 39987.15369091 0 75
0.00950000 0.00948925 65804.45547683 0 -1578.78311712 0 -34759.23944243 0 -10701.98750731 0 53679.95237886 0 112
0.01050000 0.01054430 66733.60766626 0 -3828.11601295 0 -17369.39072905 0 -16597.15802383 0 29874.95188680 0 105
0.01150000 0.01145670 75968.02705478 0 -3890.43418060 0 13190.00438076 0 -24081.29568703 0 48133.81530819 0 144
0.01250000 0.01249090 82214.23185298 0 -4189.18819573 0 24195.83791798 0 -17232.92922918 0 21152.99376510 0 169
0.01350000 0.01339930 89749.40207050 0 -1690.93108946 0 40941.93456400 0 -14993.56679055 0 41889.40901411 0 180
0.01450000 0.01448870 92914.88172285 0 -1013.90669594 0 40767.47966465 0 -4514.17788966 0 300.34906347 0 267
0.01550000 0.01550050 94231.38673646 0 7894.79235636 0 47623.15254548 0 6226.92708219 0 -30392.24663344 0 238
0.01650000 0.01653350 80722.59750097 0 9140.09908824 0 27864.56150356 0 6386.88154210 0 -25170.73955588 0 315
0.01750000 0.01747870 73077.60612581 0 11617.21253048 0 24628.04093859 0 -487.44070236 0 -31858.13989527 0 297
0.01850000 0.01844180 58927.08814009 0 8928.30274717 0 18609.79653721 0 -2463.23123859 0 -30578.61662256 0 388
0.01950000 0.01947590 57140.16189338 0 6203.82754494 0 21570.69634626 0 -3355.40168711 0 -43074.06119465 0 399
0.02050000 0.02045430 52162.57693669 0 3236.28451131 0 25770.99030491 0 589.92958353 0 -22902.48864487 0 462
0.02150000 0.02154770 53298.78191257 0 -1524.05238871 0 39572.48608544 0 -1463.72381624 0 -11312.02886313 0 571
0.02250000 0.02255340 60629.14747378 0 -5761.06955330 0 37690.68874656 0 7106.62040840 0 -3218.35567339 0 510
0.02350000 0.02348930 69619.30752192 0 -4891.30172169 0 64160.73512044 0 5539.49384609 0 -169.54048685 0 555
0.02450000 0.02439640 67735.93649194 0 -2202.02099690 0 37488.46943991 0 8845.57155779 0 -8947.54674122 0 592
0.02550000 0.02547300 74608.91997490 0 2311.70726673 0 60362.29442542 0 3536.18507281 0 5185.99786190 0 837
0.02650000 0.02652900 71628.12421405 0 5245.70819858 0 48113.13251085 0 -4401.78262300 0 -4730.05458695 0 723
0.02750000 0.02749970 69158.66565496 0 4909.50033522 0 62356.16105209 0 5212.30098461 0 2877.98876926 0 826
0.02850000 0.02848090 64476.59740598 0 2481.68838709 0 48810.27766918 0 1273.93666930 0 -7882.85478528 0 831
0.02950000 0.02946900 60687.48645107 0 1557.65069375 0 43960.27409828 0 9295.99567323 0 -3946.53626840 0 996
0.03050000 0.03053250 61075.85093383 0 1230.92993960 0 43004.36916012 0 6781.97917464 0 -1848.90719484 0 1041
0.03150000 0.03150510 61172.07090408 0 1127.11128945 0 38597.69685405 0 8686.81984751 0 -3466.68412934 0 1036
0.03250000 0.03246190 58894.49025297 0 765.63219511 0 40611.57183901 0 5844.93604840 0 5096.09513735 0 1059
0.03350000 0.03345080 59329.16621674 0 1183.49439351 0 35012.71611641 0 5972.43874964 0 3815.70633454 0 1302
0.03450000 0.03451200 57659.03033113 0 1200.14179725 0 38971.44849085 0 4427.26517821 0 8078.31846084 0 1339
0.03550000 0.03553350 58365.61763608 0 3044.66513830 0 34454.73021413 0 4902.91331389 0 9147.84389659 0 1365
0.03650000 0.03647120 55113.02294056 0 3273.67091564 0 41478.78804291 0 2267.01443943 0 10758.98884717 0 1308
0.03750000 0.03744890 52142.90579791 0 3793.15758917 0 35653.54561459 0 2241.57684682 0 7476.84248088 0 1579
0.03850000 0.03847530 49647.03170960 0 2266.32875973 0 37420.57590950 0 5238.70527318 0 6236.16689709 0 1662
0.03950000 0.03950240 47860.66749543 0 1167.09428410 0 34372.11143125 0 3267.54476099 0 2398.56377493 0 1683
0.04050000 0.04050350 47377.54432701 0 -168.84918683 0 31304.42544026 0 789.54667954 0 1493.73635369 0 1822
0.04150000 0.04152450 47181.39497175 0 -470.74608790 0 30338.51632295 0 5507.12077198 0 -1289.10030713 0 1887
0.04250000 0.04250150 47922.94070048 0 -1053.35238748 0 25003.25385999 0 2965.12629373 0 -3209.57672517 0 1920
0.04350000 0.04349210 46368.02148486 0 -557.57786666 0 18066.31107437 0 7384.55673838 0 -2707.61422613 0 2005
0.04450000 0.04448520 47519.28893273 0 972.63327458 0 15945.87472048 0 6248.61029745 0 -7240.04693258 0 2151
0.04550000 0.04548030 45207.19948387 0 1299.66651882 0 8383.59205339 0 6672.50647717 0 -5458.98830555 0 2274
0.04650000 0.04648670 44600.42915741 0 2582.62943065 0 9158.57871804 0 1724.34954409 0 -5927.92577275 0 2311
0.04750000 0.04749250 41465.63648155 0 2422.63000815 0 8067.95458087 0 -827.45240194 0 -4649.86378464 0 2568
0.04850000 0.04851840 40149.01906143 0 1675.36278820 0 13282.29012326 0 -1508.05694272 0 -1186.31579685 0 2493
0.04950000 0.04949480 38595.22391089 0 1571.51041610 0 12485.66520596 0 -472.99871430 0 -350.30925971 0 2644
0.05050000 0.05050630 39478.06461930 0 211.52993765 0 16827.81617683 0 1920.77991561 0 3705.04212809 0 2829
0.05150000 0.05149060 38376.59325417 0 522.49691980 0 13294.20521304 0 3173.67408674 0 3152.99128939 0 2784
0.05250000 0.05249300 39537.64006817 0 -241.45367396 0 16350.53814679 0 3645.19690360 0 5081.51601336 0 3055
0.05350000 0.05348950 37926.06797287 0 172.41696937 0 14260.78876939 0 585.93690439 0 1493.47781872 0 3009
0.05450000 0.05448610 39258.08508449 0 782.88659398 0 14229.65216687 0 143.22499942 0 5522.97008951 0 3336
0.05550000 0.05550870 37975.75164910 0 1091.91119168 0 16008.37273854 0 -2418.35856087 0 3755.93979460 0 3349
0.05650000 0.05647670 37138.66038917 0 1613.33687747 0 15939.69236257 0 -2672.43098934 0 2902.31353744 0 3324
0.05750000 0.05747970 36743.66392248 0 981.74831826 0 21506.73704361 0 -1871.97301014 0 2727.48769662 0 3639
0.05850000 0.05849280 36431.17383216 0 237.41266002 0 19537.37503554 0 -536.76242964 0 564.73141679 0 3846
0.05950000 0.05951020 37287.14938532 0 -1195.51064915 0 22197.36262452 0 1454.03437531 0 4711.63116040 0 3787
0.06050000 0.06049470 37977.10052719 0 -875.02508396 0 18605.63749644 0 3601.36960640 0 743.72753903 0 3930
0.06150000 0.06148310 38080.40210741 0 -218.10009800 0 19134.28530032 0 4367.38623177 0 781.27018841 0 4083
0.06250000 0.06249100 37473.85659396 0 704.39762619 0 14983.11298537 0 4528.12753722 0 -2016.08939316 0 4303
0.06350000 0.06350600 36008.86258419 0 1473.82916124 0 13058.37636070 0 3677.08662972 0 2485.77998395 0 4470
0.06450000 0.06451750 34233.62661425 0 1230.25550055 0 10010.24910198 0 3019.89074409 0 -1047.25096226 0 4479
0.06550000 0.06550280 33136.20188338 0 957.77088618 0 8545.61479303 0 1699.63135313 0 -224.50277266 0 4636
0.06650000 0.06648880 32239.64758108 0 527.32365522 0 8487.06224337 0 203.26693530 0 549.48572220 0 4653
0.06750000 0.06749660 31702.11966312 0 783.93309856 0 7375.72158690 0 -1738.38911685 0 258.05386696 0 5220
0.06850000 0.06852730 31358.60537678 0 1226.97323054 0 7779.13730099 0 -653.52806130 0 100.66002730 0 5029
0.06950000 0.06949320 30163.04976503 0 885.88355256 0 8674.05046828 0 -1465.15137888 0 -640.42820694 0 5040
0.07050000 0.07048030 29655.87160405 0 660.86033778 0 8188.94894534 0 813.99284675 0 -447.47456869 0 5475
0.07150000 0.07148790 29487.37424959 0 226.36647255 0 8817.11023014 0 1677.29618013 0 -2252.77253495 0 5509
0.07250000 0.07249820 28869.47567891 0 345.89505616 0 7365.91973946 0 1135.50805554 0 -1079.54535181 0 5916
0.07350000 0.07351270 28546.08215738 0 694.21921695 0 7632.73906586 0 109.27778459 0 -3365.86673294 0 5721
0.07450000 0.07449140 27728.54962972 0 1063.37005541 0 7592.93592163 0 201.28071231 0 -1245.29549123 0 6028
0.07550000 0.07549160 26356.62820800 0 1289.17899169 0 7443.89613358 0 -1375.81068687 0 -1551.91796187 0 6183
0.07650000 0.07648840 25874.62910465 0 878.69740455 0 8231.33743924 0 12.17834581 0 -1452.07850208 0 6330
0.07750000 0.07749960 25328.78310516 0 415.12622402 0 7913.23826421 0 -573.88130649 0 -1553.22187736 0 6583
0.07850000 0.07848650 24957.61681802 0 118.21792374 0 6846.42182528 0 712.49089471 0 -2351.92631505 0 6549
0.07950000 0.07947320 25418.93312402 0 -141.90871922 0 7361.62581088 0 374.30692495 0 -1727.27211328 0 6828
0.08050000 0.08048110 24871.06380739 0 -137.59343340 0 6288.94175228 0 837.11598937 0 -2553.52738591 0 7147
0.08150000 0.08149960 25273.47910356 0 216.52640690 0 6732.83504964 0 248.42400148 0 -1724.18093433 0 7386
0.08250000 0.08250610 24842.51255453 0 368.45729031 0 6730.49699429 0 190.73136160 0 -1731.02649062 0 7227
0.08350000 0.08350160 25000.10647778 0 792.43215458 0 8016.68597288 0 -153.92497485 0 -729.84645944 0 7798
0.08450000 0.08449610 23516.45298780 0 910.76473296 0 7698.23833767 0 -369.62406986 0 1103.30471526 0 7371
0.08550000 0.08548940 23599.85861622 0 400.44818229 0 9107.18646290 0 809.91811086 0 1205.52606895 0 8256
0.08650000 0.08650700 23806.46177666 0 111.46723853 0 7961.29204608 0 821.35996924 0 2848.57198630 0 8037
0.08750000 0.08749060 23346.04472272 0 506.59589527 0 9482.01720218 0 1940.11383487 0 2064.71644822 0 8155
0.08850000 0.08849210 22989.26646852 0 590.93899397 0 7343.41595670 0 379.92612625 0 2922.41182095 0 8718
0.08950000 0.08949900 21784.71833618 0 553.16815938 0 7751.42909693 0 652.06228045 0 1732.72382888 0 8571
0.09050000 0.09049190 21537.98605264 0 805.75907009 0 6766.63568639 0 -968.17073624 0 469.32526965 0 8932
0.09150000 0.09150830 20683.35937756 0 349.11213040 0 6880.17749943 0 -0.89944090 0 -1074.91532778 0 9285
0.09250000 0.09250820 20490.58221752 0 531.84801714 0 6877.70455626 0 -658.48518828 0 -2649.74735617 0 9204
0.09350000 0.09350330 19945.52306358 0 674.92688810 0 6573.88100766 0 -128.65486794 0 -1730.83539956 0 9349
0.09450000 0.09448040 19079.54333126 0 898.60122480 0 7469.27752293 0 -559.35613761 0 -3246.77203844 0 9564
0.09550000 0.09549270 18710.73758078 0 698.06689170 0 7092.62579824 0 265.65029873 0 -1123.57722886 0 10155
0.09650000 0.09649430 18224.69184317 0 182.96969227 0 7345.73153075 0 133.82444321 0 -1089.83953975 0 9913
0.09750000 0.09749140 18358.56799338 0 -67.19357509 0 7992.75462748 0 845.43969123 0 293.26295725 0 10476
0.09850000 0.09850240 18385.99518116 0 -306.12113762 0 7788.26470938 0 658.61220763 0 -260.71565305 0 10575
0.09950000 0.09950330 18776.04576153 0 -71.88834528 0 7740.10976165 0 348.88844145 0 124.84203921 0 10882
0.10050000 0.10051200 18772.78597281 0 263.95520860 0 7570.10615999 0 -108.32693794 0 219.53215691 0 10875
0.10150000 0.10150300 18372.05677425 0 596.82572276 0 8063.30095146 0 -127.17447424 0 257.56602272 0 11118
0.10250000 0.10250800 17630.28623252 0 845.35763448 0 8321.37505160 0 87.34862389 0 382.06522209 0 11575
0.10350000 0.10349800 17033.40767870 0 855.69453690 0 7792.03032737 0 275.64998162 0 -325.18528126 0 11364
0.10450000 0.10450100 16269.83027454 0 607.48860404 0 7996.04813814 0 723.37409275 0 583.42237083 0 12093
0.10550000 0.10551000 16007.13626696 0 10.58511846 0 6797.76104827 0 788.89696993 0 801.38870509 0 12067
0.10650000 0.10649700 16198.45214240 0 -414.52147701 0 7271.41958877 0 1577.90634636 0 1677.97061917 0 12054
0.10750000 0.10749900 16728.78604389 0 -755.96860768 0 5795.00507786 0 903.39985860 0 671.72217858 0 12807
0.10850000 0.10850100 17022.16702797 0 -500.36632664 0 6247.20521611 0 575.17847758 0 763.22557179 0 12736
0.10950000 0.10950300 17494.72398470 0 -44.59076220 0 5280.66662236 0 -100.78974441 0 -269.57778209 0 12933
0.11050000 0.11050200 17151.65932439 0 537.98091618 0 5866.50685716 0 -871.58094857 0 -449.71932664 0 13428
0.11150000 0.11150900 16829.05264841 0 953.35443451 0 5821.35316317 0 -1163.86821734 0 -439.81518928 0 13453
0.11250000 0.11250000 16369.08522050 0 736.67515476 0 6468.76968267 0 -172.44169880 0 -380.24423667 0 13668
0.11350000 0.11349100 15380.35758220 0 657.06212189 0 6420.15386826 0 -31.27711066 0 -658.52677868 0 13791
0.11450000 0.11448600 15183.08416187 0 491.91110916 0 6348.95558653 0 571.49042007 0 -611.05413845 0 14205
0.11550000 0.11549300 14745.93525494 0 320.06628891 0 6894.49808846 0 817.26612424 0 -186.59929839 0 14776
0.11650000 0.11649800 14355.99708109 0 419.59775488 0 6175.95073113 0 428.09681089 0 -27.21260376 0 14553
0.11750000 0.11747300 14138.60289595 0 184.87385851 0 6613.94268686 0 729.23721617 0 1553.59281883 0 14568
0.11850000 0.11849100 14115.89678147 0 -75.70836802 0 6218.48535349 0 486.96859503 0 1109.76246911 0 16015
0.11950000 0.11950300 14303.50324217 0 -130.56240637 0 6333.99428041 0 654.77464947 0 1764.64727696 0 15270
0.12050000 0.12050700 14618.91590168 0 -256.19578740 0 6057.75528869 0 755.19300278 0 1434.17214547 0 15999
0.12150000 0.12150000 14404.10706621 0 -71.31900632 0 5143.46323953 0 631.43456229 0 567.40107134 0 15670
0.12250000 0.12250700 14480.09386516 0 326.99277789 0 5230.49959814 0 72.85301792 0 930.78433191 0 16887
0.12350000 0.12352200 14180.53052317 0 473.96878246 0 4732.83102768 0 21.90578014 0 135.64318050 0 16407
0.12450000 0.12449800 13586.57453855 0 610.47412087 0 5016.47760823 0 452.65426055 0 817.88323597 0 16306
0.12550000 0.12549900 13138.40979390 0 309.51356601 0 3929.96754922 0 516.50565296 0 -104.68485470 0 17523
0.12650000 0.12650100 12951.81499177 0 -87.09514721 0 3883.76847472 0 897.13094769 0 762.41624494 0 17154
0.12750000 0.12750600 13141.55717611 0 -285.97451931 0 3423.87973136 0 1075.35034096 0 633.82207651 0 18007
0.12850000 0.12850300 13297.68981476 0 -303.86738715 0 2961.21454727 0 726.37197430 0 387.03471377 0 17496
0.12950000 0.12949900 13436.17463177 0 -71.17164139 0 2180.51763205 0 280.91285429 0 290.33027147 0 18405
0.13050000 0.13049000 13452.81079485 0 158.97652329 0 2834.07154685 0 -505.95180599 0 233.09062982 0 18100
0.13150000 0.13148800 13310.05453057 0 314.71573917 0 2926.15495764 0 -505.08627588 0 1038.79012446 0 19059
0.13250000 0.13249300 13120.42475273 0 296.58456954 0 3194.93015727 0 -526.41765877 0 756.90945014 0 18957
0.13350000 0.13349100 12918.31785259 0 235.25333102 0 3738.24701035 0 -95.84397049 0 1299.89133183 0 19468
0.13450000 0.13450700 12742.85129468 0 290.27519228 0 3895.40254822 0 262.48043522 0 1045.58734596 0 19953
0.13550000 0.13551000 12594.36229852 0 228.01435195 0 4084.59394068 0 256.66677066 0 1385.03926112 0 19956
0.13650000 0.13649900 12366.17708869 0 172.24948367 0 3940.38763245 0 57.61564142 0 1339.64951347 0 19723
0.13750000 0.13749600 12367.75077979 0 48.07221654 0 4114.66268138 0 -70.35815549 0 1030.17978600 0 20946
0.13850000 0.13851100 12308.28773742 0 16.82421917 0 4026.10883492 0 49.68671121 0 1002.46933382 0 20955
0.13950000 0.13949800 12364.26617806 0 -18.07541600 0 4008.26992221 0 -408.39644642 0 356.66584769 0 20506
0.14050000 0.14048300 12433.28377355 0 13.38547930 0 3760.62714596 0 -5.62323669 0 -2.23332621 0 21447
0.14150000 0.14148400 12370.78575548 0 150.26839117 0 3965.75778115 0 -471.03722075 0 -703.84008991 0 21771
0.14250000 0.14249400 12212.62979970 0 220.97096020 0 3756.45686454 0 -185.66182812 0 -745.22142151 0 22470
0.14350000 0.14350900 11964.21141855 0 384.23579174 0 4032.38111803 0 -157.68047626 0 -836.56632155 0 22519
0.14450000 0.14449900 11658.46571866 0 436.28112869 0 4051.87240640 0 102.81486004 0 -669.76405722 0 22218
0.14550000 0.14550500 11232.86096003 0 309.86315025 0 3832.08396265 0 280.86451949 0 -798.84044956 0 23559
0.14650000 0.14650700 11118.54354210 0 245.34406318 0 3962.77900870 0 466.10819541 0 -741.64015019 0 23044
0.14750000 0.14750500 10877.10560505 0 109.29532000 0 3761.97602405 0 285.60245377 0 -306.00760704 0 23649
0.14850000 0.14849900 10922.92249743 0 65.76972187 0 3855.89166090 0 116.35759604 0 -270.92103985 0 23640
0.14950000 0.14949500 10822.25122948 0 161.25387913 0 3690.12578457 0 230.33891852 0 445.02747903 0 24457
0.15050000 0.15050000 10552.84655341 0 233.31881503 0 3699.60165314 0 270.98286343 0 784.98297534 0 24591
0.15150000 0.15149900 10481.37849606 0 213.77919186 0 3738.05591929 0 742.00996760 0 1652.00471598 0 25020
0.15250000 0.15250500 10273.56134535 0 155.20978123 0 3546.39158368 0 689.92978463 0 1557.81930351 0 25297
0.15350000 0.15350100 10280.86776833 0 48.05344466 0 3384.97583918 0 719.61184695 0 1992.05688190 0 25452
0.15450000 0.15450400 10105.37872911 0 78.64577487 0 3204.81068926 0 455.22724550 0 1725.03522378 0 26061
0.15550000 0.15549900 10127.21931348 0 168.19610502 0 3018.04727737 0 -293.07636244 0 1819.52413383 0 26128
0.15650000 0.15649500 9797.03643891 0 224.79053332 0 2970.39815892 0 -247.22799624 0 1691.39195614 0 26331
0.15750000 0.15749700 9710.74196325 0 231.50007774 0 3172.67366882 0 -380.68599424 0 1438.43235209 0 27345
0.15850000 0.15849900 9535.44401510 0 195.54236012 0 3136.60242063 0 -96.41117373 0 1293.40547636 0 26980
0.15950000 0.15949700 9489.71704793 0 106.45593163 0 3380.25476587 0 -121.56089327 0 951.07820274 0 27777
0.16050000 0.16050000 9368.53159240 0 46.79426696 0 3048.26214653 0 135.63756018 0 1120.44445950 0 28224
0.16150000 0.16150500 9424.59995824 0 41.50857577 0 3281.14594838 0 159.63410136 0 1088.38837174 0 28075
0.16250000 0.16249700 9390.25977026 0 -42.66040525 0 2766.41407010 0 518.01639642 0 1051.86412532 0 28590
0.16350000 0.16349900 9459.79443568 0 -35.05104674 0 2907.21446116 0 466.26219232 0 1137.85735155 0 29163
0.16450000 0.16449100 9403.16403730 0 78.29652785 0 2311.42625046 0 460.03487182 0 1035.29428208 0 28996
0.16550000 0.16550500 9244.16503271 0 154.60278609 0 2538.43119198 0 295.02998754 0 1108.16854484 0 30777
0.16650000 0.16650700 9090.10067379 0 200.63549896 0 2217.36448515 0 295.66620837 0 1173.16423549 0 29211
0.16750000 0.16749900 8996.24124018 0 158.49429937 0 2172.96391476 0 -4.87012434 0 1543.09405105 0 30922
0.16850000 0.16850800 8889.93840622 0 173.06555491 0 2531.64183894 0 -133.22419246 0 1512.96910709 0 30867
0.16950000 0.16949900 8742.46106863 0 123.86635073 0 2307.44706011 0 -20.20113546 0 1483.45115827 0 30852
0.17050000 0.17049200 8637.06872738 0 110.12308152 0 2542.17432867 0 89.57191220 0 1367.97595331 0 31257
0.17150000 0.17149500 8600.86259137 0 100.73533966 0 2151.03340518 0 134.32914843 0 1393.71704348 0 32608
0.17250000 0.17250900 8516.64763610 0 4.34696197 0 2273.28672253 0 287.39084130 0 1324.90177971 0 32361
0.17350000 0.17350400 8459.11798566 0 112.51554162 0 2035.13105550 0 205.50607292 0 780.92734856 0 32508
0.17450000 0.17449800 8433.73659630 0 147.22554701 0 2161.88063314 0 -121.75648059 0 1079.82749215 0 32791
0.17550000 0.17549800 8276.52485518 0 143.97137863 0 1964.00021767 0 -314.67077656 0 550.63451671 0 33633
0.17650000 0.17650100 8330.52494129 0 73.67279858 0 2613.27144454 0 -323.70713569 0 1276.53325961 0 33984
0.17750000 0.17750300 8253.93114721 0 67.87340965 0 2427.37356275 0 -163.10521430 0 719.32745849 0 34069
