### header ###
fiducial parameters:
Omega_m = 0.31
Omega_nu = 0
Omega_de = 0.69
Omega_k = 0
H_0 = 100
w_de = -1
zeff = 0
beta = 0
fgrowth = 0
b_1 = 2
gamma = 0.55
Lx = 3500 Ly = 3500 Lz = 3500
nx = 700 ny = 700 nz = 700
xoffset = 857.220397 yoffset = 15.9954215 zoffset = 262.898189
bins = 400 dk = 0.001
kx_ny = 0.628318531 ky_ny = 0.628318531 kz_ny = 0.628318531
############################
A(data) = 3.05734132 (not used)
A(ran) = 3.05770522 (used)
Ngal = 186811
weighted Ngal = 0
Nran = 9360983
weighted Nran = 0
SN(data) = 3444.69539
SN(ran) = 68.6645678
SN(data+ran) = 3513.35995
############################
13 columns: k_central k_mean P_0(k) sigma^{lin}_{P_0(k)} P^img_1(k) sigma^{lin}_{P_1(k)} P_2(k) sigma^{lin}_{P_2(k)} P^img_3(k) sigma^{lin}_{P_3(k)} P_4(k) sigma^{lin}_{P_4(k)} N_modes
### header ###
0.00050000 0 0 0 0 0 0 0 0 0 0 0 0
0.00150000 0.00179520 15583.25132789 0 -25283.14606319 0 -24830.59746476 0 37825.46414883 0 7901.49178419 0 3
0.00250000 0.00253879 33335.27380783 0 -34144.48825395 0 -23365.37864197 0 -19481.62140791 0 -2365.95464716 0 6
0.00350000 0.00331552 50736.92520447 0 -32481.99601084 0 -36688.02270136 0 -26527.37369260 0 -2340.21355699 0 7
0.00450000 0.00420575 71365.99223900 0 -28754.03419590 0 -46235.49421274 0 -31710.66255768 0 -12514.32886532 0 24
0.00550000 0.00557378 82729.84050201 0 -9096.32799429 0 -46602.61386562 0 -52196.86092142 0 -17425.14435668 0 45
0.00650000 0.00659388 90951.92688570 0 -1598.12827703 0 -47834.81399875 0 -56457.17995497 0 -36250.64898142 0 40
0.00750000 0.00754703 74111.40877354 0 9574.48279509 0 -28492.68906641 0 -64935.55317533 0 -30721.14807383 0 57
0.00850000 0.00846663 69320.86824501 0 11025.47095405 0 -26602.79845901 0 -46755.93634159 0 -36889.90478849 0 75
0.00950000 0.00948925 53691.97987514 0 12652.70127582 0 -7880.04462260 0 -36253.68395711 0 -32941.17659320 0 112
0.01050000 0.01054430 45854.09893344 0 6975.34084851 0 1463.28543086 0 -26139.00920985 0 -21251.91149153 0 105
0.01150000 0.01145670 42255.62941493 0 1769.00864944 0 18838.54377959 0 -10658.40750443 0 -10520.82193948 0 144
0.01250000 0.01249090 49050.15315578 0 -6146.82620508 0 14816.07691550 0 12853.34689137 0 -3745.51971138 0 169
0.01350000 0.01339930 58501.06747738 0 -11516.60870644 0 36717.36079977 0 12796.69401168 0 17233.04163568 0 180
0.01450000 0.01448870 72434.30368448 0 -11201.70187621 0 27957.97131114 0 20677.73905219 0 23290.06628208 0 267
0.01550000 0.01550050 92670.39756945 0 -3121.70855841 0 30614.24948538 0 29394.52647456 0 22733.99129041 0 238
0.01650000 0.01653350 83263.09697269 0 7097.76277562 0 29340.00931851 0 8770.02314422 0 33440.59870518 0 315
0.01750000 0.01747870 79932.71697411 0 10653.22556444 0 47382.93983936 0 12901.90650252 0 37206.32910657 0 297
0.01850000 0.01844180 70096.69795846 0 5866.70918887 0 34834.77661534 0 14652.75026038 0 25037.87506424 0 388
0.01950000 0.01947590 66691.23041300 0 5277.68784991 0 26159.01756815 0 14326.09695014 0 23969.22639924 0 399
0.02050000 0.02045430 65404.40071732 0 -1961.97690054 0 11123.71424144 0 20005.09851245 0 23754.64237679 0 462
0.02150000 0.02154770 65302.89764121 0 -3342.64354853 0 2741.78580435 0 17534.74070130 0 25523.69598883 0 571
0.02250000 0.02255340 68871.01740275 0 -3691.92428869 0 -15350.79467078 0 19805.68936848 0 22219.28189344 0 510
0.02350000 0.02348930 69971.36470281 0 -5341.30993305 0 -18891.48724453 0 20244.74918604 0 28155.46954448 0 555
0.02450000 0.02439640 72636.41058462 0 -3184.00424476 0 -25444.89902721 0 10390.83505443 0 14352.40007285 0 592
0.02550000 0.02547300 73559.15560313 0 -875.51854853 0 -24518.21978095 0 3003.51311597 0 33275.13632642 0 837
0.02650000 0.02652900 71658.24915801 0 1457.85619656 0 -23952.92745568 0 -4551.59801595 0 20314.32881406 0 723
0.02750000 0.02749970 71329.90975016 0 3571.73925107 0 -16626.94574827 0 -8924.90807065 0 35052.17080048 0 826
0.02850000 0.02848090 66597.59579241 0 1747.88746672 0 -10808.18917542 0 -15074.16225629 0 20081.42253092 0 831
0.02950000 0.02946900 63700.54287951 0 1742.88537714 0 -3394.81140857 0 -6248.04826492 0 15905.52078435 0 996
0.03050000 0.03053250 65448.35166167 0 2003.44366109 0 -2278.34501536 0 -15852.01528687 0 11764.12783553 0 1041
0.03150000 0.03150510 63558.46105427 0 2365.76355610 0 3163.87223930 0 -10633.90288583 0 -3234.16002832 0 1036
0.03250000 0.03246190 65083.92976498 0 1820.79432736 0 15115.97747701 0 -15386.42753360 0 7522.19850658 0 1059
0.03350000 0.03345080 62292.53896895 0 410.22867249 0 9883.28595197 0 -2481.13759520 0 -7497.31170586 0 1302
0.03450000 0.03451200 64042.93310078 0 2427.33984080 0 23023.32564023 0 -5475.55702473 0 -77.41334993 0 1339
0.03550000 0.03553350 60938.04055586 0 3762.93147936 0 19004.00615835 0 2046.38294688 0 -7934.66294450 0 1365
0.03650000 0.03647120 59396.83493414 0 4290.38777426 0 28759.76692778 0 2886.49794186 0 1345.40472664 0 1308
0.03750000 0.03744890 53149.16885135 0 4347.37787346 0 17310.71453223 0 5819.98180378 0 1024.19301542 0 1579
0.03850000 0.03847530 50643.62780341 0 1734.00526306 0 19532.09192969 0 7514.93704620 0 1820.96293712 0 1662
0.03950000 0.03950240 47201.06611053 0 -54.96914261 0 10408.94374275 0 2978.78368436 0 -803.84703540 0 1683
0.04050000 0.04050350 49361.96880706 0 -488.10614889 0 9982.77695159 0 359.51760078 0 -3620.96206062 0 1822
0.04150000 0.04152450 49185.71540360 0 960.06510300 0 9043.59810171 0 -4579.62095822 0 -3195.66079957 0 1887
0.04250000 0.04250150 47352.70248890 0 1858.03460323 0 10635.95992492 0 -4736.40555461 0 -3977.36937335 0 1920
0.04350000 0.04349210 47053.13914691 0 2803.84543704 0 17671.87664022 0 -2265.87913370 0 1803.84342606 0 2005
0.04450000 0.04448520 45170.55496249 0 2819.42497895 0 21012.82285049 0 -355.65868539 0 2536.52028135 0 2151
0.04550000 0.04548030 43875.74440479 0 3209.32943086 0 26103.93837957 0 3554.34996439 0 7944.03764721 0 2274
0.04650000 0.04648670 42368.03592224 0 1914.37274469 0 27237.44559928 0 3922.13281566 0 12672.03519508 0 2311
0.04750000 0.04749250 40559.75243914 0 1231.35708433 0 26658.43968013 0 5539.84230626 0 16937.07530194 0 2568
0.04850000 0.04851840 41722.71016377 0 221.15643094 0 29784.12742889 0 4924.07945922 0 20996.29909391 0 2493
0.04950000 0.04949480 40378.32833634 0 -476.55975246 0 22000.76364323 0 3041.46155284 0 12007.60033037 0 2644
0.05050000 0.05050630 41400.89033334 0 11.56516832 0 24189.99277960 0 4516.54966697 0 17976.49827503 0 2829
0.05150000 0.05149060 39739.97178133 0 1315.97670303 0 16841.64217723 0 1745.13350729 0 2152.67454019 0 2784
0.05250000 0.05249300 37527.13727843 0 1739.08603719 0 16429.89714095 0 1880.25736973 0 9934.54331930 0 3055
0.05350000 0.05348950 35966.14811142 0 1403.76618524 0 11577.53303340 0 2063.60362380 0 -1525.56987656 0 3009
0.05450000 0.05448610 33944.74189046 0 789.51632978 0 9492.05510328 0 3069.45077316 0 2638.79896235 0 3336
0.05550000 0.05550870 33437.56372948 0 302.61405459 0 7804.61985619 0 2706.75993667 0 -1527.66063760 0 3349
0.05650000 0.05647670 33543.90028539 0 7.71892114 0 6876.49056599 0 2243.55520135 0 303.89548877 0 3324
0.05750000 0.05747970 32802.80418270 0 596.52447332 0 7725.06977097 0 45.77181737 0 1311.40175818 0 3639
0.05850000 0.05849280 33458.58374635 0 743.86242684 0 9479.94892244 0 -984.04927946 0 4728.24484218 0 3846
0.05950000 0.05951020 32990.63545642 0 1057.14273491 0 13512.49865023 0 -2628.71609865 0 7309.21065653 0 3787
0.06050000 0.06049470 33133.61653371 0 414.85869653 0 14902.62992613 0 -361.34982685 0 10076.90616081 0 3930
0.06150000 0.06148310 32652.17946290 0 -170.44198703 0 17993.47165763 0 1397.97725011 0 10314.23001970 0 4083
0.06250000 0.06249100 33681.26103733 0 -260.35482817 0 17770.45714713 0 2370.99045869 0 11046.40104571 0 4303
0.06350000 0.06350600 32461.53802651 0 343.15008926 0 16181.70357281 0 2894.81602340 0 7657.32236901 0 4470
0.06450000 0.06451750 31751.91574586 0 791.93756595 0 14228.86532132 0 2520.90701749 0 6404.04601576 0 4479
0.06550000 0.06550280 30759.14147330 0 1442.77124327 0 11711.74640313 0 1808.39588960 0 6863.51885504 0 4636
0.06650000 0.06648880 29021.44927679 0 789.31961840 0 11025.76321097 0 442.65345359 0 2043.21308337 0 4653
0.06750000 0.06749660 29152.40285781 0 311.36490118 0 7985.09974433 0 1113.95073557 0 836.05936820 0 5220
0.06850000 0.06852730 28629.03815978 0 -177.89678660 0 7240.38415210 0 -315.44188520 0 -2695.68789570 0 5029
0.06950000 0.06949320 28386.01529097 0 -450.92207627 0 5801.55837723 0 -341.12115180 0 -3490.27825523 0 5040
0.07050000 0.07048030 29209.28055051 0 -443.68871752 0 6009.85887593 0 504.40734058 0 -3640.25101728 0 5475
0.07150000 0.07148790 29509.85555106 0 -471.93422468 0 5252.95841831 0 1095.84541944 0 -4796.85777424 0 5509
0.07250000 0.07249820 29756.36302159 0 -438.69674453 0 5660.80294878 0 1308.40050444 0 -2665.50674849 0 5916
0.07350000 0.07351270 30205.20220528 0 21.69816533 0 5116.36203062 0 1971.09306828 0 -2729.05014707 0 5721
0.07450000 0.07449140 29652.94903486 0 614.34764912 0 5676.25884353 0 819.94926757 0 -1318.42716489 0 6028
0.07550000 0.07549160 29290.10082927 0 908.55819322 0 5449.04032966 0 154.59716576 0 157.90191708 0 6183
0.07650000 0.07648840 28259.55797025 0 1378.54216500 0 6373.06678235 0 -1438.20753908 0 186.35312814 0 6330
0.07750000 0.07749960 27642.89587115 0 1332.72527262 0 6575.64578982 0 -1668.41606605 0 1429.67588517 0 6583
0.07850000 0.07848650 26369.21773682 0 1207.48194217 0 7926.38982556 0 -1536.01244109 0 -616.69244886 0 6549
0.07950000 0.07947320 25595.86096653 0 1710.88324451 0 8334.53785360 0 -996.62869170 0 1407.36319347 0 6828
0.08050000 0.08048110 24438.18634774 0 1044.89379781 0 9089.44871605 0 -209.41669531 0 -1566.56452978 0 7147
0.08150000 0.08149960 23298.04714410 0 971.14276429 0 7860.22735536 0 -173.86139299 0 -908.15240573 0 7386
0.08250000 0.08250610 23058.17165750 0 542.83800136 0 9511.55763230 0 1063.34307785 0 -1371.49427699 0 7227
0.08350000 0.08350160 22477.36723423 0 134.64051446 0 7461.82497150 0 1266.31550810 0 -1109.10601511 0 7798
0.08450000 0.08449610 22476.13076265 0 -242.42374212 0 7588.06871986 0 1769.23346246 0 1897.08462387 0 7371
0.08550000 0.08548940 22905.63602708 0 -299.82524914 0 7199.64803385 0 1387.28739127 0 166.58307164 0 8256
0.08650000 0.08650700 23033.89185192 0 -10.21709956 0 6275.02582667 0 1266.11317639 0 2841.02950966 0 8037
0.08750000 0.08749060 23028.60874607 0 295.08169453 0 6749.08903060 0 244.30430299 0 2464.99602075 0 8155
0.08850000 0.08849210 22805.36942256 0 619.07097055 0 6828.83020689 0 413.31872738 0 3668.54373517 0 8718
0.08950000 0.08949900 22252.10459358 0 613.50572438 0 7218.81334335 0 75.53425034 0 3742.04635030 0 8571
0.09050000 0.09049190 21708.16950470 0 471.60262548 0 7899.86188984 0 -503.97345146 0 3074.44162208 0 8932
0.09150000 0.09150830 21099.03864159 0 433.21917543 0 8064.30136938 0 -314.65728778 0 2250.01857552 0 9285
0.09250000 0.09250820 21047.21924172 0 256.14970073 0 8014.08938256 0 -476.33943570 0 1285.81803712 0 9204
0.09350000 0.09350330 20466.86444448 0 584.21483670 0 8927.71823333 0 157.64563024 0 3132.69067417 0 9349
0.09450000 0.09448040 20233.84575483 0 606.19930140 0 8355.79392414 0 -597.67664002 0 730.41523637 0 9564
0.09550000 0.09549270 19660.57256755 0 556.13681524 0 9380.45792282 0 496.52539628 0 1331.42135713 0 10155
0.09650000 0.09649430 19499.15682305 0 292.19621949 0 8631.35847681 0 285.97002305 0 984.97550908 0 9913
0.09750000 0.09749140 19156.31697576 0 0.12751619 0 8832.48744034 0 225.47508895 0 865.31653392 0 10476
0.09850000 0.09850240 19489.04023739 0 -150.46510255 0 8282.67349113 0 -401.30359581 0 270.32528536 0 10575
0.09950000 0.09950330 19379.44389277 0 33.99892183 0 8434.90562398 0 61.37901128 0 -46.21222607 0 10882
0.10050000 0.10051200 19427.89109742 0 276.57845937 0 8238.28416139 0 -235.60965965 0 -1063.58362778 0 10875
0.10150000 0.10150300 18726.69930482 0 705.65433094 0 8147.16744657 0 34.80779905 0 -1291.28099337 0 11118
0.10250000 0.10250800 18196.36540333 0 968.40791397 0 8134.02712586 0 102.94266624 0 -1602.38848365 0 11575
0.10350000 0.10349800 17168.63270699 0 812.66757403 0 7728.44196619 0 1129.21329113 0 -1543.80221205 0 11364
0.10450000 0.10450100 16173.49789778 0 574.46469626 0 6810.28313318 0 1486.62102178 0 -1707.07266391 0 12093
0.10550000 0.10551000 16133.93080721 0 122.94798957 0 6101.68375175 0 1658.42312755 0 -1414.13006521 0 12067
0.10650000 0.10649700 15712.74362432 0 -200.73778888 0 4793.83403920 0 1804.51786510 0 -1226.42243866 0 12054
0.10750000 0.10749900 15889.22184079 0 -90.05818275 0 4463.57248007 0 911.11319313 0 -732.71956977 0 12807
0.10850000 0.10850100 15774.11757731 0 -40.31189609 0 3357.89711157 0 393.40591461 0 -516.52813426 0 12736
0.10950000 0.10950300 16070.87075661 0 22.47219653 0 4350.21051745 0 -90.02479801 0 141.76708702 0 12933
0.11050000 0.11050200 15961.83644451 0 102.30790669 0 4124.13854995 0 -441.91269471 0 258.60690698 0 13428
0.11150000 0.11150900 16123.02737600 0 99.10454605 0 4846.91239195 0 -439.95794555 0 500.44051493 0 13453
0.11250000 0.11250000 16219.13493975 0 7.26043747 0 5203.84801526 0 -500.62598567 0 884.44587334 0 13668
0.11350000 0.11349100 16082.33622035 0 215.52936118 0 5343.94024532 0 -254.97730086 0 1151.93064626 0 13791
0.11450000 0.11448600 16270.05508756 0 213.96241447 0 5451.41210696 0 115.85851115 0 655.45133664 0 14205
0.11550000 0.11549300 15566.83997783 0 518.52784603 0 5311.08382324 0 174.65723106 0 878.23653787 0 14776
0.11650000 0.11649800 15408.90883506 0 331.60369282 0 5169.33921752 0 619.55881480 0 393.57902063 0 14553
0.11750000 0.11747300 14967.60088736 0 206.91340240 0 4806.18751435 0 682.17261156 0 205.41614772 0 14568
0.11850000 0.11849100 14780.78127221 0 183.83634645 0 4252.90020407 0 765.66816519 0 114.82549535 0 16015
0.11950000 0.11950300 14463.57010858 0 142.66409095 0 4237.00592394 0 151.45990014 0 -245.88136628 0 15270
0.12050000 0.12050700 14413.32439981 0 198.27159011 0 3994.59005027 0 106.29833770 0 598.82655859 0 15999
0.12150000 0.12150000 14315.75555147 0 201.36164500 0 4222.24694953 0 132.09338300 0 280.67230436 0 15670
0.12250000 0.12250700 14218.41151614 0 124.75211401 0 4453.73691068 0 -40.80423659 0 1059.74494555 0 16887
0.12350000 0.12352200 14478.07054802 0 142.40218379 0 5420.37667029 0 -67.43367539 0 1697.48438884 0 16407
0.12450000 0.12449800 14166.47970976 0 343.13884860 0 5331.95771164 0 -252.26380777 0 1526.66021968 0 16306
0.12550000 0.12549900 14092.51622795 0 455.31492257 0 5977.13734165 0 -256.96464791 0 2011.85166783 0 17523
0.12650000 0.12650100 13716.51646100 0 375.38040710 0 5630.34078530 0 90.88009913 0 2067.45916700 0 17154
0.12750000 0.12750600 13384.91726444 0 340.98851212 0 5614.97481575 0 314.67302469 0 1406.72247638 0 18007
0.12850000 0.12850300 13059.72523879 0 164.56874703 0 5244.62909611 0 348.83785853 0 913.92447988 0 17496
0.12950000 0.12949900 12863.57588353 0 143.69823081 0 4494.70908260 0 491.19395564 0 357.89445082 0 18405
0.13050000 0.13049000 12818.05124807 0 32.43624656 0 4243.84023958 0 411.00090520 0 -240.51845182 0 18100
0.13150000 0.13148800 12713.96282230 0 28.94411360 0 3679.45840703 0 331.34740599 0 -291.98601932 0 19059
0.13250000 0.13249300 12586.04421698 0 74.98278402 0 3482.49972492 0 162.26328956 0 -481.30667926 0 18957
0.13350000 0.13349100 12808.60910146 0 10.06530581 0 3881.00327464 0 332.33096293 0 -21.82293655 0 19468
0.13450000 0.13450700 12575.02837927 0 177.11668544 0 3460.64789990 0 121.55527294 0 97.02041700 0 19953
0.13550000 0.13551000 12617.63044554 0 16.67719146 0 3449.32856461 0 214.87403124 0 490.77243124 0 19956
0.13650000 0.13649900 12577.72613544 0 5.47850208 0 3267.09513496 0 544.43529783 0 584.72066598 0 19723
0.13750000 0.13749600 12575.59041180 0 -159.09904638 0 2821.14479851 0 712.36949569 0 62.84996284 0 20946
0.13850000 0.13851100 12576.37725735 0 -122.34886288 0 2657.84062469 0 618.23241801 0 568.46106470 0 20955
0.13950000 0.13949800 12697.55147223 0 -35.98626888 0 2082.27434466 0 273.30405781 0 181.97714281 0 20506
0.14050000 0.14048300 12441.37704208 0 222.40526723 0 2232.62928884 0 137.56757991 0 566.63783115 0 21447
0.14150000 0.14148400 12241.06864605 0 340.45233308 0 2202.75163920 0 -194.14289910 0 661.15596689 0 21771
0.14250000 0.14249400 12184.86539239 0 288.98813777 0 2639.74317702 0 -103.73434527 0 1216.36205625 0 22470
0.14350000 0.14350900 11955.89333700 0 262.47931115 0 2732.01767887 0 -211.60974627 0 915.26436545 0 22519
0.14450000 0.14449900 11865.40609862 0 224.63204014 0 3031.76087126 0 -259.63879871 0 960.55294724 0 22218
0.14550000 0.14550500 11775.36848626 0 247.74619024 0 3116.65026558 0 -280.67455249 0 859.81985571 0 23559
0.14650000 0.14650700 11353.28205132 0 346.17944463 0 2926.44721456 0 -33.59695616 0 156.16860874 0 23044
0.14750000 0.14750500 11170.61023629 0 381.67629557 0 2970.57800933 0 -158.85175207 0 163.75604798 0 23649
0.14850000 0.14849900 10693.53453796 0 314.19080078 0 2595.66858550 0 153.10440735 0 -658.67178308 0 23640
0.14950000 0.14949500 10437.12405414 0 449.62715330 0 2648.16242441 0 -11.31349015 0 -556.93265331 0 24457
0.15050000 0.15050000 9965.44386816 0 284.26256821 0 2507.90158459 0 157.16115820 0 -840.24313840 0 24591
0.15150000 0.15149900 9779.48978312 0 218.09222955 0 2479.71003256 0 272.58802836 0 -388.37459934 0 25020
0.15250000 0.15250500 9692.01503913 0 13.82914778 0 2426.27197898 0 321.13639886 0 -658.41324811 0 25297
0.15350000 0.15350100 9717.99218297 0 -52.49608704 0 2397.93429849 0 224.92654519 0 -55.05974226 0 25452
0.15450000 0.15450400 9785.69462232 0 -2.32306032 0 2573.72683527 0 155.86398710 0 117.30518290 0 26061
0.15550000 0.15549900 9941.97338944 0 97.41575068 0 3040.07895280 0 -83.56962952 0 915.32281683 0 26128
0.15650000 0.15649500 9788.98813299 0 177.69333082 0 2656.43554335 0 226.53058605 0 1331.90470512 0 26331
0.15750000 0.15749700 9673.71525974 0 231.57876229 0 3024.73546455 0 277.45298199 0 1561.68608736 0 27345
0.15850000 0.15849900 9445.21531168 0 110.55505973 0 3130.27393426 0 347.09780579 0 1861.38431715 0 26980
0.15950000 0.15949700 9398.73522091 0 156.27989118 0 3124.72105280 0 255.07846671 0 1624.28527128 0 27777
0.16050000 0.16050000 9211.42101713 0 167.67453882 0 2911.72196210 0 156.17647719 0 1563.12489065 0 28224
0.16150000 0.16150500 8957.84317729 0 118.32808211 0 2609.95545258 0 -53.22200827 0 1161.72125305 0 28075
0.16250000 0.16249700 8920.16451604 0 41.71855112 0 2291.57526127 0 203.18150635 0 678.14059015 0 28590
0.16350000 0.16349900 8911.54293693 0 13.12064957 0 2180.61879791 0 56.75854180 0 712.63252691 0 29163
0.16450000 0.16449100 8937.10417669 0 42.59015118 0 1954.10844503 0 -66.45180455 0 -128.34575005 0 28996
0.16550000 0.16550500 8864.52329492 0 52.36266052 0 2041.16728494 0 -150.95969119 0 -218.11021459 0 30777
0.16650000 0.16650700 8767.26918479 0 155.98313800 0 2116.56957004 0 -390.95882494 0 -381.77970956 0 29211
0.16750000 0.16749900 8873.63946266 0 124.18783334 0 2462.97270362 0 -240.15762693 0 20.44685609 0 30922
0.16850000 0.16850800 8727.53348446 0 81.99099253 0 2422.60752684 0 -135.55550343 0 -321.06895496 0 30867
0.16950000 0.16949900 8839.45664379 0 111.87370047 0 2843.90711624 0 -0.61626755 0 199.10789453 0 30852
0.17050000 0.17049200 8698.85858445 0 117.99985511 0 2587.11445029 0 83.19722676 0 -51.50039020 0 31257
0.17150000 0.17149500 8614.46377876 0 127.50157718 0 2425.74366840 0 437.92226370 0 284.38171910 0 32608
0.17250000 0.17250900 8540.83751647 0 76.01051671 0 2159.65498429 0 416.49308714 0 361.63421532 0 32361
0.17350000 0.17350400 8366.46130168 0 102.54306111 0 2012.73967924 0 372.58260913 0 89.50030925 0 32508
0.17450000 0.17449800 8303.23264132 0 126.20328202 0 1979.71464739 0 189.14755392 0 268.54251816 0 32791
0.17550000 0.17549800 8192.26493730 0 130.83892638 0 1771.83005277 0 -75.31280952 0 422.68443757 0 33633
0.17650000 0.17650100 8096.42714917 0 129.96777595 0 2217.22959734 0 -86.26569960 0 892.11087307 0 33984
0.17750000 0.17750300 8087.73812615 0 32.97680946 0 1998.90243819 0 150.66293801 0 997.72577921 0 34069
