### header ###
fiducial parameters:
Omega_m = 0.31
Omega_nu = 0
Omega_de = 0.69
Omega_k = 0
H_0 = 100
w_de = -1
zeff = 0
beta = 0
fgrowth = 0
b_1 = 2
gamma = 0.55
Lx = 3500 Ly = 3500 Lz = 3500
nx = 700 ny = 700 nz = 700
xoffset = 857.220397 yoffset = 15.9954215 zoffset = 262.898189
bins = 400 dk = 0.001
kx_ny = 0.628318531 ky_ny = 0.628318531 kz_ny = 0.628318531
############################
A(data) = 3.08299104 (not used)
A(ran) = 3.08054852 (used)
Ngal = 188813
weighted Ngal = 0
Nran = 9360983
weighted Nran = 0
SN(data) = 3446.29921
SN(ran) = 69.1775424
SN(data+ran) = 3515.47675
############################
13 columns: k_central k_mean P_0(k) sigma^{lin}_{P_0(k)} P^img_1(k) sigma^{lin}_{P_1(k)} P_2(k) sigma^{lin}_{P_2(k)} P^img_3(k) sigma^{lin}_{P_3(k)} P_4(k) sigma^{lin}_{P_4(k)} N_modes
### header ###
0.00050000 0 0 0 0 0 0 0 0 0 0 0 0
0.00150000 0.00179520 24460.10561667 0 -39994.01048785 0 -28395.56984409 0 50941.84226730 0 12273.66653317 0 3
0.00250000 0.00253879 41231.60613333 0 -34944.71017949 0 -1936.24705102 0 -52893.55645372 0 -34703.82303433 0 6
0.00350000 0.00331552 58960.36046625 0 -21146.02456165 0 -24041.61618995 0 -2022.17058520 0 49899.15950549 0 7
0.00450000 0.00420575 66212.94072440 0 -2597.90547499 0 -9971.05295288 0 -37776.79213116 0 15173.86682827 0 24
0.00550000 0.00557378 54226.81003693 0 17893.20505311 0 -4467.81020540 0 -25427.58842508 0 29812.45386873 0 45
0.00650000 0.00659388 45560.94276238 0 1750.46157573 0 -23052.10170610 0 48469.57354553 0 45437.63282386 0 40
0.00750000 0.00754703 42473.92285212 0 -13364.45928010 0 -21858.11978546 0 25083.96173224 0 3161.81520022 0 57
0.00850000 0.00846663 58889.88158617 0 -28528.88396176 0 -37241.51234335 0 41456.30674145 0 20881.98167598 0 75
0.00950000 0.00948925 70034.87437944 0 -18790.54620097 0 -34898.06147896 0 7874.78399806 0 -2268.04857929 0 112
0.01050000 0.01054430 93722.41007137 0 -7414.33322216 0 -26127.54374610 0 -46416.01906348 0 52648.73508080 0 105
0.01150000 0.01145670 84330.84638562 0 6732.59899598 0 -4485.31189858 0 -35003.16156329 0 54348.20906482 0 144
0.01250000 0.01249090 92571.81706254 0 4628.30421653 0 24254.85133432 0 -28358.92532271 0 65934.95943182 0 169
0.01350000 0.01339930 95961.09807095 0 -7185.39488872 0 42067.79814121 0 -18930.94192860 0 51550.97313041 0 180
0.01450000 0.01448870 101046.14364864 0 153.84853842 0 79107.76561696 0 -12380.67752813 0 35775.28186200 0 267
0.01550000 0.01550050 111055.49349855 0 155.19179619 0 88588.13044348 0 16005.89979538 0 -5981.40878893 0 238
0.01650000 0.01653350 111171.15979458 0 6269.76520213 0 96179.27910164 0 -8723.52057215 0 13030.27473387 0 315
0.01750000 0.01747870 120260.34997565 0 10004.89855223 0 108953.71662487 0 -15083.37958989 0 -730.57260548 0 297
0.01850000 0.01844180 105636.03856162 0 4548.49559634 0 97194.64708217 0 9867.17809947 0 3952.72986695 0 388
0.01950000 0.01947590 102942.66623997 0 10620.90869359 0 80537.35157693 0 14332.27930804 0 -57549.32157999 0 399
0.02050000 0.02045430 95646.58466350 0 7215.21633511 0 69644.37417305 0 14139.50214801 0 -52272.96012686 0 462
0.02150000 0.02154770 85879.13361731 0 6861.05715253 0 49880.50002528 0 15180.83603173 0 -72470.83579935 0 571
0.02250000 0.02255340 77985.04942195 0 2731.20835201 0 28105.89827476 0 8817.81839113 0 -62932.69402808 0 510
0.02350000 0.02348930 71323.05295321 0 2064.22185959 0 12311.88474565 0 1574.18569097 0 -78828.88507232 0 555
0.02450000 0.02439640 75189.04995912 0 640.48890646 0 8730.34364714 0 5591.34696791 0 -83253.31760655 0 592
0.02550000 0.02547300 67336.89339099 0 2271.83667859 0 5887.17841385 0 -4680.03369120 0 -68589.66391496 0 837
0.02650000 0.02652900 66941.89692430 0 3826.01401126 0 7298.05993100 0 -7798.68479261 0 -69507.23823413 0 723
0.02750000 0.02749970 60401.41188997 0 2087.54620986 0 9693.10538225 0 -2801.42869713 0 -55979.90192493 0 826
0.02850000 0.02848090 59721.68974026 0 3038.40409584 0 9813.47027028 0 -4232.89184577 0 -51897.63479896 0 831
0.02950000 0.02946900 60381.06631214 0 1556.18940915 0 14467.50433634 0 573.64300469 0 -39379.93373842 0 996
0.03050000 0.03053250 58018.28152849 0 45.59668803 0 12674.50813824 0 4250.29237310 0 -29111.14966963 0 1041
0.03150000 0.03150510 58753.53249280 0 1194.02688325 0 15062.58438604 0 2941.97055322 0 -33411.82263931 0 1036
0.03250000 0.03246190 61159.70618828 0 110.80673790 0 10085.14555780 0 8001.32000333 0 -14395.67657817 0 1059
0.03350000 0.03345080 54639.11710574 0 3201.47221600 0 16285.56718557 0 485.35331352 0 -16195.30476020 0 1302
0.03450000 0.03451200 59406.83911329 0 2179.61837999 0 13838.36511492 0 1938.37153400 0 -329.25214869 0 1339
0.03550000 0.03553350 53944.10767104 0 2572.61401085 0 22070.23086475 0 -945.75800275 0 -1557.71813765 0 1365
0.03650000 0.03647120 54266.60194051 0 4747.78109315 0 17791.70197701 0 -5374.50357466 0 2423.47305695 0 1308
0.03750000 0.03744890 49469.09220853 0 3858.52197317 0 25870.13284436 0 -6845.64622038 0 2001.01568053 0 1579
0.03850000 0.03847530 46935.11231424 0 4242.27778913 0 25783.13020770 0 -4196.47213740 0 618.38079460 0 1662
0.03950000 0.03950240 43241.32207753 0 1892.17245950 0 25747.60975139 0 836.13355649 0 -8281.52694476 0 1683
0.04050000 0.04050350 42639.94726342 0 228.84053978 0 25188.83700356 0 1611.59457660 0 -11090.37447137 0 1822
0.04150000 0.04152450 41878.28076989 0 -141.78619613 0 20650.42427092 0 3727.68079866 0 -16503.74821626 0 1887
0.04250000 0.04250150 43027.86212015 0 -315.71728115 0 18483.90124903 0 7177.58263647 0 -18804.59701438 0 1920
0.04350000 0.04349210 41293.65452537 0 607.62349185 0 13334.22192964 0 2180.40522554 0 -16889.07772331 0 2005
0.04450000 0.04448520 40788.27486850 0 1151.82948040 0 15393.17192403 0 3208.01427472 0 -11830.56008135 0 2151
0.04550000 0.04548030 39022.14382565 0 1139.37483939 0 13651.88271930 0 3864.86170019 0 -6950.46528845 0 2274
0.04650000 0.04648670 38956.61083189 0 1492.98323009 0 12814.45423984 0 571.95803115 0 -2472.03266811 0 2311
0.04750000 0.04749250 37175.86694309 0 1577.24314797 0 14089.93087828 0 2608.84262816 0 219.90422245 0 2568
0.04850000 0.04851840 35806.98049706 0 1453.56226798 0 15794.12593561 0 -119.71068215 0 2595.36508793 0 2493
0.04950000 0.04949480 34995.18070127 0 1480.71968014 0 15486.46932510 0 -882.11793457 0 1754.62061650 0 2644
0.05050000 0.05050630 34241.15785024 0 1261.41458438 0 16621.32542290 0 -1081.30676178 0 551.36740714 0 2829
0.05150000 0.05149060 33459.70781142 0 727.58596458 0 17959.41248592 0 -810.12606290 0 -3127.46377158 0 2784
0.05250000 0.05249300 33407.88841155 0 -572.82580938 0 15264.01684713 0 1018.42318940 0 -2933.62999038 0 3055
0.05350000 0.05348950 33367.87169495 0 -1401.76534941 0 14915.66908098 0 958.92642508 0 -8370.09203187 0 3009
0.05450000 0.05448610 35921.85994754 0 -1135.36192708 0 13048.14736853 0 2171.26657650 0 -7517.06152919 0 3336
0.05550000 0.05550870 36408.80493720 0 -904.18333195 0 10740.95884340 0 2185.69957204 0 -9524.43941803 0 3349
0.05650000 0.05647670 36548.86344531 0 -231.25053529 0 9301.22257582 0 1764.84960867 0 -8224.64925206 0 3324
0.05750000 0.05747970 36800.65402168 0 605.79351391 0 8999.70336061 0 81.04464214 0 -9162.79396207 0 3639
0.05850000 0.05849280 35330.03968655 0 761.12806636 0 8591.02702198 0 130.85466329 0 -7713.06475599 0 3846
0.05950000 0.05951020 35481.56365840 0 1224.99487601 0 9550.78750335 0 -714.83569446 0 -4612.80335918 0 3787
0.06050000 0.06049470 33284.69087954 0 1529.00951568 0 8012.18971259 0 -501.04638601 0 -5014.11707157 0 3930
0.06150000 0.06148310 32998.39150542 0 942.68930510 0 13786.32090204 0 -734.51582576 0 -3578.66349192 0 4083
0.06250000 0.06249100 33038.40822202 0 414.65411669 0 12801.07786547 0 -1100.39788299 0 -3489.24411536 0 4303
0.06350000 0.06350600 32172.42848971 0 719.80743427 0 16225.54211066 0 -109.27969550 0 -141.28711123 0 4470
0.06450000 0.06451750 32917.00919413 0 602.74055317 0 15714.54212843 0 781.36460987 0 688.37969890 0 4479
0.06550000 0.06550280 32020.11767230 0 405.80098017 0 17316.78448363 0 1844.08495567 0 3361.73017347 0 4636
0.06650000 0.06648880 31401.54466257 0 1331.30895063 0 14834.06195667 0 2937.47429293 0 2085.05078539 0 4653
0.06750000 0.06749660 30524.43668604 0 772.73291418 0 14834.73639572 0 3023.81373119 0 2848.58322695 0 5220
0.06850000 0.06852730 28920.50823323 0 689.72520479 0 12354.71162494 0 2639.14742253 0 3993.78072342 0 5029
0.06950000 0.06949320 29220.85842076 0 205.73650626 0 11084.49561104 0 2351.35304186 0 529.35371674 0 5040
0.07050000 0.07048030 28703.11404809 0 -158.53364165 0 10123.71223046 0 1376.62001372 0 3288.75586892 0 5475
0.07150000 0.07148790 28029.68666280 0 40.42497704 0 7998.35247154 0 663.44231525 0 -1459.49733156 0 5509
0.07250000 0.07249820 28752.46050480 0 -8.59258947 0 9259.13757948 0 -363.39562529 0 1865.18365709 0 5916
0.07350000 0.07351270 28334.53311062 0 167.55313980 0 7165.30784587 0 40.44970647 0 -1073.97336125 0 5721
0.07450000 0.07449140 28651.85668076 0 712.76966285 0 9305.34789464 0 79.89472357 0 -1016.80565976 0 6028
0.07550000 0.07549160 27759.01179320 0 586.75747190 0 8340.24810417 0 165.01837306 0 473.99688409 0 6183
0.07650000 0.07648840 27399.76059583 0 723.05598234 0 8515.39992387 0 729.84421131 0 -761.94413761 0 6330
0.07750000 0.07749960 26999.36861680 0 747.34815263 0 7853.88762835 0 452.20575858 0 -520.05095420 0 6583
0.07850000 0.07848650 25778.29672789 0 551.00883038 0 6942.20341016 0 992.75516345 0 -2422.80985856 0 6549
0.07950000 0.07947320 25666.00262709 0 987.27759435 0 7722.84412212 0 -419.89338399 0 -776.78854096 0 6828
0.08050000 0.08048110 24324.09374282 0 1041.69246048 0 7350.00297803 0 -764.66774728 0 -3221.06467022 0 7147
0.08150000 0.08149960 23446.53614025 0 845.93090767 0 8127.84476796 0 -828.10435968 0 -1027.36175486 0 7386
0.08250000 0.08250610 23139.21674927 0 443.90903428 0 8413.27861197 0 -70.24574899 0 -1598.84767867 0 7227
0.08350000 0.08350160 22712.97127355 0 -94.08716919 0 7289.47207384 0 833.13792307 0 -665.38807189 0 7798
0.08450000 0.08449610 23481.15734450 0 -393.67231803 0 7572.84887877 0 1157.58469358 0 -1040.77859557 0 7371
0.08550000 0.08548940 23053.56299070 0 -28.10027795 0 7016.38046433 0 798.21546938 0 -1893.16163676 0 8256
0.08650000 0.08650700 23314.90812019 0 449.15729410 0 7345.99006572 0 -185.73826455 0 -0.44075154 0 8037
0.08750000 0.08749060 22395.42289040 0 1170.85990209 0 7699.41860600 0 -970.66616070 0 -902.54669321 0 8155
0.08850000 0.08849210 22259.63582957 0 1162.84531812 0 8547.44701910 0 -1123.35016771 0 237.21032831 0 8718
0.08950000 0.08949900 20710.78656534 0 738.14543188 0 8725.19542911 0 -3.45127320 0 330.30876986 0 8571
0.09050000 0.09049190 20578.03448021 0 262.91882060 0 10037.55264260 0 464.08150608 0 -878.58499805 0 8932
0.09150000 0.09150830 20421.78943505 0 -93.88180250 0 9211.38729518 0 1547.41046093 0 -1421.60509795 0 9285
0.09250000 0.09250820 20289.71178896 0 -21.84957689 0 8748.74459239 0 1045.22202481 0 -1040.74262549 0 9204
0.09350000 0.09350330 20182.81320051 0 190.95505055 0 7426.92275098 0 1450.07766625 0 401.30247175 0 9349
0.09450000 0.09448040 20038.82046465 0 82.89923711 0 7087.33145175 0 522.56998403 0 -402.72778626 0 9564
0.09550000 0.09549270 19819.17814936 0 315.28001983 0 6539.23732210 0 974.36433479 0 -383.71422555 0 10155
0.09650000 0.09649430 19607.62910260 0 282.22688636 0 5835.80864001 0 45.92019396 0 -517.55215754 0 9913
0.09750000 0.09749140 19106.40848651 0 261.30466315 0 5892.82122052 0 124.95556979 0 -95.87769244 0 10476
0.09850000 0.09850240 19119.22282834 0 219.98515513 0 6393.64841384 0 -274.53153687 0 -509.75227000 0 10575
0.09950000 0.09950330 18647.56512367 0 323.49468739 0 5780.79689533 0 229.14628548 0 -1331.72485470 0 10882
0.10050000 0.10051200 18521.33261596 0 304.23720455 0 6065.25280273 0 -279.99112093 0 -1655.18582014 0 10875
0.10150000 0.10150300 18113.63421395 0 258.96998000 0 5311.58965252 0 899.98157671 0 -1693.48271718 0 11118
0.10250000 0.10250800 17891.40654900 0 230.14782746 0 5190.29179048 0 1245.52030425 0 -1481.07938097 0 11575
0.10350000 0.10349800 17538.33770954 0 96.01898742 0 3831.97155615 0 1504.13395562 0 -2032.99533186 0 11364
0.10450000 0.10450100 17392.09684353 0 187.11861646 0 3722.02675135 0 1414.42232213 0 -1784.63315396 0 12093
0.10550000 0.10551000 17096.24291629 0 403.23361554 0 3099.17105369 0 104.63573305 0 -1560.15735886 0 12067
0.10650000 0.10649700 16969.33596953 0 401.61046558 0 3356.78428715 0 -121.97567328 0 -500.89688535 0 12054
0.10750000 0.10749900 16446.98293006 0 541.95785841 0 3493.97642932 0 -928.57779217 0 -146.20939219 0 12807
0.10850000 0.10850100 16362.11601705 0 320.32145169 0 4587.39948852 0 -575.03459725 0 298.90126765 0 12736
0.10950000 0.10950300 16187.09908516 0 236.98551530 0 4128.30883137 0 -619.04848925 0 -288.80266704 0 12933
0.11050000 0.11050200 16280.84611226 0 227.31967973 0 5924.66598404 0 -488.53891394 0 34.37896823 0 13428
0.11150000 0.11150900 16090.99152141 0 304.79586490 0 5675.64060774 0 -542.43221387 0 179.62559868 0 13453
0.11250000 0.11250000 15780.97437425 0 253.95327757 0 6282.14115858 0 -156.03934125 0 -700.45215778 0 13668
0.11350000 0.11349100 15661.26144397 0 349.28186423 0 6459.08024174 0 -14.94354589 0 1113.11218303 0 13791
0.11450000 0.11448600 15271.88530265 0 296.99822548 0 5754.35888481 0 768.11862705 0 -530.65201190 0 14205
0.11550000 0.11549300 15041.11474314 0 280.19008045 0 5545.11417145 0 810.21036778 0 993.76232576 0 14776
0.11650000 0.11649800 14747.17172652 0 208.77373009 0 5295.67289108 0 905.02862889 0 -427.63482015 0 14553
0.11750000 0.11747300 14618.80349518 0 80.94482517 0 4215.10913631 0 205.09354104 0 -572.71003068 0 14568
0.11850000 0.11849100 14460.87235241 0 84.55138795 0 4455.16447332 0 -141.25226522 0 -933.21118840 0 16015
0.11950000 0.11950300 14335.20187723 0 133.09380092 0 3995.14084216 0 -694.22933354 0 -1916.05884230 0 15270
0.12050000 0.12050700 14243.25335425 0 237.24180213 0 4319.53478160 0 -982.00460510 0 -1926.17542796 0 15999
0.12150000 0.12150000 14011.92076221 0 288.81278362 0 4460.06539704 0 -147.64482329 0 -2837.21892906 0 15670
0.12250000 0.12250700 13859.72235131 0 163.69984473 0 4530.24077956 0 174.89216066 0 -2436.42228659 0 16887
0.12350000 0.12352200 13686.27911053 0 183.54408953 0 3910.26268849 0 726.57318195 0 -2731.75914390 0 16407
0.12450000 0.12449800 13334.22192964 0 87.22126731 0 3644.05035723 0 942.13401695 0 -1736.11850540 0 16306
0.12550000 0.12549900 13340.96632008 0 187.51428736 0 3594.99615744 0 654.59030280 0 -1926.15294666 0 17523
0.12650000 0.12650100 13087.37723959 0 268.54251816 0 3438.47009601 0 540.12226014 0 -1280.26515566 0 17154
0.12750000 0.12750600 12921.01560877 0 219.73673675 0 3089.87503554 0 210.62056901 0 -909.40686235 0 18007
0.12850000 0.12850300 12861.55256640 0 128.65149575 0 3405.45630481 0 413.38841941 0 -957.64386683 0 17496
0.12950000 0.12949900 12645.95688538 0 112.34187357 0 3514.80535512 0 399.91762358 0 -439.48808635 0 18405
0.13050000 0.13049000 12731.49823744 0 165.32524282 0 3457.27570468 0 398.38664695 0 -715.64951757 0 18100
0.13150000 0.13148800 12503.20062110 0 195.06688059 0 3728.91727025 0 -75.87270634 0 155.37389473 0 19059
0.13250000 0.13249300 12519.83678418 0 144.87849914 0 3631.88797314 0 -225.94944441 0 -183.21473846 0 18957
0.13350000 0.13349100 12488.47536864 0 63.71549294 0 4088.33707737 0 -104.07055313 0 312.75312155 0 19468
0.13450000 0.13450700 12509.49538551 0 82.97556113 0 4007.48307666 0 -269.55417672 0 499.11636628 0 19953
0.13550000 0.13551000 12572.66784261 0 -13.84061325 0 4136.71683811 0 5.15759274 0 822.92804002 0 19956
0.13650000 0.13649900 12581.32314368 0 103.83809648 0 3796.11388032 0 411.13242081 0 341.10991115 0 19723
0.13750000 0.13749600 12402.48439055 0 243.83669192 0 3977.83024003 0 60.29316442 0 134.72257121 0 20946
0.13850000 0.13851100 12138.44150488 0 307.68021587 0 3550.85412202 0 -15.87415937 0 -137.44730494 0 20955
0.13950000 0.13949800 11789.53170619 0 409.19116043 0 3919.67111315 0 -124.98929174 0 -150.70115622 0 20506
0.14050000 0.14048300 11447.47870444 0 360.65965090 0 3605.24763090 0 -192.88282215 0 401.78132347 0 21447
0.14150000 0.14148400 11057.51804928 0 296.68910759 0 3777.84782288 0 -8.74364134 0 -282.02905091 0 21771
0.14250000 0.14249400 11106.47108322 0 104.29120711 0 3811.05270514 0 108.30130926 0 68.90428973 0 22470
0.14350000 0.14350900 11090.54308113 0 78.99884371 0 3908.75644129 0 162.71516372 0 152.01069203 0 22519
0.14450000 0.14449900 11012.96010978 0 16.24082940 0 3974.27819440 0 144.68403588 0 410.53554226 0 22218
0.14550000 0.14550500 11036.79028933 0 151.36997494 0 4074.23006070 0 77.17212556 0 1059.65389628 0 23559
0.14650000 0.14650700 10957.73479274 0 39.88756153 0 4531.82571131 0 93.32044440 0 699.41352165 0 23044
0.14750000 0.14750500 10965.72689541 0 127.83879670 0 4819.79994239 0 208.79508733 0 1456.51855912 0 23649
0.14850000 0.14849900 11032.73241442 0 69.42270854 0 4856.05104099 0 68.45904755 0 1186.85534808 0 23640
0.14950000 0.14949500 10782.80778607 0 159.35758135 0 4720.69112489 0 187.69301371 0 1457.99108436 0 24457
0.15050000 0.15050000 10705.70816270 0 68.59449739 0 4610.22925016 0 409.29569848 0 1256.81715823 0 24591
0.15150000 0.15149900 10585.80414136 0 141.30284814 0 4331.73088765 0 378.75934671 0 1542.36340875 0 25020
0.15250000 0.15250500 10506.72616346 0 147.85277533 0 3998.95142276 0 322.51000638 0 1120.44783169 0 25297
0.15350000 0.15350100 10172.20439771 0 238.81661730 0 3789.04351101 0 141.15334749 0 1100.38776640 0 25452
0.15450000 0.15450400 10081.55979021 0 226.28666393 0 3975.50342533 0 -199.99253374 0 1433.64383488 0 26061
0.15550000 0.15549900 9940.87180567 0 215.68335810 0 3597.73887621 0 -183.21024220 0 829.98716867 0 26128
0.15650000 0.15649500 9915.78267323 0 120.85048414 0 4212.44510209 0 -130.93109971 0 1575.24231214 0 26331
0.15750000 0.15749700 9882.53282837 0 180.98684148 0 4285.37444403 0 -144.42437685 0 1357.81440505 0 27345
0.15850000 0.15849900 9751.42187825 0 162.03398029 0 4578.44068989 0 336.07409962 0 1763.28715822 0 26980
0.15950000 0.15949700 9530.73418244 0 258.12580713 0 4512.68288311 0 242.44734749 0 1588.93342473 0 27777
0.16050000 0.16050000 9384.18981886 0 216.09926217 0 4470.69905263 0 508.85076981 0 1908.28031200 0 28224
0.16150000 0.16150500 9193.79567678 0 63.74651714 0 4052.06349746 0 512.29715333 0 1418.01933037 0 28075
0.16250000 0.16249700 9084.28925736 0 3.47847557 0 3709.44846318 0 421.54913184 0 1177.89654945 0 28590
0.16350000 0.16349900 9107.37755396 0 -26.78736994 0 3264.22876903 0 244.50326251 0 991.17247983 0 29163
0.16450000 0.16449100 9002.00769401 0 82.01594677 0 2990.55264568 0 -47.52243631 0 450.57136797 0 28996
0.16550000 0.16550500 8983.93272763 0 67.94017912 0 2731.92775366 0 56.75235944 0 708.96020632 0 30777
0.16650000 0.16650700 8969.48849145 0 19.84109742 0 2529.03400797 0 113.02361904 0 258.46302665 0 29211
0.16750000 0.16749900 8839.82758526 0 21.41636221 0 2235.69798649 0 529.55492439 0 541.38121303 0 30922
0.16850000 0.16850800 8810.21971124 0 -18.13701477 0 2215.65590624 0 471.77348337 0 267.83435716 0 30867
0.16950000 0.16949900 8807.80297133 0 63.01947185 0 1986.03189310 0 613.60464210 0 644.58387552 0 30852
0.17050000 0.17049200 8778.16137535 0 214.00063268 0 1938.13548034 0 159.67344363 0 730.31856677 0 31257
0.17150000 0.17149500 8594.66899282 0 196.33032973 0 2011.25591334 0 -30.50161817 0 1073.66873961 0 32608
0.17250000 0.17250900 8397.62038551 0 219.33319739 0 2163.19578927 0 -136.00400539 0 1425.08969968 0 32361
0.17350000 0.17350400 8322.76889229 0 102.95300764 0 2371.86722944 0 -102.16447599 0 1161.50768068 0 32508
0.17450000 0.17449800 8305.60441862 0 67.31059027 0 2454.16003345 0 -42.24719893 0 1197.21922806 0 32791
0.17550000 0.17549800 8173.32444082 0 58.74307869 0 2448.41606092 0 31.55677805 0 857.17605466 0 33633
0.17650000 0.17650100 8210.76704840 0 62.88503367 0 2325.02743785 0 55.27095408 0 921.02182675 0 33984
0.17750000 0.17750300 8056.11817565 0 72.00434879 0 2239.87950856 0 115.90572188 0 621.34832639 0 34069
