### header ###
fiducial parameters:
Omega_m = 0.31
Omega_nu = 0
Omega_de = 0.69
Omega_k = 0
H_0 = 100
w_de = -1
zeff = 0
beta = 0
fgrowth = 0
b_1 = 2
gamma = 0.55
Lx = 3500 Ly = 3500 Lz = 3500
nx = 700 ny = 700 nz = 700
xoffset = 857.220397 yoffset = 15.9954215 zoffset = 262.898189
bins = 400 dk = 0.001
kx_ny = 0.628318531 ky_ny = 0.628318531 kz_ny = 0.628318531
############################
A(data) = 3.10275052 (not used)
A(ran) = 3.10321166 (used)
Ngal = 189553
weighted Ngal = 0
Nran = 9360983
weighted Nran = 0
SN(data) = 3441.54389
SN(ran) = 69.6864715
SN(data+ran) = 3511.23037
############################
13 columns: k_central k_mean P_0(k) sigma^{lin}_{P_0(k)} P^img_1(k) sigma^{lin}_{P_1(k)} P_2(k) sigma^{lin}_{P_2(k)} P^img_3(k) sigma^{lin}_{P_3(k)} P_4(k) sigma^{lin}_{P_4(k)} N_modes
### header ###
0.00050000 0 0 0 0 0 0 0 0 0 0 0 0
0.00150000 0.00179520 -980.81534425 0 -4178.41965233 0 -5774.44592767 0 12703.28420411 0 -264.03501722 0 3
0.00250000 0.00253879 1200.96236475 0 -4674.95291707 0 -4106.50196895 0 -432.29519394 0 3629.96582186 0 6
0.00350000 0.00331552 4259.88064817 0 -5755.35930273 0 -9766.07968680 0 2490.10763448 0 -5309.88107361 0 7
0.00450000 0.00420575 6935.14428150 0 -5718.81594720 0 -12508.70853995 0 6898.35363166 0 5323.30241058 0 24
0.00550000 0.00557378 12571.54377754 0 -7195.50023373 0 -20085.46916518 0 13026.11569310 0 12995.20390359 0 45
0.00650000 0.00659388 16897.95783739 0 -10006.52844658 0 -20220.91900649 0 12513.87923929 0 7419.52640280 0 40
0.00750000 0.00754703 26540.30044094 0 -14542.59188322 0 -29491.19607084 0 21381.96582049 0 16833.54890870 0 57
0.00850000 0.00846663 40073.81910804 0 -21161.19944013 0 -32376.67111349 0 14308.44912849 0 26866.72893817 0 75
0.00950000 0.00948925 60784.15604736 0 -25140.72701843 0 -43384.86518736 0 21251.79908503 0 53003.15279835 0 112
0.01050000 0.01054430 78965.34657220 0 -21482.45723803 0 -33339.09562908 0 8838.47870718 0 32261.34203699 0 105
0.01150000 0.01145670 93822.78908239 0 -12631.56885244 0 -33537.04348845 0 6.18932711 0 63390.86295187 0 144
0.01250000 0.01249090 105282.29528312 0 -5266.28983007 0 -23137.86787118 0 8524.47112901 0 70772.48588041 0 169
0.01350000 0.01339930 103422.52961967 0 5390.34165154 0 -26568.51447428 0 11291.79569182 0 103050.91370651 0 180
0.01450000 0.01448870 101039.51166470 0 2.70615294 0 -12456.77673358 0 33481.51467384 0 91461.35317683 0 267
0.01550000 0.01550050 99925.11355123 0 -4575.92278413 0 -31654.45930402 0 34707.53244907 0 52600.17546964 0 238
0.01650000 0.01653350 107758.72304566 0 -8058.06280822 0 -31113.55919085 0 30807.47627144 0 79509.28166107 0 315
0.01750000 0.01747870 101448.55894480 0 -433.12138177 0 -47590.55465836 0 -1792.93999485 0 48533.87006771 0 297
0.01850000 0.01844180 103316.86750280 0 6323.49551262 0 -33638.99619058 0 -14835.18602175 0 56670.30269283 0 388
0.01950000 0.01947590 99194.13403420 0 11470.18481892 0 -34843.20710339 0 -30085.82649451 0 46111.17261566 0 399
0.02050000 0.02045430 86051.90241904 0 14664.66535016 0 -12197.56732772 0 -28374.54982723 0 36773.22683390 0 462
0.02150000 0.02154770 75144.87420175 0 11780.53918560 0 4187.65946723 0 -22276.94643169 0 39824.05184880 0 571
0.02250000 0.02255340 68909.79764778 0 5983.26349630 0 30937.64300691 0 -3754.87193278 0 17718.30052774 0 510
0.02350000 0.02348930 67479.42484226 0 4949.60697703 0 35100.39319211 0 -2987.76496430 0 29988.37005267 0 555
0.02450000 0.02439640 65975.31336794 0 4469.12536153 0 41419.54981356 0 5535.41348987 0 23815.45429724 0 592
0.02550000 0.02547300 62094.92832910 0 4453.00626838 0 41864.79198901 0 11363.73585650 0 31259.12561781 0 837
0.02650000 0.02652900 59289.93634569 0 3139.99709715 0 41575.34523269 0 16019.61338927 0 27089.29382264 0 723
0.02750000 0.02749970 57062.71380985 0 948.07919712 0 36708.93031172 0 13681.78285024 0 29180.95411067 0 826
0.02850000 0.02848090 53544.61494406 0 1699.39529946 0 21726.15454587 0 11577.98265943 0 16868.84455200 0 831
0.02950000 0.02946900 52419.98783843 0 2430.89188643 0 25809.88295644 0 2413.08669568 0 21841.59602888 0 996
0.03050000 0.03053250 48064.01086715 0 3135.48959620 0 19861.55540262 0 2061.32177170 0 15969.70490003 0 1041
0.03150000 0.03150510 46260.56086387 0 2478.05765690 0 24574.98506714 0 2412.19868427 0 19309.30223220 0 1036
0.03250000 0.03246190 46101.16843651 0 1474.90826371 0 19623.92804616 0 4280.34987316 0 21843.16971998 0 1059
0.03350000 0.03345080 46529.21241634 0 -2354.36553626 0 19754.65681417 0 9015.46275293 0 14142.98674973 0 1302
0.03450000 0.03451200 48445.96817899 0 -1008.82142554 0 14651.28897579 0 540.92259448 0 11186.50451642 0 1339
0.03550000 0.03553350 49552.94746298 0 -2268.75674029 0 10074.79291847 0 1917.83486512 0 4914.40125894 0 1365
0.03650000 0.03647120 49449.98310228 0 -247.37637283 0 10469.49712824 0 -2606.45961020 0 2856.60905157 0 1308
0.03750000 0.03744890 49510.68261623 0 1107.61438075 0 6103.86443799 0 -3241.65754236 0 -9019.08224247 0 1579
0.03850000 0.03847530 48228.01196132 0 1423.03266059 0 8943.89352973 0 -5587.15420519 0 -10791.58673429 0 1662
0.03950000 0.03950240 46164.79051964 0 2987.65255779 0 7142.65793464 0 -5762.30602488 0 -17978.63399867 0 1683
0.04050000 0.04050350 45279.92649410 0 2247.74796407 0 13395.82069564 0 -4095.65474099 0 -13674.36402076 0 1822
0.04150000 0.04152450 43401.05172442 0 1465.51107970 0 18904.63880589 0 -1527.61567499 0 -10678.87672941 0 1887
0.04250000 0.04250150 43744.45360425 0 -219.87387269 0 17105.12303036 0 2660.79691583 0 -7245.64477664 0 1920
0.04350000 0.04349210 44618.41419858 0 -1350.95760810 0 21352.29050256 0 3336.85461340 0 -3149.43924376 0 2005
0.04450000 0.04448520 47065.72867573 0 -855.17746696 0 19526.35919782 0 1959.03185005 0 -17.44863732 0 2151
0.04550000 0.04548030 46474.35804078 0 342.77689965 0 20919.63785593 0 785.93505846 0 -4157.44459806 0 2274
0.04650000 0.04648670 46273.60001872 0 724.98150581 0 20975.50389006 0 -884.82468327 0 -2654.26609776 0 2311
0.04750000 0.04749250 44850.87085570 0 2004.29795054 0 17846.66875909 0 -1345.76442747 0 -7279.90628007 0 2568
0.04850000 0.04851840 44612.11943417 0 2144.55879036 0 19566.60072744 0 237.90949679 0 -5165.59608082 0 2493
0.04950000 0.04949480 41066.81819362 0 1851.69487622 0 20862.98497624 0 1166.00394098 0 -7388.19870921 0 2644
0.05050000 0.05050630 40630.23131923 0 1738.43407945 0 19133.61086128 0 2693.43976556 0 -4429.65943682 0 2829
0.05150000 0.05149060 40232.31228335 0 1214.81084645 0 21628.47329102 0 3270.71462450 0 -5142.83376309 0 2784
0.05250000 0.05249300 39466.03712302 0 972.94239248 0 18603.95139883 0 1215.51900745 0 -3020.34037012 0 3055
0.05350000 0.05348950 38694.36645033 0 877.74532144 0 18901.04179765 0 3035.04314127 0 -1431.56431450 0 3009
0.05450000 0.05448610 37379.54753433 0 791.44634951 0 18867.09503245 0 1290.37050066 0 343.37153007 0 3336
0.05550000 0.05550870 36750.85793895 0 335.67280839 0 13921.99555636 0 3184.38642688 0 -1188.92362782 0 3349
0.05650000 0.05647670 35688.50403836 0 -19.32458952 0 13084.22985738 0 3510.32033548 0 -3433.29939667 0 3324
0.05750000 0.05747970 36248.28844476 0 -57.63722347 0 9755.31114340 0 3332.83046044 0 -3510.03931921 0 3639
0.05850000 0.05849280 35093.64880168 0 537.05581063 0 8573.22183123 0 2249.76004055 0 -2664.79858749 0 3846
0.05950000 0.05951020 34856.24625824 0 746.40281390 0 9296.49026186 0 279.13008708 0 -1935.47144612 0 3787
0.06050000 0.06049470 33433.29228220 0 1404.76660315 0 10030.38110744 0 -3072.06984478 0 439.35994293 0 3930
0.06150000 0.06148310 34477.66114162 0 275.76688438 0 13801.60818703 0 -1299.16068954 0 2599.33303764 0 4083
0.06250000 0.06249100 34978.65694470 0 -223.36521881 0 15427.79312829 0 -625.45341204 0 2222.91736661 0 4303
0.06350000 0.06350600 34490.13826393 0 -80.91155284 0 16997.55000287 0 -2284.26883830 0 1218.52026119 0 4470
0.06450000 0.06451750 35225.61404126 0 464.87622009 0 16027.70665780 0 634.31104481 0 -896.62511840 0 4479
0.06550000 0.06550280 33753.31360851 0 559.13132460 0 16694.83927868 0 -939.26652695 0 -2974.66960620 0 4636
0.06650000 0.06648880 33340.44450716 0 1377.12584301 0 14042.72014521 0 -199.57887779 0 -6459.29381410 0 4653
0.06750000 0.06749660 31270.81589457 0 1046.66082810 0 11679.48573553 0 1300.86926845 0 -9753.36651082 0 5220
0.06850000 0.06852730 29878.99852106 0 1457.83371525 0 10190.98752508 0 1753.36166362 0 -10038.22708165 0 5029
0.06950000 0.06949320 28302.49725604 0 1084.98133051 0 9273.22211485 0 663.28607020 0 -11436.68767974 0 5040
0.07050000 0.07048030 27694.49045800 0 972.67598905 0 8524.65097942 0 1223.80336704 0 -7562.27142643 0 5475
0.07150000 0.07148790 26673.38974560 0 438.46631119 0 9130.10614974 0 1795.90752664 0 -8184.45268504 0 5509
0.07250000 0.07249820 27038.48608134 0 -17.66861685 0 8368.18112124 0 1924.29823929 0 -5028.14540369 0 5916
0.07350000 0.07351270 27073.44450511 0 -15.07247616 0 7943.95896265 0 1195.26335483 0 -5137.89911742 0 5721
0.07450000 0.07449140 27474.62332970 0 204.25948476 0 9360.66313688 0 1030.29331657 0 -2895.88388522 0 6028
0.07550000 0.07549160 27282.97023474 0 660.47478346 0 7468.40075218 0 -708.48360273 0 -2136.35311533 0 6183
0.07650000 0.07648840 26785.23422037 0 718.89356937 0 9454.02798186 0 -670.55539903 0 -828.13583350 0 6330
0.07750000 0.07749960 26436.54923470 0 742.40451444 0 10276.94478122 0 -1509.90040944 0 -417.71719401 0 6583
0.07850000 0.07848650 26239.05100135 0 618.23466614 0 11135.03357672 0 -4.74459999 0 -1355.49883100 0 6549
0.07950000 0.07947320 25644.19576467 0 632.37540476 0 12524.33304447 0 -1426.18004280 0 -33.04886203 0 6828
0.08050000 0.08048110 25353.28772375 0 522.48005882 0 13495.75008064 0 -522.13721898 0 -524.52360913 0 7147
0.08150000 0.08149960 25141.85108350 0 515.99307929 0 14450.19373421 0 234.29562758 0 1254.02947685 0 7386
0.08250000 0.08250610 25079.01584591 0 -147.49419857 0 13330.84973442 0 981.20651889 0 21.16962993 0 7227
0.08350000 0.08350160 24830.59746476 0 -30.14821211 0 13606.92011637 0 2566.30800579 0 649.32855419 0 7798
0.08450000 0.08449610 25095.65200900 0 -45.66278306 0 11363.28623047 0 3031.91824037 0 1264.40459748 0 7371
0.08550000 0.08548940 24096.35815901 0 436.44074593 0 10838.38156328 0 3015.19215208 0 -323.64868430 0 8256
0.08650000 0.08650700 23946.18306525 0 366.28222439 0 8124.12411257 0 2378.26315971 0 2284.92079604 0 8037
0.08750000 0.08749060 23129.54978964 0 167.33169898 0 8070.05658255 0 757.67606252 0 -86.16599502 0 8155
0.08850000 0.08849210 22806.04386160 0 484.41471919 0 5860.69544073 0 749.78400164 0 2144.87352858 0 8718
0.08950000 0.08949900 22306.17212359 0 683.05837484 0 6622.73287573 0 -353.67133834 0 -361.14187482 0 8571
0.09050000 0.09049190 21336.66599805 0 889.91444992 0 4720.54499643 0 -472.65812259 0 67.06723018 0 8932
0.09150000 0.09150830 20680.43680837 0 760.01636600 0 5354.00062773 0 68.40610409 0 -1416.86154334 0 9285
0.09250000 0.09250820 19900.67286716 0 510.67512742 0 4476.24069344 0 -71.50447706 0 -2924.13164051 0 9204
0.09350000 0.09350330 20014.76547208 0 81.63578797 0 4524.03594035 0 -569.10065773 0 -2440.05301678 0 9349
0.09450000 0.09448040 19830.53120660 0 54.52198953 0 5800.11957394 0 -1006.01688319 0 -3695.90347905 0 9564
0.09550000 0.09549270 20196.75160742 0 365.06261379 0 6017.99710706 0 -1176.40154290 0 -1654.90480387 0 10155
0.09650000 0.09649430 19451.38405744 0 548.28522071 0 6891.18209649 0 -518.55819578 0 -1879.48176482 0 9913
0.09750000 0.09749140 19517.14186422 0 620.34341222 0 8061.96331403 0 -36.04786764 0 212.81474403 0 10476
0.09850000 0.09850240 19097.19115291 0 496.03642798 0 8209.06971014 0 1137.64377918 0 -55.23678251 0 10575
0.09950000 0.09950330 18857.76529234 0 343.55025642 0 9186.95012049 0 613.33261836 0 890.28426733 0 10882
0.10050000 0.10051200 18611.25782181 0 271.14922506 0 8492.40155247 0 201.38749850 0 1068.40699100 0 10875
0.10150000 0.10150300 18613.05632593 0 222.15122853 0 9343.07151849 0 -241.65375754 0 862.77727092 0 11118
0.10250000 0.10250800 18297.86847943 0 227.28595778 0 8408.22031915 0 -125.54345582 0 1240.38332686 0 11575
0.10350000 0.10349800 18485.58734664 0 296.68798352 0 8592.84800740 0 124.40252977 0 414.58667278 0 11364
0.10450000 0.10450100 17998.52995046 0 253.93866473 0 8370.00210666 0 214.12427984 0 563.12400374 0 12093
0.10550000 0.10551000 17791.92679003 0 260.42901646 0 8142.43513261 0 879.42917092 0 34.21744008 0 12067
0.10650000 0.10649700 17301.15997911 0 207.18767427 0 7613.69740353 0 908.06922491 0 179.18384111 0 12054
0.10750000 0.10749900 17134.23631576 0 67.20717628 0 6541.50793355 0 1025.10238406 0 -321.57141205 0 12807
0.10850000 0.10850100 17028.68660539 0 255.07846671 0 6954.73673572 0 507.20176635 0 -447.19467649 0 12736
0.10950000 0.10950300 16981.13865280 0 -44.62605784 0 5772.23151947 0 803.16585197 0 65.59796472 0 12933
0.11050000 0.11050200 16610.87161772 0 6.89497020 0 5634.67967648 0 782.87872553 0 -42.22527966 0 13428
0.11150000 0.11150900 16977.31683155 0 226.58116898 0 5220.05703362 0 141.51529644 0 78.74761517 0 13453
0.11250000 0.11250000 16351.10017933 0 239.97215620 0 5467.13777733 0 659.42153448 0 -106.34273827 0 13668
0.11350000 0.11349100 16151.69103536 0 575.03122505 0 5187.67271886 0 97.46363585 0 299.87583207 0 13791
0.11450000 0.11448600 15774.45479683 0 472.05000338 0 5127.76005046 0 -391.01727633 0 -154.47576674 0 14205
0.11550000 0.11549300 15304.82040929 0 416.98317952 0 5362.49855968 0 122.48487476 0 304.12030179 0 14776
0.11650000 0.11649800 15007.16797793 0 178.71398191 0 4635.57691756 0 389.55486767 0 -319.32103377 0 14553
0.11750000 0.11747300 14732.10925454 0 136.53456410 0 4082.91908372 0 650.01310982 0 -639.47162757 0 14568
0.11850000 0.11849100 14443.33693727 0 154.47239454 0 3253.59511343 0 1102.16378921 0 -850.74303025 0 16015
0.11950000 0.11950300 14273.60311123 0 242.37315919 0 2650.57916432 0 965.42576933 0 -1809.81221159 0 15270
0.12050000 0.12050700 13913.11544228 0 217.52907295 0 1918.39689766 0 450.58148455 0 -1516.74596574 0 15999
0.12150000 0.12150000 13780.70057667 0 81.20099960 0 1345.98924048 0 112.69651610 0 -2239.91323051 0 15670
0.12250000 0.12250700 13606.92011637 0 90.93124409 0 1820.62571760 0 -465.94970223 0 -1629.99552185 0 16887
0.12350000 0.12352200 13815.09696791 0 92.36442706 0 2421.79819999 0 -849.53353623 0 -1694.08971232 0 16407
0.12450000 0.12449800 13822.85301691 0 187.30633533 0 3174.78691116 0 -762.59497128 0 -1223.63475727 0 16306
0.12550000 0.12549900 13885.80066101 0 232.12168573 0 4083.21134064 0 -885.39458426 0 -646.34078923 0 17523
0.12650000 0.12650100 13827.34927721 0 215.51812053 0 4959.21773340 0 -361.85340801 0 536.32629239 0 17154
0.12750000 0.12750600 13883.21531134 0 130.33084897 0 5646.29126868 0 331.31593217 0 524.79563287 0 18007
0.12850000 0.12850300 13769.79714546 0 85.45367499 0 5704.13565735 0 296.63402840 0 1080.49181461 0 17496
0.12950000 0.12949900 13627.94013324 0 29.29718244 0 5644.72881823 0 668.81085004 0 990.35078826 0 18405
0.13050000 0.13049000 13692.23665542 0 47.76950582 0 5287.72575102 0 516.98113248 0 1316.92091769 0 18100
0.13150000 0.13148800 13548.69354559 0 95.82913283 0 5066.90316741 0 248.38915546 0 1204.70550144 0 19059
0.13250000 0.13249300 13607.25733589 0 88.31363375 0 4574.04559545 0 354.02766697 0 503.26079420 0 18957
0.13350000 0.13349100 13425.15879405 0 177.18412934 0 4285.85779201 0 -130.58601174 0 693.72238019 0 19468
0.13450000 0.13450700 13217.88119457 0 337.20490908 0 4001.41312527 0 230.87846975 0 381.86963476 0 19953
0.13550000 0.13551000 12886.05718499 0 375.02520253 0 4157.12985984 0 236.03792844 0 628.91440840 0 19956
0.13650000 0.13649900 12471.27717302 0 570.93288380 0 4041.28371341 0 469.20611875 0 937.99183716 0 19723
0.13750000 0.13749600 12041.54709557 0 385.07322022 0 3831.47696751 0 793.36175640 0 1053.45130521 0 20946
0.13850000 0.13851100 11794.70240552 0 344.16736815 0 4100.48822081 0 709.38847511 0 2553.58358916 0 20955
0.13950000 0.13949800 11508.62784442 0 157.29379787 0 3880.26139169 0 801.26955419 0 2874.71773990 0 20506
0.14050000 0.14048300 11468.16150179 0 139.54481037 0 4012.65377600 0 409.00344156 0 3672.21942796 0 21447
0.14150000 0.14148400 11255.82560948 0 36.83943427 0 4037.33824500 0 91.54037495 0 3725.75864739 0 21771
0.14250000 0.14249400 11559.43558572 0 152.02193268 0 4585.35369009 0 -140.98361366 0 4439.62989401 0 22470
0.14350000 0.14350900 11247.84474746 0 127.94221069 0 4765.59752456 0 -78.95433073 0 4215.86225991 0 22519
0.14450000 0.14449900 11238.23399108 0 118.45847366 0 4887.30005003 0 13.01341376 0 4087.86497004 0 22218
0.14550000 0.14550500 11099.00729113 0 80.77396727 0 4388.84463401 0 -36.09991186 0 3290.14970961 0 23559
0.14650000 0.14650700 11095.23043248 0 49.55856779 0 4562.83866668 0 265.02307041 0 2804.76717040 0 23044
0.14750000 0.14750500 10893.79797138 0 87.58951103 0 4051.02935759 0 52.33321001 0 2185.60964683 0 23649
0.14850000 0.14849900 10909.71473282 0 27.02679580 0 3729.43434018 0 142.24931094 0 1115.36368537 0 23640
0.14950000 0.14949500 10712.07037102 0 141.54002587 0 3246.45730022 0 -86.22590769 0 1106.75559504 0 24457
0.15050000 0.15050000 10678.20229036 0 183.76553035 0 3132.39841725 0 135.74209823 0 304.48449887 0 24591
0.15150000 0.15149900 10436.41589314 0 99.47132848 0 2951.18788682 0 -126.33592170 0 -11.93228797 0 25020
0.15250000 0.15250500 10434.07783779 0 279.01430838 0 3007.87448846 0 -107.74343576 0 -48.17585534 0 25297
0.15350000 0.15350100 10133.01948926 0 244.20875746 0 2963.23786440 0 14.24741240 0 -40.15508901 0 25452
0.15450000 0.15450400 10030.94313997 0 220.06946001 0 3312.64225172 0 9.73813543 0 448.56940807 0 26061
0.15550000 0.15549900 9784.04224667 0 237.40029531 0 3078.72431001 0 98.91637755 0 55.61705372 0 26128
0.15650000 0.15649500 9646.95127035 0 188.90250773 0 3385.36926195 0 424.21204200 0 644.92446724 0 26331
0.15750000 0.15749700 9474.80070441 0 127.59487458 0 3065.84252427 0 234.46198921 0 399.01162713 0 27345
0.15850000 0.15849900 9405.55829590 0 40.69126805 0 3342.32881031 0 333.63600248 0 917.47877364 0 26980
0.15950000 0.15949700 9500.37318482 0 -76.00557083 0 2722.20459078 0 343.17257056 0 552.12053073 0 27777
0.16050000 0.16050000 9464.57171224 0 29.97915272 0 2832.63274356 0 -21.13815611 0 599.05924006 0 28224
0.16150000 0.16150500 9425.35308184 0 101.84827648 0 2612.42839574 0 9.97044596 0 94.18147825 0 28075
0.16250000 0.16249700 9208.43100403 0 146.63316472 0 2790.19928705 0 -137.03814526 0 111.42452406 0 28590
0.16350000 0.16349900 9262.23999908 0 103.07912774 0 2238.03604184 0 138.61520855 0 -102.81272432 0 29163
0.16450000 0.16449100 9025.89407681 0 100.34427742 0 2539.16183427 0 199.15285713 0 -102.21033784 0 28996
0.16550000 0.16550500 8989.93523512 0 105.14358565 0 1977.44403595 0 329.64781960 0 -201.58758208 0 30777
0.16650000 0.16650700 8860.21812569 0 156.92847673 0 2335.25643001 0 41.02545260 0 -455.63977738 0 29211
0.16750000 0.16749900 8764.24544975 0 237.59138637 0 2214.12717774 0 -231.68105222 0 55.13561665 0 30922
0.16850000 0.16850800 8559.91290076 0 211.75699880 0 2402.58792789 0 -185.22456681 0 52.62231955 0 30867
0.16950000 0.16949900 8477.60885611 0 126.37189178 0 2654.67076119 0 -252.67521559 0 646.84999071 0 30852
0.17050000 0.17049200 8482.12759770 0 8.05073390 0 2816.49116911 0 125.50523761 0 222.14785633 0 31257
0.17150000 0.17149500 8468.56013227 0 13.35142013 0 2855.13652632 0 291.92531981 0 429.58619712 0 32608
0.17250000 0.17250900 8499.22462746 0 -4.45163491 0 2699.22870068 0 438.66414665 0 556.83710778 0 32361
0.17350000 0.17350400 8470.71833721 0 -75.27886276 0 2217.67922337 0 364.42077263 0 240.91075053 0 32508
0.17450000 0.17449800 8560.57609915 0 -35.74740505 0 2108.79103974 0 351.13544753 0 386.34791001 0 32791
0.17550000 0.17549800 8592.44334398 0 24.60331151 0 1714.27792103 0 120.47841860 0 -6.88816960 0 33633
0.17650000 0.17650100 8485.71336528 0 84.72269547 0 1592.05832563 0 32.40544718 0 356.08133386 0 33984
0.17750000 0.17750300 8295.89249639 0 139.38519313 0 1361.28776613 0 52.32983782 0 -45.61939415 0 34069
