### header ###
fiducial parameters:
Omega_m = 0.31
Omega_nu = 0
Omega_de = 0.69
Omega_k = 0
H_0 = 100
w_de = -1
zeff = 0
beta = 0
fgrowth = 0
b_1 = 2
gamma = 0.55
Lx = 3500 Ly = 3500 Lz = 3500
nx = 700 ny = 700 nz = 700
xoffset = 857.220397 yoffset = 15.9954215 zoffset = 262.898189
bins = 400 dk = 0.001
kx_ny = 0.628318531 ky_ny = 0.628318531 kz_ny = 0.628318531
############################
A(data) = 3.0851427 (not used)
A(ran) = 3.08373721 (used)
Ngal = 187845
weighted Ngal = 0
Nran = 9360983
weighted Nran = 0
SN(data) = 3447.47889
SN(ran) = 69.2491485
SN(data+ran) = 3516.72804
############################
13 columns: k_central k_mean P_0(k) sigma^{lin}_{P_0(k)} P^img_1(k) sigma^{lin}_{P_1(k)} P_2(k) sigma^{lin}_{P_2(k)} P^img_3(k) sigma^{lin}_{P_3(k)} P_4(k) sigma^{lin}_{P_4(k)} N_modes
### header ###
0.00050000 0 0 0 0 0 0 0 0 0 0 0 0
0.00150000 0.00179520 21120.28347147 0 -25610.47381248 0 -16446.87052356 0 51100.11062959 0 -56963.23405088 0 3
0.00250000 0.00253879 46691.19019338 0 -36595.84936537 0 -5138.28129955 0 -20050.73555442 0 70178.41748928 0 6
0.00350000 0.00331552 53998.96204661 0 -20930.20406761 0 -6349.70871013 0 -50213.11088041 0 -21336.32877852 0 7
0.00450000 0.00420575 71555.84682985 0 -10760.28152200 0 -7112.12832726 0 -45763.49928855 0 22613.82873410 0 24
0.00550000 0.00557378 71411.85409399 0 -8609.00082250 0 -1566.57577043 0 -26507.70255382 0 40179.48122491 0 45
0.00650000 0.00659388 93929.68767084 0 -4541.40274573 0 -13486.98237307 0 21399.05160960 0 6634.81657527 0 40
0.00750000 0.00754703 86061.45697217 0 -13798.46080483 0 -10340.88160258 0 19318.74437882 0 14710.75201816 0 57
0.00850000 0.00846663 97339.65147660 0 -2511.10517005 0 -10921.82091366 0 17493.26270010 0 1105.37411906 0 75
0.00950000 0.00948925 99639.48861616 0 -668.96934321 0 -12558.72943571 0 7615.41722309 0 22120.25176050 0 112
0.01050000 0.01054430 80570.96112261 0 14312.27094974 0 -13188.20587664 0 -12301.43094047 0 6137.59763083 0 105
0.01150000 0.01145670 80708.99631359 0 12398.10053676 0 5925.91369627 0 -23444.28801011 0 19146.42520311 0 144
0.01250000 0.01249090 67081.28099337 0 9118.71937055 0 14347.22937352 0 -21172.32768436 0 19888.08333834 0 169
0.01350000 0.01339930 69061.09680661 0 5581.66876763 0 28872.51065461 0 -17590.49432893 0 14046.09234043 0 180
0.01450000 0.01448870 71551.46297607 0 -4017.80199403 0 29308.53549646 0 -5893.94528559 0 1805.68689278 0 267
0.01550000 0.01550050 73839.49743236 0 -4296.35655980 0 41653.24294225 0 -8759.56933904 0 -24716.05523381 0 238
0.01650000 0.01653350 80763.17625011 0 1591.61994025 0 24100.62960629 0 735.43755912 0 -21922.86593367 0 315
0.01750000 0.01747870 75413.75056723 0 3801.74544633 0 27899.85714686 0 11480.75103061 0 -28258.20909216 0 297
0.01850000 0.01844180 65412.49398584 0 6248.31804053 0 -3390.83221821 0 4844.04602601 0 -17681.54359985 0 388
0.01950000 0.01947590 63620.17222679 0 2062.02993270 0 2416.67246326 0 15552.33953838 0 -32733.78658721 0 399
0.02050000 0.02045430 59073.89103864 0 -1679.66795743 0 -10378.77383619 0 11874.17380619 0 -23321.76491714 0 462
0.02150000 0.02154770 58918.20802601 0 -3005.43526725 0 -21185.59165222 0 6060.07086274 0 -18322.48550453 0 571
0.02250000 0.02255340 59648.73791702 0 -1554.30097983 0 -19952.82948655 0 -3232.82239088 0 -11950.94745068 0 510
0.02350000 0.02348930 59796.77728715 0 1102.11770255 0 -15644.96250041 0 -11031.72075585 0 -6275.26188034 0 555
0.02450000 0.02439640 63146.60361149 0 4146.13650343 0 -4938.46749215 0 -7920.37607742 0 2852.20271648 0 592
0.02550000 0.02547300 57369.24635528 0 6441.18512578 0 8986.16961713 0 -10523.50845500 0 16985.07288056 0 837
0.02650000 0.02652900 53654.54850821 0 5227.74563872 0 15553.46360346 0 2195.99600811 0 18366.09922937 0 723
0.02750000 0.02749970 50478.83986369 0 2088.47918387 0 23523.53459776 0 2795.76340916 0 21682.87804056 0 826
0.02850000 0.02848090 50516.27123063 0 2098.16862480 0 23637.85201569 0 2733.96231144 0 13098.05585778 0 831
0.02950000 0.02946900 51130.46038657 0 665.28128571 0 28055.42775297 0 -1178.25625027 0 17778.77522867 0 996
0.03050000 0.03053250 48579.05748365 0 824.34998233 0 28015.41103637 0 -8881.12573605 0 6234.91918486 0 1041
0.03150000 0.03150510 50925.54332374 0 390.16748313 0 30232.17976703 0 -6978.40954616 0 82.30483150 0 1036
0.03250000 0.03246190 49634.32977427 0 -1021.69421876 0 30828.38388180 0 -3310.19178987 0 -3007.90821041 0 1059
0.03350000 0.03345080 53201.66269026 0 -1477.33624427 0 31825.87922767 0 -860.94054859 0 -14060.48037337 0 1302
0.03450000 0.03451200 53371.62132931 0 749.33774781 0 30085.15205547 0 2506.94612928 0 -9909.27433646 0 1339
0.03550000 0.03553350 55089.30516751 0 1864.56542130 0 32535.27669530 0 2687.66207108 0 -15217.81777263 0 1365
0.03650000 0.03647120 51856.15679776 0 3184.40890819 0 28443.79223573 0 1999.04856665 0 -5009.90182755 0 1308
0.03750000 0.03744890 49245.06603946 0 3729.78280035 0 28700.97832445 0 727.89620654 0 -2632.98754593 0 1579
0.03850000 0.03847530 46775.83229338 0 3182.36310975 0 27881.08526014 0 4121.85669785 0 -5039.70079264 0 1662
0.03950000 0.03950240 43817.29302098 0 1407.13838046 0 27586.80502400 0 6164.88993081 0 -273.86946254 0 1683
0.04050000 0.04050350 42256.19144746 0 1214.26005456 0 22915.97742575 0 7942.92482279 0 -1023.01274709 0 1822
0.04150000 0.04152450 41831.74447586 0 -435.81351762 0 18918.91443232 0 9143.21274849 0 -2989.55222776 0 1887
0.04250000 0.04250150 41111.10635750 0 -430.63719796 0 18563.48505620 0 4765.85605953 0 -5863.64049122 0 1920
0.04350000 0.04349210 41944.37579619 0 53.14568425 0 12225.44414153 0 1222.04982552 0 -2992.66588802 0 2005
0.04450000 0.04448520 41864.45476949 0 -870.27366089 0 15240.74870012 0 761.97448736 0 -4078.08560390 0 2151
0.04550000 0.04548030 42876.00092877 0 -1289.03286323 0 14155.01424602 0 626.80791045 0 -1642.20286854 0 2274
0.04650000 0.04648670 44034.46239311 0 -9.65864155 0 18177.14389058 0 1729.23922715 0 1139.88066868 0 2311
0.04750000 0.04749250 43595.73979508 0 933.52592662 0 18385.54555513 0 193.03344687 0 -753.46868695 0 2568
0.04850000 0.04851840 44368.75934585 0 1898.88312799 0 22434.20313542 0 -2912.45260440 0 4306.93401213 0 2493
0.04950000 0.04949480 41277.35558181 0 1504.15643692 0 18200.07481807 0 -1579.22150250 0 -2525.15598346 0 2644
0.05050000 0.05050630 41593.77989989 0 1584.39220183 0 25558.99163213 0 -1499.36791971 0 5204.92711773 0 2829
0.05150000 0.05149060 39949.16029144 0 1111.41709290 0 21827.20799595 0 -982.35980966 0 -2270.00445252 0 2784
0.05250000 0.05249300 40029.64335067 0 659.52270034 0 23390.55769961 0 50.27088783 0 500.53493640 0 3055
0.05350000 0.05348950 40328.98187964 0 149.48829001 0 22709.71148484 0 1413.53431072 0 -2231.98857175 0 3009
0.05450000 0.05448610 38128.17487301 0 556.86633347 0 19621.67991602 0 3920.73897497 0 -1370.48261842 0 3336
0.05550000 0.05550870 37854.91465374 0 1788.80343538 0 19611.56333036 0 2936.19285874 0 -2880.02332704 0 3349
0.05650000 0.05647670 35756.50997528 0 1727.93531167 0 18121.95229549 0 1596.91428675 0 -2154.45056301 0 3324
0.05750000 0.05747970 35161.54233209 0 1139.95935323 0 18441.29918276 0 1757.92536782 0 1706.27457771 0 3639
0.05850000 0.05849280 33731.84396562 0 36.86045428 0 16332.66551213 0 1316.24647865 0 -1988.50483626 0 3846
0.05950000 0.05951020 35030.36393806 0 -742.17183297 0 15318.30919017 0 701.46943667 0 -2932.85438548 0 3787
0.06050000 0.06049470 35997.17230743 0 -894.12856988 0 14234.82286621 0 276.60094067 0 -5801.77194960 0 3930
0.06150000 0.06148310 35380.73502135 0 167.11475442 0 13380.98303668 0 885.40582491 0 -5787.45136056 0 4083
0.06250000 0.06249100 35229.32345600 0 818.66108900 0 11690.27676023 0 385.85332138 0 -6988.26759685 0 4303
0.06350000 0.06350600 34262.17786710 0 1475.36913039 0 11904.41115666 0 1096.98409736 0 -7208.64055444 0 4470
0.06450000 0.06451750 33520.18251235 0 2076.01330221 0 11195.13733618 0 2234.43903361 0 -6457.47282869 0 4479
0.06550000 0.06550280 30572.99629719 0 1460.20549256 0 11364.74751506 0 368.95974740 0 -2965.73328886 0 4636
0.06650000 0.06648880 31370.40806005 0 1235.05525842 0 13320.28352273 0 47.76545918 0 -1245.00323431 0 4653
0.06750000 0.06749660 30201.94241656 0 10.02424371 0 14990.53181485 0 43.57820438 0 395.54276231 0 5220
0.06850000 0.06852730 31092.76398699 0 -163.59193448 0 15575.83249841 0 676.97381060 0 1318.08994537 0 5029
0.06950000 0.06949320 30827.82184927 0 16.01657841 0 15513.67169987 0 147.81118492 0 2442.63836645 0 5040
0.07050000 0.07048030 31434.03014319 0 -197.55443660 0 17041.27613421 0 1035.92038633 0 1296.20439839 0 5475
0.07150000 0.07148790 30641.11464062 0 358.54078824 0 15024.92820609 0 1631.00718042 0 -194.10805308 0 5509
0.07250000 0.07249820 30457.21759466 0 347.39006271 0 13374.80067878 0 3608.32756920 0 1209.64014711 0 5916
0.07350000 0.07351270 29090.91649831 0 332.79857400 0 12220.49825521 0 3918.89550825 0 0.72104503 0 5721
0.07450000 0.07449140 29221.42045330 0 720.58528731 0 9681.05540467 0 3236.75661864 0 1913.33860483 0 6028
0.07550000 0.07549160 28132.98824302 0 933.08978937 0 8592.66815699 0 2266.03650281 0 2389.80730801 0 6183
0.07650000 0.07648840 27121.32967723 0 1052.69480941 0 8671.95970725 0 1174.98522091 0 2126.59623049 0 6330
0.07750000 0.07749960 26231.51976536 0 1134.35026852 0 9121.06866655 0 -1067.00303373 0 5036.03634050 0 6583
0.07850000 0.07848650 25659.82026918 0 889.97964569 0 9218.82860596 0 -531.12636736 0 4956.57618048 0 6549
0.07950000 0.07947320 25074.74439864 0 413.03209078 0 9615.09526618 0 -369.11936464 0 4228.50799198 0 6828
0.08050000 0.08048110 24743.59482810 0 220.13015953 0 9679.92009895 0 -235.77714534 0 2706.72621472 0 7147
0.08150000 0.08149960 24834.30687950 0 263.70116989 0 8412.42432252 0 211.65920513 0 2158.96930460 0 7386
0.08250000 0.08250610 24292.39510776 0 208.83892587 0 8932.94513592 0 990.99487755 0 486.30090038 0 7227
0.08350000 0.08350160 23786.45341836 0 492.36860364 0 7186.76624811 0 406.07974831 0 42.07038349 0 7798
0.08450000 0.08449610 23283.88392418 0 350.70830281 0 7268.58694478 0 -162.82194990 0 -1020.19921221 0 7371
0.08550000 0.08548940 23525.67032140 0 214.00512894 0 7744.69594715 0 -132.17656382 0 -1925.71456128 0 8256
0.08650000 0.08650700 23112.35159402 0 483.36034615 0 8229.80871074 0 -1023.76249850 0 -1778.87794078 0 8037
0.08750000 0.08749060 23386.17384583 0 671.43666605 0 9537.51229483 0 -1729.22798650 0 -1463.27419021 0 8155
0.08850000 0.08849210 22784.91143823 0 682.75150508 0 10537.60423102 0 -1166.27371659 0 966.41944286 0 8718
0.08950000 0.08949900 22129.35668759 0 1171.21960292 0 12280.29851710 0 -349.93607010 0 1200.51273872 0 8571
0.09050000 0.09049190 21640.27597429 0 735.76803425 0 12679.56643107 0 734.92723357 0 1716.58225443 0 8932
0.09150000 0.09150830 20883.89258660 0 704.18742602 0 13043.42629523 0 1036.92192831 0 1836.43007252 0 9285
0.09250000 0.09250820 20374.01666944 0 650.36606625 0 12816.14033745 0 1218.68887095 0 1789.47787442 0 9204
0.09350000 0.09350330 19876.73028110 0 430.04369160 0 13123.45972843 0 494.73925688 0 3149.83266654 0 9349
0.09450000 0.09448040 19800.74348216 0 397.66836937 0 12474.19974221 0 621.95307340 0 1444.05267746 0 9564
0.09550000 0.09549270 19030.19687455 0 193.61121632 0 11154.13144231 0 316.21636604 0 1325.48629355 0 10155
0.09650000 0.09649430 19039.18939514 0 76.88200437 0 10741.09373120 0 1196.75836138 0 1044.36661129 0 9913
0.09750000 0.09749140 18883.05675648 0 -36.08518660 0 10228.72238958 0 1502.90872469 0 1021.17152850 0 10476
0.09850000 0.09850240 18822.80686857 0 66.43471876 0 9112.18855248 0 1072.81445016 0 -15.33899199 0 10575
0.09950000 0.09950330 18718.71844280 0 178.21152482 0 8975.76077455 0 1463.44279997 0 1494.82669681 0 10882
0.10050000 0.10051200 18447.59394717 0 255.31564444 0 7864.81354086 0 1782.30633926 0 2026.90289916 0 10875
0.10150000 0.10150300 18263.35968169 0 212.93839119 0 7059.03873386 0 2182.29365487 0 3055.13018413 0 11118
0.10250000 0.10250800 17581.95143437 0 80.23407882 0 6487.38420028 0 1259.76220872 0 3213.47723098 0 11575
0.10350000 0.10349800 17796.31064381 0 331.53624892 0 6238.02160446 0 935.62455611 0 2066.27889867 0 11364
0.10450000 0.10450100 17219.55285481 0 347.59014629 0 5430.85295677 0 341.58426661 0 2532.48488774 0 12093
0.10550000 0.10551000 16715.29726301 0 418.26236557 0 5573.06966982 0 -463.41381143 0 1494.01736996 0 12067
0.10650000 0.10649700 16626.60852875 0 314.84388258 0 4945.07699478 0 -421.43222908 0 1904.78446962 0 12054
0.10750000 0.10749900 16411.91209978 0 180.27530829 0 5783.92179623 0 -240.99730354 0 132.04167601 0 12807
0.10850000 0.10850100 16206.99503696 0 241.52786226 0 5005.18075424 0 -335.12201650 0 519.39562426 0 12736
0.10950000 0.10950300 16305.46313736 0 269.83519299 0 5763.11535173 0 -369.37115522 0 215.84072721 0 12933
0.11050000 0.11050200 15879.55488116 0 211.95483425 0 5403.29088118 0 -39.96500961 0 477.54780566 0 13428
0.11150000 0.11150900 15838.30169298 0 262.01619634 0 5732.74311346 0 -303.83928552 0 482.27899555 0 13453
0.11250000 0.11250000 15469.83316202 0 126.71248350 0 5608.21918466 0 -57.80841858 0 -198.26709385 0 13668
0.11350000 0.11349100 15555.93654662 0 69.80241772 0 5798.15246006 0 110.57563012 0 -60.70873128 0 13791
0.11450000 0.11448600 15280.54060371 0 196.52479299 0 5550.66705292 0 364.52643475 0 -333.94512037 0 14205
0.11550000 0.11549300 15234.90356174 0 353.46226224 0 5669.31212138 0 3.29375796 0 663.68848550 0 14776
0.11650000 0.11649800 14990.08218882 0 270.33989821 0 5738.89174941 0 477.60738110 0 896.59476865 0 14553
0.11750000 0.11747300 14733.23331962 0 287.09408813 0 6203.60273193 0 786.20258595 0 1724.01232456 0 14568
0.11850000 0.11849100 14556.86750965 0 200.75015360 0 5854.91774625 0 764.49464126 0 2333.73894217 0 16015
0.11950000 0.11950300 14623.74938150 0 26.84784464 0 6562.85392929 0 628.17027732 0 2580.39254116 0 15270
0.12050000 0.12050700 14602.39214511 0 -9.39291256 0 5903.42115416 0 686.44405884 0 2871.18817557 0 15999
0.12150000 0.12150000 14706.03094485 0 63.14795249 0 5928.40912073 0 334.77018414 0 3443.20240997 0 15670
0.12250000 0.12250700 14403.88225320 0 43.84337133 0 5427.80674043 0 784.02527190 0 3708.88643064 0 16887
0.12350000 0.12352200 14443.11212425 0 34.55533404 0 4829.09596054 0 1019.21790341 0 2993.62134333 0 16407
0.12450000 0.12449800 14341.60904815 0 23.30602801 0 4407.61652073 0 932.64353554 0 2950.88438925 0 16306
0.12550000 0.12549900 14386.45924457 0 96.38936686 0 3740.28156813 0 605.88231505 0 2768.31374008 0 17523
0.12650000 0.12650100 13976.28789939 0 329.21505454 0 4249.75282187 0 173.76921965 0 2773.04605403 0 17154
0.12750000 0.12750600 13861.07122940 0 404.66230225 0 4084.78503174 0 -572.29749880 0 3084.76053946 0 18007
0.12850000 0.12850300 13535.54198423 0 323.96117439 0 4723.92843230 0 -622.13629601 0 3266.12843900 0 17496
0.12950000 0.12949900 13540.26305754 0 215.32478134 0 5169.10316385 0 -340.55687113 0 3496.86527655 0 18405
0.13050000 0.13049000 13377.72324797 0 134.22123818 0 5144.35125094 0 -192.40059824 0 3080.77010845 0 18100
0.13150000 0.13148800 13520.36710574 0 46.14792954 0 5691.74846024 0 117.08261801 0 3524.62968386 0 19059
0.13250000 0.13249300 13365.35853216 0 115.46171618 0 5432.49409178 0 116.02712091 0 2840.42251452 0 18957
0.13350000 0.13349100 13317.58576656 0 236.85175155 0 5555.29820102 0 103.85439542 0 2935.42849449 0 19468
0.13450000 0.13450700 12964.40452059 0 295.43127877 0 5141.54108826 0 -15.10923309 0 1952.68088238 0 19953
0.13550000 0.13551000 12832.77650053 0 205.22730479 0 5149.71304134 0 14.85204700 0 2021.05776078 0 19956
0.13650000 0.13649900 12613.13418525 0 210.25974412 0 4875.40744155 0 -132.95441685 0 1174.05224690 0 19723
0.13750000 0.13749600 12530.96502840 0 9.49388733 0 4507.44473987 0 184.65578988 0 768.11862705 0 20946
0.13850000 0.13851100 12515.00330436 0 120.75044235 0 4484.57001564 0 143.93203635 0 369.51953181 0 20955
0.13950000 0.13949800 12342.00968961 0 150.18858255 0 4247.11126894 0 -34.46507161 0 -85.06654698 0 20506
0.14050000 0.14048300 12366.51430821 0 147.11426457 0 4224.31522926 0 184.71761346 0 -146.69274017 0 21447
0.14150000 0.14148400 12130.23582984 0 270.76254668 0 4297.49186552 0 -27.28645484 0 -417.25857546 0 21771
0.14250000 0.14249400 11857.08801708 0 169.57982912 0 3986.20452483 0 -62.62312651 0 -378.79868898 0 22470
0.14350000 0.14350900 11846.74661841 0 212.88218793 0 4608.11600782 0 -294.29822118 0 -390.40803306 0 22519
0.14450000 0.14449900 11610.46814004 0 22.96217650 0 4301.04391115 0 40.14002654 0 -819.47153992 0 22218
0.14550000 0.14550500 11658.35331215 0 99.51280648 0 4968.33390115 0 25.19827915 0 -249.24344492 0 23559
0.14650000 0.14650700 11702.86628905 0 142.60226737 0 4417.56449663 0 -169.04252602 0 -753.96102746 0 23044
0.14750000 0.14750500 11553.14082131 0 186.34638375 0 4543.76328239 0 347.21695669 0 -193.38078298 0 23649
0.14850000 0.14849900 11198.54325335 0 274.35955491 0 4457.07538395 0 215.14942719 0 -673.07780106 0 23640
0.14950000 0.14949500 11028.96679643 0 347.34060385 0 4044.17256065 0 608.29118650 0 -170.28686605 0 24457
0.15050000 0.15050000 10570.49437506 0 288.72173435 0 3729.58046864 0 601.15224922 0 -460.74752907 0 24591
0.15150000 0.15149900 10273.38149494 0 266.92498852 0 3322.89372519 0 568.68924991 0 -352.84515051 0 25020
0.15250000 0.15250500 10031.23539689 0 240.20708580 0 3213.76948789 0 289.76711487 0 -632.71599648 0 25297
0.15350000 0.15350100 9772.39693251 0 248.13286863 0 3103.44250097 0 121.38891131 0 -403.96425784 0 25452
0.15450000 0.15450400 9642.94959869 0 187.31195565 0 3074.54278794 0 12.05795845 0 -194.66446529 0 26061
0.15550000 0.15549900 9417.12492551 0 145.32587704 0 3042.97904069 0 68.75355260 0 -346.07827877 0 26128
0.15650000 0.15649500 9532.35283615 0 83.88369330 0 2862.21813628 0 356.27242492 0 118.59223741 0 26331
0.15750000 0.15749700 9228.37191843 0 94.33929698 0 2573.51326291 0 518.16589707 0 -524.05824619 0 27345
0.15850000 0.15849900 9338.76634926 0 57.05731830 0 2392.52754549 0 595.62522126 0 216.17569860 0 26980
0.15950000 0.15949700 9149.20401533 0 41.85546225 0 2249.83872511 0 283.87476576 0 -84.89647593 0 27777
0.16050000 0.16050000 9151.15988856 0 74.34892372 0 1803.98955452 0 231.62147677 0 150.86414566 0 28224
0.16150000 0.16150500 9087.57152737 0 31.42323912 0 2124.46050686 0 149.14320203 0 431.97933166 0 28075
0.16250000 0.16249700 9024.17425725 0 100.03943097 0 1957.81785977 0 -108.16821995 0 423.06549563 0 28590
0.16350000 0.16349900 9030.22172734 0 103.46479447 0 2395.00048865 0 127.71964580 0 1095.56215504 0 29163
0.16450000 0.16449100 8895.95215436 0 94.51060450 0 2286.44952454 0 108.62695091 0 748.62284242 0 28996
0.16550000 0.16550500 8899.13325852 0 129.68563561 0 2419.61751375 0 114.15555256 0 1369.49344116 0 30777
0.16650000 0.16650700 8858.68939719 0 -23.71934673 0 2011.75050198 0 516.53712678 0 1127.56091548 0 29211
0.16750000 0.16749900 8820.56110991 0 -51.43969069 0 2234.34910840 0 167.10576190 0 1108.58332485 0 30922
0.16850000 0.16850800 8904.62993673 0 -5.97026930 0 1697.11344737 0 73.03567850 0 838.06582436 0 30867
0.16950000 0.16949900 8850.21394654 0 78.17692733 0 1980.08558887 0 -79.20151264 0 655.07814704 0 30852
0.17050000 0.17049200 8821.16810505 0 198.88420558 0 1702.55392232 0 -382.20123396 0 523.60299983 0 31257
0.17150000 0.17149500 8685.92059545 0 161.26062352 0 2193.15212347 0 -183.18326464 0 801.11443321 0 32608
0.17250000 0.17250900 8565.97161150 0 166.44256350 0 2183.92354922 0 133.28264385 0 1011.31572594 0 32361
0.17350000 0.17350400 8593.28639278 0 71.24470562 0 2508.77835535 0 401.61608590 0 1111.27770883 0 32508
0.17450000 0.17449800 8415.36937301 0 75.88788122 0 2292.08109056 0 543.02009990 0 1350.20448451 0 32791
0.17550000 0.17549800 8346.05952060 0 124.50594376 0 2307.12108123 0 474.00924881 0 1193.09390924 0 33633
0.17650000 0.17650100 8253.48152118 0 56.57284625 0 2092.13239535 0 190.14347557 0 1494.99530657 0 33984
0.17750000 0.17750300 8228.08889118 0 57.32900483 0 2086.91673341 0 13.36434687 0 1403.40648441 0 34069
