### header ###
fiducial parameters:
Omega_m = 0.31
Omega_nu = 0
Omega_de = 0.69
Omega_k = 0
H_0 = 100
w_de = -1
zeff = 0
beta = 0
fgrowth = 0
b_1 = 2
gamma = 0.55
Lx = 3500 Ly = 3500 Lz = 3500
nx = 700 ny = 700 nz = 700
xoffset = 857.220397 yoffset = 15.9954215 zoffset = 262.898189
bins = 400 dk = 0.001
kx_ny = 0.628318531 ky_ny = 0.628318531 kz_ny = 0.628318531
############################
A(data) = 3.0946359 (not used)
A(ran) = 3.09838359 (used)
Ngal = 188556
weighted Ngal = 0
Nran = 9360983
weighted Nran = 0
SN(data) = 3437.59034
SN(ran) = 69.578051
SN(data+ran) = 3507.16839
############################
13 columns: k_central k_mean P_0(k) sigma^{lin}_{P_0(k)} P^img_1(k) sigma^{lin}_{P_1(k)} P_2(k) sigma^{lin}_{P_2(k)} P^img_3(k) sigma^{lin}_{P_3(k)} P_4(k) sigma^{lin}_{P_4(k)} N_modes
### header ###
0.00050000 0 0 0 0 0 0 0 0 0 0 0 0
0.00150000 0.00179520 5168.58609392 0 -7121.42434541 0 -4666.74724203 0 11041.75865696 0 12757.57654714 0 3
0.00250000 0.00253879 10049.41152912 0 -6788.25145775 0 1703.19463941 0 -10171.27142370 0 -2482.74500826 0 6
0.00350000 0.00331552 14500.32703647 0 -3238.09425608 0 772.08657676 0 -6902.44522852 0 -4389.93497713 0 7
0.00450000 0.00420575 18596.19534983 0 -1213.87787244 0 6313.17659525 0 -9978.47178236 0 1377.00219585 0 24
0.00550000 0.00557378 21605.09273750 0 1820.14236962 0 16656.73347270 0 -14386.12202504 0 6347.53926454 0 45
0.00650000 0.00659388 29808.40723447 0 -3473.08005961 0 25459.28706014 0 4574.46149953 0 14610.59782014 0 40
0.00750000 0.00754703 29403.96862117 0 -3849.10230786 0 30367.85442135 0 4892.33586155 0 14004.38952622 0 57
0.00850000 0.00846663 44958.33147669 0 -8487.47814745 0 23387.97234994 0 20306.57276506 0 10588.01854955 0 75
0.00950000 0.00948925 55972.70790846 0 -11038.77988451 0 22381.48448349 0 11242.78645463 0 -1253.47868497 0 112
0.01050000 0.01054430 63235.17993925 0 -2115.05208219 0 25457.26374301 0 4480.37725291 0 -6780.77642501 0 105
0.01150000 0.01145670 73733.27328295 0 -478.60442682 0 21864.18973685 0 -3827.65514627 0 -18451.41576841 0 144
0.01250000 0.01249090 73538.81002530 0 42.15277746 0 34089.63387838 0 -12783.31763731 0 -20996.86112645 0 169
0.01350000 0.01339930 76403.15264458 0 2202.75163920 0 46464.80348765 0 -15641.36549217 0 -18237.05655897 0 180
0.01450000 0.01448870 70990.89172411 0 3573.44782999 0 44197.33942220 0 4048.01686320 0 -24269.80139979 0 267
0.01550000 0.01550050 84343.88554047 0 -979.16184453 0 47854.26032451 0 21619.59317694 0 -29846.51304045 0 238
0.01650000 0.01653350 73508.23545532 0 -1423.75206224 0 29379.23918956 0 31796.20390974 0 -9378.24351463 0 315
0.01750000 0.01747870 79605.27681831 0 -3479.49847118 0 28781.12416417 0 23737.10696165 0 -6438.56605416 0 297
0.01850000 0.01844180 80239.81155208 0 -5526.28608148 0 12839.07126494 0 26475.66669924 0 3151.85598367 0 388
0.01950000 0.01947590 79840.65604462 0 2251.31125036 0 7860.82310985 0 15240.52388711 0 13347.03627147 0 399
0.02050000 0.02045430 76707.66187288 0 4346.46738076 0 8015.05607853 0 5132.41367987 0 25079.12825242 0 462
0.02150000 0.02154770 72543.11318355 0 5922.27172543 0 3946.50254645 0 -219.65018374 0 26216.90691941 0 571
0.02250000 0.02255340 67344.87425301 0 4033.11176033 0 11201.81428272 0 -950.49368890 0 29419.93034521 0 510
0.02350000 0.02348930 61814.58649987 0 3568.36705585 0 7850.85265265 0 -988.47135146 0 15568.07644941 0 555
0.02450000 0.02439640 61459.38193677 0 -105.11851900 0 13222.93948740 0 -2399.12580747 0 13021.84424582 0 592
0.02550000 0.02547300 61503.44528763 0 -1464.02731381 0 10704.26935941 0 436.09116169 0 8499.14594291 0 837
0.02650000 0.02652900 65009.29184412 0 -2594.09489440 0 12412.26375668 0 587.26442525 0 8756.80413896 0 723
0.02750000 0.02749970 60417.26120750 0 1016.48530121 0 13036.23227876 0 709.95163171 0 5898.56519304 0 826
0.02850000 0.02848090 64216.82596759 0 2022.72137709 0 20107.72565363 0 -3.48826618 0 16670.10984707 0 831
0.02950000 0.02946900 61573.36213518 0 2789.87330818 0 16132.24470960 0 1474.90826371 0 16725.86347470 0 996
0.03050000 0.03053250 61046.06320939 0 2615.95796007 0 23229.02954861 0 4769.35190191 0 23821.29943562 0 1041
0.03150000 0.03150510 56437.39640968 0 1121.54604327 0 21605.42995702 0 4064.18091895 0 20991.46561410 0 1036
0.03250000 0.03246190 58142.82793859 0 -250.06176429 0 20473.72124143 0 8187.89232417 0 24786.53411389 0 1059
0.03350000 0.03345080 57090.25340414 0 1500.01987745 0 20912.89346549 0 1788.84839798 0 14157.03756315 0 1302
0.03450000 0.03451200 56198.19536213 0 778.11493775 0 14485.71419052 0 1953.27663687 0 15495.91147172 0 1339
0.03550000 0.03553350 52387.72717083 0 2034.88376118 0 12454.52860343 0 584.21146451 0 6684.83747102 0 1365
0.03650000 0.03647120 52194.61279127 0 2903.22403015 0 11865.06887910 0 695.08924332 0 11187.83091321 0 1308
0.03750000 0.03744890 48719.22839826 0 4102.80379486 0 14326.77138918 0 -2126.94469067 0 3183.90307890 0 1579
0.03850000 0.03847530 45354.90163448 0 2841.10819421 0 13535.99161026 0 -1327.99295866 0 1247.83587830 0 1662
0.03950000 0.03950240 43933.52134954 0 2762.29999194 0 18665.88738436 0 -2812.54570070 0 3494.11131713 0 1683
0.04050000 0.04050350 42877.91183939 0 1060.75098379 0 17083.20376144 0 105.56050139 0 2927.41391052 0 1822
0.04150000 0.04152450 41646.94817784 0 344.29101530 0 19167.55762649 0 798.31551118 0 1190.12637745 0 1887
0.04250000 0.04250150 41660.21214571 0 34.51070865 0 15470.39519456 0 830.90328171 0 -1810.40796608 0 1920
0.04350000 0.04349210 41038.60416028 0 161.38989100 0 19925.28989226 0 387.64845330 0 -8.62183765 0 2005
0.04450000 0.04448520 42503.14854402 0 -601.66931916 0 15492.08965047 0 362.90328478 0 -1056.73807148 0 2151
0.04550000 0.04548030 41036.35603014 0 -249.71218005 0 15305.83206785 0 165.88277910 0 -1105.67986476 0 2274
0.04650000 0.04648670 43323.04160834 0 22.86022380 0 15915.97458953 0 1380.52051953 0 991.20395365 0 2311
0.04750000 0.04749250 42566.88303367 0 -185.61798959 0 17262.49214060 0 -183.21361439 0 1748.88788463 0 2568
0.04850000 0.04851840 43008.86542041 0 863.08301662 0 18700.73340163 0 2033.37751398 0 2924.85104216 0 2493
0.04950000 0.04949480 41802.29397095 0 771.86063968 0 17328.47476039 0 952.92391759 0 -12.22600617 0 2644
0.05050000 0.05050630 41206.87670173 0 490.37451220 0 15462.97636507 0 2506.22672763 0 1469.08560664 0 2829
0.05150000 0.05149060 40543.90312161 0 389.70998865 0 13242.83543920 0 2642.24984213 0 -698.67388684 0 2784
0.05250000 0.05249300 40525.13123489 0 226.68121077 0 12560.07831379 0 2197.62590246 0 323.09564429 0 3055
0.05350000 0.05348950 39425.57078039 0 814.77519604 0 7785.63439711 0 1338.84018662 0 -4992.00671159 0 3009
0.05450000 0.05448610 38488.43772894 0 1601.36558444 0 8818.94245620 0 492.24945275 0 -1082.94115240 0 3336
0.05550000 0.05550870 36377.21870865 0 1965.04559819 0 6899.15171786 0 -1135.53053684 0 -3022.59974091 0 3349
0.05650000 0.05647670 35022.04585652 0 1222.97155888 0 8115.12035133 0 1317.70776324 0 -506.33960844 0 3324
0.05750000 0.05747970 34184.95459658 0 717.57616510 0 9498.42855224 0 1092.53167560 0 1792.01826149 0 3639
0.05850000 0.05849280 34051.86529193 0 18.51099122 0 10951.64236005 0 1743.26755927 0 2706.44519845 0 3846
0.05950000 0.05951020 34207.21108503 0 106.24921606 0 9441.86559776 0 1587.24732712 0 4312.27332123 0 3787
0.06050000 0.06049470 34319.05555980 0 90.57019439 0 12664.39155258 0 320.80142747 0 7162.84614336 0 3930
0.06150000 0.06148310 33766.24035685 0 704.41785936 0 9927.31558088 0 -250.64065780 0 8116.35682292 0 4083
0.06250000 0.06249100 33823.79248860 0 155.84825019 0 13019.59611568 0 559.98111779 0 7413.90607743 0 4303
0.06350000 0.06350600 33523.44230106 0 190.64368453 0 12172.61308310 0 -212.25383556 0 9152.54248860 0 4470
0.06450000 0.06451750 33652.70978447 0 339.29791825 0 12906.51516932 0 1486.57605917 0 7184.66424643 0 4479
0.06550000 0.06550280 32820.33959784 0 1274.61110834 0 14008.43616048 0 -220.80572263 0 9455.78152337 0 4636
0.06650000 0.06648880 31727.52353377 0 1043.41565223 0 11700.61815890 0 -168.78286699 0 5386.33997988 0 4653
0.06750000 0.06749660 31540.59151212 0 893.29226546 0 14217.17504456 0 1199.71465252 0 7690.50476997 0 5220
0.06850000 0.06852730 30694.62013810 0 655.63006299 0 12355.72328351 0 1307.65862149 0 6604.79279717 0 5029
0.06950000 0.06949320 30447.55063504 0 226.73966216 0 12490.94831180 0 2452.14795697 0 6778.65194202 0 5040
0.07050000 0.07048030 29421.27922330 0 119.94673582 0 11050.18914501 0 2611.84388190 0 8228.43735135 0 5475
0.07150000 0.07148790 30110.55592612 0 88.10118545 0 11115.14886558 0 1793.53574934 0 5831.30113907 0 5509
0.07250000 0.07249820 29460.28428133 0 380.15543553 0 8155.44056551 0 1625.10583878 0 6971.69887768 0 5916
0.07350000 0.07351270 29058.76823722 0 999.63668983 0 10125.57817848 0 630.74101414 0 7395.97723952 0 5721
0.07450000 0.07449140 28476.83974888 0 906.41122893 0 6753.09070226 0 -335.73688010 0 6531.55995765 0 6028
0.07550000 0.07549160 27712.36309266 0 881.39178853 0 10017.78033797 0 -724.87022336 0 8877.04537983 0 6183
0.07650000 0.07648840 27209.90600499 0 689.79264869 0 8083.78141710 0 -384.31784849 0 6452.04359438 0 6330
0.07750000 0.07749960 27005.32616168 0 94.76947669 0 9815.98817604 0 531.06679192 0 8020.17057461 0 6583
0.07850000 0.07848650 26586.04988942 0 -25.78616518 0 8170.94142286 0 1143.34278910 0 4976.17987536 0 6549
0.07950000 0.07947320 27146.73354788 0 285.40012206 0 8779.51025344 0 414.65411669 0 5366.64635980 0 6828
0.08050000 0.08048110 25834.27516853 0 898.16845975 0 7455.50772579 0 502.02994295 0 2705.99557242 0 7147
0.08150000 0.08149960 25655.54882191 0 1302.69025387 0 7765.83961117 0 -1088.59969598 0 1688.77288452 0 7386
0.08250000 0.08250610 23662.91866682 0 1098.92985400 0 6673.97900242 0 -1310.89592890 0 -745.88461991 0 7227
0.08350000 0.08350160 23476.54867770 0 673.13962463 0 7055.31807846 0 -701.88871294 0 -2292.23845967 0 7798
0.08450000 0.08449610 22547.28408177 0 523.41640503 0 7141.61255413 0 -1031.40614099 0 -3305.38079135 0 7371
0.08550000 0.08548940 22385.86833728 0 285.54287832 0 7669.87817588 0 -148.84644885 0 -4827.65715725 0 8256
0.08650000 0.08650700 22475.45632360 0 448.92573670 0 7983.03146459 0 -366.10124992 0 -3105.66814981 0 8037
0.08750000 0.08749060 22093.61141827 0 607.78985348 0 9213.91644159 0 981.95177404 0 -2709.12047333 0 8155
0.08850000 0.08849210 21718.06127735 0 424.47282510 0 9236.79116583 0 407.87150803 0 -482.06991944 0 8718
0.08950000 0.08949900 21215.26697015 0 329.43649536 0 9393.11489554 0 627.87240008 0 -1061.34786235 0 8571
0.09050000 0.09049190 21605.76717655 0 6.40619298 0 8346.77892225 0 795.56155175 0 42.55238259 0 8932
0.09150000 0.09150830 20985.17084969 0 -0.53030580 0 7879.56127462 0 979.44735705 0 -490.98263141 0 9285
0.09250000 0.09250820 21299.90907016 0 3.63039297 0 6704.95823583 0 490.17218049 0 -1198.21964597 0 9204
0.09350000 0.09350330 20507.21838061 0 127.88600743 0 6212.37043950 0 575.99567289 0 -1092.08991803 0 9349
0.09450000 0.09448040 20404.02920690 0 637.78328183 0 4843.69756584 0 692.04527510 0 -2547.14269629 0 9564
0.09550000 0.09549270 19326.83764734 0 730.28821702 0 4675.97581628 0 876.91351328 0 -1048.84039028 0 10155
0.09650000 0.09649430 18943.53145742 0 768.68178365 0 5080.33574503 0 426.25334417 0 -1563.05744675 0 9913
0.09750000 0.09749140 18298.65532498 0 359.32426159 0 5221.78809383 0 603.94555093 0 695.19490543 0 10476
0.09850000 0.09850240 18082.83483095 0 235.88955185 0 5709.32883798 0 396.72190657 0 670.88475010 0 10575
0.09950000 0.09950330 18041.80645578 0 -16.89863228 0 5837.83195714 0 93.53974950 0 1846.67030534 0 10882
0.10050000 0.10051200 17991.67315352 0 70.69728593 0 5989.99664609 0 400.51787433 0 1325.36264639 0 10875
0.10150000 0.10150300 18103.51762829 0 113.49909856 0 5880.55767057 0 29.77052624 0 1746.12268455 0 11118
0.10250000 0.10250800 18022.80975604 0 317.57985697 0 5669.27839943 0 235.34662842 0 1000.42353538 0 11575
0.10350000 0.10349800 17737.63444700 0 428.44189887 0 5767.42052096 0 -321.51633286 0 6.59524948 0 11364
0.10450000 0.10450100 17305.88105242 0 405.15239462 0 5797.50050232 0 -479.78919141 0 205.74887098 0 12093
0.10550000 0.10551000 17478.87466717 0 124.90161466 0 5821.85899245 0 69.58547316 0 -245.39689424 0 12067
0.10650000 0.10649700 17109.28207113 0 163.59867887 0 5621.31454276 0 -486.56168348 0 -540.75061252 0 12054
0.10750000 0.10749900 17253.94924604 0 191.05059608 0 6008.63364500 0 -61.62113490 0 -1157.71958139 0 12807
0.10850000 0.10850100 16921.22598440 0 248.60722409 0 6025.21360483 0 -376.51908502 0 -1018.92677055 0 12736
0.10950000 0.10950300 16874.91450339 0 360.48879301 0 6162.27085919 0 -110.24549221 0 -746.71867619 0 12933
0.11050000 0.11050200 16417.86964467 0 323.93756903 0 5450.74890857 0 668.05772644 0 -975.92116492 0 13428
0.11150000 0.11150900 16133.36877467 0 276.49865075 0 6185.85374442 0 800.55802100 0 -589.33270498 0 13453
0.11250000 0.11250000 15662.49791555 0 361.02722018 0 4883.35458162 0 653.95183384 0 -1414.59093189 0 13668
0.11350000 0.11349100 15584.82501900 0 247.96987919 0 5672.51570684 0 450.63656374 0 -153.00436556 0 13791
0.11450000 0.11448600 15092.59692349 0 167.92295721 0 4328.47109893 0 81.07780206 0 -1154.11133250 0 14205
0.11550000 0.11549300 14977.60506651 0 85.17917830 0 4434.30182557 0 411.65511107 0 -628.36136838 0 14776
0.11650000 0.11649800 14979.17875761 0 -21.46998012 0 4481.15285781 0 180.63500912 0 -1119.90266013 0 14553
0.11750000 0.11747300 14952.08878935 0 104.52557468 0 3619.46705408 0 362.94712332 0 -1428.99020548 0 14568
0.11850000 0.11849100 14711.53886371 0 197.37458619 0 4357.11227700 0 -96.33181473 0 -815.66770371 0 16015
0.11950000 0.11950300 14483.12884085 0 405.10968015 0 3813.24463203 0 -46.53157295 0 -1816.28682642 0 15270
0.12050000 0.12050700 14360.71815439 0 372.84788849 0 5005.04586643 0 117.75930519 0 -613.58665706 0 15999
0.12150000 0.12150000 13948.07386606 0 461.15331656 0 4648.20016833 0 -303.78757853 0 -460.63399850 0 15670
0.12250000 0.12250700 13872.87391267 0 223.66646825 0 5841.75494425 0 -346.70325895 0 99.74548795 0 16887
0.12350000 0.12352200 13889.06044972 0 67.56372972 0 5602.66630320 0 -171.50198040 0 -47.15599110 0 16407
0.12450000 0.12449800 13864.33101811 0 147.09178327 0 6247.56491694 0 148.55868819 0 609.66142183 0 16306
0.12550000 0.12549900 13784.29758491 0 43.83651453 0 5554.09545139 0 215.02690409 0 166.43919131 0 17523
0.12650000 0.12650100 13704.26415170 0 140.80938358 0 5571.85567954 0 632.50130005 0 -53.80989430 0 17154
0.12750000 0.12750600 13560.72104187 0 131.06036720 0 4283.44105211 0 764.59243492 0 -460.94536453 0 18007
0.12850000 0.12850300 13102.88933759 0 207.33942306 0 4090.06813758 0 767.25197288 0 -895.62919675 0 17496
0.12950000 0.12949900 12947.09391846 0 229.66672761 0 3073.22763181 0 737.55192552 0 -693.02995610 0 18405
0.13050000 0.13049000 12616.84359999 0 219.42761885 0 2932.97803263 0 336.06623116 0 -1352.54253986 0 18100
0.13150000 0.13148800 12425.30291153 0 212.39209556 0 2657.39099866 0 194.63299147 0 -637.03690262 0 19059
0.13250000 0.13249300 12420.13221219 0 114.03640167 0 2859.55410206 0 -260.52231386 0 -1228.09729561 0 18957
0.13350000 0.13349100 12128.77454525 0 133.94359411 0 3397.49792409 0 -684.40163260 0 -847.50797097 0 19468
0.13450000 0.13450700 12397.87572375 0 169.55285156 0 3718.68827808 0 -458.61854982 0 -562.82050617 0 19953
0.13550000 0.13551000 12276.92632188 0 109.63107824 0 4271.19998346 0 -247.80913789 0 -250.84860984 0 19956
0.13650000 0.13649900 12286.03124897 0 131.91802885 0 4477.18490811 0 -104.96216155 0 -197.40830814 0 19723
0.13750000 0.13749600 12236.79719877 0 210.63518185 0 4862.84039404 0 283.44312477 0 -325.80688924 0 20946
0.13850000 0.13851100 11966.68436171 0 237.31711449 0 4594.26752612 0 571.31169373 0 295.42678251 0 20955
0.13950000 0.13949800 11856.07635851 0 239.13135552 0 4427.59115708 0 727.30157612 0 702.79695752 0 20506
0.14050000 0.14048300 11549.88103260 0 155.49641782 0 3815.63889063 0 602.56744715 0 597.30457448 0 21447
0.14150000 0.14148400 11398.13224773 0 120.34465486 0 3635.60862853 0 644.39053633 0 356.59952786 0 21771
0.14250000 0.14249400 11301.46265145 0 18.52155743 0 2834.44248833 0 437.72105605 0 164.35067840 0 22470
0.14350000 0.14350900 11116.35161521 0 -48.69494859 0 2785.77047066 0 29.24558785 0 41.62233115 0 22519
0.14450000 0.14449900 11225.53205576 0 30.59435353 0 2180.20289383 0 65.99217434 0 -385.15977323 0 22218
0.14550000 0.14550500 11053.42645242 0 142.78099372 0 2522.61559640 0 -75.72354290 0 -460.43953524 0 23559
0.14650000 0.14650700 10908.19724497 0 243.41853971 0 2250.67053326 0 -199.96555618 0 -945.45900144 0 23044
0.14750000 0.14750500 10783.32485600 0 208.40840894 0 2607.47126877 0 17.37917010 0 -368.99009716 0 23649
0.14850000 0.14849900 10541.95436285 0 183.33501342 0 2688.50511989 0 -7.89606255 0 -335.86727165 0 23640
0.14950000 0.14949500 10518.45016218 0 146.19815154 0 2963.66500913 0 -32.83292913 0 279.55947994 0 24457
0.15050000 0.15050000 10522.80029401 0 129.69912439 0 3124.18150157 0 -120.20077453 0 373.81458445 0 24591
0.15150000 0.15149900 10437.94462164 0 128.58405184 0 3387.90964902 0 -3.43967285 0 984.74957200 0 25020
0.15250000 0.15250500 10291.58010847 0 123.60669170 0 3543.39032993 0 -143.59032057 0 1132.05717577 0 25297
0.15350000 0.15350100 10209.19737926 0 168.65921983 0 3602.12273000 0 371.80363203 0 1211.44989188 0 25452
0.15450000 0.15450400 10183.43380779 0 34.85377332 0 3481.70163872 0 582.53885568 0 961.33979279 0 26061
0.15550000 0.15549900 9951.75275557 0 60.35633688 0 2924.03047465 0 696.31784644 0 916.76948858 0 26128
0.15650000 0.15649500 10100.61269320 0 20.14043595 0 2804.20513786 0 548.23238965 0 1001.83873331 0 26331
0.15750000 0.15749700 9998.18788374 0 3.64317359 0 2692.13585007 0 381.27500434 0 800.97392507 0 27345
0.15850000 0.15849900 9915.26560330 0 141.90197483 0 2488.62386859 0 -39.31608684 0 820.16171587 0 26980
0.15950000 0.15949700 9792.64134448 0 241.89543154 0 2568.27511967 0 -256.97251636 0 313.61527946 0 27777
0.16050000 0.16050000 9670.69152470 0 346.58635618 0 2795.39246769 0 -682.30075498 0 383.27921237 0 28224
0.16150000 0.16150500 9383.57158307 0 287.86407270 0 3033.51441277 0 -690.21979342 0 225.43574667 0 28075
0.16250000 0.16249700 9351.65937565 0 175.03828912 0 3286.86743960 0 -379.11005501 0 80.57635663 0 28590
0.16350000 0.16349900 9222.71787111 0 42.82440634 0 3298.15305293 0 13.67492605 0 5.40959689 0 29163
0.16450000 0.16449100 9258.04723636 0 -11.40971012 0 3296.17469840 0 382.36309933 0 285.93854923 0 28996
0.16550000 0.16550500 9218.97473442 0 89.40442650 0 3126.03620894 0 454.44152401 0 -190.89772323 0 30777
0.16650000 0.16650700 9162.09704172 0 119.21609352 0 3091.05530386 0 424.97977845 0 286.77035738 0 29211
0.16750000 0.16749900 9013.93402444 0 81.93051783 0 2940.84648815 0 461.04653038 0 433.85876846 0 30922
0.16850000 0.16850800 9042.92366267 0 64.88159805 0 2984.19043736 0 291.21266255 0 694.79586233 0 30867
0.16950000 0.16949900 8902.68530415 0 90.10640514 0 2561.90167070 0 144.78520174 0 709.77627756 0 30852
0.17050000 0.17049200 8905.13576601 0 94.65493446 0 2844.54783333 0 -42.37848973 0 493.68263571 0 31257
0.17150000 0.17149500 8816.67184476 0 35.82091890 0 2389.35768198 0 140.50138975 0 520.50620055 0 32608
0.17250000 0.17250900 8788.89619680 0 103.03427754 0 2661.11165405 0 93.76917118 0 885.81048834 0 32361
0.17350000 0.17350400 8721.00266639 0 32.25718300 0 2093.33514498 0 282.99462280 0 584.63748517 0 32508
0.17450000 0.17449800 8598.05242869 0 36.06967450 0 2223.85034062 0 293.79351596 0 863.64504916 0 32791
0.17550000 0.17549800 8629.30143772 0 72.93900890 0 1976.26376762 0 205.58363341 0 889.47156828 0 33633
0.17650000 0.17650100 8538.17348225 0 38.67222237 0 2034.19808149 0 334.10698574 0 1351.07001461 0 33984
0.17750000 0.17750300 8522.03190780 0 144.97966500 0 1932.12173220 0 23.18743914 0 1399.17999974 0 34069
0.17850000 0.17849800 8309.77470004 0 166.75055733 0 2003.91576842 0 141.29610375 0 1470.15346846 0 34536
