### header ###
fiducial parameters:
Omega_m = 0.31
Omega_nu = 0
Omega_de = 0.69
Omega_k = 0
H_0 = 100
w_de = -1
zeff = 0
beta = 0
fgrowth = 0
b_1 = 2
gamma = 0.55
Lx = 3500 Ly = 3500 Lz = 3500
nx = 700 ny = 700 nz = 700
xoffset = 857.220397 yoffset = 15.9954215 zoffset = 262.898189
bins = 400 dk = 0.001
kx_ny = 0.628318531 ky_ny = 0.628318531 kz_ny = 0.628318531
############################
A(data) = 3.04920824 (not used)
A(ran) = 3.04214007 (used)
Ngal = 185971
weighted Ngal = 0
Nran = 9360983
weighted Nran = 0
SN(data) = 3471.5909
SN(ran) = 68.315033
SN(data+ran) = 3539.90593
############################
13 columns: k_central k_mean P_0(k) sigma^{lin}_{P_0(k)} P^img_1(k) sigma^{lin}_{P_1(k)} P_2(k) sigma^{lin}_{P_2(k)} P^img_3(k) sigma^{lin}_{P_3(k)} P_4(k) sigma^{lin}_{P_4(k)} N_modes
### header ###
0.00050000 0 0 0 0 0 0 0 0 0 0 0 0
0.00150000 0.00179520 41225.98580797 0 -50390.03872292 0 -27578.26212944 0 60090.72030376 0 109.66783517 0 3
0.00250000 0.00253879 68615.62981815 0 -51756.45222578 0 -18882.26991093 0 -63855.55145309 0 -32177.82400206 0 6
0.00350000 0.00331552 105228.78978564 0 -48759.35752137 0 -47762.76142756 0 15413.06787583 0 39512.23619752 0 7
0.00450000 0.00420575 133039.84579172 0 -31080.62408421 0 -33039.75710011 0 -54312.23898248 0 -9036.66262021 0 24
0.00550000 0.00557378 154465.65015006 0 1914.62003901 0 -7781.91374172 0 -69161.70063066 0 26366.96960667 0 45
0.00650000 0.00659388 137884.56625678 0 21613.97285158 0 15122.15983491 0 -50056.30380271 0 -67306.43122751 0 40
0.00750000 0.00754703 131839.34429365 0 24248.10694388 0 35176.82961709 0 -25433.43356346 0 25406.79322123 0 57
0.00850000 0.00846663 114146.56004307 0 19392.14582809 0 68671.27103926 0 -20024.20761869 0 -44576.48657135 0 75
0.00950000 0.00948925 105596.02184502 0 13488.66847068 0 93095.85619962 0 -12679.56643107 0 8221.88405198 0 112
0.01050000 0.01054430 94168.32668586 0 13153.13504636 0 76113.81829476 0 16932.69144815 0 -44621.44917428 0 105
0.01150000 0.01145670 89863.60708192 0 10571.59595883 0 98413.58324744 0 10297.59385661 0 -20533.29669030 0 144
0.01250000 0.01249090 84018.13148229 0 10160.34551119 0 95140.08094156 0 13678.97268756 0 -21652.07865756 0 169
0.01350000 0.01339930 83853.11872955 0 2288.76509859 0 99372.18594178 0 13687.74039513 0 -19997.67968297 0 180
0.01450000 0.01448870 79866.28472829 0 469.63326348 0 96715.00851548 0 17034.64415028 0 147.51105954 0 267
0.01550000 0.01550050 74720.98926268 0 -590.69169965 0 68310.33374429 0 35360.72666304 0 -40750.28146903 0 238
0.01650000 0.01653350 83836.93219250 0 -4555.50976240 0 73152.80607920 0 27862.65059294 0 11237.49210814 0 315
0.01750000 0.01747870 76918.31166758 0 -2525.15598346 0 26846.83298638 0 26930.12620829 0 -25360.70655323 0 297
0.01850000 0.01844180 83630.66625159 0 1812.79098404 0 37505.21800950 0 17319.59464631 0 15199.83273146 0 388
0.01950000 0.01947590 73269.48403379 0 318.42965017 0 10006.13502381 0 12209.93204352 0 -13589.27229472 0 399
0.02050000 0.02045430 72973.85491957 0 2211.24957115 0 14838.22099744 0 -4169.82055452 0 -2196.04097071 0 462
0.02150000 0.02154770 74274.73542866 0 -2264.09187024 0 1583.23441481 0 -3033.84039164 0 -4240.89518909 0 571
0.02250000 0.02255340 75444.32513722 0 -457.49448475 0 19373.48634788 0 -10506.72616346 0 -1062.60344303 0 510
0.02350000 0.02348930 85032.15058473 0 -438.73496275 0 8413.27861197 0 -10444.32931126 0 3206.13708605 0 555
0.02450000 0.02439640 78141.29446711 0 2684.91935230 0 32350.81761681 0 -2791.81794075 0 -12082.46306424 0 592
0.02550000 0.02547300 84787.66643133 0 6299.65409242 0 34276.90311956 0 -9995.38896171 0 11094.31993978 0 837
0.02650000 0.02652900 75080.91489909 0 7912.99096989 0 44882.56949076 0 6470.69183395 0 3344.62190305 0 723
0.02750000 0.02749970 78021.01950429 0 8229.07806845 0 59640.19502246 0 6059.22781394 0 16393.02780656 0 826
0.02850000 0.02848090 66867.82103598 0 4969.62657598 0 50170.39640763 0 12470.04070144 0 6501.19896003 0 831
0.02950000 0.02946900 64338.89943453 0 2972.30906954 0 56129.62739267 0 11943.97824723 0 15055.61518258 0 996
0.03050000 0.03053250 63195.27562915 0 906.16618274 0 50702.52881324 0 10722.19819733 0 11801.55920247 0 1041
0.03150000 0.03150510 60987.72423209 0 766.26054749 0 42996.05107858 0 15122.04742840 0 40.21893591 0 1036
0.03250000 0.03246190 58463.18648442 0 654.96574053 0 40981.50165457 0 6132.44941280 0 6218.51907545 0 1059
0.03350000 0.03345080 58158.56484961 0 2169.59171954 0 28923.43080242 0 6674.38366584 0 -10120.95827103 0 1302
0.03450000 0.03451200 54557.95960746 0 2054.36380890 0 28295.86527211 0 1221.07188891 0 -3462.69369833 0 1339
0.03550000 0.03553350 52455.28348172 0 3553.24838062 0 20244.07474699 0 3636.21562367 0 -11483.44878678 0 1365
0.03650000 0.03647120 51010.41023676 0 928.42604339 0 21168.95548914 0 733.73460053 0 -8376.84766296 0 1308
0.03750000 0.03744890 48130.33070647 0 1714.16551452 0 12264.44919957 0 2268.30711426 0 -15716.11581954 0 1579
0.03850000 0.03847530 47663.61888811 0 139.45263703 0 13981.68341174 0 1184.64093989 0 -16240.94180217 0 1662
0.03950000 0.03950240 47293.35185304 0 -1423.68461833 0 12733.40914807 0 -237.88364329 0 -16221.04585037 0 1683
0.04050000 0.04050350 48523.86588856 0 -1721.62930661 0 9622.26680135 0 1905.97597860 0 -17627.13885031 0 1822
0.04150000 0.04152450 51669.78680864 0 -2625.53499449 0 9820.31582658 0 225.61559708 0 -11372.05393804 0 1887
0.04250000 0.04250150 51419.23270385 0 -793.38311363 0 6557.68322995 0 -644.16459925 0 -19561.76724762 0 1920
0.04350000 0.04349210 54410.59467638 0 1552.80597328 0 8797.15807509 0 -825.72246579 0 -15027.40114925 0 2005
0.04450000 0.04448520 49684.23826352 0 4431.26684987 0 10968.85179632 0 -3896.27931898 0 -15155.31975457 0 2151
0.04550000 0.04548030 47403.73504321 0 5229.55538348 0 13612.09081571 0 -1985.82956139 0 -11581.01763513 0 2274
0.04650000 0.04648670 42998.97364777 0 3406.62533249 0 16406.74140045 0 -1011.42138806 0 -6433.09185725 0 2311
0.04750000 0.04749250 41809.93761344 0 1349.36143570 0 18360.92853003 0 892.14571909 0 -7815.75934107 0 2568
0.04850000 0.04851840 41249.47876800 0 -72.48646030 0 19618.42012731 0 3497.52847495 0 -6285.49087250 0 2493
0.04950000 0.04949480 41598.27616018 0 300.10064509 0 20092.88799466 0 792.41416954 0 -6402.07890188 0 2644
0.05050000 0.05050630 41325.91519297 0 -563.87937546 0 17392.99609558 0 2152.87687190 0 -2965.04760917 0 2829
0.05150000 0.05149060 42394.00182543 0 -40.72307909 0 22786.59753584 0 59.40852521 0 -1545.57823486 0 2784
0.05250000 0.05249300 42762.24554337 0 453.64456188 0 17985.82801514 0 -184.09150922 0 -1578.68195126 0 3055
0.05350000 0.05348950 41393.24669085 0 2233.07891487 0 21227.96890548 0 872.02832647 0 -2832.53157770 0 3009
0.05450000 0.05448610 39901.05030631 0 2479.20420328 0 18978.26506818 0 579.23522843 0 2893.73692093 0 3336
0.05550000 0.05550870 36962.29457920 0 2061.28804975 0 17384.56560754 0 1967.67591046 0 -136.00288132 0 3349
0.05650000 0.05647670 35583.74117355 0 791.44859764 0 17819.01675829 0 4126.43164270 0 858.83292658 0 3324
0.05750000 0.05747970 34334.34284480 0 116.97583183 0 13959.76414282 0 3185.55545456 0 -1389.25450514 0 3639
0.05850000 0.05849280 34499.91763007 0 -102.39929318 0 11598.32823725 0 5066.10508120 0 -1700.37323608 0 3846
0.05950000 0.05951020 33326.95572629 0 234.31698481 0 7227.64849482 0 2099.28144922 0 -1255.85046227 0 3787
0.06050000 0.06049470 33543.56306587 0 575.00424749 0 5438.24930495 0 1173.18671679 0 -3870.14480603 0 3930
0.06150000 0.06148310 32821.46366291 0 220.43140896 0 6226.62358462 0 1053.84135579 0 -1030.69123561 0 4083
0.06250000 0.06249100 32170.51757908 0 654.13505644 0 5466.73311391 0 -446.17290134 0 -1320.78770154 0 4303
0.06350000 0.06350600 32081.60403180 0 584.69031623 0 6629.45478487 0 1136.72204582 0 -488.10165263 0 4470
0.06450000 0.06451750 31118.39267066 0 907.62859140 0 7434.76872519 0 -360.84624570 0 784.20175012 0 4479
0.06550000 0.06550280 30314.46133038 0 1525.14273183 0 7580.91966600 0 836.65287456 0 349.06604374 0 4636
0.06650000 0.06648880 29320.22577322 0 983.40294205 0 9078.64645069 0 1045.17593814 0 2293.69974426 0 4653
0.06750000 0.06749660 28269.44974289 0 606.14984254 0 8906.79938232 0 1660.51388858 0 2243.26294443 0 5220
0.06850000 0.06852730 28257.08502709 0 525.12610800 0 8570.78261002 0 2233.70839131 0 3600.33546653 0 5029
0.06950000 0.06949320 28013.83734527 0 -29.29954298 0 9072.55401800 0 50.88114275 0 1594.67739725 0 5040
0.07050000 0.07048030 28123.09647037 0 -454.92262386 0 7006.15147217 0 510.52113051 0 2206.71958891 0 5475
0.07150000 0.07148790 28804.72953070 0 -857.48517256 0 8146.29067581 0 67.88948378 0 1833.78851960 0 5509
0.07250000 0.07249820 30077.17119345 0 -259.78492717 0 8164.64665846 0 -1263.94373080 0 1839.29643846 0 5916
0.07350000 0.07351270 30144.83991085 0 -471.80720533 0 8992.19460592 0 -1166.03766293 0 -362.04562313 0 5721
0.07450000 0.07449140 30564.00377661 0 46.25999883 0 8542.13019130 0 -478.62353593 0 -1489.67847878 0 6028
0.07550000 0.07549160 30450.36079772 0 226.68345890 0 8739.22376122 0 176.19944834 0 707.61919669 0 6183
0.07650000 0.07648840 29627.43275770 0 457.97108834 0 9603.85461545 0 604.09842378 0 -1621.21657363 0 6330
0.07750000 0.07749960 30005.90546782 0 1000.74951425 0 9017.48607007 0 -134.78551885 0 1529.30177260 0 6583
0.07850000 0.07848650 28024.51596346 0 1198.82664111 0 7871.13078657 0 205.92534920 0 -1553.01954564 0 6549
0.07950000 0.07947320 27817.80039652 0 975.17366165 0 8771.39450361 0 -529.79097806 0 2116.67073590 0 6828
0.08050000 0.08048110 26702.50303099 0 717.56604852 0 6749.21267776 0 -737.72278341 0 -1231.75050710 0 7147
0.08150000 0.08149960 25911.04881302 0 774.97654806 0 8846.80802937 0 722.79632330 0 -1911.48389746 0 7386
0.08250000 0.08250610 25282.47162415 0 633.08468982 0 6630.23038977 0 404.34643997 0 -3054.78172396 0 7227
0.08350000 0.08350160 24269.80139979 0 769.58440791 0 7775.79882772 0 533.72857801 0 -3722.52133998 0 7798
0.08450000 0.08449610 23903.13137295 0 627.22269046 0 5809.44931404 0 852.29311599 0 -3001.80453706 0 7371
0.08550000 0.08548940 22833.02142335 0 672.89570251 0 6354.92437207 0 802.49253699 0 -3601.96536089 0 8256
0.08650000 0.08650700 22754.11205522 0 867.74226635 0 5988.20938262 0 75.51401717 0 -684.49380594 0 8037
0.08750000 0.08749060 21688.16114640 0 774.94844644 0 7161.95813195 0 199.83066837 0 -1097.12010923 0 8155
0.08850000 0.08849210 21377.35715369 0 953.29485906 0 8402.03796124 0 -580.11087512 0 1898.47846456 0 8718
0.08950000 0.08949900 20514.41239707 0 654.81399175 0 8430.58921410 0 442.24316984 0 1921.42063270 0 8571
0.09050000 0.09049190 20326.35631034 0 445.20283318 0 9356.72890913 0 251.29036742 0 2847.98747246 0 8932
0.09150000 0.09150830 20278.69595124 0 -30.89807592 0 8667.05878353 0 1116.97784281 0 2476.86614792 0 9285
0.09250000 0.09250820 19996.21839837 0 -15.68183183 0 8467.57095500 0 1275.94874578 0 2810.09523884 0 9204
0.09350000 0.09350330 20425.04922376 0 -34.94145039 0 6729.31672596 0 988.18808706 0 2049.74390145 0 9349
0.09450000 0.09448040 19969.46564963 0 67.38196840 0 6543.31767832 0 905.62887964 0 1052.54868095 0 9564
0.09550000 0.09549270 19871.78439478 0 430.69227715 0 6412.99357374 0 -476.48444010 0 2195.88360160 0 10155
0.09650000 0.09649430 19652.59170553 0 639.26142740 0 6130.83075909 0 150.47072288 0 1554.40214568 0 9913
0.09750000 0.09749140 18837.41971452 0 884.22443252 0 6820.02877736 0 -148.95885536 0 2784.15181696 0 10476
0.09850000 0.09850240 18368.79698554 0 735.40383716 0 7587.38304017 0 659.95321726 0 3006.76166403 0 10575
0.09950000 0.09950330 17696.71847834 0 583.80118076 0 7273.45414655 0 596.32776193 0 2977.63713799 0 10882
0.10050000 0.10051200 17089.27371283 0 521.39533603 0 7131.73202213 0 914.19425550 0 3465.04299434 0 10875
0.10150000 0.10150300 16715.63448253 0 396.94222333 0 6734.52114725 0 955.44069929 0 2827.12482470 0 11118
0.10250000 0.10250800 16335.02604878 0 6.78002330 0 5660.08354713 0 751.28912478 0 2599.37800024 0 11575
0.10350000 0.10349800 16174.05993032 0 42.34353130 0 5122.66803568 0 893.97906922 0 1854.19030068 0 11364
0.10450000 0.10450100 16241.84105422 0 -268.69089475 0 4352.93075493 0 754.75236927 0 1489.95949504 0 12093
0.10550000 0.10551000 16253.41892448 0 -115.49993439 0 4255.87897651 0 468.28326132 0 1146.50141196 0 12067
0.10650000 0.10649700 16185.18817454 0 -101.09054422 0 3287.40699083 0 745.64969031 0 1282.74933947 0 12054
0.10750000 0.10749900 16666.40043233 0 28.39849241 0 3993.31985674 0 242.66429205 0 2306.86254627 0 12807
0.10850000 0.10850100 16264.99679473 0 190.99439283 0 3284.07975822 0 432.62004875 0 1914.97973983 0 12736
0.10950000 0.10950300 16415.39670151 0 258.78788145 0 4205.89180271 0 353.98607656 0 3162.15241974 0 12933
0.11050000 0.11050200 15956.66574518 0 278.59165991 0 3648.97376225 0 194.55655505 0 2065.18855555 0 13428
0.11150000 0.11150900 16175.85843443 0 162.53643737 0 3283.48400373 0 284.02988674 0 3192.14247589 0 13453
0.11250000 0.11250000 15494.78740664 0 236.04804503 0 3657.55037875 0 -859.53996351 0 958.31156148 0 13668
0.11350000 0.11349100 15684.97921701 0 443.42793443 0 2876.22398709 0 -613.11679786 0 1185.24793503 0 13791
0.11450000 0.11448600 14956.58504964 0 462.27625757 0 3568.43449976 0 -378.16134409 0 407.32184021 0 14205
0.11550000 0.11549300 14513.02897180 0 542.28608541 0 2673.72366418 0 -248.51055449 0 369.92756743 0 14776
0.11650000 0.11649800 14221.33408533 0 255.22234704 0 3406.43424142 0 290.82710823 0 -905.93125314 0 14553
0.11750000 0.11747300 13703.36489964 0 66.53217521 0 2693.72078183 0 704.69887563 0 -1408.91440327 0 14568
0.11850000 0.11849100 13868.04043285 0 -18.26841797 0 2326.21894683 0 491.97405680 0 -1041.08209314 0 16015
0.11950000 0.11950300 13923.45684096 0 -19.63618036 0 2224.89572114 0 10.49531690 0 -850.49798406 0 15270
0.12050000 0.12050700 14008.54856699 0 -75.31786782 0 2635.70778340 0 -196.56638340 0 159.32947972 0 15999
0.12150000 0.12150000 14149.28151414 0 -21.85654609 0 2871.09825036 0 137.44618088 0 387.64732924 0 15670
0.12250000 0.12250700 14178.39479954 0 -6.19091204 0 2945.48887690 0 479.69701808 0 1461.49816739 0 16887
0.12350000 0.12352200 14321.37587683 0 114.70072412 0 2827.15854665 0 635.32157932 0 1519.69101623 0 16407
0.12450000 0.12449800 14213.91525585 0 161.94855134 0 2917.08375250 0 599.13904868 0 2180.56259465 0 16306
0.12550000 0.12549900 14063.29053605 0 96.94274410 0 2492.94027847 0 92.56866968 0 1678.46520780 0 17523
0.12650000 0.12650100 13984.04394840 0 99.98086718 0 2856.20438814 0 -19.92742562 0 2329.19771927 0 17154
0.12750000 0.12750600 14037.88666540 0 196.11113704 0 2177.95476368 0 -389.70774052 0 1812.58865232 0 18007
0.12850000 0.12850300 13826.67483816 0 190.27836338 0 2785.45573244 0 -199.01459713 0 1430.28288031 0 17496
0.12950000 0.12949900 13715.95442846 0 201.84162079 0 2597.29847986 0 -481.95076855 0 1580.70526839 0 18405
0.13050000 0.13049000 13542.84840721 0 186.33064684 0 2647.80272359 0 102.41064624 0 239.45845846 0 18100
0.13150000 0.13148800 13403.35193163 0 96.08317154 0 2844.75016505 0 283.90511551 0 1097.25949330 0 19059
0.13250000 0.13249300 13122.89769590 0 206.25807246 0 2820.35795296 0 337.60057999 0 -274.85077135 0 18957
0.13350000 0.13349100 13331.86139298 0 169.90918019 0 2680.42309201 0 381.83703688 0 492.58105194 0 19468
0.13450000 0.13450700 12716.54817197 0 319.03552124 0 2422.78737726 0 93.17881220 0 -302.68149849 0 19953
0.13550000 0.13551000 12619.87857568 0 271.48869272 0 2730.24165605 0 141.10726082 0 584.44077378 0 19956
0.13650000 0.13649900 12242.08030462 0 302.76243118 0 2123.04418486 0 -210.32044363 0 45.62164228 0 19723
0.13750000 0.13749600 11979.72351655 0 137.89131065 0 2615.98044137 0 21.71187892 0 -171.30414495 0 20946
0.13850000 0.13851100 11951.05985719 0 260.92023290 0 2563.74513742 0 7.91336191 0 -263.78435070 0 20955
0.13950000 0.13949800 11693.64895545 0 277.91047648 0 2465.36696223 0 -167.29460483 0 -835.22418785 0 20506
0.14050000 0.14048300 11596.30492012 0 379.96996479 0 2737.80661399 0 -526.26703405 0 -317.63381210 0 21447
0.14150000 0.14148400 11246.04624334 0 342.72519266 0 2873.21149270 0 -181.37239580 0 -383.33429155 0 21771
0.14250000 0.14249400 11043.48971717 0 270.25109707 0 3120.04494210 0 129.83513627 0 -410.47147055 0 22470
0.14350000 0.14350900 10885.31128008 0 110.06991324 0 2876.12282124 0 106.14602689 0 -254.18258685 0 22519
0.14450000 0.14449900 10887.70553869 0 64.26639724 0 3325.06317078 0 156.40353834 0 238.47602558 0 22218
0.14550000 0.14550500 10902.59940091 0 19.14597558 0 3270.34368302 0 174.93262700 0 364.48934060 0 23559
0.14650000 0.14650700 10812.16836578 0 97.33493040 0 3184.65620250 0 246.06346483 0 436.71389374 0 23044
0.14750000 0.14750500 10703.75228948 0 118.44610895 0 3463.77280080 0 -42.28665361 0 1001.80051510 0 23649
0.14850000 0.14849900 10798.45477188 0 65.70643700 0 3403.14073076 0 92.43029727 0 933.15273702 0 23640
0.14950000 0.14949500 10705.78684726 0 -2.96791398 0 3517.87405277 0 233.60320349 0 1328.22901233 0 24457
0.15050000 0.15050000 10811.80866495 0 86.38811028 0 3315.35124855 0 45.31735786 0 1254.11940206 0 24591
0.15150000 0.15149900 10567.36947416 0 90.15462753 0 3293.91532761 0 -93.15790459 0 615.06030637 0 25020
0.15250000 0.15250500 10632.43036059 0 204.34940996 0 3838.04150754 0 -386.14895050 0 1002.12761803 0 25297
0.15350000 0.15350100 10329.15760387 0 248.21380131 0 3492.26785041 0 -0.41997432 0 231.91598182 0 25452
0.15450000 0.15450400 10322.33452887 0 157.29042568 0 3583.96907907 0 51.83367550 0 720.38745185 0 26061
0.15550000 0.15549900 9965.58999662 0 151.29915884 0 3149.73150068 0 297.42199802 0 188.94297407 0 26128
0.15650000 0.15649500 10195.95589270 0 26.78928085 0 3195.18869224 0 500.34496940 0 400.52461872 0 26331
0.15750000 0.15749700 9914.33262929 0 105.77429857 0 2764.86286030 0 228.79670124 0 118.71925676 0 27345
0.15850000 0.15849900 10029.07719195 0 231.42588944 0 2791.91910661 0 115.68877732 0 468.55978133 0 26980
0.15950000 0.15949700 9664.74522046 0 251.09140790 0 2576.14357518 0 92.98884520 0 321.33873058 0 27777
0.16050000 0.16050000 9522.87696758 0 207.71823299 0 2656.91889133 0 -64.23672192 0 419.04471486 0 28224
0.16150000 0.16150500 9500.87901410 0 12.46475760 0 2948.19787372 0 46.26157252 0 509.76351065 0 28075
0.16250000 0.16249700 9468.35981154 0 -49.92152840 0 2874.08826345 0 23.88402227 0 351.27258347 0 28590
0.16350000 0.16349900 9619.50160127 0 -15.63462110 0 2935.31608799 0 40.72184262 0 613.04148550 0 29163
0.16450000 0.16449100 9578.77672367 0 30.35773784 0 2758.41072678 0 -93.97779766 0 132.58909570 0 28996
0.16550000 0.16550500 9523.06805864 0 208.69279741 0 2868.52414134 0 223.66309605 0 829.29024833 0 30777
0.16650000 0.16650700 9168.89763541 0 273.29394122 0 2597.72562458 0 320.51141868 0 285.18654970 0 29211
0.16750000 0.16749900 8969.06134672 0 234.11015684 0 2355.36595417 0 541.99045630 0 762.13747680 0 30922
0.16850000 0.16850800 8752.67882015 0 201.17729833 0 2187.21705989 0 472.40520795 0 363.48330236 0 30867
0.16950000 0.16949900 8593.30887408 0 98.08479421 0 1967.54102265 0 419.50782967 0 734.82494365 0 30852
0.17050000 0.17049200 8361.20067714 0 103.99040729 0 1724.24837823 0 152.15569642 0 753.26747931 0 31257
0.17150000 0.17149500 8357.15404287 0 109.00598565 0 1824.44753885 0 -246.39956028 0 668.40393848 0 32608
0.17250000 0.17250900 8294.20639878 0 140.55984113 0 1993.59685105 0 -204.38200785 0 1038.04486932 0 32361
0.17350000 0.17350400 8328.58030872 0 66.86894510 0 2116.45716354 0 -226.50922882 0 651.25857392 0 32508
0.17450000 0.17449800 8270.90452982 0 34.72461824 0 2168.51261707 0 -165.66695860 0 740.20134690 0 32791
0.17550000 0.17549800 8293.41955323 0 76.36988032 0 2257.05522288 0 -28.54630697 0 666.63128786 0 33633
0.17650000 0.17650100 8302.61440553 0 79.11923108 0 2419.21285032 0 28.39320931 0 510.58969848 0 33984
0.17750000 0.17750300 8128.62037286 0 106.56440391 0 1943.53099269 0 37.19587530 0 382.77113495 0 34069
0.17850000 0.17849800 8192.45602836 0 62.57007064 0 2127.22570694 0 233.69650089 0 307.49586920 0 34536
