### header ###
fiducial parameters:
Omega_m = 0.31
Omega_nu = 0
Omega_de = 0.69
Omega_k = 0
H_0 = 100
w_de = -1
zeff = 0
beta = 0
fgrowth = 0
b_1 = 2
gamma = 0.55
Lx = 3500 Ly = 3500 Lz = 3500
nx = 700 ny = 700 nz = 700
xoffset = 857.220397 yoffset = 15.9954215 zoffset = 262.898189
bins = 400 dk = 0.001
kx_ny = 0.628318531 ky_ny = 0.628318531 kz_ny = 0.628318531
############################
A(data) = 3.08566873 (not used)
A(ran) = 3.08582698 (used)
Ngal = 188216
weighted Ngal = 0
Nran = 9360983
weighted Nran = 0
SN(data) = 3444.07497
SN(ran) = 69.2960768
SN(data+ran) = 3513.37104
############################
13 columns: k_central k_mean P_0(k) sigma^{lin}_{P_0(k)} P^img_1(k) sigma^{lin}_{P_1(k)} P_2(k) sigma^{lin}_{P_2(k)} P^img_3(k) sigma^{lin}_{P_3(k)} P_4(k) sigma^{lin}_{P_4(k)} N_modes
### header ###
0.00050000 0 0 0 0 0 0 0 0 0 0 0 0
0.00150000 0.00179520 714.10617622 0 -6689.27752806 0 -6352.76616713 0 23924.48860933 0 9128.75727165 0 3
0.00250000 0.00253879 7623.27443795 0 -14144.67284734 0 -1567.01415580 0 5595.57345259 0 21184.35518064 0 6
0.00350000 0.00331552 15098.21724885 0 -15323.81710902 0 -1693.10053505 0 -6052.66327391 0 -37354.70569622 0 7
0.00450000 0.00420575 29430.83377642 0 -18401.50727917 0 -6057.36186592 0 3900.48332235 0 -2367.56206022 0 24
0.00550000 0.00557378 41254.42465432 0 -11837.75409782 0 -19604.36931389 0 4550.49643217 0 8576.89752401 0 45
0.00650000 0.00659388 57080.69885102 0 -7658.82861621 0 -17220.67691988 0 1335.92885808 0 12560.86515935 0 40
0.00750000 0.00754703 52301.84859924 0 -3490.80656581 0 -33987.79358276 0 6214.84338266 0 14777.97110953 0 57
0.00850000 0.00846663 54938.11841518 0 -601.79858664 0 -27842.19260861 0 -3306.77463204 0 6427.49401319 0 75
0.00950000 0.00948925 54600.44926722 0 3095.63024871 0 -27027.13302410 0 -13363.56002805 0 12159.91114777 0 112
0.01050000 0.01054430 50808.52814963 0 1216.71051642 0 -22025.49307484 0 -22000.08920419 0 19016.37087415 0 105
0.01150000 0.01145670 55202.49852038 0 -1122.61278102 0 -4848.93570908 0 -20469.33738764 0 8335.89797234 0 144
0.01250000 0.01249090 64416.45992457 0 -7670.76618729 0 8307.12190647 0 -26433.06463297 0 7579.09868058 0 169
0.01350000 0.01339930 69772.29277836 0 -5449.98454432 0 31337.81017293 0 -16577.26207204 0 3982.48386944 0 180
0.01450000 0.01448870 83312.21861638 0 -5395.05148420 0 29404.41824720 0 -10573.33825970 0 10875.54315460 0 267
0.01550000 0.01550050 91792.50274736 0 -220.03573806 0 44757.23623511 0 7670.77742794 0 -17404.91118536 0 238
0.01650000 0.01653350 92047.10348642 0 4889.26716390 0 38514.85325816 0 6060.01465949 0 15236.02762681 0 315
0.01750000 0.01747870 84090.97089902 0 6174.54564979 0 54506.58983362 0 15535.70337530 0 5870.24999385 0 297
0.01850000 0.01844180 77781.70605022 0 2840.63608688 0 36496.14479338 0 26992.84903937 0 19918.88272135 0 388
0.01950000 0.01947590 78884.97591947 0 859.38484253 0 19243.09479940 0 16329.96775595 0 8180.32736623 0 399
0.02050000 0.02045430 80288.48356974 0 207.39675038 0 24095.45890695 0 9778.32075544 0 22594.38240834 0 462
0.02150000 0.02154770 74755.38565392 0 2641.95758521 0 14004.38952622 0 -1221.42034908 0 17687.38873823 0 571
0.02250000 0.02255340 70671.99446287 0 8033.31089531 0 28338.57974489 0 -4809.36861851 0 29257.95256817 0 510
0.02350000 0.02348930 69389.54862097 0 808.97951652 0 21500.21746618 0 7980.00772955 0 35205.04365042 0 555
0.02450000 0.02439640 63797.54969532 0 -310.56119466 0 31375.01672685 0 14302.82880313 0 16720.24314933 0 592
0.02550000 0.02547300 71966.24298804 0 -5104.22212783 0 13856.91218863 0 15720.38726681 0 17530.13203450 0 837
0.02650000 0.02652900 69669.66563719 0 -3982.38270358 0 14914.20779639 0 13260.14604132 0 4125.53239064 0 723
0.02750000 0.02749970 75696.45293312 0 268.88873020 0 4814.26954223 0 -6663.25542162 0 1140.73495813 0 826
0.02850000 0.02848090 71476.03820966 0 1015.66473371 0 6776.34760862 0 -6378.22624103 0 -10083.14472197 0 831
0.02950000 0.02946900 69852.43861808 0 3277.68382795 0 7208.26961296 0 -15852.57731941 0 -13525.98743111 0 996
0.03050000 0.03053250 65255.57450164 0 5433.58443490 0 7216.62141645 0 -12086.17247898 0 -28175.81512230 0 1041
0.03150000 0.03150510 60479.64681905 0 6742.79426619 0 12064.81524259 0 -12640.44896652 0 -33410.13654170 0 1036
0.03250000 0.03246190 55209.13050431 0 5626.78873967 0 13898.61500284 0 -8548.79589719 0 -34966.85426143 0 1059
0.03350000 0.03345080 51878.75050573 0 4531.19623487 0 12834.57500465 0 -4180.98252069 0 -34038.71373057 0 1302
0.03450000 0.03451200 49193.24663959 0 671.09157807 0 13257.67309816 0 -2207.50643446 0 -34449.78432781 0 1339
0.03550000 0.03553350 49724.81701266 0 151.60040828 0 13097.94345127 0 1734.29751998 0 -29750.63028971 0 1365
0.03650000 0.03647120 48471.59686266 0 -1007.83449641 0 10482.09789771 0 2570.01742053 0 -29536.27108027 0 1308
0.03750000 0.03744890 51510.50678778 0 -1948.26330665 0 7384.56797903 0 5396.98487612 0 -23544.77942764 0 1579
0.03850000 0.03847530 50360.92543752 0 -1699.08056124 0 7884.40599508 0 5489.05704626 0 -16576.58763299 0 1662
0.03950000 0.03950240 53270.68028575 0 -1365.33440039 0 5476.56868330 0 2228.97607735 0 -14722.10507539 0 1683
0.04050000 0.04050350 53354.08591417 0 -267.54210024 0 8133.35268682 0 185.44713169 0 -7516.29716494 0 1822
0.04150000 0.04152450 52942.56569091 0 3263.00353810 0 8522.31292406 0 -3418.96756699 0 -2638.49546478 0 1887
0.04250000 0.04250150 52767.99838506 0 2057.23017483 0 15199.49551194 0 -1888.33939760 0 1315.92049978 0 1920
0.04350000 0.04349210 49360.73233548 0 2360.39052505 0 17939.29172111 0 -1570.98210551 0 4186.31058914 0 2005
0.04450000 0.04448520 49413.78820693 0 1498.28881724 0 22792.33026771 0 -2466.83948747 0 6529.95254460 0 2151
0.04550000 0.04548030 47263.45172209 0 -109.17650632 0 23040.18661633 0 541.31489319 0 3845.74135329 0 2274
0.04650000 0.04648670 48797.23851433 0 1138.62171580 0 24696.60890805 0 -953.29261093 0 3043.23757565 0 2311
0.04750000 0.04749250 46533.25905061 0 1037.60198768 0 25475.81081672 0 -1739.09727785 0 -1890.80110011 0 2568
0.04850000 0.04851840 45537.89942838 0 2666.05754038 0 24161.32912024 0 -1719.94320900 0 -2646.97091544 0 2493
0.04950000 0.04949480 44592.22348238 0 2485.01561970 0 25230.53981777 0 -1388.61378805 0 -4224.10165690 0 2644
0.05050000 0.05050630 42277.43627735 0 1955.91818980 0 25583.83347024 0 750.29320312 0 -3105.56698396 0 2829
0.05150000 0.05149060 40603.70338350 0 777.80806798 0 24962.00067180 0 2442.25618432 0 -8745.87822645 0 2784
0.05250000 0.05249300 40945.98119826 0 271.86750264 0 22541.66375641 0 3088.16645663 0 -2939.54257266 0 3055
0.05350000 0.05348950 39997.71990259 0 842.89705604 0 21961.19655266 0 1536.99037770 0 -6036.40929295 0 3009
0.05450000 0.05448610 40382.37497061 0 -424.43797908 0 18328.66786243 0 2453.00224642 0 -3271.60263591 0 3336
0.05550000 0.05550870 40349.55227047 0 -558.45238929 0 19473.75295240 0 4413.81011928 0 -6496.28679566 0 3349
0.05650000 0.05647670 41533.30519895 0 -1174.55807618 0 13762.60312900 0 2712.18917098 0 -4590.49066747 0 3324
0.05750000 0.05747970 41076.48515325 0 -367.17360800 0 12829.06708579 0 4409.95457608 0 -6051.23571127 0 3639
0.05850000 0.05849280 41092.33447078 0 1279.86049223 0 11648.57394602 0 1349.57500806 0 -4663.46497202 0 3846
0.05950000 0.05951020 38683.91264515 0 2237.47400931 0 10868.18052837 0 2771.70841660 0 -5184.28928299 0 3787
0.06050000 0.06049470 37660.11417658 0 2430.39729780 0 10593.32413669 0 -768.90884480 0 -1926.68125724 0 3930
0.06150000 0.06148310 34993.49460366 0 2150.41516939 0 10454.76063513 0 1335.62536051 0 -2949.67039897 0 4083
0.06250000 0.06249100 33920.01245885 0 1044.39134072 0 10917.34713467 0 1219.88037993 0 -1009.51609776 0 4303
0.06350000 0.06350600 33145.08199746 0 1317.61783804 0 9920.41382133 0 -486.02213224 0 -890.50908034 0 4470
0.06450000 0.06451750 32049.23095769 0 1628.15205513 0 11190.12400596 0 1278.02826616 0 -1647.90187846 0 4479
0.06550000 0.06550280 31026.89377371 0 1342.49339810 0 10853.77001413 0 -1725.75462543 0 -1775.84296508 0 4636
0.06650000 0.06648880 30471.15600157 0 1091.63691981 0 11731.97957444 0 129.88122294 0 -480.13877565 0 4653
0.06750000 0.06749660 29826.05505612 0 465.22468026 0 12158.56226968 0 458.98387097 0 -1667.33696358 0 5220
0.06850000 0.06852730 29698.02404429 0 -636.28265495 0 11566.62960219 0 1899.41143857 0 -1328.02668061 0 5029
0.06950000 0.06949320 29705.78009330 0 -482.03844562 0 12056.04753502 0 978.88757265 0 -3413.81934895 0 5040
0.07050000 0.07048030 30166.53436676 0 110.50054257 0 10102.07397780 0 1655.90522179 0 -3856.66726580 0 5475
0.07150000 0.07148790 29256.26647057 0 417.38334668 0 10167.86550653 0 -613.75189463 0 -3769.54098199 0 5509
0.07250000 0.07249820 28660.96160785 0 1170.73625493 0 8904.43884566 0 -667.26413650 0 -4588.45610969 0 5916
0.07350000 0.07351270 27691.45548230 0 969.17340229 0 10790.22661555 0 741.41308904 0 -4936.98372626 0 5721
0.07450000 0.07449140 26688.11499806 0 1135.46309294 0 9423.30728341 0 343.57835805 0 -4503.56671537 0 6028
0.07550000 0.07549160 26650.45881811 0 700.15765273 0 10233.49966615 0 561.04560742 0 -2677.89394560 0 6183
0.07650000 0.07648840 25620.81521115 0 348.58606795 0 8743.97855648 0 1274.38629532 0 -3543.77251206 0 6330
0.07750000 0.07749960 25804.26263108 0 -65.29210662 0 9633.19271386 0 1826.56078118 0 374.45192935 0 6583
0.07850000 0.07848650 25639.58709787 0 -453.53103130 0 7571.63488849 0 2338.46001547 0 -2472.39236893 0 6549
0.07950000 0.07947320 25781.33170359 0 -140.76442097 0 8568.74805223 0 2004.16306273 0 1912.74285034 0 6828
0.08050000 0.08048110 25553.70852628 0 133.56590825 0 5685.83587796 0 672.98225552 0 -852.72475697 0 7147
0.08150000 0.08149960 25123.64122932 0 428.86454734 0 4964.11865712 0 -211.43551618 0 -290.95187946 0 7386
0.08250000 0.08250610 24669.06931376 0 730.80978321 0 5826.75991617 0 -806.76286020 0 -903.53924267 0 7227
0.08350000 0.08350160 23979.11817189 0 621.78783584 0 4356.39287535 0 -1230.52527617 0 -1939.54056168 0 7798
0.08450000 0.08449610 23403.25963494 0 387.04820256 0 5201.72353227 0 -621.21456265 0 -1889.44098137 0 7371
0.08550000 0.08548940 23288.71740399 0 438.39437103 0 5238.71651383 0 288.63405728 0 -2233.98940758 0 8256
0.08650000 0.08650700 23164.39580690 0 24.09152468 0 5373.54811935 0 1596.03751599 0 -2236.46235074 0 8037
0.08750000 0.08749060 22541.55134990 0 302.08686807 0 5349.00977880 0 1088.70985435 0 -1803.18022766 0 8155
0.08850000 0.08849210 22633.05024685 0 521.37847505 0 4108.63769259 0 905.97733981 0 -250.81713602 0 8718
0.08950000 0.08949900 21927.69941348 0 298.06159104 0 5000.71821590 0 715.20776000 0 -944.13260465 0 8571
0.09050000 0.09049190 21788.98978346 0 401.11587694 0 4660.72225324 0 251.80743735 0 546.53055513 0 8932
0.09150000 0.09150830 21809.78498731 0 -3.16252336 0 5238.27812845 0 469.86032462 0 391.81648660 0 9285
0.09250000 0.09250820 21641.40003936 0 238.73456055 0 4857.87202641 0 0.37190030 0 217.66733295 0 9204
0.09350000 0.09350330 21563.27751678 0 368.73156219 0 4989.62369363 0 149.75019717 0 1043.20770020 0 9349
0.09450000 0.09448040 20897.71858700 0 636.23656829 0 4891.14435258 0 -280.53179623 0 -484.01567609 0 9564
0.09550000 0.09549270 20730.79492365 0 719.57924906 0 4645.64854061 0 -193.93269893 0 575.90799581 0 10155
0.09650000 0.09649430 19909.89020076 0 528.99289186 0 4588.38866579 0 68.88675431 0 -780.59687343 0 9913
0.09750000 0.09749140 19221.17553047 0 415.95353591 0 3566.75964280 0 376.07283118 0 -66.95718421 0 10476
0.09850000 0.09850240 19101.12538067 0 238.97061422 0 3791.83119239 0 443.26494499 0 -859.94687507 0 10575
0.09950000 0.09950330 18637.89816404 0 276.22437887 0 2981.63880965 0 376.00651134 0 -1112.26463796 0 10882
0.10050000 0.10051200 18350.24991184 0 380.69049050 0 3814.45862231 0 205.77922074 0 -432.52337915 0 10875
0.10150000 0.10150300 18079.46263573 0 273.32878724 0 3535.98274110 0 -54.07449922 0 -727.87484930 0 11118
0.10250000 0.10250800 17850.49058034 0 290.88555962 0 5116.60932494 0 -258.59679039 0 741.87170759 0 11575
0.10350000 0.10349800 17628.48772840 0 441.15844704 0 5103.66009530 0 -751.20032364 0 -84.31218691 0 11364
0.10450000 0.10450100 17560.03216545 0 378.45135288 0 6604.29820853 0 -642.67970928 0 1349.95719019 0 12093
0.10550000 0.10551000 17275.53129545 0 600.77456336 0 6841.76819588 0 -951.52108438 0 692.88157951 0 12067
0.10650000 0.10649700 17093.76997313 0 532.78323928 0 7630.73823003 0 -328.35851696 0 1365.43556625 0 12054
0.10750000 0.10749900 16725.41384867 0 301.02912284 0 7174.14299734 0 84.46663345 0 761.55296296 0 12807
0.10850000 0.10850100 16461.37096300 0 127.14300042 0 6939.37076617 0 -91.16235187 0 -749.07359252 0 12736
0.10950000 0.10950300 16466.54166234 0 81.06757307 0 6434.41825404 0 273.61879603 0 -930.01884360 0 12933
0.11050000 0.11050200 16254.99261558 0 -18.16725212 0 6296.73152323 0 428.79710344 0 -1453.58474928 0 13428
0.11150000 0.11150900 16371.10853763 0 87.54634693 0 6125.50269065 0 320.34730518 0 -1553.48041232 0 13453
0.11250000 0.11250000 16264.54716870 0 251.19482189 0 5447.61276701 0 198.23449597 0 -1905.90853469 0 13668
0.11350000 0.11349100 16039.84656059 0 202.92971578 0 5686.82505522 0 459.01646886 0 -1674.99184673 0 13791
0.11450000 0.11448600 15914.51330494 0 424.08727078 0 6141.50937729 0 158.73260117 0 -1631.05214302 0 14205
0.11550000 0.11549300 15085.96493956 0 402.96496399 0 5039.43101702 0 481.92041879 0 -1289.58365511 0 14776
0.11650000 0.11649800 14934.89059373 0 489.14703314 0 5600.91276168 0 309.13700421 0 -461.50739706 0 14553
0.11750000 0.11747300 14454.80240101 0 366.83076815 0 4390.38460316 0 682.37719141 0 -683.31690981 0 14568
0.11850000 0.11849100 14035.97575477 0 444.99600520 0 5085.46148176 0 479.31483595 0 -436.29574154 0 16015
0.11950000 0.11950300 13579.71774160 0 417.51261417 0 4509.43433505 0 -75.94644501 0 -399.40504990 0 15270
0.12050000 0.12050700 13290.38339179 0 507.77279141 0 4882.62393932 0 -134.85970715 0 159.84092933 0 15999
0.12150000 0.12150000 13019.70852219 0 246.17249914 0 5317.65960391 0 -212.05712417 0 866.69238957 0 15670
0.12250000 0.12250700 12917.41860053 0 -5.97273101 0 5444.74640108 0 216.58036202 0 1280.70354104 0 16887
0.12350000 0.12352200 13355.24194651 0 -234.11352903 0 5901.48776223 0 607.84156047 0 1389.44559621 0 16407
0.12450000 0.12449800 13343.55166974 0 -233.68750837 0 5383.86703672 0 599.19862413 0 1088.18266784 0 16306
0.12550000 0.12549900 13622.88184041 0 -21.94501002 0 5285.12916070 0 385.61726772 0 1545.39838445 0 17523
0.12650000 0.12650100 13647.49886551 0 49.29992042 0 4994.41221084 0 276.76617823 0 1440.86033265 0 17154
0.12750000 0.12750600 13377.83565447 0 147.04457254 0 4586.16301694 0 380.43645180 0 1464.17344227 0 18007
0.12850000 0.12850300 13293.75558701 0 208.28700992 0 4149.49745800 0 100.64687573 0 1081.76088407 0 17496
0.12950000 0.12949900 13136.38647677 0 242.12024455 0 4174.71023759 0 268.86287670 0 744.02654034 0 18405
0.13050000 0.13049000 13085.24151595 0 171.19848283 0 4345.33207503 0 120.06701078 0 1092.78009398 0 18100
0.13150000 0.13148800 12744.98701832 0 197.90064864 0 4102.75883226 0 245.86675344 0 1254.47910288 0 19059
0.13250000 0.13249300 12736.44412376 0 69.90841706 0 4080.36745600 0 93.01076447 0 872.18007526 0 18957
0.13350000 0.13349100 12711.15265962 0 62.94337265 0 4118.24844896 0 294.78044509 0 918.69726018 0 19468
0.13450000 0.13450700 12668.77540636 0 18.41005017 0 4171.93379686 0 292.64584552 0 1076.01353935 0 19953
0.13550000 0.13551000 12489.03740118 0 272.84881145 0 4284.65504239 0 -130.61973369 0 1255.23222648 0 19956
0.13650000 0.13649900 12400.91069944 0 157.83447317 0 3677.32268339 0 133.90874809 0 921.17469960 0 19723
0.13750000 0.13749600 12129.22417128 0 143.79939667 0 4055.26708292 0 309.72826244 0 934.85794373 0 20946
0.13850000 0.13851100 12076.39311284 0 147.53691304 0 3535.98274110 0 550.58168565 0 1235.26883078 0 20955
0.13950000 0.13949800 11783.01212876 0 101.37650637 0 3398.50958266 0 640.47878987 0 979.63170373 0 20506
0.14050000 0.14048300 11761.09285984 0 157.87606358 0 2948.19787372 0 275.16101331 0 1192.00356612 0 21447
0.14150000 0.14148400 11632.38740897 0 261.81836089 0 3103.54366683 0 113.82507743 0 1305.42173199 0 21771
0.14250000 0.14249400 11302.58671652 0 266.23818476 0 3227.40439723 0 -167.07203994 0 1220.48737507 0 22470
0.14350000 0.14350900 11116.61015017 0 253.60706553 0 3263.12718525 0 -435.38187663 0 835.97731145 0 22519
0.14450000 0.14449900 11056.70872243 0 147.51892800 0 3730.96306868 0 -603.77244491 0 1027.77541081 0 22218
0.14550000 0.14550500 10965.25478808 0 144.98753345 0 3782.77122790 0 -143.26883796 0 589.79581979 0 23559
0.14650000 0.14650700 10977.36096892 0 34.52813166 0 4050.39988115 0 -173.07117524 0 943.76278724 0 23044
0.14750000 0.14750500 10899.76675692 0 13.69785698 0 3467.61710335 0 478.49876471 0 807.84983113 0 23649
0.14850000 0.14849900 11020.71615879 0 19.77949865 0 3477.80113292 0 686.40584063 0 799.87571350 0 23640
0.14950000 0.14949500 10743.38682395 0 237.08892928 0 2902.13368703 0 662.73640238 0 861.32947511 0 24457
0.15050000 0.15050000 10437.96710294 0 312.53168073 0 2967.89149381 0 373.06595711 0 661.24139584 0 24591
0.15150000 0.15149900 10332.49607713 0 285.12022986 0 2826.43914501 0 -182.48072397 0 901.57100473 0 25020
0.15250000 0.15250500 9959.39639807 0 267.27232463 0 3016.82204644 0 -362.85719812 0 930.57637987 0 25297
0.15350000 0.15350100 9969.20948616 0 169.78890523 0 3233.73288359 0 -800.62771303 0 514.13499972 0 25452
0.15450000 0.15450400 9851.44118845 0 104.53333072 0 3650.80598832 0 -497.36619696 0 217.82582613 0 26061
0.15550000 0.15549900 9765.33780385 0 137.23822884 0 3894.89671894 0 -301.93849148 0 30.71766347 0 26128
0.15650000 0.15649500 9635.42960335 0 184.36802922 0 3904.45127206 0 -59.65289696 0 -340.40961861 0 26331
0.15750000 0.15749700 9707.41473063 0 71.90453182 0 3783.49062954 0 177.02563617 0 -671.37596654 0 27345
0.15850000 0.15849900 9451.90349887 0 195.21975344 0 3661.95671384 0 112.04399632 0 -577.21865569 0 26980
0.15950000 0.15949700 9392.84511993 0 152.34341529 0 3632.98955691 0 217.38406855 0 -543.53604577 0 27777
0.16050000 0.16050000 9247.32365556 0 43.16342437 0 3376.83760805 0 374.69697553 0 -50.39734515 0 28224
0.16150000 0.16150500 9265.40986259 0 -61.03077592 0 3310.56273134 0 335.73800416 0 30.87064873 0 28075
0.16250000 0.16249700 9414.20235632 0 -153.18983629 0 3123.82180075 0 646.23287898 0 148.81160283 0 28590
0.16350000 0.16349900 9538.02936477 0 -65.96272384 0 3312.46240131 0 316.34788165 0 337.69162926 0 29163
0.16450000 0.16449100 9504.35237518 0 34.19878060 0 2910.13703035 0 271.33244767 0 326.70951350 0 28996
0.16550000 0.16550500 9386.65152137 0 176.95482007 0 3065.75259907 0 10.50053256 0 549.59588058 0 30777
0.16650000 0.16650700 9404.99626337 0 233.69088057 0 3093.06738035 0 -48.22295367 0 701.92693116 0 29211
0.16750000 0.16749900 9087.56028672 0 206.59866418 0 2930.04422279 0 91.32331799 0 713.43173718 0 30922
0.16850000 0.16850800 9025.28708167 0 145.31351232 0 2807.39748267 0 119.26105613 0 768.74585536 0 30867
0.16950000 0.16949900 8817.35752445 0 148.43728916 0 2879.98960509 0 199.50244137 0 449.68897688 0 30852
0.17050000 0.17049200 8736.94190912 0 118.13474292 0 2642.60954295 0 288.69026053 0 407.32521241 0 31257
0.17150000 0.17149500 8548.88582239 0 88.82823074 0 2350.70108412 0 221.44306753 0 -148.44066136 0 32608
0.17250000 0.17250900 8535.85790820 0 126.52364056 0 2373.41843925 0 55.96618833 0 232.85570022 0 32361
0.17350000 0.17350400 8515.30999866 0 45.38041791 0 2076.57533474 0 -79.11271150 0 -324.95372385 0 32508
0.17450000 0.17449800 8393.06792196 0 104.60414682 0 2242.72339320 0 -126.94404090 0 -56.29396571 0 32791
0.17550000 0.17549800 8469.38069977 0 81.46650377 0 2194.66961132 0 -81.33127874 0 -320.68002844 0 33633
0.17650000 0.17650100 8421.31567725 0 47.51917653 0 2354.47794276 0 -34.08345152 0 24.24507197 0 33984
0.17750000 0.17750300 8467.94189648 0 102.95784112 0 2568.67978309 0 -3.56591659 0 74.40670067 0 34069
