### header ###
fiducial parameters:
Omega_m = 0.31
Omega_nu = 0
Omega_de = 0.69
Omega_k = 0
H_0 = 100
w_de = -1
zeff = 0
beta = 0
fgrowth = 0
b_1 = 2
gamma = 0.55
Lx = 3500 Ly = 3500 Lz = 3500
nx = 700 ny = 700 nz = 700
xoffset = 857.220397 yoffset = 15.9954215 zoffset = 262.898189
bins = 400 dk = 0.001
kx_ny = 0.628318531 ky_ny = 0.628318531 kz_ny = 0.628318531
############################
A(data) = 3.07017806 (not used)
A(ran) = 3.06800992 (used)
Ngal = 187503
weighted Ngal = 0
Nran = 9360983
weighted Nran = 0
SN(data) = 3455.46141
SN(ran) = 68.8959728
SN(data+ran) = 3524.35738
############################
13 columns: k_central k_mean P_0(k) sigma^{lin}_{P_0(k)} P^img_1(k) sigma^{lin}_{P_1(k)} P_2(k) sigma^{lin}_{P_2(k)} P^img_3(k) sigma^{lin}_{P_3(k)} P_4(k) sigma^{lin}_{P_4(k)} N_modes
### header ###
0.00050000 0 0 0 0 0 0 0 0 0 0 0 0
0.00150000 0.00179520 11641.26752304 0 -25625.98591048 0 -34208.67236963 0 52299.48806259 0 50085.19227509 0 3
0.00250000 0.00253879 21140.40423628 0 -25872.83060054 0 -1326.62159927 0 -54446.90197824 0 -35407.26295707 0 6
0.00350000 0.00331552 47006.94007241 0 -37083.13157455 0 -50890.80971298 0 38410.09039335 0 21638.70228319 0 7
0.00450000 0.00420575 71021.35388759 0 -39587.99818345 0 -21733.23615583 0 -25850.68651860 0 -7507.58566063 0 24
0.00550000 0.00557378 116557.67962487 0 -25618.56708100 0 -38123.11658019 0 -29339.67209899 0 14407.92888746 0 45
0.00650000 0.00659388 116250.80985991 0 -3765.46062577 0 59895.35779406 0 -49782.03192488 0 -14069.69770697 0 40
0.00750000 0.00754703 125876.17908086 0 15836.95281489 0 -7280.68188497 0 -28714.91673136 0 28160.41543080 0 57
0.00850000 0.00846663 107795.25516054 0 20114.91967009 0 60575.30475677 0 -14057.22058466 0 -12093.25408894 0 75
0.00950000 0.00948925 97137.88179598 0 20056.91791232 0 35999.75765710 0 -12810.85723160 0 24097.70703710 0 112
0.01050000 0.01054430 80913.80096991 0 11712.87046820 0 54966.22004201 0 22282.90397658 0 888.99721282 0 105
0.01150000 0.01145670 80434.94924877 0 4611.83666321 0 51137.42959002 0 10620.85249034 0 -2438.29947527 0 144
0.01250000 0.01249090 75340.79874399 0 5078.85197913 0 36407.45605911 0 16834.89778679 0 -9904.39589404 0 169
0.01350000 0.01339930 70804.97136102 0 4549.73206792 0 31529.23845488 0 11469.39797337 0 -13819.36841519 0 180
0.01450000 0.01448870 66973.37074635 0 6270.07994035 0 25774.25009363 0 883.09474712 0 -15688.35141223 0 267
0.01550000 0.01550050 61589.77348525 0 -49.72953809 0 39666.45792555 0 11793.57834045 0 -30356.05173809 0 238
0.01650000 0.01653350 64942.07275275 0 1618.18159793 0 26524.45112341 0 -5218.89924659 0 -16621.32542290 0 315
0.01750000 0.01747870 67844.74599101 0 -2363.45922270 0 39914.42668068 0 -80.96044967 0 -4219.06584537 0 297
0.01850000 0.01844180 67760.44111053 0 -438.64616161 0 35352.18376849 0 1530.32467182 0 -5682.08150061 0 388
0.01950000 0.01947590 70802.04879183 0 -4016.19458098 0 23768.35597068 0 17165.03569876 0 494.93709234 0 399
0.02050000 0.02045430 71141.06681788 0 -2839.11859903 0 20402.00588976 0 15153.52125045 0 -6950.88119252 0 462
0.02150000 0.02154770 70901.64095731 0 2091.36803110 0 11460.96748532 0 14583.62025839 0 -8244.46651930 0 571
0.02250000 0.02255340 66316.57952414 0 8991.92483030 0 -384.64607549 0 -171.48287129 0 -7276.45540030 0 510
0.02350000 0.02348930 58617.40821245 0 7673.49766542 0 2451.97934720 0 -4877.65557170 0 3162.37723275 0 555
0.02450000 0.02439640 52759.56789701 0 6433.80001825 0 -1484.19304122 0 -5521.32895451 0 757.36582056 0 592
0.02550000 0.02547300 50573.71095586 0 265.22202993 0 7410.02805293 0 -1969.00230725 0 10219.87599746 0 837
0.02650000 0.02652900 54157.68003493 0 -3766.16878677 0 12545.80268737 0 3521.71835532 0 8123.08997270 0 723
0.02750000 0.02749970 58282.99885320 0 -5611.51269532 0 17453.47079652 0 8392.64077723 0 18657.56930282 0 826
0.02850000 0.02848090 62235.32405673 0 -2539.88123592 0 16751.60456487 0 6226.46621551 0 14473.01225519 0 831
0.02950000 0.02946900 65648.88487071 0 -1117.99062544 0 21438.95591970 0 7630.37852921 0 27170.33891442 0 996
0.03050000 0.03053250 65227.81009433 0 2387.43553071 0 19107.86977110 0 5416.19514822 0 28879.92948409 0 1041
0.03150000 0.03150510 65330.66204852 0 2980.91940800 0 20630.86553865 0 1317.61783804 0 31554.41751252 0 1036
0.03250000 0.03246190 60846.54165891 0 2976.22081600 0 18022.13531700 0 1357.63455464 0 36854.04711266 0 1059
0.03350000 0.03345080 61059.66439677 0 1121.59212994 0 22118.45325639 0 2871.00832515 0 31921.87438491 0 1302
0.03450000 0.03451200 58387.31209199 0 393.45537347 0 16543.31530683 0 3517.91901537 0 25049.00330846 0 1339
0.03550000 0.03553350 58854.24872335 0 741.40184839 0 18815.61285210 0 87.64908648 0 17990.09946241 0 1365
0.03650000 0.03647120 56598.36252815 0 2281.15517805 0 15087.42622415 0 4227.31648301 0 13736.97444533 0 1308
0.03750000 0.03744890 53368.47394711 0 3254.60677200 0 13895.46762064 0 -662.97470418 0 7248.36501412 0 1579
0.03850000 0.03847530 51060.43113251 0 2200.58219361 0 10980.41842592 0 903.07837599 0 462.20431741 0 1662
0.03950000 0.03950240 47903.38196821 0 2400.67701727 0 8744.15840689 0 107.00559945 0 -6065.03923037 0 1683
0.04050000 0.04050350 46106.67635536 0 2201.85238714 0 9191.68243444 0 -4169.76435126 0 -10291.41149871 0 1822
0.04150000 0.04152450 42298.90592024 0 1432.60969501 0 7086.82562246 0 -7185.99064321 0 -12988.90913918 0 1887
0.04250000 0.04250150 44778.81828451 0 269.85879836 0 13466.07476271 0 -9248.08801981 0 -12990.93245631 0 1920
0.04350000 0.04349210 44870.31718146 0 -1283.65983218 0 16488.01130523 0 -4388.63106165 0 -15625.51617464 0 2005
0.04450000 0.04448520 49472.01477772 0 -2449.20290647 0 20595.90711487 0 -2485.46524573 0 -12845.36602935 0 2151
0.04550000 0.04548030 50479.73911575 0 -1708.66883632 0 18731.30797162 0 -1323.78895529 0 -15791.65299245 0 2274
0.04650000 0.04648670 52967.74474855 0 -330.10081782 0 22930.81508471 0 15.25198935 0 -18336.08669191 0 2311
0.04750000 0.04749250 51177.33390011 0 2225.80621385 0 21429.62617959 0 770.78828160 0 -14218.63632915 0 2568
0.04850000 0.04851840 49779.10935569 0 2766.02064733 0 20519.24587689 0 2195.47893817 0 -11934.98572664 0 2493
0.04950000 0.04949480 46372.74255817 0 3470.67456035 0 19791.86336809 0 1833.02415535 0 -13711.34576166 0 2644
0.05050000 0.05050630 43841.68523307 0 2279.94118777 0 17410.19429120 0 5180.79344061 0 -12984.18806588 0 2829
0.05150000 0.05149060 39926.45417696 0 2162.73492259 0 16203.84765475 0 5515.20279986 0 -8255.76337328 0 2784
0.05250000 0.05249300 40094.50190539 0 1681.57886805 0 14451.65501881 0 4579.54227366 0 -5607.28621065 0 3055
0.05350000 0.05348950 36884.84649566 0 1615.48384176 0 11171.89167047 0 4625.56149776 0 -1393.51471177 0 3009
0.05450000 0.05448610 36216.58980970 0 1570.04913150 0 12336.16455123 0 3444.15786528 0 5170.48576389 0 3336
0.05550000 0.05550870 34922.45369104 0 807.31252802 0 9808.18716444 0 2358.09743230 0 5796.16286488 0 3349
0.05650000 0.05647670 34947.40793567 0 815.23269053 0 14008.32375398 0 3217.34401483 0 9957.46300614 0 3324
0.05750000 0.05747970 32536.40076038 0 933.70465297 0 9301.64972055 0 1747.02193661 0 6929.05184880 0 3639
0.05850000 0.05849280 33167.22607940 0 822.02091950 0 11718.04116754 0 -915.31045211 0 8415.71783318 0 3846
0.05950000 0.05951020 32031.13351002 0 1219.91410188 0 10991.17572867 0 -3076.54362377 0 7292.61945605 0 3787
0.06050000 0.06049470 31192.91818501 0 1018.87281543 0 11876.98396887 0 -2065.07614904 0 5455.66107294 0 3930
0.06150000 0.06148310 30902.34736361 0 583.51342010 0 13146.39065592 0 868.93489939 0 3559.65555154 0 4083
0.06250000 0.06249100 30448.11266757 0 286.31173883 0 12567.60954978 0 1261.03240226 0 2890.72442654 0 4303
0.06350000 0.06350600 30501.39335204 0 488.44674060 0 15923.84304504 0 625.52085594 0 2643.41886980 0 4470
0.06450000 0.06451750 30482.50905881 0 166.16941569 0 16277.92354307 0 503.49122754 0 3939.12867957 0 4479
0.06550000 0.06550280 30413.82868284 0 79.72813713 0 17101.86324165 0 942.22843842 0 5881.46816328 0 4636
0.06650000 0.06648880 31084.67071847 0 -47.16992951 0 17547.10541711 0 549.55766237 0 6093.24202305 0 4653
0.06750000 0.06749660 31831.16233351 0 -847.64510691 0 16883.56980446 0 1807.38423104 0 8707.32279445 0 5220
0.06850000 0.06852730 32112.17860179 0 -625.82884977 0 15151.61033982 0 2478.45107968 0 6730.31714388 0 5029
0.06950000 0.06949320 32500.31827153 0 26.86043417 0 14310.47244562 0 1875.25528015 0 3726.53425229 0 5040
0.07050000 0.07048030 31278.57194358 0 555.55230140 0 10847.32912126 0 2229.70671965 0 2359.64864210 0 5475
0.07150000 0.07148790 30927.63882776 0 923.76004927 0 8825.21473931 0 788.06066551 0 711.15100915 0 5509
0.07250000 0.07249820 29190.17144427 0 879.92263548 0 8297.03904277 0 949.10097228 0 43.33315819 0 5916
0.07350000 0.07351270 28945.79969738 0 889.16919477 0 6535.42674151 0 1030.57096064 0 -120.24011680 0 5721
0.07450000 0.07449140 27863.43743849 0 672.55061454 0 7939.84488449 0 725.63571168 0 -1653.99431116 0 6028
0.07550000 0.07549160 28353.64221687 0 751.21718461 0 7811.11695232 0 -377.72970310 0 1783.04822220 0 6183
0.07650000 0.07648840 27045.11806527 0 688.34822507 0 7443.24417584 0 -858.97680691 0 -825.99561360 0 6330
0.07750000 0.07749960 27305.90116223 0 231.48996115 0 9313.63225423 0 85.00955688 0 3417.13534092 0 6583
0.07850000 0.07848650 26192.96433336 0 -244.82474512 0 7691.73000090 0 1120.34216958 0 655.45920510 0 6549
0.07950000 0.07947320 27479.23199650 0 -187.88860103 0 8672.42057393 0 2322.23975647 0 3844.10021829 0 6828
0.08050000 0.08048110 26545.58354679 0 88.15345448 0 7170.44482325 0 1519.49992516 0 251.18470530 0 7147
0.08150000 0.08149960 26408.11038835 0 337.22401819 0 6301.69989086 0 1371.38187048 0 1409.37526995 0 7386
0.08250000 0.08250610 25834.61238805 0 634.94052126 0 6452.24592610 0 -77.85443306 0 -723.17625730 0 7227
0.08350000 0.08350160 25328.44588564 0 585.52437251 0 5334.93648409 0 -486.62575519 0 550.11519864 0 7798
0.08450000 0.08449610 25188.38737753 0 529.87415887 0 6758.22767964 0 -561.78749036 0 1778.02365133 0 7371
0.08550000 0.08548940 24485.50948732 0 726.24607901 0 6271.48502169 0 -669.69548925 0 317.76307958 0 8256
0.08650000 0.08650700 24399.40610272 0 392.78880288 0 7283.98663629 0 1475.18927998 0 704.94616994 0 8037
0.08750000 0.08749060 23566.13666403 0 466.11044354 0 6846.79276675 0 212.94963184 0 399.31962096 0 8155
0.08850000 0.08849210 23546.46552525 0 326.69152846 0 5754.98836125 0 2394.48341872 0 2320.53117756 0 8718
0.08950000 0.08949900 22738.82477023 0 261.42381405 0 5315.75993394 0 1210.77545284 0 860.15707524 0 8571
0.09050000 0.09049190 22752.08873809 0 373.99780706 0 4439.86594768 0 1232.59355591 0 1840.40926288 0 8932
0.09150000 0.09150830 21939.05247072 0 700.08796070 0 4570.06640510 0 82.36901561 0 1867.91513522 0 9285
0.09250000 0.09250820 21565.86286645 0 1022.72611050 0 4859.20966385 0 -287.28068293 0 2732.29869513 0 9204
0.09350000 0.09350330 20287.80087834 0 1029.26254890 0 4985.13867399 0 -468.59687548 0 3150.65323404 0 9349
0.09450000 0.09448040 19582.33763846 0 798.93824323 0 5435.06820080 0 497.44825371 0 2882.19277263 0 9564
0.09550000 0.09549270 19180.25956181 0 224.59719413 0 4877.07105786 0 978.98536631 0 3759.37943373 0 10155
0.09650000 0.09649430 18669.59679910 0 -38.63051955 0 4248.50510963 0 1351.19366177 0 2860.73437039 0 9913
0.09750000 0.09749140 19276.02990604 0 -128.75603380 0 3997.27656580 0 1009.80835468 0 4051.35533646 0 10476
0.09850000 0.09850240 18892.16168358 0 -144.63008076 0 2896.20986409 0 932.73570888 0 2824.25845876 0 10575
0.09950000 0.09950330 19086.51253472 0 33.24995727 0 3060.58189973 0 -266.01337174 0 3450.75612726 0 10882
0.10050000 0.10051200 18981.74966990 0 369.91520271 0 3422.59829718 0 -805.82089367 0 2909.41762870 0 10875
0.10150000 0.10150300 18558.31435687 0 635.06641654 0 4297.49186552 0 -1104.87278604 0 2861.20647772 0 11118
0.10250000 0.10250800 18115.20790505 0 912.32943154 0 4542.32447909 0 -365.35599477 0 3021.64428560 0 11575
0.10350000 0.10349800 17332.07176862 0 890.49671562 0 5559.34483528 0 -406.50464491 0 2608.31431757 0 11364
0.10450000 0.10450100 16624.47280511 0 702.65982158 0 4983.13783816 0 -320.60359202 0 2550.88583299 0 12093
0.10550000 0.10551000 16193.16903656 0 483.84032193 0 5971.14607481 0 -165.81196300 0 2224.50229836 0 12067
0.10650000 0.10649700 15856.96117319 0 199.49007665 0 5528.23071406 0 511.57999981 0 2402.89142546 0 12054
0.10750000 0.10749900 16007.24867347 0 -356.94911209 0 5319.87401211 0 80.07389955 0 2167.51219916 0 12807
0.10850000 0.10850100 16293.09842156 0 -413.25128347 0 5293.87438697 0 372.43760474 0 2011.88538978 0 12736
0.10950000 0.10950300 16895.48489423 0 -273.97512466 0 5323.21248537 0 476.73847880 0 1727.73297996 0 12933
0.11050000 0.11050200 16556.46686818 0 200.10606431 0 5202.58906238 0 -294.53315078 0 1060.87238282 0 13428
0.11150000 0.11150900 16546.91231506 0 645.59890628 0 5742.87093976 0 -119.06322067 0 1939.50683973 0 13453
0.11250000 0.11250000 15822.45237545 0 588.05351893 0 5709.96955508 0 -10.92237171 0 1374.61917789 0 13668
0.11350000 0.11349100 15585.27464503 0 420.33289343 0 5357.82244897 0 275.34535998 0 1638.18995623 0 13791
0.11450000 0.11448600 15296.83954727 0 49.40041183 0 5787.09165974 0 355.69353141 0 1015.53771436 0 14205
0.11550000 0.11549300 15046.62266200 0 151.14178973 0 5008.59791206 0 269.20346842 0 983.18037716 0 14776
0.11650000 0.11649800 15158.24232376 0 116.07545571 0 5233.89427467 0 135.05641853 0 1376.69869828 0 14553
0.11750000 0.11747300 15137.67193292 0 57.46186932 0 4679.31428955 0 261.06748542 0 1310.41258092 0 14568
0.11850000 0.11849100 15211.18578870 0 1.07009646 0 4573.57348812 0 717.96733975 0 1844.77063537 0 16015
0.11950000 0.11950300 14977.60506651 0 70.47472104 0 3944.96257729 0 867.33535479 0 813.19026429 0 15270
0.12050000 0.12050700 14725.70208363 0 290.17177830 0 3886.33134308 0 365.25258079 0 1501.03153601 0 15999
0.12150000 0.12150000 14619.25312121 0 451.93935516 0 3565.47820862 0 633.28814560 0 733.72111175 0 15670
0.12250000 0.12250700 13981.90822476 0 270.08585950 0 3404.15238933 0 135.92981709 0 828.61805742 0 16887
0.12350000 0.12352200 13784.97202395 0 68.80244943 0 2623.93882209 0 385.00015599 0 620.99087370 0 16407
0.12450000 0.12449800 13610.40471810 0 73.84905199 0 2788.65931790 0 41.07007798 0 53.55304543 0 16306
0.12550000 0.12549900 13447.07806298 0 185.85741545 0 2019.45034773 0 96.52796409 0 -110.65600077 0 17523
0.12650000 0.12650100 13301.17441649 0 384.00648247 0 2582.30345178 0 -162.00138240 0 -33.07651403 0 17154
0.12750000 0.12750600 12972.38538261 0 344.32248913 0 1891.98136844 0 -21.36251949 0 230.78067609 0 18007
0.12850000 0.12850300 12724.86625351 0 209.96074281 0 2334.51454707 0 236.44259187 0 559.45280721 0 17496
0.12950000 0.12949900 12676.19423585 0 118.00997170 0 2074.12487288 0 266.37756883 0 862.44005140 0 18405
0.13050000 0.13049000 12642.47228365 0 89.27313570 0 2289.28216852 0 111.55255507 0 826.51605573 0 18100
0.13150000 0.13148800 12412.26375668 0 128.55932241 0 2381.60163298 0 42.10736523 0 1548.36591624 0 19059
0.13250000 0.13249300 12359.32029174 0 183.16190740 0 2740.77414579 0 -72.81120270 0 911.10982094 0 18957
0.13350000 0.13349100 12223.19601139 0 197.72079823 0 2808.37541928 0 -450.14309917 0 1335.64784181 0 19468
0.13450000 0.13450700 12051.43886822 0 183.69471425 0 3138.17611173 0 -459.02546138 0 646.28008971 0 19953
0.13550000 0.13551000 12129.33657778 0 117.04552387 0 3457.43307379 0 -267.38360707 0 1060.61272379 0 19956
0.13650000 0.13649900 12057.05919358 0 31.85004663 0 3535.22961750 0 177.35611130 0 1104.66146181 0 19723
0.13750000 0.13749600 12071.89685255 0 22.62506938 0 3707.13288913 0 164.51816410 0 946.29193366 0 20946
0.13850000 0.13851100 12018.95338760 0 69.41292917 0 3555.94613680 0 669.28070924 0 1543.76849009 0 20955
0.13950000 0.13949800 12020.18985919 0 5.81133774 0 3225.40356140 0 627.49583828 0 1503.05485315 0 20506
0.14050000 0.14048300 11950.27301164 0 -0.48523866 0 2873.66111873 0 906.98225399 0 2315.73141969 0 21447
0.14150000 0.14148400 11858.09967564 0 65.13361344 0 2393.84270162 0 608.74418473 0 1834.63156841 0 21771
0.14250000 0.14249400 11819.31943062 0 34.19529600 0 2529.31502423 0 394.91440994 0 1994.18136488 0 22470
0.14350000 0.14350900 11614.96440033 0 61.91305460 0 1758.13894018 0 153.65070297 0 1471.22133028 0 22519
0.14450000 0.14449900 11612.26664416 0 209.94725403 0 2114.43384640 0 -544.30603035 0 1046.93509998 0 22218
0.14550000 0.14550500 11507.05415332 0 253.59245269 0 1699.69879703 0 -493.59833083 0 551.39888096 0 23559
0.14650000 0.14650700 11248.63159301 0 270.59056472 0 2333.85134867 0 -608.80713237 0 336.71931297 0 23044
0.14750000 0.14750500 11051.84152066 0 406.88907516 0 2116.19862857 0 -666.12208638 0 73.48339362 0 23649
0.14850000 0.14849900 10793.44144166 0 288.67002736 0 2612.76561526 0 45.20011787 0 -27.52767920 0 23640
0.14950000 0.14949500 10627.76549053 0 295.32449259 0 2521.16555245 0 110.71535141 0 350.25305645 0 24457
0.15050000 0.15050000 10421.37590246 0 222.15010446 0 2608.40424278 0 308.30069979 0 215.20001011 0 24591
0.15150000 0.15149900 10294.40151181 0 96.52133210 0 3018.95777008 0 -16.60839867 0 339.14167320 0 25020
0.15250000 0.15250500 10209.27606382 0 133.59625800 0 3065.12312263 0 -144.42774905 0 148.22708899 0 25297
0.15350000 0.15350100 10225.09165940 0 72.45116466 0 3276.23378401 0 -381.66617899 0 198.75606216 0 25452
0.15450000 0.15450400 10018.22996400 0 123.41222844 0 3136.24271980 0 -360.51127431 0 217.80446889 0 26061
0.15550000 0.15549900 10089.10226685 0 16.59254936 0 3226.34777606 0 54.04133930 0 177.57755212 0 26128
0.15650000 0.15649500 10084.36995290 0 -38.67357125 0 3002.96232409 0 393.73751381 0 -45.80981077 0 26331
0.15750000 0.15749700 10100.39912084 0 96.60327645 0 3069.58566097 0 526.03997291 0 -569.71776945 0 27345
0.15850000 0.15849900 10125.75802889 0 82.94903319 0 2743.83160278 0 122.53770581 0 -280.58575135 0 26980
0.15950000 0.15949700 9900.86632971 0 154.05873859 0 2782.49944130 0 42.54912281 0 -476.97228434 0 27777
0.16050000 0.16050000 9888.73766757 0 169.91592458 0 2774.05771260 0 -66.74968180 0 -166.31666822 0 28224
0.16150000 0.16150500 9742.76657718 0 62.97136187 0 2706.42271715 0 15.53761429 0 -408.99782124 0 28075
0.16250000 0.16249700 9813.93113696 0 128.20973817 0 2689.64042561 0 69.91819642 0 -208.13750926 0 28590
0.16350000 0.16349900 9585.17265393 0 163.99659790 0 2495.79540375 0 188.42253194 0 -1.85771987 0 29163
0.16450000 0.16449100 9412.95464408 0 254.55914865 0 2654.51339208 0 152.24112537 0 -146.48366407 0 28996
0.16550000 0.16550500 9295.50108460 0 143.64539976 0 2401.00299614 0 294.66017013 0 137.28543957 0 30777
0.16650000 0.16650700 9099.05947242 0 103.61159736 0 2528.71926975 0 265.36478620 0 2.24239741 0 29211
0.16750000 0.16749900 9028.80540535 0 112.74485090 0 2273.35416644 0 151.81510471 0 346.41887049 0 30922
0.16850000 0.16850800 8922.82855026 0 123.76406081 0 2374.27272870 0 -3.71944140 0 188.10442153 0 30867
0.16950000 0.16949900 8680.80609937 0 169.19090261 0 2125.83186625 0 79.11293632 0 326.67466748 0 30852
0.17050000 0.17049200 8680.30027009 0 41.16506148 0 1953.14174906 0 179.26364973 0 108.33963988 0 31257
0.17150000 0.17149500 8709.37983353 0 -75.05123958 0 2103.83391276 0 334.81402267 0 453.24439471 0 32608
0.17250000 0.17250900 8731.33282441 0 -77.68222629 0 1672.36153446 0 476.65417392 0 166.89780986 0 32361
0.17350000 0.17350400 8828.23847436 0 5.00785603 0 1691.05473662 0 131.10308167 0 314.33355704 0 32508
0.17450000 0.17449800 8712.04386775 0 191.29564227 0 1589.58538247 0 -115.92370692 0 387.53829493 0 32791
0.17550000 0.17549800 8561.14937234 0 325.54385802 0 1801.11194793 0 -35.06712087 0 666.75830721 0 33633
0.17650000 0.17650100 8389.76317064 0 178.54649621 0 1693.84241800 0 55.51926006 0 874.50576590 0 33984
0.17750000 0.17750300 8120.49338238 0 204.12347288 0 2025.03695114 0 106.90083658 0 770.88719933 0 34069
0.17850000 0.17849800 8156.07004195 0 79.76950273 0 1574.86013001 0 241.84709674 0 861.09904177 0 34536
