### header ###
fiducial parameters:
Omega_m = 0.31
Omega_nu = 0
Omega_de = 0.69
Omega_k = 0
H_0 = 100
w_de = -1
zeff = 0
beta = 0
fgrowth = 0
b_1 = 2
gamma = 0.55
Lx = 3500 Ly = 3500 Lz = 3500
nx = 700 ny = 700 nz = 700
xoffset = 857.220397 yoffset = 15.9954215 zoffset = 262.898189
bins = 400 dk = 0.001
kx_ny = 0.628318531 ky_ny = 0.628318531 kz_ny = 0.628318531
############################
A(data) = 3.11484866 (not used)
A(ran) = 3.11076004 (used)
Ngal = 189642
weighted Ngal = 0
Nran = 9360983
weighted Nran = 0
SN(data) = 3460.5559
SN(ran) = 69.8559797
SN(data+ran) = 3530.41188
############################
13 columns: k_central k_mean P_0(k) sigma^{lin}_{P_0(k)} P^img_1(k) sigma^{lin}_{P_1(k)} P_2(k) sigma^{lin}_{P_2(k)} P^img_3(k) sigma^{lin}_{P_3(k)} P_4(k) sigma^{lin}_{P_4(k)} N_modes
### header ###
0.00050000 0 0 0 0 0 0 0 0 0 0 0 0
0.00150000 0.00179520 8668.30649576 0 -18696.01232832 0 -17311.61378429 0 44472.17333257 0 18604.17621185 0 3
0.00250000 0.00253879 19832.21730421 0 -25459.96149919 0 -4178.20607996 0 -20109.29934473 0 -5677.57399967 0 6
0.00350000 0.00331552 33807.15632551 0 -28685.69103946 0 -20372.89260437 0 -6871.78073333 0 -19708.00811363 0 7
0.00450000 0.00420575 56934.12076548 0 -33180.82726678 0 -23427.53944052 0 -11477.49124189 0 4113.07774963 0 24
0.00550000 0.00557378 83367.97224401 0 -25239.41993185 0 -44739.58841346 0 -20083.67066106 0 7644.98013451 0 45
0.00650000 0.00659388 119540.94832887 0 -22701.05618377 0 -35043.17827989 0 -9802.58932037 0 -18579.22196723 0 40
0.00750000 0.00754703 107576.96172334 0 -6475.58151701 0 -57504.13416405 0 -4197.15781710 0 -3949.14409937 0 57
0.00850000 0.00846663 115528.03601791 0 87.95494459 0 -57688.03121001 0 -1396.99931350 0 6052.46094220 0 75
0.00950000 0.00948925 96335.29933378 0 4771.43142229 0 -68259.75081600 0 5610.29870504 0 16680.33883924 0 112
0.01050000 0.01054430 92454.68948192 0 7193.38699139 0 -62870.42082303 0 883.20040924 0 6560.47091133 0 105
0.01150000 0.01145670 78042.71396020 0 5899.63305486 0 -69144.95206107 0 -6191.82252996 0 21054.75047771 0 144
0.01250000 0.01249090 72802.77221544 0 3169.84102484 0 -50078.78510418 0 -29896.87115572 0 10115.72012779 0 169
0.01350000 0.01339930 68785.02642466 0 4285.99267982 0 -44033.78795406 0 -50129.48043897 0 11566.96682171 0 180
0.01450000 0.01448870 66879.73612576 0 5793.55503391 0 -19066.16695689 0 -50539.98900367 0 2293.71098491 0 267
0.01550000 0.01550050 70202.24766882 0 8027.18474067 0 309.67543138 0 -46020.91019029 0 -12375.50682879 0 238
0.01650000 0.01653350 63865.33081923 0 7345.01212910 0 20516.77293373 0 -30011.97541921 0 -8352.65778258 0 315
0.01750000 0.01747870 63548.11965560 0 7420.39193291 0 38785.07850173 0 -9234.12713160 0 -16669.32300152 0 297
0.01850000 0.01844180 56582.40080411 0 3652.08742250 0 34181.80721438 0 17639.61597262 0 -18828.98922647 0 388
0.01950000 0.01947590 61627.31725869 0 505.58760890 0 36183.76710957 0 25550.89836360 0 -7418.59342879 0 399
0.02050000 0.02045430 58472.40381802 0 -1866.35268477 0 35925.34454926 0 24991.22636371 0 5768.62327059 0 462
0.02150000 0.02154770 62994.96723313 0 -4151.21727756 0 28309.35405299 0 19097.75318545 0 23677.08188675 0 571
0.02250000 0.02255340 66187.42444724 0 -4611.94906972 0 21768.75661214 0 12923.82577145 0 12559.40387475 0 510
0.02350000 0.02348930 72592.01001423 0 -4086.94323668 0 17804.40391234 0 -5307.29572394 0 35200.88460965 0 555
0.02450000 0.02439640 71158.71463952 0 600.98139133 0 29427.68639421 0 -751.02159729 0 3817.33622890 0 592
0.02550000 0.02547300 70368.60929964 0 5266.88558456 0 20171.01051724 0 -8276.56981778 0 17922.88037104 0 837
0.02650000 0.02652900 65174.97903590 0 7236.02277962 0 24024.19318132 0 1252.70308006 0 1714.19923648 0 723
0.02750000 0.02749970 55912.57042705 0 5349.40320158 0 15943.17696430 0 3795.81038275 0 4948.98874124 0 826
0.02850000 0.02848090 53958.49570398 0 1926.23163121 0 11176.20808035 0 8398.66576602 0 -3056.69263458 0 831
0.02950000 0.02946900 50222.10340100 0 -817.98889808 0 6602.84816459 0 6698.03399498 0 -11234.54705764 0 996
0.03050000 0.03053250 55003.65140894 0 -2886.77895813 0 953.43761533 0 -913.35233076 0 -1990.67428186 0 1041
0.03150000 0.03150510 53697.60020051 0 425.06071113 0 9275.29039458 0 -8140.69283175 0 -9128.34136758 0 1036
0.03250000 0.03246190 61084.39382838 0 -2232.55060429 0 11109.79831583 0 -13871.07540855 0 -2588.80054790 0 1059
0.03350000 0.03345080 56647.48417184 0 -784.96723843 0 19674.96060048 0 -8167.95140977 0 -5938.50322509 0 1302
0.03450000 0.03451200 61671.83023558 0 2116.37847898 0 25277.63814433 0 -4464.61786059 0 -6553.06332250 0 1339
0.03550000 0.03553350 57816.96147390 0 190.09626484 0 24588.47384801 0 1550.09697645 0 -11370.81746646 0 1365
0.03650000 0.03647120 58990.14819069 0 3020.04811320 0 28430.75308088 0 2472.83075431 0 -8953.92019018 0 1308
0.03750000 0.03744890 55568.26929516 0 2936.42891241 0 26308.63062938 0 6829.84186545 0 -6673.65302354 0 1579
0.03850000 0.03847530 52042.30197386 0 3268.82619518 0 21156.92799286 0 4788.51721140 0 -2225.98606426 0 1662
0.03950000 0.03950240 50427.13287033 0 1520.39917722 0 19157.44104083 0 4429.26601404 0 564.42342296 0 1683
0.04050000 0.04050350 49399.51258050 0 -10.06187741 0 18477.38167160 0 3419.87805970 0 -1096.50074938 0 1822
0.04150000 0.04152450 48982.70925140 0 703.43879868 0 14916.56833304 0 3981.15747265 0 730.41186417 0 1887
0.04250000 0.04250150 48606.59707794 0 2438.18706876 0 20063.77470927 0 -3823.97945348 0 -3080.30924177 0 1920
0.04350000 0.04349210 45952.67944035 0 3711.28068925 0 19487.69135930 0 -1602.78190643 0 1023.60625345 0 2005
0.04450000 0.04448520 41888.39735555 0 4340.82457409 0 20923.23486416 0 391.75129082 0 1477.42616948 0 2151
0.04550000 0.04548030 39300.34993124 0 1832.24855045 0 20508.23003917 0 6123.89527759 0 3084.37835733 0 2274
0.04650000 0.04648670 39600.47530576 0 110.58327376 0 23135.95696056 0 3792.41570622 0 4014.57592727 0 2311
0.04750000 0.04749250 38435.83148352 0 -825.18403862 0 19108.99383618 0 6730.11481217 0 3976.48136194 0 2568
0.04850000 0.04851840 40190.83428215 0 -833.66061333 0 20364.23730331 0 2155.34981506 0 8378.50003861 0 2493
0.04950000 0.04949480 40661.59273477 0 -554.47432300 0 18059.11705790 0 1970.48607314 0 6656.01644255 0 2644
0.05050000 0.05050630 42496.96618612 0 214.49184912 0 17813.73365245 0 -998.51712102 0 7216.68886036 0 2829
0.05150000 0.05149060 40123.27797126 0 609.53440247 0 19367.64120950 0 288.55762085 0 4658.17062553 0 2784
0.05250000 0.05249300 40826.38067448 0 647.33558682 0 15129.80347741 0 733.38164410 0 2739.40278640 0 3055
0.05350000 0.05348950 39454.45925276 0 683.97223974 0 16081.99900083 0 2621.25230656 0 3872.25804837 0 3009
0.05450000 0.05448610 38546.88911274 0 804.10219817 0 11453.43624933 0 2933.48386192 0 3247.52516204 0 3336
0.05550000 0.05550870 37916.28860674 0 361.09466408 0 10734.96757656 0 5514.12369739 0 837.03056042 0 3349
0.05650000 0.05647670 37179.12673180 0 515.70307050 0 7283.15482813 0 2644.79022919 0 3148.92217383 0 3324
0.05750000 0.05747970 36066.97674847 0 629.73834810 0 8652.05251480 0 1594.36265903 0 4194.41509832 0 3639
0.05850000 0.05849280 36792.11112713 0 568.37675982 0 7172.55806559 0 134.81586861 0 4968.54747351 0 3846
0.05950000 0.05951020 35364.43607779 0 103.15657582 0 9134.75977914 0 1.09363888 0 4922.05614209 0 3787
0.06050000 0.06049470 36492.43537864 0 465.76872775 0 10678.21353102 0 -1003.53157531 0 4361.30503972 0 3930
0.06150000 0.06148310 34754.85558864 0 1391.33402553 0 10513.29070349 0 -1825.17818114 0 2038.12106859 0 4083
0.06250000 0.06249100 34770.25528015 0 1698.05766203 0 14522.80833793 0 -996.42523592 0 3781.17505549 0 4303
0.06350000 0.06350600 32549.77713475 0 1440.82661070 0 12258.94128071 0 410.47484274 0 2665.24821352 0 4470
0.06450000 0.06451750 32205.47600286 0 1268.50743499 0 13752.26173032 0 382.11355688 0 3720.84648302 0 4479
0.06550000 0.06550280 31707.40276897 0 805.40049333 0 14134.21904216 0 744.14344311 0 3883.22892348 0 4636
0.06650000 0.06648880 30646.28533996 0 360.62592895 0 13157.74371316 0 2230.03269852 0 5212.24478136 0 4653
0.06750000 0.06749660 30906.16918486 0 386.25124042 0 12526.35636160 0 1345.32604209 0 5206.35468037 0 5220
0.06850000 0.06852730 29644.06892078 0 194.07770333 0 9401.63530880 0 1711.62512746 0 3256.01185334 0 5029
0.06950000 0.06949320 29947.67889703 0 31.16414212 0 9854.50988610 0 1005.17495845 0 3999.81695286 0 5040
0.07050000 0.07048030 29610.90900113 0 297.26687704 0 7964.48439089 0 1770.42497143 0 1605.24360894 0 5475
0.07150000 0.07148790 28629.93741183 0 367.47822963 0 8828.37336217 0 1971.56517561 0 1767.19890467 0 5509
0.07250000 0.07249820 28570.13714995 0 875.54440202 0 6656.47730923 0 -708.32960581 0 -1049.27427940 0 5916
0.07350000 0.07351270 27935.93963570 0 1154.69584634 0 9479.21828014 0 -269.35296908 0 -135.55662749 0 5721
0.07450000 0.07449140 26808.83958691 0 1143.10673544 0 7061.82641524 0 -1093.20611465 0 128.26594143 0 6028
0.07550000 0.07549160 26795.80043206 0 722.88512444 0 11244.58495875 0 -934.71181528 0 3171.71821351 0 6183
0.07650000 0.07648840 26668.89348531 0 -85.80056147 0 9088.94288676 0 658.36940957 0 1307.75978734 0 6330
0.07750000 0.07749960 26901.91217496 0 -413.17372298 0 11062.28408519 0 742.12012598 0 3503.64338895 0 6583
0.07850000 0.07848650 26343.25183363 0 7.64441810 0 7228.97489161 0 1282.71561752 0 -259.37014716 0 6549
0.07950000 0.07947320 27100.30966036 0 273.18940317 0 8821.96619125 0 1194.09432715 0 1271.91335216 0 6828
0.08050000 0.08048110 25995.69091303 0 645.20435944 0 6343.51511158 0 249.14789939 0 -2113.81561061 0 7147
0.08150000 0.08149960 25497.16805311 0 635.52053883 0 6363.43354467 0 249.76501111 0 -745.15510167 0 7386
0.08250000 0.08250610 24617.81194642 0 644.40627324 0 6834.92263958 0 1.41443356 0 -2679.83857817 0 7227
0.08350000 0.08350160 24455.94657590 0 439.88375725 0 7034.48915266 0 -537.08278819 0 -1987.95404438 0 7798
0.08450000 0.08449610 23851.19956657 0 546.94196294 0 7560.64153208 0 -398.95429981 0 -1529.88628644 0 7371
0.08550000 0.08548940 23494.30890586 0 352.78669913 0 7843.64739553 0 -257.95494924 0 -1750.96740502 0 8256
0.08650000 0.08650700 22590.33577407 0 562.79577673 0 8001.71342611 0 231.81031970 0 -1163.13757504 0 8037
0.08750000 0.08749060 22953.29638618 0 558.48273905 0 8328.76015913 0 -393.81732243 0 -2454.32864321 0 8155
0.08850000 0.08849210 21939.95172278 0 670.51493269 0 7938.82198527 0 259.46232050 0 -2650.24194480 0 8718
0.08950000 0.08949900 21427.94008198 0 925.02687061 0 7608.02087491 0 456.31196829 0 -2875.62823261 0 8571
0.09050000 0.09049190 20467.31407051 0 677.41556817 0 7083.94801588 0 342.81511786 0 -2438.73786064 0 8932
0.09150000 0.09150830 20231.37281167 0 312.02135519 0 6385.45397945 0 1274.72351485 0 -2679.09669522 0 9285
0.09250000 0.09250820 20018.47488682 0 -79.64889054 0 6836.74362500 0 1746.41494147 0 -280.39915655 0 9204
0.09350000 0.09350330 20064.89877434 0 -28.98952583 0 5279.39642882 0 2579.76306471 0 1164.94731981 0 9349
0.09450000 0.09448040 19885.27317566 0 -152.40411481 0 5384.57519771 0 1926.37775967 0 2045.86587694 0 9564
0.09550000 0.09549270 19625.50173727 0 427.22004014 0 4167.02163249 0 741.99423069 0 4099.27423053 0 10155
0.09650000 0.09649430 19323.91507815 0 528.97490681 0 3971.74904799 0 736.80554631 0 2083.03870891 0 9913
0.09750000 0.09749140 18676.79081557 0 581.93860493 0 4274.58341933 0 -498.90953830 0 3597.99741118 0 10476
0.09850000 0.09850240 18319.90015486 0 512.40955983 0 3306.26880276 0 -952.48890441 0 671.19836425 0 10575
0.09950000 0.09950330 17921.41908645 0 328.95651958 0 4032.35863673 0 -1061.13428998 0 910.28588124 0 10882
0.10050000 0.10051200 17659.96155045 0 338.16598472 0 3429.25276241 0 -768.80767894 0 -1785.52116536 0 10875
0.10150000 0.10150300 17781.47298485 0 165.00376021 0 3944.05208459 0 -530.35188653 0 -1588.54000195 0 11118
0.10250000 0.10250800 17289.13248283 0 392.45383149 0 4373.57983032 0 -7.25553655 0 -1657.51263484 0 11575
0.10350000 0.10349800 17011.71322279 0 384.04807288 0 4455.42300829 0 459.04119829 0 -1581.41342939 0 11364
0.10450000 0.10450100 16678.87755464 0 146.04640275 0 4619.77256263 0 1044.58130772 0 -577.17706528 0 12093
0.10550000 0.10551000 16472.38680072 0 267.45891943 0 4366.16100084 0 772.46201449 0 -377.03053462 0 12067
0.10650000 0.10649700 16618.85247974 0 100.86741730 0 4701.80683166 0 789.18135839 0 1059.67637758 0 12054
0.10750000 0.10749900 16202.83599619 0 134.52585982 0 4551.14838992 0 -41.90952978 0 720.36159836 0 12807
0.10850000 0.10850100 16237.00757441 0 162.92423983 0 4155.76974110 0 -521.72468709 0 1045.96840402 0 12736
0.10950000 0.10950300 16308.61051957 0 9.08172639 0 4948.49415261 0 -894.95925397 0 523.30287446 0 12933
0.11050000 0.11050200 16521.28363140 0 159.80720738 0 5170.63189235 0 -1229.73843062 0 769.65409994 0 13428
0.11150000 0.11150900 16706.30474243 0 180.61590001 0 6361.65752186 0 -628.23097683 0 1120.94916472 0 13453
0.11250000 0.11250000 16322.21170695 0 74.95209704 0 5931.17432081 0 26.23893859 0 1257.39043142 0 13668
0.11350000 0.11349100 16523.08213551 0 204.26510508 0 6705.50902772 0 717.28278412 0 1569.81307784 0 13791
0.11450000 0.11448600 16398.42331891 0 214.40417204 0 6597.80111241 0 665.22508246 0 922.32574223 0 14205
0.11550000 0.11549300 16025.12130813 0 266.02461239 0 5953.68934422 0 910.74000353 0 852.34707111 0 14776
0.11650000 0.11649800 15588.08480771 0 345.71970201 0 5679.09148752 0 267.95912839 0 667.89923326 0 14553
0.11750000 0.11747300 15472.30610518 0 220.49885287 0 5197.00245897 0 72.04290423 0 586.86875434 0 14568
0.11850000 0.11849100 15239.28741553 0 73.02196490 0 5384.24921884 0 -249.74028168 0 -23.32322620 0 16015
0.11950000 0.11950300 15351.01948379 0 84.04623311 0 4919.44831112 0 45.93806659 0 -378.13324246 0 15270
0.12050000 0.12050700 15200.28235749 0 275.25318664 0 5094.91486903 0 109.86645746 0 -10.97875481 0 15999
0.12150000 0.12150000 14934.21615469 0 246.22870239 0 4764.58586600 0 286.57364600 0 135.23626894 0 15670
0.12250000 0.12250700 14734.24497818 0 266.76986754 0 5085.72001673 0 525.74434379 0 292.77736113 0 16887
0.12350000 0.12352200 14574.96495733 0 206.91677459 0 4714.32891658 0 511.38104029 0 -430.75410073 0 16407
0.12450000 0.12449800 14417.70825360 0 163.47053545 0 5243.63991885 0 -81.28845186 0 129.52264618 0 16306
0.12550000 0.12549900 14176.48388891 0 243.63323614 0 5152.92786745 0 -349.35830065 0 -438.57422144 0 17523
0.12650000 0.12650100 14153.21574190 0 279.45831408 0 5495.47545783 0 -514.93758218 0 253.97688294 0 17154
0.12750000 0.12750600 13724.49732302 0 351.37374933 0 5227.34097529 0 -3.11506533 0 -439.65107578 0 18007
0.12850000 0.12850300 13678.18584201 0 185.97769041 0 5237.51376420 0 847.08307437 0 5.00902506 0 17496
0.12950000 0.12949900 13278.24348900 0 217.83369458 0 5005.84395264 0 538.97571377 0 -484.53724228 0 18405
0.13050000 0.13049000 13078.04749948 0 275.95235512 0 4752.70449817 0 584.82857623 0 -100.52300376 0 18100
0.13150000 0.13148800 12779.94544209 0 216.56125292 0 4518.24700523 0 252.18624728 0 -142.30776232 0 19059
0.13250000 0.13249300 12653.71293438 0 182.48746836 0 4022.77036165 0 14.62352457 0 -443.23122304 0 18957
0.13350000 0.13349100 12564.68698059 0 135.92307270 0 3818.68510698 0 21.84238287 0 1.86681355 0 19468
0.13450000 0.13450700 12348.86648656 0 18.69623714 0 3636.14817976 0 129.69462813 0 -906.94066358 0 19953
0.13550000 0.13551000 12442.27629413 0 98.91559071 0 3473.02385635 0 199.82504804 0 -416.82131415 0 19956
0.13650000 0.13649900 12295.69820860 0 191.70929822 0 3660.51791055 0 199.74973568 0 -603.63868117 0 19723
0.13750000 0.13749600 12084.26156835 0 284.23783877 0 3039.15721944 0 503.09443257 0 -1108.62266712 0 20946
0.13850000 0.13851100 11859.67336675 0 193.27399680 0 3440.16743427 0 378.82903874 0 -300.42437583 0 20955
0.13950000 0.13949800 11815.61001588 0 185.56515853 0 3493.27950897 0 -119.98382997 0 -174.73141935 0 20506
0.14050000 0.14048300 11717.02950897 0 66.86860788 0 4053.80579832 0 195.07474905 0 341.68543247 0 21447
0.14150000 0.14148400 11867.99144829 0 51.27827494 0 4340.68968628 0 -306.92034788 0 801.15152735 0 21771
0.14250000 0.14249400 11740.29765598 0 154.42068755 0 4530.33070476 0 -69.67247580 0 1196.65719552 0 22470
0.14350000 0.14350900 11725.12277750 0 170.79606753 0 4907.72431240 0 211.70529180 0 1736.92783225 0 22519
0.14450000 0.14449900 11485.58451042 0 263.05708060 0 4861.98610458 0 334.36664477 0 1344.50547458 0 22218
0.14550000 0.14550500 11289.99718770 0 65.82659956 0 4345.83790431 0 398.94643135 0 1314.50417778 0 23559
0.14650000 0.14650700 11178.37752594 0 -120.24124087 0 3781.84949454 0 672.93054853 0 921.85138677 0 23044
0.14750000 0.14750500 11262.68240642 0 -94.24892215 0 2918.19657692 0 760.44913106 0 924.77058377 0 23649
0.14850000 0.14849900 11320.45935118 0 -36.48389248 0 2374.65491083 0 562.56309526 0 242.19780504 0 23640
0.14950000 0.14949500 11218.40548319 0 165.06783192 0 1964.16882743 0 237.64871369 0 326.15197722 0 24457
0.15050000 0.15050000 10952.03578282 0 341.92598239 0 1760.80297441 0 -192.76591939 0 -118.55851545 0 24591
0.15150000 0.15149900 10732.42718949 0 364.89063183 0 2011.97531499 0 -342.27219443 0 215.77215924 0 25020
0.15250000 0.15250500 10566.13300258 0 261.20462136 0 2389.48132914 0 -501.18914227 0 346.05579747 0 25297
0.15350000 0.15350100 10304.41693161 0 116.41941962 0 2678.96180742 0 -240.23069116 0 276.21875854 0 25452
0.15450000 0.15450400 10417.00328933 0 20.29668099 0 3077.61148559 0 -65.45925509 0 561.07483311 0 26061
0.15550000 0.15549900 10298.13340785 0 25.61980355 0 2971.79199961 0 303.34469689 0 356.59165940 0 26128
0.15650000 0.15649500 10210.05166872 0 123.13683250 0 2862.49915255 0 285.49229540 0 415.69837314 0 26331
0.15750000 0.15749700 10130.92872822 0 171.71442870 0 2832.45289315 0 295.91912301 0 281.95598668 0 27345
0.15850000 0.15849900 9797.46358364 0 235.18139085 0 2474.35948281 0 352.70351831 0 108.02726219 0 26980
0.15950000 0.15949700 9825.26171290 0 161.29322140 0 2470.36905180 0 31.68312296 0 -99.47211533 0 27777
0.16050000 0.16050000 9543.46983972 0 139.13115442 0 1886.20367396 0 34.53498846 0 -95.16604684 0 28224
0.16150000 0.16150500 9563.97278666 0 50.43522614 0 2291.32796696 0 47.88135029 0 -125.30515402 0 28075
0.16250000 0.16249700 9513.31117381 0 66.31421899 0 2119.14367906 0 38.54835040 0 -101.67292233 0 28590
0.16350000 0.16349900 9572.20094299 0 58.23679978 0 2010.95241577 0 418.80304087 0 63.58824878 0 29163
0.16450000 0.16449100 9430.41137467 0 167.80830257 0 2274.24217785 0 266.20895907 0 292.35246454 0 28996
0.16550000 0.16550500 9317.84749825 0 231.97555727 0 1855.08955274 0 212.54946467 0 476.45746253 0 30777
0.16650000 0.16650700 9088.38085423 0 283.60723827 0 2235.96776211 0 66.88243388 0 502.63918622 0 29211
0.16750000 0.16749900 8920.54669816 0 231.48546489 0 1750.04567166 0 -159.06420036 0 840.78606183 0 30922
0.16850000 0.16850800 8624.04081318 0 187.97965030 0 2137.92680643 0 -166.42795066 0 676.60736539 0 30867
0.16950000 0.16949900 8633.20194353 0 74.27316174 0 1839.51001083 0 103.03776215 0 629.89122095 0 30852
0.17050000 0.17049200 8472.91026410 0 45.44763700 0 1936.96645266 0 -1.12096940 0 148.16863761 0 31257
0.17150000 0.17149500 8416.60584459 0 76.40348986 0 1732.34164676 0 -92.30541364 0 75.88226089 0 32608
0.17250000 0.17250900 8481.75665623 0 101.31344632 0 2051.55364621 0 12.26444920 0 351.82449942 0 32361
0.17350000 0.17350400 8340.38299198 0 145.37983216 0 1824.33513234 0 -166.68423749 0 250.78004187 0 32508
0.17450000 0.17449800 8340.29306678 0 2.71822540 0 2282.14435531 0 74.82125587 0 609.43660881 0 32791
0.17550000 0.17549800 8355.19816965 0 21.82855687 0 2370.81060828 0 -35.49314153 0 310.14529058 0 33633
0.17650000 0.17650100 8472.89902345 0 -55.95640896 0 2389.11038767 0 135.32956635 0 852.05369012 0 33984
0.17750000 0.17750300 8459.14046696 0 -33.28986158 0 2571.52366773 0 61.37417780 0 637.80688719 0 34069
0.17850000 0.17849800 8599.18773441 0 33.20319616 0 2598.73728315 0 -149.42084610 0 933.85415362 0 34536
