### header ###
fiducial parameters:
Omega_m = 0.31
Omega_nu = 0
Omega_de = 0.69
Omega_k = 0
H_0 = 100
w_de = -1
zeff = 0
beta = 0
fgrowth = 0
b_1 = 2
gamma = 0.55
Lx = 3500 Ly = 3500 Lz = 3500
nx = 700 ny = 700 nz = 700
xoffset = 857.220397 yoffset = 15.9954215 zoffset = 262.898189
bins = 400 dk = 0.001
kx_ny = 0.628318531 ky_ny = 0.628318531 kz_ny = 0.628318531
############################
A(data) = 3.124344 (not used)
A(ran) = 3.12113681 (used)
Ngal = 189872
weighted Ngal = 0
Nran = 9360983
weighted Nran = 0
SN(data) = 3464.69589
SN(ran) = 70.0890029
SN(data+ran) = 3534.78489
############################
13 columns: k_central k_mean P_0(k) sigma^{lin}_{P_0(k)} P^img_1(k) sigma^{lin}_{P_1(k)} P_2(k) sigma^{lin}_{P_2(k)} P^img_3(k) sigma^{lin}_{P_3(k)} P_4(k) sigma^{lin}_{P_4(k)} N_modes
### header ###
0.00050000 0 0 0 0 0 0 0 0 0 0 0 0
0.00150000 0.00179520 1177.32327626 0 -9268.93942692 0 -4424.30888707 0 -8536.91452936 0 -28408.83381196 0 3
0.00250000 0.00253879 7932.30240785 0 -18355.53301768 0 -12073.80776317 0 -5244.55041156 0 -5641.78376774 0 6
0.00350000 0.00331552 25143.76199412 0 -28585.19962193 0 -32719.62336729 0 20163.47928125 0 -1207.87536495 0 7
0.00450000 0.00420575 50843.48657340 0 -37039.40544321 0 -43644.29940623 0 -5262.49049013 0 -15324.49154807 0 24
0.00550000 0.00557378 91952.34480076 0 -28623.53024092 0 -63810.58885017 0 -27466.08043515 0 1973.41988298 0 45
0.00650000 0.00659388 115407.76105509 0 -15655.19149257 0 -49889.60495237 0 -66712.25042987 0 -69398.20392204 0 40
0.00750000 0.00754703 118050.43804194 0 -2527.05565344 0 -44401.69445249 0 -54249.85337092 0 5170.78926146 0 57
0.00850000 0.00846663 111466.33928277 0 11186.24598145 0 -29027.29441517 0 -51380.45245882 0 -55100.77063126 0 75
0.00950000 0.00948925 103461.53467771 0 5089.72168839 0 -20596.01952138 0 -27227.55382664 0 -4990.56790829 0 112
0.01050000 0.01054430 98073.89078235 0 3056.81628174 0 8835.49993473 0 -23876.94065674 0 -56289.24463305 0 105
0.01150000 0.01145670 91612.65233567 0 -4086.81958952 0 3365.06864673 0 -6924.36449745 0 -30133.93647964 0 144
0.01250000 0.01249090 98780.02846127 0 -7107.51966046 0 8767.49399781 0 -1535.00078252 0 -29696.11313367 0 169
0.01350000 0.01339930 99601.60762320 0 -6398.92027903 0 4484.14287091 0 434.61076799 0 -7285.58280869 0 180
0.01450000 0.01448870 105117.84456292 0 1312.81808017 0 3951.58332058 0 -5363.15051742 0 -7287.37007216 0 267
0.01550000 0.01550050 95298.79892988 0 2963.29406766 0 8929.73030981 0 11989.27806968 0 -22912.83004355 0 238
0.01650000 0.01653350 95331.73403652 0 10931.39794808 0 4504.76946500 0 -16452.04122289 0 2305.90709096 0 315
0.01750000 0.01747870 95857.45927121 0 6779.45002822 0 15424.75815259 0 -9245.58135470 0 -2548.85127520 0 297
0.01850000 0.01844180 88840.03342636 0 2367.20235939 0 15947.67322459 0 -14831.36420050 0 -2784.16305761 0 388
0.01950000 0.01947590 83674.39238293 0 175.18666571 0 123.51676649 0 -2759.61347641 0 -32622.95377100 0 399
0.02050000 0.02045430 83731.27007563 0 182.08505306 0 14817.20098058 0 -6014.06287930 0 -24792.82887830 0 462
0.02150000 0.02154770 81382.76091841 0 2525.18970542 0 3780.69170751 0 4680.19106031 0 -34604.90530789 0 571
0.02250000 0.02255340 78308.78016300 0 3407.07495852 0 11247.39512143 0 2406.88185647 0 -26796.25005809 0 510
0.02350000 0.02348930 72890.56169765 0 2903.41512121 0 322.79889111 0 11459.61860723 0 -15727.35647027 0 555
0.02450000 0.02439640 74015.30120979 0 576.26994477 0 9675.18778499 0 7708.08514771 0 -10141.92208464 0 592
0.02550000 0.02547300 71373.18625547 0 -349.10313788 0 11039.96015284 0 9833.95073591 0 18560.11286098 0 837
0.02650000 0.02652900 77651.98894079 0 -2068.48206622 0 11757.27103859 0 9228.54052819 0 16952.92461947 0 723
0.02750000 0.02749970 77642.54679418 0 -102.97784948 0 16066.26208981 0 -1.48965600 0 28773.14330215 0 826
0.02850000 0.02848090 79254.68092201 0 3608.50741961 0 17309.14084113 0 -1555.93087418 0 21973.67367497 0 831
0.02950000 0.02946900 73580.28802650 0 6422.41323906 0 27759.34901272 0 -7359.04046122 0 33336.06065338 0 996
0.03050000 0.03053250 66617.26693119 0 7253.77176712 0 17687.16392521 0 -1258.06487046 0 21413.77686206 0 1041
0.03150000 0.03150510 62316.03192898 0 3106.96082465 0 16277.81113656 0 5925.08188811 0 12386.85988603 0 1036
0.03250000 0.03246190 59719.32920361 0 1507.83212971 0 15089.56194779 0 2425.20411716 0 5772.44509184 0 1059
0.03350000 0.03345080 59047.92513545 0 -1380.45307562 0 6700.81043571 0 6415.57892341 0 -7431.77871210 0 1302
0.03450000 0.03451200 58431.48784936 0 -1118.91123474 0 8820.90957008 0 -4477.58957153 0 1170.51144192 0 1339
0.03550000 0.03553350 59497.21394517 0 13.79475139 0 6489.45248002 0 -2006.82709696 0 -902.87492021 0 1365
0.03650000 0.03647120 61014.47698083 0 -1404.29449582 0 12321.77651830 0 1440.75916679 0 -1143.99474685 0 1308
0.03750000 0.03744890 59907.16047732 0 2172.97515541 0 13656.94101212 0 4980.19278767 0 1218.70011160 0 1579
0.03850000 0.03847530 59624.79533096 0 1212.64140086 0 10077.62556246 0 6655.02726528 0 2826.85504908 0 1662
0.03950000 0.03950240 56542.60890052 0 1267.16979756 0 7187.74418473 0 8104.14947622 0 8847.30261800 0 1683
0.04050000 0.04050350 55549.83462796 0 1450.42612642 0 5581.69124893 0 4455.06330747 0 2460.06137508 0 1822
0.04150000 0.04152450 54156.21875033 0 1242.01322122 0 587.79948022 0 2692.87773302 0 10910.29924666 0 1887
0.04250000 0.04250150 51247.02593465 0 3384.98707983 0 1255.98535008 0 -1615.11290028 0 4052.36699503 0 1920
0.04350000 0.04349210 48961.23960850 0 3322.74759673 0 2331.89547545 0 -2787.60269673 0 10101.18596639 0 2005
0.04450000 0.04448520 46237.62993638 0 2472.83075431 0 3664.51958221 0 -5498.25189856 0 5253.44176629 0 2151
0.04550000 0.04548030 45619.61895919 0 -260.44138118 0 4738.93470103 0 -756.72285534 0 6550.27564112 0 2274
0.04650000 0.04648670 45100.41330193 0 -1052.34747331 0 1533.47205402 0 6.00996004 0 -1122.28567809 0 2311
0.04750000 0.04749250 46547.30986402 0 -1473.50318237 0 1880.25736973 0 1884.19159748 0 -749.17588244 0 2568
0.04850000 0.04851840 46063.84947608 0 87.81983197 0 -1223.64599792 0 -440.05461514 0 -10804.87318345 0 2493
0.04950000 0.04949480 46165.35255218 0 1402.51847301 0 2713.17834824 0 -2148.03215144 0 -7156.91107977 0 2644
0.05050000 0.05050630 43432.41313995 0 3056.80504109 0 1919.07133670 0 -3989.25074118 0 -9159.83767092 0 2829
0.05150000 0.05149060 41777.90175886 0 2567.52199607 0 6332.72408687 0 -2599.59157260 0 -4008.56217913 0 2784
0.05250000 0.05249300 40647.31710834 0 -496.07239806 0 5873.39737605 0 3623.44624444 0 -2418.17871046 0 3055
0.05350000 0.05348950 41158.20468406 0 -109.34500368 0 7477.01109064 0 3605.03405854 0 -1373.36022501 0 3009
0.05450000 0.05448610 41419.77462657 0 -293.89580588 0 4164.84094624 0 2376.63326535 0 1157.89943180 0 3336
0.05550000 0.05550870 41481.26098607 0 1707.12886717 0 6418.73754627 0 -1019.14821137 0 2685.41394094 0 3349
0.05650000 0.05647670 40055.49684735 0 2032.36585542 0 6178.64848730 0 -4692.48833221 0 5406.71927965 0 3324
0.05750000 0.05747970 38021.27628456 0 1465.64596751 0 7668.97892382 0 -1708.59015176 0 6338.55798460 0 3639
0.05850000 0.05849280 38296.89704049 0 491.81443956 0 8854.44043121 0 -1213.94531634 0 4771.21784993 0 3846
0.05950000 0.05951020 38115.81015721 0 -270.02853219 0 9885.61276667 0 330.69882044 0 1246.30714980 0 3787
0.06050000 0.06049470 38915.69486323 0 -235.03751052 0 11317.98640802 0 1420.55971743 0 2108.09411939 0 3930
0.06150000 0.06148310 38442.80068698 0 16.21508831 0 9329.70638477 0 -181.57922378 0 219.81092504 0 4083
0.06250000 0.06249100 38828.24260054 0 554.62382365 0 11156.84043914 0 1337.41262397 0 2032.39957737 0 4303
0.06350000 0.06350600 38801.60225831 0 958.48354344 0 10648.79674805 0 2431.57756613 0 4458.09828316 0 4470
0.06450000 0.06451750 36535.37466443 0 1243.84544729 0 9746.66708299 0 5137.88787677 0 2349.92547922 0 4479
0.06550000 0.06550280 35512.70026093 0 1058.61413609 0 7081.86849549 0 1599.81437464 0 5009.44096087 0 4636
0.06650000 0.06648880 34432.24891266 0 1157.06762365 0 8707.32279445 0 1147.38942337 0 4312.23959928 0 4653
0.06750000 0.06749660 33299.07891247 0 1596.67823308 0 8089.36802051 0 -210.43734640 0 7302.55619129 0 5220
0.06850000 0.06852730 31857.80267575 0 1503.42579462 0 9617.89418821 0 -2006.83833761 0 7878.22363718 0 5029
0.06950000 0.06949320 31488.65970574 0 1000.30775668 0 11641.15511654 0 -1986.02065245 0 6487.14814662 0 5040
0.07050000 0.07048030 30063.45759956 0 1229.36748915 0 12034.35307911 0 -1044.11594477 0 6680.50982049 0 5475
0.07150000 0.07148790 30090.32275480 0 865.98535264 0 13114.01758182 0 -1203.85121199 0 3985.59752969 0 5509
0.07250000 0.07249820 29318.65208212 0 278.41405763 0 12384.04972335 0 -462.33470896 0 2992.92442298 0 5916
0.07350000 0.07351270 28919.72138768 0 245.68915116 0 12399.11219533 0 790.00754622 0 2985.10093007 0 5721
0.07450000 0.07449140 28954.23018542 0 33.57447486 0 11197.81261106 0 1730.64430850 0 1058.53545153 0 6028
0.07550000 0.07549160 28270.91102749 0 217.39530920 0 10146.86797096 0 1439.35408545 0 1791.36630374 0 6183
0.07650000 0.07648840 28447.05202444 0 538.19561261 0 9763.84279730 0 1442.44526440 0 239.31682626 0 6330
0.07750000 0.07749960 27604.11562612 0 701.62792985 0 9389.12446453 0 489.53483559 0 885.57218654 0 6583
0.07850000 0.07848650 27299.38158481 0 730.89746029 0 9710.96677626 0 -402.29726934 0 1055.84556381 0 6549
0.07950000 0.07947320 26545.58354679 0 314.87423234 0 9765.98976159 0 171.32999844 0 3822.24839326 0 6828
0.08050000 0.08048110 26239.38822087 0 539.11172564 0 11032.66497052 0 -110.79246227 0 3061.21137617 0 7147
0.08150000 0.08149960 26284.68804332 0 605.03701812 0 9496.54012292 0 243.13639938 0 2245.07268920 0 7386
0.08250000 0.08250610 24875.89728721 0 1210.65180568 0 10332.59724299 0 -282.32805222 0 2066.60487754 0 7227
0.08350000 0.08350160 24131.20417628 0 1087.45989399 0 10470.34017705 0 -410.85702487 0 1794.72725831 0 7798
0.08450000 0.08449610 23243.08036202 0 454.40892613 0 10092.45198077 0 836.41232463 0 852.97429942 0 7371
0.08550000 0.08548940 22700.26933822 0 -80.88547453 0 8123.84309630 0 649.23525679 0 -1922.63462298 0 8256
0.08650000 0.08650700 22974.76602907 0 -140.40247202 0 8518.12016134 0 983.04998561 0 -1726.41782382 0 8037
0.08750000 0.08749060 22666.88460555 0 -36.16308431 0 7034.48915266 0 680.63151835 0 -3847.51737611 0 8155
0.08850000 0.08849210 22709.82389134 0 253.50477561 0 8217.14049737 0 390.31923192 0 -2127.21446628 0 8718
0.08950000 0.08949900 22144.98119211 0 452.89481047 0 6162.97902018 0 1403.06926489 0 -1770.30132427 0 8571
0.09050000 0.09049190 22092.26254018 0 390.24953988 0 7216.92491402 0 1110.33911449 0 -981.04240539 0 8932
0.09150000 0.09150830 21426.14157786 0 646.88483672 0 6498.97331118 0 766.38981497 0 80.28589822 0 9285
0.09250000 0.09250820 20814.53777159 0 838.61099592 0 7464.91615045 0 714.81883348 0 -31.12232690 0 9204
0.09350000 0.09350330 20101.54329572 0 786.81407735 0 7469.06395057 0 -625.05436894 0 1844.20860283 0 9349
0.09450000 0.09448040 19243.09479940 0 528.92319982 0 7238.19222521 0 559.17516313 0 940.22198226 0 9564
0.09550000 0.09549270 19636.85479450 0 10.65456320 0 7013.85131792 0 314.54375721 0 1539.06989809 0 10155
0.09650000 0.09649430 19172.84073233 0 -54.19724713 0 6768.25434010 0 430.60684820 0 -60.96906475 0 9913
0.09750000 0.09749140 19281.53782490 0 -11.95364521 0 6040.25359550 0 20.18056507 0 -788.71149919 0 10476
0.09850000 0.09850240 18836.74527547 0 188.07182364 0 5515.84351695 0 -39.09610731 0 -1437.85907891 0 10575
0.09950000 0.09950330 19289.51868692 0 273.69972871 0 6160.68592744 0 -605.74517911 0 -1128.12294801 0 10882
0.10050000 0.10051200 18955.55895370 0 132.81503278 0 6467.60065499 0 274.84065476 0 -1286.82969568 0 10875
0.10150000 0.10150300 18882.49472395 0 199.51255795 0 5879.79330632 0 522.73522159 0 -1222.10602877 0 11118
0.10250000 0.10250800 18926.22085529 0 95.51001076 0 5572.79989420 0 601.29500549 0 -963.07422520 0 11575
0.10350000 0.10349800 18540.32931570 0 286.68942470 0 5212.44711307 0 844.71017300 0 -1396.99931350 0 11364
0.10450000 0.10450100 18432.75628820 0 410.13987135 0 4248.98845762 0 547.69171435 0 -1903.81777366 0 12093
0.10550000 0.10551000 17837.90105152 0 552.38581009 0 4011.01264099 0 375.65805117 0 -2038.76178568 0 12067
0.10650000 0.10649700 17049.03218322 0 552.36220473 0 4030.86363018 0 -137.11458168 0 -947.02370002 0 12054
0.10750000 0.10749900 16758.12414230 0 778.68596280 0 4077.16387054 0 -455.74656356 0 -1626.60084533 0 12807
0.10850000 0.10850100 15952.61911092 0 614.08349382 0 3998.99638536 0 -292.85941788 0 -1174.87281440 0 12736
0.10950000 0.10950300 15778.27661808 0 282.80465581 0 4687.77849955 0 250.45181487 0 -461.67375869 0 12933
0.11050000 0.11050200 15501.08217105 0 169.97437596 0 4885.85000608 0 221.54198526 0 -733.49967093 0 13428
0.11150000 0.11150900 15677.78520054 0 -113.71829125 0 4543.13380594 0 822.34914650 0 -398.82390826 0 13453
0.11250000 0.11250000 15536.71503387 0 -97.55895657 0 4435.15611502 0 -9.25264048 0 -1152.59384465 0 13668
0.11350000 0.11349100 15784.23416297 0 -4.41556366 0 3725.00552379 0 -38.95110291 0 -1379.91352439 0 13791
0.11450000 0.11448600 15689.58788381 0 120.93029276 0 4208.66824344 0 -174.57967057 0 -1348.39473974 0 14205
0.11550000 0.11549300 15346.07359747 0 347.30350970 0 3429.64618518 0 -108.21475625 0 -1838.95921894 0 14776
0.11650000 0.11649800 15267.83866838 0 333.57417890 0 3955.82104590 0 -159.88251974 0 -1779.57486113 0 14553
0.11750000 0.11747300 14840.01950156 0 395.66191321 0 3943.17531383 0 -147.75722979 0 -1614.95553117 0 14568
0.11850000 0.11849100 14769.09099545 0 328.23149761 0 4856.59059223 0 -42.89555966 0 -1029.18049215 0 16015
0.11950000 0.11950300 14404.66909875 0 372.86250133 0 4571.28039538 0 250.32029926 0 -816.78614846 0 15270
0.12050000 0.12050700 14159.06088028 0 401.78694379 0 5611.47897337 0 -74.85610188 0 313.29492091 0 15999
0.12150000 0.12150000 13863.54417256 0 65.57784396 0 5099.13011305 0 612.58174289 0 222.80880659 0 15670
0.12250000 0.12250700 13868.71487190 0 -27.89907030 0 5413.21637578 0 768.55476430 0 836.35724544 0 16887
0.12350000 0.12352200 13703.81452567 0 -57.51604925 0 4056.90821792 0 663.25684451 0 -25.58001165 0 16407
0.12450000 0.12449800 13936.15877628 0 155.90670157 0 4498.08127781 0 708.11715751 0 787.84821721 0 16306
0.12550000 0.12549900 13453.26042088 0 288.62169256 0 3713.94472347 0 168.84244243 0 125.26019142 0 17523
0.12650000 0.12650100 13525.65021159 0 233.13334429 0 3802.85827075 0 -39.06924215 0 854.58396060 0 17154
0.12750000 0.12750600 13237.43992684 0 45.52137567 0 3879.53074939 0 63.98774151 0 972.86820418 0 18007
0.12850000 0.12850300 13412.34445222 0 -174.74378407 0 3815.69509389 0 275.55218795 0 1156.20209354 0 17496
0.12950000 0.12949900 13406.38690733 0 -279.64715702 0 3738.37065751 0 534.50643104 0 848.76692385 0 18405
0.13050000 0.13049000 13873.21113219 0 31.58398042 0 3635.94584805 0 170.04519206 0 868.29418230 0 18100
0.13150000 0.13148800 13693.24831399 0 281.71656082 0 3884.42043246 0 238.32540086 0 1275.34175064 0 19059
0.13250000 0.13249300 13216.53231648 0 378.07479108 0 3479.38606467 0 72.09371197 0 553.82910965 0 18957
0.13350000 0.13349100 13186.96940506 0 487.59245115 0 3741.86649989 0 -276.97637840 0 1272.90252943 0 19468
0.13450000 0.13450700 12695.86537463 0 282.85299060 0 3612.53157258 0 -93.04819584 0 502.32669613 0 19953
0.13550000 0.13551000 12597.06005470 0 291.00920677 0 4234.71283119 0 48.53623060 0 1622.80150538 0 19956
0.13650000 0.13649900 12402.37198404 0 134.73493592 0 3610.51949610 0 12.05076443 0 795.32100182 0 19723
0.13750000 0.13749600 12422.15552933 0 109.52417965 0 4364.11520240 0 460.01239052 0 1245.59898880 0 20946
0.13850000 0.13851100 12307.83811139 0 156.90149916 0 3814.15512474 0 -187.40750118 0 908.58741891 0 20955
0.13950000 0.13949800 12125.17753701 0 154.90066333 0 3949.06541481 0 126.59895292 0 501.68485497 0 20506
0.14050000 0.14048300 12059.64454325 0 -0.61723425 0 3384.97583918 0 142.17175045 0 528.62419851 0 21447
0.14150000 0.14148400 11973.76597167 0 16.69360281 0 3455.19618429 0 193.50555420 0 -90.49274630 0 21771
0.14250000 0.14249400 11831.23452040 0 -5.96675098 0 2869.28850559 0 144.75822418 0 -236.05591348 0 22470
0.14350000 0.14350900 11941.39289756 0 98.28824999 0 2646.36392030 0 343.54463610 0 -196.85077186 0 22519
0.14450000 0.14449900 11711.63399662 0 177.70569554 0 2621.64572934 0 -32.03518014 0 -295.84605878 0 22218
0.14550000 0.14550500 11737.26268029 0 219.06566990 0 2601.56992713 0 -71.14590030 0 -166.74268888 0 23559
0.14650000 0.14650700 11552.24156925 0 289.37931242 0 3084.50200449 0 -188.56416414 0 -246.74802046 0 23044
0.14750000 0.14750500 11397.57021520 0 296.06187928 0 3061.94201847 0 -257.30973588 0 483.33112046 0 23649
0.14850000 0.14849900 11075.70542216 0 273.05339130 0 3608.43997571 0 -56.85397493 0 242.81828896 0 23640
0.14950000 0.14949500 10974.91050706 0 234.39117311 0 3529.42944172 0 150.11102206 0 671.04099514 0 24457
0.15050000 0.15050000 10792.56467090 0 165.01837306 0 3762.80783220 0 515.25906479 0 622.49712090 0 24591
0.15150000 0.15149900 10583.91571203 0 176.17022265 0 3573.24549827 0 268.80330126 0 934.53758519 0 25020
0.15250000 0.15250500 10655.45121329 0 25.98658599 0 3522.65132933 0 535.36296863 0 1426.56222492 0 25297
0.15350000 0.15350100 10366.54400820 0 47.91327374 0 3419.46215562 0 410.02184452 0 1305.87135802 0 25452
0.15450000 0.15450400 10590.89615614 0 66.64469412 0 3277.57142144 0 136.15238198 0 1521.29842928 0 26061
0.15550000 0.15549900 10322.90780206 0 64.66240536 0 3249.46979462 0 63.43144170 0 1222.97155888 0 26128
0.15650000 0.15649500 10315.09554980 0 238.11632476 0 3290.57685434 0 -390.52605989 0 1215.19302858 0 26331
0.15750000 0.15749700 10041.00352238 0 166.59993261 0 3285.36119240 0 19.38394015 0 741.96725313 0 27345
0.15850000 0.15849900 9950.99963197 0 175.32267758 0 3318.52111206 0 -95.68311678 0 739.07503369 0 26980
0.15950000 0.15949700 9961.64452822 0 -19.95226745 0 3293.66803329 0 165.45338624 0 444.60033430 0 27777
0.16050000 0.16050000 9861.01822287 0 3.08234380 0 2770.67427673 0 322.52799142 0 -0.09664475 0 28224
0.16150000 0.16150500 9884.65731136 0 24.82610120 0 3072.85669033 0 88.08960758 0 -103.52290863 0 28075
0.16250000 0.16249700 9829.69052928 0 74.72481108 0 2457.85820754 0 27.63019394 0 -298.51009301 0 28590
0.16350000 0.16349900 9776.02766270 0 127.90736467 0 2641.53044048 0 -58.46936884 0 -23.91875588 0 29163
0.16450000 0.16449100 9673.77146300 0 137.45629746 0 2742.38155884 0 -295.05246884 0 -502.21091742 0 28996
0.16550000 0.16550500 9605.30465939 0 157.85920261 0 2854.63069704 0 -112.58972992 0 -137.81262609 0 30777
0.16650000 0.16650700 9544.93112432 0 181.28584279 0 2995.13883118 0 -138.56574969 0 -678.45757650 0 29211
0.16750000 0.16749900 9396.36344361 0 193.71800250 0 2654.32230101 0 -111.21106410 0 -588.95839131 0 30922
0.16850000 0.16850800 9256.66463632 0 237.91511711 0 3228.97808833 0 -333.95860915 0 -763.19522203 0 30867
0.16950000 0.16949900 9144.07827860 0 136.65483907 0 3014.97857972 0 25.72130663 0 -465.79120906 0 30852
0.17050000 0.17049200 8998.63549879 0 123.53250340 0 3179.39557796 0 25.72737658 0 -772.08657676 0 31257
0.17150000 0.17149500 8997.43274916 0 102.73774918 0 2962.02387412 0 277.54965159 0 -565.60256722 0 32608
0.17250000 0.17250900 8860.34177285 0 90.99666468 0 2992.93566363 0 412.76343923 0 -184.73335037 0 32361
0.17350000 0.17350400 8813.51322190 0 133.10841376 0 2514.65721568 0 509.69494268 0 -374.86221310 0 32508
0.17450000 0.17449800 8784.59102757 0 22.62574382 0 2773.63056787 0 410.57938080 0 277.67329875 0 32791
0.17550000 0.17549800 8658.45968572 0 -1.31550460 0 2131.37350706 0 379.32699957 0 -24.29857747 0 33633
0.17650000 0.17650100 8732.85031226 0 46.24538599 0 2518.64764669 0 272.15751143 0 522.26536239 0 33984
0.17750000 0.17750300 8651.82770179 0 51.55749271 0 1995.18178280 0 80.40583596 0 406.99923354 0 34069
