### header ###
fiducial parameters:
Omega_m = 0.31
Omega_nu = 0
Omega_de = 0.69
Omega_k = 0
H_0 = 100
w_de = -1
zeff = 0
beta = 0
fgrowth = 0
b_1 = 2
gamma = 0.55
Lx = 3500 Ly = 3500 Lz = 3500
nx = 700 ny = 700 nz = 700
xoffset = 857.220397 yoffset = 15.9954215 zoffset = 262.898189
bins = 400 dk = 0.001
kx_ny = 0.628318531 ky_ny = 0.628318531 kz_ny = 0.628318531
############################
A(data) = 3.09052868 (not used)
A(ran) = 3.08797079 (used)
Ngal = 188234
weighted Ngal = 0
Nran = 9360983
weighted Nran = 0
SN(data) = 3454.69609
SN(ran) = 69.3442187
SN(data+ran) = 3524.0403
############################
13 columns: k_central k_mean P_0(k) sigma^{lin}_{P_0(k)} P^img_1(k) sigma^{lin}_{P_1(k)} P_2(k) sigma^{lin}_{P_2(k)} P^img_3(k) sigma^{lin}_{P_3(k)} P_4(k) sigma^{lin}_{P_4(k)} N_modes
### header ###
0.00050000 0 0 0 0 0 0 0 0 0 0 0 0
0.00150000 0.00179520 53028.21944948 0 -53523.70733370 0 -25070.13573184 0 89518.96873051 0 -36641.37400083 0 3
0.00250000 0.00253879 96857.42756024 0 -56410.41884793 0 -8625.69318884 0 -62397.75145979 0 73867.14943316 0 6
0.00350000 0.00331552 111993.07617603 0 -23405.95739111 0 -16914.81881349 0 -49846.21604055 0 -12817.60162204 0 7
0.00450000 0.00420575 123209.89672747 0 6548.10619553 0 -2471.35822906 0 -49951.42853139 0 36507.61025713 0 24
0.00550000 0.00557378 99973.44834938 0 9663.75604319 0 15289.75793731 0 6426.59476113 0 54641.59004890 0 45
0.00650000 0.00659388 104227.24780551 0 -4504.55589264 0 6770.92961497 0 72590.88594916 0 4575.31578899 0 40
0.00750000 0.00754703 93738.48420191 0 -11645.76378334 0 12026.59703010 0 38356.47248936 0 -11162.68557752 0 57
0.00850000 0.00846663 119646.61044574 0 -10263.20870603 0 -8814.14269834 0 43071.02621895 0 9897.98872313 0 75
0.00950000 0.00948925 109212.70121771 0 630.42852405 0 3439.13329440 0 -8096.50583372 0 25579.11239694 0 112
0.01050000 0.01054430 113917.25076816 0 9972.57044073 0 -5817.87980209 0 -13889.95970178 0 38669.41220571 0 105
0.01150000 0.01145670 105409.20222987 0 9347.68018529 0 20845.67437412 0 -14671.52214710 0 51054.81080715 0 144
0.01250000 0.01249090 101512.96787349 0 10864.97694291 0 26367.53163921 0 -9259.40735510 0 28560.47019032 0 169
0.01350000 0.01339930 99747.84848921 0 10652.14646197 0 65848.96845373 0 -3940.28646659 0 31626.91970973 0 180
0.01450000 0.01448870 87842.42567398 0 8006.58062788 0 50775.48063648 0 3510.18544767 0 21412.65279699 0 267
0.01550000 0.01550050 84861.51750663 0 2523.45864520 0 74473.47013359 0 7908.15749008 0 7574.74854874 0 238
0.01650000 0.01653350 77879.27489857 0 4550.73248584 0 53034.73902690 0 17391.75962400 0 5756.77562472 0 315
0.01750000 0.01747870 79023.01111045 0 114.74905892 0 54448.81288886 0 15164.42468166 0 -1597.31895018 0 297
0.01850000 0.01844180 70817.67329635 0 2068.60571337 0 37040.97913431 0 11457.14566407 0 -2702.87067152 0 388
0.01950000 0.01947590 70532.04836127 0 518.67734668 0 14398.71155386 0 15871.12439312 0 -7069.66114880 0 399
0.02050000 0.02045430 68308.76005319 0 -2798.59605315 0 1285.31220784 0 14484.14049942 0 -2046.00076475 0 462
0.02150000 0.02154770 70546.77361373 0 -4053.97440808 0 -12669.00021938 0 8421.52924961 0 -3693.49797979 0 571
0.02250000 0.02255340 73821.39998468 0 -3799.29498447 0 -14313.95704735 0 1914.36150404 0 -5542.54006244 0 510
0.02350000 0.02348930 73774.63887764 0 448.71890873 0 -17679.63268922 0 -5679.08024687 0 -4085.29086102 0 555
0.02450000 0.02439640 76144.39286475 0 5168.96827604 0 -5941.56068209 0 -13649.18496312 0 -3161.88264412 0 592
0.02550000 0.02547300 69282.31281300 0 7181.40445771 0 13259.13438276 0 -18418.70547479 0 -437.97509476 0 837
0.02650000 0.02652900 67446.48973561 0 7490.65724063 0 23486.32804384 0 -8977.03096809 0 -946.33352407 0 723
0.02750000 0.02749970 60361.61998638 0 7669.66460352 0 34619.63056035 0 -7584.96630026 0 733.51765597 0 826
0.02850000 0.02848090 56308.24133278 0 2929.53839351 0 27189.67283367 0 5033.70952580 0 -3487.92895922 0 831
0.02950000 0.02946900 57218.73404199 0 152.80990230 0 36066.30230943 0 9583.26174331 0 5086.41693707 0 996
0.03050000 0.03053250 55216.32452077 0 -2049.50784778 0 21066.21594146 0 10777.56964283 0 -6354.77824361 0 1041
0.03150000 0.03150510 58064.03097696 0 -2083.33096583 0 16610.64680471 0 12932.03144648 0 -4546.21374424 0 1036
0.03250000 0.03246190 56348.93248843 0 -598.66469322 0 7729.03772068 0 2389.15535027 0 -10759.09001302 0 1059
0.03350000 0.03345080 57857.54022304 0 309.69116829 0 3182.27318455 0 3238.39775365 0 -9639.24018395 0 1302
0.03450000 0.03451200 56065.10605747 0 352.35730627 0 5067.92606662 0 -3190.62498804 0 -8253.87494396 0 1339
0.03550000 0.03553350 56132.21274234 0 1128.53885209 0 -170.43074638 0 -4109.79547961 0 -15196.68534926 0 1365
0.03650000 0.03647120 56074.21098456 0 1647.91311912 0 11197.11569071 0 -5524.02671068 0 -15812.67300931 0 1308
0.03750000 0.03744890 53398.48648456 0 2176.25742542 0 2194.01765358 0 -2173.57090990 0 -12779.49581606 0 1579
0.03850000 0.03847530 53027.43260393 0 2386.07541197 0 5312.64627369 0 747.39311523 0 -12921.01560877 0 1662
0.03950000 0.03950240 49874.99210642 0 1238.75343251 0 4891.58273795 0 2671.64414379 0 -4900.64270244 0 1683
0.04050000 0.04050350 48799.37423797 0 2376.40845234 0 5024.75072716 0 7580.59368712 0 -6395.50312121 0 1822
0.04150000 0.04152450 46351.38532178 0 2338.26892441 0 4917.33506878 0 5203.71312745 0 1486.49737462 0 1887
0.04250000 0.04250150 44487.79783709 0 3290.95903646 0 3369.12652165 0 1574.37678203 0 4450.81434149 0 1920
0.04350000 0.04349210 42164.24292448 0 1321.60826905 0 8769.75336861 0 2317.74349618 0 8448.94519674 0 2005
0.04450000 0.04448520 42343.64371015 0 -69.67461152 0 4548.27078333 0 -509.78149569 0 6010.84805319 0 2151
0.04550000 0.04548030 41540.61162193 0 -654.26095173 0 4591.51356669 0 792.74127248 0 4532.82612922 0 2274
0.04650000 0.04648670 43337.42964128 0 140.02703429 0 4893.88707135 0 -2913.40805971 0 2684.07630350 0 2311
0.04750000 0.04749250 40841.44314646 0 1694.33700663 0 2673.37520400 0 869.62282722 0 -1400.03428920 0 2568
0.04850000 0.04851840 39102.73929139 0 1897.34315884 0 1076.19114164 0 -331.77904698 0 -1285.55950215 0 2493
0.04950000 0.04949480 38572.51779641 0 1490.01569830 0 2604.26768331 0 -903.58083308 0 -1578.47961955 0 2644
0.05050000 0.05050630 37530.50947365 0 696.44823799 0 1984.76169957 0 1574.05080316 0 597.56310945 0 2829
0.05150000 0.05149060 36479.39622379 0 374.11583389 0 8951.99803891 0 1993.74297951 0 6952.75838120 0 2784
0.05250000 0.05249300 37952.93312812 0 571.26335893 0 6471.91706488 0 -798.56954988 0 5202.56658108 0 3055
0.05350000 0.05348950 36288.19275486 0 20.47360883 0 10774.47846388 0 -164.75421776 0 8232.09056284 0 3009
0.05450000 0.05448610 36198.71717504 0 978.47166857 0 12106.40565029 0 -1665.93188224 0 11747.37926594 0 3336
0.05550000 0.05550870 36399.92482312 0 305.62879712 0 12747.12274196 0 1486.37372746 0 10610.44364776 0 3349
0.05650000 0.05647670 35350.27285786 0 135.62856766 0 13261.83213893 0 398.61033590 0 8220.59137714 0 3324
0.05750000 0.05747970 36427.12719789 0 -143.59706496 0 11436.91249275 0 298.80684619 0 6548.82559718 0 3639
0.05850000 0.05849280 35014.17740101 0 -110.90599284 0 12135.29412267 0 -344.08755953 0 2596.60155951 0 3846
0.05950000 0.05951020 36974.99651452 0 342.88031364 0 10209.42219228 0 -2169.44559108 0 2922.97385348 0 3787
0.06050000 0.06049470 35731.55573066 0 637.23136587 0 13684.93023245 0 -2511.67844324 0 -1019.73834553 0 3930
0.06150000 0.06148310 36989.94657999 0 1169.84824353 0 13382.33191477 0 -3948.46966032 0 48.17349481 0 4083
0.06250000 0.06249100 35657.47984234 0 1074.76582712 0 16969.56078255 0 -1434.12718286 0 -1773.11148696 0 4303
0.06350000 0.06350600 35320.93475946 0 151.18000794 0 16700.79682357 0 -109.56981669 0 -862.20062554 0 4470
0.06450000 0.06451750 35472.90835734 0 399.28477494 0 17391.75962400 0 3238.09425608 0 -1033.96451310 0 4479
0.06550000 0.06550280 35198.97369903 0 107.67430576 0 15006.49353889 0 3179.09208039 0 -973.08964500 0 4636
0.06650000 0.06648880 34980.00582279 0 148.44852981 0 12632.91773053 0 2872.24479674 0 -1685.04098848 0 4653
0.06750000 0.06749660 34858.60679489 0 236.61794602 0 12674.62054474 0 2853.41670676 0 -1603.96217476 0 5220
0.06850000 0.06852730 33172.39677874 0 887.61348871 0 10240.72740457 0 771.90897448 0 -2114.00670168 0 5029
0.06950000 0.06949320 32732.10048960 0 1070.32239789 0 8870.42463655 0 -75.81863881 0 -3935.37430222 0 5040
0.07050000 0.07048030 31579.25935063 0 982.13612071 0 10300.38153799 0 -625.48938212 0 -2779.29585584 0 5475
0.07150000 0.07148790 30850.19074422 0 533.48128369 0 7067.98629184 0 -180.18425902 0 -6519.94836545 0 5509
0.07250000 0.07249820 30332.44637155 0 142.70006103 0 8439.70538184 0 705.71615452 0 -3834.86040338 0 5916
0.07350000 0.07351270 30020.74312678 0 371.12582079 0 7614.49548973 0 -616.02812640 0 -7309.73896711 0 5721
0.07450000 0.07449140 29377.10346592 0 1149.44646245 0 7496.99696764 0 762.37690266 0 -5484.61698922 0 6028
0.07550000 0.07549160 28519.55422166 0 1605.22112764 0 7375.65414300 0 723.92263651 0 -4438.56203219 0 6183
0.07650000 0.07648840 26468.80990229 0 1418.28910598 0 7806.91294894 0 888.97023526 0 -3674.93966544 0 6330
0.07750000 0.07749960 26178.01426788 0 1331.81477991 0 7656.05217548 0 658.82802812 0 -2849.76349527 0 6583
0.07850000 0.07848650 24741.79632398 0 431.15314383 0 8111.50086180 0 825.69886042 0 -3426.22902736 0 6549
0.07950000 0.07947320 24366.35858957 0 706.22198380 0 9192.64913041 0 -1150.60424947 0 -1261.77428520 0 6828
0.08050000 0.08048110 24270.81305836 0 479.54751742 0 9373.36507221 0 -788.60920927 0 -2385.09747536 0 7147
0.08150000 0.08149960 24199.32251971 0 381.32446320 0 10562.53599434 0 -932.80540091 0 -1021.07710704 0 7386
0.08250000 0.08250610 24133.56471293 0 283.91523210 0 11607.54557085 0 -1028.66229815 0 -496.54338133 0 7227
0.08350000 0.08350160 24171.67051891 0 241.18165021 0 12666.86449574 0 33.79524124 0 144.12649961 0 7798
0.08450000 0.08449610 24526.31304947 0 159.42165306 0 13015.21226189 0 1510.93454931 0 2245.03896725 0 7371
0.08550000 0.08548940 23698.55152964 0 379.93511877 0 12125.28994352 0 1222.87039302 0 1660.73870160 0 8256
0.08650000 0.08650700 23381.11555300 0 580.91795384 0 13361.19949139 0 1781.17103353 0 3880.93583073 0 8037
0.08750000 0.08749060 22518.39560939 0 672.30781648 0 11685.10606089 0 1797.27888603 0 2626.29935874 0 8155
0.08850000 0.08849210 22033.36153035 0 577.31757341 0 11295.39270005 0 1267.90043985 0 4347.60268648 0 8718
0.08950000 0.08949900 21547.65301227 0 729.54408594 0 9886.20852116 0 1075.73814341 0 3394.23813538 0 8571
0.09050000 0.09049190 20846.23640665 0 283.25877810 0 9349.78218698 0 144.48620043 0 3201.89936072 0 8932
0.09150000 0.09150830 20571.73971580 0 347.40130336 0 8004.42242294 0 349.58198960 0 1665.80823508 0 9285
0.09250000 0.09250820 20184.16207860 0 209.78876085 0 8322.06073129 0 915.13622203 0 1032.92587697 0 9204
0.09350000 0.09350330 20135.04043490 0 73.81072137 0 6404.87782392 0 671.20623271 0 -80.34738458 0 9349
0.09450000 0.09448040 19583.23689052 0 39.33025006 0 5888.14510981 0 1442.67007742 0 -457.14490051 0 9564
0.09550000 0.09549270 19465.65968387 0 94.20553324 0 5843.36235730 0 805.74220911 0 -607.23681346 0 10155
0.09650000 0.09649430 19482.07103394 0 436.25639926 0 4967.83931251 0 -139.89327054 0 -1612.22405304 0 9913
0.09750000 0.09749140 19034.01869580 0 716.80505646 0 6567.67616845 0 -757.90649586 0 278.78387504 0 10476
0.09850000 0.09850240 18265.04577929 0 834.81502816 0 6313.89599690 0 -471.71503199 0 114.62428770 0 10575
0.09950000 0.09950330 17837.90105152 0 954.32450267 0 8036.16602060 0 -659.88127710 0 1036.79378489 0 10882
0.10050000 0.10051200 17201.00578110 0 677.83484445 0 8234.58598730 0 -388.25207625 0 899.68369947 0 10875
0.10150000 0.10150300 17060.38524045 0 324.50522189 0 8594.65775217 0 619.43067138 0 884.59537399 0 11118
0.10250000 0.10250800 16527.91561533 0 7.34837308 0 8283.78631555 0 503.05171810 0 861.69030000 0 11575
0.10350000 0.10349800 16870.98027564 0 -336.60353427 0 7401.12545755 0 778.09920084 0 -440.50986150 0 11364
0.10450000 0.10450100 16996.87556382 0 -124.84878360 0 6999.80050450 0 683.71820104 0 -1161.67629045 0 12093
0.10550000 0.10551000 16837.82035598 0 119.98158184 0 5843.45228251 0 237.48460019 0 -2339.28058298 0 12067
0.10650000 0.10649700 16661.45454601 0 252.01538939 0 5587.63755317 0 -92.94658036 0 -2068.17856865 0 12054
0.10750000 0.10749900 16405.50492887 0 408.69881993 0 5311.83694683 0 191.43390227 0 -2853.46166936 0 12807
0.10850000 0.10850100 16106.05399339 0 138.22290984 0 5634.76960168 0 166.06712577 0 -2465.33324027 0 12736
0.10950000 0.10950300 16261.28737999 0 -11.21594378 0 5170.57568910 0 593.85257064 0 -2239.51980774 0 12933
0.11050000 0.11050200 16238.58126551 0 -1.01184966 0 5474.19690599 0 388.39370845 0 -1542.14983639 0 13428
0.11150000 0.11150900 16282.19499035 0 2.51599485 0 5220.79891656 0 95.19808270 0 -1333.00628889 0 13453
0.11250000 0.11250000 16406.17936791 0 198.84935956 0 5934.73760709 0 -232.07672312 0 -1365.46928820 0 13668
0.11350000 0.11349100 16205.30893935 0 402.12303925 0 5805.09918221 0 -398.12698792 0 -729.72730854 0 13791
0.11450000 0.11448600 15676.77354198 0 485.12063205 0 5988.68148995 0 144.84702532 0 -816.71196016 0 14205
0.11550000 0.11549300 15284.92445749 0 447.62968967 0 5705.83299561 0 264.90616765 0 -389.74595873 0 14776
0.11650000 0.11649800 14776.50982493 0 400.32453513 0 5463.00121786 0 993.99388317 0 -286.38817526 0 14553
0.11750000 0.11747300 14415.01049742 0 292.92910992 0 4736.25942615 0 1537.10278421 0 53.45390289 0 14568
0.11850000 0.11849100 14166.03008373 0 93.41430383 0 3727.32109784 0 1338.22195083 0 545.60657364 0 16015
0.11950000 0.11950300 14044.63105584 0 -36.98623717 0 3344.75679086 0 910.64220987 0 326.01034502 0 15270
0.12050000 0.12050700 14027.65767323 0 -165.75913194 0 3420.00170686 0 61.14014746 0 1034.84802825 0 15999
0.12150000 0.12150000 14251.45902929 0 -68.04741492 0 3655.59450553 0 -69.43687176 0 417.17427058 0 15670
0.12250000 0.12250700 14521.45945985 0 -84.01397244 0 3802.28499757 0 -1128.42644558 0 1400.34902742 0 16887
0.12350000 0.12352200 14581.82175427 0 196.74848194 0 4573.29247186 0 -936.87451648 0 922.17624158 0 16407
0.12450000 0.12449800 14567.99575387 0 285.62156288 0 5281.59959637 0 -822.50876374 0 1153.74039103 0 16306
0.12550000 0.12549900 14201.88775956 0 408.46276626 0 5681.21597051 0 124.47109774 0 1134.05801160 0 17523
0.12650000 0.12650100 14136.91679834 0 377.24972731 0 6421.83996587 0 292.07032420 0 2052.91376495 0 17154
0.12750000 0.12750600 13651.65790628 0 377.90618132 0 6169.15013744 0 495.47551951 0 2344.09158149 0 18007
0.12850000 0.12850300 13438.87238794 0 274.97329444 0 6403.94484991 0 771.87750066 0 2416.41392829 0 17496
0.12950000 0.12949900 13225.97446310 0 102.92928987 0 5889.74128222 0 872.28348925 0 3092.32549740 0 18405
0.13050000 0.13049000 13191.46566535 0 41.23924978 0 5896.26085964 0 779.84037763 0 3512.47854042 0 18100
0.13150000 0.13148800 13128.85524078 0 203.06460359 0 5487.60700231 0 605.20900007 0 3317.26215917 0 19059
0.13250000 0.13249300 12827.94302071 0 332.41976407 0 5442.63315874 0 184.43996939 0 2488.69131249 0 18957
0.13350000 0.13349100 12412.15135018 0 284.95948855 0 4914.39001829 0 -64.31338316 0 2337.06617478 0 19468
0.13450000 0.13450700 12200.82711643 0 119.37009044 0 4476.19573084 0 299.70834638 0 2213.52018260 0 19953
0.13550000 0.13551000 12080.32734060 0 -64.18557696 0 4584.10597786 0 384.83604249 0 1957.78413782 0 19956
0.13650000 0.13649900 12341.11043756 0 -98.81453726 0 4244.18869975 0 279.12446676 0 1539.42959891 0 19723
0.13750000 0.13749600 12366.62671471 0 -18.29618238 0 4375.92912632 0 260.33909126 0 1201.62556314 0 20946
0.13850000 0.13851100 12337.51342932 0 140.10571884 0 4034.34823191 0 197.72417042 0 1875.30024275 0 20955
0.13950000 0.13949800 12244.89046730 0 77.12064338 0 4134.14272910 0 598.03858897 0 2144.37893995 0 20506
0.14050000 0.14048300 12100.44810540 0 115.71575489 0 3708.02090054 0 629.53264419 0 2375.13825881 0 21447
0.14150000 0.14148400 11968.14564630 0 122.26680613 0 3218.53552380 0 803.85827605 0 2015.80837689 0 21771
0.14250000 0.14249400 11802.90808056 0 114.64002461 0 2802.08065487 0 519.55299337 0 1898.46722391 0 22470
0.14350000 0.14350900 11625.86783154 0 134.24259542 0 2036.98576287 0 340.14771145 0 1497.27715867 0 22519
0.14450000 0.14449900 11371.04227947 0 104.27400891 0 2045.95580215 0 -236.29871154 0 1093.00265887 0 22218
0.14550000 0.14550500 11306.18372475 0 186.17889806 0 1849.54791193 0 -466.84558209 0 796.48665730 0 23559
0.14650000 0.14650700 11346.98728691 0 142.66521501 0 2344.00165628 0 -673.19920008 0 236.24250828 0 23044
0.14750000 0.14750500 11287.86146406 0 185.21894648 0 2806.41954605 0 -746.90414693 0 689.43069974 0 23649
0.14850000 0.14849900 11243.23608066 0 120.93478902 0 3281.30331749 0 -523.91436586 0 -4.29048894 0 23640
0.14950000 0.14949500 11276.17118730 0 147.21093417 0 3792.49439078 0 -274.48994646 0 606.50729523 0 24457
0.15050000 0.15050000 11175.64604781 0 90.30693835 0 3688.55209347 0 -59.20248408 0 -212.43481003 0 24591
0.15150000 0.15149900 11100.23252206 0 188.96208318 0 3939.15116087 0 -44.32256027 0 93.39126050 0 25020
0.15250000 0.15250500 10860.73921759 0 142.77087713 0 3967.34271290 0 290.67311132 0 -239.30108935 0 25297
0.15350000 0.15350100 10759.14621628 0 227.03978753 0 3471.86606933 0 223.81934110 0 -231.09091805 0 25452
0.15450000 0.15450400 10413.54116890 0 184.14209214 0 3093.07862100 0 553.90217388 0 -625.83109790 0 26061
0.15550000 0.15549900 10308.91319190 0 309.68442390 0 2870.52497717 0 312.44962398 0 -422.05158893 0 26128
0.15650000 0.15649500 10084.68469112 0 165.93336203 0 2621.56704478 0 377.48016065 0 -505.50330402 0 26331
0.15750000 0.15749700 9838.60436531 0 160.76940708 0 2474.52809257 0 254.58050589 0 -346.10300820 0 27345
0.15850000 0.15849900 9856.47699998 0 96.40251843 0 2398.21531476 0 164.05055303 0 -288.79030232 0 26980
0.15950000 0.15949700 9730.77280285 0 69.62548988 0 2384.85018104 0 -51.65753450 0 -260.30199711 0 27777
0.16050000 0.16050000 9720.27403507 0 102.31487590 0 2286.01113916 0 -30.00163402 0 -284.75490871 0 28224
0.16150000 0.16150500 9593.77175174 0 82.78255915 0 2383.02919562 0 -31.40424242 0 -399.85355187 0 28075
0.16250000 0.16249700 9563.44447607 0 171.62562756 0 2092.22232056 0 -16.71428560 0 -534.29173461 0 28590
0.16350000 0.16349900 9463.40268456 0 119.79723517 0 2480.24958379 0 -267.61291634 0 -474.80396281 0 29163
0.16450000 0.16449100 9255.85530947 0 196.15609965 0 2004.99487089 0 -155.41436107 0 -753.98575689 0 28996
0.16550000 0.16550500 9278.69631175 0 166.62353798 0 2673.62249832 0 -159.31149468 0 -568.49029039 0 30777
0.16650000 0.16650700 9142.94297288 0 182.30536982 0 2540.31962130 0 -231.87101921 0 -698.73121415 0 29211
0.16750000 0.16749900 9042.23798298 0 187.18943256 0 2834.66730134 0 1.93055928 0 -172.05502041 0 30922
0.16850000 0.16850800 8834.76929243 0 146.56347269 0 2628.16530676 0 293.63052653 0 -321.77486783 0 30867
0.16950000 0.16949900 8808.70222339 0 117.96500910 0 2890.63450133 0 481.59781211 0 411.59890782 0 30852
0.17050000 0.17049200 8676.86063097 0 17.33409509 0 2297.18434599 0 870.06683292 0 281.22534438 0 31257
0.17150000 0.17149500 8529.51818118 0 8.46376037 0 2029.00490085 0 702.85203671 0 384.98779128 0 32608
0.17250000 0.17250900 8708.79531969 0 -1.12056586 0 1587.24732712 0 559.33253224 0 642.30427155 0 32361
0.17350000 0.17350400 8432.09546130 0 6.87112878 0 1484.59770464 0 171.99994123 0 -23.71687379 0 32508
0.17450000 0.17449800 8534.85749028 0 117.04327574 0 1604.46800404 0 -194.18448951 0 671.50523402 0 32791
0.17550000 0.17549800 8323.27472157 0 181.50166329 0 1609.67242533 0 -437.14778286 0 52.41762730 0 33633
0.17650000 0.17650100 8298.93871274 0 245.12037423 0 1934.57219406 0 -386.76269003 0 632.86774526 0 33984
0.17750000 0.17750300 8178.28156779 0 123.72022227 0 2261.12433844 0 -148.08770493 0 577.37040447 0 34069
