### header ###
fiducial parameters:
Omega_m = 0.31
Omega_nu = 0
Omega_de = 0.69
Omega_k = 0
H_0 = 100
w_de = -1
zeff = 0
beta = 0
fgrowth = 0
b_1 = 2
gamma = 0.55
Lx = 3500 Ly = 3500 Lz = 3500
nx = 700 ny = 700 nz = 700
xoffset = 857.220397 yoffset = 15.9954215 zoffset = 262.898189
bins = 400 dk = 0.001
kx_ny = 0.628318531 ky_ny = 0.628318531 kz_ny = 0.628318531
############################
A(data) = 3.0830001 (not used)
A(ran) = 3.08054852 (used)
Ngal = 187953
weighted Ngal = 0
Nran = 9360983
weighted Nran = 0
SN(data) = 3448.55899
SN(ran) = 69.1775424
SN(data+ran) = 3517.73653
############################
13 columns: k_central k_mean P_0(k) sigma^{lin}_{P_0(k)} P^img_1(k) sigma^{lin}_{P_1(k)} P_2(k) sigma^{lin}_{P_2(k)} P^img_3(k) sigma^{lin}_{P_3(k)} P_4(k) sigma^{lin}_{P_4(k)} N_modes
### header ###
0.00050000 0 0 0 0 0 0 0 0 0 0 0 0
0.00150000 0.00179520 1078.17511649 0 -3564.50027200 0 9549.67467893 0 -22621.02275057 0 -11470.18481892 0 3
0.00250000 0.00253879 3933.05872817 0 -2328.96166560 0 -6180.28962231 0 13259.13438276 0 3340.50782489 0 6
0.00350000 0.00331552 7198.51272813 0 -2750.91321274 0 2045.40501026 0 -4298.30119237 0 -7726.80083118 0 7
0.00450000 0.00420575 10107.24467713 0 -2496.03145742 0 -4313.94817819 0 7498.99780347 0 689.57233194 0 24
0.00550000 0.00557378 14384.21111442 0 -5103.82870506 0 -6074.16663876 0 8350.58950285 0 -4312.64426271 0 45
0.00650000 0.00659388 20073.21685588 0 -9094.56321213 0 -9015.77749116 0 -5822.19621197 0 -5073.04056271 0 40
0.00750000 0.00754703 27660.54369279 0 -14940.73573211 0 -10785.03343491 0 1407.08217720 0 -1727.37327913 0 57
0.00850000 0.00846663 40466.56744458 0 -15398.34262337 0 -11295.50510656 0 -7337.63826222 0 2470.40277375 0 75
0.00950000 0.00948925 51312.67133492 0 -15542.22295273 0 -16867.94529994 0 -5576.41938374 0 -7403.00264622 0 112
0.01050000 0.01054430 71054.28899423 0 -8886.37511994 0 -8156.49718668 0 -21847.77838678 0 4849.03687494 0 105
0.01150000 0.01145670 68952.17490103 0 82.25008953 0 -2373.29479209 0 -17471.90546372 0 -12806.13615830 0 144
0.01250000 0.01249090 73920.20530461 0 9820.87785911 0 10106.88497631 0 -42175.82079474 0 -15661.82347650 0 169
0.01350000 0.01339930 63952.55826890 0 7562.77725572 0 21517.75288132 0 -39078.23467280 0 -45898.38709732 0 180
0.01450000 0.01448870 65820.07998135 0 5959.27594764 0 34673.36087084 0 -29389.35577522 0 -31119.40432923 0 267
0.01550000 0.01550050 65490.05447589 0 -967.85374989 0 35589.13668590 0 -17223.48708256 0 -76575.24700727 0 238
0.01650000 0.01653350 71500.43042175 0 -7590.42925651 0 43100.13950435 0 -2009.44616858 0 -57903.73929754 0 315
0.01750000 0.01747870 82573.14583082 0 -10977.50709738 0 41546.00713428 0 -1517.03822265 0 -73086.59864640 0 297
0.01850000 0.01844180 88045.54423269 0 -2116.88430826 0 42968.73629730 0 -1120.55236975 0 -48100.99260806 0 388
0.01950000 0.01947590 89183.99733873 0 -538.76663767 0 34339.62595064 0 11273.58583763 0 -53522.69567514 0 399
0.02050000 0.02045430 89016.96126886 0 5906.95071849 0 39353.18098968 0 -2544.48990272 0 -30075.82231536 0 462
0.02150000 0.02154770 84905.58085750 0 6875.33277896 0 37645.61373713 0 8012.49321016 0 -13891.30857987 0 571
0.02250000 0.02255340 83135.51558689 0 4557.07221285 0 56041.72550395 0 3735.67290133 0 -11671.84209303 0 510
0.02350000 0.02348930 77549.81142564 0 3414.83100752 0 32511.89614178 0 5689.03946341 0 -11585.17667590 0 555
0.02450000 0.02439640 75658.00990762 0 4451.55622444 0 45557.34575414 0 4148.13733926 0 -11213.42587492 0 592
0.02550000 0.02547300 65673.61430232 0 5719.09696347 0 29580.33443114 0 6806.05664850 0 -15251.31491181 0 837
0.02650000 0.02652900 62935.27937775 0 5051.03136857 0 27869.95701591 0 9525.66464896 0 -30612.90060729 0 723
0.02750000 0.02749970 55817.47452187 0 2816.65977887 0 10749.40057209 0 3504.28410604 0 -25527.85502960 0 826
0.02850000 0.02848090 55830.28886370 0 2576.66064511 0 13325.45422207 0 6891.99142334 0 -35848.79571778 0 831
0.02950000 0.02946900 52604.89654295 0 -792.74914093 0 6252.34219350 0 1238.39373168 0 -24715.26838826 0 996
0.03050000 0.03053250 53199.41456011 0 4.25224825 0 12074.48220222 0 1336.44592801 0 -19162.72414667 0 1041
0.03150000 0.03150510 56766.29785007 0 -2339.50539599 0 14392.86641548 0 -1400.93354125 0 -8105.45339171 0 1036
0.03250000 0.03246190 59449.89080559 0 -1993.77670146 0 26529.84663576 0 5813.95681499 0 2709.46893350 0 1059
0.03350000 0.03345080 63450.21358773 0 -3061.14393227 0 23413.37622060 0 6028.79937241 0 11071.92856352 0 1302
0.03450000 0.03451200 67060.03616348 0 -2172.48056678 0 31334.21316470 0 4888.50279965 0 18105.76575844 0 1339
0.03550000 0.03553350 67132.87558022 0 441.04941273 0 24012.27809154 0 9435.44718620 0 11376.77501134 0 1365
0.03650000 0.03647120 65929.11429344 0 1829.43838777 0 30157.09222015 0 7146.53595915 0 14659.60705733 0 1308
0.03750000 0.03744890 63368.38165041 0 3075.34087414 0 18223.56777810 0 6927.06225362 0 6899.52265933 0 1579
0.03850000 0.03847530 59560.16158926 0 3856.79091296 0 17573.07132029 0 3111.35591908 0 5826.07423648 0 1662
0.03950000 0.03950240 56621.85548818 0 3732.23326221 0 11950.72263767 0 -5291.68246007 0 -905.30177670 0 1683
0.04050000 0.04050350 53492.34591816 0 2249.19800802 0 14908.81228404 0 -5460.32594299 0 -4281.08051545 0 1822
0.04150000 0.04152450 50988.04134181 0 2494.48024762 0 17852.51389747 0 -4925.64190967 0 -4880.31960592 0 1887
0.04250000 0.04250150 52316.34903869 0 1756.57648973 0 19337.62867205 0 -4440.48418347 0 -6333.48845112 0 1920
0.04350000 0.04349210 49841.60737375 0 1607.72779275 0 18688.93071836 0 2857.80056055 0 -3301.71633921 0 2005
0.04450000 0.04448520 48422.13799944 0 1942.71042519 0 19927.53802241 0 1030.25172616 0 -4084.02066749 0 2151
0.04550000 0.04548030 47225.57072913 0 185.35833055 0 14064.63941414 0 8058.51243425 0 -4729.73984873 0 2274
0.04650000 0.04648670 46696.02367319 0 266.96545486 0 13336.91968581 0 5696.93040023 0 -5583.83821322 0 2311
0.04750000 0.04749250 44454.18829140 0 1273.40835871 0 10745.55626954 0 83.70777712 0 -7134.56466612 0 2568
0.04850000 0.04851840 44129.89551781 0 1031.54552506 0 12253.20854884 0 204.07513809 0 -2784.39911127 0 2493
0.04950000 0.04949480 42011.03285502 0 2309.40293333 0 14022.14975437 0 -3653.14404367 0 -5046.20912941 0 2644
0.05050000 0.05050630 42415.24665531 0 1553.97500096 0 16437.54078345 0 -386.68962580 0 -1489.36374055 0 2829
0.05150000 0.05149060 39990.97551215 0 1834.73273426 0 19737.34621204 0 -24.16357725 0 -1010.61430934 0 2784
0.05250000 0.05249300 39720.07582954 0 2460.82573933 0 19242.30795385 0 965.66294706 0 781.13642466 0 3055
0.05350000 0.05348950 36867.19867401 0 2778.70010135 0 19920.45641245 0 1545.78056657 0 1476.90909954 0 3009
0.05450000 0.05448610 34543.64376141 0 2229.60555379 0 17570.93559666 0 2420.02217718 0 5011.81273817 0 3336
0.05550000 0.05550870 33126.31011074 0 1267.03490975 0 16280.39648623 0 4883.91661416 0 2721.42898588 0 3349
0.05650000 0.05647670 31397.27321530 0 -286.18809168 0 11354.63092940 0 5173.86919976 0 1215.00193751 0 3324
0.05750000 0.05747970 31078.60076707 0 -884.70216017 0 7994.53065029 0 4103.27590219 0 -1679.79160459 0 3639
0.05850000 0.05849280 31105.35351581 0 -892.19405389 0 7392.26782478 0 1196.44362316 0 -4171.23687651 0 3846
0.05950000 0.05951020 31751.91574586 0 -132.64529895 0 4682.48415306 0 -778.01714409 0 -3631.22477474 0 3787
0.06050000 0.06049470 31602.75231066 0 369.74546888 0 6303.12745350 0 -3025.01648082 0 -7513.61064942 0 3930
0.06150000 0.06148310 31786.08732408 0 581.71154378 0 6956.28794552 0 -3239.04971139 0 -5038.16082349 0 4083
0.06250000 0.06249100 31633.88891318 0 514.16759761 0 9158.62368064 0 -1769.40207222 0 -7844.80518256 0 4303
0.06350000 0.06350600 31742.92322528 0 177.25719357 0 10063.08016041 0 -786.42627490 0 -6566.15868060 0 4470
0.06450000 0.06451750 31883.54376592 0 314.73260014 0 9796.02478035 0 -183.88130905 0 -9444.63079784 0 4479
0.06550000 0.06550280 32059.34754335 0 268.98877199 0 11351.25873418 0 -148.62388397 0 -8481.64424972 0 4636
0.06650000 0.06648880 31297.68104982 0 654.52735515 0 10686.12694913 0 -469.06111435 0 -8544.23219299 0 4653
0.06750000 0.06749660 31201.23626655 0 832.00823768 0 12246.01453237 0 -933.54615979 0 -7174.06431279 0 5220
0.06850000 0.06852730 30256.23475959 0 775.28116970 0 11813.24947923 0 -544.72867881 0 -5404.47114951 0 5029
0.06950000 0.06949320 29941.15931960 0 998.17877743 0 12133.15839903 0 920.88356675 0 -7210.67511222 0 5040
0.07050000 0.07048030 29120.36700323 0 867.97269969 0 12537.82182535 0 746.85243993 0 -4507.60210898 0 5475
0.07150000 0.07148790 28111.96822615 0 792.97058175 0 12044.24485175 0 1380.71161059 0 -6565.07957813 0 5509
0.07250000 0.07249820 27534.31118508 0 371.19214063 0 9955.51837357 0 1024.45042632 0 -4384.84296235 0 5916
0.07350000 0.07351270 26759.71794321 0 168.53557267 0 8703.70330491 0 1532.04449138 0 -6277.24023487 0 5721
0.07450000 0.07449140 27034.77666660 0 385.11368656 0 8383.58081274 0 1122.95674494 0 -4214.42345662 0 6028
0.07550000 0.07549160 26056.95245951 0 179.99878829 0 6468.55611031 0 1832.52956672 0 -4264.42187107 0 6183
0.07650000 0.07648840 26185.32069086 0 -36.88462168 0 6565.21446594 0 1671.73205801 0 -1468.56853670 0 6330
0.07750000 0.07749960 26098.43046071 0 -65.88314003 0 5952.93622063 0 1835.86803999 0 -858.19220949 0 6583
0.07850000 0.07848650 26593.01909287 0 -144.20181197 0 7051.27144420 0 1330.42093922 0 -302.98499606 0 6549
0.07950000 0.07947320 26287.27339299 0 203.36585303 0 7137.06009058 0 673.57126562 0 1830.86595041 0 6828
0.08050000 0.08048110 26006.81915725 0 600.46432140 0 7075.23651156 0 448.08943228 0 1136.69956452 0 7147
0.08150000 0.08149960 25555.73184342 0 617.40735425 0 8084.45585614 0 -207.49679217 0 2876.81974158 0 7386
0.08250000 0.08250610 25506.16057369 0 525.93768299 0 7607.40263912 0 -262.09600496 0 1660.74994225 0 7227
0.08350000 0.08350160 24755.28510486 0 448.44800904 0 7292.40588368 0 -52.21922982 0 377.02154210 0 7798
0.08450000 0.08449610 24230.45912223 0 751.91860122 0 6691.26712324 0 -395.85075614 0 170.20368524 0 7371
0.08550000 0.08548940 23388.19716296 0 915.50379131 0 7131.47348717 0 -610.64497877 0 -1859.74318214 0 8256
0.08650000 0.08650700 23012.64702204 0 504.03977130 0 6687.68135566 0 252.92250990 0 -1133.37233190 0 8037
0.08750000 0.08749060 22482.31312055 0 380.55785082 0 7783.12773199 0 -561.97183704 0 -2187.31822574 0 8155
0.08850000 0.08849210 22435.77682652 0 41.13887076 0 6340.64874564 0 -649.67364217 0 -1450.11138820 0 8718
0.08950000 0.08949900 22438.92420873 0 393.16199249 0 8626.23274007 0 -530.32041271 0 -1562.74270853 0 8571
0.09050000 0.09049190 21961.30895917 0 1140.10548169 0 7956.76206384 0 -479.90159792 0 -915.70724708 0 8932
0.09150000 0.09150830 21043.39742047 0 1102.70109232 0 9119.47249415 0 247.10996941 0 -656.41578448 0 9285
0.09250000 0.09250820 20136.27690648 0 840.59159857 0 7989.12389729 0 226.80935419 0 -917.72719202 0 9204
0.09350000 0.09350330 19509.27340871 0 298.14589592 0 7932.50473956 0 1593.39596307 0 256.11148252 0 9349
0.09450000 0.09448040 19123.49427562 0 127.42176856 0 7249.27550683 0 1268.09153092 0 -2253.30084553 0 9564
0.09550000 0.09549270 19224.88494521 0 -279.51564140 0 5605.38654067 0 1489.65599747 0 -1502.21180434 0 10155
0.09650000 0.09649430 19086.51253472 0 51.47880815 0 5807.48220017 0 411.29428618 0 -2631.09911660 0 9913
0.09750000 0.09749140 19220.05146540 0 182.35820087 0 4967.55829625 0 -113.56879060 0 -1666.86485625 0 10476
0.09850000 0.09850240 18980.06357229 0 258.87218633 0 5246.37139698 0 146.64890163 0 -1522.37753175 0 10575
0.09950000 0.09950330 18686.34536869 0 424.57174283 0 5350.86448617 0 -460.32150841 0 -1752.10271074 0 10882
0.10050000 0.10051200 18564.72152778 0 457.72604216 0 5687.44329101 0 -19.62156751 0 -183.78239132 0 10875
0.10150000 0.10150300 18042.81811434 0 721.39461416 0 6839.49758443 0 135.11599398 0 -1063.20032159 0 11118
0.10250000 0.10250800 17573.74575934 0 729.33613390 0 7069.17780082 0 -75.04584407 0 646.38799996 0 11575
0.10350000 0.10349800 17126.81748627 0 371.10221543 0 7452.32662163 0 502.45483955 0 197.96359628 0 11364
0.10450000 0.10450100 16849.51063274 0 278.25219226 0 7567.37468186 0 -200.33200139 0 624.59799852 0 12093
0.10550000 0.10551000 16765.20575226 0 244.93715162 0 7342.48298269 0 852.36955241 0 384.31447630 0 12067
0.10650000 0.10649700 16155.85007613 0 399.36683169 0 7003.39751274 0 379.37983063 0 1232.76216567 0 12054
0.10750000 0.10749900 16087.05729366 0 273.40185147 0 6463.40789227 0 486.71905259 0 -7.91262003 0 12807
0.10850000 0.10850100 15724.54630758 0 376.48199087 0 6680.93696522 0 533.68698760 0 957.76189366 0 12736
0.10950000 0.10950300 15457.46844622 0 229.97921770 0 6339.25490495 0 292.20858421 0 863.71586526 0 12933
0.11050000 0.11050200 15257.49726971 0 197.02949821 0 5934.31046236 0 460.11468044 0 1182.71878861 0 13428
0.11150000 0.11150900 15260.64465192 0 -4.23947887 0 6498.46748190 0 364.14650076 0 1934.94313553 0 13453
0.11250000 0.11250000 15286.61055510 0 -13.37120367 0 6264.65070605 0 365.94500487 0 1983.61515320 0 13668
0.11350000 0.11349100 15259.85780636 0 -81.02710673 0 6483.02282780 0 438.20777623 0 2310.65064556 0 13791
0.11450000 0.11448600 15286.94777463 0 58.00052130 0 6132.05599002 0 437.19724173 0 2166.70287230 0 14205
0.11550000 0.11549300 15324.94117410 0 72.44295899 0 6524.48958834 0 255.29091501 0 2704.89398865 0 14776
0.11650000 0.11649800 15248.61715563 0 30.86840060 0 6397.34658793 0 488.97842338 0 2804.87957690 0 14553
0.11750000 0.11747300 15214.22076440 0 64.12476504 0 6130.56098348 0 661.45609227 0 2290.28258644 0 14568
0.11850000 0.11849100 15236.70206586 0 58.04941813 0 5517.54085521 0 428.32499610 0 1992.54022988 0 16015
0.11950000 0.11950300 15152.95921791 0 142.93723876 0 5077.22208478 0 45.09265725 0 1509.25969235 0 15270
0.12050000 0.12050700 14938.03797594 0 138.65117864 0 4875.12642528 0 75.69004576 0 1338.93011182 0 15999
0.12150000 0.12150000 14787.52566265 0 211.87727376 0 4699.99708690 0 451.30313433 0 1020.90400102 0 15670
0.12250000 0.12250700 14703.55800169 0 103.60327928 0 4261.43185798 0 258.14491623 0 873.96958686 0 16887
0.12350000 0.12352200 14437.82901841 0 86.49444684 0 4071.36369476 0 363.13371812 0 99.23898423 0 16407
0.12450000 0.12449800 14447.72079105 0 123.77417739 0 3753.02846606 0 -103.88294667 0 264.61840699 0 16306
0.12550000 0.12549900 14161.53382344 0 282.36514636 0 3968.88268205 0 -124.72288832 0 -556.05475849 0 17523
0.12650000 0.12650100 13996.97069674 0 418.34554639 0 4520.74242969 0 -652.17131476 0 -68.79716633 0 17154
0.12750000 0.12750600 13551.16648875 0 585.68623788 0 4450.09493984 0 -257.95607330 0 -366.17094195 0 18007
0.12850000 0.12850300 13118.85106163 0 571.69837211 0 4756.29026576 0 271.61571207 0 -11.74558076 0 17496
0.12950000 0.12949900 12724.75384700 0 346.22215910 0 4762.87728708 0 659.77449092 0 160.35125487 0 18405
0.13050000 0.13049000 12640.11174700 0 85.46390398 0 4618.83958862 0 764.83410891 0 592.81955484 0 18100
0.13150000 0.13148800 12641.12340557 0 -73.21260634 0 4750.02922330 0 558.84468800 0 1404.00223890 0 19059
0.13250000 0.13249300 12689.12098419 0 -0.00314455 0 4492.64080286 0 56.06926510 0 1028.80393035 0 18957
0.13350000 0.13349100 12837.94719986 0 5.06118168 0 5256.88140541 0 -443.97198192 0 1843.43299793 0 19468
0.13450000 0.13450700 12836.03628924 0 152.05902683 0 5130.64889770 0 -309.23704600 0 1856.53959668 0 19953
0.13550000 0.13551000 12847.95137902 0 160.50412772 0 5702.31467193 0 -237.84205288 0 1718.54936831 0 19956
0.13650000 0.13649900 12610.21161606 0 317.03018915 0 5471.30805875 0 -130.91423874 0 1423.31367686 0 19723
0.13750000 0.13749600 12418.10889506 0 267.65900301 0 5363.29664588 0 47.91765759 0 354.00855786 0 20946
0.13850000 0.13851100 12086.73451151 0 223.53607670 0 5120.03772341 0 93.24805461 0 438.56298079 0 20955
0.13950000 0.13949800 11942.74177565 0 133.74126240 0 4262.96058647 0 316.61091288 0 -742.43486420 0 20506
0.14050000 0.14048300 11667.00861322 0 67.89521651 0 3757.04137837 0 328.79690234 0 -1378.76697801 0 21447
0.14150000 0.14148400 11581.01763513 0 209.51224084 0 3455.26362820 0 608.65425952 0 -1612.62871647 0 21771
0.14250000 0.14249400 11245.25939779 0 246.49735394 0 3279.88699549 0 235.61640404 0 -1669.80990674 0 22470
0.14350000 0.14350900 11113.67634033 0 262.57373262 0 2969.49890686 0 251.91984386 0 -1509.03487933 0 22519
0.14450000 0.14449900 10917.34713467 0 202.79257984 0 2970.40939957 0 370.50196468 0 -1214.93449361 0 22218
0.14550000 0.14550500 10826.37654830 0 71.19311103 0 3118.05534692 0 444.76557186 0 -606.84901101 0 23559
0.14650000 0.14650700 10681.15858151 0 40.22095923 0 3065.62895191 0 326.55214439 0 -232.51173631 0 23044
0.14750000 0.14750500 10652.92206687 0 33.85605316 0 2868.31056898 0 628.87281799 0 -193.75284852 0 23649
0.14850000 0.14849900 10496.17119243 0 141.63332328 0 2370.68696112 0 258.52709836 0 -375.60072385 0 23640
0.14950000 0.14949500 10329.76459901 0 225.85165075 0 2153.65247680 0 257.71889557 0 -163.12095121 0 24457
0.15050000 0.15050000 10033.05638231 0 316.59630003 0 1950.69128721 0 11.89800399 0 -442.34883196 0 24591
0.15150000 0.15149900 9919.61573513 0 167.34181556 0 1616.39433447 0 -31.29082425 0 -160.74917391 0 25020
0.15250000 0.15250500 9760.43688013 0 125.95598770 0 1907.43726319 0 -309.19882779 0 -461.10385770 0 25297
0.15350000 0.15350100 9814.03230282 0 46.02664292 0 1821.49124770 0 -128.93026388 0 -168.52320795 0 25452
0.15450000 0.15450400 9800.82453821 0 -87.21733309 0 2241.03729559 0 -57.84416385 0 -37.37448924 0 26061
0.15550000 0.15549900 10068.90281749 0 -82.22423603 0 2543.96159214 0 99.76965535 0 552.13739171 0 26128
0.15650000 0.15649500 10149.93666861 0 61.65069781 0 2787.44532762 0 269.22370159 0 809.65058337 0 26331
0.15750000 0.15749700 10106.34542508 0 47.26187803 0 2856.66525482 0 524.35275123 0 968.70354309 0 27345
0.15850000 0.15849900 9986.47512568 0 252.26380777 0 2250.44572025 0 129.43721723 0 1299.35178060 0 26980
0.15950000 0.15949700 9878.72224777 0 163.49751301 0 2527.33666971 0 371.61703723 0 1320.70901699 0 27777
0.16050000 0.16050000 9550.83246595 0 114.10384557 0 2294.29549875 0 114.63552835 0 1074.98614388 0 28224
0.16150000 0.16150500 9572.35831210 0 132.62169358 0 2247.01732178 0 -70.28767661 0 561.70768174 0 28075
0.16250000 0.16249700 9300.89659695 0 137.47203437 0 2227.95317814 0 -456.09052748 0 301.96659311 0 28590
0.16350000 0.16349900 9360.94415315 0 163.75155172 0 2604.00914834 0 -408.36497260 0 547.57818377 0 29163
0.16450000 0.16449100 9226.21371349 0 120.60431389 0 2567.71308713 0 -277.45410606 0 168.47936942 0 28996
0.16550000 0.16550500 9216.96265794 0 66.32725814 0 2607.32514031 0 -5.65523883 0 188.35059178 0 30777
0.16650000 0.16650700 9244.82823110 0 -36.85629524 0 2737.54807903 0 294.53989517 0 44.27107809 0 29211
0.16750000 0.16749900 9187.36602456 0 10.35243699 0 2678.14123991 0 353.34535947 0 327.34461026 0 30922
0.16850000 0.16850800 9286.78958028 0 -33.28941195 0 2071.86550209 0 517.19920111 0 144.00510058 0 30867
0.16950000 0.16949900 9152.55372925 0 34.55432238 0 1882.69659093 0 510.93591052 0 145.26405346 0 30852
0.17050000 0.17049200 9121.14735111 0 93.79457505 0 1470.82790750 0 459.89436368 0 -117.32204387 0 31257
0.17150000 0.17149500 8906.77690102 0 184.17581410 0 1281.61403374 0 331.88695722 0 -85.91915033 0 32608
0.17250000 0.17250900 8677.95097409 0 308.17480451 0 1048.10974798 0 20.70415458 0 -58.87200895 0 32361
0.17350000 0.17350400 8419.49469183 0 290.42244481 0 1100.53164673 0 -136.86841143 0 63.58476418 0 32508
0.17450000 0.17449800 8291.03653527 0 265.94592784 0 1248.37542953 0 -319.57956874 0 74.66197585 0 32791
0.17550000 0.17549800 8174.97681648 0 164.69689045 0 1640.83150915 0 -313.07348009 0 87.20811575 0 33633
0.17650000 0.17650100 8099.49584682 0 128.81223705 0 1860.94593177 0 -324.80759539 0 308.08825150 0 33984
0.17750000 0.17750300 8094.75229221 0 25.40499472 0 2325.98289316 0 -231.46972798 0 450.66803756 0 34069
