### header ###
fiducial parameters:
Omega_m = 0.31
Omega_nu = 0
Omega_de = 0.69
Omega_k = 0
H_0 = 100
w_de = -1
zeff = 0
beta = 0
fgrowth = 0
b_1 = 2
gamma = 0.55
Lx = 3500 Ly = 3500 Lz = 3500
nx = 700 ny = 700 nz = 700
xoffset = 857.220397 yoffset = 15.9954215 zoffset = 262.898189
bins = 400 dk = 0.001
kx_ny = 0.628318531 ky_ny = 0.628318531 kz_ny = 0.628318531
############################
A(data) = 3.06833645 (not used)
A(ran) = 3.06440688 (used)
Ngal = 186984
weighted Ngal = 0
Nran = 9360983
weighted Nran = 0
SN(data) = 3458.0931
SN(ran) = 68.8150619
SN(data+ran) = 3526.90816
############################
13 columns: k_central k_mean P_0(k) sigma^{lin}_{P_0(k)} P^img_1(k) sigma^{lin}_{P_1(k)} P_2(k) sigma^{lin}_{P_2(k)} P^img_3(k) sigma^{lin}_{P_3(k)} P_4(k) sigma^{lin}_{P_4(k)} N_modes
### header ###
0.00050000 0 0 0 0 0 0 0 0 0 0 0 0
0.00150000 0.00179520 35722.33839706 0 -39574.39699606 0 -33886.85253920 0 76389.10183116 0 -75101.03566390 0 3
0.00250000 0.00253879 60954.22709292 0 -38015.43114618 0 770.86921429 0 -62514.76663390 0 20881.41964344 0 6
0.00350000 0.00331552 70812.61500352 0 -15993.75989259 0 -35078.13670367 0 -5312.11796310 0 39964.11035691 0 7
0.00450000 0.00420575 74210.21409347 0 1538.12568343 0 -17459.99037394 0 -37882.90387406 0 21015.29579365 0 24
0.00550000 0.00557378 61359.45255177 0 4877.53192454 0 -17948.28424170 0 -16358.85622833 0 14219.08595518 0 45
0.00650000 0.00659388 59798.57579126 0 -4581.45318429 0 -4526.35151440 0 7955.36822315 0 -12358.98307222 0 40
0.00750000 0.00754703 61560.54779335 0 -9464.47054638 0 -27635.25222865 0 -1508.86626957 0 -20585.34090319 0 57
0.00850000 0.00846663 70772.37347390 0 -9166.49213616 0 -8441.06550058 0 -23091.89360969 0 -33678.45087464 0 75
0.00950000 0.00948925 74453.57418179 0 -3946.76108141 0 -14464.24454762 0 -27952.12617276 0 -24830.37265174 0 112
0.01050000 0.01054430 83839.85476169 0 -4338.37411223 0 -11149.28672185 0 -36804.70065595 0 -35740.88547077 0 105
0.01150000 0.01145670 84338.37762161 0 386.05340497 0 -457.04148653 0 -32151.52087935 0 -35162.44158415 0 144
0.01250000 0.01249090 86466.57002451 0 -52.01228944 0 -378.33669824 0 -12375.05720276 0 -41606.48183521 0 169
0.01350000 0.01339930 77945.48233138 0 -1047.57918927 0 5776.25567244 0 -9947.67239936 0 -45996.29316519 0 180
0.01450000 0.01448870 85184.79862166 0 -2120.42511324 0 -7320.29393815 0 -446.28530784 0 -37849.40673489 0 267
0.01550000 0.01550050 82558.98261090 0 1570.27394452 0 -7442.17631402 0 3741.67540883 0 -71911.16379946 0 238
0.01650000 0.01653350 81027.55635531 0 445.26915302 0 -13816.22103298 0 -12657.98438166 0 -39608.45616778 0 315
0.01750000 0.01747870 80541.17339818 0 3692.41887732 0 -3566.08520376 0 -18247.62277066 0 -61982.52182179 0 297
0.01850000 0.01844180 75826.05763605 0 6478.71765857 0 2250.96279018 0 -22623.27088071 0 -20784.63764065 0 388
0.01950000 0.01947590 66524.08193663 0 7481.79960785 0 6585.34647140 0 -15032.68425509 0 -38875.34092710 0 399
0.02050000 0.02045430 67817.65602275 0 3424.03710047 0 27012.96980418 0 -8065.09945558 0 -16356.49569168 0 462
0.02150000 0.02154770 65348.42227668 0 611.05076626 0 25141.28905096 0 -6780.49540874 0 -18894.29740722 0 571
0.02250000 0.02255340 71422.08308615 0 -2538.45367328 0 38648.50459535 0 1258.45829324 0 -11406.00070324 0 510
0.02350000 0.02348930 71719.73551751 0 -2906.67490992 0 29394.75128757 0 3242.10716839 0 -10797.24078161 0 555
0.02450000 0.02439640 76668.65681484 0 -4455.99628148 0 25304.61570609 0 5442.17229206 0 -14237.63302889 0 592
0.02550000 0.02547300 77815.76522194 0 -2830.73307359 0 19009.73889022 0 10621.42576352 0 -12669.78706493 0 837
0.02650000 0.02652900 79288.96490674 0 1704.45359229 0 11763.90302252 0 7426.50684690 0 -24740.89707193 0 723
0.02750000 0.02749970 72298.40421714 0 6574.12830197 0 4324.09848580 0 5104.69423516 0 -26424.52173841 0 826
0.02850000 0.02848090 67278.10478766 0 7017.09986598 0 -2481.65466513 0 1720.08933746 0 -22238.16618667 0 831
0.02950000 0.02946900 59830.04961331 0 4103.51195586 0 -6621.59757001 0 1125.62752355 0 -17500.11949705 0 996
0.03050000 0.03053250 57002.12670241 0 251.57700401 0 -5353.86573992 0 5335.02640929 0 -10293.98560773 0 1041
0.03150000 0.03150510 56616.01034980 0 -1110.20984701 0 -5627.85660149 0 1089.75635894 0 -14820.01114326 0 1036
0.03250000 0.03246190 57037.53475221 0 2374.36265391 0 -1499.32295710 0 -1509.92289074 0 -7938.22623078 0 1059
0.03350000 0.03345080 55267.80670112 0 4890.18889726 0 1425.12342163 0 -8334.51537230 0 -7442.16507337 0 1302
0.03450000 0.03451200 50268.52728851 0 5368.13012570 0 6780.75394371 0 -7780.25012541 0 69.45879103 0 1339
0.03550000 0.03553350 47429.36372688 0 3486.13045511 0 10761.73156595 0 170.56451013 0 -2475.57347309 0 1365
0.03650000 0.03647120 45457.41636914 0 248.15085367 0 7913.28322681 0 2454.47477167 0 -4191.71734214 0 1308
0.03750000 0.03744890 46017.87521459 0 -1298.27267813 0 8223.45774308 0 4458.21068967 0 -11940.38123900 0 1579
0.03850000 0.03847530 47347.98141559 0 -1572.33098360 0 1569.95920630 0 5083.47188658 0 -10342.56770019 0 1662
0.03950000 0.03950240 48758.57067582 0 -1705.69006387 0 377.55884521 0 1771.33546414 0 -10669.19852913 0 1683
0.04050000 0.04050350 49200.77787558 0 -1007.88957560 0 -3139.43506461 0 -1827.50499584 0 -10530.96100644 0 1822
0.04150000 0.04152450 51957.77228037 0 -896.54081352 0 705.67456411 0 -4608.79044686 0 -7811.65650355 0 1887
0.04250000 0.04250150 50820.78045893 0 930.64719597 0 -1752.87831564 0 -3653.18900627 0 -13641.54132062 0 1920
0.04350000 0.04349210 52069.39194213 0 2151.01092388 0 9412.87595953 0 -6463.04819145 0 -2910.71030354 0 2005
0.04450000 0.04448520 48473.05814725 0 3420.96840282 0 6464.59940125 0 -7462.11722842 0 -12302.44259904 0 2151
0.04550000 0.04548030 48022.53286595 0 3450.28401993 0 15695.32061568 0 -2792.49237980 0 -4510.88437900 0 2274
0.04650000 0.04648670 44595.48327109 0 2209.04640361 0 14639.03666649 0 -1048.71112279 0 -9919.79558554 0 2311
0.04750000 0.04749250 41652.23128369 0 390.66094770 0 12304.57832268 0 3636.30554887 0 -9061.69554939 0 2568
0.04850000 0.04851840 41226.99746653 0 60.20211515 0 10799.89357518 0 6176.53524497 0 -13630.97510894 0 2493
0.04950000 0.04949480 40463.86968841 0 165.24093794 0 6415.05061283 0 2900.00920404 0 -16321.42486140 0 2644
0.05050000 0.05050630 38208.65793225 0 1249.16227508 0 5529.93929297 0 2150.38144744 0 -14118.59453765 0 2829
0.05150000 0.05149060 37912.24197247 0 1327.65573914 0 4352.41368499 0 -1594.85724767 0 -12149.68215561 0 2784
0.05250000 0.05249300 36810.09616830 0 1287.52661603 0 7062.52333558 0 -1158.09052286 0 -10788.04592931 0 3055
0.05350000 0.05348950 36858.65577946 0 1177.95275270 0 6778.29224120 0 -1649.14959070 0 -8640.09246242 0 3009
0.05450000 0.05448610 35434.69014485 0 1302.42047825 0 9311.51901189 0 47.99195830 0 -4032.44856193 0 3336
0.05550000 0.05550870 34787.34106926 0 1209.61766581 0 11147.42077383 0 319.50200825 0 -1819.61405903 0 3349
0.05650000 0.05647670 33959.80436244 0 687.88848246 0 10414.26057055 0 2827.10234340 0 82.53605168 0 3324
0.05750000 0.05747970 34135.15851384 0 -170.16097077 0 8431.96057349 0 2844.00828210 0 3464.04257642 0 3639
0.05850000 0.05849280 33721.27775393 0 -370.59076582 0 7409.07259762 0 3312.43992001 0 4259.94809208 0 3846
0.05950000 0.05951020 34252.39850097 0 -502.48631337 0 6842.65620729 0 1824.05411607 0 7401.21538276 0 3787
0.06050000 0.06049470 33439.81185963 0 165.40280331 0 7969.34035200 0 1540.35133227 0 7502.32503608 0 3930
0.06150000 0.06148310 34065.91610534 0 397.86957701 0 8441.72869897 0 -25.84900042 0 7766.53653152 0 4083
0.06250000 0.06249100 33453.75026653 0 1207.62807063 0 10569.79745471 0 -281.84133204 0 8073.06907695 0 4303
0.06350000 0.06350600 33038.97025456 0 1585.14532543 0 13118.28902910 0 -2340.08990983 0 10512.76239291 0 4470
0.06450000 0.06451750 30997.78048832 0 1513.29508596 0 14135.23070073 0 -1311.41299883 0 7053.02498572 0 4479
0.06550000 0.06550280 30848.16742709 0 873.93361677 0 14295.40997365 0 -906.30444275 0 6833.64120540 0 4636
0.06650000 0.06648880 30957.20173918 0 -320.10338306 0 15741.51969019 0 -386.26248107 0 5207.32137634 0 4653
0.06750000 0.06749660 31627.70655528 0 -531.78731763 0 13498.56024333 0 884.33683902 0 1443.15342540 0 5220
0.06850000 0.06852730 31239.22966602 0 -457.04823092 0 12119.55721165 0 775.51722336 0 1292.27017064 0 5029
0.06950000 0.06949320 31890.51296937 0 -169.78103677 0 10997.18947681 0 778.57917662 0 -742.47195834 0 5040
0.07050000 0.07048030 31361.30313296 0 407.06892557 0 9400.65737218 0 2502.52855354 0 -850.65760130 0 5475
0.07150000 0.07148790 30883.91269641 0 463.42617614 0 6894.80158603 0 2715.53888489 0 -1509.83296554 0 5509
0.07250000 0.07249820 29957.57066967 0 449.03701914 0 6384.40859893 0 2967.03720435 0 -1216.76671968 0 5916
0.07350000 0.07351270 29617.54098506 0 723.61464268 0 5293.81818371 0 348.86033983 0 -1963.86532986 0 5721
0.07450000 0.07449140 28993.23524346 0 1377.18204626 0 6648.31659680 0 -647.95831887 0 -531.33319534 0 6028
0.07550000 0.07549160 27688.53291311 0 1191.32912707 0 8040.79716870 0 -2700.91479829 0 -19.73183829 0 6183
0.07650000 0.07648840 27488.33692359 0 1313.20026230 0 10753.42472506 0 -3267.30870733 0 838.87515121 0 6330
0.07750000 0.07749960 27025.10970697 0 773.82100917 0 11993.09989092 0 -874.58332639 0 1163.68836693 0 6583
0.07850000 0.07848650 26225.22500095 0 597.70586571 0 13779.80132461 0 -517.28350599 0 1094.02555809 0 6549
0.07950000 0.07947320 26623.59366286 0 31.47764387 0 12709.80378153 0 1655.59048356 0 1504.90956052 0 6828
0.08050000 0.08048110 25688.93355458 0 85.13747548 0 12111.80116264 0 2338.59490328 0 -540.19195218 0 7147
0.08150000 0.08149960 26095.39548501 0 148.49124429 0 9201.64165099 0 1927.35569629 0 -717.18611452 0 7386
0.08250000 0.08250610 25079.80269147 0 61.43757507 0 7965.93443483 0 2484.25125545 0 -2091.98626689 0 7227
0.08350000 0.08350160 24999.43203874 0 290.63376904 0 6617.66334225 0 790.80338429 0 -2694.83360625 0 7798
0.08450000 0.08449610 24169.98442130 0 502.27948539 0 6201.92787497 0 -42.93400269 0 -3048.02609287 0 7371
0.08550000 0.08548940 23772.96463748 0 862.90204215 0 5831.46974883 0 -106.08600181 0 -4579.56475496 0 8256
0.08650000 0.08650700 22806.83070715 0 888.81961054 0 6469.23054935 0 -1064.67734309 0 -3071.18183337 0 8037
0.08750000 0.08749060 22638.55816571 0 778.38583743 0 7750.74341724 0 -658.46383104 0 -3017.06934075 0 8155
0.08850000 0.08849210 22167.79971309 0 241.51324941 0 8207.65338815 0 -120.59644543 0 -1168.29703373 0 8718
0.08950000 0.08949900 21884.64772118 0 397.81112563 0 8329.44583882 0 234.89925052 0 -1124.41353327 0 8571
0.09050000 0.09049190 21594.18930629 0 515.02525926 0 8566.01657411 0 1046.70691477 0 675.63055284 0 8932
0.09150000 0.09150830 21080.04194186 0 386.71323116 0 8033.94037176 0 1500.09856200 0 795.55368329 0 9285
0.09250000 0.09250820 20646.04041713 0 610.13914948 0 7873.63745168 0 1576.35513656 0 1088.91218607 0 9204
0.09350000 0.09350330 19733.86161031 0 571.62418382 0 6759.56531708 0 1179.12178038 0 1289.58365511 0 9349
0.09450000 0.09448040 19626.85061535 0 567.96647607 0 6010.76936864 0 982.45535519 0 693.14910700 0 9564
0.09550000 0.09549270 18615.30445607 0 320.46982828 0 6162.00108357 0 341.72589881 0 500.87665218 0 10155
0.09650000 0.09649430 18874.28904891 0 -23.69349324 0 5733.27142404 0 241.39634664 0 1254.71515655 0 9913
0.09750000 0.09749140 18530.43754305 0 -307.59815912 0 4965.53497911 0 982.93533098 0 -59.84308877 0 10476
0.09850000 0.09850240 19096.85393339 0 -124.34295432 0 4365.81254066 0 563.87825140 0 431.82758287 0 10575
0.09950000 0.09950330 18616.09130162 0 160.11632527 0 3894.51453681 0 1008.29199090 0 -357.46280983 0 10882
0.10050000 0.10051200 18628.79323695 0 487.36201781 0 4466.60745577 0 -15.98903882 0 657.08797539 0 10875
0.10150000 0.10150300 18072.38102577 0 657.82648614 0 3853.18266408 0 52.72550873 0 893.89926060 0 11118
0.10250000 0.10250800 17559.13291339 0 409.53512434 0 4797.36360353 0 97.20217832 0 642.83370620 0 11575
0.10350000 0.10349800 17309.14084113 0 308.78629591 0 3989.17205662 0 -85.70220577 0 941.50791271 0 11364
0.10450000 0.10450100 17051.95475241 0 251.52866921 0 4824.70086611 0 692.44431820 0 892.26486998 0 12093
0.10550000 0.10551000 16791.17165545 0 346.00746267 0 4247.54965432 0 355.47995904 0 929.26684406 0 12067
0.10650000 0.10649700 16771.38811016 0 420.98822337 0 3812.45778648 0 570.21348215 0 1083.43124477 0 12054
0.10750000 0.10749900 16224.75526511 0 174.05248405 0 3409.05331304 0 781.29266971 0 672.39324543 0 12807
0.10850000 0.10850100 16004.66332380 0 257.56827085 0 3326.28840171 0 397.43793603 0 1265.52866255 0 12736
0.10950000 0.10950300 15991.62416895 0 76.93742077 0 2497.21172575 0 364.93784257 0 480.58952574 0 12933
0.11050000 0.11050200 15755.57050360 0 29.64137116 0 2547.90706054 0 -91.71179488 0 568.10698420 0 13428
0.11150000 0.11150900 15553.46360346 0 276.70210652 0 2046.37170623 0 -378.36817206 0 278.32076023 0 13453
0.11250000 0.11250000 15375.52410239 0 450.08801998 0 2729.29744139 0 -1005.98091310 0 -688.26729239 0 13668
0.11350000 0.11349100 14995.02807514 0 341.76973735 0 3190.14164006 0 -1017.80158141 0 -803.42438693 0 13791
0.11450000 0.11448600 14749.41985667 0 629.74734062 0 3993.52218845 0 -1558.35885474 0 -1860.49630574 0 14205
0.11550000 0.11549300 14470.98893806 0 345.10146622 0 4220.06626329 0 -415.69275281 0 -1147.72664289 0 14776
0.11650000 0.11649800 14239.65634602 0 153.17859564 0 5112.55145002 0 -433.01009933 0 -1283.78347934 0 14553
0.11750000 0.11747300 14299.11938839 0 62.16113576 0 5165.24762065 0 165.52083014 0 -1245.96993028 0 14568
0.11850000 0.11849100 14206.04680033 0 -80.61873389 0 5071.25329924 0 792.74239654 0 -1387.11878151 0 16015
0.11950000 0.11950300 14090.71772383 0 5.93071345 0 5206.53453079 0 159.50483387 0 -1425.24706879 0 15270
0.12050000 0.12050700 14347.34178002 0 180.37984635 0 4562.59137236 0 169.83724002 0 -1003.01338131 0 15999
0.12150000 0.12150000 13995.39700564 0 145.39556908 0 5042.98306265 0 19.80951119 0 -945.03185671 0 15670
0.12250000 0.12250700 13989.32705424 0 179.23892030 0 4367.08273420 0 -92.29945610 0 -922.70005590 0 16887
0.12350000 0.12352200 13932.67417456 0 183.86782027 0 4881.10645147 0 385.12267908 0 -565.13945241 0 16407
0.12450000 0.12449800 13778.34004002 0 126.74732951 0 4822.87988069 0 346.65604822 0 -7.72844197 0 16306
0.12550000 0.12549900 13705.27581027 0 82.17297866 0 4715.04831822 0 818.63748363 0 -185.99679952 0 17523
0.12650000 0.12650100 13740.79626658 0 34.92998493 0 4503.09460804 0 855.16397818 0 624.27426778 0 17154
0.12750000 0.12750600 13625.24237706 0 77.05533520 0 4271.73953470 0 469.19600216 0 329.30497975 0 18007
0.12850000 0.12850300 13572.74853815 0 178.77805362 0 3900.47208170 0 222.74810708 0 620.44345401 0 17496
0.12950000 0.12949900 13325.00459604 0 265.23214652 0 3643.88174747 0 251.65006824 0 287.04462926 0 18405
0.13050000 0.13049000 13025.89088009 0 242.21016976 0 3203.59669898 0 -69.01973121 0 757.88626269 0 18100
0.13150000 0.13148800 12752.85547383 0 257.86052777 0 3320.39830073 0 485.64107418 0 425.11129406 0 19059
0.13250000 0.13249300 12730.48657888 0 38.04162186 0 2790.48030332 0 357.73146138 0 184.71086907 0 18957
0.13350000 0.13349100 12687.43488658 0 30.23004404 0 3049.45365551 0 274.34943833 0 60.11747305 0 19468
0.13450000 0.13450700 12644.15838126 0 1.13713795 0 2855.46250519 0 79.23478497 0 -68.44881856 0 19953
0.13550000 0.13551000 12627.97184421 0 98.19281687 0 3234.60965435 0 -494.97193835 0 368.16615746 0 19956
0.13650000 0.13649900 12716.21095245 0 109.38412114 0 3315.67722742 0 -261.96448935 0 -66.89423657 0 19723
0.13750000 0.13749600 12678.89199202 0 317.49780022 0 3389.14612060 0 -316.41082930 0 168.88628097 0 20946
0.13850000 0.13851100 12355.27365748 0 271.73261484 0 3820.13515093 0 -31.95188692 0 -195.17366677 0 20955
0.13950000 0.13949800 12106.51805680 0 377.36775415 0 3475.83401904 0 69.99631895 0 -485.42637775 0 20506
0.14050000 0.14048300 11821.67996728 0 334.54424706 0 3381.37883094 0 434.78162588 0 -62.86850991 0 21447
0.14150000 0.14148400 11538.75278838 0 166.39198058 0 3050.18429781 0 378.46484166 0 -466.66235949 0 21771
0.14250000 0.14249400 11376.77501134 0 44.26219798 0 3312.93450864 0 620.63904133 0 74.70221738 0 22470
0.14350000 0.14350900 11417.01654096 0 -48.75980715 0 3225.92063133 0 454.56404711 0 127.15648920 0 22519
0.14450000 0.14449900 11399.81834534 0 42.32554626 0 3070.43995042 0 430.03469908 0 922.74614257 0 22218
0.14550000 0.14550500 11264.03128451 0 168.18374030 0 2798.53984989 0 45.36670432 0 552.30712554 0 23559
0.14650000 0.14650700 11158.77383107 0 183.42493863 0 2710.19957580 0 109.48067833 0 1189.27208799 0 23044
0.14750000 0.14750500 11080.30284831 0 162.64884388 0 2621.63448869 0 125.37147386 0 1050.48602154 0 23649
0.14850000 0.14849900 10870.63099023 0 170.31721581 0 2437.38898256 0 -4.94369439 0 589.03482774 0 23640
0.14950000 0.14949500 10689.91504843 0 161.00096449 0 1975.91530745 0 -22.37046865 0 315.35870439 0 24457
0.15050000 0.15050000 10481.63703103 0 290.76753278 0 2195.33280971 0 -329.00373031 0 -395.68439451 0 24591
0.15150000 0.15149900 10187.23314774 0 341.53368368 0 2058.96123505 0 -458.77591893 0 -415.76019672 0 25020
0.15250000 0.15250500 9977.80858397 0 336.42143573 0 2260.57354656 0 -432.45368712 0 -721.91618035 0 25297
0.15350000 0.15350100 9743.36233167 0 298.92150082 0 2593.71271227 0 -394.11182747 0 -651.28555148 0 25452
0.15450000 0.15450400 9775.35322365 0 118.79681725 0 2782.15098113 0 -6.01683932 0 -726.03587884 0 26061
0.15550000 0.15549900 9680.86431361 0 73.97719540 0 2953.07631614 0 21.75627949 0 -712.64601569 0 26128
0.15650000 0.15649500 9636.84592534 0 31.06039091 0 2844.53659268 0 238.48501810 0 -475.75829406 0 26331
0.15750000 0.15749700 9722.02757658 0 -30.33975279 0 2908.79939291 0 520.48371925 0 -290.04925520 0 27345
0.15850000 0.15849900 9563.52316063 0 21.25753182 0 2520.24381909 0 525.95904022 0 75.64744370 0 26980
0.15950000 0.15949700 9702.31147520 0 80.62750160 0 2582.30345178 0 659.06632992 0 -136.98531420 0 27777
0.16050000 0.16050000 9337.95702241 0 122.14990336 0 2092.73939049 0 467.73471757 0 383.84236897 0 28224
0.16150000 0.16150500 9325.25508708 0 215.67324151 0 2145.40183917 0 144.15235310 0 651.27206270 0 28075
0.16250000 0.16249700 9197.38144437 0 103.94364619 0 2038.44704746 0 -40.98341257 0 797.72650108 0 28590
0.16350000 0.16349900 9263.03808528 0 -11.66352401 0 2205.23582301 0 -27.45191722 0 1296.28308295 0 29163
0.16450000 0.16449100 9424.02668505 0 -181.58034784 0 2501.53937628 0 -40.66114311 0 1380.94766425 0 28996
0.16550000 0.16550500 9477.82443945 0 -1.10143989 0 2581.25807126 0 -6.40557474 0 1213.18095209 0 30777
0.16650000 0.16650700 9627.94332997 0 82.56505256 0 2699.84693647 0 51.39933675 0 1131.85484406 0 29211
0.16750000 0.16749900 9373.55616327 0 254.61085564 0 2840.71477143 0 -163.78414961 0 1498.00780097 0 30922
0.16850000 0.16850800 9208.03758126 0 324.28378107 0 2844.34550162 0 135.50492050 0 1382.79113097 0 30867
0.16950000 0.16949900 8952.87480966 0 159.44301029 0 2968.84694912 0 158.53588978 0 1349.21530724 0 30852
0.17050000 0.17049200 8784.57978692 0 124.05744179 0 2695.42936074 0 59.87478740 0 864.71740724 0 31257
0.17150000 0.17149500 8729.02849101 0 70.31386733 0 2725.86904292 0 101.01185966 0 934.67472113 0 32608
0.17250000 0.17250900 8631.90926869 0 24.47404402 0 2287.47242376 0 -92.82057266 0 793.64614486 0 32361
0.17350000 0.17350400 8596.84967906 0 70.30993310 0 2318.55282303 0 169.05489073 0 263.33584874 0 32508
0.17450000 0.17449800 8421.77654393 0 191.42041349 0 2164.38729825 0 47.10136154 0 158.79667288 0 32791
0.17550000 0.17549800 8305.64938122 0 253.52950504 0 2185.19374276 0 38.67345884 0 74.80551896 0 33633
0.17650000 0.17650100 8127.91221187 0 177.37971667 0 2031.20806839 0 13.51429715 0 119.71630248 0 33984
0.17750000 0.17750300 8091.25644983 0 79.41980608 0 2054.50993736 0 6.26846129 0 7.92037608 0 34069
