### header ###
fiducial parameters:
Omega_m = 0.31
Omega_nu = 0
Omega_de = 0.69
Omega_k = 0
H_0 = 100
w_de = -1
zeff = 0
beta = 0
fgrowth = 0
b_1 = 2
gamma = 0.55
Lx = 3500 Ly = 3500 Lz = 3500
nx = 700 ny = 700 nz = 700
xoffset = 857.220397 yoffset = 15.9954215 zoffset = 262.898189
bins = 400 dk = 0.001
kx_ny = 0.628318531 ky_ny = 0.628318531 kz_ny = 0.628318531
############################
A(data) = 3.07891907 (not used)
A(ran) = 3.08370118 (used)
Ngal = 187909
weighted Ngal = 0
Nran = 9360983
weighted Nran = 0
SN(data) = 3428.56285
SN(ran) = 69.2483394
SN(data+ran) = 3497.81119
############################
13 columns: k_central k_mean P_0(k) sigma^{lin}_{P_0(k)} P^img_1(k) sigma^{lin}_{P_1(k)} P_2(k) sigma^{lin}_{P_2(k)} P^img_3(k) sigma^{lin}_{P_3(k)} P_4(k) sigma^{lin}_{P_4(k)} N_modes
### header ###
0.00050000 0 0 0 0 0 0 0 0 0 0 0 0
0.00150000 0.00179520 4676.14442604 0 -5793.47634936 0 7985.93155248 0 -21526.74540191 0 26231.63217187 0 3
0.00250000 0.00253879 9682.88763074 0 -8409.18701511 0 -5995.54952755 0 -1073.19101196 0 -9034.34704616 0 6
0.00350000 0.00331552 16684.94750604 0 -11880.13135108 0 963.21360927 0 -7427.91192824 0 6338.29944964 0 7
0.00450000 0.00420575 24083.20659766 0 -10520.54092321 0 -2343.22605138 0 -7256.15478508 0 -95.43863262 0 24
0.00550000 0.00557378 40950.81467807 0 -16056.48272367 0 6303.81313319 0 -7686.05347228 0 4763.87770500 0 45
0.00650000 0.00659388 43218.50355654 0 -7619.21656304 0 -4282.55304070 0 -9797.03643891 0 -24265.41754601 0 40
0.00750000 0.00754703 65991.49990500 0 -10000.96432447 0 17017.67076768 0 -17719.64940583 0 -5247.82144092 0 57
0.00850000 0.00846663 63405.13857830 0 -2779.09352413 0 10835.41403149 0 -12876.50263187 0 -28936.58236378 0 75
0.00950000 0.00948925 73157.30233949 0 4061.93278880 0 22242.21282093 0 -13456.40780308 0 -3743.84485442 0 112
0.01050000 0.01054430 62368.18854837 0 1939.13589825 0 30555.68569507 0 -5303.91228807 0 -8511.67926847 0 105
0.01150000 0.01145670 72777.70556431 0 -4320.97358490 0 21495.94601890 0 3806.85994241 0 -18114.53346601 0 144
0.01250000 0.01249090 74603.97408857 0 -2699.73452997 0 29776.82100592 0 -105.66717516 0 -17300.48554007 0 169
0.01350000 0.01339930 85560.57357559 0 4212.71487771 0 18074.85396893 0 -422.20895804 0 -16934.60235877 0 180
0.01450000 0.01448870 75529.97889579 0 4101.36499157 0 25161.07259625 0 -8961.76616439 0 -14112.07496022 0 267
0.01550000 0.01550050 74457.05878352 0 5620.84243543 0 22564.70709041 0 -1451.85368907 0 -20990.11673601 0 238
0.01650000 0.01653350 71471.54194937 0 399.51520828 0 19720.03560991 0 -3018.82288227 0 -32634.41923475 0 315
0.01750000 0.01747870 76121.01231123 0 -385.75215553 0 20154.82398019 0 -2839.33217139 0 -44426.31147759 0 297
0.01850000 0.01844180 67158.05463786 0 4504.90435281 0 20586.35256175 0 -10796.60006451 0 -36489.51280945 0 388
0.01950000 0.01947590 70609.94607084 0 3023.86993445 0 37216.55809873 0 -17377.03437155 0 -24999.43203874 0 399
0.02050000 0.02045430 69698.10448354 0 3010.58348528 0 45426.50457963 0 -7095.78442110 0 -15401.49000557 0 462
0.02150000 0.02154770 72722.85118874 0 610.51009096 0 52060.73664106 0 3703.76069391 0 5625.61971199 0 571
0.02250000 0.02255340 75343.38409366 0 -751.85003325 0 68804.02312440 0 9861.32172044 0 11110.36034837 0 510
0.02350000 0.02348930 78808.08986847 0 1272.08196192 0 62244.20417080 0 18681.51188888 0 23096.95190252 0 555
0.02450000 0.02439640 82263.12868366 0 2288.40539777 0 65208.02654905 0 21140.62904930 0 17397.82957540 0 592
0.02550000 0.02547300 75497.83063470 0 4068.47484753 0 64364.64052470 0 18954.21007561 0 31555.65398410 0 837
0.02650000 0.02652900 75179.60781251 0 3301.24423188 0 59698.53399976 0 16877.94947909 0 27576.01399930 0 723
0.02750000 0.02749970 67649.49588782 0 3104.49912214 0 51173.06245284 0 14216.95023154 0 16061.31620348 0 826
0.02850000 0.02848090 67430.07838555 0 5059.41689402 0 49671.64873470 0 1953.20919297 0 12714.07522881 0 831
0.02950000 0.02946900 59462.59274091 0 4522.06882647 0 44825.01735902 0 1664.30198788 0 6978.27465835 0 996
0.03050000 0.03053250 58076.28328626 0 2135.39766002 0 40262.32482080 0 1387.44476038 0 6162.92281693 0 1041
0.03150000 0.03150510 58044.58465120 0 -511.18432890 0 33772.19790174 0 2126.49506464 0 -12972.83500864 0 1036
0.03250000 0.03246190 57735.80397562 0 -3020.46401727 0 33554.46649708 0 10377.49240201 0 -470.74159164 0 1059
0.03350000 0.03345080 60709.63053301 0 -3421.54167601 0 23261.29021621 0 4388.22639822 0 -27344.45659424 0 1302
0.03450000 0.03451200 63807.21665495 0 -1357.37601967 0 21755.94227031 0 4555.16130223 0 -11165.76551582 0 1339
0.03550000 0.03553350 62903.35592967 0 2717.28118576 0 16800.61380206 0 4069.54270935 0 -21109.26763376 0 1365
0.03650000 0.03647120 58262.42846237 0 3702.47925973 0 16149.78012474 0 -5203.19605752 0 -14634.76521921 0 1308
0.03750000 0.03744890 55449.23080392 0 6018.63782415 0 20632.88885578 0 -1100.18318656 0 -12251.41004472 0 1579
0.03850000 0.03847530 50378.34844616 0 5216.37010018 0 19025.02617522 0 -1248.31922628 0 -12775.67399482 0 1662
0.03950000 0.03950240 47202.97702116 0 3114.52578259 0 25570.79431540 0 -2193.41065844 0 -4027.17669674 0 1683
0.04050000 0.04050350 46207.72980544 0 -154.30603291 0 21034.40489989 0 1351.87934146 0 -10319.98523287 0 1822
0.04150000 0.04152450 48324.11952507 0 -1753.03568475 0 28436.37340625 0 5332.08135880 0 -3599.36877057 0 1887
0.04250000 0.04250150 48268.92792998 0 -759.66453364 0 23219.92462152 0 1470.28835626 0 -14059.80593432 0 1920
0.04350000 0.04349210 50103.85175531 0 -197.16663415 0 26707.56132382 0 3179.71031618 0 -3809.35536688 0 2005
0.04450000 0.04448520 48533.08322216 0 1368.23448828 0 22952.50954063 0 2648.45468133 0 -9257.97979246 0 2151
0.04550000 0.04548030 47975.32213288 0 1878.93097294 0 17820.92766891 0 4998.98715569 0 -3066.30339095 0 2274
0.04650000 0.04648670 45148.29847404 0 1007.90756064 0 18595.74572380 0 8975.72705260 0 -756.94991649 0 2311
0.04750000 0.04749250 44106.62737080 0 745.01346947 0 10618.26714067 0 6972.75549885 0 -1910.29238848 0 2568
0.04850000 0.04851840 43806.27718327 0 -349.58086554 0 8696.23951283 0 8294.18391748 0 219.43661138 0 2493
0.04950000 0.04949480 42191.55770576 0 47.82649592 0 3840.42452550 0 2228.89739280 0 -4262.08381572 0 2644
0.05050000 0.05050630 42226.29131652 0 572.24691587 0 2673.36396335 0 -140.39123137 0 -3173.49423633 0 2829
0.05150000 0.05149060 40906.30170118 0 531.95929958 0 2656.94137263 0 -2659.02089302 0 -5873.65591102 0 2784
0.05250000 0.05249300 39961.97463327 0 1795.53658517 0 -2047.93415668 0 -1642.49512546 0 -4713.41842387 0 3055
0.05350000 0.05348950 39027.53933800 0 1750.57398224 0 2615.59825925 0 -1457.92364046 0 -6712.91661655 0 3009
0.05450000 0.05448610 37042.89004494 0 1873.06335326 0 -235.88955185 0 -1601.54543485 0 -4796.41938887 0 3336
0.05550000 0.05550870 35825.75238379 0 1293.07949749 0 4696.06285914 0 -488.93683298 0 -3880.93583073 0 3349
0.05650000 0.05647670 35660.17759852 0 1259.40250790 0 4225.38309108 0 -274.25389280 0 -2340.44961065 0 3324
0.05750000 0.05747970 33856.95240825 0 862.35462245 0 6821.51254326 0 -175.29682408 0 -303.87862780 0 3639
0.05850000 0.05849280 33971.04501317 0 1323.45173577 0 9631.11319347 0 -897.45692656 0 -1032.52458574 0 3846
0.05950000 0.05951020 33248.94561021 0 855.91822585 0 11138.20344023 0 -180.56531708 0 947.29122751 0 3787
0.06050000 0.06049470 32225.93398719 0 878.45685463 0 10910.88376050 0 -125.58279810 0 -1208.07769666 0 3930
0.06150000 0.06148310 31402.55632114 0 425.28215195 0 10010.64252475 0 1066.45224184 0 140.56546146 0 4083
0.06250000 0.06249100 31128.73406933 0 46.34745109 0 10024.60341296 0 2241.26210860 0 -2374.71111408 0 4303
0.06350000 0.06350600 30937.41819389 0 13.87759499 0 7896.95056130 0 1359.96136934 0 -2417.13332994 0 4470
0.06450000 0.06451750 30511.39753119 0 -71.92442777 0 7387.05216284 0 1284.34551187 0 -4467.82144605 0 4479
0.06550000 0.06550280 31552.28178888 0 47.98004321 0 5176.18477381 0 105.65469804 0 -1946.44232123 0 4636
0.06650000 0.06648880 30451.59726930 0 200.22409115 0 6042.82770452 0 398.18768743 0 -1409.58884232 0 4653
0.06750000 0.06749660 31050.38673374 0 738.40733904 0 6368.53680010 0 589.22367067 0 32.11015528 0 5220
0.06850000 0.06852730 30204.97739226 0 1160.15880260 0 8041.29175733 0 -968.84405122 0 788.41924227 0 5029
0.06950000 0.06949320 29215.35050190 0 1564.08034596 0 7597.57831038 0 -1003.29889384 0 1056.94714758 0 5040
0.07050000 0.07048030 28333.85867158 0 1213.41700576 0 9377.45666908 0 -2465.41192483 0 1255.74929641 0 5475
0.07150000 0.07148790 27694.94008403 0 789.63772881 0 10880.85998239 0 -1644.40603609 0 -221.68361746 0 5509
0.07250000 0.07249820 27779.58218403 0 129.61706764 0 10784.03301700 0 -1831.18068863 0 -975.09610116 0 5916
0.07350000 0.07351270 27775.31073676 0 117.56933819 0 12253.09614233 0 -1524.88419686 0 -1740.40119333 0 5721
0.07450000 0.07449140 28033.50848405 0 257.65145167 0 12758.13857967 0 -571.59271000 0 -3110.67023939 0 6028
0.07550000 0.07549160 27515.76411138 0 444.32493835 0 14381.62576475 0 807.79587600 0 -531.74347909 0 6183
0.07650000 0.07648840 27645.48122081 0 508.74960395 0 12079.87771457 0 2642.76691206 0 -1221.30794257 0 6330
0.07750000 0.07749960 27091.65435930 0 422.02236324 0 13398.18123230 0 3609.24930256 0 2367.11243419 0 6583
0.07850000 0.07848650 26181.61127612 0 393.77123576 0 9024.90489955 0 4355.57230785 0 1627.87103886 0 6549
0.07950000 0.07947320 25667.80113120 0 285.88009785 0 10976.07953474 0 2705.39981793 0 3111.77182316 0 6828
0.08050000 0.08048110 24732.69139689 0 773.22975094 0 7182.59596669 0 1705.00438418 0 1992.01191929 0 7147
0.08150000 0.08149960 23753.85553124 0 1027.58881601 0 7144.49016071 0 696.53703913 0 1902.57006143 0 7386
0.08250000 0.08250610 22781.20202349 0 831.64741279 0 5742.06161291 0 -648.30902717 0 1704.68964596 0 7227
0.08350000 0.08350160 22235.69324351 0 370.93585380 0 6855.34690196 0 311.00407629 0 1908.39271850 0 7798
0.08450000 0.08449610 22412.95830554 0 94.07323078 0 6539.59702293 0 -469.14317110 0 989.05586530 0 7371
0.08550000 0.08548940 22062.47481575 0 79.62899459 0 6405.03519303 0 -20.75766008 0 -176.16123013 0 8256
0.08650000 0.08650700 22172.07116037 0 229.11593572 0 6834.65286396 0 -489.26730811 0 1641.68579861 0 8037
0.08750000 0.08749060 22074.50231203 0 157.47364829 0 7100.39308790 0 -184.52877053 0 252.27842062 0 8155
0.08850000 0.08849210 21963.21986979 0 222.37379341 0 7506.31546709 0 -407.90635405 0 1987.04355167 0 8718
0.08950000 0.08949900 21575.97945211 0 491.64920200 0 7296.14902038 0 -472.23547412 0 504.53773213 0 8571
0.09050000 0.09049190 21579.46405383 0 780.04158528 0 9142.96545418 0 -617.63104320 0 1502.12187913 0 8932
0.09150000 0.09150830 20778.56768925 0 354.06026485 0 9162.87264662 0 -103.37644295 0 1357.74696115 0 9285
0.09250000 0.09250820 20788.23464888 0 20.15482398 0 9612.18393764 0 344.38431271 0 2169.07464961 0 9204
0.09350000 0.09350330 21221.56173456 0 -315.77460847 0 8735.45814323 0 884.45598992 0 1454.00065336 0 9349
0.09450000 0.09448040 21016.53226523 0 -202.40365332 0 8191.63546086 0 1583.39178392 0 460.27766987 0 9564
0.09550000 0.09549270 21048.23090029 0 230.09499640 0 7238.24842846 0 1136.76700843 0 1033.32154788 0 10155
0.09650000 0.09649430 20264.30791831 0 463.08670849 0 4925.75431618 0 1713.86201695 0 -938.53026433 0 9913
0.09750000 0.09749140 19517.47908374 0 650.57289423 0 4262.31986938 0 1442.41154245 0 -73.34209864 0 10476
0.09850000 0.09850240 18654.75914014 0 566.50856367 0 2178.97766290 0 1115.24678260 0 -1419.87403774 0 10575
0.09950000 0.09950330 18320.01256137 0 388.70170228 0 2733.31035370 0 686.77903023 0 -524.21336717 0 10882
0.10050000 0.10051200 18198.50112697 0 283.57239225 0 2281.29006585 0 862.47377335 0 812.75075484 0 10875
0.10150000 0.10150300 17623.54184208 0 285.98800809 0 2790.24424965 0 487.13046040 0 1193.11639054 0 11118
0.10250000 0.10250800 17617.92151671 0 358.45873149 0 2785.62434220 0 283.81743844 0 2979.99767464 0 11575
0.10350000 0.10349800 17648.15886718 0 331.55423396 0 4157.21978505 0 -19.50230421 0 3833.48904400 0 11364
0.10450000 0.10450100 17145.47696649 0 321.71978864 0 3733.81819396 0 594.89795116 0 4447.71192189 0 12093
0.10550000 0.10551000 17090.17296489 0 100.55447759 0 4630.45118082 0 -225.28737008 0 4534.87192766 0 12067
0.10650000 0.10649700 16806.57134695 0 87.11335707 0 3250.44773123 0 189.04189180 0 3752.10673270 0 12054
0.10750000 0.10749900 16764.75612623 0 345.18914330 0 4028.06470815 0 -69.00287024 0 3226.65127363 0 12807
0.10850000 0.10850100 16438.55244202 0 443.49313020 0 3144.50459809 0 -349.61346343 0 2767.23463761 0 12736
0.10950000 0.10950300 15721.06170586 0 424.99551536 0 2952.01969497 0 278.76364187 0 1898.80444343 0 12933
0.11050000 0.11050200 15589.43368580 0 405.29964715 0 2951.30029333 0 175.53962214 0 1771.33546414 0 13428
0.11150000 0.11150900 15059.09978431 0 214.58514652 0 2820.66145053 0 161.79005817 0 1228.18722082 0 13453
0.11250000 0.11250000 15436.11120983 0 114.77828461 0 3056.51278417 0 21.35150366 0 1282.04117847 0 13668
0.11350000 0.11349100 15139.35803053 0 102.91175445 0 3115.18898098 0 -272.18224087 0 1322.21526419 0 13791
0.11450000 0.11448600 15259.74539986 0 78.21345944 0 3007.33493722 0 -299.65214312 0 1388.49014089 0 14205
0.11550000 0.11549300 15330.56149946 0 84.07051291 0 4020.55595346 0 -286.49945770 0 1708.80372413 0 14776
0.11650000 0.11649800 15449.26277118 0 156.39229769 0 3926.32557838 0 -67.51517011 0 1507.60731669 0 14553
0.11750000 0.11747300 15234.90356174 0 97.62729973 0 3939.49962104 0 -430.91709016 0 1443.35575711 0 14568
0.11850000 0.11849100 15222.76365895 0 123.20652453 0 4510.24366191 0 -11.08760927 0 2408.28693781 0 16015
0.11950000 0.11950300 15018.74584818 0 182.26827567 0 4166.42587800 0 416.34246243 0 1436.55516342 0 15270
0.12050000 0.12050700 14920.27774778 0 160.17702479 0 4528.75701366 0 699.15049043 0 2235.66426454 0 15999
0.12150000 0.12150000 14714.68624591 0 287.45716114 0 4033.43773920 0 355.06293090 0 1797.67230880 0 15670
0.12250000 0.12250700 14322.94956794 0 303.59985966 0 4158.88340136 0 444.28334795 0 2012.57106948 0 16887
0.12350000 0.12352200 14029.68099036 0 284.66161131 0 3362.66314748 0 806.17047791 0 1556.87508885 0 16407
0.12450000 0.12449800 13717.07849354 0 252.67296746 0 3063.83044779 0 255.30890005 0 1541.31802823 0 16306
0.12550000 0.12549900 13553.52702540 0 194.49585553 0 2712.80740677 0 485.50843450 0 1408.94812523 0 17523
0.12650000 0.12650100 13246.09522791 0 125.33550378 0 2346.26102708 0 323.91283959 0 1345.23611688 0 17154
0.12750000 0.12750600 13214.39659285 0 206.98646663 0 2514.51108722 0 185.49771462 0 1884.71990807 0 18007
0.12850000 0.12850300 13126.49470413 0 168.64460698 0 2327.84884118 0 186.42844050 0 1672.81116048 0 17496
0.12950000 0.12949900 13061.74855592 0 207.20116305 0 3026.51148737 0 -63.77877781 0 2763.15428139 0 18405
0.13050000 0.13049000 12874.47931474 0 313.94125833 0 3051.76922956 0 -396.62186478 0 1756.22802956 0 18100
0.13150000 0.13148800 12655.96106453 0 333.23133905 0 4144.83258794 0 -705.68805289 0 3183.64454394 0 19059
0.13250000 0.13249300 12592.22657489 0 240.81857720 0 3962.56543634 0 -450.09026811 0 2096.66237760 0 18957
0.13350000 0.13349100 12448.00902601 0 304.15514780 0 4385.04529406 0 -314.19979330 0 1988.58352082 0 19468
0.13450000 0.13450700 11995.01080155 0 169.17741383 0 3905.33928347 0 -10.33782415 0 1125.76241136 0 19953
0.13550000 0.13551000 11992.08823236 0 140.62391284 0 3550.19092362 0 339.95886851 0 600.45083262 0 19956
0.13650000 0.13649900 11606.98353831 0 182.69991666 0 2907.24818311 0 553.60766883 0 -471.85441606 0 19723
0.13750000 0.13749600 11394.64764601 0 167.79706192 0 2375.70029134 0 575.54155060 0 -736.67290663 0 20946
0.13850000 0.13851100 11043.62460498 0 91.29600320 0 1847.74940781 0 375.13648498 0 -923.46329609 0 20955
0.13950000 0.13949800 10986.70194968 0 137.81262609 0 1585.99961489 0 348.27695005 0 -736.14459605 0 20506
0.14050000 0.14048300 10945.05533872 0 51.14147622 0 1435.03767557 0 316.25795645 0 -365.06261379 0 21447
0.14150000 0.14148400 10895.88873242 0 46.14309606 0 1612.08916524 0 151.75440519 0 -478.98323675 0 21771
0.14250000 0.14249400 11009.44178611 0 133.66482597 0 1952.65840108 0 -268.28847945 0 224.51738551 0 22470
0.14350000 0.14350900 10939.96332394 0 55.40089601 0 2032.91664730 0 -131.01990086 0 380.39935765 0 22519
0.14450000 0.14449900 10902.67808546 0 77.53340008 0 2180.76492637 0 -176.18033923 0 750.37301174 0 22218
0.14550000 0.14550500 11066.30823815 0 47.77377727 0 2919.62413957 0 -367.90762249 0 646.22950678 0 23559
0.14650000 0.14650700 11117.36327377 0 -42.84879855 0 2736.82867738 0 -180.55744863 0 291.64317948 0 23044
0.14750000 0.14750500 11159.99906200 0 0.36430050 0 3213.84817245 0 -365.11207265 0 742.62707932 0 23649
0.14850000 0.14849900 11218.07950432 0 2.43595018 0 3281.97775653 0 -481.42470609 0 144.66492678 0 23640
0.14950000 0.14949500 11151.89455282 0 172.48216514 0 3912.80307555 0 -238.03539207 0 664.90135171 0 24457
0.15050000 0.15050000 11053.43769307 0 294.92095323 0 3763.58343710 0 66.70887823 0 -46.75481228 0 24591
0.15150000 0.15149900 10616.35623004 0 421.19954761 0 3503.14880031 0 119.18124751 0 344.14263871 0 25020
0.15250000 0.15250500 10298.96521600 0 497.28751240 0 3484.47807945 0 173.48707932 0 158.72922897 0 25297
0.15350000 0.15350100 9831.61268056 0 424.66166803 0 3104.44291889 0 476.32931912 0 -182.75499584 0 25452
0.15450000 0.15450400 9469.82109613 0 336.49787215 0 2751.64385504 0 400.16491789 0 113.24730798 0 26061
0.15550000 0.15549900 9229.31613309 0 139.99331233 0 2463.98436219 0 300.16359273 0 -497.54829550 0 26128
0.15650000 0.15649500 9098.19394231 0 6.56803587 0 2398.45136842 0 296.33390303 0 -231.46635579 0 26331
0.15750000 0.15749700 9122.75476416 0 -36.50524972 0 2209.77704590 0 192.10946538 0 -291.43747557 0 27345
0.15850000 0.15849900 9255.45064604 0 -83.48352613 0 2276.85000882 0 228.23354464 0 435.39761354 0 26980
0.15950000 0.15949700 9201.46180058 0 23.66853899 0 2264.26048000 0 46.97186924 0 109.92221109 0 27777
0.16050000 0.16050000 9320.66890158 0 49.91838102 0 2409.44472484 0 111.61145608 0 913.03422034 0 28224
0.16150000 0.16150500 9286.02521603 0 128.53346891 0 2712.51514985 0 -65.63033780 0 519.34616540 0 28075
0.16250000 0.16249700 9246.59301327 0 113.60813287 0 2569.98369858 0 -51.90932508 0 902.85356297 0 28590
0.16350000 0.16349900 9094.22599261 0 84.89512705 0 2810.65727138 0 127.75898808 0 1061.88179326 0 29163
0.16450000 0.16449100 9051.19678161 0 75.24795097 0 2716.10091743 0 9.33339332 0 764.11807946 0 28996
0.16550000 0.16550500 8933.97927579 0 88.70357193 0 2460.65712957 0 101.54444170 0 545.86510860 0 30777
0.16650000 0.16650700 8907.74359698 0 168.38494795 0 2414.59294287 0 227.88508446 0 579.58481267 0 29211
0.16750000 0.16749900 8791.02067979 0 134.33701689 0 2248.11890555 0 292.08156485 0 819.47491211 0 30922
0.16850000 0.16850800 8713.33654259 0 94.26229853 0 1927.68167516 0 288.06190815 0 607.46162648 0 30867
0.16950000 0.16949900 8626.07537096 0 128.15690711 0 2049.84506730 0 117.29169412 0 626.57185679 0 30852
0.17050000 0.17049200 8477.40652439 0 126.04478884 0 1720.17926267 0 34.32894733 0 276.93928425 0 31257
0.17150000 0.17149500 8338.44960006 0 110.63340706 0 1901.52468091 0 -245.37553700 0 206.18838042 0 32608
0.17250000 0.17250900 8395.47342122 0 5.75099793 0 1857.13535117 0 -206.52784808 0 246.81209217 0 32361
0.17350000 0.17350400 8366.29269192 0 -10.32136783 0 1904.15499318 0 -164.05504929 0 -381.62908484 0 32508
0.17450000 0.17449800 8492.09805490 0 8.27964976 0 1855.14575599 0 -38.89029099 0 -342.51724062 0 32791
0.17550000 0.17549800 8350.91548172 0 61.01672511 0 2004.30919119 0 -57.58922589 0 -653.85628831 0 33633
0.17650000 0.17650100 8392.76442439 0 103.21491480 0 2006.60228394 0 10.71998379 0 -471.53967784 0 33984
0.17750000 0.17750300 8337.98873338 0 118.58661708 0 1955.35615726 0 191.72278700 0 -211.83006303 0 34069
