### header ###
fiducial parameters:
Omega_m = 0.31
Omega_nu = 0
Omega_de = 0.69
Omega_k = 0
H_0 = 100
w_de = -1
zeff = 0
beta = 0
fgrowth = 0
b_1 = 2
gamma = 0.55
Lx = 3500 Ly = 3500 Lz = 3500
nx = 700 ny = 700 nz = 700
xoffset = 857.220397 yoffset = 15.9954215 zoffset = 262.898189
bins = 400 dk = 0.001
kx_ny = 0.628318531 ky_ny = 0.628318531 kz_ny = 0.628318531
############################
A(data) = 3.09006088 (not used)
A(ran) = 3.08943002 (used)
Ngal = 188758
weighted Ngal = 0
Nran = 9360983
weighted Nran = 0
SN(data) = 3441.05281
SN(ran) = 69.3769876
SN(data+ran) = 3510.4298
############################
13 columns: k_central k_mean P_0(k) sigma^{lin}_{P_0(k)} P^img_1(k) sigma^{lin}_{P_1(k)} P_2(k) sigma^{lin}_{P_2(k)} P^img_3(k) sigma^{lin}_{P_3(k)} P_4(k) sigma^{lin}_{P_4(k)} N_modes
### header ###
0.00050000 0 0 0 0 0 0 0 0 0 0 0 0
0.00150000 0.00179520 10772.47762805 0 -14665.90182174 0 -3921.27852620 0 25362.16783783 0 -30943.71295830 0 3
0.00250000 0.00253879 23615.82034026 0 -17649.05811924 0 5168.56361262 0 -23260.72818367 0 14529.32791536 0 6
0.00350000 0.00331552 27286.79205599 0 -7595.94841602 0 -11592.14587935 0 11665.32251561 0 33964.75024876 0 7
0.00450000 0.00420575 38247.55058378 0 -6919.95816236 0 -7362.92972637 0 -16772.73698825 0 5014.29692198 0 24
0.00550000 0.00557378 52987.64070034 0 -18339.57129364 0 -10522.95766312 0 3257.55182249 0 20587.92625285 0 45
0.00650000 0.00659388 80752.49763192 0 -21416.69943125 0 -35703.11688431 0 17971.66479522 0 -6987.63812041 0 40
0.00750000 0.00754703 96998.83494643 0 -21691.42093512 0 -31755.96238012 0 -644.96493358 0 -3751.66834732 0 57
0.00850000 0.00846663 118897.98310706 0 -11399.14390630 0 -5257.54460380 0 -22579.76956239 0 -20797.22716947 0 75
0.00950000 0.00948925 123785.41804489 0 5876.48855500 0 23926.17470694 0 -47396.20380722 0 -10061.30413760 0 112
0.01050000 0.01054430 120720.09259055 0 8586.60944625 0 26941.25445252 0 -31062.30182351 0 4615.05148932 0 105
0.01150000 0.01145670 115285.23796212 0 10315.61261973 0 66208.33205760 0 -18741.42455727 0 -2267.99237604 0 144
0.01250000 0.01249090 111521.41847135 0 4250.12376334 0 63900.17683649 0 16166.52869433 0 -5578.28533176 0 169
0.01350000 0.01339930 115959.67700598 0 -5862.58387005 0 75909.68807749 0 40104.28127152 0 8983.14588208 0 180
0.01450000 0.01448870 109029.02898477 0 -1358.98343273 0 42614.76820578 0 41371.66464144 0 1437.88156021 0 267
0.01550000 0.01550050 112407.63137498 0 -1734.62349885 0 48055.46797260 0 37005.45867800 0 12662.81786148 0 238
0.01650000 0.01653350 105530.03922523 0 1165.35198323 0 15922.83138648 0 19496.57147338 0 11271.45011399 0 315
0.01750000 0.01747870 107963.30288897 0 4613.32042911 0 29127.33620668 0 10667.71476323 0 41850.06673655 0 297
0.01850000 0.01844180 103568.88289219 0 2260.15764248 0 25591.58951925 0 -5816.26114839 0 33625.17019018 0 388
0.01950000 0.01947590 102452.79868111 0 2232.46067908 0 22047.18753075 0 -2433.48847675 0 25480.64429653 0 399
0.02050000 0.02045430 99919.15600635 0 4610.29669406 0 24853.41598574 0 -3156.31852201 0 36944.64675755 0 462
0.02150000 0.02154770 95602.18409311 0 5320.86318937 0 42961.31746782 0 -4874.83416837 0 21294.96318383 0 571
0.02250000 0.02255340 90560.97705327 0 6309.57958702 0 35015.41387259 0 4167.28016745 0 16009.38439711 0 510
0.02350000 0.02348930 87555.67667384 0 6013.33223700 0 50526.72503581 0 -8818.15561065 0 9149.86721373 0 555
0.02450000 0.02439640 78080.93217268 0 8019.17015669 0 30037.04207034 0 8376.87014426 0 -11224.10449312 0 592
0.02550000 0.02547300 76864.46895058 0 5463.47332520 0 46955.23307905 0 -914.41344819 0 3299.40076516 0 837
0.02650000 0.02652900 65950.02190380 0 3897.21229299 0 26853.91459634 0 11817.63333301 0 -5411.66516598 0 723
0.02750000 0.02749970 73225.98271546 0 996.54438682 0 44031.98944995 0 10147.57613196 0 17496.85970834 0 826
0.02850000 0.02848090 64981.07781079 0 -960.16064853 0 28486.16948899 0 10095.68928818 0 7484.13766320 0 831
0.02950000 0.02946900 73013.08479062 0 -1183.51687482 0 35367.80827301 0 15108.78346054 0 19372.47468931 0 996
0.03050000 0.03053250 67889.93340695 0 2556.55112096 0 27753.05424831 0 7372.24822582 0 20936.94845805 0 1041
0.03150000 0.03150510 65662.48605810 0 4601.66387430 0 27864.67391007 0 10242.30109567 0 21091.95703163 0 1036
0.03250000 0.03246190 61426.89645615 0 5694.69351073 0 24921.64673568 0 6983.58024550 0 22880.45696944 0 1059
0.03350000 0.03345080 55546.01280671 0 4351.69428335 0 17360.17339545 0 5975.11402452 0 8184.45268504 0 1302
0.03450000 0.03451200 50253.46481653 0 4274.15627460 0 12201.05192945 0 -2099.86596306 0 6007.38593277 0 1339
0.03550000 0.03553350 46906.56106138 0 2189.11672986 0 11315.51346486 0 -4034.26954735 0 -3632.37132112 0 1365
0.03650000 0.03647120 45427.17901868 0 1534.95581992 0 12863.01385100 0 -7446.96483123 0 -2507.59808702 0 1308
0.03750000 0.03744890 45866.91327527 0 620.29058116 0 18517.17357519 0 -6196.01529268 0 -5392.45489388 0 1579
0.03850000 0.03847530 46096.89698923 0 580.07153284 0 18624.97141570 0 -3650.96335743 0 -4440.41673956 0 1662
0.03950000 0.03950240 46744.13365832 0 864.73988854 0 24341.40434495 0 -703.14316957 0 -3052.47739056 0 1683
0.04050000 0.04050350 46117.69219308 0 1522.06279353 0 24534.63113101 0 1584.48212704 0 -2626.05206442 0 1822
0.04150000 0.04152450 46628.35495579 0 1066.45336591 0 29211.75349367 0 4850.00357090 0 8217.59012340 0 1887
0.04250000 0.04250150 43472.54226306 0 382.45976893 0 25694.32906693 0 5155.31088541 0 -1918.99265214 0 1920
0.04350000 0.04349210 44072.79301210 0 397.37948464 0 26623.70606937 0 6657.50020844 0 13480.57520216 0 2005
0.04450000 0.04448520 42986.49652546 0 812.81819875 0 20439.77447622 0 5648.39327037 0 3604.12356583 0 2151
0.04550000 0.04548030 43712.08053014 0 613.91376000 0 22416.55531377 0 7463.63471627 0 16172.93586524 0 2274
0.04650000 0.04648670 42755.38874643 0 1053.05900650 0 20963.81361330 0 4519.70828982 0 13574.09741624 0 2311
0.04750000 0.04749250 40637.08811617 0 1249.40956940 0 19228.48195345 0 6312.73820987 0 12578.85020052 0 2568
0.04850000 0.04851840 41472.71809151 0 1333.30978646 0 17678.84584367 0 3778.03891394 0 21201.55337626 0 2493
0.04950000 0.04949480 39058.67594053 0 662.93536190 0 17363.09596464 0 4458.24441162 0 19343.13659090 0 2644
0.05050000 0.05050630 39664.54701493 0 1312.13240048 0 18104.30447384 0 2075.91213635 0 22516.82191829 0 2829
0.05150000 0.05149060 39032.93485035 0 187.53789273 0 19825.69772679 0 1192.23961978 0 20499.23751859 0 2784
0.05250000 0.05249300 38242.26747793 0 725.46148159 0 17484.27017952 0 114.10384557 0 21158.27687094 0 3055
0.05350000 0.05348950 39095.99490095 0 -51.34774217 0 18621.14959445 0 -215.56195907 0 18918.01518026 0 3009
0.05450000 0.05448610 38136.71776757 0 466.77476599 0 18902.61548876 0 -765.45571689 0 20005.43573197 0 3336
0.05550000 0.05550870 38584.88251221 0 71.41129206 0 18403.53059630 0 1509.49574601 0 14193.23245850 0 3349
0.05650000 0.05647670 38189.43641950 0 474.18572702 0 18749.29301279 0 708.40042191 0 14137.70364389 0 3324
0.05750000 0.05747970 37715.98021071 0 784.89417420 0 16692.02911600 0 2538.85833670 0 9941.97338944 0 3639
0.05850000 0.05849280 37391.79984363 0 489.72367853 0 14789.66138629 0 2099.65239069 0 9744.73369106 0 3846
0.05950000 0.05951020 35432.55442122 0 972.66250027 0 12941.92321913 0 2445.08882831 0 7248.58982713 0 3787
0.06050000 0.06049470 35156.48403926 0 786.94222077 0 13876.24610789 0 2099.07911751 0 5315.82737784 0 3930
0.06150000 0.06148310 34080.97857732 0 306.90910723 0 10892.92120063 0 1469.01816273 0 3611.99202134 0 4083
0.06250000 0.06249100 34203.83888981 0 492.12805372 0 9540.09764450 0 1656.64710473 0 3243.23123346 0 4303
0.06350000 0.06350600 32674.99798389 0 -200.74453327 0 7799.03325278 0 2082.36426987 0 3585.23927260 0 4470
0.06450000 0.06451750 33175.54416094 0 -295.31999633 0 7876.60498347 0 911.70107916 0 2014.35833295 0 4479
0.06550000 0.06550280 34370.20052063 0 -128.15016272 0 5341.41109891 0 165.61412755 0 3507.83615167 0 4636
0.06650000 0.06648880 33438.23816852 0 281.45015739 0 8024.64435360 0 1393.68332153 0 4643.08567224 0 4653
0.06750000 0.06749660 33216.23531659 0 427.09302078 0 6373.33655796 0 1016.33580056 0 5927.94825405 0 5220
0.06850000 0.06852730 33288.51270079 0 -118.44723301 0 6299.84518349 0 2237.71006297 0 7206.10016737 0 5029
0.06950000 0.06949320 33126.31011074 0 24.98931545 0 6957.60310166 0 1749.22510415 0 6694.88661278 0 5040
0.07050000 0.07048030 33785.46186960 0 -44.94776526 0 6123.63674263 0 8.96647600 0 7659.10963248 0 5475
0.07150000 0.07148790 32811.57189027 0 1010.66152007 0 7667.65252704 0 -900.65713982 0 6804.29186634 0 5509
0.07250000 0.07249820 31595.89551371 0 2043.91000372 0 9301.90825551 0 -2246.44404859 0 6517.88008571 0 5916
0.07350000 0.07351270 30260.61861338 0 2134.81314618 0 9742.17082269 0 -2835.89253227 0 5500.79228562 0 5721
0.07450000 0.07449140 29002.22776404 0 1552.92962044 0 11295.39270005 0 -803.94932532 0 5516.76525031 0 6028
0.07550000 0.07549160 27932.11781445 0 855.00548501 0 11350.02226260 0 -1188.01313511 0 1888.23823174 0 6183
0.07650000 0.07648840 27782.39234672 0 326.25314308 0 12716.43576546 0 -202.65544390 0 2906.51754081 0 6330
0.07750000 0.07749960 27211.14247657 0 656.77773343 0 11986.01828096 0 -1205.55979090 0 1201.43447208 0 6583
0.07850000 0.07848650 27317.14181296 0 800.21630521 0 13815.77140695 0 -760.12877251 0 2278.03027714 0 6549
0.07950000 0.07947320 25989.05892910 0 552.07669220 0 12827.83061421 0 607.87753056 0 986.78862605 0 6828
0.08050000 0.08048110 26102.92672100 0 465.36518839 0 13281.27846470 0 1054.82603679 0 1279.10736863 0 7147
0.08150000 0.08149960 25772.45158951 0 284.13667292 0 12960.80751235 0 1545.66816007 0 2376.17239867 0 7386
0.08250000 0.08250610 25347.44258537 0 443.35149800 0 12663.94192655 0 1106.40825893 0 673.64320579 0 7227
0.08350000 0.08350160 24752.69975519 0 505.52353719 0 11812.01300765 0 752.89091751 0 1106.50717666 0 7798
0.08450000 0.08449610 23929.77171518 0 659.51708001 0 11259.64743073 0 202.82630179 0 918.76807628 0 7371
0.08550000 0.08548940 23835.35024904 0 240.12727718 0 10530.79239668 0 930.05368961 0 -160.24222056 0 8256
0.08650000 0.08650700 23687.98531795 0 116.14851994 0 9497.82155710 0 666.60655843 0 -1524.68186515 0 8037
0.08750000 0.08749060 23192.49743373 0 155.12435228 0 8599.60363849 0 940.45915999 0 -3054.93909307 0 8155
0.08850000 0.08849210 23097.17671553 0 680.29429883 0 8073.83344120 0 515.67496887 0 -2503.76502512 0 8718
0.08950000 0.08949900 22112.04608547 0 988.04420673 0 7036.91713322 0 633.98731407 0 -4508.69245210 0 8571
0.09050000 0.09049190 21154.67986271 0 1117.67588722 0 7479.82125332 0 -37.84715860 0 -2283.81921227 0 8932
0.09150000 0.09150830 20411.22322336 0 622.86581424 0 6547.37555323 0 481.95076855 0 -3628.56074052 0 9285
0.09250000 0.09250820 20208.21707116 0 259.63767465 0 7274.65689618 0 1087.58803741 0 -2307.32341295 0 9204
0.09350000 0.09350330 19838.28725560 0 286.82768470 0 6071.30027282 0 512.82433984 0 -2074.48457371 0 9349
0.09450000 0.09448040 19458.12844788 0 350.00126588 0 6902.56887568 0 166.50101489 0 -2689.87647928 0 9564
0.09550000 0.09549270 19206.45027802 0 475.26370543 0 6804.91010213 0 614.22512602 0 -516.51239735 0 10155
0.09650000 0.09649430 18179.84164675 0 657.68597801 0 6001.99042042 0 393.45200128 0 -1210.64056503 0 9913
0.09750000 0.09749140 18078.22616415 0 554.95092659 0 6111.09217641 0 1014.64745482 0 456.56825513 0 10476
0.09850000 0.09850240 17369.16591603 0 319.84259996 0 6095.95101988 0 994.40304285 0 -73.01207313 0 10575
0.09950000 0.09950330 17272.49631975 0 85.89127352 0 5331.48560431 0 1147.15336970 0 797.96929913 0 10882
0.10050000 0.10051200 16986.75897817 0 -6.81434101 0 4591.01897806 0 615.12662621 0 -139.29864012 0 10875
0.10150000 0.10150300 17077.13381004 0 -162.20034192 0 4042.13800286 0 161.20217213 0 -616.85543829 0 11118
0.10250000 0.10250800 17028.68660539 0 -228.15486008 0 3916.87219112 0 321.50509221 0 -488.36693198 0 11575
0.10350000 0.10349800 17181.10982931 0 -149.11172821 0 3362.55074097 0 307.55094839 0 -982.56551357 0 11364
0.10450000 0.10450100 17364.78206225 0 -87.48216282 0 3191.54672140 0 208.75124879 0 -505.21104710 0 12093
0.10550000 0.10551000 17305.20661338 0 251.38816108 0 3586.99281412 0 -294.98952120 0 -1094.01206930 0 12067
0.10650000 0.10649700 17301.60960514 0 513.42908685 0 4229.29483754 0 -651.93413703 0 137.41470706 0 12054
0.10750000 0.10749900 17024.63997113 0 528.55900274 0 5112.13554595 0 -795.27266702 0 522.95666241 0 12807
0.10850000 0.10850100 16876.03856847 0 361.72976085 0 6092.92728483 0 -224.75456324 0 1800.60611865 0 12736
0.10950000 0.10950300 16912.68308985 0 34.14325178 0 6002.60865621 0 281.97734391 0 1976.45485868 0 12933
0.11050000 0.11050200 16833.21168918 0 -114.76254770 0 6323.31566221 0 1221.83625316 0 2065.97540110 0 13428
0.11150000 0.11150900 17027.45013381 0 -7.05510451 0 5652.78836481 0 581.87678135 0 2332.00788195 0 13453
0.11250000 0.11250000 16684.04825398 0 180.15728146 0 5205.00580229 0 717.59527421 0 1086.29873477 0 13668
0.11350000 0.11349100 16701.47126261 0 504.81650026 0 5173.76803391 0 -127.44537392 0 2048.09152579 0 13791
0.11450000 0.11448600 16060.52935793 0 278.56131016 0 5255.53252732 0 -340.73784561 0 725.71889249 0 14205
0.11550000 0.11549300 16149.33049871 0 112.10390899 0 5297.11169438 0 -53.18772428 0 825.24586220 0 14776
0.11650000 0.11649800 16019.16376324 0 159.57002965 0 5448.98412640 0 -339.55870135 0 272.22945160 0 14553
0.11750000 0.11747300 16103.01901770 0 260.02435303 0 6343.80736849 0 -265.89759304 0 971.11915893 0 14568
0.11850000 0.11849100 15850.10437625 0 476.72049376 0 5427.82922173 0 437.12754969 0 890.76424311 0 16015
0.11950000 0.11950300 15487.81820319 0 284.28167731 0 5770.68030967 0 1026.17024588 0 1192.66676451 0 15270
0.12050000 0.12050700 15253.33822894 0 295.29414283 0 5438.96870660 0 844.45051397 0 1857.77606826 0 15999
0.12150000 0.12150000 14931.96802454 0 346.78306757 0 5129.74964564 0 1050.99185083 0 971.17873438 0 15670
0.12250000 0.12250700 14547.76258256 0 388.54208504 0 5097.92736342 0 274.93170403 0 2723.35113715 0 16887
0.12350000 0.12352200 14156.25071760 0 265.66715970 0 4575.67548981 0 -216.85350984 0 2054.36380890 0 16407
0.12450000 0.12449800 14329.35673885 0 269.05846403 0 5533.18784103 0 -419.72140203 0 2939.16039054 0 16306
0.12550000 0.12549900 14033.72762463 0 69.59761307 0 5441.01450503 0 -199.21355665 0 2294.29549875 0 17523
0.12650000 0.12650100 13915.58838545 0 88.22573186 0 5618.40321422 0 -69.00219580 0 2217.26331929 0 17154
0.12750000 0.12750600 13975.27624083 0 97.16429733 0 5388.19468725 0 -44.51185283 0 1980.25419863 0 18007
0.12850000 0.12850300 13862.64492050 0 20.56173554 0 5242.43716922 0 462.66181189 0 1143.05053218 0 17496
0.12950000 0.12949900 13762.15350297 0 47.61078783 0 4690.57742158 0 575.30774506 0 946.88206782 0 18405
0.13050000 0.13049000 13618.38558012 0 -147.40314930 0 4088.73050014 0 552.53643481 0 414.56531554 0 18100
0.13150000 0.13148800 13628.05253975 0 -15.18240972 0 3487.08591042 0 718.62042156 0 1141.80281995 0 19059
0.13250000 0.13249300 13876.69573392 0 -14.89622276 0 3535.27458010 0 397.16703634 0 1020.93772297 0 18957
0.13350000 0.13349100 13661.10005290 0 59.71775551 0 3282.87700859 0 601.36806972 0 1853.09995756 0 19468
0.13450000 0.13450700 13742.14514467 0 158.14134294 0 3600.51531695 0 270.88844197 0 2079.97001126 0 19953
0.13550000 0.13551000 13620.74611677 0 182.67968348 0 3868.90833445 0 244.21550185 0 2600.46834336 0 19956
0.13650000 0.13649900 13480.57520216 0 339.79700314 0 3727.25365394 0 216.52415877 0 2546.97408653 0 19723
0.13750000 0.13749600 13045.78683188 0 386.37938384 0 3972.65954070 0 -26.59571685 0 2202.31325382 0 20946
0.13850000 0.13851100 12786.57742602 0 448.63460385 0 3384.29015948 0 -22.17566817 0 1712.32204780 0 20955
0.13950000 0.13949800 12401.24791897 0 274.71138728 0 3474.83360112 0 213.62969121 0 1481.64141350 0 20506
0.14050000 0.14048300 12183.74132732 0 152.17143334 0 3189.07377824 0 -155.91457003 0 888.96573900 0 21447
0.14150000 0.14148400 11844.38608175 0 226.49911223 0 2802.95742563 0 329.40277341 0 472.37823038 0 21771
0.14250000 0.14249400 11814.26113779 0 179.67280941 0 3301.13182538 0 -23.30321784 0 619.71168765 0 22470
0.14350000 0.14350900 11525.26400750 0 208.61973318 0 3201.37105014 0 59.25812530 0 720.82808536 0 22519
0.14450000 0.14449900 11637.10848227 0 251.08915977 0 3454.24072898 0 57.69027934 0 1242.83378872 0 22218
0.14550000 0.14550500 11473.89423366 0 178.98600565 0 3896.43668809 0 -3.09849661 0 1614.59583035 0 23559
0.14650000 0.14650700 11214.48249609 0 257.70091053 0 3822.92283231 0 85.90622359 0 1528.90834983 0 23044
0.14750000 0.14750500 11219.38341981 0 175.93641711 0 3979.08919291 0 116.37895328 0 2006.84957826 0 23649
0.14850000 0.14849900 10850.00439614 0 182.77972528 0 3723.89269937 0 248.20480879 0 1326.03708543 0 23640
0.14950000 0.14949500 10841.46150158 0 49.71413839 0 3395.11490614 0 649.36789647 0 1456.05769244 0 24457
0.15050000 0.15050000 10613.91700883 0 90.04727931 0 2969.76868248 0 494.93034795 0 911.74266957 0 24591
0.15150000 0.15149900 10539.16668147 0 173.59161737 0 2382.43344113 0 278.30052706 0 939.09791719 0 25020
0.15250000 0.15250500 10388.28342671 0 170.62183745 0 2347.18276044 0 208.56352992 0 820.76309069 0 25297
0.15350000 0.15350100 10143.72058876 0 211.06907097 0 2106.76772261 0 -51.15710073 0 1086.15710257 0 25452
0.15450000 0.15450400 10004.20163188 0 302.36001588 0 2379.07248656 0 -108.61975689 0 1252.44454510 0 26061
0.15550000 0.15549900 9763.33696802 0 258.90928048 0 2595.42129118 0 -184.13759588 0 1295.23770243 0 26128
0.15650000 0.15649500 9638.63318881 0 193.50555420 0 2777.93573710 0 -319.00741962 0 1273.95915060 0 26331
0.15750000 0.15749700 9587.45450603 0 40.84919920 0 3160.03917740 0 -224.58482941 0 943.69309521 0 27345
0.15850000 0.15849900 9692.57707167 0 -100.50929017 0 2836.12858594 0 -36.17466218 0 918.51516164 0 26980
0.15950000 0.15949700 9819.86620055 0 -165.81308706 0 2926.31232675 0 -188.14151568 0 712.97087050 0 27777
0.16050000 0.16050000 9853.16100801 0 10.32985452 0 2737.78413269 0 125.59965907 0 49.46482076 0 28224
0.16150000 0.16150500 9864.69391566 0 163.16928601 0 2881.25979862 0 -110.55314882 0 -157.37922682 0 28075
0.16250000 0.16249700 9540.35617947 0 260.17160556 0 2419.84232676 0 -120.30194038 0 -637.85297386 0 28590
0.16350000 0.16349900 9403.44505357 0 204.32580460 0 2733.72625778 0 -54.68126955 0 -357.27284283 0 29163
0.16450000 0.16449100 9384.68440750 0 96.35362159 0 2711.05386525 0 32.68444013 0 -745.26188786 0 28996
0.16550000 0.16550500 9274.48106773 0 -27.75485275 0 2628.00793765 0 331.12933736 0 -443.63139020 0 30777
0.16650000 0.16650700 9314.45282173 0 -39.51313545 0 2580.16772814 0 350.44751971 0 -817.34705693 0 29211
0.16750000 0.16749900 9324.13102201 0 5.21719067 0 2055.57779918 0 269.24281070 0 -555.04759619 0 30922
0.16850000 0.16850800 9316.40869496 0 90.89268866 0 2007.07439127 0 375.24327116 0 -596.78300828 0 30867
0.16950000 0.16949900 9152.94715203 0 114.24098151 0 1776.25886916 0 139.26154597 0 -552.95571108 0 30852
0.17050000 0.17049200 9058.07605986 0 147.73025223 0 1751.15849608 0 82.13880709 0 -630.65558520 0 31257
0.17150000 0.17149500 8874.41506756 0 166.12894935 0 1598.58914371 0 -112.43348487 0 -844.72253772 0 32608
0.17250000 0.17250900 8779.16179327 0 163.40196748 0 1699.03559864 0 -76.06447184 0 -551.00770631 0 32361
0.17350000 0.17350400 8683.63874336 0 140.32715966 0 1735.50026961 0 -86.51276910 0 -776.06576712 0 32508
0.17450000 0.17449800 8513.82623276 0 84.23237829 0 1854.34766979 0 124.68916636 0 -665.81971288 0 32791
0.17550000 0.17549800 8531.77755198 0 219.02070730 0 1783.50908888 0 23.84052095 0 -905.62663151 0 33633
0.17650000 0.17650100 8317.58695230 0 167.59922646 0 2050.51950635 0 -29.03032939 0 -667.34057292 0 33984
0.17750000 0.17750300 8220.46772999 0 263.75062875 0 2114.79354723 0 -449.26970061 0 -547.22635141 0 34069
