### header ###
fiducial parameters:
Omega_m = 0.31
Omega_nu = 0
Omega_de = 0.69
Omega_k = 0
H_0 = 100
w_de = -1
zeff = 0
beta = 0
fgrowth = 0
b_1 = 2
gamma = 0.55
Lx = 3500 Ly = 3500 Lz = 3500
nx = 700 ny = 700 nz = 700
xoffset = 857.220397 yoffset = 15.9954215 zoffset = 262.898189
bins = 400 dk = 0.001
kx_ny = 0.628318531 ky_ny = 0.628318531 kz_ny = 0.628318531
############################
A(data) = 3.04557375 (not used)
A(ran) = 3.03898741 (used)
Ngal = 185718
weighted Ngal = 0
Nran = 9360983
weighted Nran = 0
SN(data) = 3457.29353
SN(ran) = 68.2442361
SN(data+ran) = 3525.53776
############################
13 columns: k_central k_mean P_0(k) sigma^{lin}_{P_0(k)} P^img_1(k) sigma^{lin}_{P_1(k)} P_2(k) sigma^{lin}_{P_2(k)} P^img_3(k) sigma^{lin}_{P_3(k)} P_4(k) sigma^{lin}_{P_4(k)} N_modes
### header ###
0.00050000 0 0 0 0 0 0 0 0 0 0 0 0
0.00150000 0.00179520 5667.30004490 0 -7928.90773133 0 -1567.46378183 0 -21453.34395263 0 -68129.80889355 0 3
0.00250000 0.00253879 15142.39300623 0 -19892.80441165 0 -26541.64931903 0 30561.41842694 0 41337.04343719 0 6
0.00350000 0.00331552 27086.48365996 0 -27283.30745426 0 -20253.74170662 0 -13818.80638265 0 -40886.96778192 0 7
0.00450000 0.00420575 49760.67468849 0 -32092.28264999 0 -37999.35701564 0 -4711.50751324 0 -7643.54133122 0 24
0.00550000 0.00557378 72631.46469830 0 -23406.06979762 0 -35373.20378536 0 -21700.41345570 0 -4621.55982609 0 45
0.00650000 0.00659388 97565.81336931 0 -9657.49500074 0 -64128.36204633 0 -28243.48383970 0 1013.11535412 0 40
0.00750000 0.00754703 91906.70775879 0 579.81524601 0 -17628.15050888 0 -52890.63388453 0 -17784.50796054 0 57
0.00850000 0.00846663 91730.79157485 0 10046.29786887 0 -12583.45886732 0 -39694.78436539 0 21315.64598118 0 75
0.00950000 0.00948925 82943.52527240 0 12420.46943172 0 26218.81783004 0 -38666.71444954 0 8864.28724125 0 112
0.01050000 0.01054430 71463.44868084 0 12069.98594192 0 12375.28201578 0 -16177.99415807 0 -7251.19765810 0 105
0.01150000 0.01145670 72053.24562470 0 2367.65198542 0 42084.20949128 0 -3209.95890730 0 7886.90141954 0 144
0.01250000 0.01249090 66728.54937343 0 726.01901787 0 22500.63538124 0 18261.22395805 0 -19437.67046355 0 169
0.01350000 0.01339930 76046.82401640 0 -5797.75903728 0 24448.30293340 0 7766.82878843 0 -9318.39829014 0 180
0.01450000 0.01448870 74984.35770931 0 -1948.24082535 0 21175.25025355 0 9215.98472133 0 -11409.26049196 0 267
0.01550000 0.01550050 76609.86821152 0 -4826.48812957 0 24112.65710257 0 3168.02003942 0 -22544.69873211 0 238
0.01650000 0.01653350 77086.80902203 0 -1914.95725853 0 19099.32687655 0 -1226.46740126 0 -10145.67646198 0 315
0.01750000 0.01747870 85333.40002432 0 -2407.24155730 0 19496.12184735 0 -1390.05259135 0 -13227.99778023 0 297
0.01850000 0.01844180 80258.80825181 0 3372.27390385 0 15464.21283665 0 -2573.52450356 0 -6401.35950024 0 388
0.01950000 0.01947590 80192.48841250 0 1303.20732380 0 9147.66404618 0 944.86437102 0 -20395.71112535 0 399
0.02050000 0.02045430 78125.44514958 0 1875.58125902 0 3771.31700480 0 6301.21654287 0 -10593.33537735 0 462
0.02150000 0.02154770 72403.50430147 0 923.93427935 0 -4192.99877633 0 8062.94125064 0 -8165.35481945 0 571
0.02250000 0.02255340 75402.39751000 0 331.36539103 0 -14190.19748280 0 7524.08693590 0 -4557.40943237 0 510
0.02350000 0.02348930 71036.41635957 0 245.85663685 0 -10292.29951012 0 8199.71748874 0 -2093.27894173 0 555
0.02450000 0.02439640 70303.75074493 0 -774.47746317 0 -10214.15450624 0 2217.84783313 0 1349.92346824 0 592
0.02550000 0.02547300 71436.24630607 0 -762.57136592 0 -6851.44639616 0 -399.80296894 0 18615.19204957 0 837
0.02650000 0.02652900 71224.24763329 0 902.58603549 0 2600.29973360 0 -5836.34819124 0 16121.45368489 0 723
0.02750000 0.02749970 74185.93428789 0 2684.15498805 0 12185.31501842 0 -2790.48030332 0 26597.06572713 0 826
0.02850000 0.02848090 68927.55787593 0 3454.65663306 0 11646.10100286 0 -4079.37827874 0 18187.82250877 0 831
0.02950000 0.02946900 67743.46772793 0 4880.46573438 0 11311.35442409 0 2221.98439260 0 23891.32868968 0 996
0.03050000 0.03053250 62125.39049258 0 2494.99731755 0 14637.46297539 0 3778.94940665 0 20181.57672893 0 1041
0.03150000 0.03150510 60363.19367748 0 1832.46212282 0 11395.20967854 0 8253.11057971 0 9725.06255228 0 1036
0.03250000 0.03246190 59519.24562060 0 2223.86158127 0 10713.70026537 0 1887.22657318 0 19792.31299411 0 1059
0.03350000 0.03345080 56063.64477288 0 1156.79784803 0 9351.04113986 0 -553.96849372 0 1111.37887468 0 1302
0.03450000 0.03451200 59006.78435377 0 1818.61364112 0 9296.20924559 0 -2309.92000327 0 17011.03878375 0 1339
0.03550000 0.03553350 55105.82892409 0 1057.07304287 0 15599.32545844 0 -3198.68453461 0 12711.48987914 0 1365
0.03650000 0.03647120 56433.23736891 0 1859.87806995 0 14012.37038824 0 2387.05334858 0 16672.58279024 0 1308
0.03750000 0.03744890 54497.37250002 0 1622.43056391 0 22536.26824406 0 -1395.62795411 0 14296.08441269 0 1579
0.03850000 0.03847530 53312.72031948 0 2804.22761916 0 24929.40278468 0 -2920.61331683 0 11238.70609841 0 1662
0.03950000 0.03950240 52639.74256022 0 2546.05235317 0 28407.82215339 0 -2800.78798004 0 16239.93014360 0 1683
0.04050000 0.04050350 49152.78029696 0 1724.36078474 0 25263.47492441 0 1718.40323985 0 11401.16722343 0 1822
0.04150000 0.04152450 47847.17871455 0 647.16922519 0 24024.86762036 0 3340.46286228 0 11510.53875504 0 1887
0.04250000 0.04250150 46924.32128954 0 932.07925487 0 24898.15377565 0 6908.20044170 0 5686.78009262 0 1920
0.04350000 0.04349210 45061.29583738 0 718.17641585 0 19910.56463980 0 6435.11517438 0 3847.80963303 0 2005
0.04450000 0.04448520 44798.03979726 0 558.46700214 0 14258.76545226 0 3105.93792543 0 995.13031295 0 2151
0.04550000 0.04548030 43389.13663464 0 1480.46114518 0 13511.71180468 0 -366.18667886 0 1408.10507642 0 2274
0.04650000 0.04648670 43017.29590846 0 521.46840026 0 12474.64936824 0 -3038.32541129 0 1155.03306586 0 2311
0.04750000 0.04749250 41985.96620389 0 1567.02539646 0 10670.40127876 0 -1798.25682264 0 1966.32703237 0 2568
0.04850000 0.04851840 40948.45414142 0 1718.68425612 0 10065.06975559 0 278.21734624 0 -402.88515537 0 2493
0.04950000 0.04949480 40246.02587724 0 1090.50611034 0 9510.80450870 0 832.17909557 0 -1909.50554293 0 2644
0.05050000 0.05050630 39232.68121384 0 240.78822744 0 11345.52600231 0 1172.46731515 0 -45.63771641 0 2829
0.05150000 0.05149060 38648.05496932 0 1023.21283068 0 10759.78693337 0 -1381.19495857 0 -3961.34020541 0 2784
0.05250000 0.05249300 38752.03098858 0 1320.18070640 0 13800.59652847 0 -588.79202968 0 -1459.74462588 0 3055
0.05350000 0.05348950 37208.57723671 0 1991.19135179 0 13232.04441449 0 -1525.13149118 0 -2613.24896324 0 3009
0.05450000 0.05448610 35906.57266254 0 1610.18949526 0 15209.38728458 0 1823.43588028 0 3745.35110161 0 3336
0.05550000 0.05550870 35312.39186490 0 495.60141479 0 14588.45373820 0 1590.68696624 0 -787.79313803 0 3349
0.05650000 0.05647670 34715.17609156 0 552.78934945 0 14655.44801656 0 4196.83183822 0 171.47050658 0 3324
0.05750000 0.05747970 33924.50871915 0 1414.82698556 0 14482.90402784 0 1514.38542908 0 1294.82179835 0 3639
0.05850000 0.05849280 31932.21578358 0 1235.03277712 0 12532.98834553 0 2355.47836068 0 -897.04551874 0 3846
0.05950000 0.05951020 31945.47975145 0 -181.65341207 0 13066.13240970 0 488.30398434 0 1807.58656275 0 3787
0.06050000 0.06049470 31747.86911160 0 -399.87266097 0 8877.62989367 0 1867.20697423 0 -1953.75998486 0 3930
0.06150000 0.06148310 32226.15880020 0 -446.28980410 0 13748.10268955 0 353.86580160 0 -278.35785438 0 4083
0.06250000 0.06249100 32903.52041325 0 47.64990529 0 12568.95842787 0 -868.73706394 0 -2134.57709251 0 4303
0.06350000 0.06350600 32701.63832612 0 254.91660134 0 13644.46388981 0 -1121.60449465 0 1601.81521047 0 4470
0.06450000 0.06451750 32943.76194287 0 88.99830179 0 13341.86557214 0 633.33535633 0 434.74340767 0 4479
0.06550000 0.06550280 33374.95330491 0 178.12384774 0 15467.92225139 0 2068.27973450 0 2171.61503667 0 4636
0.06650000 0.06648880 33001.76370064 0 180.79687449 0 12162.94612347 0 1181.59472354 0 178.84212533 0 4653
0.06750000 0.06749660 32042.82378678 0 921.05667277 0 14341.49664164 0 1740.10893641 0 2567.82549364 0 5220
0.06850000 0.06852730 31103.89223122 0 1325.86847567 0 11009.30689830 0 682.12427676 0 3568.26589000 0 5029
0.06950000 0.06949320 30563.55415058 0 692.59157072 0 11794.81481203 0 985.41726666 0 3371.62194611 0 5040
0.07050000 0.07048030 29619.00226965 0 225.35593805 0 10755.13330397 0 940.34787755 0 4768.50885310 0 5475
0.07150000 0.07148790 30214.19472586 0 -232.53309354 0 11074.41274733 0 610.39206412 0 3517.49187065 0 5509
0.07250000 0.07249820 30652.69251088 0 337.46344405 0 11552.12916275 0 -418.60070916 0 2976.61423877 0 5916
0.07350000 0.07351270 30257.24641816 0 617.36351571 0 12524.33304447 0 -257.67280890 0 2686.39187755 0 5721
0.07450000 0.07449140 29852.47058534 0 1059.32679334 0 13156.28242857 0 -204.94853665 0 3220.07549295 0 6028
0.07550000 0.07549160 28584.30036987 0 1307.32140197 0 12716.43576546 0 -153.61023663 0 1948.99394895 0 6183
0.07650000 0.07648840 28067.11802973 0 1381.71202850 0 13629.51382434 0 1362.97386374 0 3478.41936871 0 6330
0.07750000 0.07749960 25690.95687171 0 1115.35019659 0 11434.10233007 0 1204.31207867 0 1310.12032400 0 6583
0.07850000 0.07848650 25418.14627847 0 690.65143441 0 10326.33620053 0 2469.05389567 0 777.29661837 0 6549
0.07950000 0.07947320 24369.61837828 0 68.03246486 0 8637.14741193 0 1442.34409855 0 -194.56667163 0 6828
0.08050000 0.08048110 24240.57570789 0 -109.01587742 0 8149.06711654 0 878.07916876 0 -899.18686271 0 7147
0.08150000 0.08149960 24370.85484986 0 -128.67397705 0 7154.21332360 0 43.27380756 0 -795.66833793 0 7386
0.08250000 0.08250610 24292.28270125 0 126.10886055 0 6986.81755291 0 -216.07340868 0 -2429.36315793 0 7227
0.08350000 0.08350160 24640.51806090 0 181.38026426 0 6995.46161332 0 -700.63088413 0 -1812.88090924 0 7798
0.08450000 0.08449610 24186.05855184 0 265.36141400 0 7772.47159510 0 108.95394144 0 -1737.53482739 0 7371
0.08550000 0.08548940 24112.99432209 0 407.87263210 0 7558.79806536 0 -504.81762433 0 -2187.23954119 0 8256
0.08650000 0.08650700 24005.42129460 0 376.98557202 0 7552.32345054 0 503.41254299 0 -1495.78215212 0 8037
0.08750000 0.08749060 23181.25678300 0 1300.02621964 0 8312.04531149 0 -90.19880329 0 -1862.32853181 0 8155
0.08850000 0.08849210 22315.16464418 0 1089.44274478 0 9080.42247351 0 -732.47452358 0 -963.88467612 0 8718
0.08950000 0.08949900 20966.06174344 0 932.15007097 0 8780.16221118 0 -367.46136866 0 -2193.65795276 0 8571
0.09050000 0.09049190 20705.39105299 0 547.75016573 0 8910.09289298 0 1100.40350331 0 -343.66603512 0 8932
0.09150000 0.09150830 20009.03274021 0 160.59517699 0 9191.16536451 0 531.03306996 0 -2622.87096027 0 9285
0.09250000 0.09250820 20273.75006492 0 360.42809349 0 8850.89962623 0 971.82507179 0 -1534.76472886 0 9204
0.09350000 0.09350330 19847.39218270 0 389.35703222 0 9093.16937144 0 -178.92418208 0 -1041.81723170 0 9349
0.09450000 0.09448040 19527.25844988 0 309.83729675 0 8678.59169118 0 -18.49660318 0 -1084.79023945 0 9564
0.09550000 0.09549270 19592.90385015 0 289.04434103 0 8800.53027031 0 734.91486886 0 -90.11292472 0 10155
0.09650000 0.09649430 18898.34404148 0 372.03518944 0 8230.10096766 0 1160.92316685 0 -731.76186633 0 9913
0.09750000 0.09749140 19127.20369036 0 145.95198129 0 7631.32274387 0 1529.44790106 0 96.95769416 0 10476
0.09850000 0.09850240 18740.75011823 0 -84.53396494 0 7100.12331228 0 862.97510638 0 -553.22323857 0 10575
0.09950000 0.09950330 18615.52926909 0 -0.14565298 0 6173.98361725 0 612.12649653 0 149.62879814 0 10882
0.10050000 0.10051200 19140.69247124 0 -24.78428598 0 6890.39525094 0 -7.76151196 0 -629.70237802 0 10875
0.10150000 0.10150300 18730.29631305 0 107.85966409 0 6141.17215777 0 -163.47840391 0 -39.30226084 0 11118
0.10250000 0.10250800 18750.07985834 0 242.21803821 0 7008.54573077 0 330.06934400 0 1063.10814825 0 11575
0.10350000 0.10349800 18590.68743097 0 132.39800463 0 6508.75267732 0 1580.08703260 0 1466.88243909 0 11364
0.10450000 0.10450100 18240.65356721 0 419.31786267 0 6679.34079281 0 1353.94762120 0 1300.44212372 0 12093
0.10550000 0.10551000 17843.18415736 0 826.30135930 0 6109.57468856 0 1071.59708768 0 2204.94356609 0 12067
0.10650000 0.10649700 16728.22401135 0 899.80622256 0 6329.36313231 0 -86.21657795 0 2376.75691251 0 12054
0.10750000 0.10749900 16279.27242116 0 646.26547687 0 5813.21493204 0 -605.89580383 0 2309.27928617 0 12807
0.10850000 0.10850100 16068.28540694 0 256.48129992 0 6855.06588569 0 -395.50117190 0 2192.34279662 0 12736
0.10950000 0.10950300 15702.28981914 0 -86.12361777 0 6192.62061616 0 -662.98819296 0 736.42336419 0 12933
0.11050000 0.11050200 15879.89210069 0 68.12261488 0 6747.30176713 0 -254.56814117 0 -475.19513746 0 13428
0.11150000 0.11150900 15796.93609829 0 172.33828481 0 6514.04702382 0 -446.16053662 0 -88.50225187 0 13453
0.11250000 0.11250000 15762.09008103 0 220.80572263 0 6828.20073044 0 -108.10763284 0 -544.40269994 0 13668
0.11350000 0.11349100 15712.18159178 0 97.31278632 0 7058.07203789 0 121.35406529 0 11.52447716 0 13791
0.11450000 0.11448600 15587.97240120 0 62.86378884 0 6348.61836701 0 289.75587422 0 -549.67681327 0 14205
0.11550000 0.11549300 15609.32963759 0 164.05392522 0 6698.05647628 0 440.40195125 0 -4.74083437 0 14776
0.11650000 0.11649800 15166.11077927 0 407.85239893 0 6445.96240234 0 273.44006968 0 -105.84455263 0 14553
0.11750000 0.11747300 14849.46164818 0 439.50494732 0 5676.07899312 0 390.88238852 0 139.34585085 0 14568
0.11850000 0.11849100 14351.38841429 0 470.49317326 0 5718.99579761 0 1013.72796959 0 31.97875208 0 16015
0.11950000 0.11950300 14059.69352782 0 189.52299165 0 4846.96859520 0 781.83222094 0 263.21894597 0 15270
0.12050000 0.12050700 13662.67374400 0 102.61275314 0 4355.17888507 0 1351.08125526 0 451.06370847 0 15999
0.12150000 0.12150000 13871.07540855 0 18.29247297 0 4343.88203109 0 967.00957702 0 974.20359349 0 15670
0.12250000 0.12250700 13590.05914028 0 79.26277419 0 3907.49748841 0 496.30845173 0 1625.93764694 0 16887
0.12350000 0.12352200 13578.14405050 0 -13.16235238 0 4126.81382482 0 512.21172438 0 1739.80543884 0 16407
0.12450000 0.12449800 13579.83014811 0 3.57108729 0 3997.53510076 0 -433.52941739 0 2045.39376961 0 16306
0.12550000 0.12549900 13863.76898558 0 -55.25431792 0 4368.16183667 0 12.05773363 0 1376.58629177 0 17523
0.12650000 0.12650100 13716.40405449 0 65.73768601 0 4208.03876700 0 -356.68158461 0 1491.76923981 0 17154
0.12750000 0.12750600 13760.46740536 0 161.37190596 0 4468.57456965 0 -393.20807916 0 788.88460521 0 18007
0.12850000 0.12850300 13414.14295634 0 243.10717368 0 4228.78900825 0 107.48164101 0 364.63434500 0 17496
0.12950000 0.12949900 13212.14846270 0 396.25541957 0 4217.59332012 0 270.26795805 0 271.82141598 0 18405
0.13050000 0.13049000 12772.52661261 0 327.53570132 0 3253.37030042 0 627.11365615 0 -447.32731617 0 18100
0.13150000 0.13148800 12459.24967674 0 288.58010215 0 3333.25760517 0 562.57433591 0 147.23004327 0 19059
0.13250000 0.13249300 12176.54731085 0 245.19905879 0 2596.46667170 0 510.19964790 0 205.94558237 0 18957
0.13350000 0.13349100 12039.63618495 0 129.55074780 0 2414.41309246 0 622.09920186 0 569.99204133 0 19468
0.13450000 0.13450700 11814.26113779 0 79.16025946 0 2097.44922315 0 303.51443071 0 591.36389057 0 19953
0.13550000 0.13551000 11959.60275175 0 166.21662642 0 2194.75953653 0 234.37206400 0 1028.15422074 0 19956
0.13650000 0.13649900 11753.33681083 0 176.51193843 0 2092.44713357 0 -417.51149010 0 1249.19599704 0 19723
0.13750000 0.13749600 11781.32603115 0 224.47804323 0 2479.11427807 0 -300.96729926 0 1340.26774926 0 20946
0.13850000 0.13851100 11511.88763313 0 141.22865985 0 3165.01878567 0 -336.00103539 0 1641.67455796 0 20955
0.13950000 0.13949800 11591.35903380 0 130.41515385 0 3431.75942752 0 -175.51601677 0 1808.11487333 0 20506
0.14050000 0.14048300 11405.21385769 0 140.20351250 0 3826.07021451 0 17.11726293 0 1847.67072326 0 21447
0.14150000 0.14148400 11433.98992356 0 202.75211350 0 3713.55130070 0 80.48811753 0 1903.98638342 0 21771
0.14250000 0.14249400 11184.50368059 0 281.46926650 0 3919.53622534 0 167.67453882 0 1608.39099115 0 22470
0.14350000 0.14350900 10902.27342204 0 327.70431109 0 3937.36389740 0 119.64099012 0 1838.85805308 0 22519
0.14450000 0.14449900 10659.37420039 0 191.17424324 0 3604.17976908 0 19.33257038 0 957.17737983 0 22218
0.14550000 0.14550500 10695.45668924 0 120.76955145 0 3767.38277705 0 -221.94215242 0 1376.46264461 0 23559
0.14650000 0.14650700 10586.35493324 0 -44.64629101 0 3383.50331393 0 -214.20746066 0 379.22695778 0 23044
0.14750000 0.14750500 10718.70235495 0 2.09764031 0 3473.36107588 0 -119.82870899 0 600.61269799 0 23649
0.14850000 0.14849900 10674.00952764 0 28.10106479 0 3637.02495052 0 -73.18439231 0 -70.17808027 0 23640
0.14950000 0.14949500 10639.43328599 0 175.19565823 0 3460.76030641 0 278.56580642 0 -200.35560676 0 24457
0.15050000 0.15050000 10479.74860171 0 171.42329584 0 3593.39998503 0 395.41799109 0 -235.18701118 0 24591
0.15150000 0.15149900 10283.03721392 0 205.96581554 0 2940.31817756 0 378.30072816 0 -217.02886399 0 25020
0.15250000 0.15250500 10018.22996400 0 223.12129668 0 2964.82279616 0 503.35184347 0 -203.59628637 0 25297
0.15350000 0.15350100 9956.23777521 0 132.33955325 0 2564.63314883 0 121.98129360 0 -153.08867044 0 25452
0.15450000 0.15450400 9634.99121797 0 162.76237445 0 2503.46152755 0 184.18143442 0 -277.50468899 0 26061
0.15550000 0.15549900 9630.34882922 0 137.90817162 0 2438.43436307 0 -172.28770188 0 -655.41536656 0 26128
0.15650000 0.15649500 9442.61872136 0 138.52528335 0 2695.99139327 0 -390.24504362 0 -499.76495183 0 26331
0.15750000 0.15749700 9475.74491907 0 123.40098779 0 2752.31829409 0 -58.46329889 0 -622.03737828 0 27345
0.15850000 0.15849900 9378.25475528 0 129.77331269 0 3088.77345177 0 203.73117417 0 -207.43047233 0 26980
0.15950000 0.15949700 9387.95543686 0 121.77896189 0 3072.21597324 0 212.79675899 0 112.89772375 0 27777
0.16050000 0.16050000 9241.05137246 0 24.10962213 0 3121.71979906 0 568.61843381 0 593.51310299 0 28224
0.16150000 0.16150500 9317.63392589 0 103.76919129 0 3278.21213854 0 546.85653400 0 1117.24199811 0 28075
0.16250000 0.16249700 9193.73947353 0 38.04049780 0 3064.48240554 0 424.70325844 0 1298.78974806 0 28590
0.16350000 0.16349900 9232.53095920 0 52.98471813 0 3135.60200271 0 164.34056182 0 1841.87054748 0 29163
0.16450000 0.16449100 9140.75104598 0 86.65091670 0 3079.48867426 0 113.49909856 0 1837.37428719 0 28996
0.16550000 0.16550500 9075.60023435 0 137.79464105 0 2779.35205909 0 -4.72976233 0 1758.88082313 0 30777
0.16650000 0.16650700 8942.05006301 0 180.78900603 0 2886.79019878 0 -208.19933284 0 1021.29067940 0 29211
0.16750000 0.16749900 8717.55178661 0 211.10953731 0 2728.25206087 0 -142.54831225 0 822.28395073 0 30922
0.16850000 0.16850800 8608.06784849 0 104.40282677 0 2725.22832582 0 -182.46723519 0 287.01427950 0 30867
0.16950000 0.16949900 8549.32420777 0 23.36234367 0 2454.38484646 0 -302.24873344 0 52.06714381 0 30852
0.17050000 0.17049200 8551.71846638 0 -21.77538860 0 2626.59161566 0 -120.99436447 0 -297.62432973 0 31257
0.17150000 0.17149500 8581.95581684 0 -19.71138031 0 2375.75649460 0 -37.82411527 0 -624.15062062 0 32608
0.17250000 0.17250900 8603.08824022 0 33.09494870 0 2556.89958113 0 -55.20676997 0 -243.16899726 0 32361
0.17350000 0.17350400 8568.81549614 0 220.98107679 0 2730.91609509 0 -121.03820301 0 -480.75925957 0 32508
0.17450000 0.17449800 8428.13875224 0 154.01490006 0 2786.27629994 0 137.47315844 0 -227.29270217 0 32791
0.17550000 0.17549800 8356.73813880 0 115.76858594 0 2736.71627087 0 190.43348436 0 -45.99719242 0 33633
0.17650000 0.17650100 8315.59735712 0 48.80701788 0 2539.90371722 0 287.25145724 0 167.92520534 0 33984
0.17750000 0.17750300 8356.97419246 0 -83.83828107 0 2596.86009448 0 460.53395671 0 199.04157469 0 34069
