### header ###
fiducial parameters:
Omega_m = 0.31
Omega_nu = 0
Omega_de = 0.69
Omega_k = 0
H_0 = 100
w_de = -1
zeff = 0
beta = 0
fgrowth = 0
b_1 = 2
gamma = 0.55
Lx = 3500 Ly = 3500 Lz = 3500
nx = 700 ny = 700 nz = 700
xoffset = 857.220397 yoffset = 15.9954215 zoffset = 262.898189
bins = 400 dk = 0.001
kx_ny = 0.628318531 ky_ny = 0.628318531 kz_ny = 0.628318531
############################
A(data) = 3.05790167 (not used)
A(ran) = 3.05748904 (used)
Ngal = 186540
weighted Ngal = 0
Nran = 9360983
weighted Nran = 0
SN(data) = 3444.09157
SN(ran) = 68.6597132
SN(data+ran) = 3512.75128
############################
13 columns: k_central k_mean P_0(k) sigma^{lin}_{P_0(k)} P^img_1(k) sigma^{lin}_{P_1(k)} P_2(k) sigma^{lin}_{P_2(k)} P^img_3(k) sigma^{lin}_{P_3(k)} P_4(k) sigma^{lin}_{P_4(k)} N_modes
### header ###
0.00050000 0 0 0 0 0 0 0 0 0 0 0 0
0.00150000 0.00179520 -95.19808270 0 -5910.31167305 0 -4843.28166176 0 13664.58465462 0 5949.85628233 0 3
0.00250000 0.00253879 2330.06324938 0 -6567.39515218 0 -4988.11744643 0 -3431.54585516 0 -4052.34451373 0 6
0.00350000 0.00331552 7857.84433740 0 -8535.32959761 0 -7792.76096967 0 6445.87247713 0 1111.23499435 0 7
0.00450000 0.00420575 11879.23209902 0 -8191.42188850 0 -9622.67146477 0 10886.66015817 0 5157.10938952 0 24
0.00550000 0.00557378 25657.45973253 0 -8646.82561221 0 -1408.06011382 0 17091.85906250 0 17446.72640608 0 45
0.00650000 0.00659388 25020.78927513 0 -5913.24548289 0 -1575.39968125 0 15750.39980426 0 -4147.74391648 0 40
0.00750000 0.00754703 44975.30485929 0 -4451.23024557 0 27223.16997285 0 24455.27213685 0 22384.51945919 0 57
0.00850000 0.00846663 45417.39965254 0 -4678.50496270 0 26421.03713669 0 9312.45198590 0 20710.11212630 0 75
0.00950000 0.00948925 61820.31923174 0 -1316.11159084 0 61947.33858500 0 19300.30971162 0 48548.14569414 0 112
0.01050000 0.01054430 65694.97153871 0 -4695.57951116 0 51535.01140638 0 34763.96051574 0 25885.64494237 0 105
0.01150000 0.01145670 74128.83178217 0 -6092.11795798 0 63740.55959611 0 26876.95793034 0 45933.12070808 0 144
0.01250000 0.01249090 88316.21910229 0 -10444.54288362 0 52768.78523061 0 53908.69962124 0 40297.05843156 0 169
0.01350000 0.01339930 92779.65669456 0 -6524.27601598 0 60001.58194346 0 44352.34799578 0 45351.64184576 0 180
0.01450000 0.01448870 102948.73619136 0 -5883.57016496 0 20336.92252203 0 47565.26319422 0 50859.22348443 0 267
0.01550000 0.01550050 86796.70793648 0 7660.75076749 0 26883.25269475 0 35406.58851803 0 13848.36929407 0 238
0.01650000 0.01653350 95899.61171145 0 9129.00456597 0 -10414.57530877 0 13746.19177893 0 46487.17238261 0 315
0.01750000 0.01747870 74136.47542467 0 5799.96220483 0 13537.56530136 0 12892.46435591 0 40399.91038575 0 297
0.01850000 0.01844180 80018.70795220 0 6826.24485722 0 -16258.36481080 0 -3172.29148670 0 39454.34684626 0 388
0.01950000 0.01947590 69980.58203641 0 -735.40720936 0 2450.90024473 0 -8449.33861952 0 28435.92378022 0 399
0.02050000 0.02045430 74253.37819227 0 -647.06243900 0 -964.10162068 0 -8069.01120204 0 20048.93705030 0 462
0.02150000 0.02154770 72059.31557609 0 1489.50986901 0 6857.25781258 0 -11290.44681373 0 4297.14340535 0 571
0.02250000 0.02255340 72670.69456935 0 1567.64363225 0 3259.20419815 0 -3562.69052724 0 8977.91897949 0 510
0.02350000 0.02348930 74903.31261754 0 -944.04267945 0 3997.52386011 0 1672.00183363 0 -7628.02923321 0 555
0.02450000 0.02439640 75579.43775901 0 -2328.28722656 0 7751.13684001 0 2368.16905535 0 -25903.40517053 0 592
0.02550000 0.02547300 74206.27986571 0 -615.16596849 0 -1669.73122218 0 -2878.35971073 0 -23427.53944052 0 837
0.02650000 0.02652900 74522.02974474 0 2522.23341427 0 1970.19381622 0 -8027.72429190 0 -31973.35656526 0 723
0.02750000 0.02749970 70370.52021027 0 5934.98490141 0 109.93199046 0 -13041.40297810 0 -15610.56610917 0 826
0.02850000 0.02848090 67841.26138929 0 5208.76017963 0 7709.54643231 0 -4420.71187883 0 -16657.74513127 0 831
0.02950000 0.02946900 65518.15610271 0 1207.60558933 0 4591.45736344 0 2235.95652146 0 -9161.83850675 0 996
0.03050000 0.03053250 65148.11388065 0 2129.28274602 0 14214.14006886 0 1556.09948394 0 -9350.97369595 0 1041
0.03150000 0.03150510 61466.57595323 0 3376.77016414 0 8758.51271788 0 2453.90149848 0 -9414.82059211 0 1036
0.03250000 0.03246190 59145.49398379 0 4397.53365703 0 22346.52605972 0 -312.75199748 0 9677.37971188 0 1059
0.03350000 0.03345080 55885.48045879 0 6107.78742510 0 13101.20323998 0 -2525.05481761 0 1971.80122928 0 1302
0.03450000 0.03451200 50278.41906116 0 3709.80816400 0 16650.66352131 0 6879.27824737 0 4821.86822212 0 1339
0.03550000 0.03553350 48359.19035535 0 2198.16545370 0 11919.92325466 0 3869.81882716 0 -2180.83237027 0 1365
0.03650000 0.03647120 44310.42036855 0 -299.33178458 0 4209.28647923 0 8851.94500675 0 -5421.24220040 0 1308
0.03750000 0.03744890 43972.07678155 0 177.99682839 0 2367.39345045 0 4090.96738964 0 -5230.00500951 0 1579
0.03850000 0.03847530 41850.62876909 0 -390.79583551 0 -2940.77904424 0 2821.09983591 0 -7947.29743592 0 1662
0.03950000 0.03950240 42103.09378451 0 664.19993511 0 -2776.93531919 0 -1057.95430989 0 -8906.41720019 0 1683
0.04050000 0.04050350 41486.31927890 0 837.36777994 0 -3845.50529963 0 -1255.11981997 0 -6856.17871011 0 1822
0.04150000 0.04152450 41946.51151982 0 54.67497478 0 106.12770462 0 -1487.76756815 0 3021.79041406 0 1887
0.04250000 0.04250150 42185.48775437 0 -691.82271021 0 -302.49715182 0 -927.11538351 0 -2537.85791879 0 1920
0.04350000 0.04349210 43891.81853533 0 -389.98763272 0 9114.66149564 0 780.92172823 0 7371.46138027 0 2005
0.04450000 0.04448520 43183.99475880 0 -147.14236620 0 281.60977463 0 1481.98987368 0 2536.58772526 0 2151
0.04550000 0.04548030 45612.98697526 0 -118.42812391 0 8033.60315223 0 -798.24919134 0 8422.72075859 0 2274
0.04650000 0.04648670 44165.41597412 0 832.92659884 0 5024.93057758 0 -1965.78748114 0 4082.91908372 0 2311
0.04750000 0.04749250 43693.53345644 0 1400.51763718 0 7017.66189852 0 -4641.97284782 0 972.38710433 0 2568
0.04850000 0.04851840 42338.24819780 0 2777.31750131 0 9381.27849032 0 -5136.16805721 0 1400.03428920 0 2493
0.04950000 0.04949480 40543.67830860 0 3795.28207216 0 12627.40981167 0 -6612.85234374 0 -1717.12180567 0 2644
0.05050000 0.05050630 37517.47031880 0 3093.41584052 0 15312.01442576 0 775.80610809 0 2914.00381420 0 2829
0.05150000 0.05149060 34397.06567588 0 1979.62472219 0 17527.54668483 0 1618.90099958 0 1190.21630265 0 2784
0.05250000 0.05249300 34264.20118424 0 683.24272151 0 16017.36525913 0 6131.24666317 0 4512.54799531 0 3055
0.05350000 0.05348950 33151.03954235 0 -127.26889571 0 16495.65494773 0 6457.88873276 0 2359.87345512 0 3009
0.05450000 0.05448610 32433.66121269 0 -291.88035721 0 11695.11024005 0 3568.94032904 0 5560.41269710 0 3336
0.05550000 0.05550870 32150.28440777 0 777.41801740 0 11657.56646660 0 1173.33284525 0 4914.08652072 0 3349
0.05650000 0.05647670 32216.94146660 0 346.94718107 0 8676.53465209 0 -419.44150983 0 4367.45367567 0 3324
0.05750000 0.05747970 31551.83216285 0 573.78126469 0 8669.95887142 0 -773.59844428 0 1577.22066667 0 3639
0.05850000 0.05849280 31363.66366961 0 153.21681385 0 7015.82967245 0 -720.18736827 0 -148.30352542 0 3846
0.05950000 0.05951020 31589.48834280 0 -553.54022492 0 8460.56802960 0 169.34489952 0 298.25717837 0 3787
0.06050000 0.06049470 31973.91859780 0 -497.41565582 0 7883.69783409 0 509.70730740 0 -3075.41955870 0 3930
0.06150000 0.06148310 33208.47926758 0 -157.67935219 0 9492.60589516 0 -1649.62169803 0 -620.61206377 0 4083
0.06250000 0.06249100 33237.36773996 0 639.22433325 0 11185.17811963 0 -1244.95827171 0 -558.10168099 0 4303
0.06350000 0.06350600 32666.79230886 0 1146.24287699 0 13861.63326194 0 -274.86650826 0 3635.29389031 0 4470
0.06450000 0.06451750 31961.32906898 0 1292.61863081 0 16327.38240629 0 195.35688938 0 3769.75455435 0 4479
0.06550000 0.06550280 30915.94855100 0 1183.01104553 0 14503.13719915 0 2620.42049841 0 6725.67475513 0 4636
0.06650000 0.06648880 30397.52973928 0 456.93919661 0 15636.64441887 0 1830.57369349 0 6028.20361792 0 4653
0.06750000 0.06749660 29892.82452146 0 684.16895113 0 13132.90187505 0 968.76873886 0 4912.58027352 0 5220
0.06850000 0.06852730 29040.78319605 0 347.02136937 0 13127.16914317 0 1100.92169731 0 4807.82864936 0 5029
0.06950000 0.06949320 28803.38065261 0 797.42525164 0 11388.35288160 0 -185.07619022 0 4093.18179783 0 5040
0.07050000 0.07048030 28164.57447157 0 184.32981101 0 11881.92985519 0 -114.49951648 0 4476.17324954 0 5475
0.07150000 0.07148790 28415.57820239 0 320.77669804 0 10418.65566499 0 1389.31070840 0 1819.11947040 0 5509
0.07250000 0.07249820 27982.81314925 0 166.94052433 0 10206.25232877 0 147.16259937 0 179.67056128 0 5916
0.07350000 0.07351270 27645.93084684 0 436.03945470 0 11026.32524350 0 -284.39970414 0 -203.56930880 0 5721
0.07450000 0.07449140 28062.73417595 0 168.68057706 0 10814.51766178 0 -126.10661242 0 -262.14433976 0 6028
0.07550000 0.07549160 27519.58593263 0 -168.29502274 0 10541.15627665 0 859.74454336 0 331.60369282 0 6183
0.07650000 0.07648840 28441.09447955 0 -429.66150948 0 9695.78065713 0 1494.16349842 0 -1173.62510217 0 6330
0.07750000 0.07749960 28554.40023892 0 -598.37805662 0 9105.03949861 0 1932.18917610 0 449.83847754 0 6583
0.07850000 0.07848650 28600.48690692 0 428.58915140 0 6940.25877758 0 1780.58651969 0 -2143.65953830 0 6549
0.07950000 0.07947320 28012.15124766 0 872.52628730 0 7637.40393592 0 -554.98464854 0 505.90796745 0 6828
0.08050000 0.08048110 26763.76457748 0 1143.47767691 0 6664.27832083 0 -238.04326053 0 -1064.74928326 0 7147
0.08150000 0.08149960 25861.92716933 0 877.94428095 0 6632.09633779 0 224.56122404 0 -540.65394292 0 7386
0.08250000 0.08250610 24939.40696384 0 542.17705110 0 5864.89944410 0 166.53586090 0 -988.40165943 0 7227
0.08350000 0.08350160 25024.72350288 0 27.92031513 0 6111.83405936 0 1504.17891822 0 -375.49730986 0 7798
0.08450000 0.08449610 24420.65093260 0 137.60130186 0 4849.48650097 0 1470.16470911 0 -668.75015052 0 7371
0.08550000 0.08548940 25023.71184432 0 298.82820342 0 5490.76562517 0 863.03130963 0 -406.23262116 0 8256
0.08650000 0.08650700 23774.65073509 0 952.59906278 0 5784.50631007 0 -70.70324347 0 999.16121031 0 8037
0.08750000 0.08749060 23588.73037200 0 1139.23995159 0 7290.94459909 0 -898.82378969 0 2118.76149694 0 8155
0.08850000 0.08849210 22045.05180711 0 1071.39363190 0 7383.99470584 0 -1254.79384110 0 3060.70554689 0 8718
0.08950000 0.08949900 21814.61846713 0 519.07076946 0 7541.24016891 0 131.98884495 0 1603.89473085 0 8571
0.09050000 0.09049190 21462.33647322 0 -21.67017611 0 8442.36941607 0 -510.20751635 0 1532.12317594 0 8932
0.09150000 0.09150830 21362.40708822 0 170.73761615 0 8389.80813325 0 -155.23113846 0 413.32659583 0 9285
0.09250000 0.09250820 21128.03952048 0 458.15768314 0 8163.30902102 0 -161.23252189 0 -812.80920623 0 9204
0.09350000 0.09350330 20707.97640266 0 649.28021939 0 8160.37521118 0 -945.71528828 0 -935.26822749 0 9349
0.09450000 0.09448040 20160.78152508 0 711.13302411 0 8459.38776127 0 395.26511824 0 -1374.95639741 0 9564
0.09550000 0.09549270 19552.10028799 0 712.86745651 0 8732.94023746 0 336.65299313 0 -675.58896243 0 10155
0.09650000 0.09649430 18949.26418929 0 318.58027489 0 7796.25681205 0 1225.71427766 0 -1131.65251234 0 9913
0.09750000 0.09749140 18741.53696378 0 155.14008919 0 7483.87912823 0 1598.94884453 0 -132.42048594 0 10476
0.09850000 0.09850240 18606.76156152 0 -116.14402368 0 6061.97053272 0 1432.81202673 0 -501.73094164 0 10575
0.09950000 0.09950330 18430.05853203 0 31.84015485 0 5631.83579184 0 1146.38900545 0 -787.16028939 0 10882
0.10050000 0.10051200 18314.61704902 0 290.79900661 0 5135.56106207 0 224.85910129 0 -1189.06975628 0 10875
0.10150000 0.10150300 17712.45538936 0 523.52768747 0 4139.41459429 0 123.78204585 0 -1430.57513723 0 11118
0.10250000 0.10250800 17009.46509264 0 603.24413432 0 4140.38129025 0 193.49656168 0 -1798.97622429 0 11575
0.10350000 0.10349800 16522.18288345 0 538.78911897 0 3694.48715706 0 549.03609617 0 -2356.40009404 0 11364
0.10450000 0.10450100 15843.02276629 0 615.19969044 0 3980.69660597 0 395.50904036 0 -2368.75356919 0 12093
0.10550000 0.10551000 15330.44909295 0 555.72428336 0 3152.51918206 0 290.46291115 0 -2301.14105505 0 12067
0.10650000 0.10649700 15048.19635310 0 280.08891459 0 3582.83377335 0 265.44009856 0 -1324.96922361 0 12054
0.10750000 0.10749900 14898.69569838 0 53.13725376 0 3218.92894658 0 -194.87691359 0 -2085.69150248 0 12807
0.10850000 0.10850100 15073.03819122 0 -78.96478454 0 3418.72027267 0 99.81023410 0 -856.90290685 0 12736
0.10950000 0.10950300 15307.74297848 0 -15.03414554 0 3136.95088080 0 -143.50376756 0 -894.93564860 0 12933
0.11050000 0.11050200 14975.80656239 0 256.47455553 0 3687.21445603 0 -32.48098435 0 -736.83139981 0 13428
0.11150000 0.11150900 15215.00760995 0 239.04030625 0 3531.81245968 0 -217.85167962 0 18.15286408 0 13453
0.11250000 0.11250000 14849.91127421 0 347.55305215 0 4444.49709578 0 -124.89599434 0 694.40468769 0 13668
0.11350000 0.11349100 14825.74387513 0 163.36936959 0 4394.35255287 0 346.90671473 0 1569.73439328 0 13791
0.11450000 0.11448600 14619.81515374 0 25.49986581 0 4713.28353606 0 241.26258290 0 1459.08142749 0 14205
0.11550000 0.11549300 14794.27005309 0 -61.14475612 0 5036.28363481 0 548.93717845 0 2311.26888135 0 14776
0.11650000 0.11649800 14769.54062148 0 38.58173513 0 5268.61664477 0 181.94566899 0 1236.89872514 0 14553
0.11750000 0.11747300 14783.70384140 0 296.84310450 0 5162.08899780 0 -373.33685679 0 2156.82234031 0 14568
0.11850000 0.11849100 14393.99048056 0 531.33769160 0 5816.33983294 0 -383.76930474 0 1440.36574402 0 16015
0.11950000 0.11950300 13903.67329567 0 405.61438537 0 5169.32797687 0 -62.55646945 0 1689.03141949 0 15270
0.12050000 0.12050700 13566.11655422 0 254.36805759 0 5510.67281761 0 523.34783706 0 1504.34752798 0 15999
0.12150000 0.12150000 13641.87854015 0 71.89868668 0 4706.92132775 0 497.81245079 0 807.45753241 0 15670
0.12250000 0.12250700 13364.23446709 0 -165.95696739 0 4636.13895009 0 1172.17505823 0 1089.21680770 0 16887
0.12350000 0.12352200 13477.09060043 0 -69.87121050 0 4241.27737121 0 606.36566303 0 786.29475928 0 16407
0.12450000 0.12449800 13707.41153391 0 -77.13031034 0 3955.21405076 0 431.71180417 0 1594.92469157 0 16306
0.12550000 0.12549900 13661.88689845 0 68.26716965 0 4219.76276572 0 143.10922072 0 1149.68251612 0 17523
0.12650000 0.12650100 13841.84971665 0 164.05392522 0 4003.14418548 0 -68.80537200 0 1769.67184783 0 17154
0.12750000 0.12750600 13394.80903708 0 278.13978575 0 4172.67567980 0 81.07622837 0 1696.42776767 0 18007
0.12850000 0.12850300 13486.08312101 0 319.63577199 0 3740.31529009 0 122.21397507 0 2245.89325670 0 17496
0.12950000 0.12949900 13104.91265473 0 131.73480624 0 3438.75111228 0 670.77346766 0 1690.73999840 0 18405
0.13050000 0.13049000 12967.32708978 0 148.18325046 0 3500.75454171 0 614.31729936 0 1753.54151403 0 18100
0.13150000 0.13148800 12794.33347503 0 121.74748807 0 3206.89020965 0 485.58374686 0 1899.97347111 0 19059
0.13250000 0.13249300 12633.70457608 0 209.20087482 0 2781.00443475 0 551.20891396 0 1794.09778187 0 18957
0.13350000 0.13349100 12291.08954180 0 211.74013782 0 2715.42647839 0 179.09391590 0 1723.22547901 0 19468
0.13450000 0.13450700 12337.40102281 0 42.24809818 0 2821.81923756 0 131.39196639 0 2018.11271029 0 19953
0.13550000 0.13551000 12183.85373383 0 34.57905181 0 2849.61736681 0 291.87923314 0 2320.20519869 0 19956
0.13650000 0.13649900 12215.21514937 0 -3.72257754 0 3070.27134066 0 -59.03432395 0 2084.02788618 0 19723
0.13750000 0.13749600 12227.24264565 0 112.13931704 0 2862.98250053 0 -58.60942735 0 1651.30779564 0 20946
0.13850000 0.13851100 12086.28488548 0 323.19343795 0 3059.67140702 0 -122.67371769 0 1845.51251832 0 20955
0.13950000 0.13949800 11764.91468108 0 380.26222171 0 2974.34362732 0 -127.85565767 0 1973.22879192 0 20506
0.14050000 0.14048300 11466.25059116 0 364.50395345 0 3273.91820996 0 178.63979361 0 1755.65475637 0 21447
0.14150000 0.14148400 11169.36252406 0 303.68641267 0 2890.53333547 0 190.38065330 0 1410.97144236 0 21771
0.14250000 0.14249400 10809.63921936 0 221.00917841 0 2971.90440612 0 267.59717943 0 1019.56861171 0 22470
0.14350000 0.14350900 10827.37696622 0 272.71504771 0 2974.42231188 0 -264.12719055 0 857.20977662 0 22519
0.14450000 0.14449900 10526.50970875 0 162.52744485 0 3149.16946814 0 -124.14399480 0 1043.57639354 0 22218
0.14550000 0.14550500 10300.55014776 0 208.54554488 0 3198.32483379 0 -221.64202705 0 948.82220414 0 23559
0.14650000 0.14650700 10333.95736173 0 48.83141009 0 2889.12825413 0 350.04510441 0 1014.05170033 0 23044
0.14750000 0.14750500 10296.32366308 0 13.43055431 0 3259.24916075 0 112.55151170 0 1209.39285280 0 23649
0.14850000 0.14849900 10398.59110343 0 -4.25841936 0 2808.17308757 0 518.34911968 0 1114.28907916 0 23640
0.14950000 0.14949500 10331.82163809 0 74.71930317 0 3019.58724652 0 94.02781855 0 1427.06805420 0 24457
0.15050000 0.15050000 10254.15998219 0 223.32475246 0 2770.31457591 0 -283.87476576 0 796.64177828 0 24591
0.15150000 0.15149900 10194.11242598 0 213.18793363 0 3163.93968320 0 -479.79818393 0 1054.58211467 0 25020
0.15250000 0.15250500 10008.19206289 0 148.32713079 0 3177.19241042 0 -366.56324066 0 625.36011464 0 25297
0.15350000 0.15350100 9992.47763317 0 115.54826919 0 3547.34703899 0 -299.64315060 0 906.09649071 0 25452
0.15450000 0.15450400 9950.52752464 0 22.20646755 0 3536.83703055 0 123.16493412 0 1013.41885169 0 26061
0.15550000 0.15549900 9950.83102221 0 41.62210634 0 3727.98429623 0 262.03193326 0 977.57466464 0 26128
0.15650000 0.15649500 9925.77561173 0 136.58851923 0 3364.76514916 0 498.29579877 0 1330.13992295 0 26331
0.15750000 0.15749700 9688.02460812 0 143.59594089 0 3085.37877525 0 722.90648168 0 1456.27126480 0 27345
0.15850000 0.15849900 9603.52863658 0 172.51701116 0 3080.30924177 0 480.41529566 0 2018.80963064 0 26980
0.15950000 0.15949700 9297.55812368 0 189.80063572 0 2623.63532452 0 316.77053012 0 1505.53903696 0 27777
0.16050000 0.16050000 9167.50379472 0 150.01210433 0 2394.50590002 0 183.19787748 0 1500.45826283 0 28224
0.16150000 0.16150500 9006.85241447 0 188.71141667 0 2398.31648061 0 -198.39298914 0 1209.37037150 0 28075
0.16250000 0.16249700 8931.77610824 0 168.36696291 0 2467.05305984 0 -164.32482491 0 941.28647189 0 28590
0.16350000 0.16349900 8827.80008898 0 41.66808060 0 2571.36629862 0 -242.92619921 0 803.73238076 0 29163
0.16450000 0.16449100 8912.41970768 0 29.58145850 0 2611.29309002 0 -90.31907825 0 290.92602596 0 28996
0.16550000 0.16550500 8790.05398383 0 25.50503651 0 2599.19814983 0 -27.54903644 0 467.55374309 0 30777
0.16650000 0.16650700 8973.60256961 0 37.23667886 0 2763.01939358 0 50.95252089 0 323.82965878 0 29211
0.16750000 0.16749900 8814.95202520 0 36.06810081 0 2595.12903426 0 -46.61891281 0 272.91400723 0 30922
0.16850000 0.16850800 8880.42881570 0 126.67538935 0 2814.99616256 0 117.25347591 0 12.93484161 0 30867
0.16950000 0.16949900 8685.22367511 0 115.85513895 0 2516.68053281 0 -22.82459094 0 198.91905160 0 30852
0.17050000 0.17049200 8634.46089641 0 104.85189077 0 2601.53620518 0 76.89852812 0 -206.96510939 0 31257
0.17150000 0.17149500 8583.57447055 0 45.52530990 0 2462.91650037 0 211.47823066 0 -131.31890216 0 32608
0.17250000 0.17250900 8558.54154137 0 -3.99080195 0 2249.55770884 0 326.59485886 0 -147.36830328 0 32361
0.17350000 0.17350400 8474.49519586 0 39.40365151 0 1993.45072259 0 164.51928816 0 -183.97460645 0 32508
0.17450000 0.17449800 8496.38074283 0 116.66109361 0 1800.57239669 0 127.34533213 0 -183.62165002 0 32791
0.17550000 0.17549800 8343.47417093 0 121.17309082 0 1825.41423481 0 -27.15044296 0 -438.05939964 0 33633
0.17650000 0.17650100 8178.93352553 0 218.21812484 0 1724.97902053 0 -23.21745168 0 -227.53550023 0 33984
0.17750000 0.17750300 8090.41340103 0 169.91817271 0 2033.05153511 0 -231.74399986 0 -257.88750533 0 34069
0.17850000 0.17849800 7951.68128971 0 215.27082621 0 2134.62205512 0 -257.62335004 0 -227.37925518 0 34536
