### header ###
fiducial parameters:
Omega_m = 0.31
Omega_nu = 0
Omega_de = 0.69
Omega_k = 0
H_0 = 100
w_de = -1
zeff = 0
beta = 0
fgrowth = 0
b_1 = 2
gamma = 0.55
Lx = 3500 Ly = 3500 Lz = 3500
nx = 700 ny = 700 nz = 700
xoffset = 857.220397 yoffset = 15.9954215 zoffset = 262.898189
bins = 400 dk = 0.001
kx_ny = 0.628318531 ky_ny = 0.628318531 kz_ny = 0.628318531
############################
A(data) = 3.05691191 (not used)
A(ran) = 3.05750705 (used)
Ngal = 186885
weighted Ngal = 0
Nran = 9360983
weighted Nran = 0
SN(data) = 3432.38989
SN(ran) = 68.6601177
SN(data+ran) = 3501.05001
############################
13 columns: k_central k_mean P_0(k) sigma^{lin}_{P_0(k)} P^img_1(k) sigma^{lin}_{P_1(k)} P_2(k) sigma^{lin}_{P_2(k)} P^img_3(k) sigma^{lin}_{P_3(k)} P_4(k) sigma^{lin}_{P_4(k)} N_modes
### header ###
0.00050000 0 0 0 0 0 0 0 0 0 0 0 0
0.00150000 0.00179520 17906.69383399 0 -23448.89667691 0 -25361.04377275 0 52193.48872620 0 -6480.65105049 0 3
0.00250000 0.00253879 32359.47291787 0 -22715.33181020 0 6092.27532709 0 -43813.24638672 0 -684.03069113 0 6
0.00350000 0.00331552 45089.95949675 0 -11248.74399952 0 -13453.82245342 0 -13855.67571705 0 -1648.93601833 0 7
0.00450000 0.00420575 54600.44926722 0 -1812.19522955 0 5577.43104231 0 -39040.69089936 0 -1081.81708733 0 24
0.00550000 0.00557378 51944.39590600 0 9114.58281108 0 12265.12363861 0 -39176.81517971 0 -6329.45305751 0 45
0.00650000 0.00659388 52075.34948701 0 6518.85802233 0 39088.12644544 0 -20485.86114422 0 -16928.98203341 0 40
0.00750000 0.00754703 47875.50515439 0 1316.28020060 0 24419.07724150 0 -11697.47077670 0 -34408.19392010 0 57
0.00850000 0.00846663 55437.76534018 0 -5610.63592457 0 32748.17462015 0 -3279.40364751 0 -41471.03199390 0 75
0.00950000 0.00948925 61733.76622111 0 -6179.04191008 0 22750.17782747 0 5938.97533242 0 -23801.74070335 0 112
0.01050000 0.01054430 72963.17630137 0 -8190.87109661 0 34991.69609955 0 10750.72696888 0 -33960.70361450 0 105
0.01150000 0.01145670 80502.61796617 0 -5796.71365677 0 37573.56116595 0 11938.02070234 0 -1650.41978423 0 144
0.01250000 0.01249090 90179.01974143 0 -43.40599761 0 48370.31859957 0 16166.64110083 0 -16810.61798121 0 169
0.01350000 0.01339930 96582.14402384 0 1736.19718996 0 73146.51131479 0 8118.71735957 0 32446.25074151 0 180
0.01450000 0.01448870 94816.35020051 0 10106.12061206 0 84977.40861567 0 13060.96171037 0 32233.80244270 0 267
0.01550000 0.01550050 84697.85363199 0 8046.91208270 0 89329.11413966 0 28899.93784239 0 4381.61689559 0 238
0.01650000 0.01653350 86263.45146580 0 4853.98276126 0 94753.85218244 0 30107.07132439 0 52274.08419194 0 315
0.01750000 0.01747870 83231.17352461 0 2165.62376983 0 87916.05193627 0 42444.47234721 0 42633.31527949 0 297
0.01850000 0.01844180 81124.56317111 0 -161.16620205 0 77850.61123921 0 41801.39471889 0 42213.47697469 0 388
0.01950000 0.01947590 77174.37369123 0 -3013.52853577 0 32770.99314113 0 31573.41421225 0 6968.45032962 0 399
0.02050000 0.02045430 75772.10251254 0 1484.63142660 0 28493.36350545 0 20647.27688871 0 14149.16910764 0 462
0.02150000 0.02154770 71192.09937220 0 2313.73058386 0 6172.36496355 0 11426.68350059 0 2276.96241532 0 571
0.02250000 0.02255340 68834.14806836 0 2809.42079980 0 -7128.78697164 0 4465.82061022 0 2349.19483692 0 510
0.02350000 0.02348930 63988.30353823 0 3573.83001211 0 -9227.89981110 0 4633.68848823 0 -310.27793026 0 555
0.02450000 0.02439640 59785.98626244 0 3613.31841813 0 -4804.86111757 0 3679.31227857 0 -664.91146830 0 592
0.02550000 0.02547300 59753.83800135 0 3935.09328595 0 -4638.96035343 0 2812.88292022 0 1374.33816162 0 837
0.02650000 0.02652900 56661.64739177 0 2837.08404125 0 3856.59982190 0 -4638.47700544 0 5375.67260234 0 723
0.02750000 0.02749970 55046.70310124 0 2528.77547300 0 5782.04460756 0 -1798.06573158 0 11929.02818176 0 826
0.02850000 0.02848090 54329.66199111 0 809.71690321 0 11538.52797536 0 -3301.18802863 0 8055.74723417 0 831
0.02950000 0.02946900 54482.98446708 0 1795.57030712 0 13688.75205369 0 -330.18287457 0 14890.15280382 0 996
0.03050000 0.03053250 52752.59869356 0 1854.46007630 0 13879.50589660 0 971.27427991 0 6998.13688820 0 1041
0.03150000 0.03150510 50631.03827459 0 1555.30139774 0 10928.31800978 0 6304.65618200 0 3724.60086036 0 1036
0.03250000 0.03246190 49249.11267372 0 318.50945879 0 4282.65420656 0 1822.69399733 0 4025.77161540 0 1059
0.03350000 0.03345080 49063.19231063 0 -1335.87265482 0 3744.77782843 0 4447.99293816 0 -4795.18291729 0 1302
0.03450000 0.03451200 50475.69248149 0 -1139.26243289 0 2447.24703325 0 -3203.83275265 0 -4551.74414440 0 1339
0.03550000 0.03553350 53124.32701323 0 -520.20045485 0 4215.61496560 0 -7216.13806847 0 -13507.66517042 0 1365
0.03650000 0.03647120 52668.29381307 0 2443.58258111 0 7578.63781390 0 -10846.69964482 0 -12916.51934847 0 1308
0.03750000 0.03744890 50792.00439306 0 3765.93273310 0 11573.37399263 0 -9329.20055549 0 -11917.78753103 0 1579
0.03850000 0.03847530 47781.87053380 0 3825.71051369 0 14769.54062148 0 -5939.15518283 0 -11144.73425830 0 1662
0.03950000 0.03950240 45270.59675399 0 2944.52218094 0 13612.09081571 0 5062.92397705 0 -15704.42554278 0 1683
0.04050000 0.04050350 42761.45869782 0 289.42877128 0 12406.30621179 0 6846.47802853 0 -14108.59035850 0 1822
0.04150000 0.04152450 42406.59135424 0 -715.04701869 0 6105.51681365 0 7579.96421068 0 -13030.49954689 0 1887
0.04250000 0.04250150 43179.16127899 0 -2009.95199786 0 4660.90210365 0 5602.65506255 0 -9320.69138288 0 1920
0.04350000 0.04349210 44010.07018102 0 -2035.20974005 0 1637.99886517 0 3613.58819375 0 -1192.48691410 0 2005
0.04450000 0.04448520 46363.86244409 0 -2128.33853136 0 1179.44775925 0 2054.73475037 0 296.10009749 0 2151
0.04550000 0.04548030 48270.72643410 0 -569.01410472 0 2335.79598125 0 292.35246454 0 5321.72871948 0 2274
0.04650000 0.04648670 48471.93408218 0 40.29121329 0 6278.88136987 0 -619.67234537 0 4209.26399793 0 2311
0.04750000 0.04749250 48195.97610673 0 2127.82146142 0 8738.66172868 0 -1989.39284767 0 8705.16458951 0 2568
0.04850000 0.04851840 45312.74919423 0 2993.36280836 0 11358.56515716 0 -2333.53661045 0 6702.83375284 0 2493
0.04950000 0.04949480 43907.78025937 0 3374.49955270 0 13458.09390069 0 -2941.61085240 0 7287.67356972 0 2644
0.05050000 0.05050630 40548.17456889 0 3418.07955558 0 14077.79097549 0 958.82076296 0 8718.36111346 0 2829
0.05150000 0.05149060 38356.69730238 0 1766.32213392 0 13200.34577943 0 2368.98962286 0 6606.93976146 0 2784
0.05250000 0.05249300 36443.20132844 0 343.13997267 0 11833.37024404 0 4421.39755853 0 5829.64876341 0 3055
0.05350000 0.05348950 36888.10628437 0 2.78019511 0 10913.90749554 0 4196.98920733 0 4513.21119370 0 3009
0.05450000 0.05448610 36045.84432510 0 102.48056309 0 7212.41741308 0 3581.60854242 0 3891.97414975 0 3336
0.05550000 0.05550870 35723.46246213 0 940.36249040 0 9657.04537471 0 81.79607965 0 4371.53403189 0 3349
0.05650000 0.05647670 35559.68618098 0 1745.34707965 0 10280.90149028 0 -3584.53111161 0 2559.24887713 0 3324
0.05750000 0.05747970 34093.00607360 0 2085.56785533 0 11787.17116953 0 -2025.17183895 0 4804.29908503 0 3639
0.05850000 0.05849280 32235.26372729 0 2153.43890444 0 13845.22191187 0 -2768.16761162 0 3589.08357515 0 3846
0.05950000 0.05951020 31698.29784187 0 868.41558133 0 13236.54067479 0 697.40256924 0 6684.32040109 0 3787
0.06050000 0.06049470 31292.62275699 0 -406.56984068 0 15170.49463305 0 2735.54724320 0 4884.25383368 0 3930
0.06150000 0.06148310 32348.00745412 0 -920.99260106 0 11748.72814403 0 2366.62908620 0 4243.24448509 0 4083
0.06250000 0.06249100 32589.00700580 0 -574.43097431 0 9453.19617370 0 1978.45569451 0 -600.14733505 0 4303
0.06350000 0.06350600 32678.59499212 0 199.07529664 0 11158.95368148 0 -484.59232147 0 642.10643610 0 4470
0.06450000 0.06451750 32586.53406264 0 473.76420262 0 8223.62635284 0 -1821.13154688 0 -622.87031050 0 4479
0.06550000 0.06550280 31186.17379457 0 687.19043805 0 9115.25725012 0 209.25595401 0 -610.89676934 0 4636
0.06650000 0.06648880 32431.63789556 0 -169.72258539 0 7717.48233173 0 2067.34676049 0 -1284.09821756 0 4653
0.06750000 0.06749660 31054.88299403 0 -70.45145290 0 6911.80869058 0 3217.73743760 0 -2759.05144387 0 5220
0.06850000 0.06852730 31378.05170255 0 -95.96604396 0 4839.77457874 0 3335.70806702 0 -763.24018463 0 5029
0.06950000 0.06949320 30322.55459891 0 194.95447408 0 5562.98680612 0 1549.27640895 0 -559.77316575 0 5040
0.07050000 0.07048030 30027.71233023 0 823.40464361 0 3609.09193345 0 869.05067810 0 -113.53619271 0 5475
0.07150000 0.07148790 29675.76755585 0 846.01746068 0 5476.93962477 0 -801.31114460 0 -1065.03929205 0 5509
0.07250000 0.07249820 28917.47325753 0 892.39301340 0 5042.71328703 0 -1350.74403574 0 473.94405303 0 5916
0.07350000 0.07351270 28351.95611926 0 712.37399195 0 6899.48893738 0 -2436.01762317 0 -587.82982998 0 5721
0.07450000 0.07449140 28513.48427026 0 249.28166313 0 5703.86588173 0 -511.38666062 0 -1010.03091956 0 6028
0.07550000 0.07549160 27978.42929547 0 112.17843451 0 6839.81232265 0 -450.03294080 0 -1797.70603076 0 6183
0.07650000 0.07648840 28316.09844343 0 218.51375395 0 4813.22416171 0 -150.13013116 0 -4118.61939044 0 6330
0.07750000 0.07749960 28075.77333080 0 347.10904644 0 7315.59534614 0 -168.59627218 0 -3729.56922799 0 6583
0.07850000 0.07848650 27310.06020300 0 800.05668797 0 6634.29950534 0 -1109.71413431 0 -4756.71741048 0 6549
0.07950000 0.07947320 26892.02040232 0 987.17305630 0 8552.01072330 0 -666.21088752 0 -3942.46715283 0 6828
0.08050000 0.08048110 26169.58377984 0 611.93765360 0 8176.29197261 0 -302.62192304 0 -3128.92505618 0 7147
0.08150000 0.08149960 25909.92474795 0 289.29163534 0 7588.68695565 0 127.57351734 0 -3460.18703322 0 7386
0.08250000 0.08250610 25776.04859774 0 -20.68088643 0 8394.65285371 0 1460.47526818 0 -3492.24536910 0 7227
0.08350000 0.08350160 25516.27715935 0 307.65885864 0 8078.47582995 0 600.02593602 0 -2995.10510922 0 7798
0.08450000 0.08449610 25370.14869985 0 348.83561040 0 8175.50512706 0 1495.07399113 0 -1142.48849965 0 7371
0.08550000 0.08548940 24762.47912133 0 868.08510620 0 7849.38012740 0 393.62061104 0 -2083.35344713 0 8256
0.08650000 0.08650700 24010.14236790 0 687.99077238 0 7802.84383338 0 220.11217448 0 -1229.27756394 0 8037
0.08750000 0.08749060 23150.23258698 0 914.91590527 0 8500.33745189 0 -49.02677260 0 -1529.86380514 0 8155
0.08850000 0.08849210 22562.34655375 0 708.99954860 0 8540.10687417 0 220.09531351 0 574.74571253 0 8718
0.08950000 0.08949900 21602.73220085 0 532.42241439 0 7893.54464413 0 550.84359281 0 -769.50797148 0 8571
0.09050000 0.09049190 21687.26189435 0 396.84892593 0 8727.90442593 0 -187.19392882 0 -432.55934923 0 8932
0.09150000 0.09150830 21095.21682034 0 275.51284568 0 7473.65013607 0 1087.98258425 0 -571.65003731 0 9285
0.09250000 0.09250820 20907.38554663 0 322.64039793 0 8228.53851721 0 250.56084918 0 -1168.81410366 0 9204
0.09350000 0.09350330 20889.06328594 0 207.18205395 0 6524.34345988 0 -176.37817469 0 -144.14560871 0 9349
0.09450000 0.09448040 20505.64468950 0 314.15707882 0 8251.05354062 0 249.50647615 0 -1007.71309738 0 9564
0.09550000 0.09549270 20356.14403478 0 403.92491556 0 7352.61080900 0 -346.70325895 0 -555.14763798 0 10155
0.09650000 0.09649430 20198.21289201 0 657.91641135 0 8648.62411633 0 92.83664679 0 -330.73479052 0 9913
0.09750000 0.09749140 19200.94235916 0 764.93527476 0 7511.19390951 0 333.61801744 0 -70.28194388 0 10476
0.09850000 0.09850240 18675.10471796 0 903.24923388 0 8548.45867767 0 795.52108540 0 -59.37761342 0 10575
0.09950000 0.09950330 17767.19735842 0 601.88626372 0 7274.47704577 0 908.15128166 0 71.03754042 0 10882
0.10050000 0.10051200 17415.47739705 0 528.01832744 0 7560.21438735 0 1050.72657147 0 456.21867089 0 10875
0.10150000 0.10150300 17312.28822334 0 46.33688488 0 6534.88719027 0 242.08764666 0 -379.43715795 0 11118
0.10250000 0.10250800 17086.91317618 0 -150.41451963 0 6283.68112773 0 456.16808797 0 1069.45799185 0 11575
0.10350000 0.10349800 17507.87554606 0 -18.85911417 0 6803.38137363 0 5.73148416 0 217.09855602 0 11364
0.10450000 0.10450100 17673.56273783 0 -141.45909319 0 6470.65811199 0 78.39049969 0 491.33671191 0 12093
0.10550000 0.10551000 17361.07264751 0 337.14533363 0 6776.44877448 0 -212.87769167 0 50.02224463 0 12067
0.10650000 0.10649700 17219.55285481 0 467.77293578 0 7075.46132457 0 -201.49765687 0 565.65539828 0 12054
0.10750000 0.10749900 16266.90770535 0 626.04467027 0 7418.03139625 0 -284.53571602 0 84.18202017 0 12807
0.10850000 0.10850100 16188.11074373 0 481.85072676 0 7378.30693657 0 -58.73060157 0 716.54764556 0 12736
0.10950000 0.10950300 15727.24406376 0 143.80389293 0 7299.24019933 0 709.96849269 0 154.81073813 0 12933
0.11050000 0.11050200 15554.92488805 0 110.56787407 0 6841.61082677 0 496.31294799 0 555.17686367 0 13428
0.11150000 0.11150900 15630.68687398 0 -124.16422797 0 6363.66959834 0 1131.33777412 0 694.32937533 0 13453
0.11250000 0.11250000 15697.79355884 0 -70.21641089 0 6289.33517505 0 547.60291321 0 387.72826192 0 13668
0.11350000 0.11349100 15939.35514305 0 -204.57871924 0 5608.29786921 0 1111.29007354 0 1272.09320258 0 13791
0.11450000 0.11448600 16084.92157002 0 -216.33756397 0 5536.53755495 0 1120.16906356 0 1141.26326872 0 14205
0.11550000 0.11549300 16143.37295382 0 -39.63318560 0 4376.49115886 0 873.26704618 0 1888.35063825 0 14776
0.11650000 0.11649800 15835.94115633 0 193.44260656 0 4834.13177207 0 451.54593238 0 1474.96446697 0 14553
0.11750000 0.11747300 15729.15497438 0 715.02790958 0 3936.61077380 0 74.47290810 0 1796.58196568 0 14568
0.11850000 0.11849100 14704.68206676 0 636.82108212 0 4254.24908216 0 217.49647506 0 1559.95502715 0 16015
0.11950000 0.11950300 14249.88533818 0 570.22022654 0 3670.94923443 0 -36.40307221 0 1022.31020642 0 15270
0.12050000 0.12050700 13795.98786167 0 283.93658933 0 3548.97693334 0 458.69273812 0 1424.77496145 0 15999
0.12150000 0.12150000 13570.38800150 0 182.07606054 0 3518.02018123 0 168.77275040 0 380.86584465 0 15670
0.12250000 0.12250700 13572.18650561 0 56.73875826 0 3015.76542527 0 69.37920722 0 916.15350092 0 16887
0.12350000 0.12352200 13460.56684385 0 152.52101757 0 3078.87043847 0 62.74047890 0 -114.36013241 0 16407
0.12450000 0.12449800 13442.01977015 0 48.53420729 0 3092.59527301 0 -308.96165006 0 780.17422496 0 16306
0.12550000 0.12549900 13423.69750946 0 198.96401420 0 3536.72462405 0 -136.25916816 0 -347.66433459 0 17523
0.12650000 0.12650100 13248.34335805 0 319.31428938 0 3429.29772501 0 -86.20623655 0 203.41980815 0 17154
0.12750000 0.12750600 13021.95665233 0 252.13116809 0 3991.57755588 0 -261.46877665 0 -151.01926664 0 18007
0.12850000 0.12850300 12964.74174011 0 179.07368273 0 3813.88534912 0 -39.72884354 0 -356.30165061 0 17496
0.12950000 0.12949900 12914.15881182 0 90.75791325 0 4503.64539993 0 -409.35977019 0 395.47194621 0 18405
0.13050000 0.13049000 12837.38516733 0 246.04210759 0 4881.43243034 0 -356.86368315 0 -216.29597356 0 18100
0.13150000 0.13148800 12887.51846959 0 163.70771318 0 5125.89410244 0 -509.82758236 0 785.02681388 0 19059
0.13250000 0.13249300 12854.47095644 0 199.51030982 0 5610.05141073 0 -291.80279672 0 241.77628064 0 18957
0.13350000 0.13349100 12815.69071142 0 119.03849124 0 5673.71845647 0 275.01038859 0 338.83367937 0 19468
0.13450000 0.13450700 12654.49977994 0 -103.10026016 0 5165.62980278 0 1017.83193117 0 330.59990271 0 19953
0.13550000 0.13551000 12619.42894965 0 -80.48508255 0 4626.57315632 0 826.01584677 0 431.86242889 0 19956
0.13650000 0.13649900 12656.86031659 0 -117.01629817 0 3653.63863230 0 1141.15086221 0 -268.79206060 0 19723
0.13750000 0.13749600 12601.44390848 0 -63.91051824 0 3060.96408186 0 695.00606250 0 -343.11187104 0 20946
0.13850000 0.13851100 12450.93159520 0 152.62667969 0 2166.55674384 0 701.23675520 0 -106.31665996 0 20955
0.13950000 0.13949800 12287.94215960 0 273.73682286 0 2595.17399687 0 172.17304725 0 352.37304318 0 20506
0.14050000 0.14048300 12019.51542014 0 187.15346248 0 1956.76123860 0 -107.25559152 0 72.96160261 0 21447
0.14150000 0.14148400 11815.94723540 0 352.06729748 0 2413.68245016 0 174.89216066 0 373.08843841 0 21771
0.14250000 0.14249400 11566.85441520 0 219.14323039 0 2121.94260109 0 19.84525646 0 565.66439080 0 22470
0.14350000 0.14350900 11362.72419793 0 283.14861972 0 2607.07784599 0 154.42630787 0 612.34681329 0 22519
0.14450000 0.14449900 11157.06525216 0 298.23582113 0 2526.17888268 0 -163.24010211 0 439.80170050 0 22218
0.14550000 0.14550500 10930.68978708 0 363.29445943 0 3043.87829275 0 -273.30068561 0 935.76843644 0 23559
0.14650000 0.14650700 10647.91997730 0 251.29261555 0 2773.65304917 0 -138.69052091 0 684.13522918 0 23044
0.14750000 0.14750500 10673.85215853 0 85.29574384 0 3289.57643642 0 -170.01596637 0 1283.32261266 0 23649
0.14850000 0.14849900 10674.52659758 0 24.56048463 0 3384.17775298 0 -63.27845644 0 520.28026347 0 23640
0.14950000 0.14949500 10677.32551961 0 49.31262235 0 3569.43491767 0 3.55410267 0 1173.06306964 0 24457
0.15050000 0.15050000 10533.00680487 0 219.09039933 0 3739.44975998 0 -13.93143770 0 781.94575152 0 24591
0.15150000 0.15149900 10415.59820799 0 291.99725997 0 3559.91408650 0 120.04902574 0 837.37452434 0 25020
0.15250000 0.15250500 10060.03394406 0 317.38539371 0 3753.80407096 0 23.27961248 0 74.12916900 0 25297
0.15350000 0.15350100 9917.42380824 0 202.48683414 0 3547.95403413 0 65.65709055 0 530.10122002 0 25452
0.15450000 0.15450400 9695.12869938 0 84.68976036 0 3290.52065109 0 117.27033688 0 16.69854869 0 26061
0.15550000 0.15549900 9607.30549522 0 12.39529037 0 3225.61713377 0 179.44687233 0 366.41936033 0 26128
0.15650000 0.15649500 9715.54172111 0 -39.08183168 0 2775.87869802 0 580.52902733 0 -142.72928672 0 26331
0.15750000 0.15749700 9728.56963531 0 -22.43678849 0 2844.10944796 0 252.81235153 0 158.47181807 0 27345
0.15850000 0.15849900 9693.24027006 0 76.20183259 0 2534.58688943 0 353.33074662 0 276.91905108 0 26980
0.15950000 0.15949700 9653.44836647 0 67.80978757 0 2771.24754992 0 -106.35060673 0 148.30689761 0 27777
0.16050000 0.16050000 9650.55951924 0 117.84923039 0 2440.43519890 0 5.64657228 0 334.02830119 0 28224
0.16150000 0.16150500 9588.67973696 0 175.23612457 0 2744.73085484 0 -292.98868537 0 237.92073744 0 28075
0.16250000 0.16249700 9408.41342119 0 188.78785309 0 2669.87936163 0 -160.35237894 0 -2.25113140 0 28590
0.16350000 0.16349900 9272.46899125 0 109.20977865 0 2868.95128607 0 -169.16055285 0 243.19035450 0 29163
0.16450000 0.16449100 9221.05425480 0 78.14219372 0 2953.46973892 0 290.79001409 0 -69.29186737 0 28996
0.16550000 0.16550500 9230.24910710 0 52.11705230 0 2633.84183538 0 254.21968100 0 44.38269775 0 30777
0.16650000 0.16650700 9142.23481188 0 39.34452569 0 2663.09000858 0 210.76557340 0 -270.31854097 0 29211
0.16750000 0.16749900 9259.29494859 0 -23.48014569 0 2581.07822085 0 141.73224100 0 179.44687233 0 30922
0.16850000 0.16850800 9169.11120778 0 -1.40807135 0 2547.27758410 0 -57.64891375 0 52.14335542 0 30867
0.16950000 0.16949900 9149.87845438 0 -5.33048519 0 2501.69674539 0 -22.82121874 0 51.25051054 0 30852
0.17050000 0.17049200 9204.90143970 0 96.28865063 0 2410.31025494 0 0.64172201 0 -287.16827642 0 31257
0.17150000 0.17149500 8943.52258826 0 193.10201484 0 2318.84507995 0 15.90776891 0 -529.76400050 0 32608
0.17250000 0.17250900 8872.09949351 0 197.05759983 0 2380.29771749 0 85.27685955 0 -410.00610761 0 32361
0.17350000 0.17350400 8674.67994472 0 264.39921430 0 2387.66034372 0 -56.66456996 0 -791.65317749 0 32508
0.17450000 0.17449800 8472.79785759 0 376.66521347 0 2316.77680021 0 -58.76926940 0 -498.83535001 0 32791
0.17550000 0.17549800 8132.56584127 0 324.24781099 0 2378.06082800 0 -30.54185969 0 -619.56331106 0 33633
0.17650000 0.17650100 7914.28364472 0 249.21871549 0 2484.04892374 0 122.40169394 0 -185.56965479 0 33984
0.17750000 0.17750300 7859.82269193 0 99.96557989 0 2571.56863033 0 144.27712433 0 150.14024775 0 34069
0.17850000 0.17849800 7707.71420624 0 60.13624494 0 2626.82766933 0 59.49485341 0 220.48986035 0 34536
