### header ###
fiducial parameters:
Omega_m = 0.31
Omega_nu = 0
Omega_de = 0.69
Omega_k = 0
H_0 = 100
w_de = -1
zeff = 0
beta = 0
fgrowth = 0
b_1 = 2
gamma = 0.55
Lx = 3500 Ly = 3500 Lz = 3500
nx = 700 ny = 700 nz = 700
xoffset = 857.220397 yoffset = 15.9954215 zoffset = 262.898189
bins = 400 dk = 0.001
kx_ny = 0.628318531 ky_ny = 0.628318531 kz_ny = 0.628318531
############################
A(data) = 3.10827728 (not used)
A(ran) = 3.11702934 (used)
Ngal = 190594
weighted Ngal = 0
Nran = 9360983
weighted Nran = 0
SN(data) = 3413.82525
SN(ran) = 69.9967646
SN(data+ran) = 3483.82202
############################
13 columns: k_central k_mean P_0(k) sigma^{lin}_{P_0(k)} P^img_1(k) sigma^{lin}_{P_1(k)} P_2(k) sigma^{lin}_{P_2(k)} P^img_3(k) sigma^{lin}_{P_3(k)} P_4(k) sigma^{lin}_{P_4(k)} N_modes
### header ###
0.00050000 0 0 0 0 0 0 0 0 0 0 0 0
0.00150000 0.00179520 23463.28470984 0 -26435.76238914 0 -15392.27267198 0 35191.33005653 0 138884.98417183 0 3
0.00250000 0.00253879 37698.21998255 0 -32405.33477285 0 -10187.19942578 0 -23228.46751607 0 -40052.91149768 0 6
0.00350000 0.00331552 58199.70563129 0 -37418.88981189 0 -30908.52972151 0 18481.09108634 0 12103.93270713 0 7
0.00450000 0.00420575 80557.92196776 0 -34391.78257003 0 -25952.63922073 0 -17839.69955563 0 -6387.70210960 0 24
0.00550000 0.00557378 106390.96066471 0 -15164.31227515 0 -36735.23343443 0 -21822.14970312 0 24888.71162904 0 45
0.00650000 0.00659388 104541.87361947 0 5681.57567133 0 -11736.92546076 0 -26026.71510904 0 -26613.47707720 0 40
0.00750000 0.00754703 99794.15997022 0 17334.99433781 0 -37971.48020182 0 -10988.56789770 0 23727.44000202 0 57
0.00850000 0.00846663 82086.31324766 0 20193.82903823 0 3390.96710602 0 -24208.31504029 0 -1239.51779676 0 75
0.00950000 0.00948925 71766.27181153 0 19059.98459899 0 2726.06013398 0 -17069.04054152 0 19456.66716329 0 112
0.01050000 0.01054430 43678.13376493 0 13107.49800439 0 9127.44211552 0 -1650.66707854 0 -9079.26468648 0 105
0.01150000 0.01145670 50256.72460525 0 3568.06355828 0 26200.38316284 0 -3702.38933452 0 9692.77940338 0 144
0.01250000 0.01249090 44294.00901849 0 -4308.28289022 0 16944.94375745 0 5901.80250045 0 -2453.75537002 0 169
0.01350000 0.01339930 59724.94952898 0 -5807.65080993 0 34062.31909711 0 2587.96873975 0 23386.39865884 0 180
0.01450000 0.01448870 60115.44973537 0 -8548.36875246 0 20231.82243770 0 17979.64565723 0 9689.50837402 0 267
0.01550000 0.01550050 68927.10824990 0 -6343.25657661 0 18825.95425077 0 11184.82965946 0 19080.77980284 0 238
0.01650000 0.01653350 72554.12902127 0 -6103.49349652 0 17774.50378139 0 16453.05288146 0 18899.24329354 0 315
0.01750000 0.01747870 81386.69514616 0 -4567.14383591 0 31818.68521120 0 5378.04437964 0 29930.81792093 0 297
0.01850000 0.01844180 82534.47799230 0 -1239.78757237 0 27226.31735506 0 587.00589028 0 25849.89967305 0 388
0.01950000 0.01947590 82374.41112589 0 -587.76913046 0 23656.17427639 0 1973.21755127 0 24139.18503830 0 399
0.02050000 0.02045430 84784.63145563 0 4050.72586002 0 34549.15168027 0 3509.53348993 0 39844.62223964 0 462
0.02150000 0.02154770 81241.91556475 0 5190.30303113 0 35126.13428229 0 7350.45260406 0 36981.62849845 0 571
0.02250000 0.02255340 77254.18231142 0 6341.32318468 0 45681.21772520 0 5809.43807339 0 45903.33298364 0 510
0.02350000 0.02348930 74458.52006811 0 5891.53978633 0 37586.15069477 0 13899.28944189 0 34562.07842861 0 555
0.02450000 0.02439640 64958.37169631 0 7853.01085759 0 35404.34038788 0 6368.55928140 0 31733.70589168 0 592
0.02550000 0.02547300 64568.65833547 0 5232.77020959 0 40357.75794551 0 9293.05062274 0 39953.88136474 0 837
0.02650000 0.02652900 58396.19220606 0 4073.88160053 0 43438.37068484 0 -1072.65595698 0 40011.43349648 0 723
0.02750000 0.02749970 60302.94378956 0 1976.99440992 0 38596.01075644 0 6643.55056089 0 36538.74685965 0 826
0.02850000 0.02848090 57496.60292806 0 137.46416592 0 44192.28112937 0 997.14351350 0 31688.29366272 0 831
0.02950000 0.02946900 59552.51794676 0 -242.24389171 0 35971.31881075 0 6532.20067475 0 29932.61642505 0 996
0.03050000 0.03053250 61132.50381351 0 -1711.78249657 0 40200.72605479 0 7007.65771937 0 24341.96637748 0 1041
0.03150000 0.03150510 60740.99194855 0 274.36292711 0 27383.68646529 0 2851.60696199 0 13758.55649473 0 1036
0.03250000 0.03246190 61511.53855616 0 660.83560834 0 33363.93746719 0 6499.77139739 0 14482.22958879 0 1059
0.03350000 0.03345080 60750.88372119 0 -178.81739589 0 23255.55748433 0 5253.08206546 0 7092.42346653 0 1302
0.03450000 0.03451200 59765.52827811 0 2363.21192838 0 24005.87092063 0 1551.35592934 0 8331.87381938 0 1339
0.03550000 0.03553350 57204.12119604 0 4146.99079288 0 22152.06280207 0 4507.54590573 0 8034.24386933 0 1365
0.03650000 0.03647120 51012.88317992 0 4736.51796112 0 16783.07838692 0 515.03987210 0 -261.70595438 0 1308
0.03750000 0.03744890 48875.13622390 0 5974.34966027 0 20926.94427890 0 1761.07275002 0 2271.15099890 0 1579
0.03850000 0.03847530 41292.86767982 0 4986.81353095 0 18107.45185605 0 1270.13732935 0 -5293.25615118 0 1662
0.03950000 0.03950240 38590.61524409 0 2578.80760940 0 18644.19292845 0 -552.76574409 0 -3328.45784730 0 1683
0.04050000 0.04050350 37834.34426291 0 259.20266147 0 19452.28330950 0 -723.38870560 0 -7531.79802230 0 1822
0.04150000 0.04152450 37584.23978414 0 -422.18422861 0 19127.54090988 0 1101.21620236 0 -1453.77584034 0 1887
0.04250000 0.04250150 37776.11769212 0 -915.82302579 0 16161.35799499 0 4322.79457032 0 -5114.68717366 0 1920
0.04350000 0.04349210 39278.65547533 0 -1363.90683775 0 15802.78123667 0 7251.01780769 0 3878.14814935 0 2005
0.04450000 0.04448520 40900.23174978 0 -1714.90739747 0 15176.56458445 0 5837.05635224 0 3521.34741385 0 2151
0.04550000 0.04548030 41646.27373880 0 -1819.33304276 0 11128.03065132 0 7676.19542159 0 6012.18569063 0 2274
0.04650000 0.04648670 43387.90016306 0 -1499.10938474 0 13625.69200309 0 1667.68542375 0 6469.19682740 0 2311
0.04750000 0.04749250 44150.57831516 0 -60.66567959 0 9760.40315818 0 -227.69961373 0 3046.89078714 0 2568
0.04850000 0.04851840 43999.27915632 0 1229.61478346 0 11208.98581788 0 -5389.85830356 0 4797.45352873 0 2493
0.04950000 0.04949480 42016.20355436 0 2298.30841106 0 11354.06889687 0 -4955.19358044 0 -534.27599770 0 2644
0.05050000 0.05050630 41256.22315843 0 1998.93616014 0 13787.44496711 0 -4262.62336695 0 2491.70380689 0 2829
0.05150000 0.05149060 40064.60177444 0 1883.86561861 0 13905.13458027 0 -353.34086321 0 -1934.89817293 0 2784
0.05250000 0.05249300 39434.56330097 0 1193.39740681 0 17428.06692587 0 97.85548494 0 84.18651643 0 3055
0.05350000 0.05348950 37981.37197447 0 920.53960283 0 13973.02811068 0 3116.65026558 0 -3232.49641201 0 3009
0.05450000 0.05448610 38178.30817527 0 396.37569453 0 17231.01831855 0 896.15188701 0 307.21260480 0 3336
0.05550000 0.05550870 36949.92986339 0 779.82351666 0 15346.63563001 0 3814.96445159 0 -1098.33747171 0 3349
0.05650000 0.05647670 36009.42461673 0 571.14982836 0 15263.45481460 0 441.87560056 0 -973.01545671 0 3324
0.05750000 0.05747970 35278.44509969 0 233.67739179 0 12217.01365349 0 3649.91797691 0 510.05239537 0 3639
0.05850000 0.05849280 35281.70488841 0 26.27603274 0 10892.43785265 0 621.10215614 0 -437.62438645 0 3846
0.05950000 0.05951020 35614.54055655 0 -608.33052878 0 9835.81668393 0 2227.78456838 0 16.88064724 0 3787
0.06050000 0.06049470 35187.84545480 0 223.85755931 0 10421.31969921 0 893.15400546 0 -1324.80061385 0 3930
0.06150000 0.06148310 34785.99219117 0 366.69925254 0 9356.97620344 0 124.53179725 0 103.28977753 0 4083
0.06250000 0.06249100 34770.92971919 0 1551.10863502 0 10530.55634301 0 -1288.86425347 0 970.09513565 0 4303
0.06350000 0.06350600 33693.73815964 0 1614.28109213 0 11978.82426450 0 667.23153861 0 3835.92826520 0 4470
0.06450000 0.06451750 31854.43048053 0 1438.94942203 0 13478.77669804 0 148.80036218 0 2256.98777897 0 4479
0.06550000 0.06550280 30753.40874143 0 1086.17958388 0 9524.11343916 0 2309.57154309 0 3836.29920668 0 4636
0.06650000 0.06648880 30032.88302957 0 869.71949681 0 12080.55215361 0 1126.38064715 0 2272.57856154 0 4653
0.06750000 0.06749660 29572.91560166 0 458.53874120 0 9812.22255805 0 892.26149779 0 3160.16282456 0 5220
0.06850000 0.06852730 28771.56961104 0 139.11429345 0 9923.90966371 0 -153.84066997 0 990.89933202 0 5029
0.06950000 0.06949320 28990.53748728 0 -574.30957528 0 9001.55806798 0 -1016.57972268 0 450.78494033 0 5040
0.07050000 0.07048030 29133.18134506 0 -172.17979164 0 8624.00709123 0 -1177.37947952 0 -938.34704172 0 5475
0.07150000 0.07148790 30194.86080660 0 67.89285598 0 10292.67045159 0 25.64846721 0 -1845.02917033 0 5509
0.07250000 0.07249820 30158.32869173 0 300.93694950 0 10941.42460853 0 289.75699828 0 160.83123066 0 5916
0.07350000 0.07351270 28976.48667387 0 945.00263102 0 10704.20191551 0 1887.53007075 0 -248.36442603 0 5721
0.07450000 0.07449140 28924.21764797 0 808.93118173 0 10777.23242330 0 779.95952853 0 2510.83539443 0 6028
0.07550000 0.07549160 27713.82437726 0 1371.42683309 0 11516.49629993 0 2081.81347798 0 2198.22165695 0 6183
0.07650000 0.07648840 27001.95396646 0 1478.34790284 0 11060.49682173 0 904.81280840 0 4244.78445424 0 6330
0.07750000 0.07749960 25401.95974142 0 886.75020674 0 10159.53618434 0 833.31440129 0 4143.85465133 0 6583
0.07850000 0.07848650 24787.88299198 0 431.39706595 0 9134.06285880 0 1438.52227730 0 4983.83475850 0 6549
0.07950000 0.07947320 24309.36849036 0 19.47869884 0 7984.71756220 0 1857.19155443 0 3181.65494876 0 6828
0.08050000 0.08048110 24474.94327563 0 -449.29555411 0 6167.44155853 0 1747.19054637 0 1423.39236141 0 7147
0.08150000 0.08149960 24531.37134230 0 -275.64436129 0 5139.88871260 0 734.03584997 0 1228.13101757 0 7386
0.08250000 0.08250610 24547.78269237 0 -149.84911489 0 4288.67919535 0 70.42290164 0 -514.30922981 0 7227
0.08350000 0.08350160 24397.60759860 0 468.84866605 0 4324.96401591 0 -994.37269310 0 -650.85278643 0 7798
0.08450000 0.08449610 24179.65138093 0 767.89943436 0 6254.45543583 0 -1587.57330599 0 -356.81647241 0 7371
0.08550000 0.08548940 23280.51172896 0 888.38347329 0 6541.68778396 0 -1554.05368551 0 -1017.10128887 0 8256
0.08650000 0.08650700 23032.09334780 0 814.82802710 0 8762.55935214 0 -594.00881568 0 451.34922100 0 8037
0.08750000 0.08749060 22463.54123383 0 316.04663221 0 8781.10642584 0 711.39942753 0 -591.41896976 0 8155
0.08850000 0.08849210 22818.97060994 0 -179.66044470 0 9458.78277711 0 507.63003514 0 1247.46493682 0 8718
0.08950000 0.08949900 23098.63800013 0 -80.79397563 0 9862.67059853 0 393.05408224 0 102.75786994 0 8571
0.09050000 0.09049190 22937.33466214 0 623.03667213 0 9210.36439596 0 -301.92275457 0 1119.93750615 0 8932
0.09150000 0.09150830 22282.79157007 0 1018.12868435 0 8930.30358300 0 -40.08539698 0 675.44620616 0 9285
0.09250000 0.09250820 21383.53951159 0 1231.18847457 0 9146.45005590 0 -467.70211968 0 954.28403633 0 9204
0.09350000 0.09350330 20394.13743425 0 985.07217868 0 8888.47712163 0 1050.38935195 0 1378.73325606 0 9349
0.09450000 0.09448040 19408.44477165 0 297.04543622 0 8120.88680516 0 502.35142556 0 -727.28696327 0 9564
0.09550000 0.09549270 19626.06376980 0 193.91246576 0 7443.37906365 0 750.20440198 0 65.15699399 0 10155
0.09650000 0.09649430 18910.82116379 0 415.23413426 0 7018.59487253 0 143.01367519 0 -1976.88200341 0 9913
0.09750000 0.09749140 18609.57172420 0 468.50695027 0 6145.75834327 0 318.85229864 0 -1464.09475771 0 10476
0.09850000 0.09850240 18155.89906070 0 483.72679136 0 6308.03961787 0 -31.24226464 0 -1607.84019926 0 10575
0.09950000 0.09950330 17742.69273983 0 266.84517990 0 5922.88996122 0 75.46927938 0 -2156.04673541 0 10882
0.10050000 0.10051200 17643.66260689 0 262.41973571 0 6060.09334404 0 525.95004770 0 -2029.40956427 0 10875
0.10150000 0.10150300 17252.26314843 0 510.49527701 0 5661.43242522 0 434.39045124 0 -2242.25128587 0 11118
0.10250000 0.10250800 16665.83839980 0 347.25180271 0 6308.35435609 0 527.33714400 0 -813.19925681 0 11575
0.10350000 0.10349800 16599.96818651 0 163.09060146 0 5637.00649118 0 353.63874045 0 -1029.80884452 0 11364
0.10450000 0.10450100 16612.78252835 0 25.38183898 0 6413.98275101 0 789.00600424 0 -814.58522904 0 12093
0.10550000 0.10551000 16694.16483964 0 -224.33528696 0 5295.14458050 0 380.08686756 0 -302.65564500 0 12067
0.10650000 0.10649700 16900.54318706 0 63.64422722 0 6223.57736828 0 81.39557526 0 529.93261026 0 12054
0.10750000 0.10749900 16922.79967551 0 25.79245995 0 6199.80339198 0 -213.87361333 0 1018.85145819 0 12807
0.10850000 0.10850100 16840.63051866 0 39.13005407 0 6355.83486478 0 595.23292255 0 830.37721926 0 12736
0.10950000 0.10950300 17043.63667087 0 90.51208022 0 6472.27676570 0 310.99058751 0 2015.04401264 0 12933
0.11050000 0.11050200 16781.84191534 0 121.67105164 0 5817.32901021 0 966.61615425 0 1075.73027496 0 13428
0.11150000 0.11150900 16710.35137669 0 128.71893965 0 6367.52514154 0 859.58380205 0 2248.83830719 0 13453
0.11250000 0.11250000 16247.91100562 0 95.04195006 0 4727.75025355 0 828.33479302 0 350.78473923 0 13668
0.11350000 0.11349100 16332.66551213 0 126.52588869 0 5050.27824497 0 454.98557151 0 1875.57001837 0 13791
0.11450000 0.11448600 16095.15056218 0 359.58616875 0 4401.60277259 0 -276.59756847 0 94.97990167 0 14205
0.11550000 0.11549300 15906.42003641 0 294.36791321 0 4364.14892436 0 -490.07326276 0 1040.19295767 0 14776
0.11650000 0.11649800 15420.26189230 0 478.00979640 0 4209.23027598 0 104.18509537 0 385.38683438 0 14553
0.11750000 0.11747300 15116.20229002 0 443.82585346 0 3908.00331769 0 -184.06565572 0 814.22552822 0 14568
0.11850000 0.11849100 14596.32219371 0 426.05438466 0 4632.85668008 0 191.32037170 0 516.31456190 0 16015
0.11950000 0.11950300 14620.03996676 0 391.98622042 0 5100.59139765 0 -41.09964089 0 680.71357510 0 15270
0.12050000 0.12050700 14099.14821188 0 223.94973264 0 4482.50173590 0 67.71131947 0 1021.59530104 0 15999
0.12150000 0.12150000 14242.91613473 0 185.15824697 0 5364.81413373 0 255.49324672 0 1323.87888049 0 15670
0.12250000 0.12250700 14079.02744707 0 50.44534272 0 5215.09990664 0 99.18165691 0 2153.02300036 0 16887
0.12350000 0.12352200 14188.39897869 0 76.95540581 0 5098.26458295 0 822.61217773 0 1555.38008230 0 16407
0.12450000 0.12449800 14045.86752742 0 79.28480587 0 5227.40841919 0 369.04630041 0 1908.20162744 0 16306
0.12550000 0.12549900 13775.97950337 0 327.07371058 0 4716.19486460 0 737.22931884 0 1275.72393276 0 17523
0.12650000 0.12650100 13479.11391756 0 385.79599406 0 4761.25863338 0 411.01664211 0 1589.37181011 0 17154
0.12750000 0.12750600 12930.34534887 0 474.13514409 0 4762.82108383 0 215.50013549 0 1442.29913594 0 18007
0.12850000 0.12850300 12787.25186507 0 243.29489255 0 4149.27264498 0 125.55020021 0 1399.41605341 0 17496
0.12950000 0.12949900 12545.69028086 0 -19.42103430 0 4479.91638623 0 88.22741796 0 1373.49511282 0 18405
0.13050000 0.13049000 12854.47095644 0 30.62391645 0 4228.27193832 0 -525.16994654 0 1392.24451824 0 18100
0.13150000 0.13148800 12858.18037118 0 79.30717476 0 4443.23814290 0 -472.46590746 0 904.18782822 0 19059
0.13250000 0.13249300 12919.32951116 0 112.88198684 0 4588.61347880 0 -600.19454578 0 606.25325653 0 18957
0.13350000 0.13349100 12952.03980478 0 157.33426422 0 5156.89581716 0 -233.15919779 0 770.22849719 0 19468
0.13450000 0.13450700 12825.47007755 0 30.47126841 0 4867.69635515 0 371.94076797 0 254.70864930 0 19953
0.13550000 0.13551000 12785.11614143 0 206.37609929 0 4460.12160030 0 816.32977804 0 558.70305580 0 19956
0.13650000 0.13649900 12432.38452149 0 161.16732612 0 4440.00083549 0 401.80268070 0 398.66316696 0 19723
0.13750000 0.13749600 12276.70150887 0 343.31195463 0 4369.35334564 0 272.86454836 0 729.53734155 0 20946
0.13850000 0.13851100 12074.48220222 0 306.99678431 0 4260.09422054 0 59.63412507 0 1059.64827596 0 20955
0.13950000 0.13949800 11647.11266142 0 187.46482850 0 4567.76207170 0 -119.04860783 0 1022.98689360 0 20506
0.14050000 0.14048300 11648.57394602 0 108.88750919 0 4180.26311905 0 229.34861719 0 1702.01437108 0 21447
0.14150000 0.14148400 11600.57636740 0 -22.68318355 0 4213.55792651 0 471.68131004 0 896.13052977 0 21771
0.14250000 0.14249400 11559.99761826 0 111.95024930 0 3809.88367746 0 497.93722202 0 717.54131909 0 22470
0.14350000 0.14350900 11316.52512343 0 172.26746871 0 3452.39726226 0 407.59723616 0 35.75920773 0 22519
0.14450000 0.14449900 11178.65854221 0 325.19989410 0 3332.35835311 0 -98.86579463 0 759.39925428 0 22218
0.14550000 0.14550500 10875.10476922 0 261.01128217 0 3195.15497028 0 -1.09172685 0 124.87463710 0 23559
0.14650000 0.14650700 10806.97518514 0 89.90384861 0 3450.52007359 0 -212.08185360 0 421.16357752 0 23044
0.14750000 0.14750500 10960.00540419 0 -95.67918255 0 3719.40767973 0 -187.42548622 0 435.38412476 0 23649
0.14850000 0.14849900 10998.40346709 0 -84.34388554 0 3976.25654893 0 -138.65567490 0 751.55103194 0 23640
0.14950000 0.14949500 11325.74245702 0 24.54598419 0 4463.24650120 0 -118.11675788 0 1093.47589026 0 24457
0.15050000 0.15050000 11110.86617765 0 175.58458474 0 4061.92154815 0 45.58578460 0 957.53820471 0 24591
0.15150000 0.15149900 11108.44943774 0 300.07591565 0 4676.65025533 0 336.19887084 0 1347.12454620 0 25020
0.15250000 0.15250500 10544.34862146 0 307.93537865 0 3804.92655049 0 360.48542081 0 530.39235287 0 25297
0.15350000 0.15350100 10342.69134735 0 342.03052044 0 3997.10795604 0 555.81645670 0 729.92177180 0 25452
0.15450000 0.15450400 10096.62226219 0 190.52116143 0 3414.29145628 0 174.73591561 0 128.81448518 0 26061
0.15550000 0.15549900 9793.52935588 0 139.56054728 0 3401.37594859 0 248.55664116 0 324.21071684 0 26128
0.15650000 0.15649500 9637.04825706 0 93.41452865 0 3085.64855086 0 276.77067449 0 -159.49022103 0 26331
0.15750000 0.15749700 9693.03793835 0 9.40326520 0 3271.32161964 0 5.49738637 0 -106.01484849 0 27345
0.15850000 0.15849900 9656.12364135 0 151.10694371 0 3238.57760406 0 24.04037972 0 173.71976079 0 26980
0.15950000 0.15949700 9548.59557646 0 159.80271112 0 3384.94211723 0 -75.96555411 0 448.54692677 0 27777
0.16050000 0.16050000 9480.43227042 0 184.44446565 0 3294.93822682 0 197.05535170 0 759.01145183 0 28224
0.16150000 0.16150500 9329.16683354 0 -9.97680817 0 3279.05518734 0 309.04932713 0 709.62228065 0 28075
0.16250000 0.16249700 9459.58086332 0 -44.32806819 0 3136.43381087 0 607.67182665 0 747.06376417 0 28590
0.16350000 0.16349900 9407.25563416 0 -60.59047964 0 2883.47420682 0 509.89053000 0 1101.85467132 0 29163
0.16450000 0.16449100 9511.89485182 0 30.81669361 0 2816.91831384 0 170.87587615 0 918.28248017 0 28996
0.16550000 0.16550500 9395.10449072 0 125.35348882 0 2792.71719281 0 78.30967942 0 1178.27873157 0 30777
0.16650000 0.16650700 9353.67145213 0 168.70755463 0 2950.13126565 0 -54.43701021 0 1152.93106418 0 29211
0.16750000 0.16749900 9237.04970079 0 218.68910810 0 2837.93833070 0 -133.13201913 0 1541.18314042 0 30922
0.16850000 0.16850800 9053.01776703 0 149.96938986 0 3123.02371454 0 -220.92037727 0 997.25479594 0 30867
0.16950000 0.16949900 8987.36112611 0 247.17966144 0 3231.51847540 0 -225.92808717 0 1258.87419732 0 30852
0.17050000 0.17049200 8756.91654547 0 228.74387018 0 3171.07749642 0 -243.70517630 0 465.73050954 0 31257
0.17150000 0.17149500 8663.68658831 0 178.87584728 0 3258.86697863 0 -294.43535712 0 598.95807420 0 32608
0.17250000 0.17250900 8504.92363738 0 25.61901671 0 3368.92418993 0 -12.31031105 0 54.99488370 0 32361
0.17350000 0.17350400 8572.94081496 0 7.78186878 0 3098.89003742 0 -32.64003956 0 -221.70160250 0 32508
0.17450000 0.17449800 8496.40322413 0 -14.18480197 0 3070.92329841 0 322.03003060 0 -272.50484754 0 32791
0.17550000 0.17549800 8533.41868699 0 55.59479723 0 2701.61171864 0 434.99070199 0 -273.90206043 0 33633
0.17650000 0.17650100 8478.89029029 0 -5.10962888 0 2561.87918940 0 673.34645261 0 -55.44259882 0 33984
0.17750000 0.17750300 8412.07586235 0 42.87217911 0 2090.98584898 0 579.86470487 0 -255.45615258 0 34069
0.17850000 0.17849800 8385.54792662 0 117.58957136 0 2047.04614527 0 363.37876431 0 -98.94279308 0 34536
