### header ###
fiducial parameters:
Omega_m = 0.31
Omega_nu = 0
Omega_de = 0.69
Omega_k = 0
H_0 = 100
w_de = -1
zeff = 0
beta = 0
fgrowth = 0
b_1 = 2
gamma = 0.55
Lx = 3500 Ly = 3500 Lz = 3500
nx = 700 ny = 700 nz = 700
xoffset = 857.220397 yoffset = 15.9954215 zoffset = 262.898189
bins = 400 dk = 0.001
kx_ny = 0.628318531 ky_ny = 0.628318531 kz_ny = 0.628318531
############################
A(data) = 3.09985839 (not used)
A(ran) = 3.10068953 (used)
Ngal = 188992
weighted Ngal = 0
Nran = 9360983
weighted Nran = 0
SN(data) = 3441.12131
SN(ran) = 69.629834
SN(data+ran) = 3510.75115
############################
13 columns: k_central k_mean P_0(k) sigma^{lin}_{P_0(k)} P^img_1(k) sigma^{lin}_{P_1(k)} P_2(k) sigma^{lin}_{P_2(k)} P^img_3(k) sigma^{lin}_{P_3(k)} P_4(k) sigma^{lin}_{P_4(k)} N_modes
### header ###
0.00050000 0 0 0 0 0 0 0 0 0 0 0 0
0.00150000 0.00179520 15569.08810797 0 -16628.40703286 0 9718.67786267 0 19450.48480539 0 44455.64957600 0 3
0.00250000 0.00253879 30099.09046237 0 -16094.36371663 0 1768.25552584 0 1546.94959425 0 -27861.63893437 0 6
0.00350000 0.00331552 47430.82501148 0 -15116.76432256 0 12972.04816309 0 -4823.59928233 0 11488.39467310 0 7
0.00450000 0.00420575 60631.73282344 0 -7920.10630180 0 9538.99606073 0 15988.47678675 0 854.23774856 0 24
0.00550000 0.00557378 59981.23636564 0 9636.02535784 0 12665.51561765 0 14453.79074244 0 7594.28479971 0 45
0.00650000 0.00659388 48798.47498592 0 13209.33830002 0 -1853.62826814 0 38159.87350808 0 -7836.62198882 0 40
0.00750000 0.00754703 33008.62049758 0 6829.89806871 0 -4333.02356248 0 21859.35625704 0 1987.05479232 0 57
0.00850000 0.00846663 32261.45444350 0 -2097.16820688 0 -20253.74170662 0 10460.81934588 0 -13560.38382235 0 75
0.00950000 0.00948925 37732.27915427 0 -8504.35036420 0 -23671.12434186 0 -8377.71319306 0 -10445.62198609 0 112
0.01050000 0.01054430 42763.03238892 0 -9412.47129610 0 -12243.31677620 0 -31982.12427283 0 -8151.02298977 0 105
0.01150000 0.01145670 52616.47441320 0 -6934.62721157 0 -7483.57563066 0 -28808.77616496 0 979.36417624 0 144
0.01250000 0.01249090 60931.52097844 0 -6573.92597026 0 8387.15533968 0 -14877.78808802 0 -5121.15054783 0 169
0.01350000 0.01339930 67470.99435421 0 -5325.64046593 0 6939.79791090 0 -10643.14270073 0 -18108.12629509 0 180
0.01450000 0.01448870 73761.93694231 0 -4054.76125364 0 14649.60287818 0 -1390.91812145 0 -21964.68115439 0 267
0.01550000 0.01550050 66593.09953212 0 -1620.01382400 0 -2283.77424967 0 -8744.51810772 0 -44088.75473614 0 238
0.01650000 0.01653350 79350.22645323 0 -1623.95929241 0 5546.33940238 0 -17091.74665599 0 -36720.62058848 0 315
0.01750000 0.01747870 76105.50021322 0 1556.24561240 0 -4540.84071320 0 -20816.33627571 0 -59354.00805485 0 297
0.01850000 0.01844180 74755.72287344 0 7241.09231310 0 13793.51491851 0 -23252.74732165 0 -46472.89675618 0 388
0.01950000 0.01947590 76978.22433597 0 3947.97507169 0 13559.59697679 0 -20159.76986651 0 -39294.72960588 0 399
0.02050000 0.02045430 68755.35110673 0 6758.38504875 0 26068.08070373 0 602.70907935 0 -32486.71708414 0 462
0.02150000 0.02154770 67648.93385528 0 3963.79066727 0 30426.30580515 0 13054.55453945 0 -17144.12808840 0 571
0.02250000 0.02255340 62717.09834706 0 650.97081326 0 31975.60469541 0 17930.74882656 0 -4165.07699991 0 510
0.02350000 0.02348930 64863.95023017 0 2489.46691739 0 24436.50025013 0 11923.63266941 0 9806.82704570 0 555
0.02450000 0.02439640 60716.26251694 0 2853.92253604 0 29602.47851308 0 13747.99028305 0 -501.30604504 0 592
0.02550000 0.02547300 58035.36731760 0 1508.92247283 0 17522.82561153 0 3460.94015682 0 9753.83861815 0 837
0.02650000 0.02652900 60165.47063112 0 1134.68748804 0 21511.45811691 0 -2276.99613728 0 1652.18456639 0 723
0.02750000 0.02749970 54096.53089495 0 1885.05712759 0 13013.86338380 0 -8210.11509066 0 -4372.11854572 0 826
0.02850000 0.02848090 54279.41628235 0 1234.63935434 0 18682.41114094 0 -4687.81222150 0 -17301.27238562 0 831
0.02950000 0.02946900 53285.63035122 0 1249.58941981 0 17926.36497277 0 -7786.27511420 0 -18296.85682086 0 996
0.03050000 0.03053250 51973.84641091 0 1129.07840333 0 25277.97536385 0 -1161.56388394 0 -16691.24227045 0 1041
0.03150000 0.03150510 52940.65478029 0 123.60107137 0 25780.65726454 0 501.23860114 0 -16597.83246287 0 1036
0.03250000 0.03246190 53406.24253356 0 -569.08941708 0 28003.60835310 0 6190.06898845 0 -8613.20482588 0 1059
0.03350000 0.03345080 55365.82517550 0 -258.58554974 0 30383.14170635 0 6445.60270151 0 -4858.97361018 0 1302
0.03450000 0.03451200 55891.21319066 0 -831.39562221 0 26702.84025051 0 6740.09651002 0 -2655.91847342 0 1339
0.03550000 0.03553350 55962.02929027 0 27.95167655 0 26985.87983592 0 3923.35804659 0 1927.67043451 0 1365
0.03650000 0.03647120 56399.40301021 0 -916.29176092 0 16822.53307099 0 3901.50622157 0 4224.57376423 0 1308
0.03750000 0.03744890 56464.71119096 0 972.38598027 0 17138.17054351 0 5881.95151126 0 3212.11711224 0 1579
0.03850000 0.03847530 56137.27103516 0 -586.89235971 0 10141.06779518 0 1913.55217719 0 2663.47219071 0 1662
0.03950000 0.03950240 54156.66837636 0 1043.22006491 0 12090.89355228 0 2256.79668791 0 1374.06838601 0 1683
0.04050000 0.04050350 56085.45163529 0 1097.10549639 0 10425.23144566 0 589.80256418 0 2640.63118842 0 1822
0.04150000 0.04152450 52830.72121614 0 2015.76341429 0 14253.59475293 0 -1820.34470133 0 5330.62007421 0 1887
0.04250000 0.04250150 52973.36507391 0 3116.61654363 0 16141.57444970 0 -1778.76553427 0 7317.52873807 0 1920
0.04350000 0.04349210 50395.88386130 0 1485.47447540 0 25897.33521913 0 -2390.90889178 0 8400.08208802 0 2005
0.04450000 0.04448520 51241.29320277 0 1565.81140618 0 24800.69733381 0 -946.72245058 0 9971.25528459 0 2151
0.04550000 0.04548030 49689.63377587 0 1076.19114164 0 27158.87345067 0 2585.99038522 0 11301.01302542 0 2274
0.04650000 0.04648670 48513.41208338 0 887.87876807 0 23907.06560070 0 3290.48692913 0 7426.85530708 0 2311
0.04750000 0.04749250 46814.05050587 0 1970.56475770 0 20672.11872683 0 4515.63917426 0 5767.90386894 0 2568
0.04850000 0.04851840 44477.00681239 0 2308.08777720 0 19197.00813140 0 4705.06662038 0 1111.77004933 0 2493
0.04950000 0.04949480 41918.29748649 0 2216.16173552 0 16209.80519964 0 3363.23642066 0 4197.57372117 0 2644
0.05050000 0.05050630 39702.65282090 0 1569.70067133 0 13349.39680813 0 3384.45876924 0 1301.22896927 0 2829
0.05150000 0.05149060 38099.28640064 0 778.31614539 0 13505.07982075 0 1102.26607914 0 674.03662856 0 2784
0.05250000 0.05249300 37125.28401480 0 560.35992772 0 12058.18325866 0 51.92967065 0 3908.13820550 0 3055
0.05350000 0.05348950 38241.36822588 0 807.39121258 0 14401.97134258 0 1283.45750046 0 3779.01685055 0 3009
0.05450000 0.05448610 36456.69010932 0 811.76944604 0 13212.82290174 0 1143.29782650 0 5195.03534509 0 3336
0.05550000 0.05550870 36142.96354741 0 1485.53067866 0 11662.28753991 0 738.84122816 0 3689.78856505 0 3349
0.05650000 0.05647670 35145.35579504 0 1458.81165187 0 12181.26838416 0 -349.95742734 0 1697.85533031 0 3324
0.05750000 0.05747970 33994.76278621 0 1623.12748425 0 13481.24964120 0 -1896.48886938 0 73.10019983 0 3639
0.05850000 0.05849280 33128.22102136 0 714.96271381 0 12596.83524169 0 -58.90966513 0 -68.52199520 0 3846
0.05950000 0.05951020 31499.00110441 0 832.75574095 0 11736.02620871 0 -593.13429306 0 -1772.87543329 0 3787
0.06050000 0.06049470 31689.97976033 0 75.97477145 0 11174.89292421 0 1302.09449938 0 -3011.98856662 0 3930
0.06150000 0.06148310 31116.36935353 0 57.41027473 0 9795.30537870 0 2478.82202115 0 -5801.94055936 0 4083
0.06250000 0.06249100 31783.61438092 0 -205.99953749 0 9170.06666309 0 2476.73126011 0 -4202.83434571 0 4303
0.06350000 0.06350600 31025.43248912 0 -838.14450891 0 4752.16494694 0 2425.83359360 0 -3991.89229410 0 4470
0.06450000 0.06451750 32444.33983089 0 -67.27799238 0 7870.16409060 0 1867.63411895 0 -2142.41182607 0 4479
0.06550000 0.06550280 31196.29038023 0 221.58245160 0 3571.89662018 0 1277.64608404 0 -4260.24034900 0 4636
0.06650000 0.06648880 31576.89881398 0 671.91551777 0 6985.58108133 0 1292.55118691 0 1312.03123462 0 4653
0.06750000 0.06749660 30531.85551552 0 731.63259884 0 5940.69515198 0 -859.29491733 0 -723.41793129 0 5220
0.06850000 0.06852730 31212.13969776 0 387.13475557 0 9031.70549324 0 -676.15436716 0 1162.99144658 0 5029
0.06950000 0.06949320 30669.44108047 0 378.74136166 0 10772.03924267 0 -1748.57314641 0 -424.06254135 0 5040
0.07050000 0.07048030 30427.20505721 0 562.02804029 0 10920.22474125 0 -3159.76940178 0 -517.01260631 0 5475
0.07150000 0.07148790 31213.48857585 0 484.34952341 0 15142.16819321 0 -3447.56378245 0 -1446.49189867 0 5509
0.07250000 0.07249820 31100.18281648 0 439.46672911 0 15115.30303796 0 -1462.06019993 0 -1545.63443811 0 5916
0.07350000 0.07351270 30785.66940902 0 275.36334502 0 14167.15414880 0 200.80860498 0 -4405.01993041 0 5721
0.07450000 0.07449140 30659.32449481 0 309.59000243 0 12711.71469216 0 461.79628179 0 -5660.88163333 0 6028
0.07550000 0.07549160 30351.55547779 0 428.30026667 0 13027.01494516 0 2059.43334238 0 -5251.11495159 0 6183
0.07650000 0.07648840 29330.56717190 0 748.38341656 0 10875.84665217 0 600.96453036 0 -8980.72914218 0 6330
0.07750000 0.07749960 29132.95653205 0 889.57385820 0 11155.54776431 0 950.52965898 0 -5805.63873345 0 6583
0.07850000 0.07848650 27443.26191416 0 977.78823701 0 9951.65158972 0 272.07657875 0 -7755.64434096 0 6549
0.07950000 0.07947320 26901.79976845 0 919.95284087 0 9765.63006077 0 1602.82686903 0 -2664.73114359 0 6828
0.08050000 0.08048110 25796.61898858 0 546.49008878 0 8679.14248306 0 2417.85273159 0 -5278.10375399 0 7147
0.08150000 0.08149960 25156.23911644 0 435.53137729 0 8932.60791640 0 1932.06552894 0 -3679.10994686 0 7386
0.08250000 0.08250610 25073.39552055 0 408.61339098 0 6230.18687091 0 2160.26197943 0 -4272.24536398 0 7227
0.08350000 0.08350160 24070.61706884 0 325.07062662 0 6463.77883375 0 537.01197209 0 -3561.54398086 0 7798
0.08450000 0.08449610 23757.34013296 0 657.48027410 0 6103.80823474 0 -1424.30285412 0 -3209.85774144 0 7371
0.08550000 0.08548940 23214.86632869 0 771.10301982 0 5873.56598581 0 -709.87856748 0 -5077.48061974 0 8256
0.08650000 0.08650700 22458.82016052 0 605.14717649 0 6530.45837388 0 -1211.06770976 0 -3386.12238555 0 8037
0.08750000 0.08749060 21953.21569064 0 408.54257488 0 6584.31233153 0 418.62543859 0 -4077.83830959 0 8155
0.08850000 0.08849210 21700.86308173 0 343.13098015 0 7685.12049827 0 1019.47981057 0 -1812.37507996 0 8718
0.08950000 0.08949900 21716.82480577 0 228.34370301 0 6592.87770739 0 1424.84240536 0 -2498.74045425 0 8571
0.09050000 0.09049190 20911.99421343 0 527.28768514 0 6469.57900952 0 918.07677626 0 -1364.05296621 0 8932
0.09150000 0.09150830 20955.49553176 0 247.08748811 0 6417.01772671 0 411.49774196 0 -1088.58957939 0 9285
0.09250000 0.09250820 20451.35234647 0 219.45684455 0 6245.83385672 0 380.26222171 0 -34.84657930 0 9204
0.09350000 0.09350330 20811.50279589 0 -244.64714283 0 6208.30132393 0 86.70880605 0 134.22123818 0 9349
0.09450000 0.09448040 20500.24917715 0 -26.90101292 0 5166.61898004 0 858.19333355 0 -778.55894345 0 9564
0.09550000 0.09549270 20520.81956799 0 172.24498741 0 5360.43027994 0 727.17680489 0 -194.55205879 0 10155
0.09650000 0.09649430 20073.10444937 0 449.85084225 0 4190.06496648 0 732.32727106 0 -963.20911301 0 9913
0.09750000 0.09749140 19828.95751550 0 379.52595909 0 4336.87910568 0 649.68600688 0 -154.06548298 0 10476
0.09850000 0.09850240 19334.03166381 0 334.24187355 0 3943.24275773 0 -20.75732286 0 -1235.68473486 0 10575
0.09950000 0.09950330 19087.07456725 0 568.12496925 0 4223.31481135 0 -416.12439380 0 -676.23867204 0 10882
0.10050000 0.10051200 18836.40805595 0 649.10823744 0 4641.01739251 0 -737.12478079 0 -1522.42249435 0 10875
0.10150000 0.10150300 18115.43271807 0 626.26498702 0 5131.50318716 0 -463.42842427 0 -664.31121755 0 11118
0.10250000 0.10250800 17493.37510661 0 757.91324025 0 5581.96102455 0 383.24324228 0 -754.75124520 0 11575
0.10350000 0.10349800 17086.46355015 0 521.95062417 0 5187.77388472 0 735.94114027 0 -600.60145734 0 11364
0.10450000 0.10450100 16761.94596355 0 290.14367667 0 5251.67698412 0 810.26769510 0 317.15046411 0 12093
0.10550000 0.10551000 16606.60017044 0 153.78109452 0 5337.17337358 0 -15.75894270 0 200.64224335 0 12067
0.10650000 0.10649700 16710.68859621 0 52.66818141 0 5357.76624572 0 -113.76662605 0 1080.42999103 0 12054
0.10750000 0.10749900 16618.51526022 0 38.25126000 0 5982.81387027 0 -67.80551612 0 1688.89653168 0 12807
0.10850000 0.10850100 16664.37711520 0 167.16870954 0 6533.89801301 0 53.84957380 0 1844.37721259 0 12736
0.10950000 0.10950300 16480.81728876 0 170.81180444 0 6317.57168969 0 726.90478115 0 1662.34611465 0 12933
0.11050000 0.11050200 16498.46511041 0 23.21733927 0 5753.45963275 0 792.99755931 0 1610.18949526 0 13428
0.11150000 0.11150900 16366.83709035 0 150.72813378 0 6237.76306950 0 589.34394563 0 2292.26094097 0 13453
0.11250000 0.11250000 16326.59556074 0 323.43286381 0 6061.70075710 0 -17.97132758 0 1203.61515832 0 13668
0.11350000 0.11349100 15970.82896510 0 260.13900767 0 5937.22179090 0 -220.01887708 0 2745.92236382 0 13791
0.11450000 0.11448600 15571.67345764 0 411.02675869 0 5867.00144579 0 -61.26390702 0 1830.76478456 0 14205
0.11550000 0.11549300 15253.33822894 0 223.23932352 0 5596.57387050 0 684.32294805 0 2005.32084976 0 14776
0.11650000 0.11649800 14960.74409041 0 140.17878307 0 4861.09809317 0 937.97497618 0 762.49043323 0 14553
0.11750000 0.11747300 14957.48430170 0 55.87064280 0 4273.99890549 0 1086.62920990 0 607.19747119 0 14568
0.11850000 0.11849100 14547.20055002 0 164.13260978 0 3681.86390629 0 168.73565625 0 -510.00855684 0 16015
0.11950000 0.11950300 14500.43944298 0 224.89394731 0 2975.68126476 0 -493.14196041 0 -1522.90584234 0 15270
0.12050000 0.12050700 14198.62797085 0 247.41459104 0 3363.22518001 0 -1165.82409056 0 -1489.82460723 0 15999
0.12150000 0.12150000 14205.25995478 0 152.98750458 0 3724.45473191 0 -1065.85311516 0 -1722.24754240 0 15670
0.12250000 0.12250700 14200.31406846 0 153.29100215 0 4144.04574239 0 -596.54583055 0 -1828.68526417 0 16887
0.12350000 0.12352200 14330.59321043 0 164.67778134 0 4857.11890281 0 -159.30699842 0 -1812.85842794 0 16407
0.12450000 0.12449800 14049.46453565 0 210.54975291 0 4834.58139810 0 1.16472251 0 -1098.89275985 0 16306
0.12550000 0.12549900 13890.40932781 0 405.90102196 0 5188.84174654 0 602.53484926 0 -937.40507519 0 17523
0.12650000 0.12650100 13435.50019272 0 335.05906886 0 4622.91994483 0 941.69563157 0 -400.90904897 0 17154
0.12750000 0.12750600 13084.90429642 0 317.56187193 0 4698.87302182 0 788.18094048 0 -684.47806903 0 18007
0.12850000 0.12850300 12794.55828804 0 38.81284291 0 3759.07593616 0 870.77611798 0 -637.52699499 0 17496
0.12950000 0.12949900 12631.00681991 0 -74.09994331 0 3433.52420969 0 777.96206490 0 -608.88806506 0 18405
0.13050000 0.13049000 12743.63814023 0 -65.49972144 0 2600.91796939 0 490.28908326 0 -1072.44912901 0 18100
0.13150000 0.13148800 12760.27430331 0 80.04287535 0 2270.76881677 0 164.62157809 0 -971.73627065 0 19059
0.13250000 0.13249300 12606.83942084 0 225.38966000 0 2335.63861214 0 -182.88763552 0 -1337.09788575 0 18957
0.13350000 0.13349100 12432.60933451 0 322.54035614 0 2409.83814761 0 148.81722316 0 -921.64680693 0 19468
0.13450000 0.13450700 12104.49473967 0 391.94912627 0 2506.20424633 0 -265.35129742 0 -932.58058790 0 19953
0.13550000 0.13551000 11863.60759450 0 308.08150710 0 2679.14165783 0 176.60298770 0 -449.30229850 0 19956
0.13650000 0.13649900 11812.46263368 0 195.99760647 0 3032.52523551 0 -60.55574602 0 -199.49120072 0 19723
0.13750000 0.13749600 11638.56976687 0 75.06821296 0 3380.96292687 0 -142.07058459 0 -410.44449299 0 20946
0.13850000 0.13851100 11978.14982545 0 -76.12281082 0 3343.36295017 0 -161.10437847 0 403.63041051 0 20955
0.13950000 0.13949800 11870.80161097 0 -51.82524501 0 3911.47667877 0 -149.05889715 0 -31.72403893 0 20506
0.14050000 0.14048300 11886.08889596 0 39.21941725 0 3448.66536622 0 -296.00342789 0 120.47841860 0 21447
0.14150000 0.14148400 11976.57613435 0 19.87650547 0 3691.42970006 0 139.61450240 0 -308.68513005 0 21771
0.14250000 0.14249400 11787.28357604 0 77.50496123 0 3315.89079979 0 262.07239960 0 -404.65668193 0 22470
0.14350000 0.14350900 11819.09461761 0 78.42298517 0 3076.11647904 0 340.00045892 0 -549.57789554 0 22519
0.14450000 0.14449900 11528.52379621 0 123.72809073 0 2397.97926109 0 537.02096461 0 -1276.46581571 0 22218
0.14550000 0.14550500 11447.47870444 0 148.30802168 0 2247.02856243 0 511.67666940 0 -803.62671865 0 23559
0.14650000 0.14650700 10988.78147006 0 353.03511751 0 1771.38042674 0 258.37310144 0 -1263.47162346 0 23044
0.14750000 0.14750500 10919.86504043 0 290.47752400 0 2046.93373876 0 405.91788294 0 -395.72710898 0 23649
0.14850000 0.14849900 10494.18159725 0 258.63388454 0 1758.94826704 0 54.57740593 0 -506.23507039 0 23640
0.14950000 0.14949500 10525.66665994 0 321.43540017 0 2096.50500849 0 -146.09361349 0 17.18167186 0 24457
0.15050000 0.15050000 10342.99484492 0 86.05864681 0 2693.74326313 0 -230.15119965 0 -83.97620386 0 24591
0.15150000 0.15149900 10305.14757390 0 58.30682903 0 2708.56968144 0 -528.26224956 0 331.12596517 0 25020
0.15250000 0.15250500 10251.47346666 0 161.33818401 0 3223.34652232 0 -646.11147995 0 -257.22093474 0 25297
0.15350000 0.15350100 10285.93730181 0 208.91086603 0 3240.15129516 0 -855.99241414 0 -676.82880620 0 25452
0.15450000 0.15450400 10065.82287919 0 202.91735106 0 3725.98346040 0 -510.18503505 0 -692.51401023 0 26061
0.15550000 0.15549900 10078.06394784 0 108.13180024 0 3555.66512053 0 -110.81887780 0 -940.43555463 0 26128
0.15650000 0.15649500 9873.73139885 0 19.64832026 0 3579.34917162 0 251.42525523 0 -1237.65184874 0 26331
0.15750000 0.15749700 9951.57290516 0 52.84623331 0 3610.55321805 0 495.73967480 0 -1145.92813877 0 27345
0.15850000 0.15849900 9750.50014489 0 137.16404054 0 3307.01068571 0 554.64068463 0 -862.85033515 0 26980
0.15950000 0.15949700 9838.25590514 0 164.76208622 0 3405.91717149 0 344.77773548 0 -185.23018714 0 27777
0.16050000 0.16050000 9679.52667617 0 145.61476176 0 3074.26177167 0 368.76865634 0 270.28819122 0 28224
0.16150000 0.16150500 9625.31301769 0 46.86429621 0 3399.76853554 0 248.88824036 0 428.33286456 0 28075
0.16250000 0.16249700 9608.12606273 0 -30.78465775 0 3274.44652054 0 102.26552944 0 523.81432406 0 28590
0.16350000 0.16349900 9719.00384154 0 -58.06762799 0 3260.55307624 0 254.80869110 0 759.41161900 0 29163
0.16450000 0.16449100 9764.41607049 0 34.66223263 0 3333.31380842 0 123.09524209 0 562.81938210 0 28996
0.16550000 0.16550500 9773.19501871 0 19.60369487 0 3179.19324625 0 199.01459713 0 507.96500653 0 30777
0.16650000 0.16650700 9628.38171534 0 188.80134187 0 3171.74069481 0 112.14156517 0 281.02188860 0 29211
0.16750000 0.16749900 9483.02886074 0 234.01910757 0 2930.19035125 0 182.23118152 0 527.64401377 0 30922
0.16850000 0.16850800 9225.39314599 0 362.30078591 0 2853.67524173 0 201.93941445 0 398.84638956 0 30867
0.16950000 0.16949900 8793.29129124 0 354.99998326 0 2558.04612750 0 333.74840898 0 936.60361679 0 30852
0.17050000 0.17049200 8576.94248662 0 248.05530814 0 2499.72963151 0 500.34047314 0 868.05250831 0 31257
0.17150000 0.17149500 8334.18939343 0 123.48641674 0 2365.74107480 0 496.28934262 0 1067.80898839 0 32608
0.17250000 0.17250900 8275.31086490 0 6.81343052 0 1991.12390788 0 411.26056423 0 1247.31880836 0 32361
0.17350000 0.17350400 8363.24647557 0 -103.49076037 0 1704.28498253 0 420.40258547 0 1198.42197768 0 32508
0.17450000 0.17449800 8397.03587167 0 -83.61953801 0 1469.08560664 0 284.76952155 0 1383.37564481 0 32791
0.17550000 0.17549800 8468.53765097 0 -29.94588039 0 1385.97223513 0 45.58971883 0 1112.64794415 0 33633
0.17650000 0.17650100 8541.06232948 0 10.27813629 0 1618.97968413 0 -130.32860084 0 1172.84949727 0 33984
0.17750000 0.17750300 8484.09471158 0 63.24956797 0 1301.09408146 0 -93.71352996 0 629.62594159 0 34069
