### header ###
fiducial parameters:
Omega_m = 0.31
Omega_nu = 0
Omega_de = 0.69
Omega_k = 0
H_0 = 100
w_de = -1
zeff = 0
beta = 0
fgrowth = 0
b_1 = 2
gamma = 0.55
Lx = 3500 Ly = 3500 Lz = 3500
nx = 700 ny = 700 nz = 700
xoffset = 857.220397 yoffset = 15.9954215 zoffset = 262.898189
bins = 400 dk = 0.001
kx_ny = 0.628318531 ky_ny = 0.628318531 kz_ny = 0.628318531
############################
A(data) = 3.08868091 (not used)
A(ran) = 3.08427767 (used)
Ngal = 187644
weighted Ngal = 0
Nran = 9360983
weighted Nran = 0
SN(data) = 3459.79119
SN(ran) = 69.2612852
SN(data+ran) = 3529.05248
############################
13 columns: k_central k_mean P_0(k) sigma^{lin}_{P_0(k)} P^img_1(k) sigma^{lin}_{P_1(k)} P_2(k) sigma^{lin}_{P_2(k)} P^img_3(k) sigma^{lin}_{P_3(k)} P_4(k) sigma^{lin}_{P_4(k)} N_modes
### header ###
0.00050000 0 0 0 0 0 0 0 0 0 0 0 0
0.00150000 0.00179520 16154.27638503 0 -25131.39727832 0 -18008.53412961 0 37745.43071562 0 47769.28100499 0 3
0.00250000 0.00253879 27561.51355985 0 -25965.79078208 0 -10552.57677779 0 -26489.49269964 0 -19180.82159435 0 6
0.00350000 0.00331552 43999.16674981 0 -24295.09286393 0 -29608.77327749 0 -9270.63676518 0 4362.87873082 0 7
0.00450000 0.00420575 58267.82397472 0 -20291.17307356 0 -27308.59891841 0 -27976.63079135 0 -7301.26351646 0 24
0.00550000 0.00557378 76399.78044936 0 -11602.15005850 0 -34587.48229926 0 -44061.55236137 0 17090.17296489 0 45
0.00650000 0.00659388 91966.28320766 0 -14422.99135944 0 10949.69772747 0 -47240.52079460 0 -26527.37369260 0 40
0.00750000 0.00754703 93449.37466511 0 -3104.37547498 0 7124.38063656 0 -40401.70888986 0 13734.27668915 0 57
0.00850000 0.00846663 108110.21819402 0 -1496.18681555 0 28574.40859722 0 -14476.49685692 0 19557.49580034 0 75
0.00950000 0.00948925 96370.59497708 0 7047.91048963 0 48729.23257741 0 -18393.63882366 0 30197.10893675 0 112
0.01050000 0.01054430 105631.76711434 0 11867.87904178 0 41861.98182633 0 38117.94588085 0 3066.47200072 0 105
0.01150000 0.01145670 92759.08630372 0 9002.43483874 0 56014.97275521 0 25822.24767225 0 38440.21533731 0 144
0.01250000 0.01249090 88895.44983446 0 8019.46241361 0 40887.75462747 0 27347.71638295 0 9701.20989143 0 169
0.01350000 0.01339930 87104.70176651 0 5124.88244388 0 61582.46706227 0 13929.86401187 0 10854.47817513 0 180
0.01450000 0.01448870 78229.19635583 0 7937.10216571 0 40452.29181815 0 2486.15092543 0 11624.06932743 0 267
0.01550000 0.01550050 77947.50564851 0 7786.58985242 0 41165.62351354 0 -5648.55063948 0 -16040.52099963 0 238
0.01650000 0.01653350 69092.68303517 0 5379.04479755 0 38679.30397836 0 -2456.32947904 0 -5844.92480775 0 315
0.01750000 0.01747870 67759.99148450 0 -366.74196701 0 35554.85270117 0 -881.83242204 0 -17239.56121311 0 297
0.01850000 0.01844180 69438.22063864 0 -3336.94453860 0 43003.24509505 0 13932.78658106 0 -17980.65731580 0 388
0.01950000 0.01947590 75115.98572937 0 -4835.88531358 0 20776.54437212 0 16909.08608162 0 -22978.92506984 0 399
0.02050000 0.02045430 70425.71180536 0 -1196.56727031 0 14840.01950156 0 9896.81969545 0 -19361.45885160 0 462
0.02150000 0.02154770 74852.72968925 0 3422.62077848 0 16654.48534256 0 6784.83429992 0 -11141.23841593 0 571
0.02250000 0.02255340 66676.39275403 0 5865.39403273 0 9888.11943178 0 3443.33729777 0 -9790.53934279 0 510
0.02350000 0.02348930 64324.62380810 0 4790.47308463 0 19440.25581322 0 -1170.05057524 0 7051.83347674 0 555
0.02450000 0.02439640 62767.79368185 0 3629.17897631 0 17594.76577621 0 -1056.12995228 0 -855.42700941 0 592
0.02550000 0.02547300 60489.08896567 0 2366.66280816 0 25709.50394542 0 -6266.74146708 0 3288.28376159 0 837
0.02650000 0.02652900 60143.77617521 0 3914.28684145 0 30665.84407223 0 -11223.78975489 0 -4442.12531848 0 723
0.02750000 0.02749970 56531.93028233 0 2702.36484224 0 37067.39466353 0 -8957.15749759 0 1430.40652747 0 826
0.02850000 0.02848090 55637.96132969 0 2267.00319878 0 34253.52256604 0 -409.86335134 0 -7534.75431344 0 831
0.02950000 0.02946900 56296.66346253 0 -1406.81240159 0 35712.33421791 0 5930.35375331 0 -11656.66721455 0 996
0.03050000 0.03053250 58877.85408989 0 -2356.74855421 0 29524.13117748 0 10365.53234963 0 -20843.65105698 0 1041
0.03150000 0.03150510 57265.49514903 0 -948.62998901 0 16792.07090751 0 11992.31304537 0 -22866.40615603 0 1036
0.03250000 0.03246190 55591.53744218 0 -25.15758799 0 13654.58047547 0 4478.23028862 0 -19446.10095160 0 1059
0.03350000 0.03345080 55318.83925544 0 126.65065992 0 3753.59049860 0 7449.41529309 0 -19662.70829119 0 1302
0.03450000 0.03451200 54454.88284026 0 116.21821197 0 8725.08302260 0 3237.81323981 0 -7856.01211133 0 1339
0.03550000 0.03553350 52951.33339848 0 123.75956455 0 249.67508591 0 4845.18133174 0 -6068.62499795 0 1365
0.03650000 0.03647120 54297.96335605 0 -418.80528900 0 10061.34910020 0 2271.38705256 0 4119.09149777 0 1308
0.03750000 0.03744890 57218.17200946 0 531.37253762 0 7995.46362430 0 1943.68836180 0 7938.48476575 0 1579
0.03850000 0.03847530 54791.42792314 0 1597.99338922 0 8838.61359498 0 1638.76322942 0 15277.05600198 0 1662
0.03950000 0.03950240 53250.44711443 0 2988.92275132 0 9008.01020150 0 -247.04814583 0 7786.74722153 0 1683
0.04050000 0.04050350 51458.68738791 0 1633.21034796 0 10253.78904071 0 1304.45503603 0 12606.50220131 0 1822
0.04150000 0.04152450 49852.17358544 0 3728.22034990 0 8066.62818408 0 -3083.60275243 0 6435.29502479 0 1887
0.04250000 0.04250150 46121.17679481 0 2040.52656785 0 4566.17713994 0 1244.75594000 0 3206.75532184 0 1920
0.04350000 0.04349210 43226.37201206 0 -1054.94069143 0 4704.04372116 0 2937.19327666 0 -4020.60091606 0 2005
0.04450000 0.04448520 43584.04951832 0 -164.68789792 0 -894.74455754 0 954.22108868 0 -5250.45175319 0 2151
0.04550000 0.04548030 45143.24018121 0 -271.78207370 0 5925.72260521 0 545.50877997 0 -4818.03516022 0 2274
0.04650000 0.04648670 44498.13923576 0 420.70833117 0 3912.88176011 0 -3599.05403235 0 -7524.95246601 0 2311
0.04750000 0.04749250 45421.44628680 0 517.92309902 0 6252.93794799 0 -3290.94779581 0 -7018.12276520 0 2568
0.04850000 0.04851840 46189.18273173 0 1004.70509925 0 8391.62911867 0 -7057.42008015 0 -4086.70718301 0 2493
0.04950000 0.04949480 44433.28068104 0 1538.28305254 0 9993.71410475 0 -1981.95153689 0 -4237.01716459 0 2644
0.05050000 0.05050630 44249.94566762 0 1638.97680178 0 12366.40190170 0 1297.21605696 0 -4681.05659041 0 2829
0.05150000 0.05149060 42413.78537071 0 2515.19676692 0 8913.16159063 0 1832.36095696 0 -5091.40778600 0 2784
0.05250000 0.05249300 39776.72870922 0 2267.80128498 0 10514.74074743 0 4682.98998234 0 -2108.63367063 0 3055
0.05350000 0.05348950 37403.82733991 0 1534.88837602 0 8807.92661849 0 3943.74858702 0 -1574.20817227 0 3009
0.05450000 0.05448610 37141.35814534 0 1160.06887739 0 8287.25967663 0 2575.63774590 0 2685.52634744 0 3336
0.05550000 0.05550870 36568.53458409 0 664.07291576 0 10517.55091012 0 874.53161939 0 3416.37097667 0 3349
0.05650000 0.05647670 34906.26715399 0 883.70286632 0 8843.94166343 0 -690.80880352 0 8265.76755243 0 3324
0.05750000 0.05747970 35563.39559572 0 957.41792975 0 10814.33781137 0 -75.81391773 0 6801.41425975 0 3639
0.05850000 0.05849280 33731.61915260 0 433.81605399 0 11321.13379023 0 -796.69685747 0 7408.28575207 0 3846
0.05950000 0.05951020 34721.47085597 0 -736.27723573 0 11004.24860547 0 1274.09403841 0 5643.13264583 0 3787
0.06050000 0.06049470 35176.26758455 0 -1222.93783693 0 8870.04245443 0 -55.07165735 0 649.62193518 0 3930
0.06150000 0.06148310 35674.79044447 0 -290.34938058 0 10130.90624692 0 -1529.36921651 0 170.51392720 0 4083
0.06250000 0.06249100 35803.04626931 0 361.05644587 0 10479.01795941 0 -3214.99471882 0 -988.41177601 0 4303
0.06350000 0.06350600 35795.29022030 0 1192.41947019 0 10526.41978354 0 -1538.09196147 0 326.33857202 0 4470
0.06450000 0.06451750 34497.33228040 0 1713.18757791 0 11546.17161786 0 -727.72197645 0 772.04386229 0 4479
0.06550000 0.06550280 33395.63610225 0 1001.22162159 0 11532.34561746 0 2314.23641315 0 1728.42990030 0 4636
0.06650000 0.06648880 32349.46873872 0 371.78452293 0 11568.20329329 0 4930.52035209 0 2319.50827834 0 4653
0.06750000 0.06749660 31896.69532728 0 580.93931108 0 11088.60968920 0 4221.75236089 0 4101.18514115 0 5220
0.06850000 0.06852730 31734.71755024 0 -99.24505418 0 8660.95511018 0 3106.28638561 0 5170.32839478 0 5029
0.06950000 0.06949320 31216.63595805 0 184.36690516 0 9706.36935012 0 1293.65277068 0 5678.37208587 0 5040
0.07050000 0.07048030 30977.77213002 0 725.26477020 0 8144.51465300 0 -1968.57516252 0 4989.82602534 0 5475
0.07150000 0.07148790 31089.27938527 0 497.00312394 0 9824.03648197 0 -1627.09543396 0 5381.69759113 0 5509
0.07250000 0.07249820 30616.16039600 0 904.88812076 0 10767.04839374 0 -1818.75976958 0 5985.95001182 0 5916
0.07350000 0.07351270 30140.79327659 0 245.23840106 0 11891.93403434 0 183.08547098 0 4887.77215736 0 5721
0.07450000 0.07449140 30047.27106251 0 16.15326473 0 10767.27320676 0 623.85499150 0 3801.92529674 0 6028
0.07550000 0.07549160 29931.26754696 0 183.04725276 0 10848.75668391 0 1360.17494170 0 2992.18254003 0 6183
0.07650000 0.07648840 29918.45320513 0 114.46354639 0 10594.95403105 0 483.92125462 0 660.91204477 0 6330
0.07750000 0.07749960 28758.53045620 0 1013.88309057 0 10587.33286986 0 -1420.44731092 0 1523.61400333 0 6583
0.07850000 0.07848650 28291.81863785 0 1204.73922340 0 10539.36901319 0 -1833.99085132 0 135.72523725 0 6549
0.07950000 0.07947320 27333.55316303 0 948.11291908 0 10196.18070572 0 -752.66835262 0 -1679.29701596 0 6828
0.08050000 0.08048110 26807.82792834 0 956.06680353 0 12072.34647858 0 -731.69667055 0 -722.43437435 0 7147
0.08150000 0.08149960 26257.93529458 0 679.97169215 0 11905.76003474 0 1715.75044628 0 737.30350714 0 7386
0.08250000 0.08250610 26058.63855712 0 269.20459249 0 11427.13312662 0 2103.12575177 0 668.71867670 0 7227
0.08350000 0.08350160 25651.27737463 0 419.49771309 0 10695.33304208 0 2982.38069260 0 1851.48130385 0 7798
0.08450000 0.08449610 25544.60359919 0 690.66379912 0 10929.82425698 0 2475.77580480 0 3839.52527344 0 7371
0.08550000 0.08548940 24501.24639834 0 564.55156638 0 9411.08869606 0 2220.93901208 0 4039.68754101 0 8256
0.08650000 0.08650700 23968.43955369 0 646.84324631 0 8860.79139888 0 1045.02194122 0 4587.24211941 0 8037
0.08750000 0.08749060 23445.63688819 0 666.11084573 0 9113.57115251 0 1090.56793392 0 5375.62763973 0 8155
0.08850000 0.08849210 22729.15781060 0 405.64023886 0 8369.87845950 0 -46.84822208 0 6186.31461110 0 8718
0.08950000 0.08949900 22560.32323662 0 172.77442206 0 9756.27783936 0 -153.73275972 0 4721.81518996 0 8571
0.09050000 0.09049190 22705.66485057 0 141.82891060 0 8598.89547750 0 -154.21498364 0 4739.32812380 0 8932
0.09150000 0.09150830 22447.35469677 0 45.52800766 0 8841.25514791 0 184.22864516 0 3803.37534069 0 9285
0.09250000 0.09250820 22346.75087273 0 -11.66161310 0 8203.50558803 0 -562.32479347 0 2761.52438703 0 9204
0.09350000 0.09350330 22273.79904949 0 197.94448718 0 9102.40918634 0 208.82880928 0 2650.24194480 0 9349
0.09450000 0.09448040 22112.60811801 0 635.58348648 0 8560.05902922 0 -111.93248907 0 845.07774228 0 9564
0.09550000 0.09549270 21342.84835595 0 795.44015272 0 8292.73387354 0 -12.29569821 0 411.39320391 0 10155
0.09650000 0.09649430 20897.04414796 0 616.89365651 0 8150.74197350 0 226.72954557 0 811.40075269 0 9913
0.09750000 0.09749140 20040.61896876 0 761.50800036 0 8041.53905165 0 764.41932890 0 36.45320551 0 10476
0.09850000 0.09850240 19669.45268162 0 584.25979931 0 7869.66950197 0 358.46322775 0 14.49931538 0 10575
0.09950000 0.09950330 18982.64892196 0 372.29147628 0 6736.56694569 0 1182.06683087 0 10.27860840 0 10882
0.10050000 0.10051200 18657.11967679 0 531.30172152 0 5924.48613363 0 1046.20895394 0 741.33665262 0 10875
0.10150000 0.10150300 17878.92942669 0 344.65408832 0 5320.78450482 0 887.84167392 0 50.81122591 0 11118
0.10250000 0.10250800 17615.67338657 0 307.59366286 0 5524.83603754 0 1052.04172761 0 1039.89283230 0 11575
0.10350000 0.10349800 16966.30099384 0 556.94052177 0 4694.59033389 0 378.28948751 0 -796.46080380 0 11364
0.10450000 0.10450100 16582.43277137 0 596.50648828 0 4163.62695596 0 -229.89716095 0 -88.86498767 0 12093
0.10550000 0.10551000 16050.30036577 0 525.12498394 0 4427.48999122 0 -123.03791477 0 -303.40202421 0 12067
0.10650000 0.10649700 15807.83952950 0 271.68877630 0 4538.66002695 0 -124.80944133 0 751.61847584 0 12054
0.10750000 0.10749900 15604.94578381 0 -80.61277634 0 5165.55111822 0 606.22290677 0 17.16424885 0 12807
0.10850000 0.10850100 15869.43829551 0 -106.94062849 0 5133.62767015 0 510.95951589 0 522.50254012 0 12736
0.10950000 0.10950300 15884.27595447 0 46.24819615 0 5378.61765283 0 328.12133923 0 680.19650516 0 12933
0.11050000 0.11050200 15981.50758329 0 101.60334271 0 5171.35129400 0 414.18200935 0 1663.36901387 0 13428
0.11150000 0.11150900 15977.34854252 0 34.43337298 0 5561.53676217 0 596.51323267 0 2233.60722545 0 13453
0.11250000 0.11250000 16007.92311251 0 -126.41123406 0 4650.80799930 0 421.76382827 0 1572.03872668 0 13668
0.11350000 0.11349100 16174.50955635 0 91.96010085 0 4885.91744999 0 505.73148923 0 2136.54420639 0 13791
0.11450000 0.11448600 15865.50406775 0 252.69320063 0 4110.20014304 0 562.07412696 0 1545.25225599 0 14205
0.11550000 0.11549300 15637.99329695 0 245.42387180 0 3994.75866003 0 321.60625806 0 2137.57834626 0 14776
0.11650000 0.11649800 15381.48164727 0 389.90107971 0 3876.99036232 0 307.50710985 0 1600.87099581 0 14553
0.11750000 0.11747300 15146.21482747 0 475.30641990 0 3418.23692469 0 -76.79455210 0 1225.30961423 0 14568
0.11850000 0.11849100 14590.02742930 0 428.62399741 0 3463.23324957 0 -171.30864121 0 1074.27348662 0 16015
0.11950000 0.11950300 14350.71397524 0 425.81271067 0 3726.19703277 0 -1039.18242317 0 52.77665369 0 15270
0.12050000 0.12050700 14173.56131972 0 224.19815102 0 4337.59850733 0 -866.27985769 0 -186.15529269 0 15999
0.12150000 0.12150000 14021.02568930 0 55.13595387 0 4438.83180781 0 -849.53016404 0 -1188.21546682 0 15670
0.12250000 0.12250700 14103.30725265 0 12.83221447 0 4669.72601448 0 -512.79286602 0 -1387.89438641 0 16887
0.12350000 0.12352200 14124.55208253 0 108.46171334 0 5124.70259346 0 -3.36178638 0 -1879.70657784 0 16407
0.12450000 0.12449800 13928.17791426 0 49.09882517 0 4290.64630923 0 625.59729237 0 -1863.27274647 0 16306
0.12550000 0.12549900 13926.37941015 0 107.69172877 0 4474.21737631 0 1222.73550522 0 -1018.49737769 0 17523
0.12650000 0.12650100 13712.46982674 0 1.50578633 0 3215.38814160 0 1412.01682287 0 -1184.28123907 0 17154
0.12750000 0.12750600 13705.83784280 0 32.50627582 0 3718.85688784 0 1193.37492551 0 -295.86966415 0 18007
0.12850000 0.12850300 13589.60951425 0 129.66090618 0 2739.94233763 0 257.17147588 0 -135.79492929 0 17496
0.12950000 0.12949900 13636.14580827 0 160.84584350 0 3544.17717548 0 -127.49258466 0 781.28704938 0 18405
0.13050000 0.13049000 13447.97731504 0 192.44668491 0 3246.87320430 0 -583.33132155 0 722.78620672 0 18100
0.13150000 0.13148800 13449.88822566 0 191.48673333 0 3650.24395578 0 -180.33151155 0 1967.32745029 0 19059
0.13250000 0.13249300 13234.74217067 0 198.51214004 0 3987.96930699 0 42.54305285 0 799.11359738 0 18957
0.13350000 0.13349100 13095.13328859 0 308.40636191 0 4044.70087123 0 134.95862487 0 1104.57490880 0 19468
0.13450000 0.13450700 12795.00791407 0 287.78201595 0 3715.69826499 0 233.70099715 0 1009.61501549 0 19953
0.13550000 0.13551000 12734.19599362 0 244.67187227 0 4032.89818796 0 219.42649479 0 1163.41859131 0 19956
0.13650000 0.13649900 12478.58359600 0 117.57720665 0 3863.16436193 0 239.19879943 0 1491.22968858 0 19723
0.13750000 0.13749600 12538.72107741 0 34.13605777 0 3657.14571533 0 335.71439880 0 1070.85070847 0 20946
0.13850000 0.13851100 12485.32798643 0 43.60293381 0 3535.74668743 0 238.50749941 0 1232.55983395 0 20955
0.13950000 0.13949800 12462.39705894 0 208.58151496 0 3539.79332170 0 68.80402312 0 1014.39791237 0 20506
0.14050000 0.14048300 12255.79389851 0 248.39702392 0 3477.26158168 0 -70.39075338 0 1118.67293294 0 21447
0.14150000 0.14148400 11998.83262280 0 273.69186026 0 3563.72466710 0 -335.45473976 0 609.21966425 0 21771
0.14250000 0.14249400 11911.94239265 0 141.28935936 0 3601.34712510 0 -18.75457612 0 1044.69371422 0 22470
0.14350000 0.14350900 11737.48749330 0 106.92331788 0 3750.92646438 0 -17.92850070 0 495.41931625 0 22519
0.14450000 0.14449900 11638.79457988 0 182.14125631 0 3547.92031217 0 113.97120589 0 703.04200371 0 22218
0.14550000 0.14550500 11460.96748532 0 109.28958727 0 3954.42720521 0 412.26772654 0 870.39056366 0 23559
0.14650000 0.14650700 11323.15710736 0 146.21051625 0 3840.42452550 0 296.67786694 0 645.16614123 0 23044
0.14750000 0.14750500 11377.44945039 0 181.82539403 0 3907.36260060 0 188.78560496 0 1711.47899900 0 23649
0.14850000 0.14849900 11192.07987918 0 104.35584085 0 3908.21689006 0 15.30976630 0 1177.82910555 0 23640
0.14950000 0.14949500 11224.08201181 0 194.56442350 0 3917.44546431 0 282.58995938 0 2337.94294554 0 24457
0.15050000 0.15050000 11108.73045401 0 60.47413890 0 3758.81740119 0 479.12599302 0 1772.29091945 0 24591
0.15150000 0.15149900 11042.97264724 0 118.90360343 0 3396.56495008 0 115.04693617 0 1833.18152446 0 25020
0.15250000 0.15250500 10941.41336788 0 163.48177610 0 3357.25639448 0 79.36034304 0 1267.81051465 0 25297
0.15350000 0.15350100 10468.37306317 0 371.03814372 0 2847.08822040 0 -0.88058021 0 912.22489349 0 25452
0.15450000 0.15450400 10403.18852958 0 298.12566275 0 2966.57633767 0 61.55976095 0 934.07447038 0 26061
0.15550000 0.15549900 10029.78535295 0 201.21888874 0 2602.84012067 0 248.23628261 0 678.06864998 0 26128
0.15650000 0.15649500 9898.15733289 0 84.14436399 0 2480.19338054 0 535.34947984 0 581.64522394 0 26331
0.15750000 0.15749700 9710.87685106 0 25.78391705 0 1915.23827480 0 408.84045213 0 284.37160252 0 27345
0.15850000 0.15849900 9631.74266991 0 153.59787191 0 1779.96828390 0 159.52619111 0 599.89217228 0 26980
0.15950000 0.15949700 9541.46900389 0 195.84698175 0 1869.14036615 0 -104.40035383 0 312.08879909 0 27777
0.16050000 0.16050000 9414.22483762 0 220.65397385 0 2010.08688567 0 -387.08529670 0 516.34266352 0 28224
0.16150000 0.16150500 9186.51173511 0 282.88109223 0 2208.78786864 0 -342.98822388 0 373.85617486 0 28075
0.16250000 0.16249700 9046.14972943 0 121.26863635 0 2700.66750398 0 -216.62307650 0 436.40702398 0 28590
0.16350000 0.16349900 8980.85278933 0 21.99840311 0 2616.93589668 0 65.58975905 0 805.27122585 0 29163
0.16450000 0.16449100 9124.86800650 0 -59.23845417 0 2931.70783910 0 356.26455646 0 645.95073865 0 28996
0.16550000 0.16550500 9066.84376743 0 -16.24555047 0 2665.88893062 0 387.66306615 0 516.78104890 0 30777
0.16650000 0.16650700 9114.41420132 0 96.88047089 0 2916.34186955 0 286.59050697 0 583.58873246 0 29211
0.16750000 0.16749900 8995.78037350 0 212.03239474 0 2482.04808791 0 15.48703136 0 747.76293264 0 30922
0.16850000 0.16850800 8776.09309562 0 267.73206724 0 2661.30274512 0 195.03203457 0 1051.70113589 0 30867
0.16950000 0.16949900 8585.38421532 0 223.17300368 0 2612.14737947 0 96.96679909 0 1171.06223381 0 30852
0.17050000 0.17049200 8411.71616152 0 145.83957478 0 2832.74515007 0 104.72048756 0 1188.62013025 0 31257
0.17150000 0.17149500 8392.17991055 0 48.18720840 0 2713.43688321 0 214.13889269 0 1291.03369906 0 32608
0.17250000 0.17250900 8444.68499012 0 -94.35795646 0 2725.19460387 0 192.35113937 0 1521.19726343 0 32361
0.17350000 0.17350400 8487.21961248 0 -115.00197356 0 2529.11269252 0 36.87158253 0 1214.08020415 0 32508
0.17450000 0.17449800 8650.27649199 0 -30.04828272 0 2595.21895947 0 126.17630446 0 1225.35457684 0 32791
0.17550000 0.17549800 8603.18940607 0 62.44237684 0 2200.51474970 0 -137.66762170 0 549.44750399 0 33633
0.17650000 0.17650100 8550.54943870 0 179.41877071 0 2012.35749712 0 -179.49970339 0 336.07297556 0 33984
0.17750000 0.17750300 8366.64115209 0 231.56976977 0 2016.55025984 0 -186.45204587 0 -245.01133992 0 34069
