### header ###
fiducial parameters:
Omega_m = 0.31
Omega_nu = 0
Omega_de = 0.69
Omega_k = 0
H_0 = 100
w_de = -1
zeff = 0
beta = 0
fgrowth = 0
b_1 = 2
gamma = 0.55
Lx = 3500 Ly = 3500 Lz = 3500
nx = 700 ny = 700 nz = 700
xoffset = 857.220397 yoffset = 15.9954215 zoffset = 262.898189
bins = 400 dk = 0.001
kx_ny = 0.628318531 ky_ny = 0.628318531 kz_ny = 0.628318531
############################
A(data) = 3.06731944 (not used)
A(ran) = 3.06754153 (used)
Ngal = 187279
weighted Ngal = 0
Nran = 9360983
weighted Nran = 0
SN(data) = 3446.30991
SN(ran) = 68.8854544
SN(data+ran) = 3515.19536
############################
13 columns: k_central k_mean P_0(k) sigma^{lin}_{P_0(k)} P^img_1(k) sigma^{lin}_{P_1(k)} P_2(k) sigma^{lin}_{P_2(k)} P^img_3(k) sigma^{lin}_{P_3(k)} P_4(k) sigma^{lin}_{P_4(k)} N_modes
### header ###
0.00050000 0 0 0 0 0 0 0 0 0 0 0 0
0.00150000 0.00179520 7368.61749564 0 -18247.95999018 0 -3155.49795451 0 -5074.27703429 0 3396.32889642 0 3
0.00250000 0.00253879 19739.36952917 0 -27427.18778362 0 -22427.45874498 0 8476.72084470 0 17573.63335283 0 6
0.00350000 0.00331552 31714.93400495 0 -28605.77001276 0 -20756.87323334 0 -15012.11386425 0 -16393.70224560 0 7
0.00450000 0.00420575 51433.84554980 0 -31677.83985754 0 -41079.18290942 0 -4086.17887243 0 -1559.70773283 0 24
0.00550000 0.00557378 71777.62486877 0 -22499.84853569 0 -46688.60484371 0 -9111.03076545 0 6387.87071936 0 45
0.00650000 0.00659388 98442.24690680 0 -21995.48053739 0 -85024.73175525 0 -3567.59145095 0 11591.24662729 0 40
0.00750000 0.00754703 88987.06113792 0 -4481.00672935 0 -44057.73054012 0 -33053.80791352 0 5364.47691421 0 57
0.00850000 0.00846663 100637.32118155 0 -2368.14657405 0 -59379.41192550 0 -27487.77489106 0 417.05849188 0 75
0.00950000 0.00948925 84244.74300102 0 3510.25289158 0 -15584.82501900 0 -33235.56923584 0 638.01483923 0 112
0.01050000 0.01054430 96713.99685691 0 5923.27214335 0 -29534.47257616 0 -31939.74701957 0 16137.64022195 0 105
0.01150000 0.01145670 82256.49669972 0 6265.43755160 0 -2301.24222090 0 -16136.85337640 0 622.44766203 0 144
0.01250000 0.01249090 84810.82217184 0 8060.31093837 0 2207.88861658 0 -15467.02299934 0 5900.84704514 0 169
0.01350000 0.01339930 77737.30547984 0 5424.14228829 0 9561.21882723 0 9450.16119800 0 -156.28101524 0 180
0.01450000 0.01448870 70991.11653713 0 4201.64283674 0 1880.04379736 0 -3207.30611372 0 6184.03275900 0 267
0.01550000 0.01550050 70593.30990776 0 4162.07574616 0 16640.99656168 0 3731.52510121 0 -27134.03161255 0 238
0.01650000 0.01653350 66031.40421509 0 -2508.83455860 0 -4861.75005091 0 -1815.57866542 0 -4412.37131599 0 315
0.01750000 0.01747870 68193.31857018 0 1503.83045805 0 3306.76339139 0 -1151.52598283 0 -23943.59771558 0 297
0.01850000 0.01844180 69224.64827475 0 -2689.32568739 0 -14187.27491361 0 -3620.84965412 0 -11945.43953182 0 388
0.01950000 0.01947590 70186.62316431 0 693.96180605 0 -5265.39057801 0 -9173.25900790 0 -30177.55020448 0 399
0.02050000 0.02045430 67442.44310135 0 1756.41912062 0 -4786.40396906 0 -8049.42998846 0 -19699.01559305 0 462
0.02150000 0.02154770 66901.76780119 0 2375.95882631 0 -6741.85005153 0 -8552.55027453 0 -15216.58130105 0 571
0.02250000 0.02255340 65622.01971547 0 1882.92140395 0 -206.75153703 0 -1327.55457328 0 -15199.72032495 0 510
0.02350000 0.02348930 64545.39018845 0 -132.45533195 0 -6968.32668246 0 -1572.38718685 0 -8886.20651018 0 555
0.02450000 0.02439640 63753.93597048 0 -313.06111538 0 5840.31614095 0 2856.45168246 0 -15941.49086669 0 592
0.02550000 0.02547300 65692.49859555 0 134.13468517 0 2895.18696488 0 -5901.40907767 0 -4221.85352675 0 837
0.02650000 0.02652900 67156.36854025 0 -362.98871373 0 9852.74510393 0 -2138.50007962 0 -6058.76694726 0 723
0.02750000 0.02749970 67982.55636898 0 1641.10128477 0 14002.81583512 0 -7208.51690728 0 4756.75113244 0 826
0.02850000 0.02848090 67071.27681421 0 911.57518388 0 23717.88544890 0 720.45939202 0 2497.20048510 0 831
0.02950000 0.02946900 67531.58146165 0 1121.37518538 0 25818.08863148 0 882.45740222 0 12474.53696173 0 996
0.03050000 0.03053250 65794.22648467 0 2545.02945396 0 31462.69380255 0 7595.72360301 0 20609.39589575 0 1041
0.03150000 0.03150510 63640.96743064 0 3419.30478651 0 33463.86685219 0 8727.55596576 0 21703.78565092 0 1036
0.03250000 0.03246190 63405.36339132 0 1460.73380314 0 32671.96300819 0 13176.17838036 0 31118.05545114 0 1059
0.03350000 0.03345080 58970.02742588 0 1305.47793525 0 22664.86128842 0 11821.67996728 0 26443.18121863 0 1302
0.03450000 0.03451200 58078.30660339 0 2277.25467224 0 24596.56711654 0 5242.18987491 0 29970.27260500 0 1339
0.03550000 0.03553350 55592.21188122 0 2650.92762449 0 17826.21077476 0 4680.93294326 0 25875.07873068 0 1365
0.03650000 0.03647120 52631.19966566 0 2318.73267344 0 14568.89500593 0 1858.84393008 0 23812.75654107 0 1308
0.03750000 0.03744890 51138.32884208 0 1240.54069597 0 9561.24130853 0 2621.67945129 0 17815.98178259 0 1579
0.03850000 0.03847530 49223.93361608 0 -335.20070106 0 4652.64022537 0 5627.82287953 0 12298.50837128 0 1662
0.03950000 0.03950240 48424.04891007 0 -1065.07638619 0 3116.86383794 0 2803.63186467 0 3704.30024514 0 1683
0.04050000 0.04050350 48557.70024726 0 1458.15969413 0 3187.99467577 0 -3186.10624645 0 -456.12424943 0 1822
0.04150000 0.04152450 46419.50366521 0 2110.83683817 0 3014.93361711 0 -6418.42280805 0 935.58858603 0 1887
0.04250000 0.04250150 44417.31895700 0 3213.19621471 0 10553.11632903 0 -8205.12424174 0 -1520.99493171 0 1920
0.04350000 0.04349210 44435.75362420 0 3491.78450242 0 13235.64142273 0 -7042.72854965 0 -343.09388600 0 2005
0.04450000 0.04448520 41720.57444013 0 1457.00190710 0 18343.28070838 0 -2967.95893771 0 -4383.06693954 0 2151
0.04550000 0.04548030 41112.90486161 0 2026.25094142 0 19250.62603539 0 -734.09430135 0 -3200.34815092 0 2274
0.04650000 0.04648670 39832.70714986 0 1276.37589050 0 16811.62963978 0 4841.37075114 0 -6895.15004620 0 2311
0.04750000 0.04749250 37949.78574591 0 1024.64039332 0 15846.73218103 0 4678.92086678 0 -6893.50891119 0 2568
0.04850000 0.04851840 36729.05107653 0 349.46283871 0 10618.39078782 0 5931.75883465 0 -5514.83185839 0 2493
0.04950000 0.04949480 36558.19318542 0 -664.57424878 0 8499.88782586 0 3822.81042580 0 -7056.22857117 0 2644
0.05050000 0.05050630 36186.91449177 0 -699.55065759 0 5079.53765883 0 2327.35425255 0 -4897.47283894 0 2829
0.05150000 0.05149060 37369.31854217 0 -355.21692782 0 7323.14906343 0 -3470.40478473 0 -2232.79789860 0 2784
0.05250000 0.05249300 37846.48416570 0 238.08934720 0 9108.47913773 0 -3940.82601783 0 -2316.60819045 0 3055
0.05350000 0.05348950 38317.24261831 0 362.33900412 0 11684.31921534 0 -2867.66985189 0 -517.34083331 0 3009
0.05450000 0.05448610 38476.63504568 0 562.75081413 0 14832.82548509 0 -2685.50386614 0 2220.68047711 0 3336
0.05550000 0.05550870 38771.58972086 0 17.78462037 0 17237.20067645 0 243.45001353 0 2045.13523465 0 3349
0.05650000 0.05647670 38572.74260943 0 1149.83988523 0 18940.38407521 0 1591.93467848 0 1965.72003723 0 3324
0.05750000 0.05747970 38401.65990530 0 1323.87888049 0 16070.42113058 0 2149.63956449 0 142.04023483 0 3639
0.05850000 0.05849280 36836.62410402 0 1009.65098557 0 16466.76647535 0 3321.23010888 0 3226.64003298 0 3846
0.05950000 0.05951020 35635.44816691 0 1092.14724535 0 13518.79341464 0 4231.93639046 0 2865.26435263 0 3787
0.06050000 0.06049470 35327.34193037 0 249.93137274 0 14302.60399011 0 1664.47059764 0 527.80925133 0 3930
0.06150000 0.06148310 34616.59558465 0 459.25252253 0 10889.07689808 0 2470.20044204 0 1205.70591936 0 4083
0.06250000 0.06249100 34298.48516897 0 857.56160898 0 11170.28425742 0 -440.56606475 0 -674.37047589 0 4303
0.06350000 0.06350600 33162.50500609 0 -19.68788735 0 10213.58123305 0 17.20628889 0 24.17054645 0 4470
0.06450000 0.06451750 33296.94318883 0 286.77710177 0 11846.18458587 0 -1507.82088906 0 -1242.63145701 0 4479
0.06550000 0.06550280 33139.12445257 0 965.37968266 0 11313.49014773 0 -238.36137095 0 -278.82883764 0 4636
0.06650000 0.06648880 31874.32643232 0 744.37949677 0 10499.40849984 0 -394.65362684 0 -4284.95853996 0 4653
0.06750000 0.06749660 31296.21976523 0 994.85154482 0 10452.31017327 0 705.02035824 0 -2952.55924621 0 5220
0.06850000 0.06852730 30776.22726241 0 453.88623587 0 9945.07580904 0 860.65053980 0 -3832.28629437 0 5029
0.06950000 0.06949320 29815.93847046 0 319.14455555 0 9255.82158752 0 889.11523965 0 -3820.49485175 0 5040
0.07050000 0.07048030 30241.28469412 0 -13.61164119 0 8129.53086557 0 1170.69129233 0 -3566.14140701 0 5475
0.07150000 0.07148790 30236.00158828 0 450.31058487 0 10081.24505199 0 1619.87893619 0 -2418.53841128 0 5509
0.07250000 0.07249820 29852.13336582 0 482.31721376 0 7655.41145839 0 1005.90560075 0 -609.56138004 0 5916
0.07350000 0.07351270 28967.49415329 0 277.42038411 0 10139.76387970 0 2359.34514453 0 1564.22647442 0 5721
0.07450000 0.07449140 29331.80364348 0 528.28135866 0 8282.06649599 0 990.58122160 0 2946.77031108 0 6028
0.07550000 0.07549160 28453.12197584 0 379.30114607 0 10243.95347132 0 1990.70800381 0 4272.06551357 0 6183
0.07650000 0.07648840 28484.93301740 0 904.58574725 0 11089.02559328 0 100.71836627 0 5809.24698233 0 6330
0.07750000 0.07749960 27600.63102440 0 688.72253874 0 10539.57134490 0 -0.34157415 0 6604.15208007 0 6583
0.07850000 0.07848650 26961.71243685 0 1029.71779525 0 12544.67862229 0 -1148.43480388 0 6337.82734231 0 6549
0.07950000 0.07947320 26770.84618744 0 589.30460335 0 13880.74236818 0 -1488.90287387 0 7200.81706153 0 6828
0.08050000 0.08048110 26324.70475992 0 536.20376930 0 13134.13834663 0 -974.90051383 0 5095.09471944 0 7147
0.08150000 0.08149960 26319.98368662 0 296.67899100 0 13906.82067787 0 323.16196413 0 4418.87965276 0 7386
0.08250000 0.08250610 25482.10558113 0 240.55779410 0 12460.14892880 0 1120.48717397 0 3090.25721766 0 7227
0.08350000 0.08350160 25383.41266771 0 243.51633337 0 11505.59286872 0 2462.52307759 0 3234.04762181 0 7798
0.08450000 0.08449610 24975.15223316 0 -120.85722853 0 9017.09264729 0 2825.69726206 0 1508.21431183 0 7371
0.08550000 0.08548940 24960.98901324 0 184.16232532 0 7150.62755601 0 1783.75638320 0 -392.28072547 0 8256
0.08650000 0.08650700 24472.35792596 0 220.51796198 0 5376.38076333 0 1628.50051530 0 -42.35139976 0 8037
0.08750000 0.08749060 23904.48025103 0 672.24262071 0 4926.95706581 0 521.10532724 0 -717.93361780 0 8155
0.08850000 0.08849210 23224.42088181 0 803.81893377 0 4512.82901157 0 -217.23681603 0 -55.17462171 0 8718
0.08950000 0.08949900 22436.90089159 0 679.26915148 0 3851.92371119 0 -114.33652704 0 -1552.58116027 0 8571
0.09050000 0.09049190 21951.86681255 0 765.55126242 0 5485.22398436 0 -200.37471587 0 -751.56676885 0 8932
0.09150000 0.09150830 21467.95679858 0 854.75819069 0 5723.08739448 0 -133.91549248 0 -373.04909613 0 9285
0.09250000 0.09250820 20901.09078222 0 732.29354911 0 6798.61533772 0 -454.53144922 0 -431.38470123 0 9204
0.09350000 0.09350330 20564.65810584 0 631.53910034 0 6549.52251752 0 -321.60063774 0 2093.07661001 0 9349
0.09450000 0.09448040 20199.78658311 0 269.87903153 0 7099.13413501 0 564.40881011 0 1210.22466095 0 9564
0.09550000 0.09549270 19881.90098044 0 38.98426283 0 6538.30434809 0 860.10424418 0 1952.69212304 0 10155
0.09650000 0.09649430 19937.20498204 0 -45.93480681 0 6107.09050475 0 1153.49309671 0 438.71472958 0 9913
0.09750000 0.09749140 19391.92101508 0 140.75093219 0 5489.91133571 0 660.46803907 0 524.19987838 0 10476
0.09850000 0.09850240 19671.70081177 0 175.29007969 0 4995.26650030 0 189.36899473 0 -63.97076812 0 10575
0.09950000 0.09950330 18913.63132647 0 180.80811514 0 4835.14343063 0 90.03637588 0 400.79214620 0 10882
0.10050000 0.10051200 18686.79499472 0 345.89280803 0 4499.71117217 0 62.69124485 0 172.02691879 0 10875
0.10150000 0.10150300 18750.97911040 0 223.95872516 0 4597.52731483 0 707.80579149 0 940.47377284 0 11118
0.10250000 0.10250800 18384.98352259 0 231.79008653 0 4359.02318762 0 1215.18178792 0 1376.73242023 0 11575
0.10350000 0.10349800 18332.71449670 0 42.66422707 0 4287.20667010 0 1220.83583524 0 1666.12297330 0 11364
0.10450000 0.10450100 18174.22132139 0 -156.01573589 0 3219.53594172 0 1275.81385797 0 1395.94269233 0 12093
0.10550000 0.10551000 18260.43711250 0 102.86128393 0 3723.03840991 0 546.10790666 0 2498.13345911 0 12067
0.10650000 0.10649700 17891.74376852 0 549.21931878 0 3360.57238644 0 -482.84552434 0 2061.77139773 0 12054
0.10750000 0.10749900 17842.39731181 0 685.57852873 0 4058.74044399 0 -1602.65825927 0 2267.93617279 0 12807
0.10850000 0.10850100 16909.42330114 0 916.37494174 0 4767.50843519 0 -1274.11651971 0 2428.81236605 0 12736
0.10950000 0.10950300 16565.68420178 0 685.90338354 0 5433.20225278 0 -933.60573524 0 2230.16758633 0 12933
0.11050000 0.11050200 15883.37670241 0 404.43411704 0 5883.95234709 0 44.94371863 0 1747.21302767 0 13428
0.11150000 0.11150900 15806.82787093 0 448.80096548 0 6232.97455229 0 484.40460260 0 1900.87272317 0 13453
0.11250000 0.11250000 15229.39564288 0 354.66501186 0 5495.11575700 0 699.21118994 0 407.83441389 0 13668
0.11350000 0.11349100 14893.07537301 0 411.49886603 0 5967.86380480 0 76.63931872 0 1043.23917402 0 13791
0.11450000 0.11448600 14677.81691151 0 519.30907125 0 5546.36188369 0 -784.42768720 0 -583.97428678 0 14205
0.11550000 0.11549300 14192.55801946 0 346.54813797 0 5735.60947939 0 -774.54041081 0 -370.80096599 0 14776
0.11650000 0.11649800 14290.12686780 0 59.90513716 0 6701.54107801 0 -1103.95892114 0 -623.71111118 0 14553
0.11750000 0.11747300 14274.16514376 0 -73.40111205 0 6124.45731013 0 -109.51226456 0 -970.40312948 0 14568
0.11850000 0.11849100 14617.11739757 0 -326.95905594 0 6516.03661899 0 789.03972619 0 -1349.74361783 0 16015
0.11950000 0.11950300 14719.63213223 0 -153.08080198 0 5448.07363369 0 755.61115498 0 -1770.77343161 0 15270
0.12050000 0.12050700 14796.85540275 0 35.89319629 0 5617.78497843 0 896.08781530 0 -1447.46983528 0 15999
0.12150000 0.12150000 14535.95989929 0 176.90423714 0 5183.63732525 0 593.06460102 0 -946.23348227 0 15670
0.12250000 0.12250700 14331.49246249 0 266.76199908 0 4432.54828405 0 688.07058100 0 -321.00937951 0 16887
0.12350000 0.12352200 14261.57561495 0 201.41560012 0 4487.54878808 0 409.96788940 0 111.51770906 0 16407
0.12450000 0.12449800 13917.27448305 0 184.23201735 0 4297.97521350 0 333.12118067 0 -42.03452582 0 16306
0.12550000 0.12549900 13956.50435411 0 118.11001349 0 4552.28369564 0 258.34275169 0 524.66973758 0 17523
0.12650000 0.12650100 13593.20652248 0 116.85668093 0 4105.99613967 0 75.00549013 0 885.87793224 0 17154
0.12750000 0.12750600 13654.80528849 0 192.01504392 0 4134.16521040 0 269.68456827 0 689.91067553 0 18007
0.12850000 0.12850300 13356.81563761 0 194.99044417 0 4156.71395577 0 297.91658665 0 769.20672204 0 17496
0.12950000 0.12949900 13267.56487080 0 394.17927138 0 4147.80011974 0 381.46384727 0 576.76228527 0 18405
0.13050000 0.13049000 12922.13967384 0 233.15357746 0 3643.06117996 0 -130.90074996 0 99.55349764 0 18100
0.13150000 0.13148800 12979.01736654 0 54.06977815 0 3786.96399062 0 323.99602041 0 815.70030160 0 19059
0.13250000 0.13249300 12961.03232537 0 -217.95059735 0 3093.16854620 0 396.78485422 0 38.17931983 0 18957
0.13350000 0.13349100 13124.13416748 0 -240.15875100 0 3041.37162763 0 426.29830678 0 -1.33309621 0 19468
0.13450000 0.13450700 13296.00371715 0 -104.16666070 0 3124.51872109 0 142.33811208 0 232.12505792 0 19953
0.13550000 0.13551000 13171.23249404 0 242.65867172 0 3071.88999437 0 24.11524245 0 214.48847692 0 19956
0.13650000 0.13649900 12984.41287889 0 442.63546855 0 3533.83577681 0 -61.95307132 0 937.79624984 0 19723
0.13750000 0.13749600 12596.61042867 0 459.46946708 0 3458.93932099 0 -105.42134213 0 849.59535981 0 20946
0.13850000 0.13851100 12254.66983343 0 351.43107665 0 4054.89614144 0 372.75796328 0 1654.61254695 0 20955
0.13950000 0.13949800 11943.41621469 0 363.64853993 0 3767.95605023 0 109.89365984 0 1472.21050754 0 20506
0.14050000 0.14048300 11773.34516913 0 204.03129955 0 4014.62088987 0 579.86695300 0 2052.45289827 0 21447
0.14150000 0.14148400 11658.35331215 0 144.31309441 0 3930.99044844 0 178.51502239 0 1854.80853647 0 21771
0.14250000 0.14249400 11621.93360379 0 87.16618813 0 3843.57190770 0 75.00481569 0 1602.95051619 0 22470
0.14350000 0.14350900 11432.75345198 0 81.11691953 0 3456.94972581 0 -91.16808460 0 1509.72055903 0 22519
0.14450000 0.14449900 11595.40566806 0 109.30285124 0 3538.66925662 0 -230.60419788 0 757.79521342 0 22218
0.14550000 0.14550500 11370.03062090 0 145.00551849 0 3245.10842213 0 -255.11331273 0 315.64871318 0 23559
0.14650000 0.14650700 11276.17118730 0 169.22237643 0 3204.65332015 0 -328.09098947 0 -657.01041490 0 23044
0.14750000 0.14750500 11038.86980972 0 116.29240027 0 3150.78812185 0 -109.15042801 0 -770.19927150 0 23649
0.14850000 0.14849900 10891.03277131 0 185.10429185 0 2978.30033638 0 89.37778616 0 -1636.77363424 0 23640
0.14950000 0.14949500 10890.96532740 0 215.10334052 0 3022.48733441 0 161.36740970 0 -1429.04640873 0 24457
0.15050000 0.15050000 10650.20182939 0 173.04082548 0 2906.57374407 0 86.13969190 0 -1652.99389325 0 24591
0.15150000 0.15149900 10481.91804730 0 214.55030050 0 2972.74745492 0 262.65241718 0 -913.17472847 0 25020
0.15250000 0.15250500 10318.26541331 0 187.57049062 0 3165.10871088 0 140.31929121 0 -917.12694127 0 25297
0.15350000 0.15350100 10238.67036548 0 147.88649728 0 3115.78473547 0 281.68733512 0 -460.54856955 0 25452
0.15450000 0.15450400 10140.82050087 0 87.51880734 0 3366.11402725 0 248.09577448 0 -151.94437219 0 26061
0.15550000 0.15549900 10132.69351039 0 83.37460423 0 3063.79672584 0 262.59621392 0 116.12041831 0 26128
0.15650000 0.15649500 10075.28750711 0 55.24442615 0 3080.73638649 0 347.85879785 0 314.67639689 0 26331
0.15750000 0.15749700 9967.42222269 0 126.40673780 0 2819.11024073 0 295.41666593 0 273.53786334 0 27345
0.15850000 0.15849900 9822.73256648 0 192.81200605 0 2592.45375939 0 271.64381370 0 505.34593491 0 26980
0.15950000 0.15949700 9590.78173865 0 213.60496178 0 2304.60317547 0 128.04562467 0 340.62543910 0 27777
0.16050000 0.16050000 9470.07963110 0 168.89302536 0 2352.76936385 0 144.75934824 0 467.00632340 0 28224
0.16150000 0.16150500 9279.76417357 0 161.97777703 0 2076.49665019 0 13.30196126 0 228.97655165 0 28075
0.16250000 0.16249700 9184.87060010 0 121.79582287 0 2213.81243952 0 192.27807514 0 296.52836628 0 28590
0.16350000 0.16349900 9125.10406016 0 73.99135862 0 2031.69141637 0 58.21083388 0 533.03840205 0 29163
0.16450000 0.16449100 9013.00105042 0 91.63142422 0 2032.88292535 0 366.91507303 0 514.10464996 0 28996
0.16550000 0.16550500 8986.91150008 0 60.70625834 0 1961.49355256 0 389.21989628 0 706.09271632 0 30777
0.16650000 0.16650700 8929.59542200 0 104.99959292 0 1773.03280240 0 230.50640422 0 754.19258486 0 29211
0.16750000 0.16749900 8862.81471601 0 149.62992221 0 1596.44217942 0 92.99109333 0 808.94242238 0 30922
0.16850000 0.16850800 8687.80902478 0 147.46384881 0 1639.06672699 0 43.68352928 0 723.98108789 0 30867
0.16950000 0.16949900 8536.40870008 0 135.23064862 0 1586.91010760 0 6.53401042 0 821.03174224 0 30852
0.17050000 0.17049200 8400.53171405 0 172.11684399 0 1736.89411030 0 -93.48118571 0 532.66408838 0 31257
0.17150000 0.17149500 8318.05905963 0 126.26847779 0 1551.92920252 0 90.78410397 0 360.60457171 0 32608
0.17250000 0.17250900 8245.55686242 0 178.95228370 0 1930.76161346 0 -45.73483563 0 457.65747419 0 32361
0.17350000 0.17350400 8096.39342722 0 178.51951865 0 1567.19400622 0 28.35870051 0 496.29046668 0 32508
0.17450000 0.17449800 7959.03267528 0 127.39254286 0 2142.71532364 0 -69.94596083 0 540.06942909 0 32791
0.17550000 0.17549800 7933.29158511 0 126.13246592 0 1784.55446940 0 -219.76371431 0 373.97757389 0 33633
0.17650000 0.17650100 7937.38318198 0 95.60342056 0 2260.13516118 0 -420.99721589 0 258.67772308 0 33984
0.17750000 0.17750300 7797.00993565 0 69.80904971 0 2278.64851293 0 -397.23785244 0 156.68343054 0 34069
0.17850000 0.17849800 7867.64618484 0 81.03261465 0 2281.52611952 0 -246.45351541 0 -21.05160310 0 34536
