### header ###
fiducial parameters:
Omega_m = 0.31
Omega_nu = 0
Omega_de = 0.69
Omega_k = 0
H_0 = 100
w_de = -1
zeff = 0
beta = 0
fgrowth = 0
b_1 = 2
gamma = 0.55
Lx = 3500 Ly = 3500 Lz = 3500
nx = 700 ny = 700 nz = 700
xoffset = 857.220397 yoffset = 15.9954215 zoffset = 262.898189
bins = 400 dk = 0.001
kx_ny = 0.628318531 ky_ny = 0.628318531 kz_ny = 0.628318531
############################
A(data) = 3.06865534 (not used)
A(ran) = 3.0656139 (used)
Ngal = 187167
weighted Ngal = 0
Nran = 9360983
weighted Nran = 0
SN(data) = 3455.20406
SN(ran) = 68.8421671
SN(data+ran) = 3524.04623
############################
13 columns: k_central k_mean P_0(k) sigma^{lin}_{P_0(k)} P^img_1(k) sigma^{lin}_{P_1(k)} P_2(k) sigma^{lin}_{P_2(k)} P^img_3(k) sigma^{lin}_{P_3(k)} P_4(k) sigma^{lin}_{P_4(k)} N_modes
### header ###
0.00050000 0 0 0 0 0 0 0 0 0 0 0 0
0.00150000 0.00179520 50644.07742944 0 -48914.25368844 0 -54130.81487968 0 127584.75799197 0 -89559.21026013 0 3
0.00250000 0.00253879 93120.13600520 0 -55153.82650271 0 -794.28686195 0 -47254.68401452 0 76953.71971738 0 6
0.00350000 0.00331552 108317.15857398 0 -23756.44088091 0 -12222.52157234 0 -69574.12010598 0 -32089.92211334 0 7
0.00450000 0.00420575 125534.46329864 0 -354.66051560 0 -6914.34907765 0 -41694.94575647 0 29061.57839990 0 24
0.00550000 0.00557378 104425.42047789 0 15858.98449033 0 -134.92715105 0 -19668.89064909 0 13443.70586776 0 45
0.00650000 0.00659388 121066.30463307 0 13020.49536774 0 15998.36855939 0 -1048.06590944 0 -13914.68913339 0 40
0.00750000 0.00754703 91444.04257470 0 9853.58815274 0 20804.19637292 0 -6760.00370246 0 -23040.86105537 0 57
0.00850000 0.00846663 79078.76473807 0 19652.36689251 0 34104.02191132 0 -20206.41856704 0 -17951.43162390 0 75
0.00950000 0.00948925 65995.99616529 0 7582.57204165 0 22376.08897114 0 7403.00264622 0 -887.38193131 0 112
0.01050000 0.01054430 59686.95612950 0 8554.69723882 0 26062.57278488 0 816.62203496 0 -2331.51329332 0 105
0.01150000 0.01145670 57085.53233083 0 -3404.64697796 0 14199.97684894 0 22206.57995812 0 -3414.58371320 0 144
0.01250000 0.01249090 58509.72277845 0 -9298.05271231 0 1897.88271007 0 32424.33147259 0 4953.88966496 0 169
0.01350000 0.01339930 56002.15841338 0 -7556.42628805 0 -18013.36760943 0 24097.59463059 0 14366.22607325 0 180
0.01450000 0.01448870 69739.13285871 0 -11526.95010511 0 -29233.89757561 0 24979.76089996 0 15293.91697808 0 267
0.01550000 0.01550050 70118.95444691 0 -6200.94993835 0 -37129.10583604 0 -72.62449549 0 12154.51563542 0 238
0.01650000 0.01653350 76187.10733753 0 -2188.04886804 0 -25028.20810461 0 -7834.38509933 0 17170.31880460 0 315
0.01750000 0.01747870 78266.74012927 0 -4147.41793761 0 -28152.88419481 0 -17790.01587940 0 13380.30859764 0 297
0.01850000 0.01844180 79487.13757913 0 -924.62895157 0 -7754.07064986 0 -16168.66441796 0 26871.22519846 0 388
0.01950000 0.01947590 84030.04657206 0 -109.43740183 0 349.79893416 0 -14134.78107470 0 12802.31433705 0 399
0.02050000 0.02045430 83228.92539446 0 2515.07311976 0 5130.18803102 0 -7105.68743439 0 20059.05363596 0 462
0.02150000 0.02154770 82356.65089774 0 2667.31649326 0 12071.55963303 0 4209.06166622 0 36240.30758274 0 571
0.02250000 0.02255340 79091.46667340 0 3913.23022028 0 17472.46749625 0 3569.78337785 0 20608.15942417 0 510
0.02350000 0.02348930 80789.02974679 0 2220.72543972 0 13157.74371316 0 9599.59440882 0 31754.95072156 0 555
0.02450000 0.02439640 71824.72319534 0 3113.64901183 0 29133.06893855 0 5767.94883155 0 14266.29668825 0 592
0.02550000 0.02547300 74143.21981511 0 3830.61143741 0 16491.15868744 0 -5299.56215624 0 26388.10203005 0 837
0.02650000 0.02652900 69577.04267517 0 1361.58002304 0 27972.02212455 0 -432.88870030 0 14760.66050740 0 723
0.02750000 0.02749970 70004.63702897 0 1508.55153135 0 21149.73397639 0 -2992.08137418 0 7005.76929004 0 826
0.02850000 0.02848090 67884.20067508 0 222.60647488 0 15577.85581554 0 -793.36400453 0 2098.96671100 0 831
0.02950000 0.02946900 67474.02932991 0 1944.61009516 0 11706.35089078 0 3777.24082774 0 -4754.42431774 0 996
0.03050000 0.03053250 63789.68123981 0 3648.55785817 0 9447.95803046 0 -4518.91020362 0 -1609.06543019 0 1041
0.03150000 0.03150510 59741.47328555 0 2969.30781580 0 7194.21879955 0 -407.13861761 0 -15440.94468964 0 1036
0.03250000 0.03246190 60729.97611083 0 3633.56283009 0 18477.38167160 0 -7968.33993409 0 -1298.65486025 0 1059
0.03350000 0.03345080 55472.16173141 0 2929.67328132 0 10913.96369880 0 -8231.22503274 0 -10709.41757744 0 1302
0.03450000 0.03451200 56454.03257276 0 2612.78809656 0 26405.18781916 0 -5166.27051987 0 3239.33072766 0 1339
0.03550000 0.03553350 54776.36545116 0 831.70024385 0 24481.80007258 0 -419.51120187 0 -4593.78417814 0 1365
0.03650000 0.03647120 55410.90018493 0 1532.61776457 0 29006.94883735 0 8633.02209311 0 4725.31103234 0 1308
0.03750000 0.03744890 54162.96314077 0 87.26993933 0 21156.70317984 0 8362.86429345 0 317.51016494 0 1579
0.03850000 0.03847530 52723.14818864 0 1678.66753952 0 19671.13877923 0 9961.12745828 0 2518.20926131 0 1662
0.03950000 0.03950240 49205.72376190 0 2396.45053259 0 16993.84058813 0 5435.19184796 0 3000.73667524 0 1683
0.04050000 0.04050350 47494.10987509 0 3477.22785973 0 11780.08955957 0 4693.32014036 0 3897.69564097 0 1822
0.04150000 0.04152450 43752.32205976 0 898.42924285 0 14466.71749079 0 -2198.69376428 0 3683.47131934 0 1887
0.04250000 0.04250150 43601.58493346 0 865.88081459 0 9572.89786334 0 -383.23424976 0 -731.04583688 0 1920
0.04350000 0.04349210 44017.93863653 0 -601.75025184 0 17411.09354326 0 -2121.38056856 0 1474.14389947 0 2005
0.04450000 0.04448520 44630.32928836 0 -761.84297175 0 12966.98987026 0 -2638.59663064 0 -4481.70364970 0 2151
0.04550000 0.04548030 46409.04986003 0 -196.70239527 0 17380.40656677 0 -2178.80905314 0 -1503.88666130 0 2274
0.04650000 0.04648670 46068.00851685 0 1345.85435267 0 16415.39670151 0 -1101.68156530 0 -7360.68159622 0 2311
0.04750000 0.04749250 43937.23076428 0 1753.35042297 0 12399.78663437 0 -900.29856306 0 -12102.58382904 0 2568
0.04850000 0.04851840 41259.48294715 0 1458.95778033 0 13020.15814821 0 -663.55134956 0 -13328.26438475 0 2493
0.04950000 0.04949480 40297.50805759 0 1584.01001971 0 11391.27545079 0 -1808.93544084 0 -17738.64610556 0 2644
0.05050000 0.05050630 38719.65791448 0 591.94053595 0 10694.26518026 0 609.73448606 0 -19807.48787260 0 2829
0.05150000 0.05149060 37669.89354271 0 718.18878057 0 8614.56494461 0 281.52097349 0 -19075.72151001 0 2784
0.05250000 0.05249300 36349.11708182 0 813.95575260 0 7953.15381495 0 1571.22939983 0 -17378.15843662 0 3055
0.05350000 0.05348950 36266.27348593 0 496.00945042 0 7268.87920170 0 2418.26863566 0 -17057.35026476 0 3009
0.05450000 0.05448610 35923.88326467 0 928.80822551 0 6823.32228803 0 2758.56809589 0 -13437.52350986 0 3336
0.05550000 0.05550870 35729.42000702 0 361.90286687 0 7064.31059905 0 971.04834283 0 -11440.95912702 0 3349
0.05650000 0.05647670 36327.31021940 0 11.26436850 0 8347.36343609 0 1741.60394296 0 -7151.09966334 0 3324
0.05750000 0.05747970 35649.27416731 0 -253.00007039 0 8614.50874136 0 -62.08964522 0 -5496.91426112 0 3639
0.05850000 0.05849280 37428.21955200 0 -308.99762014 0 9237.02721949 0 682.31311970 0 -3035.87494943 0 3846
0.05950000 0.05951020 36597.19824345 0 586.47083530 0 9384.30222537 0 331.10011167 0 -1660.68249835 0 3787
0.06050000 0.06049470 36395.65337585 0 1395.36941914 0 9926.70858574 0 1104.55467563 0 159.79484266 0 3930
0.06150000 0.06148310 34786.10459768 0 1480.82084600 0 9079.30964909 0 1857.00046336 0 98.23710503 0 4083
0.06250000 0.06249100 33533.67129323 0 831.20228302 0 7221.07271414 0 1868.47716776 0 1177.45816407 0 4303
0.06350000 0.06350600 32639.70234059 0 -25.94634446 0 7243.61021886 0 2246.47777054 0 2543.91662953 0 4470
0.06450000 0.06451750 32497.73292186 0 -419.23692999 0 6296.34934111 0 2169.96266101 0 -1071.45882768 0 4479
0.06550000 0.06550280 33601.90204317 0 31.00834670 0 5413.30630098 0 468.94196346 0 -806.94046248 0 4636
0.06650000 0.06648880 32667.12952838 0 107.37575408 0 3547.67301786 0 -613.73390959 0 -1956.83992316 0 4653
0.06750000 0.06749660 32868.56198948 0 680.39096842 0 4892.08856724 0 -1069.14774989 0 -2420.50552516 0 5220
0.06850000 0.06852730 31737.41530642 0 851.51189076 0 4851.93696283 0 -1132.05717577 0 -3389.97792875 0 5029
0.06950000 0.06949320 31960.54222343 0 1400.15793635 0 5910.66013323 0 -1133.22620344 0 -3297.32124478 0 5040
0.07050000 0.07048030 30019.28184218 0 1247.33004902 0 7307.78309388 0 -1306.41090926 0 -3143.05455415 0 5475
0.07150000 0.07148790 29928.23257126 0 1241.84461146 0 7186.45150989 0 -973.52690631 0 -2783.07271449 0 5509
0.07250000 0.07249820 28571.82324756 0 523.08817803 0 8662.15785981 0 -50.35968897 0 -3323.75925530 0 5916
0.07350000 0.07351270 29019.76317919 0 -354.24461153 0 9343.93704860 0 141.67603775 0 -1769.05361204 0 5721
0.07450000 0.07449140 29038.64747241 0 -552.85904149 0 7752.65432786 0 2287.03403838 0 -2186.62130540 0 6028
0.07550000 0.07549160 29474.33509475 0 -80.62817603 0 7642.51843200 0 1535.97871914 0 -1263.80884299 0 6183
0.07650000 0.07648840 28784.27154637 0 1050.46691244 0 6223.38627721 0 90.23600984 0 -1564.13654922 0 6330
0.07750000 0.07749960 28108.48362442 0 1793.16480786 0 5594.56179402 0 -1059.12221350 0 -544.50049360 0 6583
0.07850000 0.07848650 26426.09542952 0 1424.42650128 0 7576.96295694 0 -620.53675141 0 -928.58228843 0 6549
0.07950000 0.07947320 25934.54177305 0 1245.25052863 0 7929.25619150 0 -1055.53419779 0 241.69197576 0 6828
0.08050000 0.08048110 25312.93378763 0 116.42616401 0 9582.50861971 0 -339.66099127 0 473.19542569 0 7147
0.08150000 0.08149960 25300.79388484 0 -49.35578645 0 8698.84734380 0 170.92645908 0 309.97668082 0 7386
0.08250000 0.08250610 25932.29364290 0 -576.34525713 0 9691.11578707 0 1655.30946730 0 421.36366111 0 7227
0.08350000 0.08350160 25689.49558711 0 -416.08729965 0 7397.01137939 0 1461.68925846 0 -393.08555606 0 7798
0.08450000 0.08449610 25903.96720306 0 149.86260368 0 8077.45293074 0 1229.35624850 0 999.23090234 0 7371
0.08550000 0.08548940 25346.65573982 0 494.34808224 0 5392.51109713 0 1513.10399490 0 -1379.16040079 0 8256
0.08650000 0.08650700 24398.61925717 0 1064.10406990 0 6540.23774002 0 542.62892526 0 646.97026567 0 8037
0.08750000 0.08749060 24018.46044945 0 778.48700329 0 5251.66574347 0 720.57404665 0 -277.14386410 0 8155
0.08850000 0.08849210 22687.90462242 0 624.79133771 0 6587.35854788 0 822.13107788 0 988.19932771 0 8718
0.08950000 0.08949900 22533.57048788 0 474.38019028 0 5760.28270775 0 362.94487519 0 756.22714264 0 8571
0.09050000 0.09049190 21963.10746328 0 341.42577343 0 6626.40856852 0 848.97937215 0 1916.68831874 0 8932
0.09150000 0.09150830 21794.49770232 0 418.86823664 0 6204.08607991 0 644.15223453 0 2086.28725697 0 9285
0.09250000 0.09250820 21531.24166220 0 295.23681551 0 5144.53110135 0 723.22571616 0 2670.25030310 0 9204
0.09350000 0.09350330 21032.26917625 0 257.16023523 0 5728.73020115 0 1294.27100647 0 3543.55893969 0 9349
0.09450000 0.09448040 21065.20428289 0 438.46855932 0 4753.58126893 0 426.29268645 0 2342.22563347 0 9564
0.09550000 0.09549270 20650.31186441 0 342.28118695 0 5533.60374511 0 137.71483243 0 3629.67356494 0 10155
0.09650000 0.09649430 20135.26524792 0 689.43407193 0 5545.31650317 0 -1034.23990904 0 1732.38660936 0 9913
0.09750000 0.09749140 19872.68364684 0 787.89542795 0 6212.68517772 0 -684.00708576 0 3135.43339295 0 10476
0.09850000 0.09850240 19166.32115491 0 622.09807780 0 6837.14828843 0 -420.62964661 0 2233.52854090 0 10575
0.09950000 0.09950330 18957.46986432 0 496.94354849 0 7193.11721578 0 -956.69740404 0 3159.65699528 0 10882
0.10050000 0.10051200 18609.34691119 0 235.94125884 0 7576.90675368 0 919.33235695 0 2330.19813719 0 10875
0.10150000 0.10150300 18641.04554625 0 -103.44051466 0 7400.43977786 0 1276.24100270 0 2583.59612661 0 11118
0.10250000 0.10250800 18373.74287186 0 34.93481841 0 5592.77453055 0 1706.76916634 0 2574.52492147 0 11575
0.10350000 0.10349800 18294.38387770 0 89.36272369 0 5908.88411041 0 1400.95602256 0 1839.49877017 0 11364
0.10450000 0.10450100 17821.82692097 0 253.06189397 0 4385.39375424 0 435.07500687 0 1273.49828392 0 12093
0.10550000 0.10551000 17738.53369906 0 322.71908249 0 4307.79954224 0 -27.25880284 0 1692.87572204 0 12067
0.10650000 0.10649700 17129.85246197 0 408.79773765 0 4473.30688360 0 -317.46857453 0 2371.06914324 0 12054
0.10750000 0.10749900 17031.15954855 0 320.97790569 0 4480.59082528 0 11.92194657 0 2209.11384751 0 12807
0.10850000 0.10850100 16775.88437045 0 94.49183261 0 4434.69524834 0 302.11159750 0 2835.99369813 0 12736
0.10950000 0.10950300 16557.81574627 0 287.03001642 0 4325.97567447 0 419.36057715 0 2114.35516185 0 12933
0.11050000 0.11050200 16428.43585636 0 354.28170567 0 4188.16529651 0 103.93892511 0 1589.45049466 0 13428
0.11150000 0.11150900 16075.02979738 0 322.77303761 0 4622.77381637 0 -330.02213327 0 2338.70730979 0 13453
0.11250000 0.11250000 15778.27661808 0 392.77306597 0 4427.07408715 0 -407.66468006 0 1821.44628510 0 13668
0.11350000 0.11349100 15483.77156893 0 233.63917357 0 4687.29515157 0 -117.13657314 0 1632.24365200 0 13791
0.11450000 0.11448600 15324.04192204 0 225.08054211 0 3862.17518466 0 -207.59458583 0 296.17990611 0 14205
0.11550000 0.11549300 15103.83757422 0 151.02825916 0 4364.53110648 0 236.81128521 0 430.51692300 0 14776
0.11650000 0.11649800 14889.81558430 0 255.81810153 0 3097.05781135 0 530.18102864 0 -481.41346544 0 14553
0.11750000 0.11747300 14506.17217485 0 26.48375997 0 3229.27034525 0 480.66821030 0 -312.95095700 0 14568
0.11850000 0.11849100 14635.32725175 0 42.25596663 0 2710.81781159 0 620.07925692 0 -265.24338717 0 16015
0.11950000 0.11950300 14716.93437606 0 38.86196455 0 3219.03011244 0 116.43178434 0 -557.01695819 0 15270
0.12050000 0.12050700 14662.64203303 0 191.76100521 0 2858.66609065 0 -253.21251869 0 258.22922111 0 15999
0.12150000 0.12150000 14618.01664962 0 153.03359125 0 3555.50775142 0 -550.31753036 0 131.59879437 0 15670
0.12250000 0.12250700 14659.71946384 0 164.00109417 0 3698.50006937 0 -592.89486720 0 1163.84573604 0 16887
0.12350000 0.12352200 14628.13323528 0 140.09785039 0 4594.67218955 0 -175.33167010 0 474.67806752 0 16407
0.12450000 0.12449800 14717.72122161 0 249.87516949 0 4633.58732238 0 -218.23161362 0 1079.51500206 0 16306
0.12550000 0.12549900 14074.86840630 0 425.51708155 0 4656.10234579 0 100.71218392 0 432.23899069 0 17523
0.12650000 0.12650100 13906.03383232 0 596.67397397 0 5183.31134638 0 -101.39550307 0 1426.51726232 0 17154
0.12750000 0.12750600 13410.77076112 0 369.86461978 0 4276.92147468 0 348.21063021 0 649.63092770 0 18007
0.12850000 0.12850300 13104.12580917 0 200.52758872 0 4556.04931363 0 556.35038761 0 1522.82715778 0 17496
0.12950000 0.12949900 13020.72018075 0 113.94984866 0 4328.02147291 0 360.11560340 0 716.35992670 0 18405
0.13050000 0.13049000 12790.96127981 0 34.77756170 0 4249.74158122 0 768.38840267 0 1209.35913085 0 18100
0.13150000 0.13148800 12882.79739628 0 187.07477792 0 4106.45700635 0 289.90987113 0 2085.00582279 0 19059
0.13250000 0.13249300 12622.68873837 0 217.63473506 0 3970.35520730 0 507.47491416 0 1557.93171001 0 18957
0.13350000 0.13349100 12500.50286492 0 187.86387160 0 4423.35343176 0 151.95224065 0 2541.42120507 0 19468
0.13450000 0.13450700 12339.42433995 0 182.94608691 0 4381.20099151 0 196.17183656 0 2189.55511524 0 19953
0.13550000 0.13551000 12218.36253157 0 18.94454312 0 4302.52767705 0 148.32600672 0 2644.19447470 0 19956
0.13650000 0.13649900 12232.63815800 0 100.00660827 0 4270.21080620 0 -163.94489091 0 2179.31488242 0 19723
0.13750000 0.13749600 12210.60648257 0 -38.50147688 0 4196.16863983 0 451.97869744 0 1563.92297685 0 20946
0.13850000 0.13851100 12184.75298589 0 -20.93211498 0 3515.19877790 0 579.96249853 0 1738.58020791 0 20955
0.13950000 0.13949800 12054.24903090 0 235.05661963 0 3141.93048907 0 511.98016697 0 865.73018987 0 20506
0.14050000 0.14048300 11808.41599941 0 146.21501251 0 2925.90766332 0 509.85006366 0 525.92531827 0 21447
0.14150000 0.14148400 11614.96440033 0 169.19202667 0 2311.85339519 0 323.81504593 0 414.17076870 0 21771
0.14250000 0.14249400 11525.15160099 0 61.39081397 0 2141.80483093 0 135.78706083 0 578.46749198 0 22470
0.14350000 0.14350900 11649.81041760 0 -66.99349151 0 2041.30217275 0 20.27835873 0 415.07564109 0 22519
0.14450000 0.14449900 11549.76862609 0 36.52728140 0 2215.09387370 0 -126.58771227 0 440.10857027 0 22218
0.14550000 0.14550500 11757.04622557 0 75.32270130 0 1945.75664153 0 -542.12534410 0 140.98810992 0 23559
0.14650000 0.14650700 11546.62124389 0 168.83682211 0 2304.64813807 0 -349.50330505 0 -216.84676545 0 23044
0.14750000 0.14750500 11395.54689806 0 189.47802905 0 1872.56876463 0 -170.49594216 0 -407.42188201 0 23649
0.14850000 0.14849900 11226.81348994 0 165.61300348 0 2212.66589314 0 206.99545915 0 -1059.53362132 0 23640
0.14950000 0.14949500 11056.47266876 0 179.24678875 0 1379.08171623 0 211.82781490 0 -1077.01508133 0 24457
0.15050000 0.15050000 10742.16159302 0 266.26179013 0 1518.38710074 0 343.38614292 0 -1400.48391522 0 24591
0.15150000 0.15149900 10510.63790992 0 360.21789333 0 1429.09137134 0 169.66525807 0 -964.74458590 0 25020
0.15250000 0.15250500 10253.57546835 0 332.38941431 0 1376.99095520 0 17.54463247 0 -1193.98192065 0 25297
0.15350000 0.15350100 9999.94142526 0 324.17025050 0 1913.10255116 0 -116.20697132 0 -223.99132305 0 25452
0.15450000 0.15450400 9880.28469823 0 152.83575579 0 2086.90549276 0 -195.82562451 0 -171.96734334 0 26061
0.15550000 0.15549900 9868.85295643 0 -55.75846111 0 2514.53356852 0 60.07756874 0 194.09906056 0 26128
0.15650000 0.15649500 9944.37888869 0 -78.59744007 0 2568.92707741 0 234.43838384 0 516.88221476 0 26331
0.15750000 0.15749700 10042.34115981 0 -10.91061398 0 2688.86482071 0 57.36666101 0 411.05935658 0 27345
0.15850000 0.15849900 10105.61478278 0 124.46322928 0 2561.39584142 0 40.80266290 0 650.69541732 0 26980
0.15950000 0.15949700 9968.04045848 0 254.01285302 0 3030.25462406 0 -139.37732467 0 858.28325876 0 27777
0.16050000 0.16050000 9823.60933724 0 326.41725658 0 2823.11191239 0 -286.00374500 0 1093.36348376 0 28224
0.16150000 0.16150500 9636.91336925 0 136.59751175 0 3308.28087924 0 -19.46329915 0 1049.16074882 0 28075
0.16250000 0.16249700 9475.71119712 0 181.22626735 0 3476.86815890 0 -332.02746536 0 1422.77412562 0 28590
0.16350000 0.16349900 9507.67960779 0 167.25975881 0 3779.32034812 0 27.53408637 0 1581.30102288 0 29163
0.16450000 0.16449100 9322.83834717 0 246.17924353 0 4064.65302628 0 -26.06144872 0 1782.46370837 0 28996
0.16550000 0.16550500 9066.58523246 0 319.01753620 0 3854.73387388 0 43.89226816 0 1590.10245241 0 30777
0.16650000 0.16650700 8756.44443814 0 233.53126333 0 3986.90144517 0 286.30162225 0 1414.02889936 0 29211
0.16750000 0.16749900 8616.43089264 0 100.68756689 0 3467.49345619 0 486.17500509 0 1562.65278332 0 30922
0.16850000 0.16850800 8477.95731628 0 -88.60499142 0 2791.15474236 0 664.00547185 0 717.33336705 0 30867
0.16950000 0.16949900 8559.99158532 0 -131.63026819 0 2390.29065599 0 506.00014079 0 592.03720555 0 30852
0.17050000 0.17049200 8615.35179017 0 -94.80151254 0 2092.51457748 0 287.38634504 0 302.06551083 0 31257
0.17150000 0.17149500 8784.61350887 0 23.79994220 0 1872.65868983 0 -37.58255369 0 353.57579281 0 32608
0.17250000 0.17250900 8608.59615908 0 68.42285266 0 2071.58448582 0 -260.87414623 0 488.16010401 0 32361
0.17350000 0.17350400 8759.23211952 0 168.87054406 0 2132.27275911 0 -275.53757511 0 311.24125403 0 32508
0.17450000 0.17449800 8475.92275850 0 153.73838005 0 2479.04683416 0 -292.62561235 0 229.67009980 0 32791
0.17550000 0.17549800 8562.64437889 0 137.50350820 0 2713.02097913 0 -83.47206067 0 626.30994962 0 33633
0.17650000 0.17650100 8469.49310628 0 21.95141719 0 2636.69696067 0 284.36598219 0 638.85563991 0 33984
0.17750000 0.17750300 8391.92137559 0 23.15978714 0 2500.25794209 0 488.87163720 0 849.82804128 0 34069
