### header ###
fiducial parameters:
Omega_m = 0.31
Omega_nu = 0
Omega_de = 0.69
Omega_k = 0
H_0 = 100
w_de = -1
zeff = 0
beta = 0
fgrowth = 0
b_1 = 2
gamma = 0.55
Lx = 3500 Ly = 3500 Lz = 3500
nx = 700 ny = 700 nz = 700
xoffset = 857.220397 yoffset = 15.9954215 zoffset = 262.898189
bins = 400 dk = 0.001
kx_ny = 0.628318531 ky_ny = 0.628318531 kz_ny = 0.628318531
############################
A(data) = 3.0430844 (not used)
A(ran) = 3.03619505 (used)
Ngal = 185114
weighted Ngal = 0
Nran = 9360983
weighted Nran = 0
SN(data) = 3461.43194
SN(ran) = 68.1815302
SN(data+ran) = 3529.61347
############################
13 columns: k_central k_mean P_0(k) sigma^{lin}_{P_0(k)} P^img_1(k) sigma^{lin}_{P_1(k)} P_2(k) sigma^{lin}_{P_2(k)} P^img_3(k) sigma^{lin}_{P_3(k)} P_4(k) sigma^{lin}_{P_4(k)} N_modes
### header ###
0.00050000 0 0 0 0 0 0 0 0 0 0 0 0
0.00150000 0.00179520 49767.08185940 0 -47734.77220724 0 -28339.36659044 0 84945.93479362 0 -16000.16706351 0 3
0.00250000 0.00253879 86352.36501308 0 -51467.23028247 0 1303.13987989 0 -66240.81753821 0 34521.94930550 0 6
0.00350000 0.00331552 99779.09749824 0 -19219.60183937 0 -18738.16476856 0 -34975.84678202 0 217.51783230 0 7
0.00450000 0.00420575 109690.76609330 0 9454.51132984 0 2973.52305982 0 -61931.26445445 0 28295.30323957 0 24
0.00550000 0.00557378 79401.14660104 0 24587.23737643 0 27585.11892639 0 -32145.78814747 0 30288.83264671 0 45
0.00650000 0.00659388 75278.07591291 0 18712.64849140 0 24427.84494907 0 21978.95678081 0 -19231.17970962 0 40
0.00750000 0.00754703 55033.21432037 0 2127.04585652 0 25703.09677450 0 26467.57343071 0 -30368.30404738 0 57
0.00850000 0.00846663 62934.49253220 0 -1947.42025784 0 28786.29486350 0 10301.05597704 0 -28005.51926373 0 75
0.00950000 0.00948925 65140.80745767 0 -3279.79707029 0 30058.17449371 0 -8417.26904298 0 -13030.38714038 0 112
0.01050000 0.01054430 60480.54607111 0 2720.91191594 0 15328.87540185 0 -3811.89575394 0 -20386.26897874 0 105
0.01150000 0.01145670 71760.98870569 0 -2530.83251208 0 43285.83505442 0 -18791.67026604 0 3177.91181206 0 144
0.01250000 0.01249090 70288.91308596 0 -2272.78089325 0 43591.58075431 0 1962.47148917 0 -1662.48100246 0 169
0.01350000 0.01339930 84623.44052415 0 1053.12532634 0 85010.23131580 0 7768.57108930 0 40825.25660941 0 180
0.01450000 0.01448870 78903.74780619 0 2411.16454440 0 66152.91564949 0 24512.48704907 0 30130.33947141 0 267
0.01550000 0.01550050 82936.89328847 0 1672.00183363 0 87412.80800305 0 22770.07377926 0 34841.18378626 0 238
0.01650000 0.01653350 77733.70847160 0 3489.60381618 0 65172.84331226 0 35852.50513253 0 49153.11751648 0 315
0.01750000 0.01747870 77251.82177477 0 -694.59353062 0 76999.69397887 0 38054.21139120 0 42356.12083246 0 297
0.01850000 0.01844180 79321.11316783 0 -3672.56788813 0 48565.11907674 0 17678.39621764 0 34893.67762517 0 388
0.01950000 0.01947590 79591.56322442 0 -2530.24799824 0 38613.09654555 0 13654.13084944 0 3117.83053391 0 399
0.02050000 0.02045430 82439.83171315 0 -1003.80584719 0 32248.19047563 0 -7401.10297625 0 7197.63595737 0 462
0.02150000 0.02154770 76374.82620473 0 3592.34336386 0 25823.48414383 0 -10942.66108011 0 -12454.97822946 0 571
0.02250000 0.02255340 77601.40601250 0 4355.66223305 0 28323.29245989 0 -10853.60140437 0 -25927.79738261 0 510
0.02350000 0.02348930 75231.31480587 0 50.71050968 0 28272.48471859 0 791.41150350 0 -34060.07096696 0 555
0.02450000 0.02439640 75858.20589714 0 170.82079696 0 24355.90478439 0 -941.19092636 0 -36291.00291754 0 592
0.02550000 0.02547300 75505.02465117 0 888.51498890 0 26336.50744319 0 -2387.94135999 0 -32931.50963357 0 837
0.02650000 0.02652900 76015.12538134 0 3172.68490947 0 34497.66949992 0 -8200.13339281 0 -33822.21879749 0 723
0.02750000 0.02749970 72378.55005685 0 5839.00098482 0 32523.13679251 0 -3209.71161298 0 -26353.25601278 0 826
0.02850000 0.02848090 71331.70825427 0 4871.68678616 0 39244.82111663 0 -5231.94964209 0 -20068.49578258 0 831
0.02950000 0.02946900 64829.44143243 0 4520.76491099 0 39225.03757134 0 4921.10068677 0 -10597.85411894 0 996
0.03050000 0.03053250 63381.75802478 0 3289.01440389 0 45309.82662504 0 7715.85243737 0 -11251.10453617 0 1041
0.03150000 0.03150510 60564.96335810 0 2707.54678222 0 33762.19372259 0 8296.92663626 0 -11450.17646062 0 1036
0.03250000 0.03246190 56858.80840559 0 1941.27162189 0 33447.34309562 0 13317.13614053 0 -7321.29435606 0 1059
0.03350000 0.03345080 55771.94988641 0 347.37994613 0 31701.89485011 0 3650.33388098 0 -8613.11490067 0 1302
0.03450000 0.03451200 57031.46480082 0 783.68468018 0 25145.56049824 0 4716.67821258 0 -9517.85239671 0 1339
0.03550000 0.03553350 54119.23700943 0 -35.61656387 0 20913.00587199 0 4057.80746998 0 -10920.10109410 0 1365
0.03650000 0.03647120 56254.84824181 0 -1172.14133628 0 23156.63975790 0 2215.52101843 0 -859.58605018 0 1308
0.03750000 0.03744890 57269.76659631 0 -1156.15713094 0 17030.48510951 0 7710.56933153 0 -4620.21094801 0 1579
0.03850000 0.03847530 55938.76114326 0 919.92024298 0 21185.81646524 0 6808.48462906 0 2874.32431712 0 1662
0.03950000 0.03950240 55452.15337311 0 2693.48472816 0 14502.57516662 0 804.76989283 0 4411.76432085 0 1683
0.04050000 0.04050350 52355.24169022 0 4381.33587932 0 21807.98648320 0 4325.75086146 0 12364.49099108 0 1822
0.04150000 0.04152450 48758.34586281 0 4394.41999677 0 22184.21106316 0 -2901.15575042 0 17278.79108416 0 1887
0.04250000 0.04250150 46396.34792470 0 2254.78461143 0 24445.94239674 0 3140.17694756 0 14554.39456649 0 1920
0.04350000 0.04349210 45590.05604777 0 460.78012696 0 24656.81700446 0 -933.88899964 0 12176.32249784 0 2005
0.04450000 0.04448520 45370.86335851 0 36.44983331 0 23422.70596070 0 3413.23483512 0 8922.36768358 0 2151
0.04550000 0.04548030 46084.30746041 0 238.30179550 0 26541.76172554 0 -1501.17766447 0 11353.39445782 0 2274
0.04650000 0.04648670 44641.56993909 0 374.66887391 0 19747.35039119 0 3984.61959307 0 3342.63230787 0 2311
0.04750000 0.04749250 44370.44544346 0 1149.08676163 0 23279.05044436 0 2800.03485644 0 3749.43145783 0 2568
0.04850000 0.04851840 42495.16768200 0 1319.85472753 0 17651.64346890 0 2232.17966281 0 -1800.20145522 0 2493
0.04950000 0.04949480 41301.41057437 0 2125.01129874 0 20336.69770902 0 1519.11774304 0 -1906.03218185 0 2644
0.05050000 0.05050630 39521.34112461 0 1846.78271185 0 16416.74557960 0 383.12071919 0 -104.14069479 0 2829
0.05150000 0.05149060 37645.16411110 0 617.21513912 0 18542.91466536 0 3282.73088013 0 1223.26381580 0 2784
0.05250000 0.05249300 38011.83413795 0 57.25863835 0 15040.21549108 0 3665.32890906 0 1022.78681001 0 3055
0.05350000 0.05348950 36264.69979483 0 637.48877678 0 14025.97157562 0 4281.11423741 0 2032.69183429 0 3009
0.05450000 0.05448610 36567.97255155 0 1773.14520891 0 14852.60903038 0 2035.94038235 0 8907.36141485 0 3336
0.05550000 0.05550870 35274.39846543 0 1871.87184428 0 14987.83405867 0 2311.31384396 0 11370.81746646 0 3349
0.05650000 0.05647670 33499.94934104 0 174.17051088 0 13737.19925834 0 3709.04379975 0 12993.40539947 0 3324
0.05750000 0.05747970 34252.73572049 0 -71.16433496 0 13601.52460402 0 2618.02623980 0 13899.51425490 0 3639
0.05850000 0.05849280 34982.47876595 0 -754.54441723 0 14851.37255880 0 1927.45686214 0 15176.90180397 0 3846
0.05950000 0.05951020 35721.77636452 0 10.45688512 0 13845.10950536 0 -360.98675384 0 16941.34674921 0 3787
0.06050000 0.06049470 34946.62109011 0 95.80249249 0 11582.92854575 0 -191.37994715 0 13774.29340576 0 3930
0.06150000 0.06148310 35366.90902095 0 -325.78890420 0 12702.49735856 0 926.33865455 0 12390.00726823 0 4083
0.06250000 0.06249100 36158.70045844 0 -23.51476689 0 11183.13232120 0 -383.79515823 0 7444.15466855 0 4303
0.06350000 0.06350600 35131.97942067 0 -90.26883254 0 9940.52334549 0 -1505.31422394 0 2522.17721102 0 4470
0.06450000 0.06451750 35302.83731178 0 563.99178197 0 8474.64132431 0 -143.14406673 0 837.89946272 0 4479
0.06550000 0.06550280 33495.79030027 0 494.49083850 0 8858.83552565 0 764.12482385 0 -2534.86790570 0 4636
0.06650000 0.06648880 34227.10703682 0 851.14319742 0 6107.51764948 0 735.72082351 0 -2572.08570027 0 4653
0.06750000 0.06749660 31867.69444839 0 885.94537614 0 6133.83201284 0 1929.13171910 0 -5169.55278988 0 5220
0.06850000 0.06852730 31926.59545822 0 1167.37530037 0 7110.54339551 0 544.13180026 0 -1111.07425305 0 5029
0.06950000 0.06949320 30112.35443024 0 1076.17315659 0 5016.28651716 0 887.31448740 0 -1763.84919075 0 5040
0.07050000 0.07048030 30145.62675640 0 801.73266900 0 7464.32039596 0 215.32590540 0 2316.03491726 0 5475
0.07150000 0.07148790 30214.08231935 0 -169.03353350 0 7043.79641147 0 -121.22030155 0 2786.57979751 0 5509
0.07250000 0.07249820 30325.47716810 0 -2.39338183 0 7352.45343989 0 1113.94061899 0 3694.93678309 0 5916
0.07350000 0.07351270 30344.36146133 0 285.60132971 0 7955.76164592 0 41.70753529 0 3356.62691803 0 5721
0.07450000 0.07449140 29883.83200088 0 866.25063200 0 7198.96235416 0 807.84758300 0 3792.74168510 0 6028
0.07550000 0.07549160 29251.77021027 0 1254.89500696 0 9070.47449761 0 679.55466401 0 5445.09486125 0 6183
0.07650000 0.07648840 27442.69988163 0 1517.82506821 0 7881.25861288 0 1223.76964508 0 4892.75176563 0 6330
0.07750000 0.07749960 26816.37082290 0 968.09317575 0 7938.24871208 0 2168.14167560 0 5248.46215801 0 6583
0.07850000 0.07848650 25112.28817208 0 694.37096574 0 6291.36973283 0 1923.45519048 0 5741.31972996 0 6549
0.07950000 0.07947320 24969.64431430 0 593.71093844 0 5920.04607659 0 1305.77019217 0 7175.58180064 0 6828
0.08050000 0.08048110 23836.47431411 0 311.73696672 0 6107.93355356 0 53.57946096 0 5846.77951512 0 7147
0.08150000 0.08149960 24121.53721665 0 468.10903124 0 6551.45590945 0 -469.84908397 0 7560.49540362 0 7386
0.08250000 0.08250610 23585.80780281 0 252.53470745 0 6514.87883197 0 -1032.94386201 0 5343.50185994 0 7227
0.08350000 0.08350160 24121.42481014 0 60.53247788 0 7599.80395922 0 -992.80574638 0 5867.74332874 0 7798
0.08450000 0.08449610 23739.80471782 0 142.26279972 0 7555.06616931 0 -785.08638933 0 4054.94110405 0 7371
0.08550000 0.08548940 23751.15777506 0 413.21081713 0 7863.10496195 0 -580.45034277 0 2065.99788240 0 8256
0.08650000 0.08650700 23071.66043837 0 352.20443342 0 6852.05339130 0 -368.99571748 0 1006.98470322 0 8037
0.08750000 0.08749060 23272.98049297 0 392.31781962 0 8683.77363116 0 260.71115679 0 953.97267030 0 8155
0.08850000 0.08849210 22498.61206411 0 297.80305608 0 7121.70536168 0 520.19933079 0 441.68900576 0 8718
0.08950000 0.08949900 22412.28386649 0 136.48173305 0 7170.87196798 0 1277.73600924 0 -37.78162561 0 8571
0.09050000 0.09049190 22084.61889769 0 400.51562620 0 6136.54100967 0 644.01397453 0 -149.04203617 0 8932
0.09150000 0.09150830 21885.20975372 0 481.18415617 0 7043.03204722 0 111.21331223 0 -590.84794470 0 9285
0.09250000 0.09250820 21349.25552686 0 611.73981815 0 6807.18071358 0 -479.91508670 0 -630.79609333 0 9204
0.09350000 0.09350330 20529.69968207 0 839.49338700 0 6373.93231245 0 -471.67906191 0 -582.56358511 0 9349
0.09450000 0.09448040 20085.69397819 0 840.90184053 0 6270.33847532 0 -367.24779629 0 -1290.44918522 0 9564
0.09550000 0.09549270 19098.42762449 0 721.72508929 0 6336.80444309 0 244.87195585 0 -471.86790484 0 10155
0.09650000 0.09649430 18738.95161411 0 665.95460069 0 5881.62553239 0 1273.97039125 0 -1476.67304588 0 9913
0.09750000 0.09749140 18220.53280240 0 307.02601000 0 5866.32700674 0 1191.27292382 0 423.78040101 0 10476
0.09850000 0.09850240 17710.88169826 0 168.11854453 0 4455.87263432 0 1248.65644580 0 -527.60804369 0 10575
0.09950000 0.09950330 17764.49960224 0 -5.82608548 0 5220.12447752 0 895.62470049 0 813.04975615 0 10882
0.10050000 0.10051200 17577.23036107 0 136.98419013 0 3947.00837573 0 578.10779116 0 325.84510746 0 10875
0.10150000 0.10150300 17390.18593290 0 66.67897810 0 4344.89368965 0 297.24889200 0 842.80038644 0 11118
0.10250000 0.10250800 17160.20221895 0 215.50013549 0 3813.87410847 0 560.73424139 0 1041.74641560 0 11575
0.10350000 0.10349800 17130.07727499 0 155.24013099 0 3708.22323225 0 698.97176408 0 375.68615280 0 11364
0.10450000 0.10450100 16790.60962291 0 227.54224462 0 3122.12446248 0 551.82602569 0 450.68939480 0 12093
0.10550000 0.10551000 16470.02626406 0 244.26158851 0 3601.24595924 0 -245.80380579 0 399.39942958 0 12067
0.10650000 0.10649700 16461.37096300 0 244.70109796 0 3563.07270936 0 -312.38105601 0 1304.47751733 0 12054
0.10750000 0.10749900 16233.74778570 0 294.22628101 0 3672.74773854 0 -479.93419581 0 1412.00558222 0 12807
0.10850000 0.10850100 16021.86151942 0 241.65488161 0 4617.18721296 0 -210.42273355 0 2070.80888092 0 12736
0.10950000 0.10950300 15756.80697518 0 284.89092058 0 4273.70664857 0 46.83417127 0 1755.55359052 0 12933
0.11050000 0.11050200 15843.80961184 0 70.01880025 0 4832.41195251 0 366.37552180 0 2114.62493747 0 13428
0.11150000 0.11150900 15766.69874782 0 252.78312583 0 3697.79190837 0 497.26390704 0 1758.81337923 0 13453
0.11250000 0.11250000 15692.39804649 0 85.96411294 0 4400.54615142 0 239.92719359 0 1484.60894530 0 13668
0.11350000 0.11349100 15509.62506561 0 122.01613962 0 3697.03878477 0 487.97912953 0 1803.51744718 0 13791
0.11450000 0.11448600 15640.46624012 0 85.05519392 0 3874.47245656 0 375.49730986 0 1457.35036727 0 14205
0.11550000 0.11549300 15500.18291899 0 68.70499299 0 3605.97827320 0 105.36300316 0 1375.24865433 0 14776
0.11650000 0.11649800 15431.50254303 0 208.57252244 0 3482.27491191 0 24.75191291 0 709.44805056 0 14553
0.11750000 0.11747300 15183.87100742 0 419.19533958 0 3844.43743781 0 -259.21390212 0 1102.97536420 0 14568
0.11850000 0.11849100 14815.06525694 0 442.30948968 0 3848.16933385 0 -106.64972044 0 996.69276341 0 16015
0.11950000 0.11950300 14525.05646808 0 377.14743739 0 3945.88431065 0 67.31935798 0 1008.84053465 0 15270
0.12050000 0.12050700 14178.28239303 0 266.05271402 0 4022.74788035 0 90.26253778 0 1372.32608514 0 15999
0.12150000 0.12150000 13839.48918000 0 201.13121166 0 3887.21935449 0 602.22685543 0 996.13297900 0 15670
0.12250000 0.12250700 13758.78130775 0 149.29832301 0 4009.03428646 0 783.74650376 0 1664.05469357 0 16887
0.12350000 0.12352200 13496.08730016 0 -9.15651044 0 3738.84276484 0 691.14040272 0 1383.24075700 0 16407
0.12450000 0.12449800 13575.55870083 0 75.26930821 0 3368.39587935 0 513.97425841 0 1774.46036504 0 16306
0.12550000 0.12549900 13284.65065991 0 105.23980562 0 3093.37087792 0 742.05717833 0 1538.89004768 0 17523
0.12650000 0.12650100 13051.18234423 0 296.24510189 0 2410.62499317 0 -65.70666182 0 1864.39681154 0 17154
0.12750000 0.12750600 12981.04068367 0 319.78302452 0 2693.48472816 0 -163.35700488 0 1707.72462166 0 18007
0.12850000 0.12850300 12777.69731195 0 260.99217306 0 2515.21924822 0 -152.13883545 0 1500.86292625 0 17496
0.12950000 0.12949900 12628.98350278 0 110.40409779 0 2673.39768530 0 -224.77816860 0 1441.57973430 0 18405
0.13050000 0.13049000 12680.80290265 0 11.16396701 0 2503.73130317 0 71.24448080 0 1061.34111796 0 18100
0.13150000 0.13148800 12606.83942084 0 32.78268342 0 2799.79880277 0 63.00856842 0 1452.74170047 0 19059
0.13250000 0.13249300 12631.23163292 0 139.20646678 0 2798.59605315 0 -77.50867064 0 954.09406933 0 18957
0.13350000 0.13349100 12623.02595789 0 217.80671702 0 3272.08598389 0 -158.54600637 0 1403.15919010 0 19468
0.13450000 0.13450700 12604.25407117 0 80.77835113 0 3161.74775631 0 -1.34386476 0 1690.32409432 0 19953
0.13550000 0.13551000 12660.79454434 0 12.09786276 0 3483.32029242 0 -198.43120735 0 2119.76191485 0 19956
0.13650000 0.13649900 12587.39309507 0 11.43612565 0 3453.75738100 0 342.64313591 0 1868.57833362 0 19723
0.13750000 0.13749600 12590.31566426 0 137.00779550 0 3574.57189506 0 272.35534689 0 2043.64022810 0 20946
0.13850000 0.13851100 12300.86890794 0 312.33496934 0 3769.55222264 0 293.60579709 0 2264.19303609 0 20955
0.13950000 0.13949800 11973.65356516 0 504.65126270 0 3487.95144053 0 144.48957263 0 2438.73786064 0 20506
0.14050000 0.14048300 11569.32735837 0 383.34778033 0 3776.75747976 0 337.65341105 0 2526.13392008 0 21447
0.14150000 0.14148400 11302.69912303 0 276.54024115 0 3669.87013196 0 206.02426692 0 2466.40110209 0 21771
0.14250000 0.14249400 11172.07152088 0 55.14213623 0 3841.78464424 0 14.75020670 0 2711.61589779 0 22470
0.14350000 0.14350900 11208.33386014 0 0.93052805 0 3738.21328840 0 -275.50497722 0 2448.09008205 0 22519
0.14450000 0.14449900 11304.72244016 0 -26.30930507 0 3835.72593349 0 -347.61712386 0 2123.67366130 0 22218
0.14550000 0.14550500 11395.77171108 0 38.68829650 0 3955.10164425 0 -442.81644303 0 1525.55863591 0 23559
0.14650000 0.14650700 11293.59419593 0 113.52495206 0 3895.62736124 0 -463.41830769 0 621.71926787 0 23044
0.14750000 0.14750500 11135.58436861 0 237.09005335 0 3882.90294461 0 -73.51868926 0 504.39947212 0 23649
0.14850000 0.14849900 10983.89178699 0 169.61242701 0 3964.19533070 0 -14.39769990 0 -97.45644184 0 23640
0.14950000 0.14949500 10755.12206332 0 193.89223259 0 3346.95995841 0 55.71102556 0 -286.95133186 0 24457
0.15050000 0.15050000 10718.54498584 0 178.86910289 0 3816.74047441 0 211.71878058 0 -353.78037265 0 24591
0.15150000 0.15149900 10439.40590624 0 196.26850615 0 3180.74445605 0 182.13113973 0 -137.10446510 0 25020
0.15250000 0.15250500 10462.46048088 0 134.14817395 0 3827.56522106 0 84.57229556 0 144.68853214 0 25297
0.15350000 0.15350100 10319.13094341 0 124.08441935 0 3509.46604602 0 -100.64462760 0 -36.04685598 0 25452
0.15450000 0.15450400 10407.48245816 0 119.22845824 0 4024.38901536 0 78.37431316 0 726.18313137 0 26061
0.15550000 0.15549900 10241.15454929 0 53.68669677 0 3591.16309554 0 308.98075916 0 22.56335821 0 26128
0.15650000 0.15649500 10227.21614239 0 121.83404108 0 3630.50537310 0 311.88871551 0 378.34007043 0 26331
0.15750000 0.15749700 10076.51273804 0 71.78864071 0 3087.64938669 0 463.80611014 0 -183.77677100 0 27345
0.15850000 0.15849900 9935.98212260 0 125.11968329 0 3097.37254958 0 469.71307210 0 421.99426161 0 26980
0.15950000 0.15949700 9863.13146521 0 84.58747044 0 2616.83473083 0 523.35795364 0 242.02919528 0 27777
0.16050000 0.16050000 9733.15582081 0 30.16664677 0 2486.39821974 0 252.75952047 0 363.14833097 0 28224
0.16150000 0.16150500 9780.11925956 0 61.44701722 0 2549.35710449 0 145.24157216 0 341.51794677 0 28075
0.16250000 0.16249700 9603.21389836 0 115.62470561 0 2554.70765424 0 -54.74489163 0 383.65352603 0 28590
0.16350000 0.16349900 9605.69808217 0 180.60241123 0 2838.18562502 0 -133.70192012 0 774.84840464 0 29163
0.16450000 0.16449100 9298.87327982 0 228.30098854 0 2509.93614237 0 136.10179905 0 560.38915341 0 28996
0.16550000 0.16550500 9226.97807774 0 180.58330212 0 2480.54184071 0 244.85059861 0 562.66201299 0 30777
0.16650000 0.16650700 8950.88521449 0 149.68050513 0 1961.68464362 0 375.77045768 0 256.94553880 0 29211
0.16750000 0.16749900 8945.98429077 0 119.56230557 0 1862.09247814 0 516.02230498 0 409.29345035 0 30922
0.16850000 0.16850800 8642.86890315 0 80.33704318 0 1507.32630042 0 282.73159158 0 130.04533644 0 30867
0.16950000 0.16949900 8643.72319261 0 132.02931129 0 1561.92214102 0 282.62705352 0 622.81298318 0 30852
0.17050000 0.17049200 8533.10394877 0 98.95987887 0 1320.07954055 0 10.45191675 0 386.35915067 0 31257
0.17150000 0.17149500 8520.31208823 0 197.80959937 0 1478.15681178 0 51.52736776 0 888.71170029 0 32608
0.17250000 0.17250900 8308.71807887 0 123.45381885 0 1629.61333973 0 11.89946527 0 882.94075020 0 32361
0.17350000 0.17350400 8287.66434006 0 130.50507905 0 1682.87154289 0 -29.66834873 0 889.04667168 0 32508
0.17450000 0.17449800 8174.63959696 0 62.09504074 0 1683.37737217 0 -54.35113163 0 592.95893891 0 32791
0.17550000 0.17549800 8161.63416406 0 66.64952760 0 1557.03245796 0 -165.29489306 0 124.31035643 0 33633
0.17650000 0.17650100 8051.73432186 0 40.84245481 0 1507.82088906 0 -196.60797381 0 -16.71023897 0 33984
0.17750000 0.17750300 7988.87660297 0 103.03259145 0 1578.14240003 0 -372.19705481 0 -567.62363622 0 34069
0.17850000 0.17849800 8053.12816255 0 96.07721399 0 1769.98658605 0 -404.90172811 0 -389.47730718 0 34536
