### header ###
fiducial parameters:
Omega_m = 0.31
Omega_nu = 0
Omega_de = 0.69
Omega_k = 0
H_0 = 100
w_de = -1
zeff = 0
beta = 0
fgrowth = 0
b_1 = 2
gamma = 0.55
Lx = 3500 Ly = 3500 Lz = 3500
nx = 700 ny = 700 nz = 700
xoffset = 857.220397 yoffset = 15.9954215 zoffset = 262.898189
bins = 400 dk = 0.001
kx_ny = 0.628318531 ky_ny = 0.628318531 kz_ny = 0.628318531
############################
A(data) = 3.05121025 (not used)
A(ran) = 3.052715 (used)
Ngal = 186354
weighted Ngal = 0
Nran = 9360983
weighted Nran = 0
SN(data) = 3437.90846
SN(ran) = 68.5525063
SN(data+ran) = 3506.46097
############################
13 columns: k_central k_mean P_0(k) sigma^{lin}_{P_0(k)} P^img_1(k) sigma^{lin}_{P_1(k)} P_2(k) sigma^{lin}_{P_2(k)} P^img_3(k) sigma^{lin}_{P_3(k)} P_4(k) sigma^{lin}_{P_4(k)} N_modes
### header ###
0.00050000 0 0 0 0 0 0 0 0 0 0 0 0
0.00150000 0.00179520 9317.49903808 0 -17751.12322787 0 -11563.03259396 0 29844.93934935 0 30688.32537369 0 3
0.00250000 0.00253879 20030.95200913 0 -20835.78260147 0 -6774.34677279 0 -23155.62809933 0 -31813.96413789 0 6
0.00350000 0.00331552 32099.47666646 0 -18211.87750134 0 -12020.86429823 0 1184.40488622 0 23127.86369203 0 7
0.00450000 0.00420575 48292.19607699 0 -19800.40626264 0 -18079.68744874 0 -13199.33412087 0 1374.51801204 0 24
0.00550000 0.00557378 60366.00384016 0 -12226.68061311 0 -24214.94702422 0 -18889.68874042 0 17134.57353528 0 45
0.00650000 0.00659388 82147.57479414 0 -16334.57642275 0 -45309.82662504 0 9992.12917300 0 -8843.70560977 0 40
0.00750000 0.00754703 70798.45178360 0 -8840.60319016 0 -39539.55097880 0 -2301.39959001 0 7363.50299956 0 57
0.00850000 0.00846663 87620.53522855 0 -12288.84141166 0 -64777.50962605 0 14683.77445640 0 18957.91949035 0 75
0.00950000 0.00948925 81657.37001576 0 -8759.50189514 0 -68543.12762093 0 8549.17807931 0 26799.39744029 0 112
0.01050000 0.01054430 90357.40886854 0 133.29725669 0 -53308.89849823 0 8885.66695894 0 19087.29938027 0 105
0.01150000 0.01145670 82515.59369907 0 5353.69713016 0 -62680.45382567 0 7056.97045412 0 51015.24371657 0 144
0.01250000 0.01249090 78581.81556926 0 9532.77998088 0 -27913.57074075 0 2421.09003900 0 54525.02450082 0 169
0.01350000 0.01339930 71059.57210008 0 10080.45820644 0 -33528.05096786 0 -9535.38781185 0 66012.07029583 0 180
0.01450000 0.01448870 64501.77646362 0 8916.54502650 0 12279.62407806 0 -6673.04602841 0 71681.06767899 0 267
0.01550000 0.01550050 60194.35910350 0 6200.30922126 0 20255.09058471 0 -15503.89233373 0 46651.62310280 0 238
0.01650000 0.01653350 63877.80794154 0 -795.78861289 0 42917.47892997 0 -7805.33925784 0 59922.78498184 0 315
0.01750000 0.01747870 64988.72145328 0 -1542.27348355 0 41528.92134517 0 -14949.95306571 0 42009.00953789 0 297
0.01850000 0.01844180 75595.73670257 0 -6693.49277208 0 36119.80780691 0 16654.37293605 0 36056.07331726 0 388
0.01950000 0.01947590 78546.63233247 0 -7249.81505806 0 36275.94044556 0 11152.59147316 0 8594.39921720 0 399
0.02050000 0.02045430 81809.34361365 0 -6141.26208297 0 9780.60260754 0 13135.15000519 0 -6348.89938328 0 462
0.02150000 0.02154770 81479.43051469 0 -39.97478898 0 3980.42683035 0 9734.43725499 0 -17914.33747649 0 571
0.02250000 0.02255340 75404.19601411 0 5901.31915247 0 -11330.80074985 0 -7138.65626298 0 -30151.24708177 0 510
0.02350000 0.02348930 73608.95168587 0 8699.28572917 0 -17370.06516809 0 -5510.52668916 0 -23832.20286683 0 555
0.02450000 0.02439640 59646.48978687 0 6132.50561605 0 -10411.70894283 0 -1303.08367664 0 -27505.64752572 0 592
0.02550000 0.02547300 57253.01802672 0 5672.04359951 0 -14615.09408043 0 -8773.82248417 0 -11466.02577815 0 837
0.02650000 0.02652900 52724.49706673 0 1368.11084112 0 -3333.86460030 0 -853.83083701 0 -11537.17909727 0 723
0.02750000 0.02749970 52328.03931545 0 2601.71605559 0 -2282.09939271 0 -8707.57008876 0 -2797.85417020 0 826
0.02850000 0.02848090 52199.10905156 0 1529.23432870 0 10926.71059673 0 -6441.81460222 0 -759.33293444 0 831
0.02950000 0.02946900 53423.66554220 0 577.64692448 0 14598.79513687 0 -4458.19944902 0 8076.93586080 0 996
0.03050000 0.03053250 53941.52232137 0 -1236.76383733 0 18285.27895061 0 916.39292678 0 4875.35123830 0 1041
0.03150000 0.03150510 57454.90011385 0 -3003.63676313 0 14924.54919506 0 1249.17351574 0 1283.19896550 0 1036
0.03250000 0.03246190 60256.18268252 0 -273.34452415 0 17124.90657565 0 -458.58595194 0 -1843.81518006 0 1059
0.03350000 0.03345080 59634.23747758 0 256.52064220 0 11722.53742783 0 3432.26525680 0 -2730.99477965 0 1302
0.03450000 0.03451200 57061.70215128 0 2275.81586895 0 10995.33476944 0 343.04330307 0 562.60580974 0 1339
0.03550000 0.03553350 56795.18632245 0 1528.64981486 0 10224.52962686 0 1464.93780652 0 -4053.01895277 0 1365
0.03650000 0.03647120 55030.17934467 0 -270.16454406 0 14934.21615469 0 4940.19855237 0 2170.38980574 0 1308
0.03750000 0.03744890 55841.07988840 0 220.60563905 0 11537.62872330 0 2118.48048067 0 -2873.04288294 0 1579
0.03850000 0.03847530 56715.26529575 0 -1.10758066 0 15699.36724995 0 3071.26051793 0 6759.74516749 0 1662
0.03950000 0.03950240 53437.49154260 0 1491.74675851 0 15301.89784010 0 1679.72416068 0 3928.96713130 0 1683
0.04050000 0.04050350 54512.09775248 0 1355.34146189 0 12905.39110425 0 4689.81305733 0 7195.35410527 0 1822
0.04150000 0.04152450 49449.98310228 0 1691.60552851 0 12035.92677021 0 144.76384450 0 5522.73403585 0 1887
0.04250000 0.04250150 49803.05194174 0 3594.09690538 0 9109.86173777 0 -539.38936972 0 1805.56324562 0 1920
0.04350000 0.04349210 45639.85213051 0 3041.91117887 0 11345.07637628 0 -3994.94975110 0 2048.76596483 0 2005
0.04450000 0.04448520 42976.04272028 0 3010.77457634 0 8178.66374992 0 -3537.48898830 0 882.20336352 0 2151
0.04550000 0.04548030 42047.90218942 0 686.36087802 0 13924.46849952 0 -2338.66234719 0 4363.36207880 0 2274
0.04650000 0.04648670 42647.59090592 0 -105.41684587 0 12177.10934339 0 1931.30116469 0 -401.78581973 0 2311
0.04750000 0.04749250 43274.14477766 0 -16.29377286 0 10814.00059185 0 2888.72359071 0 -1507.29257847 0 2568
0.04850000 0.04851840 42594.42262796 0 875.17346055 0 8088.82846927 0 1184.12386995 0 -1801.51661135 0 2493
0.04950000 0.04949480 40997.46337861 0 1690.44774148 0 7985.97651509 0 655.31082851 0 -4421.56616829 0 2644
0.05050000 0.05050630 39185.24566776 0 1290.76392344 0 5153.32129023 0 1106.37228885 0 -4723.49004692 0 2829
0.05150000 0.05149060 37179.91357735 0 968.65183609 0 4211.20863051 0 1658.09714868 0 -8289.81130434 0 2784
0.05250000 0.05249300 36141.38985631 0 706.14779551 0 2581.93251031 0 -1928.23246704 0 -10771.90435486 0 3055
0.05350000 0.05348950 36547.51456722 0 990.08438484 0 3297.23131957 0 -1894.30818314 0 -11965.56029663 0 3009
0.05450000 0.05448610 35258.77396091 0 583.89897442 0 5047.80530181 0 -4452.24190413 0 -9808.80540023 0 3336
0.05550000 0.05550870 35724.24930768 0 576.22723029 0 8384.24401114 0 -3539.36617697 0 -8679.09752046 0 3349
0.05650000 0.05647670 35498.31222799 0 242.70363432 0 10860.91906800 0 -3524.41611150 0 -6953.60143000 0 3324
0.05750000 0.05747970 36264.92460785 0 603.16994603 0 15140.59450211 0 -1323.20444145 0 -5630.57683896 0 3639
0.05850000 0.05849280 36064.50380531 0 383.05552342 0 16819.38568878 0 -418.30957630 0 -5946.06818303 0 3846
0.05950000 0.05951020 35626.11842680 0 510.51213799 0 17307.90436955 0 667.30235471 0 -2903.39263991 0 3787
0.06050000 0.06049470 35075.21413448 0 760.66944781 0 16569.61842954 0 178.19241571 0 -7591.13741751 0 3930
0.06150000 0.06148310 35738.18771459 0 -310.80511678 0 17257.32144126 0 2360.78394782 0 -4387.74305024 0 4083
0.06250000 0.06249100 35483.58697553 0 -149.89857376 0 16324.57224360 0 1283.86216389 0 -3616.26346862 0 4303
0.06350000 0.06350600 35477.51702414 0 -539.42309167 0 14926.90973171 0 2946.34316635 0 -3402.81475189 0 4470
0.06450000 0.06451750 35211.90044737 0 227.78841487 0 15297.28917330 0 1166.04890358 0 -3440.31356273 0 4479
0.06550000 0.06550280 35691.20179454 0 1243.09232369 0 13310.50415660 0 2048.46246726 0 -3430.75900961 0 4636
0.06650000 0.06648880 34220.69986591 0 1512.68809082 0 16690.00579887 0 708.68256225 0 -22.87270092 0 4653
0.06750000 0.06749660 32388.36139025 0 1898.69203692 0 14790.11101232 0 -465.10328123 0 -607.13115135 0 5220
0.06850000 0.06852730 32147.02461905 0 635.22603378 0 16534.32278624 0 1382.88105618 0 1632.31109590 0 5029
0.06950000 0.06949320 31031.50244051 0 226.41930361 0 14619.14071470 0 899.10030969 0 -614.94902393 0 5040
0.07050000 0.07048030 31339.83349006 0 463.36997289 0 14737.61717340 0 149.53212854 0 -587.61738168 0 5475
0.07150000 0.07148790 30460.36497687 0 769.55855441 0 13503.73094266 0 1229.91828103 0 -3199.79735904 0 5509
0.07250000 0.07249820 29861.68791894 0 1241.94577732 0 13718.09015210 0 797.80518563 0 -2443.27908354 0 5916
0.07350000 0.07351270 27996.18952362 0 1550.10821711 0 12028.05831470 0 148.16863761 0 -3720.68911391 0 5721
0.07450000 0.07449140 27645.48122081 0 1119.30240938 0 13285.54991197 0 1050.59505586 0 -3262.23917385 0 6028
0.07550000 0.07549160 26063.02241091 0 650.80782383 0 11096.32077561 0 1124.36857067 0 -1256.41249481 0 6183
0.07650000 0.07648840 25566.97249415 0 614.49827384 0 11796.05128361 0 2073.58532165 0 -2407.20783534 0 6330
0.07750000 0.07749960 25431.18543332 0 -70.73887633 0 9593.64810458 0 2305.91833161 0 -1088.90993794 0 6583
0.07850000 0.07848650 24721.56315267 0 525.79267859 0 8852.27098562 0 2326.44375984 0 -3289.10432909 0 6549
0.07950000 0.07947320 24680.30996449 0 467.35141138 0 7922.35443195 0 613.95085415 0 1301.43130098 0 6828
0.08050000 0.08048110 23231.27767875 0 646.74545265 0 7619.67742972 0 1330.28605141 0 -1013.51552129 0 7147
0.08150000 0.08149960 23442.26469297 0 311.69537631 0 7221.06147349 0 227.53212803 0 2595.52245704 0 7386
0.08250000 0.08250610 23320.19122604 0 -48.34761249 0 7278.40003287 0 610.49210592 0 96.80212356 0 7227
0.08350000 0.08350160 23593.22663229 0 -176.67492786 0 6892.60965913 0 55.41820661 0 1240.94535940 0 7798
0.08450000 0.08449610 23225.76975990 0 -202.15860714 0 7589.05789712 0 1.41000475 0 1301.02663756 0 7371
0.08550000 0.08548940 23856.14545289 0 134.12681672 0 7333.17572388 0 35.46773766 0 241.03327362 0 8256
0.08650000 0.08650700 23248.47587437 0 342.05974613 0 8176.06715960 0 -440.75940394 0 700.88604690 0 8037
0.08750000 0.08749060 23455.75347385 0 924.12874261 0 8003.23091396 0 -393.87802194 0 -477.69168598 0 8155
0.08850000 0.08849210 22578.42068430 0 1037.94932378 0 10090.55231080 0 -693.88087336 0 844.90688439 0 8718
0.08950000 0.08949900 21870.93412729 0 994.20183520 0 9324.17598461 0 -1259.23389814 0 -1439.06182853 0 8571
0.09050000 0.09049190 21433.33559433 0 691.54394208 0 11000.58415333 0 -802.24299454 0 -48.29815362 0 8932
0.09150000 0.09150830 21181.43261145 0 389.97414394 0 10931.83633346 0 -949.71920807 0 -1108.05164207 0 9285
0.09250000 0.09250820 21027.21088342 0 439.86577221 0 11706.23848427 0 407.38029160 0 -574.00720177 0 9204
0.09350000 0.09350330 20297.69265098 0 443.31103166 0 10494.32772571 0 556.95738274 0 -1416.87278399 0 9349
0.09450000 0.09448040 20217.09718524 0 512.60851935 0 10891.70721035 0 1501.88582547 0 -2154.05714023 0 9564
0.09550000 0.09549270 19492.18761960 0 359.61427038 0 9235.13879017 0 1292.19148608 0 -1473.69427344 0 10155
0.09650000 0.09649430 18818.53542129 0 377.42732959 0 8848.16814811 0 1512.46327781 0 -3166.13161010 0 9913
0.09750000 0.09749140 18255.82844570 0 193.39202363 0 7330.11826689 0 1062.52700661 0 -2687.38105481 0 10476
0.09850000 0.09850240 18129.59593799 0 -27.47990644 0 6921.59929737 0 1245.77883921 0 -3067.24760562 0 10575
0.09950000 0.09950330 18030.00377251 0 -151.03050729 0 6023.88720804 0 1375.20369173 0 -1231.53693474 0 10882
0.10050000 0.10051200 18114.53346601 0 -243.74901484 0 5737.28433635 0 1556.24561240 0 -845.83985840 0 10875
0.10150000 0.10150300 18360.14168448 0 8.21440902 0 5166.15811336 0 1554.01996356 0 -361.90399093 0 11118
0.10250000 0.10250800 18237.73099802 0 394.83347725 0 4864.40284449 0 661.94056431 0 969.27906440 0 11575
0.10350000 0.10349800 17987.73892576 0 530.25409287 0 5128.53565536 0 128.27268582 0 1824.51498275 0 11364
0.10450000 0.10450100 17524.84892866 0 519.26523271 0 5409.18098216 0 -398.22140938 0 2866.45586161 0 12093
0.10550000 0.10551000 17351.96772042 0 326.18457511 0 5009.94679015 0 -364.14537669 0 1928.26618900 0 12067
0.10650000 0.10649700 17012.61247485 0 428.66558782 0 5829.49139430 0 -946.11320731 0 1230.36790706 0 12054
0.10750000 0.10749900 16471.59995517 0 584.78923395 0 5870.20503125 0 -1194.98233856 0 -400.11545903 0 12807
0.10850000 0.10850100 16354.92200058 0 586.10439009 0 6159.40449325 0 -1127.06632684 0 -556.88431851 0 12736
0.10950000 0.10950300 15642.93918328 0 317.16058070 0 6404.59680765 0 -524.88218588 0 -2041.49326381 0 12933
0.11050000 0.11050200 15753.32237345 0 56.58835835 0 6927.02853167 0 186.37448538 0 -1439.18547569 0 13428
0.11150000 0.11150900 15626.41542670 0 -74.82665138 0 6661.25458579 0 817.00084489 0 -2018.52861437 0 13453
0.11250000 0.11250000 15673.40134676 0 115.28523796 0 6585.22282424 0 948.71991422 0 -1747.01069596 0 13668
0.11350000 0.11349100 15555.03729456 0 155.64029815 0 6006.43047745 0 669.10985135 0 -1028.57462107 0 13791
0.11450000 0.11448600 15423.07205498 0 212.07960547 0 5522.03711550 0 968.64509170 0 -1124.58214303 0 14205
0.11550000 0.11549300 15170.83185257 0 258.54058714 0 5691.59109113 0 500.47873315 0 -519.51365109 0 14776
0.11650000 0.11649800 14895.77312919 0 224.82537934 0 4671.73809096 0 429.35913597 0 -866.27423736 0 14553
0.11750000 0.11747300 14796.40577673 0 242.95430083 0 4678.89838547 0 274.98341103 0 -666.82912331 0 14568
0.11850000 0.11849100 14377.12950446 0 144.41875653 0 4472.01420877 0 212.06836482 0 -780.57664026 0 16015
0.11950000 0.11950300 14579.68603063 0 49.20853392 0 4233.34147180 0 185.37856373 0 -1027.36175486 0 15270
0.12050000 0.12050700 14435.91810778 0 -45.41054286 0 4495.45096554 0 92.48346555 0 -1266.81009673 0 15999
0.12150000 0.12150000 14622.96253595 0 5.35989073 0 4750.08542655 0 -168.26354892 0 -1040.37055995 0 15670
0.12250000 0.12250700 14640.16073156 0 200.47250953 0 4893.83086810 0 -545.29520761 0 -672.00094672 0 16887
0.12350000 0.12352200 14601.60529956 0 348.05326110 0 5720.05241878 0 -466.39370794 0 21.34768184 0 16407
0.12450000 0.12449800 14274.16514376 0 420.69259426 0 5565.15625171 0 -96.30202701 0 455.63640519 0 16306
0.12550000 0.12549900 14076.10487788 0 252.04011882 0 5937.84002669 0 533.22949312 0 934.05873347 0 17523
0.12650000 0.12650100 13921.99555636 0 129.71710944 0 5908.34455918 0 814.64480449 0 1266.58528372 0 17154
0.12750000 0.12750600 13770.02195848 0 -55.24487577 0 5545.41766902 0 1042.73896506 0 1249.54445721 0 18007
0.12850000 0.12850300 13744.95530735 0 58.54085938 0 5043.78114885 0 894.08248321 0 887.31111521 0 17496
0.12950000 0.12949900 13682.45728928 0 195.26471604 0 4709.15821724 0 430.46296787 0 1207.57186738 0 18405
0.13050000 0.13049000 13391.88646789 0 158.90683125 0 4499.21658354 0 595.65219882 0 1414.29867497 0 18100
0.13150000 0.13148800 13037.80596986 0 369.77919084 0 3722.68994974 0 363.06515016 0 1294.13611866 0 19059
0.13250000 0.13249300 12694.51649654 0 296.42832449 0 3674.83849958 0 555.28814611 0 843.19380922 0 18957
0.13350000 0.13349100 12431.48526943 0 365.87643690 0 3125.17067883 0 -46.21773398 0 732.17889447 0 19468
0.13450000 0.13450700 12325.03630701 0 202.58462780 0 3479.85817200 0 -82.87394564 0 267.67811212 0 19953
0.13550000 0.13551000 11949.48616609 0 184.54787964 0 2970.57800933 0 -434.87829548 0 59.86444600 0 19956
0.13650000 0.13649900 12036.93842877 0 11.18400909 0 3458.44473236 0 -474.53081500 0 -519.99699908 0 19723
0.13750000 0.13749600 11925.99320606 0 178.78367394 0 3462.27779426 0 -379.41580071 0 -1024.87307479 0 20946
0.13850000 0.13851100 11901.60099397 0 147.80106833 0 3819.93281921 0 -81.29901807 0 -901.36642488 0 20955
0.13950000 0.13949800 11711.74640313 0 76.24095005 0 3635.95708870 0 246.80647184 0 -925.84518998 0 20506
0.14050000 0.14048300 11753.78643686 0 -28.91308940 0 3768.54056407 0 557.27324503 0 -341.20320855 0 21447
0.14150000 0.14148400 11644.63971826 0 -9.00811137 0 3623.47996639 0 923.04851608 0 -550.93014582 0 21771
0.14250000 0.14249400 11695.33505306 0 18.86417246 0 3275.44693846 0 661.14472624 0 -209.16040848 0 22470
0.14350000 0.14350900 11450.06405411 0 202.41601804 0 2932.03381797 0 134.34376128 0 -530.93302817 0 22519
0.14450000 0.14449900 11269.98882940 0 420.61953003 0 3055.99571423 0 -304.01463967 0 -182.04233859 0 22218
0.14550000 0.14550500 10951.66484135 0 309.79458228 0 2961.27075052 0 -411.09307853 0 -684.97827798 0 23559
0.14650000 0.14650700 10860.31207286 0 179.47722209 0 3209.90270404 0 -280.27775752 0 -977.47911911 0 23044
0.14750000 0.14750500 10652.23638718 0 99.33778955 0 2829.05821663 0 23.79331022 0 -687.96154669 0 23649
0.14850000 0.14849900 10617.16555690 0 20.63738512 0 2889.97130294 0 582.03527453 0 -1065.46306458 0 23640
0.14950000 0.14949500 10541.87567830 0 111.35280871 0 2671.59918119 0 519.34054507 0 -606.39151653 0 24457
0.15050000 0.15050000 10445.79059585 0 192.98286394 0 2565.08277486 0 559.85297437 0 -190.08390012 0 24591
0.15150000 0.15149900 10340.22964484 0 203.69970035 0 2626.14198963 0 370.88527087 0 434.20385644 0 25020
0.15250000 0.15250500 10212.34476147 0 155.38738351 0 2768.69592220 0 118.63270375 0 844.87091431 0 25297
0.15350000 0.15350100 10239.01882565 0 121.21805342 0 2697.05925509 0 -3.71739560 0 1425.14590293 0 25452
0.15450000 0.15450400 10077.33330554 0 197.71967416 0 3299.29959931 0 -122.44553248 0 1646.99138576 0 26061
0.15550000 0.15549900 9982.77695159 0 237.55766442 0 3279.03270604 0 -273.69298432 0 1679.76912329 0 26128
0.15650000 0.15649500 9716.37352927 0 223.24606791 0 3336.96701991 0 -150.74724289 0 1411.92689767 0 26331
0.15750000 0.15749700 9699.95093855 0 170.42400199 0 3439.39182937 0 -164.11799693 0 1114.80052877 0 27345
0.15850000 0.15849900 9490.80739105 0 65.35168207 0 3586.08232141 0 91.61602453 0 1012.32401231 0 26980
0.15950000 0.15949700 9511.06304366 0 15.16296340 0 3088.00908752 0 243.37245304 0 500.22469444 0 27777
0.16050000 0.16050000 9419.48546216 0 -41.26735140 0 2978.64879655 0 184.02406531 0 85.32643082 0 28224
0.16150000 0.16150500 9431.14201697 0 -76.52455167 0 2681.65956359 0 257.09953571 0 -217.05359342 0 28075
0.16250000 0.16249700 9556.64388238 0 -53.36409009 0 2520.97446139 0 25.81325515 0 -738.20051107 0 28590
0.16350000 0.16349900 9511.04056236 0 40.94834173 0 2540.87041319 0 -126.40898593 0 -406.50239678 0 29163
0.16450000 0.16449100 9521.41568299 0 185.22906307 0 2761.09724231 0 -284.21872967 0 -671.72217858 0 28996
0.16550000 0.16550500 9408.99793503 0 186.95000670 0 2929.85313173 0 -332.52879838 0 -153.96431713 0 30777
0.16650000 0.16650700 9319.43243000 0 283.15424004 0 3280.42654673 0 -130.56240637 0 -55.12831023 0 29211
0.16750000 0.16749900 9122.92337392 0 180.96773238 0 3517.30077958 0 179.05457362 0 535.35959643 0 30922
0.16850000 0.16850800 9044.35122531 0 147.63695483 0 3361.50536045 0 207.83288763 0 377.24298292 0 30867
0.16950000 0.16949900 8859.92586877 0 154.72530918 0 3661.64197562 0 220.89677191 0 632.97790364 0 30852
0.17050000 0.17049200 8825.30466452 0 154.58255292 0 3217.84984411 0 106.94692325 0 336.76315151 0 31257
0.17150000 0.17149500 8630.63907516 0 75.06090654 0 3116.60530298 0 175.47555043 0 215.77890363 0 32608
0.17250000 0.17250900 8626.08661161 0 109.36534925 0 2908.86683682 0 -51.88425842 0 586.45509839 0 32361
0.17350000 0.17350400 8507.34037729 0 71.34351094 0 2549.86293377 0 178.82751248 0 45.87421970 0 32508
0.17450000 0.17449800 8439.06466475 0 105.32534698 0 2752.43070059 0 106.73323848 0 330.64036906 0 32791
0.17550000 0.17549800 8325.15191024 0 180.22697350 0 2397.77692938 0 68.24581241 0 -101.79252286 0 33633
0.17650000 0.17650100 8123.07873205 0 178.07101669 0 2626.08578638 0 100.81840806 0 89.15949272 0 33984
0.17750000 0.17750300 8064.89712387 0 109.68211079 0 2566.58902206 0 -81.25124530 0 56.04352401 0 34069
