### header ###
fiducial parameters:
Omega_m = 0.31
Omega_nu = 0
Omega_de = 0.69
Omega_k = 0
H_0 = 100
w_de = -1
zeff = 0
beta = 0
fgrowth = 0
b_1 = 2
gamma = 0.55
Lx = 3500 Ly = 3500 Lz = 3500
nx = 700 ny = 700 nz = 700
xoffset = 857.220397 yoffset = 15.9954215 zoffset = 262.898189
bins = 400 dk = 0.001
kx_ny = 0.628318531 ky_ny = 0.628318531 kz_ny = 0.628318531
############################
A(data) = 3.00853062 (not used)
A(ran) = 3.00315513 (used)
Ngal = 183320
weighted Ngal = 0
Nran = 9360983
weighted Nran = 0
SN(data) = 3462.54251
SN(ran) = 67.4395779
SN(data+ran) = 3529.98209
############################
13 columns: k_central k_mean P_0(k) sigma^{lin}_{P_0(k)} P^img_1(k) sigma^{lin}_{P_1(k)} P_2(k) sigma^{lin}_{P_2(k)} P^img_3(k) sigma^{lin}_{P_3(k)} P_4(k) sigma^{lin}_{P_4(k)} N_modes
### header ###
0.00050000 0 0 0 0 0 0 0 0 0 0 0 0
0.00150000 0.00179520 16532.97390816 0 -21328.01069698 0 -22320.11053050 0 19738.69509013 0 -111807.26821944 0 3
0.00250000 0.00253879 32475.92605944 0 -30594.35353358 0 -9753.58008319 0 9405.20983573 0 67065.43167583 0 6
0.00350000 0.00331552 51698.00084197 0 -34915.59689410 0 -13345.01295434 0 -23273.43011900 0 -78741.99484217 0 7
0.00450000 0.00420575 74989.07878262 0 -34545.55467203 0 -23409.55439935 0 3986.12584027 0 4741.56501330 0 24
0.00550000 0.00557378 97446.10043902 0 -15898.66398741 0 -32403.08664271 0 -1091.01306369 0 -16669.32300152 0 45
0.00650000 0.00659388 108213.18255472 0 -7114.03923788 0 -34384.13892754 0 -18572.47757679 0 11885.63926994 0 40
0.00750000 0.00754703 98547.12217812 0 8683.96472223 0 -13463.71422606 0 -24451.45031560 0 -36518.40128183 0 57
0.00850000 0.00846663 94617.39068257 0 4327.23462735 0 -44056.15684902 0 -14303.27842916 0 1113.62588077 0 75
0.00950000 0.00948925 83477.68099514 0 6409.87991349 0 -25136.00594512 0 -7653.21953150 0 4972.17820370 0 112
0.01050000 0.01054430 87355.81790384 0 -2203.06637742 0 -32230.87987351 0 -19221.17553047 0 -21099.15104810 0 105
0.01150000 0.01145670 81993.80269214 0 2136.37559663 0 -25494.02067090 0 -18579.67159326 0 -3084.82798336 0 144
0.01250000 0.01249090 87415.39335271 0 4384.71931519 0 -20374.69110849 0 -20735.06637092 0 -15993.08545355 0 169
0.01350000 0.01339930 76670.23050594 0 5775.54751144 0 -7811.36424663 0 -33662.37674410 0 -4983.65490809 0 180
0.01450000 0.01448870 82056.75033624 0 -213.75671056 0 10559.01767066 0 -15130.81513597 0 -18979.38913325 0 267
0.01550000 0.01550050 85048.78674781 0 -588.34689991 0 26671.47883497 0 -15038.19217395 0 -9061.79671525 0 238
0.01650000 0.01653350 87606.70922815 0 -617.45793717 0 32192.66166102 0 -13579.26811557 0 -13407.51097240 0 315
0.01750000 0.01747870 89117.78990592 0 1926.80490440 0 44742.28616964 0 919.81345680 0 -20316.12731818 0 297
0.01850000 0.01844180 86485.56672425 0 4321.53561743 0 33623.25927956 0 5836.37067255 0 -11803.47011309 0 388
0.01950000 0.01947590 83266.58157441 0 6538.40551395 0 38035.10228496 0 8402.82480679 0 -15889.44665381 0 399
0.02050000 0.02045430 78967.36988933 0 6249.89173164 0 27440.45175148 0 9126.82387973 0 -15702.62703866 0 462
0.02150000 0.02154770 73344.12195464 0 1980.35536448 0 17963.00949415 0 14911.62244672 0 -14985.02389599 0 571
0.02250000 0.02255340 72477.46778328 0 4177.18318075 0 14650.72694325 0 7422.78619151 0 -8367.68653261 0 510
0.02350000 0.02348930 68370.02159967 0 285.20678287 0 13544.30969180 0 14650.16491072 0 -4403.70477428 0 555
0.02450000 0.02439640 64186.58861712 0 1841.24107104 0 7505.29256788 0 14245.50148440 0 -4290.92732549 0 592
0.02550000 0.02547300 65080.55756976 0 3780.74791077 0 8535.16098785 0 5214.75144647 0 4594.33497002 0 837
0.02650000 0.02652900 58909.32791193 0 4976.29228186 0 7956.44732562 0 1727.53064824 0 5088.59762332 0 723
0.02750000 0.02749970 55808.70681430 0 3962.03712576 0 12072.79610461 0 -1034.78508060 0 21530.45481665 0 826
0.02850000 0.02848090 54868.08916113 0 1152.00933082 0 19815.69354764 0 -1248.01572871 0 18850.45886936 0 831
0.02950000 0.02946900 56645.01122868 0 -203.41531189 0 24691.10098919 0 1957.91902563 0 26025.81585699 0 996
0.03050000 0.03053250 57319.45027254 0 824.61638576 0 31674.13044280 0 6469.34295586 0 24634.33570300 0 1041
0.03150000 0.03150510 56500.00683425 0 1265.83216012 0 34190.57492195 0 2359.90717707 0 29072.93145714 0 1036
0.03250000 0.03246190 58320.87984617 0 2752.43070059 0 36704.20923841 0 4502.97096088 0 33791.41941449 0 1059
0.03350000 0.03345080 54849.65449393 0 2847.98747246 0 38047.24218775 0 2779.77920382 0 27802.96273756 0 1302
0.03450000 0.03451200 52097.94319498 0 1895.10626934 0 28321.83117530 0 6960.16597003 0 22738.93717674 0 1339
0.03550000 0.03553350 51568.84576508 0 907.94445369 0 27175.39720724 0 3240.07261061 0 10467.77730868 0 1365
0.03650000 0.03647120 50112.84427589 0 473.63605920 0 21794.27288930 0 180.81485953 0 2689.02218982 0 1308
0.03750000 0.03744890 49148.39644317 0 -201.02105328 0 16625.59687018 0 -900.75380942 0 -12526.80598763 0 1579
0.03850000 0.03847530 47897.53682983 0 97.30907691 0 13513.39790229 0 -4093.12559458 0 -13508.67682898 0 1662
0.03950000 0.03950240 47401.71172608 0 1142.71331266 0 10603.26087194 0 -1090.83995767 0 -18735.24219937 0 1683
0.04050000 0.04050350 46215.37344793 0 801.63487534 0 13182.58555128 0 2101.99044604 0 -18320.34978089 0 1822
0.04150000 0.04152450 43929.92434131 0 1594.05916146 0 10449.67986100 0 892.04230510 0 -13469.78417745 0 1887
0.04250000 0.04250150 44717.89395755 0 12.75094456 0 13721.46234732 0 4871.28212273 0 -10645.63812520 0 1920
0.04350000 0.04349210 43974.32491170 0 744.82237841 0 14478.74498707 0 1471.23257093 0 -4723.10786480 0 2005
0.04450000 0.04448520 43171.96726252 0 1019.74059366 0 12078.75364949 0 1561.88841907 0 -6008.55496044 0 2151
0.04550000 0.04548030 43387.78775655 0 1815.49998086 0 15502.65586215 0 -949.65176416 0 1609.97592290 0 2274
0.04650000 0.04648670 42304.30143259 0 1103.34630567 0 14682.98761085 0 -837.61619833 0 1969.27208286 0 2311
0.04750000 0.04749250 41626.15297399 0 488.54003801 0 13603.66032766 0 2967.29573932 0 993.14633810 0 2568
0.04850000 0.04851840 40699.02410170 0 -71.32271573 0 14974.23287129 0 2743.56182717 0 1202.08642982 0 2493
0.04950000 0.04949480 40588.64091152 0 979.64182031 0 11058.70955826 0 3703.51339959 0 -207.74183835 0 2644
0.05050000 0.05050630 39903.86046899 0 1480.92201186 0 12742.17685564 0 2984.84239511 0 2503.21423324 0 2829
0.05150000 0.05149060 37405.85065704 0 1673.71041254 0 10815.07969432 0 362.41206835 0 1946.81326270 0 2784
0.05250000 0.05249300 36475.68680905 0 1564.18151182 0 13062.31058846 0 -493.21052838 0 2236.21505642 0 3055
0.05350000 0.05348950 35617.46312574 0 410.84128796 0 11261.67074786 0 -1041.89254406 0 1546.10654544 0 3009
0.05450000 0.05448610 34873.78167338 0 718.09323504 0 12084.26156835 0 192.23648474 0 1766.26593066 0 3336
0.05550000 0.05550870 33987.90598927 0 758.24371538 0 10454.94048555 0 145.00439443 0 -896.25305286 0 3349
0.05650000 0.05647670 33609.09605963 0 444.89821154 0 10100.93867207 0 974.97695026 0 -704.38076521 0 3324
0.05750000 0.05747970 33209.37851964 0 310.47464165 0 8854.08073039 0 1896.64623849 0 -81.98582183 0 3639
0.05850000 0.05849280 33313.69175842 0 90.19992735 0 8623.42257739 0 488.26801426 0 -1029.73578029 0 3846
0.05950000 0.05951020 33395.63610225 0 -785.89009586 0 8743.40528329 0 1208.29126903 0 1135.09215147 0 3787
0.06050000 0.06049470 34179.22186471 0 -570.02801141 0 8350.80307521 0 2239.08142236 0 -537.09740103 0 3930
0.06150000 0.06148310 34061.30743854 0 191.09555869 0 8001.91575782 0 -221.68136933 0 2690.97806305 0 4083
0.06250000 0.06249100 34936.61691096 0 368.35724852 0 7898.90643452 0 884.87639026 0 529.30875414 0 4303
0.06350000 0.06350600 33667.21022391 0 1547.54534874 0 7903.98720865 0 -1163.30618480 0 257.10065978 0 4470
0.06450000 0.06451750 31990.77957389 0 2284.48241066 0 8574.41334020 0 -1697.63051730 0 -628.27144318 0 4479
0.06550000 0.06550280 30330.31064791 0 1998.04814874 0 11255.93801599 0 -1100.08876509 0 287.83147481 0 4636
0.06650000 0.06648880 29391.37909235 0 927.91684191 0 9268.68089195 0 358.60710808 0 302.89282273 0 4653
0.06750000 0.06749660 28042.05137860 0 264.38235332 0 11891.25959530 0 1983.68259710 0 1477.32500362 0 5220
0.06850000 0.06852730 28676.47370586 0 -467.78192830 0 9674.19860772 0 2231.53894572 0 2035.79425389 0 5029
0.06950000 0.06949320 28775.39143229 0 490.93092442 0 13389.30111822 0 2015.94326470 0 3916.80474721 0 5040
0.07050000 0.07048030 29123.62679194 0 264.43968064 0 10053.84034551 0 1594.30645578 0 6912.78662720 0 5475
0.07150000 0.07148790 28048.23373651 0 486.88429015 0 11436.80008625 0 1608.00880902 0 6877.13128308 0 5509
0.07250000 0.07249820 28949.28429910 0 -327.62113027 0 10159.19896481 0 2263.22634013 0 6167.35163332 0 5916
0.07350000 0.07351270 28203.91674913 0 148.61713957 0 8836.65772176 0 926.32741390 0 7153.87610407 0 5721
0.07450000 0.07449140 28222.35141633 0 610.16612704 0 10151.36423125 0 79.13013451 0 4814.60676175 0 6028
0.07550000 0.07549160 27600.63102440 0 557.85888293 0 9045.62141885 0 256.06876804 0 5246.67489455 0 6183
0.07650000 0.07648840 26999.81824283 0 826.05631311 0 10150.98204913 0 -785.52477471 0 3043.81084884 0 6330
0.07750000 0.07749960 26114.27977824 0 664.18644633 0 7549.44584395 0 -1005.76284448 0 808.45345407 0 6583
0.07850000 0.07848650 26173.85522711 0 435.07613093 0 10684.58697998 0 -244.48640153 0 988.06331584 0 6549
0.07950000 0.07947320 25037.31303170 0 326.83990504 0 7758.20720932 0 -1140.03803779 0 -879.26280928 0 6828
0.08050000 0.08048110 25689.27077410 0 389.61331905 0 9658.01207067 0 891.17789906 0 -1531.96580683 0 7147
0.08150000 0.08149960 25004.04070554 0 282.88334036 0 8293.45327518 0 -46.33958264 0 -2049.89002991 0 7386
0.08250000 0.08250610 24626.91687351 0 731.51119982 0 7982.24461904 0 1226.82710208 0 -2277.01861858 0 7227
0.08350000 0.08350160 24080.84606100 0 559.19090004 0 8537.99363183 0 1222.61185806 0 -1252.81548657 0 7798
0.08450000 0.08449610 23370.66174782 0 498.70608253 0 7353.75735537 0 1348.11372347 0 41.61390066 0 7371
0.08550000 0.08548940 23332.78075485 0 280.99603510 0 7794.80676810 0 2020.51820955 0 244.76629373 0 8256
0.08650000 0.08650700 22907.20971818 0 182.08055680 0 6076.08879003 0 1602.72570318 0 1272.05948062 0 8037
0.08750000 0.08749060 22226.02628388 0 439.60611318 0 6167.35163332 0 880.34415988 0 1114.26322566 0 8155
0.08850000 0.08849210 21618.69392489 0 545.82576633 0 4326.77376067 0 1105.02903109 0 1886.76570650 0 8718
0.08950000 0.08949900 20653.45924662 0 558.34335498 0 4389.57527631 0 256.83875262 0 402.18823502 0 8571
0.09050000 0.09049190 20007.45904911 0 556.76629168 0 3126.55327887 0 -309.89574813 0 -1081.11342259 0 8932
0.09150000 0.09150830 19719.69839039 0 518.77064408 0 3167.53669144 0 -308.56148289 0 -875.37354413 0 9285
0.09250000 0.09250820 19034.46832183 0 629.73947216 0 3039.44947636 0 -707.30108627 0 -1601.70280396 0 9204
0.09350000 0.09350330 19110.00549474 0 592.73524996 0 4714.22775072 0 -866.27086517 0 753.67326680 0 9349
0.09450000 0.09448040 18910.48394427 0 323.06079827 0 4704.41466263 0 -170.13062101 0 -1070.44829318 0 9564
0.09550000 0.09549270 18902.16586273 0 267.48027666 0 6983.59148615 0 -364.52643475 0 3371.07115422 0 10155
0.09650000 0.09649430 18804.70942089 0 167.82403948 0 7069.00919105 0 -306.42013893 0 1970.54227640 0 9913
0.09750000 0.09749140 19020.75472794 0 380.51738448 0 9042.23798298 0 183.29454708 0 4670.14191855 0 10476
0.09850000 0.09850240 18772.56115980 0 402.21633665 0 9377.26557801 0 -183.43280708 0 3576.29171462 0 10575
0.09950000 0.09950330 18346.99012312 0 395.82265452 0 8813.19848368 0 -619.21709901 0 3540.18674447 0 10882
0.10050000 0.10051200 18112.73496189 0 477.65121964 0 9527.36198722 0 -361.99054395 0 2229.48190664 0 10875
0.10150000 0.10150300 17640.51522468 0 509.16438397 0 8442.45934127 0 -489.15714973 0 604.23331159 0 11118
0.10250000 0.10250800 17130.86412054 0 404.23740565 0 9071.71096919 0 62.22250971 0 825.35264838 0 11575
0.10350000 0.10349800 16502.62415118 0 209.83597159 0 7472.21133278 0 687.00047105 0 -704.93268116 0 11364
0.10450000 0.10450100 16774.53549237 0 -367.62885435 0 7014.30094395 0 1662.89690654 0 -716.16658750 0 12093
0.10550000 0.10551000 16819.27328227 0 -409.52725589 0 5604.17255040 0 1586.23566855 0 -1203.81749004 0 12067
0.10650000 0.10649700 17228.88259491 0 -353.16213686 0 5468.74519039 0 1546.66857798 0 44.94731564 0 12054
0.10750000 0.10749900 17271.25984817 0 29.36676207 0 3723.44307334 0 1032.08957256 0 -954.79548594 0 12807
0.10850000 0.10850100 17134.91075480 0 340.47481438 0 4223.43845850 0 502.20080084 0 -434.16901042 0 12736
0.10950000 0.10950300 16507.12041148 0 588.21988056 0 3959.84519886 0 -84.82757074 0 -720.48299738 0 12933
0.11050000 0.11050200 16057.49438224 0 632.81154201 0 3341.89042493 0 154.50049617 0 -324.40630416 0 13428
0.11150000 0.11150900 15463.87561713 0 504.42307749 0 3710.62873151 0 303.75722877 0 565.12821176 0 13453
0.11250000 0.11250000 15091.24804540 0 240.51395556 0 3406.01833735 0 462.04357610 0 64.95601116 0 13668
0.11350000 0.11349100 15014.81162043 0 303.35706160 0 3980.93265963 0 223.18199620 0 1089.88675049 0 13791
0.11450000 0.11448600 14793.14598801 0 364.03971457 0 3821.85497049 0 60.99368178 0 1247.85835960 0 14205
0.11550000 0.11549300 14527.86663076 0 429.26359044 0 4573.51728487 0 -558.93236508 0 1916.96933501 0 14776
0.11650000 0.11649800 14420.06879025 0 218.47216354 0 4777.73742735 0 -378.09277612 0 1807.36174973 0 14553
0.11750000 0.11747300 14231.11345146 0 122.99182810 0 5130.59269445 0 -588.38286999 0 1746.62851384 0 14568
0.11850000 0.11849100 14267.53315983 0 86.21803924 0 5272.69700099 0 -230.56935186 0 784.97623095 0 16015
0.11950000 0.11950300 14161.75863645 0 122.63325134 0 5347.12134948 0 -269.58902274 0 423.23073319 0 15270
0.12050000 0.12050700 14015.06814441 0 110.31788200 0 5008.35061775 0 496.05553708 0 90.21555186 0 15999
0.12150000 0.12150000 14032.94077908 0 28.29833822 0 4780.96349411 0 784.47152573 0 -141.33769416 0 15670
0.12250000 0.12250700 13999.55604641 0 -24.53350707 0 4565.81743912 0 969.30829010 0 282.67089206 0 16887
0.12350000 0.12352200 13784.18517840 0 221.12383305 0 3927.24731174 0 818.56891566 0 -102.63456000 0 16407
0.12450000 0.12449800 13844.88469235 0 120.28058315 0 4413.46165911 0 525.24413484 0 1304.58992384 0 16306
0.12550000 0.12549900 13509.91330056 0 202.57900747 0 3708.74030218 0 484.60581025 0 1154.87569675 0 17523
0.12650000 0.12650100 13566.79099326 0 51.23556047 0 4272.87484042 0 260.57626899 0 2056.42084798 0 17154
0.12750000 0.12750600 13423.24788343 0 87.09469759 0 3967.06169663 0 -166.10309585 0 1877.10998752 0 18007
0.12850000 0.12850300 13542.39878118 0 176.31859924 0 4644.43455033 0 -170.43299451 0 1942.94647885 0 17496
0.12950000 0.12949900 13259.13438276 0 245.78694482 0 4309.68797156 0 -120.20639485 0 2313.84299037 0 18405
0.13050000 0.13049000 13117.83940307 0 281.55919171 0 4658.60901090 0 -111.50062327 0 1498.45742700 0 18100
0.13150000 0.13148800 13230.58312990 0 63.05667841 0 4734.05625861 0 60.04283513 0 1896.65747914 0 19059
0.13250000 0.13249300 13019.82092869 0 89.14027121 0 5232.82641285 0 146.90968473 0 1090.94899198 0 18957
0.13350000 0.13349100 12878.97557503 0 169.54498311 0 4506.16330569 0 184.22639703 0 1284.71645335 0 19468
0.13450000 0.13450700 12700.92366745 0 206.62901393 0 4384.58442738 0 59.12649728 0 1006.06296986 0 19953
0.13550000 0.13551000 12573.90431419 0 164.86100395 0 3924.39218646 0 284.66835570 0 1257.00824929 0 19956
0.13650000 0.13649900 12358.19622667 0 47.33595392 0 3392.57451907 0 777.05606845 0 874.99923046 0 19723
0.13750000 0.13749600 12381.12715416 0 -71.63610508 0 3086.32298991 0 615.62121484 0 858.17310038 0 20946
0.13850000 0.13851100 12254.10780090 0 -57.00257633 0 2330.32178434 0 650.62122903 0 624.25291054 0 20955
0.13950000 0.13949800 12351.78905575 0 124.76335466 0 2316.50702459 0 72.75050319 0 446.57981289 0 20506
0.14050000 0.14048300 12135.63134219 0 296.25409441 0 2120.34642869 0 -246.75251672 0 223.12916514 0 21447
0.14150000 0.14148400 11881.36782266 0 355.01572017 0 2339.88757812 0 -466.97035332 0 217.47849002 0 21771
0.14250000 0.14249400 11570.00179741 0 312.68230545 0 2602.67151090 0 -488.59399313 0 134.02677493 0 22470
0.14350000 0.14350900 11415.21803684 0 252.63924550 0 2898.60412270 0 -340.31969340 0 66.93312922 0 22519
0.14450000 0.14449900 11133.85330840 0 111.58863756 0 3438.24528299 0 -17.24877855 0 -242.78906327 0 22218
0.14550000 0.14550500 11222.05869468 0 143.46217715 0 3547.52688940 0 92.44614659 0 -137.16628868 0 23559
0.14650000 0.14650700 11026.19035569 0 154.28692380 0 3595.32213631 0 93.49658540 0 -619.63974748 0 23044
0.14750000 0.14750500 10954.94711136 0 218.27320402 0 3823.03523882 0 0.54077085 0 130.70628670 0 23649
0.14850000 0.14849900 10708.54080669 0 252.87080291 0 3671.72483933 0 -214.17598683 0 -383.78279352 0 23640
0.14950000 0.14949500 10672.62692760 0 200.64786368 0 3468.07797003 0 19.54007279 0 106.46087751 0 24457
0.15050000 0.15050000 10443.77851937 0 188.26853503 0 3696.73528720 0 155.35028936 0 -100.27042634 0 24591
0.15150000 0.15149900 10328.55060873 0 152.90319970 0 3216.37731886 0 276.48403790 0 139.69993135 0 25020
0.15250000 0.15250500 10186.97461277 0 55.26938039 0 3008.21170798 0 616.96447261 0 -74.85385375 0 25297
0.15350000 0.15350100 10109.66141704 0 121.96443263 0 2911.18241087 0 558.12191416 0 -189.98947866 0 25452
0.15450000 0.15450400 9898.75308738 0 106.42108561 0 2468.62675094 0 581.55192654 0 138.70625783 0 26061
0.15550000 0.15549900 9860.06276756 0 166.11883276 0 2557.31548520 0 323.35642738 0 107.46084580 0 26128
0.15650000 0.15649500 9751.99515143 0 190.29634842 0 2176.23494412 0 -35.00496007 0 186.74093059 0 26331
0.15750000 0.15749700 9490.12171135 0 260.19970719 0 2244.80291358 0 -194.16200821 0 53.15321549 0 27345
0.15850000 0.15849900 9423.67822488 0 163.50313334 0 2323.54367195 0 -347.05621538 0 57.00763462 0 26980
0.15950000 0.15949700 9255.49560864 0 92.18727440 0 2415.84065510 0 -100.74702993 0 -114.47366298 0 27777
0.16050000 0.16050000 9254.03432405 0 144.44685815 0 2281.07649349 0 -17.61499895 0 -92.84732541 0 28224
0.16150000 0.16150500 9162.70403686 0 93.02346641 0 2369.50669279 0 242.22253447 0 -22.95487008 0 28075
0.16250000 0.16249700 9112.91919477 0 42.23809400 0 2135.53254783 0 353.53757460 0 -132.65316741 0 28590
0.16350000 0.16349900 9096.78886097 0 -10.38495619 0 2358.98544371 0 398.65192630 0 753.49903671 0 29163
0.16450000 0.16449100 9097.75555694 0 14.71311255 0 2078.99207465 0 297.71313087 0 188.05496266 0 28996
0.16550000 0.16550500 9074.58857578 0 97.53748693 0 2378.96008006 0 181.58147191 0 655.90433487 0 30777
0.16650000 0.16650700 8905.77648310 0 204.62592997 0 2132.14911196 0 -155.36602627 0 369.07889830 0 29211
0.16750000 0.16749900 8695.64375834 0 294.07340816 0 2372.20444897 0 -359.09720045 0 421.87623478 0 30922
0.16850000 0.16850800 8561.81257073 0 253.27209414 0 2421.98929105 0 -301.00776560 0 121.14723732 0 30867
0.16950000 0.16949900 8254.68427081 0 211.46586594 0 2636.83184848 0 -433.78458016 0 -61.02493079 0 30852
0.17050000 0.17049200 8205.40525801 0 48.81690965 0 2517.56854422 0 -140.91504569 0 -320.50242616 0 31257
0.17150000 0.17149500 8206.43939787 0 -51.14743377 0 2735.81701881 0 2.86153246 0 -309.28088454 0 32608
0.17250000 0.17250900 8364.65155691 0 -139.58977297 0 2419.53882920 0 288.01469742 0 -353.82421119 0 32361
0.17350000 0.17350400 8433.79279956 0 -51.94091130 0 2699.77949257 0 267.48589699 0 -182.82468788 0 32508
0.17450000 0.17449800 8557.78841777 0 34.83297811 0 2360.77270717 0 328.75531193 0 131.98547275 0 32791
0.17550000 0.17549800 8518.79460039 0 113.07757416 0 2522.75048421 0 389.11648229 0 687.23202846 0 33633
0.17650000 0.17650100 8352.75894844 0 176.59399518 0 2500.35910795 0 349.22790911 0 937.03300965 0 33984
0.17750000 0.17750300 8304.81757307 0 147.20756197 0 2409.37728093 0 207.09100468 0 1256.65978912 0 34069
0.17850000 0.17849800 8085.22022039 0 226.13266702 0 2526.98820953 0 162.80284080 0 1171.60178504 0 34536
