### header ###
fiducial parameters:
Omega_m = 0.31
Omega_nu = 0
Omega_de = 0.69
Omega_k = 0
H_0 = 100
w_de = -1
zeff = 0
beta = 0
fgrowth = 0
b_1 = 2
gamma = 0.55
Lx = 3500 Ly = 3500 Lz = 3500
nx = 700 ny = 700 nz = 700
xoffset = 857.220397 yoffset = 15.9954215 zoffset = 262.898189
bins = 400 dk = 0.001
kx_ny = 0.628318531 ky_ny = 0.628318531 kz_ny = 0.628318531
############################
A(data) = 3.05493363 (not used)
A(ran) = 3.05374187 (used)
Ngal = 186595
weighted Ngal = 0
Nran = 9360983
weighted Nran = 0
SN(data) = 3441.23689
SN(ran) = 68.5755659
SN(data+ran) = 3509.81246
############################
13 columns: k_central k_mean P_0(k) sigma^{lin}_{P_0(k)} P^img_1(k) sigma^{lin}_{P_1(k)} P_2(k) sigma^{lin}_{P_2(k)} P^img_3(k) sigma^{lin}_{P_3(k)} P_4(k) sigma^{lin}_{P_4(k)} N_modes
### header ###
0.00050000 0 0 0 0 0 0 0 0 0 0 0 0
0.00150000 0.00179520 4932.83592614 0 -16667.18727788 0 -20228.45024248 0 44227.23955314 0 28119.27464913 0 3
0.00250000 0.00253879 11329.67668478 0 -18917.56555423 0 2825.53989295 0 -16539.26867257 0 -12436.43115575 0 6
0.00350000 0.00331552 29150.15472766 0 -23921.22882062 0 -10991.08580346 0 8157.71117695 0 -17741.00664222 0 7
0.00450000 0.00420575 43316.18481140 0 -21361.39542965 0 -8344.42962625 0 4761.84314722 0 585.09160746 0 24
0.00550000 0.00557378 55445.29657616 0 3135.05121083 0 -9951.60662711 0 -12647.30576347 0 10917.97661111 0 45
0.00650000 0.00659388 51339.76130318 0 4561.60219510 0 -2457.70083843 0 4820.63175054 0 23331.31947026 0 40
0.00750000 0.00754703 44441.14913655 0 7793.17687375 0 5966.23391044 0 -3009.69547387 0 22854.37865974 0 57
0.00850000 0.00846663 43269.76092388 0 -567.97884079 0 -4368.22928057 0 5110.25835728 0 12534.67444314 0 75
0.00950000 0.00948925 51036.15132693 0 -9970.06377561 0 10657.49701172 0 8098.96753623 0 18494.57986722 0 112
0.01050000 0.01054430 62757.45228318 0 -7539.11568593 0 16310.29661718 0 -8268.81376878 0 18330.12914703 0 105
0.01150000 0.01145670 71476.60024220 0 -4875.71093912 0 17218.87841576 0 2895.80520067 0 24882.86649066 0 144
0.01250000 0.01249090 77047.24193146 0 -1672.50766291 0 29148.35622355 0 -2589.86840972 0 16917.74138268 0 169
0.01350000 0.01339930 77645.24455035 0 1501.71721571 0 25764.13350797 0 3347.56695355 0 24372.31613446 0 180
0.01450000 0.01448870 80893.00576606 0 -30.16855768 0 27579.16138150 0 1929.23288496 0 6853.46971329 0 267
0.01550000 0.01550050 87136.51280808 0 -896.22270311 0 34017.01927466 0 -712.47290967 0 -19050.76726539 0 238
0.01650000 0.01653350 86814.13094511 0 1000.84618385 0 33065.27337727 0 -10822.83574332 0 -8180.65334510 0 315
0.01750000 0.01747870 89144.54265466 0 2178.19081735 0 42317.90261998 0 -17890.17007742 0 -11867.42941575 0 297
0.01850000 0.01844180 85779.87867135 0 6006.94754739 0 53343.63210899 0 -4332.10182912 0 2321.26181985 0 388
0.01950000 0.01947590 91145.04126526 0 4797.97059867 0 59438.65015486 0 11111.29332238 0 -4332.05686652 0 399
0.02050000 0.02045430 87075.25126159 0 1021.93139649 0 60614.42222132 0 26222.30243176 0 10088.43906846 0 462
0.02150000 0.02154770 85750.20335342 0 1530.31343117 0 55986.08428283 0 30021.41756582 0 4550.01308419 0 571
0.02250000 0.02255340 79669.68574700 0 2382.55708829 0 40898.54565217 0 24319.14785650 0 11542.34979661 0 510
0.02350000 0.02348930 75220.07415514 0 6916.28246957 0 27463.38267897 0 6298.50754605 0 3309.07896544 0 555
0.02450000 0.02439640 68435.32978042 0 7382.64582775 0 27124.36465293 0 8475.39444791 0 -949.30780025 0 592
0.02550000 0.02547300 59027.01752509 0 5064.47518685 0 11749.51498958 0 948.43664982 0 -5343.78287621 0 837
0.02650000 0.02652900 52408.40996817 0 1522.16395939 0 9539.43444611 0 -4871.23716013 0 -17439.86960913 0 723
0.02750000 0.02749970 54254.91166375 0 -1332.11827748 0 -43.48648067 0 -1329.63409367 0 -24170.77126685 0 826
0.02850000 0.02848090 56614.09943917 0 -3019.90198474 0 2850.89880100 0 -2804.71096714 0 -30690.34869083 0 831
0.02950000 0.02946900 56588.69556852 0 -3063.21221200 0 360.36177365 0 -2036.06402951 0 -23702.37335089 0 996
0.03050000 0.03053250 61611.80516068 0 -2500.79749333 0 -949.19539374 0 -586.62595628 0 -18902.95270828 0 1041
0.03150000 0.03150510 61762.65469349 0 -2079.01455595 0 3696.51047419 0 2635.30311998 0 -20596.13192789 0 1036
0.03250000 0.03246190 64331.36819854 0 1203.71632418 0 -1208.78585766 0 1046.78222713 0 -11905.98484776 0 1059
0.03350000 0.03345080 60215.26671386 0 2391.56084953 0 2927.94222111 0 -379.14040477 0 -18654.53432712 0 1302
0.03450000 0.03451200 58847.27951990 0 5140.94533377 0 3401.26354209 0 -7855.18030318 0 -11086.05806149 0 1339
0.03550000 0.03553350 54833.24314386 0 5231.76979168 0 8947.67038838 0 -6171.52191474 0 -12367.41356027 0 1365
0.03650000 0.03647120 50812.34997088 0 4660.54240283 0 12092.01761736 0 -6282.72567242 0 -10021.63588117 0 1308
0.03750000 0.03744890 50892.94543662 0 1633.59253008 0 13471.13305554 0 -1677.38610533 0 -9059.37997534 0 1579
0.03850000 0.03847530 49147.27237810 0 616.36646999 0 19352.57873752 0 2358.86179655 0 -5441.98120100 0 1662
0.03950000 0.03950240 50392.28685306 0 -201.55048793 0 17880.72793080 0 5894.03521080 0 816.74230992 0 1683
0.04050000 0.04050350 49243.37994185 0 813.46566023 0 17965.14521779 0 6162.76544782 0 847.61475715 0 1822
0.04150000 0.04152450 51343.80793744 0 1350.47426012 0 15819.30499325 0 3905.06950785 0 9437.27941227 0 1887
0.04250000 0.04250150 48440.57266664 0 1082.85572345 0 15125.30721711 0 4504.80318695 0 9874.63065091 0 1920
0.04350000 0.04349210 48336.70905389 0 796.65301893 0 14588.90336423 0 2069.50496543 0 12437.21800131 0 2005
0.04450000 0.04448520 47435.77089780 0 -148.05061078 0 13187.86865712 0 1899.17538491 0 9723.32025142 0 2151
0.04550000 0.04548030 47300.09624347 0 -334.54986738 0 11482.32472171 0 1489.26257470 0 6391.59137475 0 2274
0.04650000 0.04648670 47883.26120340 0 365.52572860 0 10966.32264990 0 -707.85187816 0 4724.83892501 0 2311
0.04750000 0.04749250 45838.02480289 0 1359.32065225 0 10351.53773947 0 107.72893532 0 760.82232066 0 2568
0.04850000 0.04851840 43766.03565365 0 2644.13827145 0 12269.39508589 0 -2477.56306827 0 808.63330448 0 2493
0.04950000 0.04949480 41782.28561265 0 2244.31956560 0 11399.48112582 0 -506.00014079 0 -4212.40013949 0 2644
0.05050000 0.05050630 39793.47727881 0 1603.34393897 0 14011.92076221 0 -826.35194223 0 1158.32657653 0 2829
0.05150000 0.05149060 38601.29386228 0 519.04379189 0 9497.75411320 0 1780.09193106 0 -3238.51016015 0 2784
0.05250000 0.05249300 39815.50895424 0 208.65907545 0 15370.01618353 0 417.02027366 0 1030.24385771 0 3055
0.05350000 0.05348950 39511.44935197 0 397.54697034 0 13042.97666920 0 -1548.89422683 0 -5736.48625015 0 3009
0.05450000 0.05448610 38896.24853746 0 706.42431551 0 13033.30970957 0 -1769.32338766 0 -1672.40649706 0 3336
0.05550000 0.05550870 39226.38644943 0 427.66179771 0 17038.35356502 0 -1885.07960889 0 -4724.09704206 0 3349
0.05650000 0.05647670 37838.39089717 0 659.61150148 0 10739.19406123 0 -527.99022581 0 -8721.30616396 0 3324
0.05750000 0.05747970 37796.01364391 0 392.82702110 0 14476.72166994 0 1845.69236873 0 -9740.65333484 0 3639
0.05850000 0.05849280 37274.22263698 0 462.05931301 0 9814.80790772 0 1720.70757325 0 -11565.73035013 0 3846
0.05950000 0.05951020 36171.06517424 0 868.61116865 0 10859.66011511 0 2541.35376117 0 -8840.43458040 0 3787
0.06050000 0.06049470 36138.69210014 0 767.13507011 0 9138.70524755 0 2631.02043205 0 -10282.86860416 0 3930
0.06150000 0.06148310 34655.48823618 0 645.37296920 0 8644.59996337 0 2194.29866985 0 -4771.68995726 0 4083
0.06250000 0.06249100 34856.58347776 0 202.32272064 0 8792.49320503 0 661.57187097 0 -4642.64728687 0 4303
0.06350000 0.06350600 34579.38903073 0 549.79708823 0 10292.67045159 0 401.01920735 0 -1930.69416956 0 4470
0.06450000 0.06451750 34397.51530191 0 547.08584327 0 10279.13670811 0 -126.39774527 0 -1615.09041898 0 4479
0.06550000 0.06550280 33988.58042831 0 1076.10908489 0 10936.01785553 0 -1056.53461570 0 -1316.89843639 0 4636
0.06650000 0.06648880 33249.95726878 0 1108.17304110 0 11480.52621759 0 -566.55577440 0 -564.54369792 0 4653
0.06750000 0.06749660 31936.93685689 0 1102.88656306 0 10777.97430625 0 -182.77073276 0 -3570.14307867 0 5220
0.06850000 0.06852730 30952.59307238 0 902.97158981 0 11212.30180985 0 1023.65121605 0 -3886.49995284 0 5029
0.06950000 0.06949320 30273.09573569 0 950.82191590 0 8876.74188226 0 286.03859102 0 -6586.04339175 0 5040
0.07050000 0.07048030 29608.88568400 0 1136.26117914 0 10742.28524018 0 71.51684177 0 -3947.10954158 0 5475
0.07150000 0.07148790 28354.42906242 0 582.29718169 0 10207.38763450 0 -521.42006546 0 -3889.66981635 0 5509
0.07250000 0.07249820 28312.16421567 0 112.36278118 0 11041.21910572 0 169.15605659 0 -2074.79931193 0 5916
0.07350000 0.07351270 28568.22623932 0 -106.73964565 0 11290.78403325 0 780.89025441 0 -2965.38482869 0 5721
0.07450000 0.07449140 28922.30673735 0 152.18829431 0 11107.30289137 0 -527.38997506 0 -2609.94421193 0 6028
0.07550000 0.07549160 28283.83777583 0 543.92384822 0 12839.07126494 0 -562.51813266 0 -1726.12556690 0 6183
0.07650000 0.07648840 27906.71394380 0 791.75771554 0 10789.92311798 0 603.12385936 0 -2780.74589978 0 6330
0.07750000 0.07749960 26945.97552582 0 754.83892228 0 11646.66303539 0 540.12450827 0 -1052.88365235 0 6583
0.07850000 0.07848650 26358.98874465 0 350.09681141 0 9778.78162212 0 2183.85610532 0 -3524.13509523 0 6549
0.07950000 0.07947320 25878.45092590 0 169.97999629 0 9151.91301216 0 2641.68780959 0 -1466.09559354 0 6828
0.08050000 0.08048110 25373.97052110 0 323.13948282 0 7713.98648935 0 2008.97406125 0 -3971.20949675 0 7147
0.08150000 0.08149960 25117.90849744 0 211.65695700 0 7564.48583463 0 474.70392102 0 -2515.88244661 0 7386
0.08250000 0.08250610 24756.74638946 0 444.00907607 0 7138.83611340 0 -135.47681887 0 -1941.95730159 0 7227
0.08350000 0.08350160 24341.51675145 0 548.06040769 0 7253.96285818 0 -24.26227016 0 -1727.12598482 0 7798
0.08450000 0.08449610 23906.16634864 0 231.75299238 0 6480.49368138 0 559.75518071 0 -1105.84847452 0 7371
0.08550000 0.08548940 23622.22751118 0 126.49216674 0 6381.03640372 0 1142.97184763 0 -2308.98702926 0 8256
0.08650000 0.08650700 23583.78448568 0 82.29774989 0 5665.06315540 0 1272.95873268 0 -2044.87669968 0 8037
0.08750000 0.08749060 23332.44353533 0 362.24121046 0 4233.91474499 0 1234.94285191 0 -2929.05504553 0 8155
0.08850000 0.08849210 22936.77262960 0 979.49569185 0 5078.27870595 0 -263.32348402 0 -1381.04883011 0 8718
0.08950000 0.08949900 22362.15056423 0 786.80958109 0 5389.85830356 0 -1260.88627380 0 -221.64877144 0 8571
0.09050000 0.09049190 21861.37957417 0 548.97652073 0 6261.27851083 0 -144.67841556 0 543.47197406 0 8932
0.09150000 0.09150830 21573.39410244 0 590.47812729 0 7564.26102161 0 -1002.07478698 0 876.64373766 0 9285
0.09250000 0.09250820 21361.84505568 0 334.28796022 0 7622.15037288 0 -705.94658786 0 267.11045926 0 9204
0.09350000 0.09350330 21323.06481066 0 607.14913639 0 9817.37077608 0 -92.28821544 0 2520.79461098 0 9349
0.09450000 0.09448040 20648.51336029 0 863.50566509 0 9048.52150673 0 389.79878979 0 1924.61297751 0 9564
0.09550000 0.09549270 20028.81628549 0 651.45078905 0 9126.26184719 0 1119.33950353 0 2912.26151334 0 10155
0.09650000 0.09649430 19314.92255757 0 485.46347190 0 9011.64093169 0 987.75082575 0 2468.99769241 0 9913
0.09750000 0.09749140 19324.47711069 0 339.20574491 0 9091.31466407 0 1073.03139472 0 2146.60458880 0 10476
0.09850000 0.09850240 18682.74836046 0 113.28777433 0 7797.88670640 0 646.93991591 0 1773.06652435 0 10575
0.09950000 0.09950330 18661.72834359 0 380.09810821 0 8607.98916394 0 -243.62986394 0 1825.93130474 0 10882
0.10050000 0.10051200 18155.56184117 0 200.44440790 0 7759.55608741 0 59.91649022 0 751.59599454 0 10875
0.10150000 0.10150300 17838.35067755 0 532.35047423 0 7890.48718713 0 -179.25578127 0 733.89421777 0 11118
0.10250000 0.10250800 17626.91403730 0 554.66878626 0 7780.38501322 0 -33.57649817 0 20.59388380 0 11575
0.10350000 0.10349800 16922.12523646 0 492.68109373 0 6972.57564843 0 372.09251676 0 -676.26340147 0 11364
0.10450000 0.10450100 16571.19212064 0 471.13164222 0 7248.30881087 0 164.76658248 0 -828.77430246 0 12093
0.10550000 0.10551000 15879.44247466 0 249.13328654 0 6380.82283135 0 521.71569457 0 -1225.78172156 0 12067
0.10650000 0.10649700 15953.51836297 0 156.39342175 0 6559.74026904 0 844.72815804 0 -540.74386813 0 12054
0.10750000 0.10749900 15706.33645340 0 170.67804070 0 5668.63768234 0 978.58070288 0 -1626.45471687 0 12807
0.10850000 0.10850100 15611.91498726 0 83.25421686 0 5593.01058422 0 805.21165040 0 -531.31633436 0 12736
0.10950000 0.10950300 15432.17698207 0 -19.47678793 0 5316.64794535 0 723.74391016 0 -617.97275898 0 12933
0.11050000 0.11050200 15903.27265421 0 -116.58353312 0 5296.25740492 0 715.83723644 0 -216.47469991 0 13428
0.11150000 0.11150900 15821.55312339 0 -253.07425869 0 5048.54718476 0 546.90037254 0 353.49373606 0 13453
0.11250000 0.11250000 16039.05971504 0 -123.53924779 0 5225.44130532 0 410.93121316 0 205.79495765 0 13668
0.11350000 0.11349100 16154.83841757 0 -88.35218918 0 4885.04067923 0 196.98678374 0 1355.11664887 0 13791
0.11450000 0.11448600 16026.91981225 0 307.21710106 0 4926.43999587 0 167.80605444 0 1135.86775637 0 14205
0.11550000 0.11549300 15822.22756244 0 367.92111127 0 4866.10018275 0 -215.09884426 0 2014.72927442 0 14776
0.11650000 0.11649800 15465.22449522 0 554.49905243 0 5258.46633716 0 -515.55919017 0 658.33343949 0 14553
0.11750000 0.11747300 15248.16752960 0 496.05441302 0 5256.74651760 0 -377.36663008 0 547.88505354 0 14568
0.11850000 0.11849100 14714.68624591 0 314.83826226 0 5660.04982518 0 -712.13456609 0 202.22942324 0 16015
0.11950000 0.11950300 14726.48892918 0 269.14951330 0 5304.02469458 0 -449.34613704 0 -749.19836374 0 15270
0.12050000 0.12050700 14587.66689265 0 201.20202776 0 6043.41221836 0 -3.67336597 0 -677.58867419 0 15999
0.12150000 0.12150000 14485.03975148 0 294.81978737 0 5556.64707910 0 -112.66841447 0 -1584.56081160 0 15670
0.12250000 0.12250700 13966.39612675 0 407.00148167 0 5953.85795399 0 627.58239129 0 -1027.80800869 0 16887
0.12350000 0.12352200 13554.31387095 0 280.07542581 0 5403.69554461 0 606.42411442 0 -799.22600388 0 16407
0.12450000 0.12449800 13523.96411398 0 272.31488054 0 5621.35950536 0 747.75394012 0 -86.18049546 0 16306
0.12550000 0.12549900 12999.36294436 0 114.14318785 0 5087.02393221 0 825.61905180 0 -342.50037964 0 17523
0.12650000 0.12650100 13020.27055472 0 -63.85375295 0 4402.97413198 0 830.39970056 0 -261.77452235 0 17154
0.12750000 0.12750600 13006.10733480 0 -69.55456137 0 3709.02131845 0 761.08310376 0 149.88845717 0 18007
0.12850000 0.12850300 13083.44301183 0 -35.20493124 0 3173.56168023 0 571.90969635 0 5.10326667 0 17496
0.12950000 0.12949900 12978.11811448 0 -19.05942257 0 2547.04153044 0 662.81396287 0 135.68814310 0 18405
0.13050000 0.13049000 12883.02220930 0 129.23825771 0 2348.45295397 0 697.65885607 0 -315.47111090 0 18100
0.13150000 0.13148800 12761.96040092 0 205.17110153 0 2158.72201028 0 215.73281696 0 780.18771374 0 19059
0.13250000 0.13249300 12545.01584182 0 224.95015056 0 1948.82533918 0 603.28010441 0 388.66236000 0 18957
0.13350000 0.13349100 12486.90167754 0 150.84166435 0 2023.49698199 0 51.41226350 0 872.89160845 0 19468
0.13450000 0.13450700 12340.66081153 0 158.71011987 0 1877.82938917 0 -47.92608808 0 972.54672157 0 19953
0.13550000 0.13551000 12223.64563742 0 69.64021513 0 2022.40663887 0 -71.15905186 0 1148.14254696 0 19956
0.13650000 0.13649900 12087.74617008 0 272.21146656 0 2212.04765735 0 -217.18848123 0 696.04020237 0 19723
0.13750000 0.13749600 11953.53280035 0 302.83886760 0 2002.19594885 0 -261.42831031 0 535.77212831 0 20946
0.13850000 0.13851100 11664.53567006 0 316.07473384 0 2554.06693714 0 -478.41221170 0 360.79004245 0 20955
0.13950000 0.13949800 11550.44306514 0 264.43406032 0 2515.47778318 0 -372.43872880 0 -54.13991981 0 20506
0.14050000 0.14048300 11439.27302941 0 173.65006875 0 3147.68570225 0 -371.51249918 0 432.08049751 0 21447
0.14150000 0.14148400 11446.01741985 0 92.76807882 0 3278.75168977 0 -439.70390684 0 83.26118606 0 21771
0.14250000 0.14249400 11412.07065464 0 111.63697236 0 4044.61094603 0 -26.11956288 0 979.56201169 0 22470
0.14350000 0.14350900 11424.99740298 0 84.12143306 0 4037.88903689 0 243.32299418 0 798.11542759 0 22519
0.14450000 0.14449900 11401.72925597 0 57.90643705 0 4048.52269248 0 469.74679405 0 1315.14489488 0 22218
0.14550000 0.14550500 11359.12718970 0 54.94430077 0 3645.98374915 0 588.76055586 0 1425.17962488 0 23559
0.14650000 0.14650700 11263.80647150 0 87.45394878 0 3327.26633833 0 474.60612736 0 948.48498462 0 23044
0.14750000 0.14750500 11038.22909263 0 146.49265659 0 2908.74318966 0 256.48467212 0 1063.53754111 0 23649
0.14850000 0.14849900 10855.68092476 0 209.84159191 0 2891.48879079 0 -37.53062188 0 403.35501457 0 23640
0.14950000 0.14949500 10655.48493524 0 241.98535674 0 2712.60507505 0 -268.89772272 0 659.97007824 0 24457
0.15050000 0.15050000 10367.27465049 0 235.63551314 0 2490.81579548 0 -103.67274650 0 -23.23318859 0 24591
0.15150000 0.15149900 10266.47973539 0 128.82235364 0 2633.08871178 0 4.13419893 0 207.75420307 0 25020
0.15250000 0.15250500 10228.57626112 0 25.05934471 0 2458.03805795 0 441.89246154 0 127.58925425 0 25297
0.15350000 0.15350100 9968.63621297 0 12.14541071 0 2330.94002013 0 392.42685393 0 -372.21841205 0 25452
0.15450000 0.15450400 10153.25266058 0 95.63736733 0 2246.32040143 0 154.74554235 0 -26.90393549 0 26061
0.15550000 0.15549900 9956.87849231 0 146.56010049 0 2342.30431802 0 -178.74433166 0 -719.65118923 0 26128
0.15650000 0.15649500 9932.58744608 0 207.93180535 0 2310.39211060 0 -408.25144203 0 -401.64643566 0 26331
0.15750000 0.15749700 9767.94563482 0 102.72234949 0 2728.20709827 0 -246.36583833 0 -459.69877636 0 27345
0.15850000 0.15849900 9807.35535628 0 24.60769536 0 2933.61874973 0 76.11460514 0 161.75970841 0 26980
0.15950000 0.15949700 9820.02356966 0 151.07209769 0 3044.84498871 0 556.05588256 0 191.23381869 0 27777
0.16050000 0.16050000 9688.54167806 0 83.81737346 0 2787.43408697 0 818.23956460 0 921.64343474 0 28224
0.16150000 0.16150500 9427.36515832 0 243.60625858 0 2557.69766733 0 905.77163590 0 1000.22345180 0 28075
0.16250000 0.16249700 9375.72560886 0 196.10551672 0 2260.23632704 0 672.96764268 0 1453.14636390 0 28590
0.16350000 0.16349900 9021.03811570 0 170.44423516 0 1805.73185538 0 458.02391940 0 1449.33578330 0 29163
0.16450000 0.16449100 8944.42184031 0 127.08342497 0 1651.54384930 0 -158.73934556 0 1150.39067711 0 28996
0.16550000 0.16550500 8843.78429432 0 1.23789914 0 1363.58085888 0 -191.77112180 0 895.43473349 0 30777
0.16650000 0.16650700 8875.87635216 0 17.48359574 0 1252.60191421 0 -278.97496610 0 568.20252974 0 29211
0.16750000 0.16749900 8961.82236765 0 -19.01592125 0 1382.09421063 0 -570.75977778 0 222.14448414 0 30922
0.16850000 0.16850800 8923.80648687 0 104.37169017 0 1519.54488777 0 -403.47528953 0 -241.58181738 0 30867
0.16950000 0.16949900 8967.74619058 0 136.62224118 0 1807.05825216 0 -389.68413515 0 -247.46180178 0 30852
0.17050000 0.17049200 8801.11478415 0 188.46637048 0 2048.46246726 0 -223.76651004 0 -465.02010042 0 31257
0.17150000 0.17149500 8715.78700445 0 181.36003109 0 2108.61118933 0 125.52322265 0 -302.80177346 0 32608
0.17250000 0.17250900 8570.55779700 0 56.26114301 0 2092.59326203 0 108.92797553 0 -406.30680945 0 32361
0.17350000 0.17350400 8555.20306810 0 9.98958879 0 1935.16794855 0 405.73578440 0 -206.65486743 0 32508
0.17450000 0.17449800 8516.90617106 0 22.02515586 0 1790.80427121 0 301.48549326 0 -173.34881931 0 32791
0.17550000 0.17549800 8523.22341677 0 -32.16590891 0 1663.73995534 0 340.88509813 0 -67.29620224 0 33633
0.17650000 0.17650100 8567.50034000 0 8.19175911 0 1631.64789751 0 248.79943921 0 299.95564069 0 33984
0.17750000 0.17750300 8546.97491177 0 2.29456527 0 1478.97737928 0 249.75152233 0 260.33347093 0 34069
