### header ###
fiducial parameters:
Omega_m = 0.31
Omega_nu = 0
Omega_de = 0.69
Omega_k = 0
H_0 = 100
w_de = -1
zeff = 0
beta = 0
fgrowth = 0
b_1 = 2
gamma = 0.55
Lx = 3500 Ly = 3500 Lz = 3500
nx = 700 ny = 700 nz = 700
xoffset = 857.220397 yoffset = 15.9954215 zoffset = 262.898189
bins = 400 dk = 0.001
kx_ny = 0.628318531 ky_ny = 0.628318531 kz_ny = 0.628318531
############################
A(data) = 3.04279615 (not used)
A(ran) = 3.04358129 (used)
Ngal = 185600
weighted Ngal = 0
Nran = 9360983
weighted Nran = 0
SN(data) = 3442.08083
SN(ran) = 68.3473974
SN(data+ran) = 3510.42823
############################
13 columns: k_central k_mean P_0(k) sigma^{lin}_{P_0(k)} P^img_1(k) sigma^{lin}_{P_1(k)} P_2(k) sigma^{lin}_{P_2(k)} P^img_3(k) sigma^{lin}_{P_3(k)} P_4(k) sigma^{lin}_{P_4(k)} N_modes
### header ###
0.00050000 0 0 0 0 0 0 0 0 0 0 0 0
0.00150000 0.00179520 7806.73309853 0 -15707.34811197 0 -19557.72061336 0 25367.56335018 0 8680.58128636 0 3
0.00250000 0.00253879 18395.21251476 0 -20803.97155990 0 -10608.82499405 0 -15612.70183281 0 7378.34065852 0 6
0.00350000 0.00331552 33135.41503783 0 -25415.22370928 0 -28716.82764198 0 -325.17628874 0 -18834.83436485 0 7
0.00450000 0.00420575 50987.36690276 0 -27818.47483556 0 -32171.97886368 0 -16794.76866368 0 -9613.13939295 0 24
0.00550000 0.00557378 73786.32915440 0 -16796.34235478 0 -48590.63535390 0 -29078.43937600 0 -14995.14048165 0 45
0.00650000 0.00659388 88309.92433789 0 -13646.59961345 0 -36610.01258529 0 -41372.78870652 0 -24625.90521495 0 40
0.00750000 0.00754703 80909.30470962 0 4198.16947566 0 -52086.81495076 0 -34284.99638809 0 -14270.68054204 0 57
0.00850000 0.00846663 76172.71930459 0 6958.82833259 0 -41098.06720265 0 -36221.64810253 0 -28768.75944836 0 75
0.00950000 0.00948925 58658.99862016 0 4830.23126626 0 -38805.76129908 0 -18824.04334015 0 -15088.43788272 0 112
0.01050000 0.01054430 64622.61345898 0 1403.97975760 0 -48771.49742416 0 -10391.66686258 0 -19846.71774365 0 105
0.01150000 0.01145670 56329.37375616 0 -2801.47365973 0 -35953.89580212 0 -7770.31339016 0 -9042.19302037 0 144
0.01250000 0.01249090 61111.14657712 0 -3675.96256465 0 -34941.33798427 0 -9911.06159993 0 358.68466857 0 169
0.01350000 0.01339930 63131.31632649 0 -4733.55042933 0 -25905.42848766 0 -5294.97597074 0 11423.53611838 0 180
0.01450000 0.01448870 71178.94781084 0 -422.44501171 0 -13859.38513179 0 -13070.40385698 0 27900.19436638 0 267
0.01550000 0.01550050 71132.74873634 0 6253.21896425 0 14101.17152901 0 -10077.20965838 0 10316.17465227 0 238
0.01650000 0.01653350 68451.62872398 0 8582.75390305 0 14697.82526981 0 -7318.91133811 0 27704.04501112 0 315
0.01750000 0.01747870 64313.72037689 0 7122.64957634 0 33256.81406572 0 -1909.32569252 0 14903.86639771 0 297
0.01850000 0.01844180 57082.72216815 0 3419.40595237 0 18446.13266257 0 5266.66077155 0 19442.39153686 0 388
0.01950000 0.01947590 56112.65401006 0 -1448.36908734 0 22268.51594364 0 12464.98240861 0 -2414.19952010 0 399
0.02050000 0.02045430 56592.06776374 0 -2760.80498539 0 11465.80096513 0 9382.69481232 0 -5086.61926879 0 462
0.02150000 0.02154770 53462.89541325 0 -115.62133342 0 3433.05210235 0 2353.21898988 0 -11450.40127363 0 571
0.02250000 0.02255340 49957.83570231 0 3937.18404699 0 178.90844516 0 -811.21865415 0 -8380.51211509 0 510
0.02350000 0.02348930 45808.68670449 0 4175.42963923 0 -448.82344678 0 -3475.12585804 0 -7494.93992855 0 555
0.02450000 0.02439640 47373.72250576 0 1287.26808106 0 6260.32305552 0 -4300.65048838 0 -16415.62151452 0 592
0.02550000 0.02547300 45107.49491189 0 -2146.12124081 0 5761.15947850 0 -4692.51081351 0 -4919.03240704 0 837
0.02650000 0.02652900 52126.26963483 0 -3847.31504439 0 14381.28854523 0 -3367.90129072 0 -7820.55909893 0 723
0.02750000 0.02749970 54142.72996946 0 -4158.70355094 0 15322.91785697 0 -6100.61588993 0 2167.81569673 0 826
0.02850000 0.02848090 60012.93500070 0 -1252.29841664 0 21628.36088451 0 13.93121289 0 -2006.11893596 0 831
0.02950000 0.02946900 60493.36041295 0 -1297.98042121 0 18535.49583588 0 1428.07971277 0 4057.17799354 0 996
0.03050000 0.03053250 59862.64750043 0 1271.20519117 0 22228.38682053 0 5454.69437697 0 -793.85522097 0 1041
0.03150000 0.03150510 59311.96802112 0 2094.33556290 0 21316.88245276 0 5354.37156920 0 -759.86124502 0 1036
0.03250000 0.03246190 57240.09127838 0 4491.28068412 0 17152.22135693 0 3394.85637117 0 8906.99047338 0 1059
0.03350000 0.03345080 52955.49243925 0 2769.08934498 0 17832.73035218 0 4311.73377000 0 -334.17330558 0 1302
0.03450000 0.03451200 52053.43021809 0 1050.25896040 0 15996.34524226 0 2440.30031110 0 10876.10518713 0 1339
0.03550000 0.03553350 52265.76611040 0 -921.43660676 0 12334.81567315 0 7074.19113104 0 5235.15322755 0 1365
0.03650000 0.03647120 52580.50433086 0 -811.99763125 0 8654.15451649 0 3073.17142855 0 6409.37408421 0 1308
0.03750000 0.03744890 52671.77841480 0 1257.00824929 0 9841.89787598 0 626.84725273 0 6544.39678079 0 1579
0.03850000 0.03847530 51797.14338142 0 2773.12473859 0 11753.78643686 0 -5004.19157698 0 6151.78333206 0 1662
0.03950000 0.03950240 49416.82318263 0 1937.26995023 0 15411.04455870 0 -3475.44059626 0 2828.49618409 0 1683
0.04050000 0.04050350 49773.37662381 0 -39.80123333 0 20701.34441873 0 -3024.80290846 0 3008.20046733 0 1822
0.04150000 0.04152450 49452.68085846 0 -538.26530464 0 18673.19380734 0 658.45371445 0 2716.52806216 0 1887
0.04250000 0.04250150 51190.82268099 0 -424.31882818 0 21265.84989844 0 3681.69529652 0 -2247.69176082 0 1920
0.04350000 0.04349210 52847.80700525 0 515.75590156 0 23698.66393615 0 -387.60798696 0 7732.69093216 0 2005
0.04450000 0.04448520 50154.99671613 0 2180.85485157 0 22265.03134192 0 4677.33593502 0 2866.26477055 0 2151
0.04550000 0.04548030 48485.08564354 0 2886.07079713 0 20611.86883891 0 1472.55896771 0 9775.75788708 0 2274
0.04650000 0.04648670 45682.34179027 0 2362.09910396 0 17037.67912598 0 3096.63066663 0 6415.63512667 0 2311
0.04750000 0.04749250 43143.19119665 0 1862.62078873 0 18062.93887915 0 3152.66531052 0 7244.25093595 0 2568
0.04850000 0.04851840 40971.49747542 0 1792.52409077 0 16352.89868345 0 978.10634742 0 4414.95666566 0 2493
0.04950000 0.04949480 41349.18333998 0 1686.50227307 0 18582.81897546 0 -188.12240657 0 6942.07976300 0 2644
0.05050000 0.05050630 40041.44603394 0 685.28627181 0 17301.27238562 0 -3678.27813870 0 6806.18029566 0 2829
0.05150000 0.05149060 40619.10307500 0 -967.75145997 0 18507.84383508 0 -1418.83989787 0 5431.58359907 0 2784
0.05250000 0.05249300 42912.98266968 0 -1621.63247771 0 20688.75488991 0 1609.24528060 0 6102.68416966 0 3055
0.05350000 0.05348950 42883.08253873 0 -608.02141089 0 19249.61437682 0 2452.66502690 0 2506.28293089 0 3009
0.05450000 0.05448610 44045.81545034 0 503.07981973 0 19188.01561082 0 2691.42768908 0 4978.47296811 0 3336
0.05550000 0.05550870 42681.42526462 0 929.25672748 0 15555.26210757 0 2305.67103729 0 4891.11063062 0 3349
0.05650000 0.05647670 42030.70399380 0 1005.50093732 0 16461.25855649 0 3502.84530274 0 3553.10225216 0 3324
0.05750000 0.05747970 40526.81733250 0 719.17570970 0 11735.57658268 0 3082.56861256 0 801.29315955 0 3639
0.05850000 0.05849280 40025.48430990 0 910.82768060 0 11490.64280325 0 1245.56526685 0 799.02704437 0 3846
0.05950000 0.05951020 37259.27257151 0 1845.99586630 0 7891.99343432 0 767.01591921 0 1632.16496744 0 3787
0.06050000 0.06049470 36919.69251293 0 787.27269590 0 9548.79790817 0 1149.31157464 0 1110.60551791 0 3930
0.06150000 0.06148310 35067.34567897 0 641.48820031 0 7558.17982957 0 2360.57037546 0 1641.87688967 0 4083
0.06250000 0.06249100 36040.67362576 0 66.10345679 0 7938.85570722 0 3260.55307624 0 1334.57997999 0 4303
0.06350000 0.06350600 34502.16576021 0 534.60872096 0 5501.28687425 0 1327.86931150 0 219.65468000 0 4470
0.06450000 0.06451750 35855.42770172 0 552.80845856 0 8448.05718534 0 -1084.74977310 0 1283.54742567 0 4479
0.06550000 0.06550280 34478.44798717 0 347.76325232 0 7056.49834679 0 -2443.20039898 0 13.14425493 0 4636
0.06650000 0.06648880 35120.06433089 0 919.38743613 0 9620.09735575 0 -2958.82028867 0 2146.97553027 0 4653
0.06750000 0.06749660 34182.14443390 0 614.90855759 0 11301.12543192 0 -2786.45615036 0 -812.25953841 0 5220
0.06850000 0.06852730 34555.78366420 0 1003.54056783 0 13043.53870173 0 -1108.74968648 0 -1108.93066095 0 5029
0.06950000 0.06949320 32580.46411124 0 1034.05556237 0 13329.72566935 0 157.81086781 0 -1795.27805020 0 5040
0.07050000 0.07048030 32448.61127817 0 1001.50825818 0 13089.85018275 0 1864.18323918 0 -291.20591816 0 5475
0.07150000 0.07148790 31516.42411305 0 1108.41359102 0 14113.87346434 0 3263.01477875 0 118.04369365 0 5509
0.07250000 0.07249820 30085.26446198 0 544.25095116 0 11466.25059116 0 3017.37283832 0 485.26114019 0 5916
0.07350000 0.07351270 29555.60499953 0 690.16583830 0 11853.49100884 0 2780.61101198 0 410.84353609 0 5721
0.07450000 0.07449140 28802.81862008 0 487.70935392 0 8398.10373349 0 1532.84257758 0 624.29112875 0 6028
0.07550000 0.07549160 28420.86130824 0 120.32666981 0 10090.19260998 0 479.20242944 0 1871.79315972 0 6183
0.07650000 0.07648840 28088.25045311 0 -243.49497613 0 7253.63687931 0 648.89241694 0 135.28010748 0 6330
0.07750000 0.07749960 28294.06676799 0 -452.32378542 0 7382.08379521 0 667.21130544 0 -802.04291096 0 6583
0.07850000 0.07848650 28350.49483466 0 102.09590802 0 7322.13740487 0 85.47255928 0 -436.11027080 0 6549
0.07950000 0.07947320 27915.36924487 0 920.05737892 0 7086.82562246 0 -411.35948196 0 -1270.53075212 0 6828
0.08050000 0.08048110 27398.29931124 0 1273.52076522 0 7171.60261028 0 -1585.17904739 0 -630.95009025 0 7147
0.08150000 0.08149960 25859.45422617 0 1383.89271475 0 8644.82477638 0 -773.01393044 0 -16.97821608 0 7386
0.08250000 0.08250610 25064.06578044 0 1170.73625493 0 8246.25378276 0 248.18345155 0 218.68685997 0 7227
0.08350000 0.08350160 23963.83088689 0 537.26376266 0 8145.51507091 0 603.44196978 0 -226.18212588 0 7798
0.08450000 0.08449610 23689.33419604 0 368.70346056 0 7309.00832481 0 1361.95096452 0 840.49830117 0 7371
0.08550000 0.08548940 23458.78844955 0 63.12502156 0 6811.04749743 0 1146.98475994 0 -1494.21970167 0 8256
0.08650000 0.08650700 22792.44267422 0 344.16736815 0 5700.90959059 0 729.19562577 0 -584.58690224 0 8037
0.08750000 0.08749060 22958.01745948 0 435.41784672 0 5973.28179845 0 360.80802749 0 -1037.18158734 0 8155
0.08850000 0.08849210 22200.06038069 0 862.37035937 0 5530.28775314 0 -446.77315208 0 171.26367860 0 8718
0.08950000 0.08949900 21672.87386141 0 742.56750387 0 6822.32187011 0 190.29522436 0 582.95700789 0 8571
0.09050000 0.09049190 21209.42183177 0 495.11806681 0 7877.24570057 0 121.61260026 0 2027.48741300 0 8932
0.09150000 0.09150830 21093.53072273 0 289.52319275 0 7272.24015627 0 624.82955592 0 2002.85914725 0 9285
0.09250000 0.09250820 20742.14798088 0 143.11933730 0 7610.75235304 0 705.76561338 0 1786.78011825 0 9204
0.09350000 0.09350330 20664.25027132 0 392.42235767 0 7725.00232706 0 388.59154390 0 2382.83810456 0 9349
0.09450000 0.09448040 20128.74567049 0 432.83586924 0 6165.19342838 0 869.81504234 0 265.49180555 0 9564
0.09550000 0.09549270 19678.89482824 0 502.34692930 0 5997.14569995 0 -55.91088433 0 -222.98078855 0 10155
0.09650000 0.09649430 19171.26704123 0 282.38650360 0 4613.66888928 0 -244.46054803 0 -1359.83772218 0 9913
0.09750000 0.09749140 19080.66739634 0 302.17679328 0 5007.76610391 0 80.01803351 0 -1331.60120755 0 10476
0.09850000 0.09850240 18650.82491238 0 109.15323818 0 4360.60811937 0 -266.41129078 0 -3129.35220091 0 10575
0.09950000 0.09950330 18537.74396603 0 334.64091665 0 5504.60286622 0 -628.91440840 0 -1960.43693139 0 10882
0.10050000 0.10051200 18668.13551451 0 531.69289616 0 5850.80366808 0 -1217.58728718 0 -1689.13258535 0 10875
0.10150000 0.10150300 18217.83504622 0 331.25298452 0 6767.00662787 0 -309.72938650 0 -1198.62430940 0 11118
0.10250000 0.10250800 18126.89818181 0 118.12237821 0 7560.31555321 0 347.45638255 0 1080.36816745 0 11575
0.10350000 0.10349800 18093.06382311 0 81.25191974 0 6924.65675437 0 898.95980156 0 -801.28866329 0 11364
0.10450000 0.10450100 18375.99100201 0 -18.96657479 0 7128.95558140 0 1846.86139640 0 955.33953343 0 12093
0.10550000 0.10551000 17860.71957250 0 180.16402585 0 5731.82138010 0 811.12648081 0 -1024.78539771 0 12067
0.10650000 0.10649700 17858.80866188 0 328.98124901 0 6421.15428617 0 465.71477263 0 839.33601789 0 12054
0.10750000 0.10749900 17324.20331311 0 344.34384636 0 5836.60672621 0 -307.86793474 0 -232.73767339 0 12807
0.10850000 0.10850100 17433.57484472 0 301.03024690 0 6014.45630208 0 -220.77424881 0 890.62598311 0 12736
0.10950000 0.10950300 16917.96619569 0 250.22475373 0 5877.25291925 0 -72.48443699 0 689.59930950 0 12933
0.11050000 0.11050200 16860.52647046 0 330.50660531 0 6343.79612784 0 477.22182678 0 758.99459085 0 13428
0.11150000 0.11150900 16354.24756153 0 486.47288234 0 6363.34361946 0 462.33470896 0 922.19759882 0 13453
0.11250000 0.11250000 16184.96336152 0 548.31781859 0 5953.29592145 0 402.18373876 0 862.28605449 0 13668
0.11350000 0.11349100 15427.34350226 0 327.47162962 0 6454.47157494 0 489.75402828 0 1548.91670813 0 13791
0.11450000 0.11448600 15536.71503387 0 93.16588545 0 6065.89351982 0 216.04643111 0 1401.78783071 0 14205
0.11550000 0.11549300 15420.71151832 0 -77.33286687 0 6233.34549376 0 318.85567083 0 1931.25620209 0 14776
0.11650000 0.11649800 15384.85384249 0 159.24405078 0 6358.54386160 0 348.88506926 0 1617.45095563 0 14553
0.11750000 0.11747300 15299.76211646 0 406.91380459 0 6148.48982139 0 -85.16321657 0 1436.71253253 0 14568
0.11850000 0.11849100 14868.45834791 0 447.71062236 0 6162.13597138 0 154.86244512 0 1742.72800803 0 16015
0.11950000 0.11950300 14522.24630540 0 355.70926832 0 5844.03679634 0 128.82909803 0 1123.82901943 0 15270
0.12050000 0.12050700 14256.85454164 0 305.11285125 0 6192.96907634 0 657.17677653 0 1871.74819712 0 15999
0.12150000 0.12150000 14109.48961055 0 165.81758332 0 5274.72031812 0 249.51771680 0 1028.96467165 0 15670
0.12250000 0.12250700 13840.05121253 0 118.09202845 0 5711.46456162 0 667.31471943 0 2010.05316372 0 16887
0.12350000 0.12352200 13745.85455941 0 159.67344363 0 5113.81040291 0 540.94732391 0 1798.79637388 0 16407
0.12450000 0.12449800 13894.34355556 0 164.93294411 0 5773.55791626 0 98.59275922 0 2826.74264258 0 16306
0.12550000 0.12549900 13578.93089605 0 200.52196839 0 5086.01227365 0 710.00895903 0 2323.18397113 0 17523
0.12650000 0.12650100 13489.56772274 0 229.01139767 0 5425.68225744 0 187.71774314 0 3160.25274976 0 17154
0.12750000 0.12750600 13279.92958661 0 211.60862221 0 5004.15785503 0 321.86591710 0 2936.10293354 0 18007
0.12850000 0.12850300 13045.78683188 0 200.36909554 0 5185.68312368 0 74.85542745 0 3206.14832670 0 17496
0.12950000 0.12949900 12939.11305644 0 11.90677169 0 4390.01366169 0 431.38357717 0 1968.48523731 0 18405
0.13050000 0.13049000 12915.28287689 0 -113.41816588 0 4132.87253556 0 571.56236024 0 1799.17855600 0 18100
0.13150000 0.13148800 12729.36251380 0 -55.06614943 0 3488.65960152 0 593.12417647 0 1284.41295578 0 19059
0.13250000 0.13249300 12939.67508898 0 185.75962179 0 3462.85106744 0 650.71677456 0 1061.40968592 0 18957
0.13350000 0.13349100 12519.27475164 0 303.26601233 0 2711.71706365 0 198.92129973 0 963.83072099 0 19468
0.13450000 0.13450700 12362.80489347 0 417.95324767 0 3247.57012464 0 482.75672320 0 1934.50475015 0 19953
0.13550000 0.13551000 11988.49122412 0 300.91671633 0 3060.03110785 0 -272.53070104 0 1557.38091813 0 19956
0.13650000 0.13649900 11965.78510965 0 354.75606114 0 3999.19871707 0 -348.12182907 0 2722.22707208 0 19723
0.13750000 0.13749600 11663.18679197 0 320.05055200 0 4008.76451084 0 -657.26557767 0 2290.95702548 0 20946
0.13850000 0.13851100 11528.86101573 0 176.39166347 0 4588.80456986 0 -395.93955728 0 2612.28226728 0 20955
0.13950000 0.13949800 11555.83857749 0 11.47209573 0 4654.87711486 0 -7.68157969 0 2845.72810166 0 20506
0.14050000 0.14048300 11440.73431400 0 -7.54034092 0 4415.35008843 0 348.53323689 0 1939.19210151 0 21447
0.14150000 0.14148400 11565.73035013 0 12.56367532 0 4244.39103147 0 401.46658525 0 1696.86615305 0 21771
0.14250000 0.14249400 11310.67998505 0 70.68267308 0 3755.27659621 0 321.74676620 0 1546.81470644 0 22470
0.14350000 0.14350900 11415.10563034 0 128.28167834 0 4287.90359045 0 17.46482385 0 2276.76008361 0 22519
0.14450000 0.14449900 11244.69736525 0 37.89223361 0 3720.36313504 0 201.47742370 0 2012.05399955 0 22218
0.14550000 0.14550500 11368.90655583 0 37.45137529 0 4591.31123498 0 213.69601105 0 2820.15562125 0 23559
0.14650000 0.14650700 11420.05151666 0 -61.17420663 0 4045.81369565 0 229.29241394 0 2082.06077230 0 23044
0.14750000 0.14750500 11462.42876991 0 -20.90064116 0 4407.51535488 0 564.12104946 0 3095.31551049 0 23649
0.14850000 0.14849900 11445.11816779 0 -4.76329319 0 4047.37614611 0 193.22566200 0 1846.95132161 0 23640
0.14950000 0.14949500 11534.48134110 0 137.01341583 0 4194.25772921 0 230.33329819 0 2158.58712248 0 24457
0.15050000 0.15050000 11282.80317123 0 277.23491337 0 3597.42413799 0 -209.56956816 0 1103.47107689 0 24591
0.15150000 0.15149900 10927.55364553 0 287.59204895 0 3447.76611416 0 -429.34901939 0 614.66126327 0 25020
0.15250000 0.15250500 10681.65317014 0 336.11906222 0 3291.88076982 0 -202.60486097 0 320.82053658 0 25297
0.15350000 0.15350100 10526.41978354 0 220.80010231 0 3130.91465136 0 142.34485647 0 -267.31054284 0 25452
0.15450000 0.15450400 10279.65377805 0 105.98652205 0 3062.48156971 0 352.31009554 0 227.11172769 0 26061
0.15550000 0.15549900 10250.38312354 0 92.38848205 0 2973.75911349 0 692.90855708 0 99.03811380 0 26128
0.15650000 0.15649500 10046.76997620 0 147.72688004 0 2606.54953541 0 604.47723371 0 391.30616105 0 26331
0.15750000 0.15749700 9875.91208509 0 204.96090136 0 2424.31610576 0 368.55395991 0 156.87901786 0 27345
0.15850000 0.15849900 9662.94671634 0 235.80861916 0 2363.96505198 0 71.42837785 0 787.45029818 0 26980
0.15950000 0.15949700 9457.80484050 0 208.20832536 0 2467.13174439 0 -38.11479850 0 582.68835633 0 27777
0.16050000 0.16050000 9323.22052930 0 115.78994318 0 2186.56510214 0 35.20200867 0 653.79783692 0 28224
0.16150000 0.16150500 9234.65544219 0 48.72529835 0 2248.41116247 0 51.87987457 0 259.83775823 0 28075
0.16250000 0.16249700 9235.09382757 0 36.28324687 0 2102.36138752 0 63.43796128 0 60.07026232 0 28590
0.16350000 0.16349900 9277.90946620 0 3.93499212 0 2063.69354900 0 30.87694349 0 334.48017535 0 29163
0.16450000 0.16449100 9139.03122642 0 36.46545782 0 2162.70120064 0 -314.36615493 0 -172.32367197 0 28996
0.16550000 0.16550500 9251.55014024 0 187.23439516 0 2486.00479697 0 -430.97891374 0 229.18899995 0 30777
0.16650000 0.16650700 9167.50379472 0 196.19094566 0 2657.85186534 0 -417.65087417 0 -355.50019221 0 29211
0.16750000 0.16749900 9068.00155445 0 159.15524964 0 2937.96888156 0 -260.03559369 0 234.03259635 0 30922
0.16850000 0.16850800 8996.11759303 0 69.20947340 0 2814.07442920 0 111.80771785 0 -323.14510315 0 30867
0.16950000 0.16949900 8958.27032202 0 5.97484425 0 3031.26628263 0 172.55635344 0 -186.42169611 0 30852
0.17050000 0.17049200 8957.65208623 0 -24.78035176 0 2648.06125856 0 370.50870907 0 -331.45306810 0 31257
0.17150000 0.17149500 8894.97421775 0 118.12125414 0 2710.69416443 0 227.00494151 0 -536.84561046 0 32608
0.17250000 0.17250900 8788.85123420 0 137.10671323 0 2411.08585985 0 263.36395037 0 -58.84154679 0 32361
0.17350000 0.17350400 8549.74011185 0 188.62261553 0 2502.24753727 0 208.32298000 0 133.48609963 0 32508
0.17450000 0.17449800 8462.72623454 0 146.72871025 0 2172.80654565 0 519.47318475 0 403.72595604 0 32791
0.17550000 0.17549800 8349.45419712 0 83.26793045 0 2378.39804752 0 380.95801799 0 390.11015581 0 33633
0.17650000 0.17650100 8321.91460283 0 45.45797840 0 1957.61552806 0 455.41833656 0 573.05624272 0 33984
0.17750000 0.17750300 8255.25754400 0 -45.66458156 0 1943.92441547 0 287.40995041 0 465.63383995 0 34069
0.17850000 0.17849800 8351.09533213 0 -15.03380832 0 1646.45183452 0 -14.83653490 0 446.43031224 0 34536
