### header ###
fiducial parameters:
Omega_m = 0.31
Omega_nu = 0
Omega_de = 0.69
Omega_k = 0
H_0 = 100
w_de = -1
zeff = 0
beta = 0
fgrowth = 0
b_1 = 2
gamma = 0.55
Lx = 3500 Ly = 3500 Lz = 3500
nx = 700 ny = 700 nz = 700
xoffset = 857.220397 yoffset = 15.9954215 zoffset = 262.898189
bins = 400 dk = 0.001
kx_ny = 0.628318531 ky_ny = 0.628318531 kz_ny = 0.628318531
############################
A(data) = 3.05513295 (not used)
A(ran) = 3.05608385 (used)
Ngal = 186921
weighted Ngal = 0
Nran = 9360983
weighted Nran = 0
SN(data) = 3435.89153
SN(ran) = 68.6281579
SN(data+ran) = 3504.51969
############################
13 columns: k_central k_mean P_0(k) sigma^{lin}_{P_0(k)} P^img_1(k) sigma^{lin}_{P_1(k)} P_2(k) sigma^{lin}_{P_2(k)} P^img_3(k) sigma^{lin}_{P_3(k)} P_4(k) sigma^{lin}_{P_4(k)} N_modes
### header ###
0.00050000 0 0 0 0 0 0 0 0 0 0 0 0
0.00150000 0.00179520 9015.75500985 0 -17705.93581194 0 1328.11660582 0 -27072.43284655 0 1462.52106661 0 3
0.00250000 0.00253879 17803.39225377 0 -17739.54535762 0 -13010.60359509 0 1344.19073636 0 -2154.69785732 0 6
0.00350000 0.00331552 29013.58082128 0 -19538.38669410 0 -12469.47866890 0 -10816.34988785 0 7536.67646472 0 7
0.00450000 0.00420575 35387.92903781 0 -13818.24435011 0 -22097.43323952 0 -3300.96321562 0 7207.06686333 0 24
0.00550000 0.00557378 47988.81091376 0 -7242.82337331 0 -6015.38927609 0 -12452.16806678 0 -145.44952420 0 45
0.00650000 0.00659388 46933.42621663 0 -9006.56015756 0 -37584.12737763 0 9557.62181899 0 18412.07349086 0 40
0.00750000 0.00754703 62358.52158874 0 -6714.98489628 0 8373.05956366 0 -2107.10494213 0 25281.57237209 0 57
0.00850000 0.00846663 63881.85457580 0 -6867.68913646 0 -26111.80683508 0 12761.84799442 0 8726.47686329 0 75
0.00950000 0.00948925 79882.35885883 0 -8482.04891315 0 4485.49174900 0 18751.09151690 0 4803.29866711 0 112
0.01050000 0.01054430 90293.11234635 0 -1827.86469667 0 -9432.85059588 0 -15598.65101940 0 16402.46995317 0 105
0.01150000 0.01145670 85983.22204308 0 9399.72439817 0 5025.96471744 0 -12657.98438166 0 -13772.94452767 0 144
0.01250000 0.01249090 84458.31536491 0 6874.38856430 0 12558.16740317 0 -18516.27432313 0 7243.34044324 0 169
0.01350000 0.01339930 75158.81260866 0 5345.43525187 0 15801.31995208 0 2690.98930370 0 -27249.24828255 0 180
0.01450000 0.01448870 81440.98748919 0 -5560.30029059 0 17068.14128946 0 1966.20338521 0 -34506.66202050 0 267
0.01550000 0.01550050 76208.23976090 0 -5859.08802767 0 20600.62818818 0 -14695.23992015 0 -81510.22989769 0 238
0.01650000 0.01653350 83224.65394719 0 3731.91852399 0 12879.53760757 0 -15104.39960675 0 -58179.36005346 0 315
0.01750000 0.01747870 79446.44642348 0 5172.80133794 0 21069.47573017 0 -15133.28807913 0 -70507.09411665 0 297
0.01850000 0.01844180 68135.99125145 0 9138.45795323 0 20781.93988447 0 -3455.72449488 0 -43467.25915722 0 388
0.01950000 0.01947590 69205.42676200 0 2851.11237336 0 14369.82308148 0 12060.76860832 0 -56170.76817434 0 399
0.02050000 0.02045430 65438.79710855 0 1219.83541733 0 9676.81767934 0 16682.69937589 0 -38426.38933691 0 462
0.02150000 0.02154770 68514.68877458 0 -597.48442489 0 1633.32275447 0 15361.47328897 0 -27082.99905824 0 571
0.02250000 0.02255340 64206.70938193 0 47.08573703 0 5582.52305709 0 8864.56825752 0 -3178.50756655 0 510
0.02350000 0.02348930 68691.16699106 0 154.88829862 0 2871.76144875 0 4592.45778135 0 9198.38186228 0 555
0.02450000 0.02439640 69764.64913587 0 366.06752797 0 1299.36302125 0 1866.57749779 0 6862.31610541 0 592
0.02550000 0.02547300 67436.48555646 0 998.09559662 0 1481.88870782 0 1961.16757369 0 19858.74523993 0 837
0.02650000 0.02652900 66443.71128390 0 1075.84268146 0 11171.98159568 0 3440.90931722 0 10417.62152512 0 723
0.02750000 0.02749970 61503.67010065 0 795.36484036 0 6199.69098547 0 6346.24658970 0 19711.26790234 0 826
0.02850000 0.02848090 62225.43228408 0 503.79247698 0 7239.19264312 0 7381.81401960 0 2539.93743917 0 831
0.02950000 0.02946900 61122.05000833 0 667.84078188 0 -5179.03989910 0 3793.06766397 0 1635.72825372 0 996
0.03050000 0.03053250 58479.59783449 0 1020.05758002 0 1401.72038681 0 -5165.10149219 0 -6760.08238702 0 1041
0.03150000 0.03150510 59329.39102975 0 448.60537815 0 -1507.70848255 0 -9392.14819958 0 -11275.04712223 0 1036
0.03250000 0.03246190 59382.78412072 0 375.95480435 0 2424.70952853 0 -13334.78396217 0 -8141.72697161 0 1059
0.03350000 0.03345080 59911.76914412 0 2305.87336900 0 11140.50777363 0 -18014.04204847 0 -23414.27547265 0 1302
0.03450000 0.03451200 61653.05834886 0 4092.23758317 0 22423.74933024 0 -17878.36739415 0 -25772.56399602 0 1339
0.03550000 0.03553350 57854.05562131 0 4870.30418612 0 30983.72967490 0 -10362.29504222 0 -27379.52742452 0 1365
0.03650000 0.03647120 54509.84962233 0 5700.34755805 0 31338.93423800 0 -6107.02306085 0 -27743.38728868 0 1308
0.03750000 0.03744890 50926.21776278 0 2798.28131493 0 35155.24756768 0 2305.71599989 0 -29644.85576634 0 1579
0.03850000 0.03847530 47074.94600933 0 2525.93158836 0 31620.17531929 0 9785.42484671 0 -28883.52649233 0 1662
0.03950000 0.03950240 45227.32024868 0 1807.95750422 0 22272.45017140 0 12009.39883448 0 -24903.21206848 0 1683
0.04050000 0.04050350 41518.01791396 0 632.60134184 0 18653.74748157 0 11547.40808944 0 -23360.65756867 0 1822
0.04150000 0.04152450 41593.55508687 0 85.57147701 0 14387.69571615 0 6990.57193025 0 -12502.07655602 0 1887
0.04250000 0.04250150 38491.02307861 0 783.96569645 0 10675.39212768 0 3886.15149267 0 -19214.88076606 0 1920
0.04350000 0.04349210 41008.02959029 0 645.18862253 0 12887.06884356 0 -1727.45196369 0 -2019.05692495 0 2005
0.04450000 0.04448520 38672.89680744 0 1518.39834139 0 13405.60006178 0 -635.30022208 0 -6696.58395104 0 2151
0.04550000 0.04548030 39971.30437338 0 2178.38190841 0 20474.50808698 0 -611.90842791 0 4094.81169219 0 2274
0.04650000 0.04648670 37502.74506634 0 2672.89185602 0 20897.60618049 0 -645.55394368 0 2398.13663020 0 2311
0.04750000 0.04749250 36033.47960929 0 1468.23131718 0 21973.67367497 0 5702.42707843 0 6328.67745261 0 2568
0.04850000 0.04851840 34928.41123593 0 492.37085177 0 19805.35214896 0 5577.25119189 0 9015.20421797 0 2493
0.04950000 0.04949480 35588.01262083 0 -536.29931483 0 20832.97243879 0 4974.56122165 0 10121.35169380 0 2644
0.05050000 0.05050630 35932.65097224 0 -692.52862308 0 17999.99123506 0 4592.44654070 0 11888.56183913 0 2829
0.05150000 0.05149060 35939.28295617 0 -215.68897842 0 13590.73357932 0 3753.37692624 0 9295.09642117 0 2784
0.05250000 0.05249300 36464.55856483 0 156.47772663 0 14969.73661100 0 1790.73682730 0 15485.34526003 0 3055
0.05350000 0.05348950 36260.99038009 0 -183.01128268 0 14911.17282069 0 2306.03073811 0 11710.73474456 0 3009
0.05450000 0.05448610 37718.45315387 0 -845.14518619 0 14523.59518348 0 2918.71364686 0 15953.29354996 0 3336
0.05550000 0.05550870 37772.07105786 0 -713.48794043 0 13803.63150416 0 2215.91444120 0 12928.32203174 0 3349
0.05650000 0.05647670 38402.67156387 0 -42.57565074 0 12626.39815311 0 733.46145272 0 11351.14632768 0 3324
0.05750000 0.05747970 37413.15708002 0 581.03485661 0 11849.21956157 0 793.73269787 0 10799.57883696 0 3639
0.05850000 0.05849280 37239.03940019 0 837.71848825 0 12662.14342243 0 -1243.73304078 0 7734.01732895 0 3846
0.05950000 0.05951020 35989.75347795 0 87.15168769 0 8918.75943470 0 1663.76243665 0 5273.78734411 0 3787
0.06050000 0.06049470 35960.41537954 0 461.71534910 0 10482.28898877 0 -333.63487841 0 993.97027780 0 3930
0.06150000 0.06148310 35338.13295508 0 1047.15429267 0 9072.99240338 0 -514.17996232 0 -1626.97178680 0 4083
0.06250000 0.06249100 33611.00697026 0 1426.23624605 0 8560.27260158 0 -1198.84912241 0 -2573.37837510 0 4303
0.06350000 0.06350600 33384.95748406 0 1151.77327715 0 9112.69438176 0 -873.79535677 0 -2465.87279151 0 4470
0.06450000 0.06451750 31922.54882396 0 505.74272988 0 9277.42611822 0 604.02873175 0 -1982.60349463 0 4479
0.06550000 0.06550280 31853.75604148 0 23.91954272 0 8292.10439709 0 1927.95145078 0 -2401.64371323 0 4636
0.06650000 0.06648880 31498.10185235 0 24.82969821 0 8580.68562331 0 1839.59993603 0 -1486.26132095 0 4653
0.06750000 0.06749660 31782.82753537 0 227.90082138 0 7466.39991635 0 2172.12086596 0 -1251.55653369 0 5220
0.06850000 0.06852730 30556.58494713 0 834.74421206 0 7298.44211313 0 672.43258770 0 452.45417696 0 5029
0.06950000 0.06949320 30139.78161802 0 1272.12692453 0 7223.87163618 0 451.93373483 0 -556.77753233 0 5040
0.07050000 0.07048030 29267.50712130 0 829.44536931 0 8217.01685021 0 -1116.95760964 0 1377.75531945 0 5475
0.07150000 0.07148790 28548.33028753 0 1019.03468080 0 7456.15968353 0 2.69678948 0 407.14423793 0 5509
0.07250000 0.07249820 28439.97041448 0 492.47876202 0 9896.51619788 0 188.84742854 0 1792.64773793 0 5916
0.07350000 0.07351270 27421.45505175 0 615.17496101 0 9160.90553274 0 -1399.58466317 0 363.03255227 0 5721
0.07450000 0.07449140 28130.29048684 0 402.41529617 0 11911.15554709 0 -34.39313145 0 1817.84927687 0 6028
0.07550000 0.07549160 27253.74454284 0 684.49830220 0 11571.91270803 0 -1404.64295600 0 69.24735439 0 6183
0.07650000 0.07648840 27508.57009491 0 300.02420866 0 11763.22858347 0 -359.94924177 0 -3.12576643 0 6330
0.07750000 0.07749960 26743.98103219 0 163.85833790 0 10744.96051506 0 259.65228750 0 -2419.16788772 0 6583
0.07850000 0.07848650 27019.26456859 0 109.86578303 0 9570.78462100 0 595.58587898 0 -5342.93982741 0 6549
0.07950000 0.07947320 26202.40647997 0 383.67038701 0 7755.25091818 0 130.90861841 0 -6920.40778839 0 6828
0.08050000 0.08048110 25459.62427967 0 855.22692583 0 6406.45151502 0 -326.98715757 0 -9497.05719285 0 7147
0.08150000 0.08149960 24427.28291653 0 890.46299367 0 6098.88482972 0 -237.88701549 0 -8591.94875534 0 7386
0.08250000 0.08250610 23840.85816790 0 588.83474415 0 5060.22622087 0 -148.95211097 0 -10115.61896193 0 7227
0.08350000 0.08350160 23569.50885925 0 562.73282909 0 6809.28271526 0 -465.13138286 0 -6519.43129552 0 7798
0.08450000 0.08449610 23163.60896135 0 337.79279512 0 7199.42322084 0 556.59093753 0 -5527.97217909 0 7371
0.08550000 0.08548940 23420.12061103 0 208.05882471 0 8810.21971124 0 983.77275946 0 -3603.52781134 0 8256
0.08650000 0.08650700 22841.67672442 0 288.57785402 0 8027.81421711 0 1273.07113919 0 -1302.72397582 0 8037
0.08750000 0.08749060 23115.49897622 0 19.55659655 0 9307.64098739 0 1474.60476615 0 -425.44289326 0 8155
0.08850000 0.08849210 22564.36987088 0 263.91586632 0 7764.76050870 0 1912.81029424 0 195.97062891 0 8718
0.08950000 0.08949900 22375.97656463 0 623.65715605 0 7576.17611139 0 977.32175000 0 163.77628115 0 8571
0.09050000 0.09049190 21380.39212939 0 787.05912353 0 6192.85666983 0 -51.01794147 0 -98.24171370 0 8932
0.09150000 0.09150830 21094.76719431 0 626.12223076 0 6279.10618289 0 -442.87714254 0 -1054.00884148 0 9285
0.09250000 0.09250820 20511.26501487 0 608.85097091 0 6919.64342414 0 -1098.81070310 0 -1318.47212749 0 9204
0.09350000 0.09350330 20151.78900449 0 430.31571535 0 7178.06598445 0 -846.00397190 0 -1893.57754084 0 9349
0.09450000 0.09448040 20079.17440077 0 241.89543154 0 8029.65768383 0 -243.50284459 0 -1801.89879348 0 9564
0.09550000 0.09549270 19687.66253581 0 193.46508786 0 7524.79509690 0 180.80811514 0 -1882.75279419 0 10155
0.09650000 0.09649430 19851.77603648 0 136.42552979 0 7427.38361766 0 254.82892427 0 -2766.35786685 0 9913
0.09750000 0.09749140 19454.19422013 0 391.00491161 0 7274.24099210 0 730.79966662 0 -2907.74277174 0 10476
0.09850000 0.09850240 18686.68258821 0 729.66548497 0 6162.09100878 0 -363.26860593 0 -4202.90178962 0 10575
0.09950000 0.09950330 18252.45625048 0 672.87434528 0 6630.61257190 0 213.81741007 0 -3397.38551759 0 10882
0.10050000 0.10051200 17658.16304633 0 289.06569826 0 6287.84016850 0 399.98169529 0 -4033.05555707 0 10875
0.10150000 0.10150300 17216.29306609 0 120.76955145 0 6041.51254839 0 500.92835918 0 -3998.37814957 0 11118
0.10250000 0.10250800 17606.79327249 0 178.80278305 0 6331.74615026 0 548.00420444 0 -2584.24808436 0 11575
0.10350000 0.10349800 17255.07331112 0 219.13311381 0 6270.12490295 0 669.24024290 0 -2314.41626356 0 11364
0.10450000 0.10450100 17127.26711230 0 346.63693911 0 6515.23853279 0 385.91739309 0 -1220.30752466 0 12093
0.10550000 0.10551000 16925.94705771 0 201.38075411 0 6252.24102764 0 851.20277286 0 -774.25265016 0 12067
0.10650000 0.10649700 16239.03089154 0 239.79230578 0 5930.58980697 0 337.07114534 0 -975.06013107 0 12054
0.10750000 0.10749900 16551.74579488 0 254.40739986 0 5385.48569042 0 642.80223238 0 -1871.42221825 0 12807
0.10850000 0.10850100 15990.94972991 0 207.54849916 0 4285.81282941 0 79.76388240 0 -2448.93313086 0 12736
0.10950000 0.10950300 15741.63209669 0 284.41881325 0 3848.39414687 0 275.81971544 0 -3060.89663795 0 12933
0.11050000 0.11050200 15243.33404979 0 204.25274037 0 3672.59036943 0 -144.78969800 0 -3763.36986474 0 13428
0.11150000 0.11150900 15220.40312230 0 271.83490476 0 3263.72293974 0 411.49886603 0 -3241.62382041 0 13453
0.11250000 0.11250000 14839.90709505 0 221.54535745 0 4073.82539728 0 445.06906943 0 -3136.79351169 0 13668
0.11350000 0.11349100 14799.66556544 0 200.94911312 0 3886.51119349 0 135.13060683 0 -1165.41942714 0 13791
0.11450000 0.11448600 14788.76213423 0 24.58150464 0 4346.23132709 0 492.58892040 0 -1110.55605905 0 14205
0.11550000 0.11549300 14825.40665561 0 49.37062411 0 5120.59975595 0 439.81069302 0 1017.60149783 0 14776
0.11650000 0.11649800 14635.77687778 0 112.26723565 0 4587.82663325 0 779.33005209 0 728.59087876 0 14553
0.11750000 0.11747300 14725.70208363 0 366.32606293 0 5757.41634181 0 -22.99421235 0 1487.02568520 0 14568
0.11850000 0.11849100 14277.76215200 0 456.54352570 0 5298.60670092 0 -165.55117990 0 1814.54452555 0 16015
0.11950000 0.11950300 14078.46541454 0 538.69132531 0 5511.52710707 0 -190.89322697 0 2309.00951056 0 15270
0.12050000 0.12050700 13676.38733789 0 158.90008686 0 5640.92947829 0 33.61089456 0 2321.90253695 0 15999
0.12150000 0.12150000 13780.36335715 0 -22.41666772 0 5208.37799751 0 608.39797268 0 1712.99648685 0 15670
0.12250000 0.12250700 13791.82882090 0 -13.43853517 0 5193.40545073 0 668.94798598 0 1784.00367752 0 16887
0.12350000 0.12352200 13610.62953111 0 50.08507987 0 4630.10272065 0 484.37762504 0 1555.99831809 0 16407
0.12450000 0.12449800 13509.80089406 0 82.27942763 0 4261.75783685 0 543.45174089 0 1469.79376763 0 16306
0.12550000 0.12549900 13559.59697679 0 41.01522361 0 3922.40259128 0 58.74038093 0 603.74321922 0 17523
0.12650000 0.12650100 13362.21114996 0 98.40740089 0 3443.46094493 0 -32.73772081 0 355.65756132 0 17154
0.12750000 0.12750600 13358.38932871 0 130.38255596 0 3331.53778560 0 -893.16861830 0 -609.90197175 0 18007
0.12850000 0.12850300 13228.55981277 0 237.17435823 0 3531.54268406 0 -611.77803636 0 -1503.77425479 0 17496
0.12950000 0.12949900 13083.10579231 0 137.80925390 0 3525.42777006 0 -423.24084978 0 -1399.06759323 0 18405
0.13050000 0.13049000 13172.80618514 0 -54.24558192 0 3265.79121948 0 174.54032829 0 -1933.39192573 0 18100
0.13150000 0.13148800 13185.73293348 0 -42.17480914 0 3630.39296659 0 443.34587768 0 -1713.21005921 0 19059
0.13250000 0.13249300 13123.79694795 0 139.78198810 0 3077.85877991 0 539.40960289 0 -2383.56874686 0 18957
0.13350000 0.13349100 12890.89066481 0 436.29236934 0 3548.14512519 0 -106.49077764 0 -1770.59358119 0 19468
0.13450000 0.13450700 12366.17708869 0 661.10875616 0 3631.12360889 0 -458.31505225 0 -1164.19419621 0 19953
0.13550000 0.13551000 12010.63530606 0 524.46852994 0 4092.65348725 0 57.27864671 0 -523.21407332 0 19956
0.13650000 0.13649900 11524.70197496 0 164.86325208 0 3979.96596367 0 342.17552484 0 -265.86049889 0 19723
0.13750000 0.13749600 11451.97496473 0 -48.04512657 0 4021.07302339 0 962.86290097 0 1.54728681 0 20946
0.13850000 0.13851100 11631.37575040 0 -202.00348616 0 3364.98996218 0 1031.47470896 0 363.85536790 0 20955
0.13950000 0.13949800 11678.92370299 0 -54.16318795 0 3318.47614945 0 774.58312529 0 563.74223953 0 20506
0.14050000 0.14048300 11784.13619383 0 90.04772894 0 2996.33034015 0 346.70887928 0 1219.30710674 0 21447
0.14150000 0.14148400 11670.94284097 0 118.55514326 0 3044.30543747 0 298.73265789 0 1761.89331753 0 21771
0.14250000 0.14249400 11638.56976687 0 83.35571993 0 2922.56919006 0 273.90880482 0 1759.66766868 0 22470
0.14350000 0.14350900 11677.57482490 0 125.72330623 0 2831.55364109 0 156.02922467 0 1853.50462099 0 22519
0.14450000 0.14449900 11557.18745558 0 189.53310824 0 2643.91345844 0 85.73086943 0 1571.76895106 0 22218
0.14550000 0.14550500 11239.88636674 0 217.75388596 0 2645.34102108 0 -322.97199713 0 1031.64107059 0 23559
0.14650000 0.14650700 11148.85957712 0 300.39515014 0 2721.30533872 0 -384.03008783 0 669.23012631 0 23044
0.14750000 0.14750500 10826.25290114 0 291.16882402 0 2708.33362778 0 -497.63260038 0 671.32088735 0 23649
0.14850000 0.14849900 10603.31707519 0 200.23083554 0 2660.97676625 0 -137.42482364 0 116.84094402 0 23640
0.14950000 0.14949500 10551.54263793 0 28.69749372 0 2816.54737236 0 -5.64160392 0 -42.26259862 0 24457
0.15050000 0.15050000 10424.21978710 0 128.11981297 0 2671.04838930 0 202.00910648 0 -225.31771984 0 24591
0.15150000 0.15149900 10509.45764159 0 60.28169896 0 2546.51321985 0 233.73247097 0 -103.84697659 0 25020
0.15250000 0.15250500 10257.17247658 0 105.56803262 0 2650.24194480 0 170.87812428 0 -94.65100023 0 25297
0.15350000 0.15350100 10223.45052439 0 246.64460647 0 2559.56361535 0 62.75126993 0 240.27003344 0 25452
0.15450000 0.15450400 10065.68799138 0 125.04099873 0 2779.19468998 0 372.54776311 0 529.42116065 0 26061
0.15550000 0.15549900 9859.19723745 0 145.32924924 0 2417.13332994 0 491.91785355 0 919.25254832 0 26128
0.15650000 0.15649500 9875.96828834 0 21.16749420 0 2494.85118909 0 519.57659874 0 724.76568531 0 26331
0.15750000 0.15749700 9816.81998420 0 58.72217108 0 2327.87132248 0 504.17016285 0 937.34887194 0 27345
0.15850000 0.15849900 9668.00500917 0 116.88927882 0 2033.26510748 0 78.14489148 0 1345.29232014 0 26980
0.15950000 0.15949700 9732.64999152 0 152.66827010 0 2141.42264881 0 -268.65717280 0 1070.17289723 0 27777
0.16050000 0.16050000 9588.27507354 0 171.45364560 0 2396.68658626 0 -650.37393471 0 1130.64085378 0 28224
0.16150000 0.16150500 9507.91566146 0 135.04292975 0 2455.38526438 0 -675.25511510 0 511.85089949 0 28075
0.16250000 0.16249700 9462.02008452 0 170.10139532 0 2873.82972849 0 -506.61837658 0 568.44307966 0 28590
0.16350000 0.16349900 9311.26047692 0 104.46622404 0 2635.48297039 0 -272.01812736 0 -87.57343690 0 29163
0.16450000 0.16449100 9285.40698024 0 119.53083174 0 2858.82345976 0 175.35190327 0 -429.76604753 0 28996
0.16550000 0.16550500 9147.97878440 0 100.00627105 0 2538.36374807 0 254.82105581 0 -680.51461558 0 30777
0.16650000 0.16650700 9008.01020150 0 97.52366093 0 2342.68650015 0 534.33894534 0 -897.51200575 0 29211
0.16750000 0.16749900 8836.26429898 0 146.89394782 0 2125.96675405 0 248.88374410 0 -681.49255219 0 30922
0.16850000 0.16850800 8799.64225890 0 119.53195581 0 1871.65827192 0 479.24626798 0 -567.72030582 0 30867
0.16950000 0.16949900 8612.02455755 0 134.99684308 0 1838.43090836 0 404.26213508 0 -278.91201846 0 30852
0.17050000 0.17049200 8507.71131877 0 86.96082144 0 1618.84479633 0 272.17212428 0 -167.57224890 0 31257
0.17150000 0.17149500 8458.92689459 0 153.62709761 0 1613.66285634 0 226.75315094 0 -111.78546136 0 32608
0.17250000 0.17250900 8360.60492265 0 109.75315170 0 1690.65007319 0 134.35162973 0 304.91726392 0 32361
0.17350000 0.17350400 8222.80578534 0 78.36858042 0 1385.85982862 0 -26.43497554 0 -45.75731693 0 32508
0.17450000 0.17449800 8254.11099762 0 87.34727501 0 1474.07645556 0 -39.26460466 0 300.77958039 0 32791
0.17550000 0.17549800 8149.03339459 0 186.89380344 0 1550.43419598 0 -223.29889897 0 -100.00312367 0 33633
0.17650000 0.17650100 7986.06644029 0 212.51461866 0 1535.39420530 0 -117.27258501 0 20.43842560 0 33984
0.17750000 0.17750300 7832.59783586 0 189.37686319 0 1737.73715911 0 -32.81966516 0 -82.60934073 0 34069
