### header ###
fiducial parameters:
Omega_m = 0.31
Omega_nu = 0
Omega_de = 0.69
Omega_k = 0
H_0 = 100
w_de = -1
zeff = 0
beta = 0
fgrowth = 0
b_1 = 2
gamma = 0.55
Lx = 3500 Ly = 3500 Lz = 3500
nx = 700 ny = 700 nz = 700
xoffset = 857.220397 yoffset = 15.9954215 zoffset = 262.898189
bins = 400 dk = 0.001
kx_ny = 0.628318531 ky_ny = 0.628318531 kz_ny = 0.628318531
############################
A(data) = 3.0202937 (not used)
A(ran) = 3.01866624 (used)
Ngal = 184886
weighted Ngal = 0
Nran = 9360983
weighted Nran = 0
SN(data) = 3443.49707
SN(ran) = 67.787899
SN(data+ran) = 3511.28497
############################
13 columns: k_central k_mean P_0(k) sigma^{lin}_{P_0(k)} P^img_1(k) sigma^{lin}_{P_1(k)} P_2(k) sigma^{lin}_{P_2(k)} P^img_3(k) sigma^{lin}_{P_3(k)} P_4(k) sigma^{lin}_{P_4(k)} N_modes
### header ###
0.00050000 0 0 0 0 0 0 0 0 0 0 0 0
0.00150000 0.00179520 18171.74837823 0 -23696.97783854 0 -22052.02101057 0 46589.46230426 0 922.84281217 0 3
0.00250000 0.00253879 32693.32024458 0 -21200.65412420 0 10022.70374299 0 -46669.38333096 0 -8313.61900259 0 6
0.00350000 0.00331552 47357.19874919 0 -12227.80467819 0 -6695.24631360 0 -20530.59893413 0 13227.66056071 0 7
0.00450000 0.00420575 58247.47839689 0 -1874.61456306 0 16611.77086978 0 -45152.12029529 0 5091.66632097 0 24
0.00550000 0.00557378 65405.41237588 0 5776.39056024 0 29535.70904774 0 -38535.42364900 0 17684.57857555 0 45
0.00650000 0.00659388 71042.82353049 0 1.70425126 0 70815.53757271 0 -22129.46909410 0 -30533.65401964 0 40
0.00750000 0.00754703 76888.18672362 0 -3038.46029909 0 61092.93672294 0 -9101.25139931 0 -24486.29633287 0 57
0.00850000 0.00846663 83054.80771464 0 -6591.20285043 0 66749.90660982 0 10451.29851471 0 -38161.89682521 0 75
0.00950000 0.00948925 81286.87816767 0 1884.76487067 0 63679.52286265 0 13311.62822167 0 -33653.27181701 0 112
0.01050000 0.01054430 83353.80902408 0 1112.13087422 0 61916.08957597 0 22424.08654976 0 -27591.63850381 0 105
0.01150000 0.01145670 75836.39903472 0 9196.88685573 0 52202.93087281 0 24721.11352664 0 -18746.93247613 0 144
0.01250000 0.01249090 69256.00969029 0 10602.84496786 0 39376.44913669 0 26846.83298638 0 5637.09641639 0 169
0.01350000 0.01339930 60937.47852333 0 7815.47832480 0 31294.75848063 0 26100.56618435 0 21599.02278611 0 180
0.01450000 0.01448870 57273.58841756 0 -2659.30190929 0 21443.33977348 0 25688.59633506 0 26328.30176816 0 267
0.01550000 0.01550050 66326.80851630 0 -5725.56033764 0 9759.04303944 0 25627.89682111 0 28686.92751104 0 238
0.01650000 0.01653350 71418.93570395 0 -10692.46667614 0 8286.12437091 0 15849.76715673 0 28695.02077957 0 315
0.01750000 0.01747870 82534.14077278 0 -8701.45517476 0 11018.16453107 0 2591.47582278 0 33194.42845417 0 297
0.01850000 0.01844180 77321.62621581 0 3054.41078248 0 10801.17500936 0 2801.57482559 0 30025.57660659 0 388
0.01950000 0.01947590 80911.44043325 0 4591.59225125 0 1974.48774480 0 1029.67620485 0 13476.07894186 0 399
0.02050000 0.02045430 71825.06041486 0 6919.40737048 0 4615.09645192 0 -4264.80405319 0 16491.38350045 0 462
0.02150000 0.02154770 66968.64967304 0 3339.60857283 0 4290.83740029 0 -3185.91515538 0 2778.47528834 0 571
0.02250000 0.02255340 64744.57451941 0 1223.27505645 0 3055.22010933 0 -6129.63925012 0 -4118.34961482 0 510
0.02350000 0.02348930 60733.57311907 0 -910.56689751 0 -1355.39766514 0 -6029.78854967 0 -6108.09092267 0 555
0.02450000 0.02439640 64835.62379033 0 -133.90312777 0 3297.95072122 0 -2409.24239313 0 -13377.49843495 0 592
0.02550000 0.02547300 64149.83168923 0 845.99385532 0 1129.44934480 0 -182.45487047 0 -5770.96132594 0 837
0.02650000 0.02652900 62288.04270866 0 319.23223263 0 7400.96808844 0 2691.22535736 0 -7473.45904501 0 723
0.02750000 0.02749970 60863.06541549 0 1469.79376763 0 4399.50077090 0 -2864.89341116 0 771.28511836 0 826
0.02850000 0.02848090 62707.88101346 0 1030.12245868 0 12096.28906463 0 -544.78488207 0 -5671.90871170 0 831
0.02950000 0.02946900 60673.21082464 0 3507.04930612 0 19770.95575773 0 -9748.64543751 0 9466.14540334 0 996
0.03050000 0.03053250 59474.05820466 0 2925.33439014 0 20182.02635496 0 -7354.82521719 0 534.30297526 0 1041
0.03150000 0.03150510 60230.55399886 0 1035.54157640 0 32392.40802451 0 -8185.97017289 0 3541.07475588 0 1036
0.03250000 0.03246190 59401.55600744 0 1860.06916101 0 31067.47252285 0 -2685.60503200 0 -1690.45898213 0 1059
0.03350000 0.03345080 58924.16557090 0 865.64138873 0 33326.50610026 0 -5559.18746617 0 -13139.87107850 0 1302
0.03450000 0.03451200 58734.08616704 0 657.18914125 0 31441.89859870 0 369.06540952 0 -15015.71087249 0 1339
0.03550000 0.03553350 57913.74347669 0 402.21408852 0 31245.86164995 0 2057.83716997 0 -18516.04951012 0 1365
0.03650000 0.03647120 56894.55367491 0 1578.02999352 0 24683.56975320 0 3986.03591507 0 -21219.20119791 0 1308
0.03750000 0.03744890 55810.95494444 0 1104.43440066 0 27080.63852158 0 732.56332472 0 -19180.37196832 0 1579
0.03850000 0.03847530 53911.39737741 0 4111.23428291 0 22620.23590502 0 -1070.55507936 0 -21948.04499130 0 1662
0.03950000 0.03950240 50527.28706834 0 3581.94576194 0 24503.26971547 0 19.45194609 0 -19794.44871775 0 1683
0.04050000 0.04050350 46470.08659350 0 3313.32793142 0 25616.20654435 0 1015.23084459 0 -15951.15782632 0 1822
0.04150000 0.04152450 44223.53013840 0 2247.02856243 0 25707.70544130 0 4420.30721541 0 -8988.14797166 0 1887
0.04250000 0.04250150 42598.46926222 0 1100.99476154 0 22954.19563824 0 8628.98669950 0 -12833.90056560 0 1920
0.04350000 0.04349210 41510.14945845 0 64.80055296 0 21200.76653071 0 5719.73768056 0 -7428.79993965 0 2005
0.04450000 0.04448520 40152.39125665 0 528.42523899 0 17713.24223491 0 3735.97639890 0 -8651.85018309 0 2151
0.04550000 0.04548030 40959.02035311 0 10.82202642 0 19476.78792810 0 3613.08236446 0 -792.14551799 0 2274
0.04650000 0.04648670 40378.32833634 0 95.58993178 0 15878.43081609 0 1563.27101911 0 -3545.64970073 0 2311
0.04750000 0.04749250 40270.53049583 0 252.28179281 0 15656.20315114 0 1688.64923736 0 -1852.94258845 0 2568
0.04850000 0.04851840 40277.83691881 0 534.45697218 0 16694.72687218 0 2947.86065420 0 538.37209083 0 2493
0.04950000 0.04949480 38969.31276721 0 563.92208994 0 13067.14406827 0 2024.98074789 0 -893.20009213 0 2644
0.05050000 0.05050630 39110.49534040 0 814.77969230 0 11999.50706184 0 3453.76862165 0 308.00282255 0 2829
0.05150000 0.05149060 39173.21817147 0 676.52193644 0 13682.56969579 0 -124.71614393 0 1172.56848100 0 2784
0.05250000 0.05249300 38097.15067700 0 1205.44738439 0 11025.61708251 0 603.78256149 0 2095.13364910 0 3055
0.05350000 0.05348950 37393.48594124 0 942.66345160 0 14101.05912251 0 64.81280527 0 3555.59767662 0 3009
0.05450000 0.05448610 36709.94197029 0 1204.23339411 0 13477.76503947 0 1021.36486770 0 8404.64579221 0 3336
0.05550000 0.05550870 36253.57155061 0 766.99456198 0 17296.10168628 0 3458.26488194 0 10173.62071970 0 3349
0.05650000 0.05647670 35817.77152177 0 1214.11392611 0 14565.86003023 0 3864.86170019 0 9751.03969612 0 3324
0.05750000 0.05747970 34059.62134093 0 981.57071598 0 14043.84421029 0 4637.51030948 0 10201.44133026 0 3639
0.05850000 0.05849280 33164.97794925 0 1308.55787355 0 11891.37200181 0 2226.26708053 0 10726.88554868 0 3846
0.05950000 0.05951020 32517.29165413 0 299.84660638 0 8702.91645936 0 1568.22814608 0 9254.92233546 0 3787
0.06050000 0.06049470 31160.54511090 0 229.34861719 0 9804.71380336 0 74.07038040 0 6540.84473516 0 3930
0.06150000 0.06148310 32365.09324324 0 -27.38200037 0 7728.93655482 0 -701.06027699 0 3790.02144762 0 4083
0.06250000 0.06249100 31391.65288993 0 217.79997263 0 8921.31106241 0 -2492.31080203 0 1367.71741834 0 4303
0.06350000 0.06350600 31752.36537189 0 1162.72167096 0 11150.74800644 0 -2590.89130894 0 3101.85756922 0 4470
0.06450000 0.06451750 30834.22902018 0 1085.98174842 0 12557.71777714 0 -2217.03850628 0 599.95624399 0 4479
0.06550000 0.06550280 30454.63224500 0 1363.94055970 0 14142.08749767 0 -862.99758768 0 3071.21555532 0 4636
0.06650000 0.06648880 30150.79745574 0 533.88482305 0 15975.55003841 0 -593.94137178 0 2171.60379602 0 4653
0.06750000 0.06749660 29124.63845051 0 133.77723248 0 15380.46998871 0 1179.97606984 0 1169.36489555 0 5220
0.06850000 0.06852730 30275.45627234 0 6.49307197 0 14512.46693926 0 1429.37238760 0 366.76894457 0 5029
0.06950000 0.06949320 30015.12280141 0 -506.64423007 0 13120.64956575 0 2094.38052550 0 -4175.39591728 0 5040
0.07050000 0.07048030 29357.65714016 0 302.74332207 0 10468.54167293 0 40.36270383 0 -2760.27667480 0 5475
0.07150000 0.07148790 29635.63843274 0 478.33015495 0 10975.61866806 0 1433.48646577 0 -6539.61950423 0 5509
0.07250000 0.07249820 28705.47458475 0 861.14625250 0 9399.10616238 0 770.58032956 0 -3378.33261460 0 5916
0.07350000 0.07351270 27917.61737501 0 624.14500029 0 9014.23752201 0 1701.91320523 0 -4154.46582562 0 5721
0.07450000 0.07449140 27909.86132601 0 504.76029701 0 10091.01317748 0 1423.57221183 0 -1359.80400023 0 6028
0.07550000 0.07549160 27512.05469664 0 350.48911012 0 9279.73045162 0 505.11662564 0 -1268.87837647 0 6183
0.07650000 0.07648840 27288.25334058 0 321.35334342 0 10480.58040986 0 491.32097500 0 567.24370223 0 6330
0.07750000 0.07749960 27752.37980927 0 -27.84938663 0 11041.24158702 0 -384.59212037 0 1286.23394120 0 6583
0.07850000 0.07848650 27278.47397445 0 200.49161863 0 10624.80919939 0 405.23782357 0 338.80557775 0 6549
0.07950000 0.07947320 26951.70825770 0 139.05246987 0 11544.48552025 0 810.65100129 0 1164.49769378 0 6828
0.08050000 0.08048110 26737.79867429 0 302.90181525 0 9054.33292316 0 877.15631134 0 -705.34633711 0 7147
0.08150000 0.08149960 27120.88005120 0 173.03070890 0 10351.81875574 0 767.49027468 0 434.39719563 0 7386
0.08250000 0.08250610 26350.78306962 0 519.89358509 0 8761.68258138 0 843.86487607 0 -504.55234497 0 7227
0.08350000 0.08350160 25909.36271541 0 728.09516606 0 9199.78694362 0 694.59240656 0 -88.55002464 0 7798
0.08450000 0.08449610 24661.31326475 0 320.46982828 0 8710.75119292 0 236.89221790 0 398.20679654 0 7371
0.08550000 0.08548940 24908.60758083 0 764.68348419 0 8462.52390283 0 580.20529659 0 -771.91684293 0 8256
0.08650000 0.08650700 24142.10760749 0 668.45564548 0 8732.56929599 0 0.74261696 0 -7.61260706 0 8037
0.08750000 0.08749060 23385.83662631 0 975.94139809 0 8104.17195752 0 270.73219692 0 -1229.56982086 0 8155
0.08850000 0.08849210 22158.13275347 0 1129.84276757 0 8445.83153649 0 -289.25678933 0 -464.18267194 0 8718
0.08950000 0.08949900 21221.11210853 0 929.93116652 0 8218.25332179 0 82.13521008 0 -1808.06991073 0 8571
0.09050000 0.09049190 20650.98630345 0 704.18405382 0 8035.66019132 0 194.54756253 0 -1073.81599214 0 8932
0.09150000 0.09150830 20112.55913344 0 154.41281909 0 8184.26159398 0 107.51895997 0 -1704.13885407 0 9285
0.09250000 0.09250820 20064.67396133 0 -212.44380256 0 7602.34434629 0 535.86767384 0 -1906.57173309 0 9204
0.09350000 0.09350330 20494.85366480 0 -92.92960698 0 8302.51323967 0 -455.45655477 0 -2167.34358939 0 9349
0.09450000 0.09448040 20413.02172748 0 144.27824839 0 7696.06889208 0 -229.91627005 0 -3471.38272135 0 9564
0.09550000 0.09549270 20351.08574195 0 231.23255025 0 8568.44455466 0 -510.79203019 0 -915.51840415 0 10155
0.09650000 0.09649430 20273.86247143 0 223.32812466 0 8244.81497947 0 286.36681802 0 -3080.96119951 0 9913
0.09750000 0.09749140 20103.11698683 0 254.04769904 0 7549.43460330 0 1494.73677160 0 -1532.29178570 0 10476
0.09850000 0.09850240 19645.73490858 0 461.56697251 0 7066.04165926 0 1759.08315484 0 -2253.45821464 0 10575
0.09950000 0.09950330 18963.53981572 0 509.45214463 0 5602.22791782 0 1736.75922249 0 -2439.91812897 0 10882
0.10050000 0.10051200 18405.77872645 0 627.06082509 0 5738.17234776 0 1354.53213504 0 -1337.22153291 0 10875
0.10150000 0.10150300 17511.24774127 0 468.81719223 0 4595.79625462 0 378.13661466 0 -2180.74244507 0 11118
0.10250000 0.10250800 17434.36169027 0 257.63009443 0 5069.26370406 0 550.96274371 0 -311.89321177 0 11575
0.10350000 0.10349800 17029.81067047 0 255.83833470 0 4442.26020628 0 -913.25903336 0 -2539.01570581 0 11364
0.10450000 0.10450100 17305.76864591 0 67.98075786 0 5022.82857589 0 -625.30278732 0 -452.40134591 0 12093
0.10550000 0.10551000 17229.78184697 0 84.66874035 0 5839.12463197 0 -381.65269020 0 -1847.53583545 0 12067
0.10650000 0.10649700 17082.97894842 0 251.24090855 0 5490.31599914 0 474.85791794 0 -93.68306779 0 12054
0.10750000 0.10749900 16862.10016156 0 155.20865716 0 5726.11112952 0 -53.69658854 0 -1026.75026346 0 12807
0.10850000 0.10850100 16676.96664402 0 431.79498499 0 4733.80896429 0 1199.48983950 0 -1065.26635319 0 12736
0.10950000 0.10950300 16385.94619660 0 607.26603916 0 5407.01153657 0 543.31123276 0 -756.38451175 0 12933
0.11050000 0.11050200 15737.69786894 0 462.66068783 0 5001.72987447 0 255.50448738 0 -482.11263392 0 13428
0.11150000 0.11150900 15439.37099854 0 534.77171040 0 5339.01684030 0 -59.05601840 0 260.93821794 0 13453
0.11250000 0.11250000 14969.62420449 0 402.27478804 0 5130.64889770 0 -195.79190256 0 -305.98400168 0 13668
0.11350000 0.11349100 14728.62465282 0 137.94751390 0 4885.74884023 0 -135.90733579 0 45.25418540 0 13791
0.11450000 0.11448600 14519.43614271 0 157.31965137 0 4843.47275283 0 -10.21179397 0 -1170.02809394 0 14205
0.11550000 0.11549300 14408.71573301 0 51.37854155 0 4115.10106676 0 350.94323241 0 -1981.38950435 0 14776
0.11650000 0.11649800 14173.67372623 0 -102.33623313 0 3717.59793496 0 569.45923449 0 -2707.31072856 0 14553
0.11750000 0.11747300 14490.77248335 0 -4.85846778 0 3262.76748443 0 289.31074445 0 -2479.94608622 0 14568
0.11850000 0.11849100 14608.79931603 0 -42.73470595 0 3108.69188486 0 599.04013095 0 -2094.11074988 0 16015
0.11950000 0.11950300 14607.22562492 0 79.75230453 0 2983.94314305 0 304.71493221 0 -1958.94192484 0 15270
0.12050000 0.12050700 14535.17305374 0 229.34524499 0 2822.30258554 0 79.48443982 0 -394.29617415 0 15999
0.12150000 0.12150000 14497.17965427 0 238.25346070 0 3431.71446492 0 15.50467918 0 -30.27500665 0 15670
0.12250000 0.12250700 14300.58067298 0 377.02491430 0 4214.08623710 0 -272.23732005 0 1372.94432093 0 16887
0.12350000 0.12352200 14088.69440670 0 289.63110300 0 4470.86766240 0 136.27040881 0 743.55218488 0 16407
0.12450000 0.12449800 13700.77954998 0 367.13426572 0 4186.63656801 0 141.55351466 0 1330.75815874 0 16306
0.12550000 0.12549900 13402.90230560 0 297.30397118 0 4272.87484042 0 312.83293017 0 812.93172932 0 17523
0.12650000 0.12650100 13044.66276681 0 253.86672456 0 3370.02577371 0 330.61451556 0 657.86582842 0 17154
0.12750000 0.12750600 13022.63109138 0 148.27542379 0 3865.26636361 0 111.75207662 0 396.77473763 0 18007
0.12850000 0.12850300 12800.51583293 0 -2.12924902 0 3531.92486618 0 118.04818991 0 781.12743214 0 17496
0.12950000 0.12949900 13071.97754808 0 -0.86599210 0 3798.99148690 0 84.79969393 0 429.41646329 0 18405
0.13050000 0.13049000 13041.51538460 0 -8.91297050 0 3889.93959197 0 316.26132864 0 631.71108230 0 18100
0.13150000 0.13148800 13059.61283228 0 117.06575704 0 3965.19574861 0 -319.97523964 0 707.72935506 0 19059
0.13250000 0.13249300 12825.24526454 0 176.36018964 0 4293.27662150 0 -149.01168642 0 350.36433889 0 18957
0.13350000 0.13349100 12781.63153970 0 185.12002876 0 4212.05167931 0 -88.31914167 0 550.51986207 0 19468
0.13450000 0.13450700 12641.34821858 0 118.36517626 0 3999.26616098 0 25.38925781 0 10.31480329 0 19953
0.13550000 0.13551000 12438.22965987 0 243.03972978 0 3654.44795915 0 352.55289359 0 -188.81595472 0 19956
0.13650000 0.13649900 12290.07788324 0 210.30133453 0 3652.68317699 0 305.52763126 0 78.49009186 0 19723
0.13750000 0.13749600 11918.57437658 0 305.24211873 0 3051.57813850 0 419.78547374 0 -862.56257449 0 20946
0.13850000 0.13851100 11788.63245413 0 225.39977659 0 3588.89248409 0 507.19727009 0 91.53632832 0 20955
0.13950000 0.13949800 11393.74839395 0 161.11561912 0 3202.66372497 0 358.96905703 0 -4.00531363 0 20506
0.14050000 0.14048300 11589.67293619 0 169.82712344 0 3759.50308088 0 -32.48682949 0 1124.91936255 0 21447
0.14150000 0.14148400 11390.82582476 0 77.16695486 0 3562.48819552 0 -104.40192752 0 776.93466942 0 21771
0.14250000 0.14249400 11455.23475345 0 33.18880813 0 4165.62779180 0 -116.72179313 0 1419.89651904 0 22470
0.14350000 0.14350900 11383.96902781 0 76.39595863 0 3978.13373760 0 -253.57221952 0 1214.92325296 0 22519
0.14450000 0.14449900 11450.40127363 0 29.07562921 0 3988.14915740 0 173.04532174 0 877.64303151 0 22218
0.14550000 0.14550500 11405.21385769 0 84.65828654 0 4244.46971602 0 335.33109261 0 1213.60809682 0 23559
0.14650000 0.14650700 11342.94065264 0 73.24520423 0 4087.64015702 0 365.30203965 0 1058.58266227 0 23044
0.14750000 0.14750500 11366.77083219 0 -78.81337297 0 3733.11003297 0 892.87748545 0 1578.78311712 0 23649
0.14850000 0.14849900 11324.84320497 0 -26.18734401 0 3838.85083439 0 133.04209392 0 1167.40902232 0 23640
0.14950000 0.14949500 11509.97672251 0 59.23305865 0 3411.95340093 0 -36.18466636 0 1228.74925336 0 24457
0.15050000 0.15050000 11317.19956247 0 314.57073477 0 4002.62711554 0 -375.84239784 0 1171.87156066 0 24591
0.15150000 0.15149900 11074.79492946 0 386.95940141 0 3643.54452794 0 -290.71020547 0 1880.59458925 0 25020
0.15250000 0.15250500 10729.20112273 0 308.44008386 0 3975.85188550 0 -10.17874646 0 1252.52322965 0 25297
0.15350000 0.15350100 10626.56274091 0 211.96719896 0 3608.65354807 0 406.57770914 0 1202.10891112 0 25452
0.15450000 0.15450400 10359.30502913 0 146.85910180 0 3477.58756055 0 578.50683426 0 607.06258338 0 26061
0.15550000 0.15549900 10157.34425744 0 323.24064868 0 2990.12550095 0 164.99813988 0 271.93269842 0 26128
0.15650000 0.15649500 9745.61046182 0 462.62134555 0 3240.79201225 0 -152.96839547 0 520.17010510 0 26331
0.15750000 0.15749700 9317.61144458 0 349.05480308 0 3045.06980172 0 -89.82617571 0 465.08642026 0 27345
0.15850000 0.15849900 9102.79136846 0 242.45184375 0 3287.02480871 0 -15.82357644 0 747.22562954 0 26980
0.15950000 0.15949700 9041.20384311 0 95.33712955 0 3323.16350081 0 173.04981800 0 835.30624460 0 27777
0.16050000 0.16050000 8921.09749005 0 59.76878807 0 3537.25293463 0 311.52676655 0 1185.64135780 0 28224
0.16150000 0.16150500 8922.41264618 0 89.00628265 0 3191.00717016 0 248.03507496 0 1169.30869229 0 28075
0.16250000 0.16249700 8924.42472266 0 -47.37642026 0 3123.49582187 0 378.79194459 0 1517.49908933 0 28590
0.16350000 0.16349900 9022.55560355 0 -123.10198648 0 3003.01852734 0 258.27867998 0 1747.74133826 0 29163
0.16450000 0.16449100 9082.14229307 0 -8.55181963 0 2892.81518757 0 335.19508073 0 1336.92927599 0 28996
0.16550000 0.16550500 9092.37128524 0 107.47815640 0 2715.89858572 0 -33.35348366 0 1251.38792393 0 30777
0.16650000 0.16650700 8861.88174200 0 245.36542042 0 2866.45586161 0 -218.55422029 0 971.27090771 0 29211
0.16750000 0.16749900 8771.90033290 0 253.41260227 0 2940.17204910 0 -219.14210633 0 1338.75026141 0 30922
0.16850000 0.16850800 8584.57488846 0 185.89675772 0 2930.26903581 0 10.42562487 0 1107.12428838 0 30867
0.16950000 0.16949900 8525.02192089 0 72.25265477 0 2794.40329042 0 202.24516015 0 1180.94276580 0 30852
0.17050000 0.17049200 8399.69990589 0 15.43251420 0 2807.31879811 0 343.81103952 0 1068.16306888 0 31257
0.17150000 0.17149500 8451.59799032 0 20.74889237 0 2592.11653987 0 458.48141389 0 1022.13148008 0 32608
0.17250000 0.17250900 8260.60809375 0 84.96223374 0 2230.70713757 0 244.80001568 0 1000.35609148 0 32361
0.17350000 0.17350400 8219.47855272 0 122.96372648 0 2013.08813941 0 103.38588510 0 718.53836481 0 32508
0.17450000 0.17449800 8106.49877222 0 173.21730370 0 2025.65518693 0 -22.86753022 0 717.52895437 0 32791
0.17550000 0.17549800 8028.29756509 0 169.97887222 0 1865.30730425 0 -16.35986789 0 541.97247126 0 33633
0.17650000 0.17650100 7898.34440199 0 86.31493365 0 1928.98559064 0 -24.81238761 0 745.57550201 0 33984
0.17750000 0.17750300 7871.22071177 0 7.70463427 0 1927.13088327 0 70.12367552 0 765.87499317 0 34069
0.17850000 0.17849800 7973.10597000 0 -89.06585810 0 1849.45798672 0 315.37444130 0 897.50750949 0 34536
