### header ###
fiducial parameters:
Omega_m = 0.31
Omega_nu = 0
Omega_de = 0.69
Omega_k = 0
H_0 = 100
w_de = -1
zeff = 0
beta = 0
fgrowth = 0
b_1 = 2
gamma = 0.55
Lx = 3500 Ly = 3500 Lz = 3500
nx = 700 ny = 700 nz = 700
xoffset = 857.220397 yoffset = 15.9954215 zoffset = 262.898189
bins = 400 dk = 0.001
kx_ny = 0.628318531 ky_ny = 0.628318531 kz_ny = 0.628318531
############################
A(data) = 3.06589725 (not used)
A(ran) = 3.06655069 (used)
Ngal = 187469
weighted Ngal = 0
Nran = 9360983
weighted Nran = 0
SN(data) = 3437.22974
SN(ran) = 68.8632039
SN(data+ran) = 3506.09294
############################
13 columns: k_central k_mean P_0(k) sigma^{lin}_{P_0(k)} P^img_1(k) sigma^{lin}_{P_1(k)} P_2(k) sigma^{lin}_{P_2(k)} P^img_3(k) sigma^{lin}_{P_3(k)} P_4(k) sigma^{lin}_{P_4(k)} N_modes
### header ###
0.00050000 0 0 0 0 0 0 0 0 0 0 0 0
0.00150000 0.00179520 8295.35294516 0 -24067.46968663 0 -30422.48398391 0 22466.68861603 0 29364.85115663 0 3
0.00250000 0.00253879 11988.26641111 0 -19123.15705610 0 -12885.38274595 0 -30922.58053493 0 -34962.35800114 0 6
0.00350000 0.00331552 34381.55357787 0 -25802.46412696 0 -40560.53928469 0 14885.20691750 0 -6320.70783124 0 7
0.00450000 0.00420575 46678.82547757 0 -23838.83485076 0 -35458.40791790 0 -17945.92370504 0 -13599.16406737 0 24
0.00550000 0.00557378 68610.23430579 0 -3629.02160720 0 -44860.31300231 0 -40260.86353621 0 -4109.53694465 0 45
0.00650000 0.00659388 56026.88784499 0 -977.38806984 0 -3623.63733550 0 -39362.06110376 0 401.30696801 0 40
0.00750000 0.00754703 63776.41727195 0 -1185.65259845 0 -30554.56162999 0 -3853.30631123 0 29155.43783351 0 57
0.00850000 0.00846663 61145.43056185 0 -10830.81660534 0 -17063.64502917 0 5455.23392821 0 -3839.43534823 0 75
0.00950000 0.00948925 76593.34445494 0 -17402.21342918 0 -26890.10949169 0 18532.34845368 0 4516.80820193 0 112
0.01050000 0.01054430 76984.40669388 0 -11512.22485265 0 -18822.46964904 0 16319.51395077 0 7625.17410792 0 105
0.01150000 0.01145670 85328.90376403 0 -4823.76789209 0 -28832.26912499 0 5529.42222303 0 7637.70743349 0 144
0.01250000 0.01249090 83424.06309115 0 1558.38133604 0 -27422.35430380 0 -5162.58358643 0 24183.58560868 0 169
0.01350000 0.01339930 83627.85608891 0 4321.67050524 0 -26285.25007586 0 -1676.37444677 0 25726.47732802 0 180
0.01450000 0.01448870 81475.27147392 0 3630.73018611 0 -33153.84970503 0 -11995.79764710 0 25459.73668617 0 267
0.01550000 0.01550050 81879.71008722 0 4413.22560545 0 -25237.28420821 0 -14270.00610299 0 5687.12855279 0 238
0.01650000 0.01653350 73277.46489581 0 7002.59942654 0 -22957.11820743 0 -16117.51945714 0 10737.76649859 0 315
0.01750000 0.01747870 70307.46015967 0 7811.58905965 0 -12164.51981457 0 -17226.07243223 0 3563.65722320 0 297
0.01850000 0.01844180 61459.38193677 0 5930.80337934 0 895.47744796 0 -16886.82959317 0 -3879.77804371 0 388
0.01950000 0.01947590 60651.29155572 0 4060.15676599 0 18387.00683973 0 -6493.35298582 0 -8887.93757039 0 399
0.02050000 0.02045430 58138.55649131 0 888.97360745 0 27955.72318099 0 -5366.66884110 0 -1856.37098692 0 462
0.02150000 0.02154770 61710.27326108 0 235.66586290 0 43244.24464672 0 -4720.02792650 0 6071.91850861 0 571
0.02250000 0.02255340 64346.20585750 0 1683.83823885 0 51632.80506773 0 -3153.35099022 0 4995.06416858 0 510
0.02350000 0.02348930 64647.68011011 0 2068.32469711 0 52641.87828386 0 2372.32809612 0 12431.37286293 0 555
0.02450000 0.02439640 63585.32620952 0 3143.96504686 0 58430.92581682 0 10496.36228349 0 13910.75490563 0 592
0.02550000 0.02547300 62243.19251224 0 -107.22793952 0 45489.67703674 0 11049.48098401 0 11791.66742982 0 837
0.02650000 0.02652900 62086.83506057 0 -607.15588078 0 46668.59648541 0 13328.48919777 0 -2253.91908132 0 723
0.02750000 0.02749970 62148.43382658 0 591.18404016 0 30848.27983360 0 7696.31618640 0 -271.64606183 0 826
0.02850000 0.02848090 58079.76788799 0 -4.10425384 0 28680.63274663 0 6915.43942077 0 -11282.80317123 0 831
0.02950000 0.02946900 61554.25302894 0 798.42679362 0 20240.81495828 0 2684.08754415 0 2349.19483692 0 996
0.03050000 0.03053250 59573.76277664 0 65.21353447 0 19993.97026823 0 232.72418460 0 -9269.89488223 0 1041
0.03150000 0.03150510 60833.50250407 0 416.06481835 0 19707.78330062 0 -1939.13589825 0 -7518.07318776 0 1036
0.03250000 0.03246190 60188.40155861 0 7.66940607 0 18234.47120931 0 -846.49069208 0 -1842.10660114 0 1059
0.03350000 0.03345080 62892.45249846 0 1025.07428244 0 17969.75388459 0 -193.94506365 0 -5342.72625504 0 1302
0.03450000 0.03451200 62405.61991530 0 -143.91180318 0 24313.97715716 0 1993.57436974 0 3536.63469884 0 1339
0.03550000 0.03553350 60250.22513763 0 1159.59677006 0 21230.10462912 0 5903.00525008 0 -3816.05479471 0 1365
0.03650000 0.03647120 59575.33646775 0 1932.86361515 0 24602.41225492 0 2867.75977709 0 -3829.97072032 0 1308
0.03750000 0.03744890 57250.65749007 0 1931.95312244 0 21487.62793736 0 964.81652606 0 -2596.27558064 0 1579
0.03850000 0.03847530 55710.57593342 0 2018.97824040 0 22932.50118232 0 -1085.83224777 0 -139.65834094 0 1662
0.03950000 0.03950240 55704.73079504 0 1231.04234611 0 26897.75313419 0 500.62148941 0 1093.42867953 0 1683
0.04050000 0.04050350 54980.72048145 0 891.72869095 0 28480.77397663 0 1234.67307629 0 -290.10545846 0 1822
0.04150000 0.04152450 55287.92746593 0 -239.62144789 0 26363.70981796 0 3959.04711266 0 2840.08529499 0 1887
0.04250000 0.04250150 55053.22267867 0 1961.52727451 0 25842.25603055 0 7102.82106845 0 1112.72438058 0 1920
0.04350000 0.04349210 51228.92848697 0 2331.22103640 0 18507.50661556 0 5985.91628987 0 1976.91572536 0 2005
0.04450000 0.04448520 49273.16766629 0 2060.81594242 0 16460.69652396 0 8209.17087600 0 1095.90949115 0 2151
0.04550000 0.04548030 47360.79575742 0 942.54430070 0 9674.14240447 0 7764.23219812 0 3231.28242173 0 2274
0.04650000 0.04648670 46728.50915380 0 629.14371767 0 7371.05671685 0 3879.67687785 0 2273.85999572 0 2311
0.04750000 0.04749250 45283.41109583 0 1120.25674063 0 5663.98405293 0 553.50762704 0 -5314.75951602 0 2568
0.04850000 0.04851840 45303.53186064 0 2253.25588293 0 8643.48713894 0 -6434.37329143 0 302.92654468 0 2493
0.04950000 0.04949480 41639.97897439 0 2027.13895283 0 9358.10026852 0 -6179.13183529 0 -5798.54588284 0 2644
0.05050000 0.05050630 40682.16312560 0 2272.36498917 0 13213.60974729 0 -4317.38781731 0 1139.28491419 0 2829
0.05150000 0.05149060 39280.67879246 0 1090.74328807 0 13550.71686272 0 -696.60448304 0 -6916.99063057 0 2784
0.05250000 0.05249300 39789.76786407 0 248.75672474 0 15307.40575896 0 3013.75334879 0 -4878.74591482 0 3055
0.05350000 0.05348950 39011.46520746 0 -396.27902494 0 12762.85965298 0 3258.17005828 0 -7851.43716649 0 3009
0.05450000 0.05448610 38565.21137344 0 32.34823227 0 11608.66963592 0 1892.83565789 0 -6952.90450965 0 3336
0.05550000 0.05550870 38070.84755429 0 715.18415463 0 12004.56535467 0 306.82143016 0 -7139.35318333 0 3349
0.05650000 0.05647670 37334.80974442 0 1770.61606249 0 10035.72041653 0 -572.18621635 0 -8222.54725037 0 3324
0.05750000 0.05747970 35602.62546678 0 1364.54755484 0 9525.01269122 0 313.05437099 0 -5378.90990975 0 3639
0.05850000 0.05849280 33715.09539603 0 1498.41246439 0 10787.07923334 0 826.25752076 0 -6345.85316693 0 3846
0.05950000 0.05951020 32696.58003329 0 667.07192137 0 9653.44836647 0 955.49802661 0 -6185.15682408 0 3787
0.06050000 0.06049470 32669.04043900 0 690.13099228 0 12025.69777804 0 -458.33640949 0 -7807.29513107 0 3930
0.06150000 0.06148310 31624.44676657 0 963.88130392 0 9649.25560375 0 -636.77724359 0 -4900.55277724 0 4083
0.06250000 0.06249100 31381.19908475 0 532.41904220 0 11555.83857749 0 -891.84896591 0 -4380.93121590 0 4303
0.06350000 0.06350600 31392.43973548 0 384.27963028 0 11918.12475055 0 -127.30936205 0 -2796.55025471 0 4470
0.06450000 0.06451750 31703.80576073 0 14.71468625 0 12758.13857967 0 1287.06574935 0 -2061.35549365 0 4479
0.06550000 0.06550280 31646.70325502 0 -81.66546328 0 12102.13420301 0 1541.10445587 0 -1246.14978069 0 4636
0.06650000 0.06648880 31780.69181173 0 -4.22335977 0 12208.47075893 0 2444.65044293 0 800.49844555 0 4653
0.06750000 0.06749660 31149.97889922 0 378.49519141 0 10820.76746359 0 1179.38031535 0 -48.95775501 0 5220
0.06850000 0.06852730 31032.28928606 0 557.87237171 0 10378.58274513 0 969.14754879 0 1005.26825585 0 5029
0.06950000 0.06949320 29941.94616516 0 465.38879376 0 8715.76452315 0 433.08428762 0 -950.64543769 0 5040
0.07050000 0.07048030 29347.20333498 0 532.62811830 0 9840.36914748 0 617.61755441 0 -398.14609702 0 5475
0.07150000 0.07148790 29549.64745464 0 -354.34577738 0 7906.98846240 0 1093.44441644 0 -1415.53514655 0 5509
0.07250000 0.07249820 29323.93518797 0 -449.37423866 0 5835.35901398 0 1514.49783559 0 -2231.53894572 0 5916
0.07350000 0.07351270 29607.42439940 0 -65.14541612 0 4377.73887109 0 813.82873325 0 -2974.96186311 0 5721
0.07450000 0.07449140 29493.89382702 0 679.95932743 0 3336.27009956 0 871.19202206 0 -5013.57752034 0 6028
0.07550000 0.07549160 28159.51617874 0 1428.36072904 0 4035.12383681 0 -734.55629210 0 -2171.26657650 0 6183
0.07650000 0.07648840 27305.45153620 0 1602.82686903 0 5314.50098106 0 -553.62115761 0 -961.32967621 0 6330
0.07750000 0.07749960 25782.23095565 0 1308.97377762 0 4040.29453614 0 444.74309056 0 -71.88002720 0 6583
0.07850000 0.07848650 24971.44281842 0 963.28779756 0 4824.00394576 0 697.18112842 0 -684.85463083 0 6549
0.07950000 0.07947320 24497.42457709 0 138.73885571 0 4972.44797931 0 1109.86700716 0 1528.07654167 0 6828
0.08050000 0.08048110 23992.60695276 0 154.20374299 0 4950.27017542 0 387.07967638 0 348.63327868 0 7147
0.08150000 0.08149960 23963.26885436 0 -271.12112344 0 4753.45762177 0 96.99096649 0 860.66740078 0 7386
0.08250000 0.08250610 24518.66940697 0 -117.15455818 0 5009.54212673 0 -896.33735774 0 165.97832463 0 7227
0.08350000 0.08350160 24588.92347404 0 167.26088288 0 6116.17295054 0 -564.55269044 0 48.13246643 0 7798
0.08450000 0.08449610 24398.84407018 0 360.88671204 0 6997.59733696 0 -1196.67967682 0 185.39205251 0 7371
0.08550000 0.08548940 24636.92105266 0 322.36949825 0 7816.81596224 0 -1331.19654412 0 -991.17472796 0 8256
0.08650000 0.08650700 24438.63597377 0 565.01468119 0 8055.25264554 0 -618.71913819 0 685.46612223 0 8037
0.08750000 0.08749060 24253.61486274 0 817.23240229 0 9742.55300482 0 -118.06167869 0 -393.79933738 0 8155
0.08850000 0.08849210 22810.54012189 0 962.58750502 0 8745.02393700 0 1113.23358205 0 1150.55928687 0 8718
0.08950000 0.08949900 22248.61999185 0 765.75359414 0 8628.91925560 0 1939.22582346 0 2220.54558930 0 8571
0.09050000 0.09049190 21434.57206591 0 551.43485104 0 6930.45693014 0 2730.46646907 0 1923.73620675 0 8932
0.09150000 0.09150830 20530.59893413 0 572.93596776 0 6189.55191851 0 2336.63903005 0 2651.90556111 0 9285
0.09250000 0.09250820 19948.44563277 0 496.61644556 0 4685.93503283 0 1222.29711984 0 2821.50449934 0 9204
0.09350000 0.09350330 19317.95753327 0 680.04363231 0 4964.77061486 0 347.43277718 0 3923.27936203 0 9349
0.09450000 0.09448040 18853.15662554 0 240.12502905 0 3589.78049550 0 330.13229164 0 3364.54033615 0 9564
0.09550000 0.09549270 18600.91642314 0 243.96708347 0 4534.35485772 0 -207.49566810 0 4177.21690270 0 10155
0.09650000 0.09649430 18531.78642114 0 191.17986357 0 4685.06950272 0 148.14390818 0 3281.65177766 0 9913
0.09750000 0.09749140 18510.76640427 0 193.29760217 0 4978.84390958 0 329.76359830 0 4834.07556881 0 10476
0.09850000 0.09850240 18706.35372699 0 333.58317142 0 5720.16482529 0 277.63058427 0 4504.65705849 0 10575
0.09950000 0.09950330 18304.38805685 0 73.19428408 0 5142.44034032 0 642.60327286 0 5474.77017918 0 10882
0.10050000 0.10051200 18836.85768198 0 -119.22171385 0 5551.70119278 0 1133.48473841 0 5559.67081415 0 10875
0.10150000 0.10150300 18507.39420905 0 68.23805636 0 4874.78920576 0 526.59076479 0 5048.42353760 0 11118
0.10250000 0.10250800 18287.18986123 0 649.97938787 0 5686.80257392 0 -44.80534622 0 5468.90255950 0 11575
0.10350000 0.10349800 17496.29767580 0 816.43544015 0 4925.70935357 0 -501.42069968 0 4293.02932718 0 11364
0.10450000 0.10450100 16979.78977471 0 627.43064250 0 5073.89485216 0 -531.38377827 0 4825.36406450 0 12093
0.10550000 0.10551000 16586.47940564 0 126.62480642 0 5322.75161869 0 -2.14865039 0 3369.20520620 0 12067
0.10650000 0.10649700 16667.29968439 0 -90.97452059 0 5086.32701187 0 -223.83282988 0 2741.24625312 0 12054
0.10750000 0.10749900 16804.99765585 0 -40.46162156 0 4859.00733214 0 -231.80469937 0 1345.80939007 0 12807
0.10850000 0.10850100 16645.26800896 0 388.56793853 0 5657.54316007 0 -809.27739377 0 1555.07658473 0 12736
0.10950000 0.10950300 16357.84456977 0 532.52470432 0 5335.77953289 0 -857.77405728 0 547.98509533 0 12933
0.11050000 0.11050200 15764.67543069 0 512.25668698 0 5965.77304376 0 -710.19442977 0 492.34050202 0 13428
0.11150000 0.11150900 15712.06918527 0 369.21378611 0 6329.07087539 0 -664.64281675 0 -145.43378729 0 13453
0.11250000 0.11250000 15332.92203612 0 269.23606631 0 6598.08212868 0 -64.55955341 0 -12.05728401 0 13668
0.11350000 0.11349100 15195.89850370 0 339.86894331 0 6967.09021088 0 126.24150023 0 127.96806418 0 13791
0.11450000 0.11448600 15202.86770716 0 174.13566486 0 6586.95388446 0 406.98911695 0 738.59280978 0 14205
0.11550000 0.11549300 14883.29600688 0 279.03454155 0 6825.46925232 0 1371.78653391 0 1534.55115649 0 14776
0.11650000 0.11649800 14912.07207275 0 245.94206580 0 6818.76982448 0 803.61997426 0 2127.51796385 0 14553
0.11750000 0.11747300 14553.94494046 0 194.95672221 0 6385.42025750 0 901.55864001 0 2163.61169335 0 14568
0.11850000 0.11849100 14480.09386516 0 132.90608205 0 6716.79464105 0 -18.55010868 0 2581.86506640 0 16015
0.11950000 0.11950300 14484.92734497 0 -126.83163439 0 6737.42123514 0 -349.39651887 0 1994.83332263 0 15270
0.12050000 0.12050700 14500.43944298 0 -81.66681216 0 6861.23700294 0 -286.34096453 0 2482.61012045 0 15999
0.12150000 0.12150000 14664.32813064 0 -105.23317364 0 6307.21905036 0 6.92851230 0 919.05808507 0 15670
0.12250000 0.12250700 14846.42667248 0 -187.65479550 0 6754.59694946 0 502.30196670 0 1042.61756603 0 16887
0.12350000 0.12352200 14838.33340395 0 74.02699149 0 6143.84743264 0 778.58030069 0 394.00504129 0 16407
0.12450000 0.12449800 14671.18492758 0 140.36762600 0 5574.08132839 0 641.47920779 0 433.44623658 0 16306
0.12550000 0.12549900 14555.96825759 0 427.70900844 0 5321.69499753 0 293.83960263 0 571.18242624 0 17523
0.12650000 0.12650100 14076.66691042 0 344.28427091 0 5134.22342463 0 241.39072632 0 761.44954897 0 17154
0.12750000 0.12750600 14016.52942901 0 133.52769003 0 5088.71002982 0 -116.37558108 0 979.07978778 0 18007
0.12850000 0.12850300 13971.56682609 0 46.47233472 0 4504.38728287 0 50.48120040 0 202.65207170 0 17496
0.12950000 0.12949900 13824.31430151 0 17.59566503 0 4113.57233826 0 153.93621550 0 -548.02106541 0 18405
0.13050000 0.13049000 13701.79120854 0 270.77491139 0 4295.77204596 0 -314.05703703 0 -1225.90536872 0 18100
0.13150000 0.13148800 13643.45223125 0 262.70637230 0 3501.18168644 0 200.46464107 0 -1171.69171025 0 19059
0.13250000 0.13249300 13133.68872060 0 207.32593428 0 3671.46630436 0 514.76672429 0 -1775.13480409 0 18957
0.13350000 0.13349100 13135.15000519 0 37.18710759 0 3075.16102373 0 431.38245310 0 -1747.39287808 0 19468
0.13450000 0.13450700 13105.13746774 0 85.42433689 0 3331.16684413 0 422.85417139 0 -1642.15790594 0 19953
0.13550000 0.13551000 13035.67024622 0 112.00678977 0 3520.58304960 0 -64.45951162 0 -799.33953446 0 19956
0.13650000 0.13649900 12961.93157743 0 237.97469256 0 4179.76853041 0 -636.46362943 0 -403.07399830 0 19723
0.13750000 0.13749600 13032.52286402 0 163.85159351 0 4738.32770589 0 -333.27742572 0 476.88797946 0 20946
0.13850000 0.13851100 12817.37680903 0 270.34327041 0 5026.79652560 0 -3.07736419 0 559.69560526 0 20955
0.13950000 0.13949800 12667.42652828 0 364.53205508 0 5105.96442870 0 324.88627995 0 1438.70212771 0 20506
0.14050000 0.14048300 12327.50925017 0 321.25105350 0 5374.25628034 0 664.12687088 0 1233.39164211 0 21447
0.14150000 0.14148400 12021.08911124 0 245.86000905 0 4870.43907393 0 1035.94961202 0 1635.67205047 0 21771
0.14250000 0.14249400 11803.69492611 0 188.77773651 0 4824.93691977 0 822.68299383 0 1843.44423858 0 22470
0.14350000 0.14350900 11508.40303140 0 218.49801704 0 3825.63182913 0 725.20407069 0 1413.86028959 0 22519
0.14450000 0.14449900 11353.73167734 0 150.52467800 0 3714.40559015 0 273.00280837 0 2044.28094519 0 22218
0.14550000 0.14550500 11089.37405345 0 349.19755935 0 3173.40431112 0 14.23853228 0 1462.35245685 0 23559
0.14650000 0.14650700 10839.82036657 0 256.22388902 0 2886.53166381 0 53.39376541 0 1166.65589872 0 23044
0.14750000 0.14750500 10517.71951988 0 143.71733992 0 2867.63612994 0 -142.64160965 0 734.39442673 0 23649
0.14850000 0.14849900 10415.93542751 0 167.63182435 0 2510.79043183 0 -85.59845457 0 50.89687966 0 23640
0.14950000 0.14949500 10442.86802666 0 46.19873728 0 3013.61846098 0 -346.20192593 0 -300.90997194 0 24457
0.15050000 0.15050000 10198.39511391 0 169.79002929 0 2884.31725562 0 -34.09098276 0 -471.44862857 0 24591
0.15150000 0.15149900 10254.78945863 0 151.09008274 0 3200.39311352 0 -102.37861039 0 20.16820035 0 25020
0.15250000 0.15250500 10001.31278465 0 175.42833970 0 3045.87912858 0 259.04529236 0 115.45721992 0 25297
0.15350000 0.15350100 10048.84949659 0 161.40900011 0 3141.05371832 0 602.48426634 0 646.97813412 0 25452
0.15450000 0.15450400 9841.48197190 0 65.73925970 0 2948.87231277 0 710.65866864 0 914.26507160 0 26061
0.15550000 0.15549900 9865.75053683 0 -9.12333928 0 2664.39392407 0 593.41980559 0 1528.32383599 0 26128
0.15650000 0.15649500 9883.09486091 0 -61.29212105 0 2641.77773480 0 466.47913688 0 1894.75780917 0 26331
0.15750000 0.15749700 9893.54866609 0 -56.52754643 0 2318.28304741 0 374.98361213 0 1871.59082801 0 27345
0.15850000 0.15849900 9991.47721526 0 -28.68366772 0 2353.97211348 0 161.09538595 0 2350.39758655 0 26980
0.15950000 0.15949700 10008.41687591 0 30.11201721 0 2034.69267012 0 92.43333225 0 2396.28192283 0 27777
0.16050000 0.16050000 9837.37913438 0 123.75731642 0 2276.36666083 0 6.89610550 0 1994.74339742 0 28224
0.16150000 0.16150500 9837.40161569 0 200.47363359 0 1727.62057345 0 -19.68114296 0 1692.76331553 0 28075
0.16250000 0.16249700 9535.98356633 0 292.96845220 0 2264.81127188 0 -119.44540280 0 1534.44999064 0 28590
0.16350000 0.16349900 9325.71595376 0 307.22721765 0 1739.54690387 0 -118.98003986 0 1764.66975826 0 29163
0.16450000 0.16449100 8951.55965353 0 235.70745331 0 2079.68899499 0 -13.85702460 0 1164.50893443 0 28996
0.16550000 0.16550500 8968.47683288 0 75.64721888 0 1675.08177193 0 361.76123467 0 1242.19307163 0 30777
0.16650000 0.16650700 8852.83301816 0 -87.45642173 0 1617.03505156 0 274.80918094 0 765.82665837 0 29211
0.16750000 0.16749900 9019.63303436 0 -59.94043280 0 1427.25914527 0 86.90428096 0 882.11681050 0 30922
0.16850000 0.16850800 9031.36827372 0 -30.01175061 0 1436.26290650 0 -152.61768717 0 467.89883107 0 30867
0.16950000 0.16949900 9131.71356279 0 131.19862720 0 1686.46855112 0 -244.30317892 0 807.18326054 0 30852
0.17050000 0.17049200 8948.53591848 0 197.92987433 0 1507.16893131 0 -139.61337834 0 535.04935447 0 31257
0.17150000 0.17149500 8839.06322101 0 168.31750405 0 1653.37607537 0 79.39069280 0 497.37069322 0 32608
0.17250000 0.17250900 8666.27193798 0 153.28538182 0 1473.63807018 0 165.47923974 0 79.88370774 0 32361
0.17350000 0.17350400 8590.34134229 0 130.97044199 0 1152.38027229 0 245.57112432 0 -276.00743431 0 32508
0.17450000 0.17449800 8382.18697205 0 57.56236073 0 1079.56783312 0 108.03580509 0 -251.72200840 0 32791
0.17550000 0.17549800 8425.46347737 0 88.75606577 0 970.04230459 0 108.20250394 0 -152.31306554 0 33633
0.17650000 0.17650100 8222.27747475 0 158.26049384 0 879.69107808 0 47.10597021 0 -190.21091947 0 33984
0.17750000 0.17750300 8187.11671927 0 245.64081636 0 1093.01052732 0 -85.69501176 0 25.07496921 0 34069
0.17850000 0.17849800 8011.81877112 0 211.44338464 0 1300.32971721 0 -173.66805379 0 397.88081766 0 34536
