### header ###
fiducial parameters:
Omega_m = 0.31
Omega_nu = 0
Omega_de = 0.69
Omega_k = 0
H_0 = 100
w_de = -1
zeff = 0
beta = 0
fgrowth = 0
b_1 = 2
gamma = 0.55
Lx = 3500 Ly = 3500 Lz = 3500
nx = 700 ny = 700 nz = 700
xoffset = 857.220397 yoffset = 15.9954215 zoffset = 262.898189
bins = 400 dk = 0.001
kx_ny = 0.628318531 ky_ny = 0.628318531 kz_ny = 0.628318531
############################
A(data) = 3.07425717 (not used)
A(ran) = 3.07591861 (used)
Ngal = 187922
weighted Ngal = 0
Nran = 9360983
weighted Nran = 0
SN(data) = 3442.3974
SN(ran) = 69.073572
SN(data+ran) = 3511.47097
############################
13 columns: k_central k_mean P_0(k) sigma^{lin}_{P_0(k)} P^img_1(k) sigma^{lin}_{P_1(k)} P_2(k) sigma^{lin}_{P_2(k)} P^img_3(k) sigma^{lin}_{P_3(k)} P_4(k) sigma^{lin}_{P_4(k)} N_modes
### header ###
0.00050000 0 0 0 0 0 0 0 0 0 0 0 0
0.00150000 0.00179520 3482.07258019 0 -11017.14163186 0 -7693.24748875 0 13936.83321533 0 -579.86920113 0 3
0.00250000 0.00253879 14680.96429372 0 -20094.57409227 0 -14148.26985558 0 -80.71079482 0 10097.13933213 0 6
0.00350000 0.00331552 26318.97202805 0 -23940.78755289 0 -19328.97337098 0 -16108.30212354 0 -12402.37198404 0 7
0.00450000 0.00420575 42375.00512569 0 -20392.90096267 0 -26667.65701373 0 -15927.44005328 0 -3414.51626930 0 24
0.00550000 0.00557378 53825.85602535 0 -6392.08596338 0 -28953.10612035 0 -29755.23895651 0 -6477.68351870 0 45
0.00650000 0.00659388 55868.73188920 0 917.21686648 0 -8145.77360588 0 -31327.69358727 0 -1537.94583301 0 40
0.00750000 0.00754703 47241.42004666 0 3104.75765711 0 -12042.44634763 0 -16295.68377123 0 5893.83287908 0 57
0.00850000 0.00846663 50173.54378984 0 -10.98525191 0 -8238.08182968 0 -13639.63041000 0 -8618.45420977 0 75
0.00950000 0.00948925 52973.36507391 0 -9529.55391412 0 -2034.08567498 0 -15205.22824381 0 -9473.81152714 0 112
0.01050000 0.01054430 59987.64353656 0 -4596.58310017 0 12262.87550847 0 -24151.21253458 0 -11109.64094672 0 105
0.01150000 0.01145670 66895.92266281 0 -4288.62299209 0 23392.35620373 0 -19833.45377579 0 -14461.77160446 0 144
0.01250000 0.01249090 70916.47861627 0 -1023.10042417 0 39592.04481771 0 -18717.36956471 0 -4804.32156633 0 169
0.01350000 0.01339930 78262.80590151 0 4379.91955733 0 56420.19821406 0 -9040.91158619 0 -5721.51370338 0 180
0.01450000 0.01448870 78622.16950538 0 275.14415233 0 54131.26450571 0 13284.53825341 0 1216.91284814 0 267
0.01550000 0.01550050 82884.73666908 0 2870.71606824 0 56520.46481858 0 24955.25628137 0 -12865.93642019 0 238
0.01650000 0.01653350 80080.30671821 0 3344.08235182 0 49727.28995582 0 20273.52525191 0 2359.99710227 0 315
0.01750000 0.01747870 77928.73376179 0 2832.38544924 0 42841.15491150 0 25808.30926534 0 -4029.35738298 0 297
0.01850000 0.01844180 75548.52596950 0 4007.20206039 0 38981.22785699 0 6719.30130616 0 3206.62043403 0 388
0.01950000 0.01947590 75328.20921517 0 548.11548688 0 27472.26279305 0 6066.73656863 0 -9281.70880615 0 399
0.02050000 0.02045430 73327.14857204 0 121.49007717 0 26798.72300125 0 -1.93578618 0 -8458.20749295 0 462
0.02150000 0.02154770 73430.56255877 0 1926.97351416 0 21341.38707135 0 -2130.68782736 0 -13127.16914317 0 571
0.02250000 0.02255340 72214.09933666 0 2374.14908154 0 15151.27312030 0 -1319.70859907 0 -4198.25940087 0 510
0.02350000 0.02348930 68240.64170976 0 5559.92934912 0 23322.43935618 0 5336.17295567 0 -7253.74928582 0 555
0.02450000 0.02439640 64063.27867860 0 3469.64042048 0 7292.69814060 0 4577.02436790 0 -22886.86414036 0 592
0.02550000 0.02547300 63446.39176648 0 671.17138669 0 18326.98176482 0 8268.48778991 0 -182.49084055 0 837
0.02650000 0.02652900 63205.27980830 0 -856.23746033 0 5404.72968448 0 5228.46504036 0 -13124.02176097 0 723
0.02750000 0.02749970 63456.28353913 0 -1612.28025630 0 13266.44080573 0 872.13174046 0 8486.92735556 0 826
0.02850000 0.02848090 62583.89663590 0 -506.04285526 0 10395.67977489 0 6430.12432546 0 -2900.85225285 0 831
0.02950000 0.02946900 65436.99860444 0 -262.80866222 0 7548.37798213 0 4337.72215449 0 12901.79409602 0 996
0.03050000 0.03053250 62638.63860496 0 1587.48338079 0 8981.90941050 0 5143.05857611 0 6859.57338664 0 1041
0.03150000 0.03150510 60960.74667034 0 1997.60976336 0 6113.61008217 0 1885.88893574 0 -1133.15875954 0 1036
0.03250000 0.03246190 58223.31099782 0 2639.55208595 0 5981.34134502 0 -3099.38462606 0 6231.63691485 0 1059
0.03350000 0.03345080 55788.02401695 0 3880.11526323 0 5562.24492317 0 -4409.24641509 0 -4122.92455967 0 1302
0.03450000 0.03451200 51515.45267410 0 3840.78422632 0 6885.32571746 0 -4223.26984874 0 -964.69063077 0 1339
0.03550000 0.03553350 49328.80888740 0 2217.55557621 0 7972.01562688 0 -1887.66495856 0 -8086.95128060 0 1365
0.03650000 0.03647120 47678.68136009 0 982.72400674 0 11072.82781558 0 -1840.19569052 0 -96.49379251 0 1308
0.03750000 0.03744890 46747.95547957 0 -547.56019873 0 10686.16067108 0 1006.92400370 0 -2138.57876417 0 1579
0.03850000 0.03847530 48917.85069668 0 -299.26209254 0 12366.96393424 0 2021.63103397 0 1555.99831809 0 1662
0.03950000 0.03950240 50506.49186449 0 324.17811895 0 16774.31067935 0 -1599.63452423 0 7681.64713720 0 1683
0.04050000 0.04050350 48628.96597289 0 2758.24211702 0 15619.10900373 0 1416.14214169 0 8059.96247820 0 1822
0.04150000 0.04152450 46819.22120520 0 2843.17647394 0 19256.92079980 0 1867.06084577 0 14580.92250221 0 1887
0.04250000 0.04250150 44224.09217094 0 2423.81027647 0 15501.08217105 0 3385.16693024 0 8646.44343009 0 1920
0.04350000 0.04349210 43741.75584807 0 1454.06809726 0 17146.82584458 0 3856.55485930 0 14936.12706531 0 2005
0.04450000 0.04448520 40602.35450541 0 325.10884483 0 13091.08665433 0 7923.09631490 0 9659.16985770 0 2151
0.04550000 0.04548030 40511.97967354 0 -229.33175621 0 9150.72150318 0 5645.50442313 0 8410.67078100 0 2274
0.04650000 0.04648670 40871.56809042 0 -381.09402986 0 6547.42051584 0 4503.27445845 0 4115.24719522 0 2311
0.04750000 0.04749250 39714.34309766 0 -252.77750551 0 659.29563919 0 728.42788932 0 82.15252068 0 2568
0.04850000 0.04851840 41364.92025100 0 407.25327224 0 6438.06022487 0 -3795.88906730 0 -752.50199099 0 2493
0.04950000 0.04949480 39764.36399342 0 289.10504054 0 2654.16493190 0 -3904.57491922 0 -6101.35777288 0 2644
0.05050000 0.05050630 41183.83336773 0 963.60703204 0 10040.70002481 0 -4351.57063619 0 788.25400471 0 2829
0.05150000 0.05149060 38795.75711993 0 912.22152129 0 7945.69002287 0 -4570.15633030 0 -5153.95076667 0 2784
0.05250000 0.05249300 40354.16093727 0 571.67926301 0 13012.62691222 0 -174.57629837 0 122.48599882 0 3055
0.05350000 0.05348950 40020.53842358 0 717.65822186 0 13231.48238196 0 1048.61220507 0 -1481.66389480 0 3009
0.05450000 0.05448610 39485.03382275 0 -738.84460035 0 10844.53019923 0 3664.04747488 0 -736.82353135 0 3336
0.05550000 0.05550870 40358.20757154 0 -505.01545978 0 14230.77623194 0 1416.62548967 0 672.10773290 0 3349
0.05650000 0.05647670 40295.82195998 0 -217.55829864 0 10488.97717596 0 -1434.16090481 0 -4894.85376732 0 3324
0.05750000 0.05747970 41310.96512749 0 966.74092547 0 13328.60160427 0 -3263.39696087 0 -2483.74542617 0 3639
0.05850000 0.05849280 39882.95285863 0 1336.53585322 0 14601.71770606 0 -4791.00139521 0 -2411.10834115 0 3846
0.05950000 0.05951020 39194.57540786 0 1436.75749513 0 16514.31442794 0 -1573.71358364 0 -1370.94348510 0 3787
0.06050000 0.06049470 38731.57300425 0 998.14168329 0 18062.71406614 0 675.00444859 0 -3574.76298612 0 3930
0.06150000 0.06148310 37253.87705916 0 848.08461635 0 18092.16457105 0 1541.03701197 0 -3254.25831183 0 4083
0.06250000 0.06249100 37280.18018187 0 1202.88451602 0 17313.86191444 0 2317.61984902 0 -5035.31693885 0 4303
0.06350000 0.06350600 35238.09116357 0 879.96085369 0 15406.88551793 0 2401.39641892 0 -3688.88931299 0 4470
0.06450000 0.06451750 34445.06325450 0 734.69567617 0 12887.85568911 0 3052.38746535 0 -5795.22989087 0 4479
0.06550000 0.06550280 33784.33780453 0 149.83112985 0 10121.45285966 0 3922.39135063 0 -4225.24820327 0 4636
0.06650000 0.06648880 32755.25623011 0 -124.38904099 0 7656.42311696 0 5511.66199488 0 -5542.75363480 0 4653
0.06750000 0.06749660 32478.28659610 0 -164.68677386 0 4400.93957420 0 2650.62412692 0 -6454.07815217 0 5220
0.06850000 0.06852730 32079.69312118 0 694.40805988 0 2388.24485756 0 947.95442590 0 -5255.93719075 0 5029
0.06950000 0.06949320 31837.90672395 0 1166.00394098 0 2878.68568960 0 -1066.89062722 0 -5298.10087164 0 5040
0.07050000 0.07048030 30558.27104474 0 1179.71753487 0 4503.55547472 0 -2648.24110897 0 -2053.09361536 0 5475
0.07150000 0.07148790 29935.08936821 0 1101.17573602 0 5906.10766968 0 -2734.95148871 0 -1436.94858620 0 5509
0.07250000 0.07249820 29289.98842276 0 502.45371548 0 7994.26087468 0 -1253.48992562 0 -1095.16198787 0 5916
0.07350000 0.07351270 29703.19474363 0 -84.63085935 0 9162.04083847 0 -170.39477630 0 -1062.02117732 0 5721
0.07450000 0.07449140 29904.28998521 0 -166.48977424 0 10260.19621163 0 738.64002051 0 -408.09294885 0 6028
0.07550000 0.07549160 29856.85443912 0 62.62222725 0 10249.97846012 0 560.93994530 0 -802.48354447 0 6183
0.07650000 0.07648840 30421.58473185 0 337.03292713 0 10206.81436131 0 -103.53875795 0 -786.70616710 0 6330
0.07750000 0.07749960 29579.32277257 0 916.66270240 0 10531.02845034 0 -485.53091580 0 654.15753775 0 6583
0.07850000 0.07848650 28908.25592393 0 1219.31834739 0 10711.51957913 0 598.90749127 0 462.16834733 0 6549
0.07950000 0.07947320 27730.79775986 0 1153.83031623 0 9243.20957740 0 873.29627188 0 1662.63837157 0 6828
0.08050000 0.08048110 26798.04856220 0 1045.04779472 0 8542.31004172 0 1633.91850896 0 -205.08904478 0 7147
0.08150000 0.08149960 25071.70942294 0 956.11963459 0 7239.13643987 0 1684.24290228 0 -560.65106057 0 7386
0.08250000 0.08250610 24350.84649156 0 780.57101993 0 6718.34585085 0 1202.71590626 0 -1357.22989121 0 7227
0.08350000 0.08350160 23127.41406600 0 785.31457454 0 5183.54740004 0 589.10339571 0 -2730.70252273 0 7798
0.08450000 0.08449610 22634.62393795 0 579.68597852 0 5024.41350764 0 -253.02704795 0 -1686.59219828 0 7371
0.08550000 0.08548940 22002.56214735 0 490.69149856 0 5163.79757671 0 -912.32943154 0 -4485.86269047 0 8256
0.08650000 0.08650700 21628.36088451 0 252.20423232 0 5435.37169837 0 -452.81837405 0 -2918.74736881 0 8037
0.08750000 0.08749060 22026.72954642 0 -52.84263631 0 5995.24602998 0 -150.07280384 0 -4035.31492787 0 8155
0.08850000 0.08849210 22346.75087273 0 -154.56344381 0 5811.43890922 0 80.10998204 0 -2908.61954250 0 8718
0.08950000 0.08949900 22382.04651603 0 40.68025221 0 7140.55593296 0 512.24544633 0 -1838.47587096 0 8571
0.09050000 0.09049190 22158.46997299 0 463.54869924 0 6701.88953818 0 60.59935975 0 -491.06019190 0 8932
0.09150000 0.09150830 22186.90881934 0 694.78349762 0 8268.72384357 0 498.17664788 0 559.14256525 0 9285
0.09250000 0.09250820 21505.95019805 0 979.41588323 0 9021.55518563 0 -674.23221589 0 1067.58080318 0 9204
0.09350000 0.09350330 20819.59606442 0 1054.95642834 0 10091.36163765 0 -784.41644655 0 1759.79131584 0 9349
0.09450000 0.09448040 20093.45002720 0 950.19693572 0 11124.44488373 0 -603.81066312 0 2144.72740012 0 9564
0.09550000 0.09549270 19613.02461496 0 361.28687921 0 11079.60592797 0 -296.48789994 0 2830.75555489 0 10155
0.09650000 0.09649430 19858.40802041 0 -85.49076913 0 11161.93245392 0 1356.25195460 0 1927.05219872 0 9913
0.09750000 0.09749140 19815.01910859 0 -469.02964053 0 10144.91209773 0 1192.05976937 0 2126.34893618 0 10476
0.09850000 0.09850240 19597.17529742 0 93.67890875 0 8097.46128904 0 1843.55664509 0 102.06061238 0 10575
0.09950000 0.09950330 19462.51230167 0 357.62130301 0 8205.83240273 0 1260.65022013 0 1362.76029137 0 10882
0.10050000 0.10051200 18828.87681996 0 589.16409522 0 6429.77586528 0 1064.07596828 0 994.25691439 0 10875
0.10150000 0.10150300 18423.76376762 0 453.55576074 0 6591.36021954 0 1073.79463490 0 2007.89495878 0 11118
0.10250000 0.10250800 18218.95911130 0 167.39352256 0 6441.19636643 0 503.56653990 0 1747.02193661 0 11575
0.10350000 0.10349800 17695.03238073 0 436.53404333 0 6623.02513265 0 102.60803207 0 848.58145311 0 11364
0.10450000 0.10450100 17782.25983040 0 312.79246383 0 6164.60891454 0 179.73688112 0 2414.41309246 0 12093
0.10550000 0.10551000 17163.46200766 0 290.24484252 0 6430.64139539 0 -253.18216893 0 1465.10641628 0 12067
0.10650000 0.10649700 17279.57792971 0 346.07265845 0 6330.29610632 0 -87.09582165 0 1635.66080982 0 12054
0.10750000 0.10749900 16815.90108706 0 75.81875121 0 6043.79440048 0 333.47413711 0 651.23609262 0 12807
0.10850000 0.10850100 16661.67935903 0 249.15464378 0 6106.10132749 0 183.75878596 0 827.03874599 0 12736
0.10950000 0.10950300 16584.34368200 0 281.85594488 0 5715.06156986 0 98.67099415 0 487.10685504 0 12933
0.11050000 0.11050200 16202.16155714 0 319.73131752 0 6079.60711371 0 516.82263931 0 884.98317644 0 13428
0.11150000 0.11150900 15820.99109086 0 342.21374305 0 5394.59061752 0 904.59923603 0 1692.69587163 0 13453
0.11250000 0.11250000 15511.42356972 0 302.09024027 0 5219.16902221 0 748.20581428 0 336.16065263 0 13668
0.11350000 0.11349100 15317.07271859 0 75.37676883 0 4707.04497490 0 1341.09955741 0 1201.06353061 0 13791
0.11450000 0.11448600 15155.88178710 0 -26.36337260 0 3632.91087235 0 673.55103245 0 160.28156284 0 14205
0.11550000 0.11549300 15301.67302708 0 -104.56671546 0 3900.04493697 0 -28.14243039 0 650.55940545 0 14776
0.11650000 0.11649800 15286.83536812 0 157.00716128 0 3667.79061157 0 -264.50937268 0 -430.64057016 0 14553
0.11750000 0.11747300 15186.90598312 0 112.70101236 0 3768.50684212 0 -268.06366644 0 476.99476564 0 14568
0.11850000 0.11849100 15171.95591765 0 266.25167354 0 4367.25134396 0 -144.81779963 0 1164.22791816 0 16015
0.11950000 0.11950300 15094.62024062 0 278.25331633 0 5210.88466262 0 16.82050975 0 1852.72901608 0 15270
0.12050000 0.12050700 14917.57999161 0 234.44400417 0 4918.88627858 0 505.28748353 0 1962.95483715 0 15999
0.12150000 0.12150000 14754.70296251 0 337.41398519 0 5390.29668894 0 66.25824055 0 2062.20978311 0 15670
0.12250000 0.12250700 14542.47947671 0 425.15850479 0 5072.72582448 0 33.93293921 0 2479.32785043 0 16887
0.12350000 0.12352200 13958.19045172 0 332.55802407 0 5252.03668495 0 171.86055716 0 2369.28187978 0 16407
0.12450000 0.12449800 13600.62535196 0 267.70958594 0 3989.66664525 0 778.83883565 0 2151.94389789 0 16306
0.12550000 0.12549900 13613.32728729 0 -59.22024431 0 3778.35365216 0 603.97365256 0 1477.28004102 0 17523
0.12650000 0.12650100 13433.36446909 0 -206.86843979 0 3328.85127008 0 701.64479082 0 685.94497395 0 17154
0.12750000 0.12750600 13771.25843006 0 -124.13050602 0 3111.79430446 0 170.40938915 0 797.02733260 0 18007
0.12850000 0.12850300 13731.24171346 0 179.16360794 0 3138.49084995 0 -578.66420337 0 350.33623727 0 17496
0.12950000 0.12949900 13589.15988822 0 354.15356226 0 3910.79099907 0 -816.01953608 0 886.88397048 0 18405
0.13050000 0.13049000 13524.30133350 0 210.56324169 0 4147.69895388 0 -604.34684216 0 496.26348912 0 18100
0.13150000 0.13148800 13334.78396217 0 137.14717957 0 4327.56060623 0 127.81181914 0 1208.45987879 0 19059
0.13250000 0.13249300 13353.33103588 0 -37.61301585 0 4076.25337783 0 601.58501428 0 208.33084845 0 18957
0.13350000 0.13349100 13335.45840122 0 -93.22152667 0 3706.59333789 0 696.46397490 0 -209.06823514 0 19468
0.13450000 0.13450700 13446.29121743 0 68.99657547 0 3297.29876348 0 248.01596586 0 -390.29787468 0 19953
0.13550000 0.13551000 13062.76021448 0 202.89486976 0 2780.17262660 0 132.67452464 0 -543.58213244 0 19956
0.13650000 0.13649900 13090.74943480 0 154.34987145 0 3188.15204488 0 -38.04881588 0 -153.46635630 0 19723
0.13750000 0.13749600 12892.12713639 0 179.37493217 0 2774.15887846 0 -10.10516516 0 -614.73095531 0 20946
0.13850000 0.13851100 12921.69004781 0 77.89624828 0 3404.14114867 0 96.19917505 0 3.10927640 0 20955
0.13950000 0.13949800 12970.24965897 0 93.44735135 0 3214.09546677 0 21.45885187 0 50.63351122 0 20506
0.14050000 0.14048300 12848.96303758 0 121.79469880 0 3333.08899540 0 -142.98894575 0 200.67146904 0 21447
0.14150000 0.14148400 12848.40100504 0 184.29833719 0 3579.40537487 0 -64.43759235 0 304.54632245 0 21771
0.14250000 0.14249400 12562.55125696 0 258.90590829 0 3686.14659421 0 -274.99127948 0 -209.81124215 0 22470
0.14350000 0.14350900 12314.58250183 0 254.12301140 0 3401.74689007 0 -82.87068586 0 -409.76443362 0 22519
0.14450000 0.14449900 12120.34405720 0 224.53199835 0 3682.39221687 0 -68.08203613 0 -646.79266339 0 22218
0.14550000 0.14550500 11828.08713819 0 185.69892227 0 3235.76744138 0 97.48296977 0 -870.40967277 0 23559
0.14650000 0.14650700 11756.25938002 0 170.11600816 0 3359.25723031 0 190.09626484 0 -1419.13215479 0 23044
0.14750000 0.14750500 11681.62145917 0 107.17409680 0 2906.16908064 0 261.98359846 0 -836.53821992 0 23649
0.14850000 0.14849900 11502.44548652 0 102.18201141 0 3045.67679686 0 355.11238976 0 -813.96924138 0 23640
0.14950000 0.14949500 11357.21627907 0 186.57232083 0 2563.01449513 0 430.59448349 0 -587.28016216 0 24457
0.15050000 0.15050000 11248.96881253 0 239.70912497 0 2673.99343979 0 483.56492599 0 -449.53722810 0 24591
0.15150000 0.15149900 10933.83716929 0 336.43492451 0 2283.27966103 0 276.25360456 0 -53.59306215 0 25020
0.15250000 0.15250500 10727.07663974 0 384.09640767 0 2470.99852824 0 243.25555027 0 159.68131209 0 25297
0.15350000 0.15350100 10375.73886050 0 298.22795267 0 2494.81746714 0 -31.94975120 0 239.63943293 0 25452
0.15450000 0.15450400 10269.08756636 0 175.00793936 0 2404.67868893 0 122.34436662 0 446.32015386 0 26061
0.15550000 0.15549900 10129.63605339 0 67.78089909 0 2509.67760741 0 -36.91362256 0 556.11995427 0 26128
0.15650000 0.15649500 10003.38106438 0 -1.14442189 0 2202.62799204 0 236.34367414 0 383.41072798 0 26331
0.15750000 0.15749700 10079.71632349 0 -17.02149259 0 2221.54600722 0 455.23848615 0 548.90570463 0 27345
0.15850000 0.15849900 9941.96214879 0 58.29985983 0 1895.02758479 0 525.19692410 0 425.34285147 0 26980
0.15950000 0.15949700 9871.49450935 0 182.00861664 0 1601.65784136 0 437.64461963 0 336.58330110 0 27777
0.16050000 0.16050000 9684.30395273 0 330.08845311 0 1545.16233078 0 17.28328734 0 512.42979300 0 28224
0.16150000 0.16150500 9329.75134737 0 359.16914061 0 1438.40987079 0 -66.14886902 0 757.57714480 0 28075
0.16250000 0.16249700 9071.84585700 0 331.67226079 0 1908.64001282 0 -254.15785742 0 904.78920303 0 28590
0.16350000 0.16349900 8981.16752755 0 203.47151514 0 1898.92809059 0 -177.45727716 0 1384.96057657 0 29163
0.16450000 0.16449100 8877.80974408 0 79.28480587 0 2124.21321254 0 35.63544817 0 1165.10468892 0 28996
0.16550000 0.16550500 8911.05958895 0 26.05549117 0 2338.92088215 0 -108.51184664 0 1246.57692542 0 30777
0.16650000 0.16650700 8879.76561731 0 43.13667162 0 2121.60538157 0 -59.93571173 0 613.36858844 0 29211
0.16750000 0.16749900 8781.07270389 0 76.67000569 0 2325.62319234 0 88.87948811 0 775.12267652 0 30922
0.16850000 0.16850800 8755.99481211 0 150.92034891 0 1934.23497454 0 -298.57416472 0 243.74789078 0 30867
0.16950000 0.16949900 8593.00537651 0 153.02235060 0 2184.15960289 0 -64.14488580 0 214.73352311 0 30852
0.17050000 0.17049200 8469.61675344 0 183.31927651 0 2058.56781227 0 -154.82085471 0 99.73447211 0 31257
0.17150000 0.17149500 8394.39431875 0 81.68299870 0 1875.44637121 0 176.70977388 0 -143.90281066 0 32608
0.17250000 0.17250900 8335.42586501 0 43.21850356 0 2039.67227839 0 193.96979308 0 446.52810590 0 32361
0.17350000 0.17350400 8256.96612291 0 5.87156515 0 1949.02767090 0 237.64871369 0 -351.36363274 0 32508
0.17450000 0.17449800 8454.43063430 0 -22.85235534 0 2045.44997287 0 154.00478347 0 514.81393502 0 32791
0.17550000 0.17549800 8299.11856315 0 46.56765544 0 1886.95679756 0 185.93947220 0 -244.41108917 0 33633
0.17650000 0.17650100 8333.53743569 0 119.96921712 0 2162.63375674 0 76.80849051 0 401.54976606 0 33984
0.17750000 0.17750300 8110.48920323 0 198.27271418 0 1875.14287364 0 15.09360858 0 22.30628453 0 34069
0.17850000 0.17849800 8077.38548683 0 166.65838400 0 2029.06110410 0 -104.66338505 0 149.68050513 0 34536
