### header ###
fiducial parameters:
Omega_m = 0.31
Omega_nu = 0
Omega_de = 0.69
Omega_k = 0
H_0 = 100
w_de = -1
zeff = 0
beta = 0
fgrowth = 0
b_1 = 2
gamma = 0.55
Lx = 3500 Ly = 3500 Lz = 3500
nx = 700 ny = 700 nz = 700
xoffset = 857.220397 yoffset = 15.9954215 zoffset = 262.898189
bins = 400 dk = 0.001
kx_ny = 0.628318531 ky_ny = 0.628318531 kz_ny = 0.628318531
############################
A(data) = 3.10058107 (not used)
A(ran) = 3.10286937 (used)
Ngal = 189862
weighted Ngal = 0
Nran = 9360983
weighted Nran = 0
SN(data) = 3435.80763
SN(ran) = 69.678785
SN(data+ran) = 3505.48642
############################
13 columns: k_central k_mean P_0(k) sigma^{lin}_{P_0(k)} P^img_1(k) sigma^{lin}_{P_1(k)} P_2(k) sigma^{lin}_{P_2(k)} P^img_3(k) sigma^{lin}_{P_3(k)} P_4(k) sigma^{lin}_{P_4(k)} N_modes
### header ###
0.00050000 0 0 0 0 0 0 0 0 0 0 0 0
0.00150000 0.00179520 11483.11156726 0 -14288.10355067 0 -5699.89793202 0 33655.63235366 0 -2837.71351769 0 3
0.00250000 0.00253879 27558.47858416 0 -23384.93737425 0 9812.16635480 0 -10671.42417797 0 42998.52402174 0 6
0.00350000 0.00331552 40660.13145017 0 -19077.29520112 0 5969.81967802 0 -3690.18198783 0 -60697.37822371 0 7
0.00450000 0.00420575 62803.08932515 0 -17607.01808550 0 14060.81759289 0 -7259.69559006 0 9306.97778899 0 24
0.00550000 0.00557378 73719.44728255 0 -3860.45536510 0 18156.34868673 0 -12356.06050303 0 13957.85323219 0 45
0.00650000 0.00659388 98435.39010986 0 -978.70322598 0 29335.62546473 0 -5936.41246405 0 9789.98855090 0 40
0.00750000 0.00754703 79597.63317582 0 518.98084425 0 14908.25025150 0 9686.66448938 0 -12392.14299187 0 57
0.00850000 0.00846663 92513.47808525 0 -2935.23740343 0 19368.31564854 0 2822.87585872 0 2225.21045936 0 75
0.00950000 0.00948925 86816.82870129 0 -3108.90545723 0 8807.56691767 0 -5162.23512626 0 -9980.91100357 0 112
0.01050000 0.01054430 86081.80254999 0 4183.02831913 0 12545.35306134 0 2499.07767377 0 -19854.69860567 0 105
0.01150000 0.01145670 87304.22331698 0 3788.25666545 0 2373.04749777 0 -2442.97558597 0 -4925.86672268 0 144
0.01250000 0.01249090 77662.44274597 0 6143.55517572 0 1929.32281017 0 -22.77962833 0 -11258.29855264 0 169
0.01350000 0.01339930 83373.81738239 0 2338.46001547 0 -1017.12152204 0 3720.03715617 0 -640.07974677 0 180
0.01450000 0.01448870 70240.57828782 0 4536.52430331 0 2860.05993134 0 -1884.77611132 0 583.97428678 0 267
0.01550000 0.01550050 69615.14848115 0 6814.13867638 0 2629.62659136 0 -123.39761559 0 -831.60807051 0 238
0.01650000 0.01653350 63508.88978455 0 3273.72711889 0 10946.94376804 0 -7502.44868324 0 22194.32764882 0 315
0.01750000 0.01747870 64824.83276563 0 59.81341345 0 4780.03052010 0 3802.03770325 0 21678.60659328 0 297
0.01850000 0.01844180 62564.89993616 0 -2187.82405503 0 7017.12234728 0 11092.75748932 0 29388.11930364 0 388
0.01950000 0.01947590 67324.52867518 0 -3354.14273422 0 6092.81487832 0 3665.94714485 0 10899.29464959 0 399
0.02050000 0.02045430 68989.60626797 0 328.32254688 0 1290.04452179 0 2737.60428228 0 5946.19183019 0 462
0.02150000 0.02154770 66016.45414962 0 2953.34609176 0 -264.57456845 0 -11884.85242438 0 -1382.39770820 0 571
0.02250000 0.02255340 64839.89523761 0 403.87770483 0 -5427.15478268 0 -7050.77685557 0 -3495.13421634 0 510
0.02350000 0.02348930 68589.77632146 0 -5865.52892054 0 3814.88576704 0 -4547.43897517 0 -11440.84672051 0 555
0.02450000 0.02439640 71140.72959836 0 -4988.42094400 0 -6139.45233820 0 -3910.26268849 0 -22424.98580182 0 592
0.02550000 0.02547300 74612.40457662 0 -2927.38018857 0 1626.02757214 0 4733.05584070 0 -9044.32874401 0 837
0.02650000 0.02652900 73183.15583618 0 2298.72431514 0 -6715.60313207 0 3191.85021897 0 -20606.47332656 0 723
0.02750000 0.02749970 68786.60011576 0 4552.40734280 0 -7345.58540229 0 4934.67939286 0 -7253.40082565 0 826
0.02850000 0.02848090 64294.49886414 0 3443.31481647 0 -3856.13895522 0 4590.43446422 0 -13907.71992993 0 831
0.02950000 0.02946900 63303.52309569 0 1686.06388770 0 -9180.56543087 0 2597.83803109 0 3058.74967366 0 996
0.03050000 0.03053250 59734.27926908 0 1752.33876441 0 -6622.73287573 0 -4643.53529827 0 -2045.79843304 0 1041
0.03150000 0.03150510 60044.40882275 0 1857.80979022 0 1265.38253409 0 -6180.93033940 0 -3028.36619474 0 1036
0.03250000 0.03246190 59369.40774635 0 1753.49655143 0 5899.92531178 0 -9686.01253164 0 1169.60094921 0 1059
0.03350000 0.03345080 59840.84063801 0 3758.91856705 0 13258.12272419 0 -7529.06654417 0 7988.21340458 0 1302
0.03450000 0.03451200 55356.72024840 0 2651.25360336 0 17412.55482786 0 -2906.16908064 0 9765.52889491 0 1339
0.03550000 0.03553350 55486.10013832 0 3245.91774899 0 24905.79741815 0 1412.94979689 0 14348.01621907 0 1365
0.03650000 0.03647120 52210.46210880 0 4599.65179782 0 22770.07377926 0 6291.09995722 0 18412.97274291 0 1308
0.03750000 0.03744890 49428.85067891 0 2661.75237115 0 21577.32833020 0 7259.00991036 0 21008.32659019 0 1579
0.03850000 0.03847530 45164.82223062 0 2663.52839396 0 15659.12572033 0 5184.17687648 0 16375.37998491 0 1662
0.03950000 0.03950240 44412.82269671 0 306.12113762 0 12747.12274196 0 5336.93731992 0 14309.01116103 0 1683
0.04050000 0.04050350 41465.97370108 0 34.51880192 0 13016.22392046 0 1574.47794789 0 9925.44963286 0 1822
0.04150000 0.04152450 44056.94369457 0 -469.20949094 0 6095.01804587 0 -71.29034266 0 8461.41107840 0 1887
0.04250000 0.04250150 42438.96442835 0 -1166.52101091 0 11415.66766287 0 -812.55404346 0 5189.14524411 0 1920
0.04350000 0.04349210 44387.64363907 0 -219.73786081 0 3849.72054365 0 375.10388709 0 2833.82425254 0 2005
0.04450000 0.04448520 43690.38607423 0 -140.40134796 0 8922.30023968 0 1658.60297796 0 3371.20604203 0 2151
0.04550000 0.04548030 42429.40987523 0 1035.64948664 0 4089.89952782 0 439.94670490 0 849.44023883 0 2274
0.04650000 0.04648670 41900.20003881 0 837.17668888 0 2867.90590555 0 3605.65229433 0 -830.17263941 0 2311
0.04750000 0.04749250 39505.26699407 0 886.67489438 0 2240.82372322 0 173.00935166 0 465.10440530 0 2568
0.04850000 0.04851840 40007.04964270 0 358.70377767 0 1971.53145366 0 67.44289273 0 -4502.34148444 0 2493
0.04950000 0.04949480 39418.93879645 0 1557.13362381 0 1988.99942490 0 -2583.42751685 0 1247.67850919 0 2644
0.05050000 0.05050630 36913.39774852 0 1526.37920341 0 4429.08616363 0 -4299.53766395 0 1143.85985904 0 2829
0.05150000 0.05149060 37703.72790141 0 1400.42771197 0 9087.26802980 0 -2400.11498473 0 6925.78081944 0 2784
0.05250000 0.05249300 37131.46637270 0 380.12958203 0 14760.09847486 0 -476.71374937 0 6561.88723333 0 3055
0.05350000 0.05348950 37332.67402078 0 717.21196802 0 15122.94668046 0 -2516.37703524 0 6004.24979121 0 3009
0.05450000 0.05448610 38356.47248936 0 694.86667843 0 20775.08308753 0 -1566.82306474 0 10464.84349884 0 3336
0.05550000 0.05550870 37907.52089917 0 441.96215357 0 23324.35026681 0 -2006.93950346 0 11739.28599742 0 3349
0.05650000 0.05647670 37934.27364791 0 392.44259084 0 23833.21452540 0 92.04541739 0 10334.31706255 0 3324
0.05750000 0.05747970 39385.77887680 0 -394.53897220 0 25969.27538381 0 3020.62138638 0 14813.37915933 0 3639
0.05850000 0.05849280 37399.10626660 0 157.84796196 0 22790.08213756 0 3714.11333323 0 8837.89419334 0 3846
0.05950000 0.05951020 39778.75202635 0 495.60928325 0 26385.96630641 0 4680.50579853 0 17423.79547859 0 3787
0.06050000 0.06049470 36299.54581210 0 331.46768095 0 19502.97864430 0 2757.80373164 0 6931.58099522 0 3930
0.06150000 0.06148310 38176.95929719 0 976.63831844 0 22452.86261563 0 2149.78569295 0 18862.71117866 0 4083
0.06250000 0.06249100 34919.41871535 0 890.50570815 0 15621.58194689 0 1338.44676384 0 7087.29772979 0 4303
0.06350000 0.06350600 35231.57158615 0 1255.88418422 0 16919.09026077 0 463.81847485 0 8810.77050312 0 4470
0.06450000 0.06451750 32775.60180793 0 915.72073587 0 12886.95643705 0 -25.67870456 0 1113.59215881 0 4479
0.06550000 0.06550280 31849.82181373 0 654.88930411 0 11359.23959620 0 715.68998391 0 -226.74415842 0 4636
0.06650000 0.06648880 30711.25630118 0 570.45403208 0 9571.85248282 0 1245.49782295 0 -5887.54935532 0 4653
0.06750000 0.06749660 29956.78382412 0 746.17238056 0 9275.69505801 0 1458.37326649 0 -3998.94018211 0 5220
0.06850000 0.06852730 29542.56584468 0 1152.66128856 0 8363.04414386 0 1587.79811901 0 -4714.81226456 0 5029
0.06950000 0.06949320 28704.01330015 0 655.88859796 0 7024.24891984 0 2171.00804153 0 -812.93959778 0 5040
0.07050000 0.07048030 28126.13144607 0 588.29631698 0 7505.76467521 0 1660.08674386 0 1359.71407502 0 5475
0.07150000 0.07148790 28175.92752881 0 244.49202185 0 6597.77863111 0 2177.81987588 0 495.32489479 0 5509
0.07250000 0.07249820 27928.85802574 0 248.44873091 0 5938.27841207 0 1027.07624233 0 2888.81351591 0 5916
0.07350000 0.07351270 27244.18998972 0 405.03661592 0 4795.77867177 0 1066.53092640 0 1532.88754019 0 5721
0.07450000 0.07449140 26448.01469844 0 418.22864362 0 4074.90449975 0 290.15266919 0 1169.12884188 0 6028
0.07550000 0.07549160 26135.52460812 0 698.50752520 0 4556.09427624 0 -1008.28299837 0 1099.18951303 0 6183
0.07650000 0.07648840 26096.51955008 0 546.09554194 0 6332.92641859 0 -367.55803825 0 919.46387256 0 6330
0.07750000 0.07749960 25692.86778233 0 608.23498325 0 8305.52573407 0 -1629.09626979 0 2437.50138906 0 6583
0.07850000 0.07848650 25267.18433915 0 462.90798214 0 8645.98256341 0 -998.60704623 0 1571.49917545 0 6549
0.07950000 0.07947320 25391.73074925 0 448.43002400 0 12551.19819972 0 151.74878487 0 4829.27581095 0 6828
0.08050000 0.08048110 24937.72086623 0 635.44522647 0 10613.83832428 0 921.32869651 0 2196.64796585 0 7147
0.08150000 0.08149960 24307.79479926 0 138.76695734 0 11013.31981061 0 2232.64052949 0 4242.41267694 0 7386
0.08250000 0.08250610 24081.07087402 0 0.03744441 0 7439.65840826 0 2668.89018436 0 2209.34990118 0 7227
0.08350000 0.08350160 24126.70791598 0 -140.66550325 0 7414.95145795 0 1618.18159793 0 1726.72132139 0 7798
0.08450000 0.08449610 23854.00972925 0 -299.75218491 0 3933.41842899 0 1488.23967548 0 604.37269566 0 7371
0.08550000 0.08548940 23922.69010522 0 63.59150857 0 3750.94894568 0 169.84960474 0 -444.83413983 0 8256
0.08650000 0.08650700 23623.91360879 0 327.85943207 0 3463.79528210 0 -464.21526982 0 1127.35858376 0 8037
0.08750000 0.08749060 23436.53196110 0 428.61725302 0 3791.01062488 0 -142.67870379 0 1017.68355458 0 8155
0.08850000 0.08849210 23008.37557476 0 786.42065457 0 5090.21627702 0 -778.34424702 0 2274.41078761 0 8718
0.08950000 0.08949900 22955.09489029 0 633.80858773 0 6193.64351538 0 -1244.57608959 0 2330.68148517 0 8571
0.09050000 0.09049190 21924.55203128 0 967.46819557 0 7545.38796903 0 -799.09224014 0 2792.86332127 0 8932
0.09150000 0.09150830 21836.65014256 0 891.75117225 0 7847.75023305 0 -1347.40556247 0 3119.88757299 0 9285
0.09250000 0.09250820 21074.53402300 0 184.36016077 0 8492.23294271 0 690.21529716 0 2606.12239068 0 9204
0.09350000 0.09350330 20718.87983387 0 219.43661138 0 7350.02545933 0 1118.18733683 0 1629.51217387 0 9349
0.09450000 0.09448040 20603.77557038 0 19.55693377 0 6724.11230468 0 1546.89339100 0 454.96309021 0 9564
0.09550000 0.09549270 19856.04748376 0 364.07343653 0 4996.19947431 0 1207.38077632 0 -403.81812938 0 10155
0.09650000 0.09649430 19612.23776940 0 626.37402133 0 4586.28666410 0 418.64679583 0 -1262.51616815 0 9913
0.09750000 0.09749140 18818.53542129 0 888.31265719 0 3819.13473301 0 -174.14690551 0 -965.17510282 0 10476
0.09850000 0.09850240 18128.58427942 0 710.80929336 0 3497.39358714 0 -430.79569114 0 -1807.77765381 0 10575
0.09950000 0.09950330 17748.53787821 0 518.26593886 0 4774.92726467 0 -72.37899968 0 383.01955333 0 10882
0.10050000 0.10051200 17410.64391723 0 168.98070244 0 4543.20124985 0 325.08973573 0 -295.10529990 0 10875
0.10150000 0.10150300 17442.56736531 0 330.24919441 0 5085.45024111 0 630.91074797 0 1356.62289607 0 11118
0.10250000 0.10250800 17255.86015667 0 111.95991626 0 6135.43942589 0 246.67608029 0 2109.36431292 0 11575
0.10350000 0.10349800 17188.75347180 0 597.44283448 0 6669.11180065 0 -421.76832453 0 1766.97409166 0 11364
0.10450000 0.10450100 16866.82123487 0 337.75682503 0 7524.52532128 0 -982.82067634 0 2909.79981083 0 12093
0.10550000 0.10551000 17045.88480101 0 65.07887147 0 8196.74995694 0 -1207.31333241 0 3296.12973580 0 12067
0.10650000 0.10649700 17002.38348268 0 68.88428137 0 8538.35333266 0 -290.20999651 0 3237.68959265 0 12054
0.10750000 0.10749900 16960.23104244 0 -8.01221219 0 8646.29730163 0 89.32855211 0 1629.79319014 0 12807
0.10850000 0.10850100 16743.06167032 0 325.97999526 0 8191.23079743 0 723.48200300 0 1390.29988566 0 12736
0.10950000 0.10950300 16406.51658743 0 593.33100444 0 7609.40347495 0 1232.26757704 0 279.02892123 0 12933
0.11050000 0.11050200 15734.77529975 0 442.67930709 0 7222.81501501 0 1153.48185606 0 1651.00429807 0 13428
0.11150000 0.11150900 15414.30434741 0 100.64822461 0 6102.25702494 0 1242.81130742 0 534.64244291 0 13453
0.11250000 0.11250000 15528.05973281 0 -141.97616312 0 6328.26154853 0 898.38203211 0 1949.46605628 0 13668
0.11350000 0.11349100 15442.63078725 0 -121.10789504 0 5865.40527338 0 274.89573395 0 1486.11519249 0 13791
0.11450000 0.11448600 15718.58876270 0 -2.45148476 0 6018.97504367 0 11.98039796 0 1898.62459302 0 14205
0.11550000 0.11549300 15604.15893825 0 25.61912911 0 6222.30717474 0 223.84407053 0 2735.76081556 0 14776
0.11650000 0.11649800 15700.49131502 0 25.11655962 0 5851.01724045 0 233.30757438 0 2507.04729514 0 14553
0.11750000 0.11747300 15642.15233773 0 50.20872703 0 5867.64216288 0 626.70786866 0 2708.28866517 0 14568
0.11850000 0.11849100 15473.20535724 0 300.60647437 0 5122.83664544 0 620.33441970 0 2050.62067220 0 16015
0.11950000 0.11950300 15221.52718737 0 282.47755287 0 5139.00070119 0 435.75394217 0 1668.25869694 0 15270
0.12050000 0.12050700 14884.53247846 0 263.31673963 0 4318.06225636 0 356.98845437 0 1539.77805908 0 15999
0.12150000 0.12150000 14759.19922281 0 467.62455919 0 5094.02685762 0 -360.73833545 0 1037.91784996 0 15670
0.12250000 0.12250700 14421.19285533 0 356.51072671 0 4441.61948919 0 -315.03384958 0 1297.63196104 0 16887
0.12350000 0.12352200 14147.93263605 0 401.35755094 0 5343.22084368 0 -588.83362009 0 1049.25404622 0 16407
0.12450000 0.12449800 14056.20892609 0 403.09198334 0 4723.69237864 0 -61.23411930 0 1124.66082759 0 16306
0.12550000 0.12549900 13501.25799950 0 287.26269789 0 5378.05562029 0 256.28458854 0 1058.02400192 0 17523
0.12650000 0.12650100 13397.84401278 0 295.98993911 0 4778.91769568 0 43.90721823 0 370.06133117 0 17154
0.12750000 0.12750600 13033.75933560 0 203.07022391 0 4837.11054451 0 489.30327819 0 436.65993862 0 18007
0.12850000 0.12850300 12903.92981966 0 262.32756237 0 4867.10060066 0 -202.88025691 0 157.61415642 0 17496
0.12950000 0.12949900 12678.66717901 0 21.76560923 0 4958.35220330 0 -190.00858776 0 100.03639599 0 18405
0.13050000 0.13049000 12939.22546295 0 86.95789887 0 5140.70928011 0 -228.59324546 0 32.21918960 0 18100
0.13150000 0.13148800 12936.52770678 0 -32.45591770 0 5653.75506077 0 -167.43736109 0 1248.18433847 0 19059
0.13250000 0.13249300 13004.19642418 0 20.04994871 0 5506.91844027 0 138.07902951 0 335.92347490 0 18957
0.13350000 0.13349100 13078.83434503 0 -21.31171175 0 6000.70898623 0 222.11750657 0 1119.37097735 0 19468
0.13450000 0.13450700 13177.52725845 0 38.39064407 0 5314.21996479 0 561.09169408 0 311.10074589 0 19953
0.13550000 0.13551000 12907.63923440 0 20.61850082 0 5391.22966295 0 351.93128561 0 773.07912622 0 19956
0.13650000 0.13649900 12948.89242258 0 104.58189034 0 4948.51663391 0 239.16395341 0 -185.66969658 0 19723
0.13750000 0.13749600 12685.07434992 0 68.08788127 0 4503.31942106 0 469.05886622 0 -445.12190049 0 20946
0.13850000 0.13851100 12580.76111114 0 255.71918380 0 4278.22539017 0 125.55806867 0 -402.94023456 0 20955
0.13950000 0.13949800 12365.27783663 0 216.21841307 0 3895.43627017 0 397.28506318 0 -517.78371495 0 20506
0.14050000 0.14048300 12227.01783264 0 257.67168484 0 4064.38325066 0 319.79426517 0 -37.11471780 0 21447
0.14150000 0.14148400 12145.63552134 0 265.32656798 0 3890.90628793 0 161.76083247 0 185.34596584 0 21771
0.14250000 0.14249400 11890.58515626 0 217.20197001 0 4095.11518976 0 478.30317738 0 874.19102767 0 22470
0.14350000 0.14350900 11837.75409782 0 193.08290574 0 4094.38454746 0 281.13092291 0 1377.69911619 0 22519
0.14450000 0.14449900 11585.28908240 0 136.51770313 0 3860.78134397 0 448.62561132 0 968.56865528 0 22218
0.14550000 0.14550500 11457.25807058 0 182.31548640 0 4218.13287136 0 3.45929902 0 1619.18201585 0 23559
0.14650000 0.14650700 11265.71738212 0 189.22061815 0 3847.34876635 0 -12.78994962 0 165.55680023 0 23044
0.14750000 0.14750500 10960.34262371 0 227.80077958 0 4046.64550381 0 -340.69175894 0 691.13253426 0 23649
0.14850000 0.14849900 10903.52113427 0 167.13161539 0 3560.57728490 0 -479.00459399 0 -361.32284929 0 23640
0.14950000 0.14949500 10777.44599567 0 148.83071194 0 4138.33549182 0 -46.56585694 0 236.84163497 0 24457
0.15050000 0.15050000 10704.31432201 0 198.73358086 0 3950.51545876 0 -19.78624304 0 -636.48948293 0 24591
0.15150000 0.15149900 10425.83844080 0 248.21717351 0 4206.77981412 0 -71.08699929 0 -69.40033965 0 25020
0.15250000 0.15250500 10343.50067420 0 228.03908138 0 3706.39100618 0 403.16392351 0 -76.43181630 0 25297
0.15350000 0.15350100 10175.89133115 0 58.91393658 0 3741.93394379 0 389.68863141 0 178.43071751 0 25452
0.15450000 0.15450400 10300.13424368 0 -22.16937340 0 3384.95335788 0 608.08098633 0 610.53482039 0 26061
0.15550000 0.15549900 10240.25529723 0 -49.14311334 0 3342.96952740 0 731.41565428 0 418.15557939 0 26128
0.15650000 0.15649500 10185.53580948 0 107.02729390 0 2779.68927862 0 473.87211287 0 518.29291643 0 26331
0.15750000 0.15749700 10033.79826526 0 143.17104430 0 2674.40934387 0 255.13242184 0 645.03125342 0 27345
0.15850000 0.15849900 9849.56399978 0 278.70406642 0 2522.18845167 0 69.17698792 0 467.04791381 0 26980
0.15950000 0.15949700 9707.67326560 0 216.18469112 0 2631.34641092 0 -120.38174900 0 105.48181683 0 27777
0.16050000 0.16050000 9460.05297065 0 173.24203313 0 2572.60277020 0 -246.18373979 0 99.17210236 0 28224
0.16150000 0.16150500 9398.25187293 0 150.91922484 0 2837.82592420 0 -435.21663907 0 -94.23790631 0 28075
0.16250000 0.16249700 9394.08159151 0 89.54212447 0 2860.75685169 0 -256.83875262 0 4.09192284 0 28590
0.16350000 0.16349900 9243.01848633 0 87.40078051 0 3206.18204865 0 48.65515669 0 -88.51855082 0 29163
0.16450000 0.16449100 9288.62180635 0 103.14893218 0 2868.33305028 0 141.22641172 0 11.16815977 0 28996
0.16550000 0.16550500 9215.34400423 0 94.85704136 0 3265.99355119 0 250.11459535 0 48.90582320 0 30777
0.16650000 0.16650700 9059.24508753 0 127.38692254 0 2766.36910750 0 174.48300097 0 -23.44653614 0 29211
0.16750000 0.16749900 8982.04429831 0 124.22267936 0 3011.42653409 0 157.25895186 0 239.80467050 0 30922
0.16850000 0.16850800 8931.13539115 0 138.01720594 0 2966.00306448 0 132.93305961 0 35.30193806 0 30867
0.16950000 0.16949900 8859.17274517 0 118.92271254 0 2952.97515029 0 111.93260148 0 743.29927024 0 30852
0.17050000 0.17049200 8685.86439220 0 95.17110514 0 2711.85195145 0 402.69181618 0 279.44819750 0 31257
0.17150000 0.17149500 8623.07411722 0 125.98746152 0 2578.57155574 0 185.70004634 0 600.68463815 0 32608
0.17250000 0.17250900 8452.35111392 0 145.77437900 0 2356.70359161 0 285.15507587 0 339.17651922 0 32361
0.17350000 0.17350400 8342.17025545 0 176.13874882 0 2310.80801467 0 172.23487083 0 394.47040423 0 32508
0.17450000 0.17449800 8162.64582263 0 138.15546594 0 2255.15555291 0 -69.30254598 0 418.80191681 0 32791
0.17550000 0.17549800 8077.94751937 0 97.65663783 0 2316.78804086 0 69.04805765 0 243.91537647 0 33633
0.17650000 0.17650100 7978.70381406 0 -10.82760178 0 2218.40986567 0 70.12007851 0 689.72632885 0 33984
0.17750000 0.17750300 8123.73068979 0 11.97016896 0 2188.29616236 0 232.82984672 0 463.25194606 0 34069
0.17850000 0.17849800 8074.44043634 0 43.12430690 0 2159.80111275 0 183.53959327 0 554.29222446 0 34536
