### header ###
fiducial parameters:
Omega_m = 0.31
Omega_nu = 0
Omega_de = 0.69
Omega_k = 0
H_0 = 100
w_de = -1
zeff = 0
beta = 0
fgrowth = 0
b_1 = 2
gamma = 0.55
Lx = 3500 Ly = 3500 Lz = 3500
nx = 700 ny = 700 nz = 700
xoffset = 857.220397 yoffset = 15.9954215 zoffset = 262.898189
bins = 400 dk = 0.001
kx_ny = 0.628318531 ky_ny = 0.628318531 kz_ny = 0.628318531
############################
A(data) = 3.05609043 (not used)
A(ran) = 3.05624599 (used)
Ngal = 186649
weighted Ngal = 0
Nran = 9360983
weighted Nran = 0
SN(data) = 3441.49896
SN(ran) = 68.6317989
SN(data+ran) = 3510.13076
############################
13 columns: k_central k_mean P_0(k) sigma^{lin}_{P_0(k)} P^img_1(k) sigma^{lin}_{P_1(k)} P_2(k) sigma^{lin}_{P_2(k)} P^img_3(k) sigma^{lin}_{P_3(k)} P_4(k) sigma^{lin}_{P_4(k)} N_modes
### header ###
0.00050000 0 0 0 0 0 0 0 0 0 0 0 0
0.00150000 0.00179520 7680.23081520 0 -15528.95898486 0 -9114.70645824 0 21398.82679659 0 6688.62557032 0 3
0.00250000 0.00253879 12653.26330835 0 -13990.11389979 0 6632.77077684 0 -22954.19563824 0 -20458.20914342 0 6
0.00350000 0.00331552 29250.75855171 0 -8595.71437334 0 -1550.89506266 0 7384.12959365 0 -28882.06520773 0 7
0.00450000 0.00420575 41028.48757462 0 -4770.23991331 0 7089.01754936 0 -13418.75162314 0 -23542.53129750 0 24
0.00550000 0.00557378 45236.98720831 0 9067.64185363 0 23464.85840094 0 -37292.65730418 0 -17860.26994647 0 45
0.00650000 0.00659388 48604.23654128 0 2948.27655828 0 32083.40253592 0 -16142.92332779 0 7153.30283089 0 40
0.00750000 0.00754703 48968.77084449 0 -10807.17751685 0 36901.81987826 0 17999.54160903 0 -20781.49025844 0 57
0.00850000 0.00846663 59574.21240267 0 -18359.57965194 0 29768.50292438 0 6172.92699608 0 -31137.83899643 0 75
0.00950000 0.00948925 73889.96795414 0 -8483.80245466 0 13405.82487479 0 12341.11043756 0 -46735.59076376 0 112
0.01050000 0.01054430 69799.49515313 0 1622.84646799 0 11887.88740008 0 -3640.12737012 0 -8595.16358145 0 105
0.01150000 0.01145670 65801.75772066 0 6376.45021822 0 -8817.03154558 0 -5017.73656111 0 -11809.09043846 0 144
0.01250000 0.01249090 58645.84705880 0 4694.33179893 0 -3181.14911947 0 -1866.10539045 0 -6758.89087804 0 169
0.01350000 0.01339930 56805.30290811 0 -2547.18765890 0 -15930.69984199 0 -1697.01228151 0 -17613.98728896 0 180
0.01450000 0.01448870 54641.47764239 0 -990.15632501 0 -15327.41411726 0 -9085.44704439 0 -15892.59403601 0 267
0.01550000 0.01550050 59048.59957449 0 -4590.10848535 0 -13777.77800748 0 -6387.26372422 0 -22034.14837590 0 238
0.01650000 0.01653350 59576.57293933 0 -3482.38731841 0 -21250.56261345 0 -11404.65182516 0 -15387.66400518 0 315
0.01750000 0.01747870 63952.44586239 0 -3831.46572686 0 -14856.99288417 0 -12660.90695085 0 -18851.35812142 0 297
0.01850000 0.01844180 62976.98219196 0 -3501.51890596 0 -5560.27780929 0 -16374.81795237 0 -15891.13275142 0 388
0.01950000 0.01947590 78645.32524589 0 2133.63287785 0 3868.30133931 0 -14985.92314805 0 -18421.06601144 0 399
0.02050000 0.02045430 78866.87847179 0 4975.89885909 0 17722.12234899 0 -18938.47316459 0 9134.28767181 0 462
0.02150000 0.02154770 76725.75932056 0 4755.97552754 0 45784.29449240 0 -8408.88351754 0 17583.07549945 0 571
0.02250000 0.02255340 79896.85929828 0 3047.95864896 0 72823.45501278 0 -4168.82013660 0 45442.80352319 0 510
0.02350000 0.02348930 78621.83228586 0 1058.63886552 0 79054.03530647 0 21218.07713283 0 49292.50158554 0 555
0.02450000 0.02439640 81060.60386845 0 3556.72174170 0 85595.86921889 0 22571.11426132 0 56935.02001754 0 592
0.02550000 0.02547300 82576.29321302 0 92.66207949 0 83575.02503047 0 34943.02408188 0 74223.14084181 0 837
0.02650000 0.02652900 74295.19341299 0 3267.84825856 0 69420.46041048 0 39189.96674106 0 58364.38116450 0 723
0.02750000 0.02749970 76075.60008227 0 1808.05867008 0 57032.36405287 0 24869.37770978 0 63638.83170700 0 826
0.02850000 0.02848090 65279.51708769 0 4783.34651207 0 38832.73886083 0 16094.25131013 0 39658.58947004 0 831
0.02950000 0.02946900 62868.06028637 0 6414.70215265 0 31933.11503564 0 7177.50395191 0 44991.94102237 0 996
0.03050000 0.03053250 53901.28079176 0 5223.12573127 0 26092.24810281 0 2853.68648238 0 30863.34230558 0 1041
0.03150000 0.03150510 50528.97316595 0 1902.82859639 0 16288.71456777 0 3582.09189040 0 20766.76500598 0 1036
0.03250000 0.03246190 49721.66963045 0 -6.57944513 0 18516.83635567 0 5713.40919420 0 17167.28382891 0 1059
0.03350000 0.03345080 51252.30904049 0 -1334.33268567 0 11379.80998704 0 2905.74193591 0 8794.12309939 0 1302
0.03450000 0.03451200 51044.69422149 0 -313.43205685 0 14697.82526981 0 -3466.43683503 0 10404.08778164 0 1339
0.03550000 0.03553350 51612.12227039 0 1293.66401133 0 10665.74764935 0 -249.37608460 0 8421.91143174 0 1365
0.03650000 0.03647120 49127.26401980 0 1300.46460502 0 14735.81866929 0 -1719.60598948 0 10693.57950056 0 1308
0.03750000 0.03744890 49198.86696495 0 673.38354676 0 12391.01892680 0 5480.89633383 0 3157.26273667 0 1579
0.03850000 0.03847530 48499.81089599 0 -1324.91302036 0 12249.49913410 0 2931.34813828 0 4903.28425537 0 1662
0.03950000 0.03950240 49390.63246642 0 -681.81066261 0 7762.20888098 0 2875.59451065 0 -1125.39146989 0 1683
0.04050000 0.04050350 51957.09784132 0 -1115.58512619 0 12734.08358711 0 721.41147513 0 4765.06921398 0 1822
0.04150000 0.04152450 51471.27691673 0 -552.18010618 0 8516.29917592 0 -1619.76652969 0 8303.32256652 0 1887
0.04250000 0.04250150 53970.18598074 0 775.36884677 0 13191.91529138 0 -4060.24669119 0 6186.77547778 0 1920
0.04350000 0.04349210 51905.27844145 0 2222.72627555 0 17353.09178549 0 -5111.20257194 0 8184.12670617 0 2005
0.04450000 0.04448520 51826.25666682 0 2897.61494543 0 20375.47795404 0 -2879.73107012 0 9452.43180945 0 2151
0.04550000 0.04548030 50859.11107792 0 3013.86575529 0 25828.09281063 0 1587.20236452 0 15056.51443464 0 2274
0.04650000 0.04648670 47141.94028769 0 3059.33418750 0 23859.18042859 0 2099.68611264 0 5127.09685207 0 2311
0.04750000 0.04749250 45349.50612213 0 3305.07729378 0 22876.18552216 0 4515.97639378 0 8458.39858401 0 2568
0.04850000 0.04851840 41692.13559378 0 2205.98894661 0 21962.54543075 0 3200.17954116 0 5139.09062640 0 2493
0.04950000 0.04949480 39132.63942234 0 1482.95656964 0 17116.70090062 0 4344.21925061 0 4176.37385389 0 2644
0.05050000 0.05050630 38881.63569151 0 398.12473979 0 17476.96375655 0 2910.68782224 0 2309.53782114 0 2829
0.05150000 0.05149060 38127.16321445 0 -300.66717388 0 13493.72676351 0 -360.99574636 0 -738.23198489 0 2784
0.05250000 0.05249300 36938.80161917 0 1323.53042032 0 15384.06699694 0 -1764.02904117 0 -1519.92706989 0 3055
0.05350000 0.05348950 36807.39841212 0 858.59574885 0 12656.18587754 0 731.34821038 0 -2129.30522732 0 3009
0.05450000 0.05448610 35674.00359892 0 702.76211151 0 13301.62404252 0 1927.59174995 0 1626.42099492 0 3336
0.05550000 0.05550870 35673.32915987 0 -198.59419679 0 13033.30970957 0 4046.42069079 0 -1162.03599127 0 3349
0.05650000 0.05647670 35342.62921537 0 -727.08463156 0 13185.84533999 0 3210.27364552 0 319.25134174 0 3324
0.05750000 0.05747970 36861.46594214 0 -583.20879846 0 10967.66028734 0 2567.63440258 0 -753.86548192 0 3639
0.05850000 0.05849280 36657.67294439 0 -471.08218335 0 9845.93326959 0 892.81341374 0 -122.35448321 0 3846
0.05950000 0.05951020 36799.75476963 0 428.36883464 0 11585.85111494 0 -1130.93311070 0 2266.50861014 0 3787
0.06050000 0.06049470 37235.32998545 0 1227.73759479 0 12616.50638046 0 -1735.16305009 0 -226.89141094 0 3930
0.06150000 0.06148310 35719.30342136 0 1085.14881620 0 12302.21778603 0 -929.84124131 0 -729.26306967 0 4083
0.06250000 0.06249100 35631.51393915 0 1131.59630909 0 12591.43972933 0 -384.35943890 0 -1056.05688805 0 4303
0.06350000 0.06350600 34490.13826393 0 207.83176356 0 11983.77015082 0 2810.48866162 0 -849.97641787 0 4470
0.06450000 0.06451750 34036.35319392 0 981.61455452 0 11767.72484377 0 2057.02784312 0 -3651.71648102 0 4479
0.06550000 0.06550280 32516.95443461 0 1902.74991184 0 10269.27865742 0 570.85532331 0 -5147.68972421 0 4636
0.06650000 0.06648880 30308.61619200 0 2336.29056988 0 10769.49885560 0 -758.74055215 0 -839.64963204 0 4653
0.06750000 0.06749660 28520.45347371 0 2372.83392541 0 10935.20852868 0 -950.47795199 0 -2442.21122172 0 5220
0.06850000 0.06852730 27036.35035770 0 1615.57376696 0 12809.62076002 0 -83.78882221 0 2170.27739924 0 5029
0.06950000 0.06949320 25142.07589652 0 778.28579564 0 11770.31019344 0 -119.26442832 0 -1454.43903873 0 5040
0.07050000 0.07048030 25940.49931794 0 652.53438778 0 15986.45346962 0 995.08085409 0 4335.36161783 0 5475
0.07150000 0.07148790 25742.32664555 0 236.23126763 0 13220.91617027 0 781.40282809 0 3171.17866228 0 5509
0.07250000 0.07249820 24987.51694896 0 -342.45429298 0 14176.25907590 0 768.70201682 0 4449.84764553 0 5916
0.07350000 0.07351270 26292.44409232 0 -439.74212505 0 12698.22591128 0 1890.58752775 0 5447.66897027 0 5721
0.07450000 0.07449140 26031.54858886 0 -599.23684234 0 12131.69711444 0 1509.54070862 0 2655.27775633 0 6028
0.07550000 0.07549160 26445.76656830 0 151.96123317 0 10691.88216230 0 1189.32829124 0 3864.14229854 0 6183
0.07650000 0.07648840 26073.36380958 0 406.12021465 0 10291.77119953 0 1131.63003104 0 2099.53998419 0 6330
0.07750000 0.07749960 25564.72436400 0 719.12063052 0 9093.92249504 0 -851.55797743 0 1416.45687991 0 6583
0.07850000 0.07848650 24964.58602147 0 568.53075674 0 11072.61424321 0 -53.65095150 0 450.49155935 0 6549
0.07950000 0.07947320 24268.67733472 0 570.72830396 0 9689.87931549 0 -1212.21425613 0 -1096.36698563 0 6828
0.08050000 0.08048110 24049.03501943 0 221.73644851 0 8943.63499476 0 94.21913443 0 -3501.42898075 0 7147
0.08150000 0.08149960 23767.45671862 0 146.52075821 0 9068.91204716 0 -629.25275199 0 -3999.53593659 0 7386
0.08250000 0.08250610 23466.20727903 0 259.04529236 0 7422.95480127 0 1369.31359075 0 -5475.83804100 0 7227
0.08350000 0.08350160 23035.80276254 0 520.48596738 0 7104.16994654 0 1962.56141438 0 -5787.28275080 0 7798
0.08450000 0.08449610 21932.30808028 0 422.58776797 0 4844.37200488 0 1640.55049289 0 -4510.10877410 0 7371
0.08550000 0.08548940 21989.29817949 0 481.14931015 0 4383.37043711 0 2077.55327136 0 -4638.29715503 0 8256
0.08650000 0.08650700 21349.59274639 0 -109.06702238 0 3475.54176212 0 1967.49606005 0 -2172.48056678 0 8037
0.08750000 0.08749060 22024.25660326 0 81.66501366 0 3889.59113179 0 1075.51333040 0 -1470.29959692 0 8155
0.08850000 0.08849210 21641.62485238 0 274.83953070 0 4347.63640843 0 281.00390356 0 356.78275046 0 8718
0.08950000 0.08949900 21817.65344282 0 601.23093378 0 5275.24862870 0 -1176.97481609 0 1101.51520367 0 8571
0.09050000 0.09049190 21046.09517665 0 791.38902219 0 6358.38649249 0 -360.00769316 0 2734.95148871 0 8932
0.09150000 0.09150830 20681.56087344 0 767.87695306 0 7273.31925874 0 -180.09995414 0 3681.35807700 0 9285
0.09250000 0.09250820 19752.18387100 0 874.88345176 0 7480.74298668 0 285.57547621 0 2919.23071679 0 9204
0.09350000 0.09350330 19858.29561391 0 680.66748843 0 7983.15511175 0 978.14344157 0 3811.59225637 0 9349
0.09450000 0.09448040 18230.08735552 0 840.87598704 0 7333.95132878 0 260.94046607 0 2601.09781980 0 9564
0.09550000 0.09549270 18110.71164476 0 804.09770191 0 8184.40772244 0 -184.23876174 0 3695.56625953 0 10155
0.09650000 0.09649430 17093.99478614 0 593.72555129 0 8160.98220632 0 -437.57155540 0 2602.28932878 0 9913
0.09750000 0.09749140 17063.19540314 0 542.13096443 0 8607.34844684 0 -582.94014691 0 3161.89388477 0 10476
0.09850000 0.09850240 16744.63536142 0 47.01480853 0 8300.55736644 0 172.35626985 0 2858.72229391 0 10575
0.09950000 0.09950330 16626.49612224 0 49.13153547 0 8188.72413232 0 739.33244459 0 2456.82406767 0 10882
0.10050000 0.10051200 16856.47983619 0 -87.93628511 0 7633.60459597 0 1162.42941404 0 1830.27019592 0 10875
0.10150000 0.10150300 16700.45960405 0 -16.54994729 0 6694.81916887 0 1241.17017241 0 1657.15293402 0 11118
0.10250000 0.10250800 16464.63075171 0 -25.95904639 0 5604.95939595 0 689.02154005 0 927.08615782 0 11575
0.10350000 0.10349800 16613.90659342 0 141.47707823 0 5947.99033430 0 346.99439181 0 -368.10883014 0 11364
0.10450000 0.10450100 16358.29419580 0 139.30426044 0 5152.02861539 0 -206.69870597 0 -508.71925420 0 12093
0.10550000 0.10551000 16168.43960495 0 356.44328281 0 5134.93158563 0 -402.05109909 0 -1156.68544152 0 12067
0.10650000 0.10649700 15793.11427704 0 289.06007794 0 4328.47109893 0 -212.11782368 0 -1171.82659806 0 12054
0.10750000 0.10749900 15854.48823003 0 38.86117771 0 5478.91797930 0 418.36240736 0 -1060.03495434 0 12807
0.10850000 0.10850100 16124.37625408 0 -296.25971473 0 5174.09401278 0 562.53274551 0 -969.13743220 0 12736
0.10950000 0.10950300 16291.07510443 0 -263.52806387 0 5305.83443934 0 612.50418240 0 -782.61794243 0 12933
0.11050000 0.11050200 16619.75173180 0 -208.74450440 0 5212.67192609 0 668.85019232 0 570.66086005 0 13428
0.11150000 0.11150900 16673.14482277 0 83.82782727 0 5694.53614162 0 661.88098886 0 1218.10435711 0 13453
0.11250000 0.11250000 16777.79528108 0 87.78936980 0 5260.95052098 0 393.26765460 0 1282.89546793 0 13668
0.11350000 0.11349100 16314.90528398 0 299.08111806 0 5372.66010794 0 400.56171286 0 1590.13617436 0 13791
0.11450000 0.11448600 16188.67277627 0 476.64742953 0 5239.31226832 0 -48.50194662 0 1631.59169425 0 14205
0.11550000 0.11549300 15443.08041328 0 630.51170487 0 4981.81144137 0 -95.60184687 0 1237.58440483 0 14776
0.11650000 0.11649800 14968.38773291 0 480.42878444 0 4742.30689625 0 23.43608234 0 444.04054989 0 14553
0.11750000 0.11747300 14679.61541563 0 295.79547586 0 4566.25582450 0 -62.86895954 0 60.98221631 0 14568
0.11850000 0.11849100 14405.23113129 0 135.29921659 0 4141.98870331 0 83.50072433 0 -433.71376406 0 16015
0.11950000 0.11950300 14354.98542252 0 105.49834059 0 4734.15742447 0 -29.41318595 0 -978.39410808 0 15270
0.12050000 0.12050700 14173.56131972 0 207.43609265 0 4144.94499445 0 -276.00518618 0 -771.38628422 0 15999
0.12150000 0.12150000 14148.38226208 0 305.58158638 0 4917.03157121 0 291.37340386 0 -805.78829578 0 15670
0.12250000 0.12250700 13637.15746684 0 435.64490786 0 4301.21252091 0 403.41796221 0 22.44521897 0 16887
0.12350000 0.12352200 13576.45795289 0 304.04161723 0 4703.13322845 0 516.08188043 0 168.45801218 0 16407
0.12450000 0.12449800 13334.55914916 0 264.88705854 0 3970.55753901 0 571.41960398 0 883.37913558 0 16306
0.12550000 0.12549900 13046.57367743 0 241.67511478 0 4271.45851843 0 496.87610459 0 800.28599725 0 17523
0.12650000 0.12650100 12864.36272908 0 132.17768788 0 3787.03143452 0 627.68692934 0 1532.68520847 0 17154
0.12750000 0.12750600 12747.57236799 0 2.09712324 0 3974.33439766 0 288.73522313 0 1791.87213303 0 18007
0.12850000 0.12850300 12973.50944768 0 -75.26852136 0 3855.18349991 0 429.06687905 0 1853.63950879 0 17496
0.12950000 0.12949900 12822.32269535 0 20.85208155 0 3603.41540483 0 608.97124587 0 1195.97151583 0 18405
0.13050000 0.13049000 12753.86713240 0 211.92336043 0 3534.48773455 0 -115.95068449 0 1568.79017862 0 18100
0.13150000 0.13148800 12724.41662748 0 325.28195085 0 3899.37049793 0 -477.24992841 0 2004.20802534 0 19059
0.13250000 0.13249300 12240.28180050 0 439.41389805 0 3887.88255288 0 -573.16415297 0 1719.67343338 0 18957
0.13350000 0.13349100 12301.20612746 0 133.37594125 0 4350.31168331 0 -283.20369891 0 1934.99933879 0 19468
0.13450000 0.13450700 12082.01343821 0 -75.19365863 0 4754.98635027 0 -39.10723555 0 2282.58274069 0 19953
0.13550000 0.13551000 12466.33128670 0 -8.39509124 0 4755.81815843 0 259.46681676 0 2234.19173929 0 19956
0.13650000 0.13649900 12410.12803304 0 -105.16471808 0 4639.58982987 0 529.22107707 0 2436.81570937 0 19723
0.13750000 0.13749600 12451.94325376 0 18.55449254 0 4479.53420411 0 621.41801843 0 2147.30150914 0 20946
0.13850000 0.13851100 12473.52530317 0 33.92484594 0 4353.30169640 0 613.49560779 0 2625.83849206 0 20955
0.13950000 0.13949800 12302.44259904 0 145.52371249 0 3576.04442030 0 672.83275487 0 1912.37190886 0 20506
0.14050000 0.14048300 12168.22922931 0 284.86169489 0 3471.32651809 0 230.37039234 0 1790.21975737 0 21447
0.14150000 0.14148400 11750.52664815 0 366.54975188 0 2698.12711691 0 129.85424537 0 1325.82351307 0 21771
0.14250000 0.14249400 11379.69758053 0 272.90051845 0 2909.65368237 0 -99.62465096 0 1281.38922073 0 22470
0.14350000 0.14350900 11299.77655384 0 145.16063947 0 2467.13174439 0 31.95346061 0 673.87251506 0 22519
0.14450000 0.14449900 11216.03370589 0 1.62149759 0 2538.62228304 0 155.08501001 0 350.09456328 0 22218
0.14550000 0.14550500 11155.55900496 0 56.03576796 0 2435.17457436 0 -46.58564048 0 267.00030088 0 23559
0.14650000 0.14650700 11132.22341404 0 92.36667519 0 2735.97438792 0 -117.32429200 0 -98.53520709 0 23044
0.14750000 0.14750500 11032.53008271 0 222.76946432 0 2690.20245815 0 -252.73703917 0 -250.99136611 0 23649
0.14850000 0.14849900 10851.36451488 0 408.60552253 0 3189.96178965 0 -174.74603220 0 -246.85593070 0 23640
0.14950000 0.14949500 10466.25982083 0 408.82134302 0 3073.14894725 0 -267.39147552 0 -111.90573632 0 24457
0.15050000 0.15050000 10305.55223733 0 287.21773528 0 3660.67527966 0 -56.16020196 0 -181.26785775 0 24591
0.15150000 0.15149900 10054.96441058 0 196.39440144 0 3169.38015816 0 8.58560903 0 -274.22466710 0 25020
0.15250000 0.15250500 9978.67411407 0 42.50382298 0 3571.30086570 0 -67.15501966 0 -359.64237201 0 25297
0.15350000 0.15350100 9996.58047069 0 4.13188336 0 3323.46699838 0 229.94661981 0 -520.47247860 0 25452
0.15450000 0.15450400 10037.53016130 0 69.73272569 0 3483.71371520 0 26.27839328 0 -78.84248626 0 26061
0.15550000 0.15549900 9990.04965261 0 113.30351124 0 3572.35748686 0 137.67099389 0 -271.85851012 0 26128
0.15650000 0.15649500 9936.01584455 0 197.21496895 0 3793.65217781 0 27.98067743 0 227.30506689 0 26331
0.15750000 0.15749700 9711.34895839 0 240.31274791 0 3761.87485819 0 316.82336118 0 164.85538362 0 27345
0.15850000 0.15849900 9504.58842884 0 159.42165306 0 3905.74394689 0 187.56599436 0 858.39791340 0 26980
0.15950000 0.15949700 9459.33356900 0 91.99573371 0 3627.34675024 0 505.21666743 0 390.52043957 0 27777
0.16050000 0.16050000 9505.12798008 0 13.00981675 0 3605.76470084 0 415.82876469 0 1273.09362049 0 28224
0.16150000 0.16150500 9316.97072749 0 -17.54631857 0 3060.52569648 0 469.95474609 0 686.47553266 0 28075
0.16250000 0.16249700 9445.46260600 0 55.40943890 0 3159.57831072 0 401.02257954 0 988.24991064 0 28590
0.16350000 0.16349900 9303.67303768 0 160.33214577 0 2696.44101930 0 78.87216158 0 1000.96758288 0 29163
0.16450000 0.16449100 9192.08709787 0 195.63678158 0 2799.18056698 0 209.30990913 0 1147.98517785 0 28996
0.16550000 0.16550500 9058.25591027 0 149.25785667 0 2481.71086839 0 18.92082534 0 865.27719164 0 30777
0.16650000 0.16650700 8924.13246575 0 108.76273797 0 2412.54714444 0 218.05625947 0 229.25869198 0 29211
0.16750000 0.16749900 8929.95512282 0 27.03061763 0 2300.56778186 0 44.75824789 0 827.42430031 0 30922
0.16850000 0.16850800 8758.16425770 0 77.00194211 0 2213.96980863 0 6.03551004 0 73.52296071 0 30867
0.16950000 0.16949900 8859.90338747 0 93.88169009 0 2271.54442167 0 128.64250323 0 453.31296268 0 30852
0.17050000 0.17049200 8607.78683222 0 162.62861071 0 2273.41036969 0 13.45022545 0 56.10411112 0 31257
0.17150000 0.17149500 8595.69189204 0 164.59347646 0 2421.96680975 0 0.34538585 0 730.80303882 0 32608
0.17250000 0.17250900 8475.21459750 0 61.86078557 0 2649.26400818 0 183.01802707 0 1070.36848456 0 32361
0.17350000 0.17350400 8526.29211442 0 -2.73347896 0 2645.45342759 0 188.03248136 0 1129.30321634 0 32508
0.17450000 0.17449800 8600.55909380 0 -49.85981723 0 2725.48686079 0 127.38804660 0 1432.84574868 0 32791
0.17550000 0.17549800 8595.64692943 0 28.87745654 0 2556.30382664 0 -87.62120967 0 825.41334789 0 33633
0.17650000 0.17650100 8657.71780277 0 154.39483405 0 2749.48565010 0 -280.16310288 0 1094.31444281 0 33984
0.17750000 0.17750300 8384.67115586 0 188.08306429 0 2290.00157017 0 -157.61865268 0 522.86448908 0 34069
