### header ###
fiducial parameters:
Omega_m = 0.31
Omega_nu = 0
Omega_de = 0.69
Omega_k = 0
H_0 = 100
w_de = -1
zeff = 0
beta = 0
fgrowth = 0
b_1 = 2
gamma = 0.55
Lx = 3500 Ly = 3500 Lz = 3500
nx = 700 ny = 700 nz = 700
xoffset = 857.220397 yoffset = 15.9954215 zoffset = 262.898189
bins = 400 dk = 0.001
kx_ny = 0.628318531 ky_ny = 0.628318531 kz_ny = 0.628318531
############################
A(data) = 3.07447304 (not used)
A(ran) = 3.06959526 (used)
Ngal = 187447
weighted Ngal = 0
Nran = 9360983
weighted Nran = 0
SN(data) = 3457.074
SN(ran) = 68.9315735
SN(data+ran) = 3526.00558
############################
13 columns: k_central k_mean P_0(k) sigma^{lin}_{P_0(k)} P^img_1(k) sigma^{lin}_{P_1(k)} P_2(k) sigma^{lin}_{P_2(k)} P^img_3(k) sigma^{lin}_{P_3(k)} P_4(k) sigma^{lin}_{P_4(k)} N_modes
### header ###
0.00050000 0 0 0 0 0 0 0 0 0 0 0 0
0.00150000 0.00179520 2491.63636298 0 -4339.77919357 0 -3147.68570225 0 2381.41054192 0 -38044.43202507 0 3
0.00250000 0.00253879 8374.98171493 0 -8946.87230217 0 4459.08746043 0 -10999.65117932 0 22413.52033807 0 6
0.00350000 0.00331552 15206.23990238 0 -13631.98676750 0 -7449.64010611 0 25772.33918300 0 879.31339221 0 7
0.00450000 0.00420575 26163.17660892 0 -16503.18618372 0 650.53580008 0 26.50264426 0 584.02486970 0 24
0.00550000 0.00557378 45687.51248961 0 -16346.04188650 0 -9274.39114252 0 11087.78912170 0 -2259.61809125 0 45
0.00650000 0.00659388 55584.79305174 0 -13730.45486791 0 -3271.64759851 0 -13953.46937841 0 -13817.79472409 0 40
0.00750000 0.00754703 63796.20081723 0 -5794.26319491 0 -21499.76784015 0 -19441.94191083 0 -23956.41205741 0 57
0.00850000 0.00846663 73902.44507645 0 -7917.46474888 0 -21975.02255306 0 -28074.08723319 0 -18749.96745183 0 75
0.00950000 0.00948925 70305.09962301 0 -2415.89685836 0 -25585.40716135 0 -39589.90909407 0 -11225.36344600 0 112
0.01050000 0.01054430 85130.05665260 0 -7072.48255213 0 -4497.82274285 0 -38467.64252509 0 -47698.80212490 0 105
0.01150000 0.01145670 82403.52441129 0 -806.53242686 0 -4355.20136637 0 -35386.91737925 0 -21559.79291506 0 144
0.01250000 0.01249090 85453.11295460 0 5166.00074425 0 10421.47706832 0 -20676.50258061 0 -45441.22983209 0 169
0.01350000 0.01339930 79681.93805630 0 7107.81191738 0 18570.22944664 0 -20892.54788766 0 -14159.39809980 0 180
0.01450000 0.01448870 74011.14216902 0 9893.17772461 0 38232.37570529 0 -5099.61346103 0 -22448.70357486 0 267
0.01550000 0.01550050 74265.18087554 0 6641.65089091 0 39219.52965249 0 -525.08451760 0 -32149.94718824 0 238
0.01650000 0.01653350 70557.67704494 0 -432.14456922 0 54584.37513668 0 12916.51934847 0 2642.98048443 0 315
0.01750000 0.01747870 72701.38154585 0 -3610.83423432 0 52434.37587136 0 6372.38110265 0 78.90138727 0 297
0.01850000 0.01844180 80895.02908319 0 -3666.83515626 0 60265.40001612 0 13604.44717321 0 16128.31048184 0 388
0.01950000 0.01947590 80875.58275742 0 -288.20578848 0 41007.57996427 0 10866.69676247 0 -4083.25630324 0 399
0.02050000 0.02045430 83861.77403062 0 4126.75762157 0 53702.43368032 0 7339.23443463 0 7644.59795239 0 462
0.02150000 0.02154770 79743.64922881 0 6310.15286021 0 49390.96968595 0 9167.40262887 0 7359.51256855 0 571
0.02250000 0.02255340 77618.71661463 0 6276.79060884 0 52144.14226949 0 9001.56930863 0 14694.34066809 0 510
0.02350000 0.02348930 73091.31971970 0 3501.76620027 0 34833.42773725 0 18395.77454730 0 11048.50304740 0 555
0.02450000 0.02439640 69293.89068325 0 1310.26645246 0 38075.45622109 0 10664.47745582 0 3594.22055254 0 592
0.02550000 0.02547300 69141.91708537 0 2904.70779605 0 31004.52487876 0 8493.45817364 0 16786.67539515 0 837
0.02650000 0.02652900 65102.13961916 0 5113.55186794 0 32304.16891627 0 3877.51867291 0 7328.73566685 0 723
0.02750000 0.02749970 65875.94601548 0 2857.19356541 0 36163.64634476 0 1790.98412162 0 34312.98560841 0 826
0.02850000 0.02848090 60426.02891507 0 405.13440958 0 25837.31014423 0 5131.55939041 0 7979.44569701 0 831
0.02950000 0.02946900 63369.61812199 0 -551.44721576 0 38888.38008195 0 6322.55129796 0 25204.34910156 0 996
0.03050000 0.03053250 61981.39775671 0 1083.44922981 0 29055.73326152 0 9465.71825862 0 11829.77323580 0 1041
0.03150000 0.03150510 63603.76087672 0 3133.38759452 0 36169.60388965 0 -1836.39635057 0 11068.68001546 0 1036
0.03250000 0.03246190 59537.00584875 0 3633.58531140 0 29168.92661439 0 -1400.02304854 0 7103.33813839 0 1059
0.03350000 0.03345080 57039.89528886 0 2833.63316147 0 34385.37539912 0 -2714.41481982 0 4739.50797422 0 1302
0.03450000 0.03451200 54205.79002006 0 561.64361003 0 24160.09264866 0 1190.39615306 0 -3235.84612593 0 1339
0.03550000 0.03553350 56378.72021287 0 -1199.91698423 0 25435.68169361 0 4682.82137258 0 -12639.43730796 0 1365
0.03650000 0.03647120 53022.59912411 0 -309.58887837 0 19014.79718305 0 4905.82464243 0 -15821.55312339 0 1308
0.03750000 0.03744890 56693.12121381 0 -1692.21252365 0 15294.81623014 0 6841.58834547 0 -17598.81241047 0 1579
0.03850000 0.03847530 55259.26380657 0 159.88926413 0 12412.26375668 0 5178.09568444 0 -18250.77015287 0 1662
0.03950000 0.03950240 56077.80799280 0 622.16327357 0 13012.85172524 0 5100.61387895 0 -9937.81434867 0 1683
0.04050000 0.04050350 53461.43412865 0 2144.52506841 0 11409.82252449 0 732.39471496 0 -10273.22412583 0 1822
0.04150000 0.04152450 52680.65852888 0 3041.51775609 0 18962.64056366 0 -559.48540509 0 1296.32804555 0 1887
0.04250000 0.04250150 49939.96306765 0 3027.21964836 0 16591.98732449 0 -5393.62392155 0 -5838.54011814 0 1920
0.04350000 0.04349210 48249.59401072 0 3240.31990492 0 26431.60334837 0 -1782.04780429 0 6824.09789293 0 2005
0.04450000 0.04448520 48066.48381031 0 906.31231120 0 25717.48480743 0 -2530.33792345 0 3010.22378446 0 2151
0.04550000 0.04548030 47983.75262093 0 -629.71249460 0 28165.92334966 0 3258.17005828 0 2072.27016551 0 2274
0.04650000 0.04648670 48116.39229956 0 -410.24440940 0 23089.53307304 0 1629.19743565 0 -4452.42175455 0 2311
0.04750000 0.04749250 48285.45168655 0 321.42415952 0 24339.71824734 0 4526.03677618 0 -3314.08105502 0 2568
0.04850000 0.04851840 46661.06524942 0 1315.30226399 0 19156.54178877 0 668.56692792 0 -6064.07253440 0 2493
0.04950000 0.04949480 45385.81342399 0 2600.69315638 0 19965.08179585 0 3296.63556508 0 -4381.45952648 0 2644
0.05050000 0.05050630 42627.24532809 0 2219.90487221 0 17915.12432204 0 2140.48967480 0 -1470.85038880 0 2829
0.05150000 0.05149060 40030.09297670 0 1045.08601293 0 16279.04760814 0 4089.84332457 0 -220.02674554 0 2784
0.05250000 0.05249300 40194.09407086 0 532.97657848 0 16587.60347071 0 4166.67317231 0 4331.41614943 0 3055
0.05350000 0.05348950 38916.81892830 0 569.99316540 0 14094.20232556 0 4598.99984008 0 878.06455592 0 3009
0.05450000 0.05448610 38878.15108979 0 -13.35557917 0 12879.42520106 0 3694.35226925 0 5969.01035117 0 3336
0.05550000 0.05550870 38172.35063039 0 1250.92705725 0 11346.76247389 0 2986.59593662 0 4312.22835863 0 3349
0.05650000 0.05647670 37263.88123831 0 919.60325663 0 9879.91375675 0 1313.34639076 0 5143.68805255 0 3324
0.05750000 0.05747970 35267.54166848 0 761.53497792 0 8840.53574626 0 1663.62754884 0 5135.61726532 0 3639
0.05850000 0.05849280 36338.10124410 0 449.82049250 0 8479.55348868 0 1878.12164609 0 6325.86728993 0 3846
0.05950000 0.05951020 35622.29660555 0 -79.98138899 0 9638.41961645 0 -69.78982819 0 6197.11687645 0 3787
0.06050000 0.06049470 36468.38038608 0 -668.90976776 0 9456.96179170 0 559.31679533 0 8222.08638369 0 3930
0.06150000 0.06148310 36619.90435793 0 22.76006960 0 10418.79055279 0 418.94692120 0 7089.18615912 0 4083
0.06250000 0.06249100 37474.41862650 0 781.01839783 0 9152.09286257 0 199.88349943 0 7542.73517546 0 4303
0.06350000 0.06350600 35369.83159014 0 1917.37399844 0 11010.20615036 0 73.56983422 0 9597.31255672 0 4470
0.06450000 0.06451750 34276.67830655 0 2734.49062203 0 10189.86346001 0 766.79785059 0 5032.05715014 0 4479
0.06550000 0.06550280 30914.26245339 0 2065.52577507 0 9262.71210641 0 -379.74065551 0 4482.27692289 0 4636
0.06650000 0.06648880 29670.25963699 0 1524.90667817 0 8978.06510795 0 890.46186961 0 4466.47256796 0 4653
0.06750000 0.06749660 28593.74251648 0 25.37565662 0 8304.12065273 0 381.84602940 0 3027.99525326 0 5220
0.06850000 0.06852730 28921.51989180 0 -427.22903266 0 8525.79752579 0 1119.83296810 0 5492.37303822 0 5029
0.06950000 0.06949320 29163.64350854 0 -550.68734777 0 8419.13499101 0 -854.36926418 0 3988.77863384 0 5040
0.07050000 0.07048030 30304.00752520 0 -689.48353080 0 11003.85518269 0 1853.74067465 0 6268.37136144 0 5475
0.07150000 0.07148790 30039.17779398 0 194.86454888 0 8719.97976717 0 1437.51061873 0 6816.10579026 0 5509
0.07250000 0.07249820 30629.08714434 0 236.85512375 0 9356.38044896 0 2728.26330152 0 7527.95371975 0 5916
0.07350000 0.07351270 29634.06474163 0 165.31737437 0 8252.35745611 0 2393.46051950 0 6518.20606459 0 5721
0.07450000 0.07449140 28464.92465910 0 568.51726796 0 4935.97206769 0 3088.34630704 0 5420.56776136 0 6028
0.07550000 0.07549160 28849.69213363 0 555.28927018 0 3981.89935560 0 1966.23710717 0 4445.99210233 0 6183
0.07650000 0.07648840 26964.29778652 0 936.95544916 0 1758.36375320 0 826.79819606 0 3569.95198761 0 6330
0.07750000 0.07749960 25914.19619523 0 693.62121433 0 1411.02764561 0 -592.65094508 0 1828.74146742 0 6583
0.07850000 0.07848650 25754.69136135 0 293.84409889 0 2074.22603874 0 -2148.53798072 0 150.68429524 0 6549
0.07950000 0.07947320 25947.24370838 0 444.68801137 0 2674.60043493 0 -1640.01094165 0 74.26574291 0 6828
0.08050000 0.08048110 25256.28090794 0 604.62673436 0 4901.20473498 0 -3233.62047709 0 -293.19438928 0 7147
0.08150000 0.08149960 26003.55936854 0 826.27550580 0 6170.03814884 0 -2127.65285166 0 433.69128276 0 7386
0.08250000 0.08250610 24657.04181747 0 554.21241584 0 8285.78715138 0 -481.55959390 0 1025.64193530 0 7227
0.08350000 0.08350160 25207.60889028 0 276.77179856 0 7680.39942496 0 476.04830285 0 1237.78673654 0 7798
0.08450000 0.08449610 25463.55850742 0 -426.28819019 0 8620.97211553 0 1878.86352903 0 2726.06013398 0 7371
0.08550000 0.08548940 25585.85678737 0 -250.52937536 0 8043.91082895 0 1160.00143349 0 2757.71380644 0 8256
0.08650000 0.08650700 26242.08597705 0 -78.38825156 0 9141.65029804 0 -20.16224281 0 4424.85967895 0 8037
0.08750000 0.08749060 25721.30662868 0 505.51566874 0 9779.02891644 0 -421.07365232 0 4582.12762333 0 8155
0.08850000 0.08849210 25478.95819892 0 1110.65947304 0 10464.12409719 0 -809.19646108 0 5960.28760620 0 8718
0.08950000 0.08949900 24138.96022528 0 1251.19683287 0 10801.04012155 0 90.85447044 0 5666.51319935 0 8571
0.09050000 0.09049190 23307.15207119 0 1385.81486602 0 11450.62608665 0 1070.74167416 0 6346.97723200 0 8932
0.09150000 0.09150830 21908.81512025 0 1038.37646851 0 10020.83779497 0 2007.77131162 0 5377.28001539 0 9285
0.09250000 0.09250820 20641.43175033 0 670.66106115 0 8135.09498768 0 2148.99884740 0 3545.59349747 0 9204
0.09350000 0.09350330 20394.02502774 0 -59.08648057 0 7649.72368912 0 1257.94122331 0 4170.10157079 0 9349
0.09450000 0.09448040 19747.23798468 0 -7.17889779 0 5484.63947052 0 1372.21367864 0 2228.48148872 0 9564
0.09550000 0.09549270 20258.35037342 0 -191.04497576 0 6396.14383830 0 399.49609917 0 4026.95188373 0 10155
0.09650000 0.09649430 20494.85366480 0 -177.19761812 0 5626.71005511 0 -1074.01719978 0 3282.21381020 0 9913
0.09750000 0.09749140 20927.61871794 0 66.14808217 0 7647.62168743 0 -924.28948392 0 5259.10705426 0 10476
0.09850000 0.09850240 21018.21836284 0 125.34224817 0 7818.00747121 0 -730.06565213 0 3831.74674313 0 10575
0.09950000 0.09950330 21177.94800972 0 413.51993503 0 8742.86573206 0 -678.89483781 0 5230.85929897 0 10882
0.10050000 0.10051200 21097.35254398 0 451.08843790 0 9627.19020637 0 429.43220020 0 4713.77812469 0 10875
0.10150000 0.10150300 20158.42098842 0 1045.66490645 0 8311.98910824 0 185.49097023 0 3457.71409006 0 11118
0.10250000 0.10250800 19267.59941799 0 859.89067181 0 7724.50773843 0 827.20510762 0 2971.21872642 0 11575
0.10350000 0.10349800 18154.66258912 0 650.03671519 0 6899.82615690 0 918.32969090 0 542.40298818 0 11364
0.10450000 0.10450100 17689.41205536 0 426.52986418 0 5519.98007642 0 1294.84427966 0 1195.51064915 0 12093
0.10550000 0.10551000 17108.94485161 0 148.34174363 0 4656.73182223 0 619.06984649 0 -1136.84569298 0 12067
0.10650000 0.10649700 16915.94287856 0 313.57818531 0 4287.37527986 0 237.28339254 0 117.56709006 0 12054
0.10750000 0.10749900 16167.65275940 0 585.72108390 0 3823.93449087 0 329.34657016 0 -1137.49765072 0 12807
0.10850000 0.10850100 16032.87735713 0 552.92198913 0 4255.83401391 0 64.29067704 0 -57.41443377 0 12736
0.10950000 0.10950300 15359.22515883 0 411.00427739 0 4006.29156768 0 39.58653690 0 -524.28418326 0 12933
0.11050000 0.11050200 15058.20053225 0 400.09634992 0 4089.43866114 0 -66.32568445 0 -567.37746597 0 13428
0.11150000 0.11150900 14788.31250820 0 328.73845095 0 4158.02911190 0 -498.50150268 0 -819.68174008 0 13453
0.11250000 0.11250000 14798.76631338 0 220.46513092 0 4397.80343264 0 -666.91342820 0 -1674.31740768 0 13668
0.11350000 0.11349100 14640.16073156 0 -68.13632847 0 4619.34541790 0 -365.09183948 0 -960.02913292 0 13791
0.11450000 0.11448600 14767.06767832 0 -209.54596280 0 5020.07461646 0 83.21869640 0 -1774.84254717 0 14205
0.11550000 0.11549300 15072.58856519 0 -220.35609660 0 4669.78221773 0 273.12757959 0 -2122.36974582 0 14776
0.11650000 0.11649800 15189.94095882 0 168.18374030 0 4867.78628036 0 615.87075729 0 -1479.64057767 0 14553
0.11750000 0.11747300 14997.61342481 0 94.03040390 0 4820.05847735 0 316.63227012 0 -852.51680494 0 14568
0.11850000 0.11849100 14960.96890343 0 235.16677801 0 4539.81781398 0 550.20175166 0 -577.57161212 0 16015
0.11950000 0.11950300 14818.43745216 0 214.27602862 0 4461.13325886 0 327.22770749 0 -298.94173400 0 15270
0.12050000 0.12050700 14654.88598402 0 138.28136123 0 4209.26399793 0 428.64423059 0 -323.88923423 0 15999
0.12150000 0.12150000 14291.70055890 0 97.88999374 0 3914.26436015 0 215.82161810 0 -508.93732282 0 15670
0.12250000 0.12250700 14326.43416966 0 125.52209858 0 3999.37856748 0 -6.47264771 0 -594.17068105 0 16887
0.12350000 0.12352200 14195.25577563 0 124.71501986 0 3717.84522928 0 195.55135264 0 -1231.16599326 0 16407
0.12450000 0.12449800 14060.92999940 0 190.15808842 0 4081.91866580 0 -243.73215387 0 -1008.39540488 0 16306
0.12550000 0.12549900 13903.11126313 0 173.56463981 0 3489.69374139 0 -83.19475382 0 -1682.34323230 0 17523
0.12650000 0.12650100 13798.57321134 0 257.68180142 0 4066.14803283 0 -194.41604691 0 -940.76827789 0 17154
0.12750000 0.12750600 13583.08993682 0 219.42199853 0 4002.43602448 0 -351.66150999 0 -1752.54109612 0 18007
0.12850000 0.12850300 13470.57102301 0 353.52408582 0 4209.90471502 0 -175.56210344 0 -1418.34530924 0 17496
0.12950000 0.12949900 13170.67046150 0 221.93765616 0 4116.02280012 0 -172.19890074 0 -1174.41194772 0 18405
0.13050000 0.13049000 13202.25669006 0 185.48759804 0 4516.45974176 0 103.24762509 0 -1008.93270799 0 18100
0.13150000 0.13148800 13111.31982564 0 -84.17381449 0 4433.87468084 0 819.20288836 0 -426.59281183 0 19059
0.13250000 0.13249300 13075.01252378 0 25.70365881 0 4205.71195230 0 469.22297972 0 -807.26868948 0 18957
0.13350000 0.13349100 13272.06113110 0 -33.20016119 0 3973.97469683 0 530.77903126 0 163.54359968 0 19468
0.13450000 0.13450700 13142.79364769 0 43.59113113 0 4276.06718523 0 614.14082114 0 317.78780901 0 19953
0.13550000 0.13551000 13146.16584291 0 258.99470943 0 4045.12801596 0 321.28252732 0 1212.04564637 0 19956
0.13650000 0.13649900 12798.26770278 0 194.29015162 0 3988.83483710 0 312.02360332 0 948.46812364 0 19723
0.13750000 0.13749600 12610.77364859 0 313.84571280 0 4143.61859766 0 -35.25405289 0 1325.11535207 0 20946
0.13850000 0.13851100 12427.32622866 0 308.83013444 0 4675.18897073 0 -202.82292959 0 1544.35300393 0 20955
0.13950000 0.13949800 12178.45822148 0 257.54466548 0 4594.49233913 0 -327.20410213 0 1720.46027893 0 20506
0.14050000 0.14048300 11993.66192346 0 149.03641585 0 4663.40876877 0 -187.46595257 0 1588.95590603 0 21447
0.14150000 0.14148400 11862.59593594 0 109.45201467 0 4546.25870685 0 -119.76576134 0 1084.49011407 0 21771
0.14250000 0.14249400 12032.21735547 0 -6.65014882 0 4584.60056649 0 334.48916787 0 820.17632872 0 22470
0.14350000 0.14350900 11767.94965678 0 168.78848731 0 4228.06960661 0 347.12365929 0 388.27343348 0 22519
0.14450000 0.14449900 11825.38938202 0 198.49415500 0 3916.79350656 0 340.13534673 0 653.23805252 0 22218
0.14550000 0.14550500 11369.35618186 0 258.27643185 0 3407.89552602 0 774.66068578 0 717.75039519 0 23559
0.14650000 0.14650700 11160.44868803 0 208.20495316 0 3209.49804062 0 691.45963720 0 778.43754442 0 23044
0.14750000 0.14750500 11049.21120839 0 112.01409619 0 2932.53964726 0 889.63455771 0 930.95856200 0 23649
0.14850000 0.14849900 10899.76675692 0 136.77061777 0 2518.77129385 0 455.05751167 0 1024.56732909 0 23640
0.14950000 0.14949500 10680.96749044 0 232.74104558 0 2553.56110786 0 28.10904566 0 1328.72360096 0 24457
0.15050000 0.15050000 10447.48793411 0 278.95248480 0 2520.40118820 0 -147.35706263 0 1388.33277178 0 24591
0.15150000 0.15149900 10290.74830032 0 342.99834047 0 2875.67319521 0 -339.05849239 0 1680.55596884 0 25020
0.15250000 0.15250500 10046.80369815 0 248.47008815 0 3028.37743539 0 -151.15303038 0 1530.70685394 0 25297
0.15350000 0.15350100 9801.13927643 0 192.90080719 0 3203.43932987 0 7.24910690 0 1195.07226377 0 25452
0.15450000 0.15450400 9681.33642094 0 180.16177772 0 3339.56361023 0 47.70981796 0 1242.59773506 0 26061
0.15550000 0.15549900 9599.40331776 0 106.16873300 0 3417.95590842 0 -152.52551383 0 950.55326435 0 26128
0.15650000 0.15649500 9613.87003525 0 11.59506845 0 3369.63235093 0 19.10865662 0 1087.34299123 0 26331
0.15750000 0.15749700 9589.43286056 0 19.12113374 0 3106.61236448 0 76.16732379 0 328.55073209 0 27345
0.15850000 0.15849900 9694.15076277 0 -21.71277817 0 3204.95681772 0 100.20309484 0 685.28065149 0 26980
0.15950000 0.15949700 9654.21273072 0 -8.67091433 0 2847.78514074 0 166.55384595 0 344.37756832 0 27777
0.16050000 0.16050000 9733.96514766 0 -24.08005922 0 2688.17914102 0 185.02448323 0 460.52496419 0 28224
0.16150000 0.16150500 9754.45685394 0 65.33875532 0 2805.28424033 0 46.75514950 0 131.65612169 0 28075
0.16250000 0.16249700 9652.66152092 0 200.36347521 0 2947.11877125 0 -293.99022735 0 32.83832464 0 28590
0.16350000 0.16349900 9614.78052796 0 264.64650862 0 3155.12701303 0 -272.91288316 0 226.74753061 0 29163
0.16450000 0.16449100 9323.15308539 0 231.62597303 0 3091.61733640 0 -286.39716778 0 330.15926921 0 28996
0.16550000 0.16550500 9197.75238584 0 157.20499673 0 3409.67154883 0 150.80457021 0 384.29649126 0 30777
0.16650000 0.16650700 9091.48327383 0 77.72224301 0 3163.54626043 0 206.21198579 0 -131.34025940 0 29211
0.16750000 0.16749900 9076.48824575 0 146.22962536 0 3106.02785064 0 399.26903803 0 215.76316672 0 30922
0.16850000 0.16850800 8872.14445611 0 170.01933857 0 2697.64376893 0 274.39215280 0 -22.29257094 0 30867
0.16950000 0.16949900 8682.40227178 0 178.15532157 0 2601.98583121 0 145.23257964 0 159.60712379 0 30852
0.17050000 0.17049200 8594.34301395 0 101.83849712 0 2570.00617988 0 222.61209521 0 41.74654034 0 31257
0.17150000 0.17149500 8404.74695807 0 87.86243403 0 2158.67704768 0 45.36040955 0 -206.19962107 0 32608
0.17250000 0.17250900 8421.94515369 0 27.66324145 0 2342.96751642 0 25.69275538 0 -60.93601724 0 32361
0.17350000 0.17350400 8363.39260403 0 49.81069558 0 2287.55110831 0 -65.64112882 0 -391.14092349 0 32508
0.17450000 0.17449800 8364.92133253 0 5.92822927 0 2219.48896814 0 -131.68085112 0 -252.79099429 0 32791
0.17550000 0.17549800 8430.18455067 0 1.95132076 0 2447.30323650 0 -168.50971917 0 -668.76925963 0 33633
0.17650000 0.17650100 8439.64917859 0 79.79524382 0 2498.50440058 0 -230.17368095 0 -643.54411533 0 33984
0.17750000 0.17750300 8434.30986949 0 161.05267148 0 2682.43516849 0 -194.68807066 0 -800.13312440 0 34069
