### header ###
fiducial parameters:
Omega_m = 0.31
Omega_nu = 0
Omega_de = 0.69
Omega_k = 0
H_0 = 100
w_de = -1
zeff = 0
beta = 0
fgrowth = 0
b_1 = 2
gamma = 0.55
Lx = 3500 Ly = 3500 Lz = 3500
nx = 700 ny = 700 nz = 700
xoffset = 857.220397 yoffset = 15.9954215 zoffset = 262.898189
bins = 400 dk = 0.001
kx_ny = 0.628318531 ky_ny = 0.628318531 kz_ny = 0.628318531
############################
A(data) = 3.06935195 (not used)
A(ran) = 3.06392047 (used)
Ngal = 186928
weighted Ngal = 0
Nran = 9360983
weighted Nran = 0
SN(data) = 3465.14134
SN(ran) = 68.804139
SN(data+ran) = 3533.94548
############################
13 columns: k_central k_mean P_0(k) sigma^{lin}_{P_0(k)} P^img_1(k) sigma^{lin}_{P_1(k)} P_2(k) sigma^{lin}_{P_2(k)} P^img_3(k) sigma^{lin}_{P_3(k)} P_4(k) sigma^{lin}_{P_4(k)} N_modes
### header ###
0.00050000 0 0 0 0 0 0 0 0 0 0 0 0
0.00150000 0.00179520 9312.95781518 0 -11024.80775565 0 -4329.41531360 0 14125.33892809 0 -4243.37937290 0 3
0.00250000 0.00253879 16543.20290032 0 -11806.28027577 0 -6182.18929228 0 -5526.42096929 0 -4517.89854505 0 6
0.00350000 0.00331552 26066.95663866 0 -11886.08889596 0 -6910.67338486 0 2872.72814472 0 15887.53574318 0 7
0.00450000 0.00420575 33731.73155911 0 -7654.46724373 0 -5599.27162668 0 -945.03635297 0 -489.14028875 0 24
0.00550000 0.00557378 46985.13320999 0 -5278.84563694 0 4165.34677553 0 5633.18466993 0 18395.88695380 0 45
0.00650000 0.00659388 43058.32428363 0 651.08884010 0 13277.00701742 0 -3960.28358424 0 -37445.08052809 0 40
0.00750000 0.00754703 57656.55738797 0 -4679.41545541 0 17281.82605986 0 16882.78295890 0 18332.26487067 0 57
0.00850000 0.00846663 57892.27383379 0 -5697.42498886 0 18491.65729803 0 15403.17610318 0 -14966.58922879 0 75
0.00950000 0.00948925 67248.31706323 0 -1250.51115317 0 25578.66277091 0 -6042.09706222 0 5617.35783370 0 112
0.01050000 0.01054430 62633.24309260 0 255.56743502 0 12247.81303649 0 11345.52600231 0 -35189.19433289 0 105
0.01150000 0.01145670 64350.70211779 0 6928.88323904 0 14680.62707420 0 -12692.60558591 0 -22697.23436252 0 144
0.01250000 0.01249090 59063.88685949 0 4467.57415173 0 7368.03298180 0 951.29065104 0 -21900.83425823 0 169
0.01350000 0.01339930 54905.74534108 0 4344.81500510 0 21631.05864069 0 -12391.01892680 0 -19838.06244259 0 180
0.01450000 0.01448870 58687.10024698 0 -1954.19837023 0 4433.99832800 0 13680.88359818 0 -24131.76620881 0 267
0.01550000 0.01550050 51813.77954450 0 -467.21764763 0 12854.69576945 0 7102.46136763 0 -29807.62038892 0 238
0.01650000 0.01653350 65168.57186498 0 -1615.80982063 0 4971.36887684 0 5933.13019404 0 -20236.76832402 0 315
0.01750000 0.01747870 67024.51570717 0 -5132.30127336 0 8762.50314888 0 7467.08559604 0 -17623.99146811 0 297
0.01850000 0.01844180 67829.12148650 0 2703.37650080 0 5033.67580385 0 -4076.56811605 0 -1969.74419019 0 388
0.01950000 0.01947590 65308.18074706 0 -1919.75701639 0 1413.98393675 0 9203.04673233 0 -16809.38150963 0 399
0.02050000 0.02045430 64961.74389153 0 1627.05047136 0 -3498.80990913 0 -265.37040652 0 -14134.55626168 0 462
0.02150000 0.02154770 63580.71754272 0 2052.35173242 0 -5516.28190233 0 -4265.05134751 0 -19915.62293263 0 571
0.02250000 0.02255340 60895.55089610 0 752.22097472 0 6716.05275810 0 -7459.76793242 0 -21189.75069299 0 510
0.02350000 0.02348930 61905.74817729 0 1124.76199344 0 -1871.63579061 0 -7265.91166991 0 -10344.45612951 0 555
0.02450000 0.02439640 57617.21511041 0 -2106.46422504 0 8033.88416850 0 -199.26526364 0 -17186.39293515 0 592
0.02550000 0.02547300 64510.88139071 0 -842.79026986 0 15574.70843334 0 -1703.50937763 0 -9841.21219628 0 837
0.02650000 0.02652900 66125.03883568 0 -1876.05336635 0 16331.87866658 0 -196.96767463 0 -19081.22942887 0 723
0.02750000 0.02749970 66220.13474086 0 4074.19633875 0 26336.28263018 0 -7591.39595248 0 2428.99221646 0 826
0.02850000 0.02848090 63250.91685027 0 2967.30697997 0 17088.14964776 0 -4000.72744557 0 -18051.69822842 0 831
0.02950000 0.02946900 62072.78424716 0 2959.75326268 0 26752.18670722 0 899.18911084 0 -6787.02622682 0 996
0.03050000 0.03053250 60502.69015305 0 2958.58423500 0 24484.72264177 0 -2263.76589137 0 -21911.28806341 0 1041
0.03150000 0.03150510 58007.37809728 0 1448.38032799 0 18551.56996643 0 -1039.45894318 0 -15052.80501990 0 1036
0.03250000 0.03246190 53473.46162493 0 1772.42580726 0 19154.74328465 0 4474.62203974 0 -20664.36267782 0 1059
0.03350000 0.03345080 55995.75124246 0 -881.69865830 0 12812.99295524 0 5868.32784257 0 -24376.81239475 0 1302
0.03450000 0.03451200 54063.70819482 0 -670.60935416 0 15970.71655859 0 7821.52579489 0 -15498.60922789 0 1339
0.03550000 0.03553350 56198.53258165 0 -1052.77461803 0 11293.36938292 0 3631.48330971 0 -17478.31263463 0 1365
0.03650000 0.03647120 54066.85557702 0 731.70791120 0 15940.36680162 0 4732.80854638 0 -2447.56177147 0 1308
0.03750000 0.03744890 54758.15559698 0 598.32634963 0 11966.68436171 0 3705.37934761 0 1757.37457593 0 1579
0.03850000 0.03847530 54854.15075422 0 86.81896442 0 13810.03867508 0 5374.91947874 0 3920.34555219 0 1662
0.03950000 0.03950240 55116.05791625 0 686.85996292 0 14219.53558121 0 1013.86622959 0 9813.49275158 0 1683
0.04050000 0.04050350 53389.49396397 0 2356.64738836 0 13911.42934467 0 -129.61144732 0 3460.90643487 0 1822
0.04150000 0.04152450 50287.63639476 0 4026.14255687 0 16040.97062566 0 -881.43787520 0 11942.51696263 0 1887
0.04250000 0.04250150 47993.53198707 0 4180.76894833 0 12187.78796158 0 -4366.90288378 0 870.35684171 0 1920
0.04350000 0.04349210 43456.01850649 0 2918.48883384 0 13967.74500484 0 -1942.65422193 0 1425.06721837 0 2005
0.04450000 0.04448520 41742.26889604 0 1213.51817162 0 10714.36346377 0 -706.11182542 0 -6899.42149348 0 2151
0.04550000 0.04548030 40616.74253835 0 153.62934574 0 11842.02554510 0 1101.05321292 0 -7738.51358924 0 2274
0.04650000 0.04648670 40190.60946914 0 826.85215119 0 7820.60406153 0 -1697.72044250 0 -15416.77729057 0 2311
0.04750000 0.04749250 39420.17526803 0 805.94566489 0 7452.18049317 0 -1860.99089437 0 -18357.66874132 0 2568
0.04850000 0.04851840 37915.95138721 0 1222.25215723 0 6127.21126956 0 -2176.57216364 0 -18050.34935033 0 2493
0.04950000 0.04949480 37001.86166977 0 1193.26251900 0 8552.38166477 0 -3938.49920312 0 -16230.03837096 0 2644
0.05050000 0.05050630 37324.80556527 0 571.35665633 0 9218.68247750 0 -300.44685713 0 -14052.94913738 0 2829
0.05150000 0.05149060 36062.36808167 0 693.82916637 0 13592.30727042 0 110.33980127 0 -10028.05429273 0 2784
0.05250000 0.05249300 36168.03019854 0 543.63159130 0 12924.38780399 0 -848.90405979 0 -7266.85588457 0 3055
0.05350000 0.05348950 36189.49984144 0 197.93324653 0 11780.31437259 0 1601.37682509 0 -7717.61721953 0 3009
0.05450000 0.05448610 35832.94640025 0 542.01293760 0 15193.31315404 0 1968.13677714 0 -2143.28859683 0 3336
0.05550000 0.05550870 35693.67473770 0 173.42525574 0 13068.94257239 0 1653.89314530 0 -4570.70712219 0 3349
0.05650000 0.05647670 35162.44158415 0 412.19241418 0 14338.34925944 0 1287.95376076 0 -3276.88574175 0 3324
0.05750000 0.05747970 34698.87714800 0 1008.56851090 0 13231.59478846 0 806.05694733 0 -4433.66110848 0 3639
0.05850000 0.05849280 34113.46405793 0 889.37040242 0 13245.19597585 0 1122.52060769 0 -2749.93527613 0 3846
0.05950000 0.05951020 33051.11015735 0 752.44353961 0 12589.07919268 0 1215.49652614 0 -1689.85198699 0 3787
0.06050000 0.06049470 33005.92274141 0 434.27692067 0 10876.97071724 0 651.07422725 0 -892.01645160 0 3930
0.06150000 0.06148310 31670.08380854 0 926.47916268 0 11786.38432398 0 2302.97328111 0 -550.94700680 0 4083
0.06250000 0.06249100 31749.78002222 0 324.48498872 0 9855.62271052 0 2102.37262817 0 1779.14771640 0 4303
0.06350000 0.06350600 30994.85791913 0 -242.88236067 0 8350.07243291 0 4039.93483532 0 2733.14174394 0 4470
0.06450000 0.06451750 31430.54554146 0 -208.22069008 0 5759.00127356 0 3990.39728755 0 2710.82905224 0 4479
0.06550000 0.06550280 31021.49826136 0 183.71157522 0 5952.84629542 0 1896.96097671 0 3465.61626752 0 4636
0.06650000 0.06648880 30827.48462974 0 479.25188831 0 3301.78378312 0 1172.74833142 0 2775.71008826 0 4653
0.06750000 0.06749660 29764.79350964 0 889.58622292 0 5254.18364923 0 -475.76841064 0 3091.28011688 0 5220
0.06850000 0.06852730 30169.23212294 0 912.08326129 0 5365.11763130 0 -2149.16745716 0 5013.97094311 0 5029
0.06950000 0.06949320 28913.20181026 0 609.72212134 0 7549.42336265 0 1020.72864686 0 5084.70835816 0 5040
0.07050000 0.07048030 29318.65208212 0 977.51958545 0 9246.85154823 0 -1093.55457482 0 7522.67061391 0 5475
0.07150000 0.07148790 28302.60966255 0 483.90551771 0 10125.40956872 0 -556.11320987 0 4596.47069366 0 5509
0.07250000 0.07249820 29005.93717879 0 499.44234515 0 14401.85893607 0 651.27655896 0 12099.54885335 0 5916
0.07350000 0.07351270 28191.32722031 0 283.89724706 0 13352.20697081 0 -259.64779124 0 10287.47727096 0 5721
0.07450000 0.07449140 28402.65145405 0 518.04674617 0 15201.74364209 0 1572.38718685 0 12405.06974021 0 6028
0.07550000 0.07549160 28194.47460252 0 557.11699998 0 15240.74870012 0 -111.27693432 0 12072.57129159 0 6183
0.07650000 0.07648840 27598.04567473 0 711.36345745 0 15865.72888076 0 1005.69202838 0 10825.18503932 0 6330
0.07750000 0.07749960 27096.26302610 0 663.86721185 0 14566.98409531 0 413.01298168 0 9584.34084578 0 6583
0.07850000 0.07848650 25966.57762763 0 168.40068486 0 12967.66430930 0 905.15564824 0 6315.00882132 0 6549
0.07950000 0.07947320 26386.07871291 0 243.46912264 0 12207.12188084 0 135.48131513 0 5640.59225876 0 6828
0.08050000 0.08048110 25715.68630332 0 464.73683602 0 9445.79982552 0 1212.49527240 0 1928.76077763 0 7147
0.08150000 0.08149960 24726.05941296 0 421.27373590 0 9458.37811369 0 775.89378516 0 1265.91084467 0 7386
0.08250000 0.08250610 24559.02334310 0 845.06425350 0 7019.44916198 0 701.10411552 0 -438.29095704 0 7227
0.08350000 0.08350160 23512.51876004 0 634.08510774 0 8041.07818497 0 1286.18897859 0 -1342.21238184 0 7798
0.08450000 0.08449610 23082.90108910 0 282.40448864 0 5764.77896804 0 15.36698121 0 -1764.69223956 0 7371
0.08550000 0.08548940 22771.75987687 0 267.73431537 0 6771.68273857 0 481.44044300 0 -3647.89465978 0 8256
0.08650000 0.08650700 22571.67629386 0 552.64434506 0 6308.06209917 0 -737.06632941 0 -3516.13175191 0 8037
0.08750000 0.08749060 21881.72515199 0 625.74004863 0 6677.25003178 0 -1109.89286066 0 -4408.63941995 0 8155
0.08850000 0.08849210 21743.12792848 0 632.10000882 0 6336.02883819 0 -335.38279960 0 -2699.99306493 0 8718
0.08950000 0.08949900 21549.22670337 0 274.38990467 0 7805.50786760 0 70.24012866 0 -3398.40841680 0 8571
0.09050000 0.09049190 20884.34221263 0 250.31692706 0 6668.12262338 0 1270.58695538 0 -3268.18547808 0 8932
0.09150000 0.09150830 20852.19395154 0 372.41624750 0 8093.04371330 0 692.63990552 0 -1199.37743300 0 9285
0.09250000 0.09250820 20272.62599985 0 612.32882825 0 7602.74900971 0 1011.57763310 0 -776.82001478 0 9204
0.09350000 0.09350330 19914.61127407 0 770.80851477 0 7820.17691680 0 1039.98388157 0 1471.00775791 0 9349
0.09450000 0.09448040 19604.25690739 0 237.92635776 0 8261.76588077 0 1030.62716390 0 2749.60929726 0 9564
0.09550000 0.09549270 19230.28045757 0 65.12079910 0 8026.18432275 0 1302.33055304 0 3371.66690871 0 10155
0.09650000 0.09649430 19279.17728824 0 41.86231905 0 8113.13075616 0 238.35799875 0 3369.74475744 0 9913
0.09750000 0.09749140 19021.42916698 0 112.46833089 0 7823.80764699 0 29.37238239 0 2509.83497652 0 10476
0.09850000 0.09850240 18996.69973538 0 257.14787051 0 7459.57684135 0 -70.67649072 0 2557.66394538 0 10575
0.09950000 0.09950330 18726.92411783 0 226.14727986 0 6941.49524916 0 679.01061651 0 2539.84751397 0 10882
0.10050000 0.10051200 18257.96416933 0 144.21754888 0 6241.56240945 0 842.37436578 0 805.25099268 0 10875
0.10150000 0.10150300 18287.52708076 0 261.99259098 0 5332.46354093 0 795.45251743 0 1184.85451225 0 11118
0.10250000 0.10250800 17743.70439839 0 366.44071757 0 4650.57194563 0 478.41445983 0 -357.21326738 0 11575
0.10350000 0.10349800 17560.14457195 0 372.31058538 0 4141.16813580 0 -83.04581519 0 48.22261645 0 11364
0.10450000 0.10450100 17279.01589717 0 208.26790081 0 3753.84903357 0 -339.92402250 0 -70.68705693 0 12093
0.10550000 0.10551000 17150.42285281 0 -84.57780348 0 3709.22365016 0 168.71991934 0 -16.55107136 0 12067
0.10650000 0.10649700 17202.24225268 0 -50.13532558 0 2903.26899275 0 190.08727232 0 -725.46035753 0 12054
0.10750000 0.10749900 17347.35905362 0 -0.64565736 0 3163.17531895 0 551.85300325 0 -1936.46062338 0 12807
0.10850000 0.10850100 16921.90042345 0 395.86424492 0 2660.45969631 0 12.54613991 0 -1981.14221004 0 12736
0.10950000 0.10950300 16569.95564906 0 341.56628157 0 2542.62395470 0 -137.22586412 0 -2207.75372877 0 12933
0.11050000 0.11050200 16225.87933019 0 223.93511980 0 3035.99859658 0 102.68637940 0 -2183.72121751 0 13428
0.11150000 0.11150900 16003.76407174 0 499.72111329 0 2852.48373275 0 -352.63157815 0 -1857.19155443 0 13453
0.11250000 0.11250000 15644.28806136 0 480.95934315 0 3603.12314791 0 -308.83687883 0 -2423.63042606 0 13668
0.11350000 0.11349100 15097.54280981 0 632.01457987 0 4116.16892858 0 -793.29206436 0 -644.85140301 0 13791
0.11450000 0.11448600 14895.77312919 0 294.66241826 0 4169.77559191 0 -310.35773888 0 -2141.75986833 0 14205
0.11550000 0.11549300 14673.43305773 0 184.03305783 0 4583.86992419 0 185.61012113 0 -608.94314425 0 14776
0.11650000 0.11649800 14882.17194180 0 78.20221879 0 4794.80073516 0 117.62554144 0 -1018.24783525 0 14553
0.11750000 0.11747300 14722.77951444 0 72.40305468 0 4556.12799819 0 585.09722778 0 -1070.26844277 0 14568
0.11850000 0.11849100 14701.08505853 0 118.66192944 0 4376.56984341 0 504.72882319 0 -587.38470021 0 16015
0.11950000 0.11950300 14442.32527870 0 199.06967632 0 3998.14209590 0 607.90113592 0 -788.34280585 0 15270
0.12050000 0.12050700 14323.28678746 0 222.77058838 0 3693.05959441 0 742.35617964 0 321.01949610 0 15999
0.12150000 0.12150000 14048.11565756 0 198.72458834 0 3440.80815136 0 390.41365338 0 -608.45305187 0 15670
0.12250000 0.12250700 13962.79911852 0 163.81225123 0 3300.55855219 0 142.30663825 0 216.38252657 0 16887
0.12350000 0.12352200 13719.66384320 0 65.64180326 0 3328.48032860 0 -99.35285202 0 -450.06778681 0 16407
0.12450000 0.12449800 13830.72147243 0 -12.30907458 0 2995.92567673 0 -97.53029291 0 -45.60140911 0 16306
0.12550000 0.12549900 13778.45244653 0 79.33685008 0 3381.19898053 0 -216.84676545 0 -502.97528167 0 17523
0.12650000 0.12650100 13769.34751943 0 128.73355250 0 3351.68103171 0 113.08993887 0 -396.74663601 0 17154
0.12750000 0.12750600 13553.30221239 0 387.18758662 0 3855.80173570 0 110.27010923 0 -189.98947866 0 18007
0.12850000 0.12850300 13248.00613853 0 436.26314365 0 3527.70962216 0 275.70393674 0 43.53290456 0 17496
0.12950000 0.12949900 12934.16717012 0 210.86111893 0 4205.75691490 0 400.37961432 0 668.87941801 0 18405
0.13050000 0.13049000 12785.00373492 0 34.13549573 0 3592.83795250 0 344.19771790 0 598.92098005 0 18100
0.13150000 0.13148800 13051.06993772 0 -217.97982304 0 4066.15927348 0 483.81446844 0 1003.87778735 0 19059
0.13250000 0.13249300 13079.28397106 0 -112.78644130 0 3173.15701680 0 244.90118154 0 380.85010774 0 18957
0.13350000 0.13349100 13107.16078487 0 14.50684661 0 3209.90270404 0 71.66836574 0 969.45441855 0 19468
0.13450000 0.13450700 12925.84908858 0 154.20711518 0 2526.19012333 0 244.45829990 0 378.54352621 0 19953
0.13550000 0.13551000 12782.19357224 0 283.93658933 0 2335.69481539 0 434.50622994 0 406.83736817 0 19956
0.13650000 0.13649900 12393.71668298 0 256.98937734 0 2089.53580503 0 437.09495180 0 154.42630787 0 19723
0.13750000 0.13749600 12135.63134219 0 339.35074931 0 1501.06525797 0 236.82814619 0 -114.27582753 0 20946
0.13850000 0.13851100 11889.79831071 0 323.31146478 0 1744.76256581 0 93.21197212 0 414.20111846 0 20955
0.13950000 0.13949800 11843.26201668 0 202.95894147 0 1754.32835959 0 -204.57309891 0 388.37572341 0 20506
0.14050000 0.14048300 11653.85705186 0 205.19358283 0 2379.33102153 0 -165.17686623 0 1089.62371926 0 21447
0.14150000 0.14148400 11711.85880963 0 61.91282979 0 2646.85850893 0 -264.84996439 0 825.48641212 0 21771
0.14250000 0.14249400 11679.03610950 0 123.12559185 0 2929.87561303 0 -43.48827917 0 1582.54873511 0 22470
0.14350000 0.14350900 11600.68877390 0 216.54326788 0 3527.01270182 0 -13.62468034 0 1520.20808616 0 22519
0.14450000 0.14449900 11455.45956646 0 305.72209452 0 3682.71819574 0 -136.17823548 0 1652.46558266 0 22218
0.14550000 0.14550500 11229.25271115 0 291.01819930 0 3931.02417039 0 -186.07548407 0 1735.09560619 0 23559
0.14650000 0.14650700 11095.10678533 0 239.32469471 0 4275.60631855 0 -300.82903925 0 1509.69807773 0 23044
0.14750000 0.14750500 10908.70307425 0 55.88188345 0 4088.95531316 0 -62.26533659 0 1318.93299417 0 23649
0.14850000 0.14849900 10962.28725629 0 15.64788507 0 4060.75252047 0 19.14586317 0 1007.07800062 0 23640
0.14950000 0.14949500 10992.40095960 0 -7.63144639 0 3937.16156569 0 56.97885856 0 1162.38445144 0 24457
0.15050000 0.15050000 10951.58615679 0 -64.68039040 0 3692.90222530 0 380.36113944 0 567.99907396 0 24591
0.15150000 0.15149900 11042.75907487 0 19.56300372 0 3139.12032639 0 299.36213433 0 496.50628718 0 25020
0.15250000 0.15250500 10922.52907465 0 69.94573602 0 3105.56698396 0 179.24566469 0 71.15230747 0 25297
0.15350000 0.15350100 10704.76394804 0 194.63523960 0 3001.35491103 0 -240.73764451 0 -145.33149737 0 25452
0.15450000 0.15450400 10717.53332727 0 269.04722338 0 3395.54205087 0 -243.42416004 0 202.84428683 0 26061
0.15550000 0.15549900 10306.01310401 0 298.56067594 0 3045.82292532 0 -32.53448985 0 -227.18366786 0 26128
0.15650000 0.15649500 10313.43193349 0 227.87496788 0 3463.01967720 0 113.35072197 0 541.21260327 0 26331
0.15750000 0.15749700 9952.00004989 0 192.59281336 0 3149.38304051 0 281.68508699 0 -114.77491242 0 27345
0.15850000 0.15849900 10009.54094098 0 173.47583867 0 3171.01005251 0 443.80224810 0 749.48724846 0 26980
0.15950000 0.15949700 9640.24060186 0 186.71620116 0 2663.29234030 0 435.89782250 0 288.83751305 0 27777
0.16050000 0.16050000 9526.83367664 0 157.97947757 0 2617.25063490 0 304.38895334 0 455.20139200 0 28224
0.16150000 0.16150500 9271.59222049 0 156.14837556 0 2109.98254871 0 282.80577987 0 1.95654767 0 28075
0.16250000 0.16249700 9160.37722216 0 106.01282517 0 2041.07735973 0 232.96136233 0 -24.73876135 0 28590
0.16350000 0.16349900 9093.81008853 0 99.70445958 0 1905.84109079 0 25.08396173 0 16.61300734 0 29163
0.16450000 0.16449100 8999.18629068 0 73.37143674 0 1879.90890955 0 -75.91969226 0 -362.27380834 0 28996
0.16550000 0.16550500 9005.80703396 0 97.13597089 0 2124.50546946 0 -48.52274182 0 -155.59758368 0 30777
0.16650000 0.16650700 8986.83281552 0 38.38153914 0 2037.55903605 0 -161.45621084 0 -153.71140249 0 29211
0.16750000 0.16749900 9008.49354948 0 26.33751910 0 2392.95469022 0 -103.25358264 0 387.26177492 0 30922
0.16850000 0.16850800 9118.06741281 0 -41.60490814 0 2618.64447559 0 110.54370667 0 528.97603088 0 30867
0.16950000 0.16949900 9055.99653947 0 35.90252603 0 2349.07118976 0 252.22896175 0 692.27570844 0 30852
0.17050000 0.17049200 9087.61648998 0 26.95564249 0 2417.66164052 0 425.23269309 0 742.34381493 0 31257
0.17150000 0.17149500 8999.57971345 0 116.84431622 0 2237.87867273 0 281.06572714 0 850.56430390 0 32608
0.17250000 0.17250900 9028.20965086 0 88.38962055 0 2013.87498496 0 270.05213755 0 1004.97262673 0 32361
0.17350000 0.17350400 8826.77718976 0 20.44202261 0 1885.72032598 0 83.75375138 0 849.65268713 0 32508
0.17450000 0.17449800 8923.50298930 0 81.68052576 0 1855.75275113 0 -37.28816104 0 765.52990519 0 32791
0.17550000 0.17549800 8754.34243645 0 46.44771770 0 1783.65521734 0 -15.25221416 0 585.80651285 0 33633
0.17650000 0.17650100 8717.18084514 0 130.53880100 0 2140.93930083 0 -196.65743267 0 683.14717598 0 33984
0.17750000 0.17750300 8665.95719976 0 123.85960634 0 2128.02379314 0 -155.59421148 0 330.63474873 0 34069
