### header ###
fiducial parameters:
Omega_m = 0.31
Omega_nu = 0
Omega_de = 0.69
Omega_k = 0
H_0 = 100
w_de = -1
zeff = 0
beta = 0
fgrowth = 0
b_1 = 2
gamma = 0.55
Lx = 3500 Ly = 3500 Lz = 3500
nx = 700 ny = 700 nz = 700
xoffset = 857.220397 yoffset = 15.9954215 zoffset = 262.898189
bins = 400 dk = 0.001
kx_ny = 0.628318531 ky_ny = 0.628318531 kz_ny = 0.628318531
############################
A(data) = 3.07464515 (not used)
A(ran) = 3.07166701 (used)
Ngal = 187214
weighted Ngal = 0
Nran = 9360983
weighted Nran = 0
SN(data) = 3458.15456
SN(ran) = 68.9780973
SN(data+ran) = 3527.13266
############################
13 columns: k_central k_mean P_0(k) sigma^{lin}_{P_0(k)} P^img_1(k) sigma^{lin}_{P_1(k)} P_2(k) sigma^{lin}_{P_2(k)} P^img_3(k) sigma^{lin}_{P_3(k)} P_4(k) sigma^{lin}_{P_4(k)} N_modes
### header ###
0.00050000 0 0 0 0 0 0 0 0 0 0 0 0
0.00150000 0.00179520 18870.57963417 0 -28180.08656958 0 -31429.87110242 0 68128.68482848 0 -23536.23653309 0 3
0.00250000 0.00253879 30053.34101390 0 -23283.77151767 0 8029.51155537 0 -44152.48922578 0 -19284.57280060 0 6
0.00350000 0.00331552 46592.83449948 0 -19893.36644419 0 -28368.70468885 0 29571.90394309 0 33335.94824687 0 7
0.00450000 0.00420575 51453.51668858 0 -10080.42448449 0 -12009.84846051 0 -4497.99135261 0 1378.77821866 0 24
0.00550000 0.00557378 57897.21972012 0 933.70240484 0 -31517.54817812 0 2244.36452820 0 8448.97891870 0 45
0.00650000 0.00659388 43223.89906889 0 -3573.60519910 0 -6977.67890387 0 5818.00344925 0 -1770.36876818 0 40
0.00750000 0.00754703 48545.89756399 0 2681.42350993 0 -42691.20463075 0 -300.55701551 0 9879.39668682 0 57
0.00850000 0.00846663 45270.03472146 0 -4913.00741825 0 -37533.31963633 0 461.51863771 0 -4054.45775607 0 75
0.00950000 0.00948925 44303.45116510 0 -4348.97404587 0 -47092.25661146 0 -11122.93863654 0 3774.62175612 0 112
0.01050000 0.01054430 50416.56665864 0 -6189.91161934 0 -39588.89743551 0 -20449.55384236 0 -14478.40776755 0 105
0.01150000 0.01145670 54071.35183732 0 -7783.94829950 0 -39709.17239833 0 -22421.16398057 0 -10728.61660889 0 144
0.01250000 0.01249090 61945.98970691 0 -6587.66204545 0 -27452.92887379 0 -33108.66228909 0 -24361.74992277 0 169
0.01350000 0.01339930 70220.00789698 0 -1067.28629813 0 -16883.00777192 0 -27814.76542082 0 -22658.22930449 0 180
0.01450000 0.01448870 63760.90517394 0 5917.78670579 0 -4730.07706825 0 -21407.14487813 0 -12511.85592216 0 267
0.01550000 0.01550050 69632.79630279 0 4227.50757407 0 9145.48335994 0 -10932.27471884 0 -15901.24933707 0 238
0.01650000 0.01653350 62229.25410533 0 248.15647399 0 5028.44890126 0 8737.63882947 0 -6441.32001359 0 315
0.01750000 0.01747870 68612.03280991 0 -7151.89774955 0 -205.63983667 0 21194.35935979 0 -10124.45411340 0 297
0.01850000 0.01844180 72339.65740532 0 -11069.90524639 0 -5005.47301116 0 15323.14266998 0 1285.55950215 0 388
0.01950000 0.01947590 87582.09220305 0 -11808.75321894 0 -14472.33781615 0 2362.62741454 0 -18571.80313774 0 399
0.02050000 0.02045430 90334.02831502 0 -1647.83443456 0 -15097.31799679 0 -10470.02543883 0 -4961.55578876 0 462
0.02150000 0.02154770 89497.94871364 0 3784.51352876 0 -5856.06429263 0 -17303.74532878 0 -1395.87524843 0 571
0.02250000 0.02255340 82844.04551343 0 3131.64529365 0 6625.21705954 0 -11856.30117153 0 -6043.79440048 0 510
0.02350000 0.02348930 84557.79512388 0 5692.41165863 0 4092.03525146 0 -9304.50484583 0 557.75771708 0 555
0.02450000 0.02439640 74578.68262443 0 5865.47271729 0 14382.74982983 0 -327.24569254 0 -24611.40477551 0 592
0.02550000 0.02547300 71871.37189587 0 6520.74645165 0 20817.46034078 0 -3820.61849891 0 -4909.11815310 0 837
0.02650000 0.02652900 64151.63019335 0 6885.94395325 0 25265.38583503 0 550.77952110 0 -14662.86684604 0 723
0.02750000 0.02749970 60565.07576461 0 4981.90136658 0 26285.58729538 0 9560.29709387 0 10089.49568963 0 826
0.02850000 0.02848090 55121.00380258 0 2615.18235517 0 25002.57942094 0 6702.30544226 0 27.58264598 0 831
0.02950000 0.02946900 53351.16334498 0 735.74780108 0 16976.86720552 0 8796.24758238 0 2887.26230611 0 996
0.03050000 0.03053250 55143.26029102 0 -434.70631352 0 25231.10185030 0 2030.08400332 0 11367.33286473 0 1041
0.03150000 0.03150510 53679.83997236 0 1253.73721993 0 23765.99543403 0 -9420.02501339 0 634.17503294 0 1036
0.03250000 0.03246190 59050.96011114 0 -2255.23423746 0 26434.97554359 0 -5175.03822744 0 15763.32655261 0 1059
0.03350000 0.03345080 55839.39379079 0 312.16186332 0 33998.92182699 0 -2947.56839728 0 504.85696661 0 1302
0.03450000 0.03451200 61270.53900449 0 -1153.59426257 0 23989.57197707 0 4112.51571709 0 8716.38275894 0 1339
0.03550000 0.03553350 57707.47753578 0 1050.73893619 0 30654.94064102 0 3984.99053455 0 -568.26772551 0 1365
0.03650000 0.03647120 59399.86990983 0 4190.23357625 0 21337.67765661 0 1672.78867918 0 2403.43097670 0 1308
0.03750000 0.03744890 56757.64254901 0 4054.06433329 0 27621.98826079 0 -394.95600034 0 533.28120011 0 1579
0.03850000 0.03847530 52283.18911903 0 4310.55350167 0 21362.06986870 0 -1273.30719285 0 1552.88465784 0 1662
0.03950000 0.03950240 49656.69866923 0 2778.48652899 0 28538.43851488 0 -1691.34699354 0 -2688.59504509 0 1683
0.04050000 0.04050350 47243.89298982 0 1934.59467536 0 24093.09837030 0 -1165.71168406 0 -4300.80785749 0 1822
0.04150000 0.04152450 46590.69877584 0 1126.92019838 0 26833.00698598 0 3203.06838840 0 -7278.66980849 0 1887
0.04250000 0.04250150 44393.37637095 0 749.31414244 0 24222.92788624 0 350.97470623 0 -13161.67794092 0 1920
0.04350000 0.04349210 43466.02268564 0 284.26144414 0 16918.07860220 0 5949.32797174 0 -15198.14663385 0 2005
0.04450000 0.04448520 42587.34101800 0 1034.55689539 0 16597.15802383 0 2322.38588493 0 -17604.65754885 0 2151
0.04550000 0.04548030 41517.90550745 0 1526.61525708 0 14797.97946783 0 1213.59685617 0 -14092.29141494 0 2274
0.04650000 0.04648670 39732.10332582 0 2757.25293976 0 12487.23889706 0 2021.11396404 0 -18033.93800027 0 2311
0.04750000 0.04749250 36647.55635873 0 1631.36688124 0 13388.51427267 0 511.60023298 0 -14295.29756714 0 2568
0.04850000 0.04851840 35223.59072413 0 1224.24175241 0 10751.72738680 0 1330.04999774 0 -10978.18153642 0 2493
0.04950000 0.04949480 36154.65382417 0 -635.54414420 0 14834.96120873 0 2083.83679511 0 -8712.14503361 0 2644
0.05050000 0.05050630 36303.14282033 0 -1041.17539054 0 12730.26176586 0 2564.63314883 0 -7496.69347007 0 2829
0.05150000 0.05149060 38212.36734699 0 -515.20510967 0 18177.14389058 0 -1818.79349153 0 -7113.10626387 0 2784
0.05250000 0.05249300 38216.75120077 0 460.42492240 0 15591.68181594 0 -934.40044925 0 -2525.15598346 0 3055
0.05350000 0.05348950 38867.47247159 0 250.06288836 0 21669.95129222 0 -3013.73086749 0 -2893.60203312 0 3009
0.05450000 0.05448610 38320.61481353 0 723.11892998 0 21233.02719831 0 -344.61587011 0 3531.78997838 0 3336
0.05550000 0.05550870 37580.19314988 0 697.51497575 0 23682.47739910 0 2828.14772392 0 -525.21378508 0 3349
0.05650000 0.05647670 38368.27517263 0 847.56867048 0 23182.71806760 0 3416.24732951 0 4779.50220952 0 3324
0.05750000 0.05747970 36758.16436192 0 882.27530368 0 21615.88376220 0 5081.47105075 0 2423.67538866 0 3639
0.05850000 0.05849280 35998.97081155 0 810.15978485 0 18257.06491728 0 4012.17042802 0 4261.31945147 0 3846
0.05950000 0.05951020 34989.78518892 0 537.18732624 0 16733.95674323 0 2277.15350639 0 1598.37557134 0 3787
0.06050000 0.06049470 34735.07204336 0 1190.81205714 0 14534.27380168 0 741.27258091 0 -489.01326940 0 3930
0.06150000 0.06148310 32870.92252613 0 1100.79242983 0 13708.98522501 0 -1837.08203027 0 -1181.08889426 0 4083
0.06250000 0.06249100 32706.80902546 0 580.84938587 0 13952.45771984 0 -2705.29865208 0 -4527.13835995 0 4303
0.06350000 0.06350600 32806.85081696 0 287.62015058 0 14062.16647098 0 -1283.23268745 0 -2914.03753615 0 4470
0.06450000 0.06451750 32921.84267394 0 -442.07568414 0 13560.72104187 0 1079.20251197 0 -8558.30548771 0 4479
0.06550000 0.06550280 33306.94736799 0 -228.99453669 0 13177.75207146 0 1194.24045561 0 -4967.91799707 0 4636
0.06650000 0.06648880 33010.53140821 0 544.45440694 0 12764.65815710 0 1765.46784446 0 -8379.26440286 0 4653
0.06750000 0.06749660 32336.87920990 0 888.88705444 0 12446.99736744 0 1296.27184230 0 -4159.50163715 0 5220
0.06850000 0.06852730 30720.24882177 0 654.74205158 0 10306.85615282 0 3694.11621558 0 -5604.37488211 0 5029
0.06950000 0.06949320 30424.73211405 0 464.54237276 0 10361.44075277 0 3048.86914167 0 -2187.89149893 0 5040
0.07050000 0.07048030 29995.90128866 0 568.24299608 0 7354.56668223 0 4609.86954933 0 -2764.76169445 0 5475
0.07150000 0.07148790 28830.69543389 0 769.56529880 0 7406.58841381 0 3261.12634942 0 661.32008039 0 5509
0.07250000 0.07249820 28431.76473945 0 435.68874640 0 5136.94366211 0 3078.43205309 0 2725.64422990 0 5916
0.07350000 0.07351270 28535.17872617 0 -100.62360759 0 6571.17201083 0 546.50694976 0 6927.07349427 0 5721
0.07450000 0.07449140 28448.17608951 0 -358.04957180 0 5015.88185374 0 1969.94652191 0 7303.35427749 0 6028
0.07550000 0.07549160 28849.01769458 0 -69.27736693 0 4872.69844473 0 233.65378642 0 7586.62991657 0 6183
0.07650000 0.07648840 28420.29927570 0 652.96265657 0 5651.12474850 0 -1473.14348155 0 7073.79770827 0 6330
0.07750000 0.07749960 27925.26101751 0 1574.59035440 0 6243.09113794 0 -1580.78395295 0 5912.41367474 0 6583
0.07850000 0.07848650 26360.45002925 0 1388.15292137 0 6755.63108933 0 -1875.94095984 0 3965.87018765 0 6549
0.07950000 0.07947320 25143.31236810 0 1118.38742041 0 5957.54488743 0 -1525.36754485 0 2460.07261573 0 6828
0.08050000 0.08048110 24388.95229754 0 673.87026693 0 6779.91089490 0 144.00847278 0 510.89544418 0 7147
0.08150000 0.08149960 23910.55020243 0 513.79553207 0 5968.40335603 0 892.95954220 0 -123.89894862 0 7386
0.08250000 0.08250610 23577.48972127 0 598.49158720 0 6081.96765037 0 238.60978933 0 -1917.22786998 0 7227
0.08350000 0.08350160 22871.01482283 0 519.85424281 0 5973.84383099 0 262.89296710 0 -655.09613208 0 7798
0.08450000 0.08449610 22008.18247271 0 788.15621104 0 6828.61663452 0 -835.27364671 0 -2508.12639761 0 7371
0.08550000 0.08548940 21722.66994415 0 953.24090394 0 6745.43581911 0 -937.73217813 0 -894.72432436 0 8256
0.08650000 0.08650700 21109.82966629 0 646.36327053 0 7941.51974145 0 -921.57823896 0 -1031.41738164 0 8037
0.08750000 0.08749060 20877.82263521 0 262.26911099 0 7517.91581865 0 -84.83420273 0 -1583.32434002 0 8155
0.08850000 0.08849210 20545.54899960 0 -422.67319692 0 7502.50488650 0 770.85572550 0 -1519.74721948 0 8718
0.08950000 0.08949900 21225.38355581 0 -525.59371907 0 7065.23233241 0 934.71855967 0 -2989.50726516 0 8571
0.09050000 0.09049190 21470.99177428 0 -409.08437425 0 5885.07641216 0 648.87555597 0 -3208.92476743 0 8932
0.09150000 0.09150830 21622.85296566 0 -63.06331039 0 5506.51377684 0 284.25582382 0 -3317.38580633 0 9285
0.09250000 0.09250820 21094.65478781 0 142.94285909 0 5412.10355135 0 9.93316072 0 -3746.46392604 0 9204
0.09350000 0.09350330 21464.58460336 0 81.40917645 0 4514.60503439 0 222.82566757 0 -3091.68478031 0 9349
0.09450000 0.09448040 20880.63279789 0 433.32820974 0 5532.50216133 0 641.80406259 0 -3434.36725849 0 9564
0.09550000 0.09549270 20486.42317675 0 495.16415348 0 3942.45591218 0 760.31649138 0 -3112.78348173 0 10155
0.09650000 0.09649430 19841.77185733 0 678.02031518 0 4383.87626639 0 654.37785450 0 -2078.94711205 0 9913
0.09750000 0.09749140 19147.99889421 0 885.97909810 0 3903.15859723 0 530.30579986 0 -1116.62488638 0 10476
0.09850000 0.09850240 18719.84250787 0 775.96684939 0 4105.41162583 0 11.33821958 0 -688.12341206 0 10575
0.09950000 0.09950330 17917.14763917 0 530.58569206 0 4886.28839146 0 -491.98642152 0 54.45701856 0 10882
0.10050000 0.10051200 17726.05657674 0 282.13696115 0 4573.67465398 0 -305.00606506 0 464.32093194 0 10875
0.10150000 0.10150300 17658.38785934 0 164.73510866 0 5786.76568087 0 -6.70246281 0 -117.70535006 0 11118
0.10250000 0.10250800 17618.82076877 0 -51.58402064 0 5293.14374467 0 228.73038140 0 6.17828879 0 11575
0.10350000 0.10349800 17712.23057634 0 10.15391586 0 4821.76705626 0 484.96663514 0 -1616.78775724 0 11364
0.10450000 0.10450100 17689.63686838 0 109.14728063 0 4696.89466729 0 427.20992355 0 -1406.43021946 0 12093
0.10550000 0.10551000 17288.90766982 0 313.06673570 0 4185.34389318 0 -626.19529499 0 -2077.58699331 0 12067
0.10650000 0.10649700 17349.60718376 0 345.33751989 0 5373.89657952 0 -244.30317892 0 -708.77810778 0 12054
0.10750000 0.10749900 16962.81639211 0 450.73435740 0 5659.09436987 0 -803.32209701 0 -965.88776008 0 12807
0.10850000 0.10850100 17036.77987392 0 256.80727880 0 6347.01095395 0 -372.23527302 0 1008.30772781 0 12736
0.10950000 0.10950300 16797.01679383 0 187.92681925 0 7356.81481237 0 336.37872126 0 999.10051079 0 12933
0.11050000 0.11050200 16979.34014868 0 159.08892980 0 7860.31728056 0 773.82550543 0 3041.40534959 0 13428
0.11150000 0.11150900 16466.54166234 0 435.82026201 0 7752.67680916 0 720.16376290 0 3183.38600897 0 13453
0.11250000 0.11250000 16035.12548728 0 436.42613309 0 7472.85204987 0 706.85033618 0 3016.81080579 0 13668
0.11350000 0.11349100 15751.29905632 0 462.43587481 0 7131.04634244 0 578.56191345 0 3955.59623289 0 13791
0.11450000 0.11448600 15596.62770226 0 301.87554384 0 7126.22410328 0 1080.80992502 0 4167.70731218 0 14205
0.11550000 0.11549300 15073.37541074 0 171.92238074 0 6254.71397080 0 694.67558737 0 3822.04606155 0 14776
0.11650000 0.11649800 15226.24826068 0 28.82687361 0 6377.79909630 0 429.89981127 0 3710.44888109 0 14553
0.11750000 0.11747300 15077.30963849 0 65.40574960 0 5634.66843583 0 56.22506052 0 2619.25147073 0 14568
0.11850000 0.11849100 15127.89256678 0 106.09904097 0 6544.55414990 0 -384.01097873 0 2801.22636542 0 16015
0.11950000 0.11950300 15054.49111751 0 5.23058952 0 5991.07574856 0 -478.27282763 0 1641.47222625 0 15270
0.12050000 0.12050700 15129.46625788 0 -28.92140749 0 6443.84916000 0 -101.91695686 0 1743.08770885 0 15999
0.12150000 0.12150000 15122.04742840 0 -30.68933703 0 5955.75762396 0 215.30679630 0 504.69172904 0 15670
0.12250000 0.12250700 15277.39322150 0 -124.96793450 0 5568.16874610 0 855.46747575 0 339.65874314 0 16887
0.12350000 0.12352200 15161.83933199 0 -35.62476955 0 4604.19302072 0 729.20012203 0 -384.93046396 0 16407
0.12450000 0.12449800 15027.28874274 0 214.68181612 0 4259.46474410 0 1034.84578012 0 374.35301162 0 16306
0.12550000 0.12549900 14724.12839253 0 430.16396656 0 4590.38950162 0 499.86948988 0 507.99985255 0 17523
0.12650000 0.12650100 14507.40864643 0 355.63620409 0 4368.67890660 0 33.21432441 0 1377.29445277 0 17154
0.12750000 0.12750600 14048.90250311 0 497.67643892 0 4752.79442338 0 43.87372109 0 1746.70719839 0 18007
0.12850000 0.12850300 13972.46607814 0 340.69625520 0 5451.90669559 0 -120.69761129 0 2646.93719348 0 17496
0.12950000 0.12949900 13597.81518928 0 167.09002499 0 5357.94609613 0 187.02307093 0 2661.87601830 0 18405
0.13050000 0.13049000 13615.91263696 0 231.94408344 0 5913.68386827 0 75.48085725 0 2909.77732953 0 18100
0.13150000 0.13148800 13242.27340666 0 293.62153400 0 5265.22196825 0 -58.14192869 0 2426.75532696 0 19059
0.13250000 0.13249300 13131.44059045 0 286.20045639 0 5770.83767878 0 -76.81512249 0 1854.01045027 0 18957
0.13350000 0.13349100 12779.72062908 0 371.13593738 0 4852.66760512 0 -180.08421723 0 1684.47895594 0 19468
0.13450000 0.13450700 12555.46964700 0 302.57021605 0 5165.11273284 0 -12.46812979 0 1397.46018018 0 19953
0.13550000 0.13551000 12314.91972135 0 248.94556767 0 4807.54763309 0 46.89891742 0 1111.87233925 0 19956
0.13650000 0.13649900 12056.72197406 0 112.56050422 0 4740.67700189 0 302.87933395 0 780.91835604 0 19723
0.13750000 0.13749600 11972.07987406 0 65.39552060 0 4336.66553332 0 354.40647690 0 552.41615985 0 20946
0.13850000 0.13851100 11880.91819663 0 27.72247968 0 4235.36478893 0 531.28823274 0 355.12025822 0 20955
0.13950000 0.13949800 11864.39444005 0 18.85203256 0 3974.63789522 0 175.62280296 0 185.21782242 0 20506
0.14050000 0.14048300 11942.17974311 0 172.39336400 0 4002.26741472 0 27.10334464 0 365.77302292 0 21447
0.14150000 0.14148400 11740.41006249 0 313.23084920 0 3996.33235114 0 -70.79193221 0 242.80367611 0 21771
0.14250000 0.14249400 11539.65204044 0 243.94122997 0 3815.02065484 0 138.38365115 0 648.74853661 0 22470
0.14350000 0.14350900 11298.20286273 0 44.63448833 0 3751.37609041 0 492.55519845 0 481.93278351 0 22519
0.14450000 0.14449900 11428.03237868 0 -56.10298705 0 3687.91137638 0 775.90614988 0 783.11590326 0 22218
0.14550000 0.14550500 11469.84759940 0 -94.62694524 0 3379.06325689 0 653.02672828 0 374.95775863 0 23559
0.14650000 0.14650700 11493.45296593 0 -20.59826765 0 3130.24021231 0 444.95104260 0 669.04690370 0 23044
0.14750000 0.14750500 11511.77522662 0 29.50502207 0 3168.96425408 0 -38.89579891 0 793.81475462 0 23649
0.14850000 0.14849900 11511.32560059 0 89.85304087 0 3152.24940644 0 -237.08106083 0 612.78744680 0 23640
0.14950000 0.14949500 11316.18790390 0 226.73291776 0 3262.08180474 0 -510.81788369 0 131.74379876 0 24457
0.15050000 0.15050000 11202.42127786 0 303.82692080 0 3273.80580345 0 -474.63647712 0 -79.58807862 0 24591
0.15150000 0.15149900 10795.75701571 0 368.63264446 0 3207.71077715 0 -128.00965459 0 -266.10217288 0 25020
0.15250000 0.15250500 10473.84726008 0 258.04487444 0 3424.31811674 0 184.66141021 0 -482.01371619 0 25297
0.15350000 0.15350100 10366.86998707 0 124.17996489 0 2875.97669278 0 476.87561474 0 -748.18445705 0 25452
0.15450000 0.15450400 10250.00094142 0 41.90435908 0 2635.78646796 0 503.95321829 0 -1085.21288791 0 26061
0.15550000 0.15549900 10143.24848143 0 35.66680958 0 2341.13529035 0 222.63794870 0 -950.44872630 0 26128
0.15650000 0.15649500 10037.90110278 0 123.71235382 0 2259.56188799 0 -0.87069181 0 -888.46665410 0 26331
0.15750000 0.15749700 10060.70838311 0 92.73930276 0 2283.58315860 0 63.04779829 0 -774.17958593 0 27345
0.15850000 0.15849900 9832.83791149 0 105.86523543 0 2068.48206622 0 -41.56061998 0 -519.28996214 0 26980
0.15950000 0.15949700 9980.60750600 0 109.94975069 0 2339.05576996 0 85.02922802 0 -561.30526645 0 27777
0.16050000 0.16050000 9760.08841996 0 135.25875025 0 2109.43175683 0 26.14496675 0 -406.84860882 0 28224
0.16150000 0.16150500 9644.33219873 0 265.44909108 0 2153.09044427 0 190.23789704 0 -280.33958110 0 28075
0.16250000 0.16249700 9378.56949350 0 287.11207317 0 2137.97176903 0 -206.77626646 0 -359.29278777 0 28590
0.16350000 0.16349900 9097.71059433 0 263.51232696 0 2014.74051507 0 84.93199639 0 150.41564369 0 29163
0.16450000 0.16449100 8988.00184320 0 195.53673979 0 2282.96492281 0 203.08258863 0 -7.24676884 0 28996
0.16550000 0.16550500 8840.50202431 0 24.38389400 0 1736.69177859 0 189.35775408 0 -26.45813128 0 30777
0.16650000 0.16650700 8840.14232348 0 -38.82498281 0 2098.92174840 0 274.27862223 0 54.74972511 0 29211
0.16750000 0.16749900 8940.53257516 0 69.56231742 0 2097.59535161 0 -138.09589049 0 -111.23781685 0 30922
0.16850000 0.16850800 8870.62696827 0 140.97799334 0 2547.99698575 0 -320.80704780 0 -93.29054427 0 30867
0.16950000 0.16949900 8841.05281619 0 254.15560929 0 2616.25021699 0 -443.57406289 0 516.69337183 0 30852
0.17050000 0.17049200 8657.29065804 0 245.56775213 0 2775.38410939 0 -190.49530794 0 37.29895207 0 31257
0.17150000 0.17149500 8568.86045874 0 123.21664112 0 3106.21894170 0 170.70389420 0 594.79566124 0 32608
0.17250000 0.17250900 8466.46937123 0 67.24685578 0 2925.04213322 0 396.97144902 0 314.58871981 0 32361
0.17350000 0.17350400 8539.51111968 0 59.44044866 0 2999.54516626 0 497.09529728 0 508.08640556 0 32508
0.17450000 0.17449800 8342.99082295 0 134.45616778 0 2528.32584697 0 154.95124626 0 540.36056194 0 32791
0.17550000 0.17549800 8254.16720088 0 206.66385995 0 2987.37154152 0 -101.91291023 0 804.32251493 0 33633
0.17650000 0.17650100 8084.39965289 0 216.59385081 0 2765.95320342 0 -115.81692074 0 981.79552899 0 33984
0.17750000 0.17750300 8001.05022772 0 159.99267811 0 3162.43343601 0 -42.38669540 0 856.87480522 0 34069
