### header ###
fiducial parameters:
Omega_m = 0.31
Omega_nu = 0
Omega_de = 0.69
Omega_k = 0
H_0 = 100
w_de = -1
zeff = 0
beta = 0
fgrowth = 0
b_1 = 2
gamma = 0.55
Lx = 3500 Ly = 3500 Lz = 3500
nx = 700 ny = 700 nz = 700
xoffset = 857.220397 yoffset = 15.9954215 zoffset = 262.898189
bins = 400 dk = 0.001
kx_ny = 0.628318531 ky_ny = 0.628318531 kz_ny = 0.628318531
############################
A(data) = 3.04948196 (not used)
A(ran) = 3.04914799 (used)
Ngal = 186342
weighted Ngal = 0
Nran = 9360983
weighted Nran = 0
SN(data) = 3442.51978
SN(ran) = 68.4724046
SN(data+ran) = 3510.99218
############################
13 columns: k_central k_mean P_0(k) sigma^{lin}_{P_0(k)} P^img_1(k) sigma^{lin}_{P_1(k)} P_2(k) sigma^{lin}_{P_2(k)} P^img_3(k) sigma^{lin}_{P_3(k)} P_4(k) sigma^{lin}_{P_4(k)} N_modes
### header ###
0.00050000 0 0 0 0 0 0 0 0 0 0 0 0
0.00150000 0.00179520 9276.25709054 0 -11181.14272602 0 1878.79608513 0 20783.85079510 0 -5794.49924857 0 3
0.00250000 0.00253879 25754.12932882 0 -22323.25791270 0 -18571.46591822 0 15544.35867637 0 43582.47582721 0 6
0.00350000 0.00331552 34046.35737307 0 -17962.78468114 0 -2464.79368904 0 -30954.84120253 0 -33578.63389615 0 7
0.00450000 0.00420575 50298.09019994 0 -14165.01842517 0 -23224.87050784 0 -2931.40434153 0 -3745.62087723 0 24
0.00550000 0.00557378 54965.77041598 0 -5387.80126447 0 -16027.48184478 0 -4123.57651741 0 10873.60976267 0 45
0.00650000 0.00659388 71031.13325373 0 -2016.88747936 0 -48200.02274100 0 -15789.51726881 0 -32293.49029808 0 40
0.00750000 0.00754703 57176.13197572 0 2575.66022720 0 -125.55806867 0 -21852.04983406 0 -1610.06584810 0 57
0.00850000 0.00846663 63655.58027659 0 1302.51040345 0 -12665.51561765 0 -26702.50303099 0 -24571.50046541 0 75
0.00950000 0.00948925 58053.46476528 0 200.85356759 0 22538.51637420 0 -30370.55217753 0 -9117.99996890 0 112
0.01050000 0.01054430 63503.15705268 0 2492.01854511 0 24927.94150009 0 -20225.86489281 0 -15383.84218393 0 105
0.01150000 0.01145670 62891.89046592 0 -292.56828503 0 39379.82133191 0 -12170.70217247 0 -17910.29084222 0 144
0.01250000 0.01249090 71036.86598560 0 -1847.72692651 0 57883.61853273 0 6538.81017738 0 498.22498268 0 169
0.01350000 0.01339930 76430.01779982 0 -1764.96201518 0 71094.08089782 0 12621.90189282 0 10880.87122304 0 180
0.01450000 0.01448870 81094.32582065 0 -1306.07368974 0 71714.34000516 0 33096.63479281 0 29689.36874323 0 267
0.01550000 0.01550050 86047.51856526 0 -1792.92875420 0 68670.03456768 0 29148.01900403 0 35666.13514341 0 238
0.01650000 0.01653350 91513.28498320 0 3657.83139502 0 85083.85757809 0 29806.15910433 0 66308.71106862 0 315
0.01750000 0.01747870 89672.85323902 0 6596.46347497 0 93450.38632368 0 27049.50191906 0 64401.73467211 0 297
0.01850000 0.01844180 88541.70655596 0 6804.76397367 0 96419.94143379 0 22373.50362147 0 84728.31579547 0 388
0.01950000 0.01947590 78354.19239195 0 9825.31791615 0 85250.66883494 0 28444.57908128 0 74308.45738086 0 399
0.02050000 0.02045430 72914.39187720 0 6816.94883906 0 76609.98061803 0 31165.15377770 0 63912.87877182 0 462
0.02150000 0.02154770 66679.87735576 0 3965.17326731 0 71424.44362281 0 25821.34842019 0 57836.52020617 0 571
0.02250000 0.02255340 61471.85905908 0 3159.97173350 0 52435.94956246 0 27904.24100064 0 51579.63678978 0 510
0.02350000 0.02348930 59186.18513944 0 854.14445116 0 48362.11292454 0 16639.19805756 0 44010.18258753 0 555
0.02450000 0.02439640 58035.03009808 0 -264.31153722 0 34883.33622650 0 12684.06269136 0 41272.18488247 0 592
0.02550000 0.02547300 58740.04371193 0 630.68593495 0 29683.29879184 0 10219.24652102 0 42704.69341163 0 837
0.02650000 0.02652900 58456.44209398 0 -340.11286543 0 26699.01842926 0 1174.53559488 0 35891.17297104 0 723
0.02750000 0.02749970 61054.26888442 0 -471.71503199 0 27791.38486730 0 6568.19323839 0 38612.64691952 0 826
0.02850000 0.02848090 62314.12101835 0 -330.45714645 0 35753.02537356 0 -865.54359507 0 31755.62516060 0 831
0.02950000 0.02946900 61765.57726268 0 1538.54158750 0 34496.09580882 0 -3127.34012442 0 38014.19467460 0 996
0.03050000 0.03053250 59964.60020256 0 2045.06779074 0 42324.30979089 0 -1267.63066424 0 24957.84163103 0 1041
0.03150000 0.03150510 60327.44840816 0 2614.28310311 0 38830.37832418 0 -1059.86297238 0 18575.84977201 0 1036
0.03250000 0.03246190 60123.99262993 0 1885.74280728 0 43482.88366174 0 2113.74816671 0 20401.44385723 0 1059
0.03350000 0.03345080 55801.96242386 0 1376.14790639 0 36988.59770191 0 4664.95997857 0 4416.06949008 0 1302
0.03450000 0.03451200 57283.14297068 0 -890.47423432 0 33288.28788777 0 9805.00606028 0 11321.92063578 0 1339
0.03550000 0.03553350 55652.46176914 0 -527.35962530 0 24084.44306924 0 10606.98152733 0 2024.87958203 0 1365
0.03650000 0.03647120 55509.93031787 0 840.62307240 0 23337.72664118 0 9802.08349109 0 4391.27261457 0 1308
0.03750000 0.03744890 53118.14465533 0 2079.19440636 0 16180.24228822 0 7485.48654129 0 3965.20698926 0 1579
0.03850000 0.03847530 50156.23318771 0 2330.47915345 0 13734.05187614 0 1572.07244863 0 1071.60720427 0 1662
0.03950000 0.03950240 48410.89734871 0 1405.23871048 0 11822.69162584 0 1839.31891976 0 7707.62428103 0 1683
0.04050000 0.04050350 48469.91076505 0 108.38460248 0 10395.87086595 0 1828.92131784 0 2544.14144255 0 1822
0.04150000 0.04152450 48752.83794395 0 -391.98622042 0 10465.01210860 0 -168.93011951 0 4023.75953892 0 1887
0.04250000 0.04250150 49447.73497214 0 977.33523878 0 11005.73237136 0 -1269.27179924 0 86.14250206 0 1920
0.04350000 0.04349210 46144.10772230 0 1885.49551297 0 10468.66532009 0 -710.50804393 0 118.24939756 0 2005
0.04450000 0.04448520 46676.80216044 0 2915.72363376 0 14619.59034073 0 -2137.80315927 0 3629.86465600 0 2151
0.04550000 0.04548030 44007.26001834 0 2232.06725630 0 15905.85800387 0 2088.34429606 0 6354.83444686 0 2274
0.04650000 0.04648670 43573.37090012 0 1509.04611998 0 16320.30079633 0 1877.03130297 0 10146.75556445 0 2311
0.04750000 0.04749250 42014.85467627 0 728.77747356 0 15247.15587104 0 6419.51315117 0 8972.53470779 0 2568
0.04850000 0.04851840 42139.17627335 0 791.70038822 0 15699.70446947 0 3674.69237112 0 11824.49012996 0 2493
0.04950000 0.04949480 39473.56835901 0 844.01100453 0 9625.69519982 0 5418.66809138 0 8790.14390903 0 2644
0.05050000 0.05050630 38954.92473428 0 1432.85698933 0 11911.94239265 0 929.08362145 0 8354.93963468 0 2829
0.05150000 0.05149060 36987.92326286 0 1708.12928508 0 8894.32226001 0 -756.31594378 0 2119.37973273 0 2784
0.05250000 0.05249300 34591.97855955 0 1763.62437774 0 8928.51631953 0 -1382.95974074 0 -1499.24427255 0 3055
0.05350000 0.05348950 33739.71242113 0 1237.32586986 0 4855.10682633 0 -2000.53233255 0 -6014.63615249 0 3009
0.05450000 0.05448610 31972.23250019 0 639.11529894 0 5194.76556947 0 633.09930267 0 -5931.93868506 0 3336
0.05550000 0.05550870 31364.56292167 0 116.99606500 0 3523.17963992 0 967.10849475 0 -7857.54083983 0 3349
0.05650000 0.05647670 32390.60952039 0 -505.16833263 0 3576.78630325 0 1670.96769376 0 -8029.99490335 0 3324
0.05750000 0.05747970 32251.78748387 0 -70.18920851 0 4182.08410447 0 -883.85911137 0 -5150.15142672 0 3639
0.05850000 0.05849280 32458.27823780 0 222.00734820 0 6505.39172275 0 -875.27912267 0 -3093.42708117 0 3846
0.05950000 0.05951020 32649.59411324 0 640.86884045 0 9604.33796343 0 -555.27690546 0 1153.14463654 0 3787
0.06050000 0.06049470 32612.16274630 0 836.36398983 0 10995.79563612 0 -1634.96388947 0 -387.94295835 0 3930
0.06150000 0.06148310 31828.80179686 0 490.54424603 0 12917.75582006 0 776.01855639 0 2997.91527191 0 4083
0.06250000 0.06249100 32441.52966821 0 -188.84967667 0 13406.38690733 0 598.17460084 0 436.63408512 0 4303
0.06350000 0.06350600 32181.64582331 0 -426.81987297 0 10035.36071571 0 371.82611334 0 -431.92537653 0 4470
0.06450000 0.06451750 32367.56618640 0 96.43860091 0 11996.02246011 0 646.06876548 0 -1632.52466826 0 4479
0.06550000 0.06550280 31417.73119963 0 802.74882382 0 10563.24415534 0 -465.68779507 0 -1172.92818183 0 4636
0.06650000 0.06648880 31600.84140004 0 1301.63363270 0 9264.08346580 0 -405.56605057 0 -1423.51600857 0 4653
0.06750000 0.06749660 30316.14742799 0 1462.62223247 0 11234.28852268 0 1012.23296304 0 1883.42723323 0 5220
0.06850000 0.06852730 29275.93760934 0 1191.82371571 0 10525.50929083 0 1396.34735576 0 2531.95657716 0 5029
0.06950000 0.06949320 28991.66155236 0 712.55384236 0 11819.09461761 0 3137.24313772 0 2228.39156351 0 5040
0.07050000 0.07048030 28121.97240530 0 320.04942794 0 10386.58608845 0 2644.57665683 0 5478.80557279 0 5475
0.07150000 0.07148790 28000.34856439 0 362.27718054 0 9357.02116605 0 2051.29511125 0 3937.51002586 0 5509
0.07250000 0.07249820 27659.53203423 0 566.30623196 0 10061.80996688 0 878.52991886 0 5823.99471609 0 5916
0.07350000 0.07351270 27107.27886381 0 770.35439248 0 8819.06610336 0 236.30433186 0 4467.79896475 0 5721
0.07450000 0.07449140 26372.36511902 0 830.27155714 0 9292.01648287 0 -707.93955523 0 4192.75148201 0 6028
0.07550000 0.07549160 25941.39857000 0 1035.66747169 0 10843.00147073 0 -2236.49607269 0 4832.68172812 0 6183
0.07650000 0.07648840 25233.91201299 0 416.85278797 0 10469.45216564 0 -364.24204629 0 3305.44823526 0 6330
0.07750000 0.07749960 25830.22853427 0 13.62254462 0 12636.73955178 0 -127.99166955 0 5156.37874722 0 6583
0.07850000 0.07848650 25228.29168762 0 -281.61202276 0 11297.30361068 0 -8.84710029 0 3071.58649680 0 6549
0.07950000 0.07947320 26042.22720705 0 -352.34156936 0 11713.65731375 0 980.39606798 0 2358.86179655 0 6828
0.08050000 0.08048110 25758.62558911 0 -61.44690481 0 11522.00421879 0 716.25763677 0 1463.95986990 0 7147
0.08150000 0.08149960 25176.69710077 0 829.10140540 0 9602.06735198 0 287.07273089 0 868.30542295 0 7386
0.08250000 0.08250610 24750.67643806 0 753.91831298 0 9526.71002948 0 1144.56802003 0 -678.35416251 0 7227
0.08350000 0.08350160 23235.99875206 0 1139.45352395 0 7823.66151853 0 246.79298306 0 -908.21760150 0 7798
0.08450000 0.08449610 22725.56080237 0 461.29832096 0 7167.71334512 0 334.45319778 0 -895.62470049 0 7371
0.08550000 0.08548940 22318.42443289 0 381.03108222 0 6508.60654886 0 725.25015736 0 -2811.87126166 0 8256
0.08650000 0.08650700 22208.82808826 0 52.57510882 0 6009.11699298 0 1457.15927621 0 -1284.01953300 0 8037
0.08750000 0.08749060 22000.42642371 0 -236.89896229 0 6044.41263627 0 1410.16211550 0 -2075.88965505 0 8155
0.08850000 0.08849210 22690.26515907 0 -137.89693097 0 5259.59040224 0 1328.85848877 0 -348.54335348 0 8718
0.08950000 0.08949900 22507.49217819 0 258.18875477 0 5344.82825673 0 203.25344652 0 -1042.16456781 0 8571
0.09050000 0.09049190 22519.96930050 0 854.67725801 0 7364.42473292 0 -873.40643025 0 989.06710595 0 8932
0.09150000 0.09150830 21474.36396950 0 792.07807408 0 7128.76449034 0 -1353.55419842 0 1587.92176616 0 9285
0.09250000 0.09250820 21465.37144892 0 553.95388087 0 8675.82649110 0 -468.87002329 0 2620.30809190 0 9204
0.09350000 0.09350330 20987.64379285 0 282.83837776 0 9130.72438553 0 -196.77883170 0 2568.14023186 0 9349
0.09450000 0.09448040 21277.65258171 0 88.68985833 0 8895.27771532 0 1001.85559429 0 2541.20763271 0 9564
0.09550000 0.09549270 20635.92383148 0 332.03308568 0 8801.03609959 0 775.39470027 0 2994.90277751 0 10155
0.09650000 0.09649430 20390.65283253 0 584.82632810 0 7789.87212243 0 1269.95747894 0 2341.92213590 0 9913
0.09750000 0.09749140 19320.65528944 0 729.49013081 0 7590.87888254 0 610.10542753 0 3272.34451885 0 10476
0.09850000 0.09850240 18644.41774147 0 773.60631274 0 6511.57408065 0 1016.55836544 0 2493.03020367 0 10575
0.09950000 0.09950330 18114.08383998 0 573.43730078 0 6597.00302621 0 320.29559819 0 2890.38720701 0 10882
0.10050000 0.10051200 17415.70221006 0 458.35439453 0 6428.10100833 0 423.50837727 0 2886.62158902 0 10875
0.10150000 0.10150300 17149.41119424 0 381.58412223 0 6604.61294675 0 -21.61869392 0 2237.31664020 0 11118
0.10250000 0.10250800 17094.33200566 0 156.64296420 0 7318.93381941 0 -504.71083815 0 2934.72033350 0 11575
0.10350000 0.10349800 16780.71785027 0 211.59513343 0 7221.08395479 0 -64.52999050 0 1906.60545504 0 11364
0.10450000 0.10450100 16983.16196993 0 -119.26218019 0 7062.10743151 0 939.91286437 0 2179.16875396 0 12093
0.10550000 0.10551000 17026.88810128 0 -178.90844516 0 6313.28900176 0 755.50212067 0 1645.37273205 0 12067
0.10650000 0.10649700 17157.72927578 0 118.39552602 0 5950.31714901 0 1402.14753153 0 1541.27306563 0 12054
0.10750000 0.10749900 17009.12787312 0 397.55146660 0 5667.50237661 0 605.92053326 0 1600.12911286 0 12807
0.10850000 0.10850100 16396.40000177 0 743.57803838 0 4863.12141030 0 396.26890835 0 2111.78105283 0 12736
0.10950000 0.10950300 15722.18577093 0 715.96088359 0 4603.26004670 0 394.18264357 0 1978.74795143 0 12933
0.11050000 0.11050200 15029.53687289 0 476.16408155 0 4517.01053365 0 207.19329460 0 2233.60722545 0 13428
0.11150000 0.11150900 14735.36904326 0 287.95062571 0 4384.65187129 0 926.85797261 0 2565.75721390 0 13453
0.11250000 0.11250000 14365.66404071 0 -6.91883410 0 4542.78534577 0 684.43647862 0 2360.94131693 0 13668
0.11350000 0.11349100 14573.27885972 0 -90.36123069 0 3890.97373183 0 570.42031013 0 2205.26954496 0 13791
0.11450000 0.11448600 14554.28215998 0 -155.41998140 0 3922.47003518 0 -19.06155829 0 1338.03085976 0 14205
0.11550000 0.11549300 14699.96099345 0 -171.24569356 0 3805.72463669 0 -193.50667827 0 1852.67281283 0 14776
0.11650000 0.11649800 15081.58108577 0 -258.92501739 0 3963.85811117 0 -360.10436275 0 899.55105979 0 14553
0.11750000 0.11747300 15017.73418962 0 -140.46092340 0 3581.59730176 0 -243.12965499 0 891.65899891 0 14568
0.11850000 0.11849100 15478.60086959 0 60.16771876 0 4221.38141942 0 -17.73010321 0 1201.59184119 0 16015
0.11950000 0.11950300 15196.34812973 0 190.95167836 0 3970.90599918 0 216.85913016 0 512.33649560 0 15270
0.12050000 0.12050700 15068.42952442 0 391.65911748 0 3880.55364861 0 553.44243126 0 1566.54204847 0 15999
0.12150000 0.12150000 14716.25993701 0 339.28330540 0 3942.07373006 0 448.95833459 0 1278.37672633 0 15670
0.12250000 0.12250700 14419.73157073 0 339.51036655 0 3695.93720100 0 334.47455502 0 2318.68771084 0 16887
0.12350000 0.12352200 14118.14491162 0 341.61012011 0 3922.75105145 0 99.11747280 0 2058.15190819 0 16407
0.12450000 0.12449800 13826.33761864 0 472.85595804 0 4039.19295237 0 -498.01927877 0 2365.38137397 0 16306
0.12550000 0.12549900 13553.52702540 0 408.55044334 0 4217.66076403 0 -445.42090180 0 2025.04819179 0 17523
0.12650000 0.12650100 13128.40561475 0 294.59160216 0 4077.24255510 0 3.24573790 0 1880.02131606 0 17154
0.12750000 0.12750600 12973.84666720 0 125.73567095 0 3977.14456034 0 144.17708254 0 1221.26297997 0 18007
0.12850000 0.12850300 12955.18718699 0 162.62748665 0 3728.26531250 0 358.33733246 0 809.44038320 0 17496
0.12950000 0.12949900 12618.86691712 0 217.66396075 0 3424.99255578 0 254.70302898 0 257.96618989 0 18405
0.13050000 0.13049000 12625.27408803 0 240.03060758 0 3184.99342202 0 283.12726248 0 260.59650216 0 18100
0.13150000 0.13148800 12113.15004073 0 270.79514457 0 3311.84416552 0 -60.79045081 0 190.03219313 0 19059
0.13250000 0.13249300 12099.77366636 0 229.22721816 0 3292.00441698 0 143.74544155 0 318.53868448 0 18957
0.13350000 0.13349100 11867.54182226 0 94.49576684 0 3685.87681860 0 20.81723553 0 656.02685796 0 19468
0.13450000 0.13450700 12072.00925906 0 44.14956666 0 3723.85897742 0 82.78817948 0 1343.31396561 0 19953
0.13550000 0.13551000 12121.91774830 0 -105.21024271 0 4080.90700724 0 319.15354807 0 1244.58733024 0 19956
0.13650000 0.13649900 12246.12693888 0 22.52232984 0 4301.41485263 0 159.17548281 0 1969.38448937 0 19723
0.13750000 0.13749600 12174.97361975 0 74.03485994 0 3850.21513228 0 134.65737543 0 1643.59670923 0 20946
0.13850000 0.13851100 12054.36143741 0 170.41950573 0 4338.49775939 0 242.48331757 0 2352.84804841 0 20955
0.13950000 0.13949800 11944.87749929 0 191.50921463 0 3658.28102105 0 221.45655631 0 1846.29936387 0 20506
0.14050000 0.14048300 11763.34098998 0 150.35157198 0 3978.59460428 0 332.78283709 0 2047.67562171 0 21447
0.14150000 0.14148400 11635.98441720 0 247.10097689 0 3324.01779026 0 61.90439930 0 1369.92058589 0 21771
0.14250000 0.14249400 11455.23475345 0 232.52410102 0 3853.99199093 0 213.32956583 0 2114.08538623 0 22470
0.14350000 0.14350900 11215.28058229 0 105.76204626 0 3225.95435329 0 281.92001659 0 1405.44104220 0 22519
0.14450000 0.14449900 11208.62611706 0 75.25941643 0 3315.68846807 0 274.51017963 0 1845.80477523 0 22218
0.14550000 0.14550500 11048.37940024 0 124.91959970 0 3277.48149624 0 82.43443620 0 954.75501959 0 23559
0.14650000 0.14650700 11048.62669455 0 229.43966646 0 3389.62946858 0 -98.89176053 0 914.84733730 0 23044
0.14750000 0.14750500 10666.15231278 0 333.80348817 0 3293.31957312 0 -508.33257581 0 971.86329001 0 23649
0.14850000 0.14849900 10419.73476746 0 319.21537165 0 3168.32353699 0 -262.80191783 0 729.25857341 0 23640
0.14950000 0.14949500 10248.89935765 0 142.92487404 0 3586.28465312 0 63.60679585 0 643.64528118 0 24457
0.15050000 0.15050000 10161.58198277 0 134.62702567 0 3441.62871886 0 108.67101426 0 599.88992415 0 24591
0.15150000 0.15149900 10192.77478855 0 51.94967901 0 3571.87413888 0 264.34638324 0 713.41712433 0 25020
0.15250000 0.15250500 10128.72556068 0 92.54304100 0 3528.65383682 0 97.69148384 0 1139.27367354 0 25297
0.15350000 0.15350100 10141.70851228 0 127.63084466 0 3699.33187752 0 -68.59033835 0 1278.92751822 0 25452
0.15450000 0.15450400 10065.46317837 0 92.17693300 0 3992.94891527 0 196.19769005 0 2104.47462986 0 26061
0.15550000 0.15549900 9958.36225820 0 86.53210302 0 3879.12608596 0 53.64364508 0 1523.04073014 0 26128
0.15650000 0.15649500 10011.66542397 0 -30.78072352 0 3864.74929368 0 437.95373752 0 2121.76275068 0 26331
0.15750000 0.15749700 9867.44787509 0 36.80189049 0 3626.79595835 0 241.39185038 0 1071.64991874 0 27345
0.15850000 0.15849900 9878.17145589 0 53.76684261 0 3346.66770149 0 269.54406014 0 1170.96106795 0 26980
0.15950000 0.15949700 9644.09614507 0 195.88070370 0 3189.53464492 0 -120.22775209 0 776.50977282 0 27777
0.16050000 0.16050000 9494.87650661 0 305.44557451 0 2789.77214232 0 30.35121826 0 546.31473463 0 28224
0.16150000 0.16150500 9230.58632662 0 321.01162764 0 2609.59575175 0 45.48237061 0 83.48802239 0 28075
0.16250000 0.16249700 8867.87300884 0 249.73128916 0 2515.42157993 0 -55.32400995 0 -312.29562706 0 28590
0.16350000 0.16349900 8755.56766738 0 165.20271973 0 2674.91517315 0 198.22437938 0 138.85913068 0 29163
0.16450000 0.16449100 8671.37519341 0 84.94245019 0 2620.25188865 0 -4.18993008 0 33.92619482 0 28996
0.16550000 0.16550500 8607.44961270 0 -1.44467091 0 2597.03994489 0 165.17686623 0 205.35095194 0 30777
0.16650000 0.16650700 8834.08361274 0 -60.30406785 0 2962.76575707 0 153.64508265 0 619.18000487 0 29211
0.16750000 0.16749900 8668.44138357 0 1.74741536 0 2757.56767798 0 141.18369725 0 784.08484735 0 30922
0.16850000 0.16850800 8842.58154469 0 99.74739886 0 2915.18408253 0 157.67935219 0 947.21703921 0 30867
0.16950000 0.16949900 8637.03500543 0 150.31785003 0 2905.52836355 0 134.32690030 0 1125.69496746 0 30852
0.17050000 0.17049200 8605.51622078 0 191.46087984 0 3176.87767220 0 110.81393191 0 973.38190192 0 31257
0.17150000 0.17149500 8483.34158798 0 117.15118598 0 2716.95520689 0 331.35527444 0 1228.79421596 0 32608
0.17250000 0.17250900 8356.85054530 0 29.98803283 0 2767.95403925 0 433.55976715 0 1077.10275841 0 32361
0.17350000 0.17350400 8334.45916905 0 23.32030363 0 2290.69849052 0 301.55855749 0 828.44382733 0 32508
0.17450000 0.17449800 8320.09361741 0 103.46164708 0 2247.41074455 0 167.32270646 0 897.79639421 0 32791
0.17550000 0.17549800 8224.07597887 0 139.24243687 0 2168.87231789 0 -79.26356104 0 710.60696165 0 33633
0.17650000 0.17650100 8123.93302151 0 182.82918414 0 2473.56139661 0 -245.61383880 0 1016.94729196 0 33984
0.17750000 0.17750300 8109.91593005 0 208.94346392 0 2622.97212612 0 -405.49186227 0 938.04354415 0 34069
0.17850000 0.17849800 7920.61213109 0 147.27275775 0 2668.20450467 0 -264.52398552 0 839.55745871 0 34536
