### header ###
fiducial parameters:
Omega_m = 0.31
Omega_nu = 0
Omega_de = 0.69
Omega_k = 0
H_0 = 100
w_de = -1
zeff = 0
beta = 0
fgrowth = 0
b_1 = 2
gamma = 0.55
Lx = 3500 Ly = 3500 Lz = 3500
nx = 700 ny = 700 nz = 700
xoffset = 857.220397 yoffset = 15.9954215 zoffset = 262.898189
bins = 400 dk = 0.001
kx_ny = 0.628318531 ky_ny = 0.628318531 kz_ny = 0.628318531
############################
A(data) = 3.02431497 (not used)
A(ran) = 3.02639477 (used)
Ngal = 185159
weighted Ngal = 0
Nran = 9360983
weighted Nran = 0
SN(data) = 3437.66141
SN(ran) = 67.9614527
SN(data+ran) = 3505.62286
############################
13 columns: k_central k_mean P_0(k) sigma^{lin}_{P_0(k)} P^img_1(k) sigma^{lin}_{P_1(k)} P_2(k) sigma^{lin}_{P_2(k)} P^img_3(k) sigma^{lin}_{P_3(k)} P_4(k) sigma^{lin}_{P_4(k)} N_modes
### header ###
0.00050000 0 0 0 0 0 0 0 0 0 0 0 0
0.00150000 0.00179520 15434.20029920 0 -23436.30714809 0 -32049.11855119 0 63764.38977566 0 44954.17243592 0 3
0.00250000 0.00253879 34354.23879659 0 -31610.17114014 0 -6718.70555167 0 -21295.63762288 0 4177.43047506 0 6
0.00350000 0.00331552 52890.18425850 0 -31702.45688264 0 -25286.96788444 0 -20448.87940331 0 -18645.99143257 0 7
0.00450000 0.00420575 79402.83269865 0 -29776.03416037 0 -21168.73067612 0 -37262.08273419 0 -8433.33193288 0 24
0.00550000 0.00557378 97608.41543558 0 -10619.95323828 0 -27969.88640091 0 -53067.33691402 0 8161.88145838 0 45
0.00650000 0.00659388 117504.14241642 0 542.38837533 0 -9231.00223070 0 -30963.27169057 0 -44202.73493455 0 40
0.00750000 0.00754703 92554.28164740 0 15421.83558340 0 -4685.44044420 0 -54945.98687069 0 -9836.68221404 0 57
0.00850000 0.00846663 89187.48194045 0 18944.20589646 0 8424.53050336 0 -28285.29906042 0 -24843.74902611 0 75
0.00950000 0.00948925 71575.96759466 0 8663.73155091 0 26214.77119577 0 -18510.31677825 0 -9639.34134981 0 112
0.01050000 0.01054430 69842.09721940 0 3913.56743980 0 9733.99886961 0 -3211.90353987 0 -37900.66410222 0 105
0.01150000 0.01145670 71460.63851816 0 -4767.82317341 0 35489.76933344 0 -2832.85755657 0 -25037.31303170 0 144
0.01250000 0.01249090 77095.23951008 0 -6122.38903040 0 23866.82407108 0 -10187.43547945 0 -35318.91144233 0 169
0.01350000 0.01339930 81449.53038375 0 3586.99281412 0 44814.11392781 0 -16273.98931531 0 -36625.97430932 0 180
0.01450000 0.01448870 78991.53728840 0 6343.71744329 0 43707.13464382 0 -22540.31487832 0 -22207.36680367 0 267
0.01550000 0.01550050 73458.10215306 0 7087.91596558 0 57749.51756951 0 -6030.91261475 0 -34919.41871535 0 238
0.01650000 0.01653350 66494.85624473 0 5362.94818571 0 43720.62342470 0 4141.71892769 0 -15796.59887877 0 315
0.01750000 0.01747870 65415.19174202 0 -2653.79399043 0 39824.61388134 0 15770.85778860 0 -44750.49184467 0 297
0.01850000 0.01844180 66135.38023435 0 -4383.73013793 0 31631.64078304 0 21084.76301516 0 -27601.97990249 0 388
0.01950000 0.01947590 67732.67670323 0 -1303.89300349 0 20083.33344154 0 12594.69951805 0 -26386.75315196 0 399
0.02050000 0.02045430 68041.79459833 0 2148.54922137 0 17729.20395895 0 212.61016419 0 -12510.16982455 0 462
0.02150000 0.02154770 67710.30780827 0 5038.29571130 0 20403.12995484 0 4111.88624065 0 8395.85560334 0 571
0.02250000 0.02255340 63106.58689489 0 3559.48694178 0 24242.48661851 0 16380.55068424 0 16701.69607563 0 510
0.02350000 0.02348930 60786.85380353 0 -1071.67015191 0 21549.00189035 0 19455.76791123 0 24298.12783963 0 555
0.02450000 0.02439640 62791.06182887 0 302.81076598 0 20306.68517156 0 19611.45092385 0 22907.20971818 0 592
0.02550000 0.02547300 61872.81307065 0 757.67831065 0 18813.25231545 0 10203.04874331 0 28140.51947901 0 837
0.02650000 0.02652900 58497.80768867 0 2154.87770773 0 14827.09275322 0 1491.00487556 0 20777.10640466 0 723
0.02750000 0.02749970 57688.59324255 0 1233.49280797 0 10150.57738570 0 -3814.42490036 0 15298.52564488 0 826
0.02850000 0.02848090 56603.98285352 0 492.53496528 0 14821.24761484 0 -3148.18029088 0 12207.23428735 0 831
0.02950000 0.02946900 56040.93865840 0 -650.06256868 0 11324.50598544 0 -1192.53187670 0 7476.19052313 0 996
0.03050000 0.03053250 59778.23021344 0 6.41165594 0 14881.60990927 0 -3534.56641911 0 4996.63785969 0 1041
0.03150000 0.03150510 58698.11608470 0 2231.04435709 0 11928.35374271 0 -1018.19163199 0 408.94274205 0 1036
0.03250000 0.03246190 58719.92294712 0 795.08607222 0 22119.91454098 0 -1082.12620522 0 5734.62030213 0 1059
0.03350000 0.03345080 58151.70805267 0 3013.88823660 0 21584.18512714 0 -3444.02297747 0 8790.63849766 0 1302
0.03450000 0.03451200 58798.27028271 0 2257.92075298 0 26015.81167784 0 2299.69101110 0 12922.36448685 0 1339
0.03550000 0.03553350 56351.85505762 0 2065.99788240 0 29304.48886220 0 1566.41840132 0 13271.49909856 0 1365
0.03650000 0.03647120 54042.91299097 0 2175.80779940 0 24715.94282730 0 3865.87335875 0 6212.16810778 0 1308
0.03750000 0.03744890 52805.99178453 0 2399.54171154 0 24196.51235702 0 7009.28761372 0 5404.97697879 0 1579
0.03850000 0.03847530 47711.95368626 0 2069.56116869 0 17154.01986104 0 8101.42923874 0 64.84810091 0 1662
0.03950000 0.03950240 44566.25757919 0 2854.55201248 0 12185.20261192 0 4181.83681015 0 -4155.39879963 0 1683
0.04050000 0.04050350 41771.94421397 0 2459.46562059 0 8719.96852652 0 4145.21477007 0 -9884.54490485 0 1822
0.04150000 0.04152450 38092.54201020 0 1710.87200386 0 5897.86827269 0 -1725.03522378 0 -9008.29121777 0 1887
0.04250000 0.04250150 38280.37328391 0 1792.64773793 0 7478.89951996 0 -3621.46788991 0 -9533.89280530 0 1920
0.04350000 0.04349210 36081.58959442 0 840.01045693 0 9006.54891691 0 -2785.17471617 0 -6843.55545934 0 2005
0.04450000 0.04448520 37214.98440763 0 480.69631193 0 14705.80613183 0 -3837.04108963 0 -8156.15996715 0 2151
0.04550000 0.04548030 36964.20548982 0 176.32646769 0 13659.18914227 0 -2407.59001747 0 -5492.53040733 0 2274
0.04650000 0.04648670 38425.49008485 0 230.96839496 0 19078.53167270 0 -639.38170236 0 -5805.14414481 0 2311
0.04750000 0.04749250 38259.35326705 0 -194.14627130 0 18666.22460388 0 2339.51663664 0 -4270.41313791 0 2568
0.04850000 0.04851840 39869.46407775 0 -65.48342249 0 20325.00743226 0 2779.05980218 0 -79.82727967 0 2493
0.04950000 0.04949480 38760.91110266 0 -463.44753338 0 18666.89904293 0 3236.58800888 0 -788.99925985 0 2644
0.05050000 0.05050630 39473.56835901 0 626.42910052 0 18155.22462165 0 4704.41466263 0 3465.20036345 0 2829
0.05150000 0.05149060 39825.28832038 0 779.07376525 0 19647.98303873 0 5083.79786545 0 7281.25515816 0 2784
0.05250000 0.05249300 37218.80622888 0 990.89371169 0 16350.31333378 0 3760.69458986 0 9155.16156022 0 3055
0.05350000 0.05348950 36953.75168464 0 601.68505607 0 16963.15361163 0 3065.03319742 0 10774.60211103 0 3009
0.05450000 0.05448610 36045.84432510 0 1021.93814088 0 16860.75128347 0 -153.13588117 0 10312.31910907 0 3336
0.05550000 0.05550870 36152.51810054 0 1053.83573546 0 17050.04384178 0 416.59425300 0 7845.38969639 0 3349
0.05650000 0.05647670 34229.80479300 0 1200.38909156 0 17860.94438552 0 -3460.82775031 0 4384.97785016 0 3324
0.05750000 0.05747970 33394.84925670 0 857.44807841 0 15819.08018023 0 -2092.75063114 0 -1443.06350019 0 3639
0.05850000 0.05849280 33582.56812391 0 287.69995920 0 16083.46028542 0 235.71194957 0 -2343.66443676 0 3846
0.05950000 0.05951020 33325.49444169 0 179.84479137 0 16490.82146792 0 1173.34408590 0 -4423.93794559 0 3787
0.06050000 0.06049470 33589.53732736 0 365.42793494 0 14026.64601467 0 2138.07293489 0 -2253.37953009 0 3930
0.06150000 0.06148310 32944.66119493 0 273.20289195 0 13343.88888927 0 4667.53408758 0 -2776.45197121 0 4083
0.06250000 0.06249100 32860.58112746 0 144.42662498 0 11373.40281612 0 3696.44303028 0 944.21578547 0 4303
0.06350000 0.06350600 31863.31059460 0 -253.78017155 0 10663.04989318 0 3205.23783399 0 1717.04312111 0 4470
0.06450000 0.06451750 33366.86003638 0 -257.10740417 0 10044.55556801 0 426.87720029 0 1903.88521756 0 4479
0.06550000 0.06550280 32117.34930112 0 -222.17483389 0 8225.55974477 0 57.20355916 0 1324.15989676 0 4636
0.06650000 0.06648880 33042.00523026 0 537.12775079 0 8854.67648488 0 -1230.24425990 0 1163.27246285 0 4653
0.06750000 0.06749660 31675.25450787 0 439.25540488 0 7765.28881928 0 317.44496916 0 48.01410238 0 5220
0.06850000 0.06852730 31514.73801544 0 522.80716176 0 8843.48079675 0 1256.40125416 0 1071.87135956 0 5029
0.06950000 0.06949320 31101.08206854 0 832.14537362 0 7638.73033270 0 2468.08719970 0 239.18755877 0 5040
0.07050000 0.07048030 30666.51851128 0 743.80509952 0 6798.22191495 0 2600.79432223 0 1781.33964329 0 5475
0.07150000 0.07148790 29446.34587443 0 979.61371869 0 8288.29381650 0 1308.05204426 0 3226.53886713 0 5509
0.07250000 0.07249820 29004.25108118 0 910.97942939 0 8158.55422576 0 506.54756048 0 5720.45708221 0 5916
0.07350000 0.07351270 28305.75704475 0 843.37028744 0 9593.86167695 0 396.89276447 0 5207.81596497 0 5721
0.07450000 0.07449140 27718.54545057 0 1089.77434398 0 8737.58262621 0 -1646.13709630 0 6849.68161399 0 6028
0.07550000 0.07549160 27137.62862079 0 736.26599508 0 10460.90927108 0 -1636.27904561 0 4861.76129157 0 6183
0.07650000 0.07648840 26754.21002435 0 578.10779116 0 10648.78550740 0 -810.17776989 0 4302.21293883 0 6330
0.07750000 0.07749960 26281.87788064 0 765.06566631 0 10937.85008160 0 344.49109889 0 3888.23101306 0 6583
0.07850000 0.07848650 25417.13461990 0 429.12645450 0 11012.20698619 0 274.07629051 0 1637.52675784 0 6549
0.07950000 0.07947320 24816.99627737 0 330.06484774 0 9906.35176727 0 979.59348551 0 3508.33074030 0 6828
0.08050000 0.08048110 24940.64343542 0 389.13334327 0 9711.46136490 0 1558.81972142 0 2149.95430271 0 7147
0.08150000 0.08149960 23869.63423377 0 540.60223593 0 7921.72495551 0 1573.07286655 0 2839.79303807 0 7386
0.08250000 0.08250610 24060.50048318 0 372.08914456 0 7073.20195378 0 903.80227390 0 2154.23699064 0 7227
0.08350000 0.08350160 22663.40000382 0 619.26543381 0 6885.12338575 0 199.63395698 0 1879.79650305 0 7798
0.08450000 0.08449610 22303.02474139 0 897.10846638 0 6741.90625478 0 -675.20003591 0 1338.89638987 0 7371
0.08550000 0.08548940 22066.18423049 0 264.77914829 0 7440.56890097 0 -416.97980732 0 802.34078820 0 8256
0.08650000 0.08650700 21951.52959303 0 263.91249412 0 6392.60303332 0 14.18986026 0 1090.70844205 0 8037
0.08750000 0.08749060 21434.90928543 0 77.97358396 0 7147.13171364 0 943.63576789 0 809.35607832 0 8155
0.08850000 0.08849210 21500.44227920 0 -95.48258357 0 6106.19125269 0 1331.98338967 0 1083.16371728 0 8718
0.08950000 0.08949900 21048.79293282 0 524.95187792 0 6184.17888746 0 471.31598889 0 -921.94580824 0 8571
0.09050000 0.09049190 20795.54107186 0 506.18561152 0 5571.39481286 0 819.03427860 0 1769.33462831 0 8932
0.09150000 0.09150830 20094.23687275 0 707.23364237 0 5613.37864334 0 -584.83981688 0 595.18009149 0 9285
0.09250000 0.09250820 20008.24589466 0 707.84513377 0 5623.02312167 0 -362.26369176 0 1888.37311955 0 9204
0.09350000 0.09350330 18943.86867694 0 447.33068836 0 5789.21614273 0 -31.52564145 0 866.66653608 0 9349
0.09450000 0.09448040 18999.39749155 0 609.65242931 0 5625.22628921 0 -30.25556032 0 464.75257293 0 9564
0.09550000 0.09549270 18187.71010227 0 262.02181667 0 5915.14515287 0 525.79155453 0 250.78678626 0 10155
0.09650000 0.09649430 18050.57416335 0 436.56888935 0 6704.10394637 0 943.75604285 0 776.63791624 0 9913
0.09750000 0.09749140 17706.27303146 0 200.29827944 0 6195.13852193 0 574.47593691 0 947.45084475 0 10476
0.09850000 0.09850240 17567.11377541 0 246.84806225 0 6151.08641171 0 271.01770945 0 1501.24510838 0 10575
0.09950000 0.09950330 17341.28910222 0 152.67613855 0 6062.06045792 0 100.84291268 0 2384.72653388 0 10882
0.10050000 0.10051200 17188.52865879 0 8.51886204 0 6149.90614338 0 278.66472414 0 1607.45801713 0 10875
0.10150000 0.10150300 17584.19956452 0 207.64516876 0 6822.28814816 0 -587.46788102 0 2066.18897347 0 11118
0.10250000 0.10250800 17434.02447075 0 249.84144754 0 6673.66426420 0 -569.80207433 0 1816.53412073 0 11575
0.10350000 0.10349800 17414.69055150 0 506.01025737 0 7754.83501410 0 -576.43855453 0 1992.64139573 0 11364
0.10450000 0.10450100 16591.20047894 0 375.10276302 0 7186.35034404 0 112.45709024 0 1753.15933191 0 12093
0.10550000 0.10551000 16676.29220498 0 139.50996435 0 7719.13470738 0 658.32219884 0 1526.17687170 0 12067
0.10650000 0.10649700 16528.36524136 0 68.51356471 0 7377.45264711 0 930.94619728 0 1402.76576732 0 12054
0.10750000 0.10749900 16201.03749207 0 53.98333754 0 6686.09642390 0 725.59074908 0 755.67410263 0 12807
0.10850000 0.10850100 16252.63207893 0 56.23866170 0 6599.46472872 0 358.24740725 0 1000.36508400 0 12736
0.10950000 0.10950300 15867.30257187 0 65.43227753 0 5389.52108404 0 336.54508289 0 284.12543227 0 12933
0.11050000 0.11050200 16154.83841757 0 0.82517167 0 5832.51512934 0 605.82948399 0 941.30782912 0 13428
0.11150000 0.11150900 15986.90309564 0 13.28768564 0 4495.47344685 0 627.28114185 0 83.13337986 0 13453
0.11250000 0.11250000 16251.50801385 0 95.79372478 0 5250.57540035 0 184.94130241 0 44.90313988 0 13668
0.11350000 0.11349100 15897.76473535 0 292.89089171 0 4040.76664348 0 142.10543061 0 -114.73444608 0 13791
0.11450000 0.11448600 15922.49416696 0 228.62247115 0 4827.73584180 0 3.88869188 0 636.81433773 0 14205
0.11550000 0.11549300 15415.76563200 0 216.66129471 0 3900.71937602 0 294.23864573 0 443.96523753 0 14776
0.11650000 0.11649800 15493.10130903 0 119.60951630 0 4616.45657066 0 164.61820589 0 601.15224922 0 14553
0.11750000 0.11747300 15312.91367781 0 158.74608995 0 4121.14853685 0 -7.48683542 0 -228.00535943 0 14568
0.11850000 0.11849100 15387.21437915 0 280.49132989 0 4598.95487747 0 -455.94439902 0 49.72875124 0 16015
0.11950000 0.11950300 15163.63783611 0 282.16955904 0 4607.53149398 0 -424.27049339 0 -692.10372648 0 15270
0.12050000 0.12050700 14849.01202215 0 198.00855889 0 4540.71706604 0 -14.76830415 0 -559.60568006 0 15999
0.12150000 0.12150000 14745.37322241 0 319.05575441 0 4802.29824920 0 -209.66511369 0 -979.31471738 0 15670
0.12250000 0.12250700 14482.56680832 0 315.41041138 0 4537.68209034 0 524.20887090 0 -1300.23979201 0 16887
0.12350000 0.12352200 14104.88094375 0 277.52379809 0 4285.29575948 0 347.93073801 0 -1334.09663201 0 16407
0.12450000 0.12449800 13896.81649872 0 286.13750875 0 4280.31615120 0 77.48270474 0 -871.73044923 0 16306
0.12550000 0.12549900 13746.19177893 0 291.93206420 0 3988.27280456 0 290.63826530 0 -1109.87375155 0 17523
0.12650000 0.12650100 13657.72785768 0 113.88690101 0 4596.41449041 0 188.76761992 0 -562.68224616 0 17154
0.12750000 0.12750600 13421.89900534 0 54.70644860 0 4080.78336008 0 -53.76257116 0 -491.28950117 0 18007
0.12850000 0.12850300 13536.10401677 0 -63.77956465 0 4521.37190613 0 239.22914918 0 -284.52335130 0 17496
0.12950000 0.12949900 13661.77449194 0 -127.14412448 0 4305.30411778 0 171.04223778 0 -471.68468223 0 18405
0.13050000 0.13049000 13583.98918888 0 -7.29444044 0 4137.99827230 0 197.40830814 0 -519.75532509 0 18100
0.13150000 0.13148800 13843.31100124 0 31.78001737 0 3852.71055675 0 568.04516063 0 176.15336167 0 19059
0.13250000 0.13249300 13419.65087519 0 192.98173988 0 3615.89252715 0 514.08666492 0 -303.36717819 0 18957
0.13350000 0.13349100 13362.66077599 0 355.01684423 0 3098.28304228 0 382.42941917 0 -127.83767263 0 19468
0.13450000 0.13450700 12693.61724448 0 421.30745785 0 2960.30405456 0 476.89472385 0 -230.66152520 0 19953
0.13550000 0.13551000 12585.93181048 0 239.11899081 0 2858.29514918 0 409.32267604 0 547.33875791 0 19956
0.13650000 0.13649900 12299.07040382 0 223.33936531 0 2993.74499049 0 334.91743666 0 356.89852916 0 19723
0.13750000 0.13749600 12152.94194432 0 46.34554018 0 2996.03808324 0 121.20793683 0 661.81804122 0 20946
0.13850000 0.13851100 12285.69402945 0 -29.79761621 0 3219.76075473 0 150.14586807 0 1111.68574445 0 20955
0.13950000 0.13949800 12222.18435282 0 -27.00004306 0 3181.73363331 0 -228.59099733 0 1025.39351692 0 20506
0.14050000 0.14048300 12416.31039095 0 95.78799205 0 3655.56078357 0 47.85021369 0 1596.30729161 0 21447
0.14150000 0.14148400 12173.84955468 0 204.11897662 0 3902.21438257 0 207.26073850 0 1368.87520537 0 21771
0.14250000 0.14249400 11973.54115865 0 355.83516361 0 3616.46580033 0 169.16954537 0 1520.02823575 0 22470
0.14350000 0.14350900 11834.83152863 0 298.05934291 0 3911.47667877 0 86.67789426 0 1728.37369705 0 22519
0.14450000 0.14449900 11558.08670763 0 349.44035740 0 3774.32949920 0 -31.62972987 0 1238.48365689 0 22218
0.14550000 0.14550500 11216.08990914 0 318.96695327 0 3965.57793074 0 -295.86629196 0 1554.42462699 0 23559
0.14650000 0.14650700 10978.67612505 0 210.81840446 0 4113.05526833 0 -300.63907226 0 1409.12797564 0 23044
0.14750000 0.14750500 10869.05729913 0 237.22044490 0 3733.95308177 0 74.13613821 0 1356.10582614 0 23649
0.14850000 0.14849900 10840.25875195 0 29.77288678 0 4186.24314524 0 254.15448522 0 1584.51584899 0 23640
0.14950000 0.14949500 10605.67761185 0 131.55945209 0 3500.39484088 0 289.04658916 0 964.13759076 0 24457
0.15050000 0.15050000 10667.48995022 0 126.41348219 0 3849.25967697 0 148.40469128 0 1066.15661273 0 24591
0.15150000 0.15149900 10536.52512855 0 179.54354193 0 3428.66824857 0 29.61844024 0 978.16704694 0 25020
0.15250000 0.15250500 10415.50828278 0 195.15905393 0 3737.11170463 0 -228.60673424 0 690.41088448 0 25297
0.15350000 0.15350100 10307.36198210 0 56.34859527 0 3588.03819463 0 -39.46064161 0 449.55184094 0 25452
0.15450000 0.15450400 10233.78068241 0 104.03649396 0 3670.53333035 0 33.10281715 0 55.63121694 0 26061
0.15550000 0.15549900 10222.39390322 0 76.36234908 0 3377.59073165 0 161.29097327 0 87.37279129 0 26128
0.15650000 0.15649500 10181.39925001 0 49.26046573 0 3525.82119284 0 276.64253108 0 123.02330193 0 26331
0.15750000 0.15749700 10037.28286698 0 137.03589713 0 3387.78600186 0 231.09766244 0 -95.35747513 0 27345
0.15850000 0.15849900 9996.94017151 0 86.16408411 0 2885.43008004 0 295.00300998 0 173.01384792 0 26980
0.15950000 0.15949700 9745.14959514 0 301.10893146 0 3388.07825878 0 35.24843256 0 116.81284240 0 27777
0.16050000 0.16050000 9615.98327759 0 235.52310664 0 2855.12528567 0 -27.37334507 0 237.38006214 0 28224
0.16150000 0.16150500 9278.50522069 0 294.37578167 0 3381.69356917 0 65.95418094 0 399.05434160 0 28075
0.16250000 0.16249700 9168.23443702 0 176.87388738 0 2726.59968521 0 186.94326231 0 464.34790950 0 28590
0.16350000 0.16349900 8992.31825308 0 85.34149329 0 2993.34032706 0 448.44351278 0 448.94596987 0 29163
0.16450000 0.16449100 8897.06497879 0 51.54175580 0 2365.43757723 0 373.79097908 0 -70.96054197 0 28996
0.16550000 0.16550500 8777.43073306 0 62.56883416 0 2251.72715443 0 388.82984570 0 114.02628508 0 30777
0.16650000 0.16650700 8738.63924738 0 156.34059069 0 2016.61770374 0 119.18574377 0 -91.89265695 0 29211
0.16750000 0.16749900 8559.22722107 0 76.46913526 0 1768.90748358 0 233.05353567 0 70.79170739 0 30922
0.16850000 0.16850800 8518.71591583 0 8.11116364 0 1601.65784136 0 126.71473163 0 -115.94169196 0 30867
0.16950000 0.16949900 8527.93324943 0 29.64575502 0 1447.15509706 0 242.93631579 0 33.31728877 0 30852
0.17050000 0.17049200 8446.69706660 0 34.81780323 0 1276.07239293 0 356.36459825 0 106.08566459 0 31257
0.17150000 0.17149500 8442.88648600 0 124.02709204 0 1020.75337630 0 329.39940122 0 434.14540505 0 32608
0.17250000 0.17250900 8390.52753489 0 76.72373600 0 1085.73220598 0 205.79158545 0 772.31476197 0 32361
0.17350000 0.17350400 8286.57399693 0 92.08082544 0 1253.37751911 0 137.11682981 0 761.49451158 0 32508
0.17450000 0.17449800 8198.55970171 0 26.80737830 0 1250.36502471 0 127.56902108 0 1016.40661666 0 32791
0.17550000 0.17549800 8160.57754289 0 37.05177016 0 1201.50191598 0 13.65862711 0 969.08235302 0 33633
0.17650000 0.17650100 8211.44148745 0 68.80514719 0 1559.70773283 0 -256.08562902 0 833.08509202 0 33984
0.17750000 0.17750300 8168.42351710 0 119.87479566 0 1578.16488133 0 -354.17491949 0 722.26576459 0 34069
0.17850000 0.17849800 8026.98240895 0 102.19190318 0 1851.13284368 0 -481.28757015 0 428.92974311 0 34536
