### header ###
fiducial parameters:
Omega_m = 0.31
Omega_nu = 0
Omega_de = 0.69
Omega_k = 0
H_0 = 100
w_de = -1
zeff = 0
beta = 0
fgrowth = 0
b_1 = 2
gamma = 0.55
Lx = 3500 Ly = 3500 Lz = 3500
nx = 700 ny = 700 nz = 700
xoffset = 857.220397 yoffset = 15.9954215 zoffset = 262.898189
bins = 400 dk = 0.001
kx_ny = 0.628318531 ky_ny = 0.628318531 kz_ny = 0.628318531
############################
A(data) = 3.02189517 (not used)
A(ran) = 3.01308152 (used)
Ngal = 183713
weighted Ngal = 0
Nran = 9360983
weighted Nran = 0
SN(data) = 3477.60186
SN(ran) = 67.6624872
SN(data+ran) = 3545.26435
############################
13 columns: k_central k_mean P_0(k) sigma^{lin}_{P_0(k)} P^img_1(k) sigma^{lin}_{P_1(k)} P_2(k) sigma^{lin}_{P_2(k)} P^img_3(k) sigma^{lin}_{P_3(k)} P_4(k) sigma^{lin}_{P_4(k)} N_modes
### header ###
0.00050000 0 0 0 0 0 0 0 0 0 0 0 0
0.00150000 0.00179520 23059.07090956 0 -14894.42425110 0 -6997.29383939 0 22133.29091535 0 -841.68418983 0 3
0.00250000 0.00253879 32910.26480369 0 -11141.00236226 0 12879.98723360 0 -26145.86600679 0 -7047.84304573 0 6
0.00350000 0.00331552 40237.82020221 0 402.31188218 0 847.16288299 0 14261.23839542 0 28416.92708048 0 7
0.00450000 0.00420575 43492.77543438 0 8506.64345695 0 18422.19007651 0 -14200.65128798 0 4899.05777069 0 24
0.00550000 0.00557378 43745.12804329 0 4171.19191391 0 24075.00092262 0 3293.65679264 0 9536.05101024 0 45
0.00650000 0.00659388 45035.66715372 0 -8993.91442548 0 27948.64157103 0 28072.73835510 0 -32166.13372530 0 40
0.00750000 0.00754703 57759.52174866 0 -15644.28806136 0 18547.29851915 0 11401.39203644 0 -50948.24943822 0 57
0.00850000 0.00846663 85173.22075140 0 -28721.66112180 0 12319.41598164 0 10235.34313286 0 -57102.28090042 0 75
0.00950000 0.00948925 96774.69637086 0 -16186.76186564 0 -573.85770112 0 -6045.35685094 0 -41936.39493417 0 112
0.01050000 0.01054430 105535.43473758 0 -18559.66323495 0 -22422.06323263 0 3913.55619915 0 -50064.95910378 0 105
0.01150000 0.01145670 114212.87988238 0 -13920.75908478 0 -28190.76518777 0 6145.44360504 0 -39199.52129419 0 144
0.01250000 0.01249090 112593.10211205 0 -6552.80478754 0 -41808.92595488 0 12730.71139189 0 -42415.24665531 0 169
0.01350000 0.01339930 106882.62672769 0 5965.45830554 0 -33594.82043321 0 9252.76413052 0 -11290.44681373 0 180
0.01450000 0.01448870 91424.37143592 0 11203.00579169 0 -48264.65648270 0 2780.63349328 0 -1105.30779922 0 267
0.01550000 0.01550050 78604.52168373 0 11468.16150179 0 -39399.60487720 0 -13786.54571505 0 913.59512881 0 238
0.01650000 0.01653350 72089.66533307 0 9142.87552897 0 -32865.86423330 0 -20221.59344553 0 35017.66200273 0 315
0.01750000 0.01747870 69526.57215338 0 4613.83749904 0 -21222.79820614 0 -18160.28291448 0 30771.84340862 0 297
0.01850000 0.01844180 66368.84855003 0 4546.76453613 0 -9854.10522267 0 -20581.18186242 0 53130.05974510 0 388
0.01950000 0.01947590 69327.83744846 0 5073.72624240 0 -172.45293945 0 -14409.72739158 0 38112.77518151 0 399
0.02050000 0.02045430 67789.21717640 0 4155.49996549 0 15076.18557342 0 -8959.73160661 0 49736.61969592 0 462
0.02150000 0.02154770 69175.18941153 0 364.26115539 0 14282.48322530 0 2284.77466758 0 50824.60228018 0 571
0.02250000 0.02255340 76088.63923712 0 -4569.34700345 0 45872.87082016 0 6438.58853546 0 65108.20957055 0 510
0.02350000 0.02348930 79608.76142004 0 -3710.59500955 0 35665.12348484 0 5119.35204372 0 53164.23132332 0 555
0.02450000 0.02439640 87365.03523744 0 -3679.46964768 0 47803.11536369 0 3924.40342711 0 67647.13535116 0 592
0.02550000 0.02547300 89639.01888032 0 3359.81926284 0 63310.26748613 0 278.51072723 0 70747.08200976 0 837
0.02650000 0.02652900 90696.31448808 0 5765.80186726 0 73987.64920899 0 -2392.69615525 0 64065.75162176 0 723
0.02750000 0.02749970 83388.09300881 0 7922.88274253 0 72137.21328566 0 2728.49935519 0 52746.64114867 0 826
0.02850000 0.02848090 78417.47725557 0 6862.42851192 0 68778.73166025 0 3482.25243060 0 28956.70312858 0 831
0.02950000 0.02946900 71706.92117568 0 5408.05691709 0 64575.85235193 0 11447.81592396 0 19074.14781891 0 996
0.03050000 0.03053250 66163.93148721 0 2113.20861547 0 52240.02502022 0 7868.55667755 0 -408.61788724 0 1041
0.03150000 0.03150510 62605.70349831 0 2778.45280704 0 39409.27183683 0 9732.22284680 0 -15371.36506162 0 1036
0.03250000 0.03246190 60006.97745582 0 930.73150085 0 29448.81881759 0 7949.15214329 0 -19260.96743406 0 1059
0.03350000 0.03345080 57296.40693854 0 1773.94329511 0 25860.12866521 0 2028.62271872 0 -28103.31292509 0 1302
0.03450000 0.03451200 56618.48329296 0 254.21068848 0 23436.75677412 0 3961.17159565 0 -12998.80091183 0 1339
0.03550000 0.03553350 54746.46532022 0 1205.86328847 0 24292.84473379 0 3308.47197030 0 -17614.66172800 0 1365
0.03650000 0.03647120 56210.56007793 0 778.72305695 0 20540.71551978 0 7112.40934353 0 -6174.43324328 0 1308
0.03750000 0.03744890 53600.03135217 0 3247.51392139 0 28163.11318698 0 5286.24198512 0 -976.95980105 0 1579
0.03850000 0.03847530 48827.92549083 0 3892.36757252 0 19679.68167379 0 5131.52566846 0 -272.25080883 0 1662
0.03950000 0.03950240 46007.75862893 0 3205.88979173 0 20717.86817530 0 6377.23706377 0 6769.79430925 0 1683
0.04050000 0.04050350 42781.01743009 0 1549.61362847 0 15299.87452297 0 2202.71791725 0 3078.70182871 0 1822
0.04150000 0.04152450 43285.61024141 0 1025.90721466 0 18796.61615236 0 5718.22019271 0 17278.00423861 0 1887
0.04250000 0.04250150 41113.46689415 0 1207.76295844 0 16206.99503696 0 -2271.64558753 0 9181.01505690 0 1920
0.04350000 0.04349210 41335.58215260 0 1381.59962200 0 21211.89477493 0 -52.02521618 0 14610.14819411 0 2005
0.04450000 0.04448520 39822.02853167 0 1122.76790200 0 22943.29220703 0 -103.57045658 0 14838.67062347 0 2151
0.04550000 0.04548030 40248.94844643 0 290.01890545 0 22590.22336757 0 782.19192177 0 14709.85276610 0 2274
0.04650000 0.04648670 41527.57246708 0 -1165.98145967 0 24972.67929000 0 -109.12907078 0 10777.72701194 0 2311
0.04750000 0.04749250 42018.78890403 0 -299.26771287 0 21659.72230005 0 932.77842335 0 9543.40239582 0 2568
0.04850000 0.04851840 42464.70551852 0 -341.94846369 0 21796.07139342 0 1124.87439995 0 6724.20222988 0 2493
0.04950000 0.04949480 41352.89275472 0 993.17106753 0 17625.78997222 0 -1151.79575845 0 13.82869816 0 2644
0.05050000 0.05050630 40625.95987195 0 947.73635728 0 17545.75653902 0 1022.69238855 0 72.64034481 0 2829
0.05150000 0.05149060 39820.23002755 0 901.23490927 0 15055.61518258 0 666.08386817 0 -6941.97859714 0 2784
0.05250000 0.05249300 39452.43593563 0 595.29474613 0 15818.06852167 0 408.81684676 0 -6462.78965648 0 3055
0.05350000 0.05348950 39204.35477400 0 790.63477453 0 13269.47578143 0 326.65893057 0 -10755.15578527 0 3009
0.05450000 0.05448610 37903.81148442 0 1881.38143480 0 14336.77556834 0 254.27363612 0 -6904.68211802 0 3336
0.05550000 0.05550870 36529.64193256 0 1508.05694272 0 14081.72520325 0 2962.11379933 0 -6636.89609565 0 3349
0.05650000 0.05647670 34832.30367218 0 1424.19044762 0 15751.74868235 0 1800.32510238 0 -5507.69404517 0 3324
0.05750000 0.05747970 34800.15541109 0 599.56619341 0 14638.81185348 0 3497.39358714 0 509.81746577 0 3639
0.05850000 0.05849280 34292.52762408 0 460.97571428 0 15062.80919905 0 3521.42609840 0 -439.99503969 0 3846
0.05950000 0.05951020 34643.01111387 0 -111.68800492 0 15291.44403492 0 126.94628903 0 4141.46039272 0 3787
0.06050000 0.06049470 34612.32413738 0 249.51434460 0 17233.71607473 0 38.31937834 0 4004.42561966 0 3930
0.06150000 0.06148310 35401.97985123 0 -407.08466248 0 17637.59265549 0 -1865.02628798 0 2662.60666060 0 4083
0.06250000 0.06249100 36144.87445804 0 52.71629139 0 18265.83262485 0 -2471.77413314 0 653.54492228 0 4303
0.06350000 0.06350600 35726.49743783 0 425.46087830 0 18619.12627732 0 -1328.40886274 0 -310.18126066 0 4470
0.06450000 0.06451750 36175.89865406 0 99.92016766 0 18474.34669591 0 -764.84085330 0 -3536.96067771 0 4479
0.06550000 0.06550280 35863.97059627 0 81.06622419 0 18559.77564146 0 1824.48126080 0 -3810.43446935 0 4636
0.06650000 0.06648880 36490.29965500 0 197.52408684 0 17547.55504314 0 2351.30807926 0 -3944.25441630 0 4653
0.06750000 0.06749660 34596.92444587 0 308.60532143 0 15048.42116611 0 3407.85056342 0 -2187.80157372 0 5220
0.06850000 0.06852730 35236.51747247 0 912.15407739 0 15970.15452606 0 3640.38590509 0 1597.51004124 0 5029
0.06950000 0.06949320 32884.63612002 0 1410.73538869 0 12374.15795070 0 4241.87312570 0 1064.39745089 0 5040
0.07050000 0.07048030 32590.91791642 0 1460.32913972 0 14593.39962452 0 3121.06784132 0 3167.41304428 0 5475
0.07150000 0.07148790 29646.87908347 0 1425.34823464 0 9330.34710186 0 922.61013070 0 -972.62540613 0 5509
0.07250000 0.07249820 29336.29990377 0 1777.25928708 0 12790.17443426 0 -385.93425407 0 1917.02553827 0 5916
0.07350000 0.07351270 27108.29052238 0 1342.57208266 0 9303.51566857 0 -1652.74659893 0 -2548.14311421 0 5721
0.07450000 0.07449140 26014.91242578 0 712.86071212 0 9885.39919431 0 -711.10941874 0 -2057.73600412 0 6028
0.07550000 0.07549160 25565.84842907 0 315.55541578 0 8095.28060279 0 -108.55523556 0 -3907.73354207 0 6183
0.07650000 0.07648840 25460.52353172 0 -314.53251656 0 7758.54442885 0 1773.32505932 0 -5233.08494781 0 6330
0.07750000 0.07749960 25606.98921075 0 -7.58810244 0 7239.63102850 0 1839.40884497 0 -4213.87266473 0 6583
0.07850000 0.07848650 25682.52638366 0 145.59003233 0 6774.15568173 0 1469.26545705 0 -3385.23437415 0 6549
0.07950000 0.07947320 25246.95116784 0 293.68335758 0 6059.48634890 0 1082.48478198 0 -1333.55708077 0 6828
0.08050000 0.08048110 25437.92982375 0 614.36900635 0 7463.72464147 0 307.73192287 0 -808.79966611 0 7147
0.08150000 0.08149960 24555.65114788 0 486.78986869 0 7617.55294673 0 -713.09226953 0 -1048.85163093 0 7386
0.08250000 0.08250610 24562.73275784 0 132.56549033 0 8608.04536719 0 -3.87077428 0 -42.52844001 0 7227
0.08350000 0.08350160 24519.11903300 0 93.94677346 0 9269.45649685 0 -559.09310638 0 -26.85368978 0 7798
0.08450000 0.08449610 24189.20593405 0 491.13213206 0 8704.15293094 0 296.81500288 0 -675.98800553 0 7371
0.08550000 0.08548940 24113.78116764 0 582.91316935 0 9984.28319879 0 268.64930434 0 -937.77938886 0 8256
0.08650000 0.08650700 23282.08542006 0 964.41635890 0 9125.76725856 0 413.83579731 0 327.52446067 0 8037
0.08750000 0.08749060 22549.41980541 0 862.34562993 0 8793.05523757 0 801.34823874 0 17.46010278 0 8155
0.08850000 0.08849210 21699.06457761 0 838.44800648 0 9256.18128834 0 530.46654117 0 1049.51820152 0 8718
0.08950000 0.08949900 21471.44140031 0 614.34764912 0 8488.81578489 0 1483.84458105 0 626.84275647 0 8571
0.09050000 0.09049190 20272.28878033 0 583.76745880 0 7041.51455937 0 221.08561484 0 -699.26289693 0 8932
0.09150000 0.09150830 20213.83739653 0 658.32557104 0 7426.28203389 0 240.18123230 0 27.52633032 0 9285
0.09250000 0.09250820 18931.05433511 0 777.66418765 0 7042.34636752 0 -271.61571207 0 -2205.52807993 0 9204
0.09350000 0.09350330 18725.80005276 0 654.62402475 0 7424.47228912 0 -473.95192149 0 -630.75337886 0 9349
0.09450000 0.09448040 17803.95428631 0 446.24933776 0 6878.61504897 0 -15.28492446 0 -3164.14201492 0 9564
0.09550000 0.09549270 18033.15115471 0 230.50640422 0 7923.11879620 0 69.72710536 0 -422.80696066 0 10155
0.09650000 0.09649430 17676.59771353 0 -160.44230414 0 6918.58680297 0 645.39545050 0 -1796.41335592 0 9913
0.09750000 0.09749140 18237.50618500 0 -194.71280009 0 7632.90767563 0 843.75471769 0 -16.82669211 0 10476
0.09850000 0.09850240 18083.28445697 0 -218.84422908 0 6682.51065632 0 1407.48684063 0 -1.39695435 0 10575
0.09950000 0.09950330 18324.62122817 0 91.96077529 0 6746.33507117 0 824.35672672 0 267.48926919 0 10882
0.10050000 0.10051200 18089.35440837 0 74.85924927 0 6036.26316449 0 501.86020912 0 -7.35526360 0 10875
0.10150000 0.10150300 18026.18195126 0 576.00691354 0 6136.86698854 0 20.89187345 0 -210.58572299 0 11118
0.10250000 0.10250800 17611.62675230 0 161.13360416 0 6171.69052450 0 -386.26472920 0 648.86206719 0 11575
0.10350000 0.10349800 17351.06846836 0 284.10632316 0 6399.99938150 0 -593.09045452 0 -47.34876826 0 11364
0.10450000 0.10450100 17341.06428921 0 117.15455818 0 6729.68766744 0 320.88798048 0 627.49021795 0 12093
0.10550000 0.10551000 17098.49104643 0 380.43307960 0 6471.02905347 0 89.25706157 0 -774.72363342 0 12067
0.10650000 0.10649700 16905.03944735 0 580.36041757 0 6603.97222966 0 44.30761021 0 239.85862562 0 12054
0.10750000 0.10749900 16204.85931332 0 449.70808599 0 6535.98877404 0 261.73855227 0 -216.92320187 0 12807
0.10850000 0.10850100 16139.77594559 0 341.61461637 0 6297.00129885 0 605.31915845 0 -238.63002250 0 12736
0.10950000 0.10950300 15545.59514795 0 170.99952331 0 5425.46868507 0 778.06660295 0 -374.58456902 0 12933
0.11050000 0.11050200 15312.80127131 0 187.96840965 0 4623.22344240 0 917.91041463 0 -749.01851333 0 13428
0.11150000 0.11150900 14919.15368271 0 381.28174873 0 4420.79056339 0 834.00794944 0 -436.66555895 0 13453
0.11250000 0.11250000 14529.88994789 0 369.99838353 0 4024.29909015 0 363.90257863 0 -509.54319390 0 13668
0.11350000 0.11349100 14271.69220060 0 531.12299517 0 4163.69439987 0 190.53914648 0 293.67773726 0 13791
0.11450000 0.11448600 13842.52415569 0 422.63160651 0 4728.69446821 0 -369.97477816 0 732.71956977 0 14205
0.11550000 0.11549300 13648.06089805 0 231.52368311 0 5301.58547337 0 -490.19016553 0 1623.88060785 0 14776
0.11650000 0.11649800 13875.57166884 0 -57.34148195 0 6020.15531200 0 -205.68817147 0 2286.39332129 0 14553
0.11750000 0.11747300 14139.50214801 0 -330.97084419 0 6626.35236527 0 -21.29732372 0 2251.15388124 0 14568
0.11850000 0.11849100 14558.77842027 0 -306.88325374 0 6069.53549066 0 307.41381245 0 2493.33370124 0 16015
0.11950000 0.11950300 14669.83604949 0 -70.53530815 0 6130.97688755 0 240.23518742 0 1422.20085244 0 15270
0.12050000 0.12050700 14488.29954019 0 306.21893128 0 5586.90691087 0 367.97057013 0 1592.94633704 0 15999
0.12150000 0.12150000 14243.59057378 0 314.21665427 0 5217.53912785 0 585.91442309 0 827.28041998 0 15670
0.12250000 0.12250700 13794.52657707 0 245.37441294 0 4608.81292817 0 671.61539240 0 1167.48770687 0 16887
0.12350000 0.12352200 13598.15240880 0 194.08444772 0 4155.47748418 0 594.93729343 0 485.30273059 0 16407
0.12450000 0.12449800 13425.49601357 0 25.13926573 0 4112.94286182 0 541.25419367 0 396.91299764 0 16306
0.12550000 0.12549900 13405.03802924 0 119.09132230 0 4082.40201378 0 10.31066673 0 146.31168211 0 17523
0.12650000 0.12650100 13488.55606417 0 34.26330193 0 4157.79305824 0 -134.36062225 0 1061.70194284 0 17154
0.12750000 0.12750600 13233.95532512 0 130.03184766 0 3890.05199847 0 75.85292279 0 1129.21329113 0 18007
0.12850000 0.12850300 13312.86469325 0 186.51274538 0 3616.43207838 0 115.41450545 0 1305.24188158 0 17496
0.12950000 0.12949900 13050.17068567 0 142.92037778 0 3651.28933630 0 545.14570696 0 1298.40756594 0 18405
0.13050000 0.13049000 12876.16541235 0 240.92873557 0 3116.44793387 0 635.24064663 0 819.82449635 0 18100
0.13150000 0.13148800 12531.41465443 0 132.75096107 0 2881.01250431 0 418.50179143 0 1019.85524830 0 19059
0.13250000 0.13249300 12487.80092959 0 71.73536002 0 2295.23971341 0 176.78845844 0 151.20361331 0 18957
0.13350000 0.13349100 12316.83063198 0 177.11331324 0 2785.15223487 0 -1.76620973 0 303.35706160 0 19468
0.13450000 0.13450700 12301.65575349 0 196.83166276 0 2564.14980085 0 -312.90936659 0 225.09065869 0 19953
0.13550000 0.13551000 12064.25321005 0 151.46327234 0 2579.74058341 0 -271.59098264 0 22.72780893 0 19956
0.13650000 0.13649900 12012.77102970 0 210.01582200 0 2761.29957402 0 -207.82501917 0 202.70939902 0 19723
0.13750000 0.13749600 11996.58449265 0 183.71269929 0 2970.00473614 0 -89.73681254 0 -379.95085568 0 20946
0.13850000 0.13851100 11841.91313859 0 175.11472554 0 2980.40233807 0 -5.17391416 0 25.26291289 0 20955
0.13950000 0.13949800 11794.25277949 0 208.43313837 0 3063.63935673 0 -121.16747049 0 12.99970016 0 20506
0.14050000 0.14048300 11484.68525836 0 273.61205164 0 3392.21481825 0 -148.53733095 0 9.14312282 0 21447
0.14150000 0.14148400 11347.43691294 0 220.87766280 0 3324.77091386 0 250.12358787 0 106.61217667 0 21771
0.14250000 0.14249400 11152.87248943 0 218.92740990 0 3192.09751329 0 342.89155429 0 300.96617519 0 22470
0.14350000 0.14350900 11080.02183205 0 77.54756330 0 3309.89953295 0 512.51522195 0 380.76580286 0 22519
0.14450000 0.14449900 10923.74306493 0 139.81121379 0 3162.59080512 0 457.68107955 0 652.92331430 0 22218
0.14550000 0.14550500 10824.60052548 0 161.14259668 0 2771.46112228 0 342.21823931 0 808.67264676 0 23559
0.14650000 0.14650700 10657.67686213 0 288.56661337 0 3234.53096979 0 -84.57162112 0 1213.39452446 0 23044
0.14750000 0.14750500 10622.07772126 0 196.95868211 0 3210.97056586 0 -152.58621335 0 2098.20234675 0 23649
0.14850000 0.14849900 10356.85456727 0 161.43260547 0 3370.17190217 0 255.36173111 0 1875.24403950 0 23640
0.14950000 0.14949500 10485.17783601 0 67.66984147 0 3518.69462027 0 -125.62326444 0 2293.65478166 0 24457
0.15050000 0.15050000 10352.31334437 0 89.82977272 0 3460.56921534 0 272.92075162 0 1975.01605539 0 24591
0.15150000 0.15149900 10387.66519092 0 74.53416965 0 3646.21980282 0 167.11812661 0 2220.46690475 0 25020
0.15250000 0.15250500 10232.18451001 0 29.36833576 0 3329.93037255 0 48.83736764 0 1746.16764716 0 25297
0.15350000 0.15350100 10269.39106393 0 54.18162262 0 3458.69202667 0 346.48181813 0 1845.28770530 0 25452
0.15450000 0.15450400 10121.48658161 0 112.04557001 0 3201.59586315 0 6.35151845 0 1291.05618036 0 26061
0.15550000 0.15549900 10004.67373921 0 197.75564425 0 3173.15701680 0 53.00427686 0 819.49064902 0 26128
0.15650000 0.15649500 9781.76039457 0 270.66924928 0 3300.94073431 0 -274.07291832 0 892.74821797 0 26331
0.15750000 0.15749700 9706.87517940 0 202.45873251 0 3196.94223375 0 -149.91206254 0 563.33307984 0 27345
0.15850000 0.15849900 9532.79122153 0 109.99032944 0 3378.38881785 0 -100.22141710 0 804.66760290 0 26980
0.15950000 0.15949700 9422.82393543 0 92.72502713 0 3359.06613924 0 -30.86525322 0 245.63856823 0 27777
0.16050000 0.16050000 9447.82314265 0 -16.16484260 0 3402.07286894 0 170.72525143 0 475.38060819 0 28224
0.16150000 0.16150500 9387.61821734 0 -7.58151542 0 2978.44646484 0 246.18486385 0 70.15256399 0 28075
0.16250000 0.16249700 9538.90613552 0 -106.23437840 0 2801.32753127 0 219.86825236 0 -84.54891501 0 28590
0.16350000 0.16349900 9413.77521159 0 -97.47105468 0 2463.25371989 0 353.54993931 0 -428.04622797 0 29163
0.16450000 0.16449100 9646.04077764 0 26.12394674 0 2430.90312708 0 239.54276334 0 -380.49602724 0 28996
0.16550000 0.16550500 9477.17248171 0 150.05257067 0 1998.98112275 0 92.54113009 0 -594.21564366 0 30777
0.16650000 0.16650700 9335.33795079 0 311.25811500 0 2158.35106881 0 -124.09678407 0 -455.68024372 0 29211
0.16750000 0.16749900 9075.60023435 0 316.95487679 0 2089.83930260 0 -53.21132965 0 -240.83206598 0 30922
0.16850000 0.16850800 8769.50607429 0 351.71546511 0 2169.11961221 0 13.01925890 0 -205.33071877 0 30867
0.16950000 0.16949900 8590.31886099 0 213.60383771 0 2277.83918608 0 199.71938593 0 -6.99869892 0 30852
0.17050000 0.17049200 8417.89851942 0 88.00148088 0 2227.00896347 0 299.39360815 0 -27.81420339 0 31257
0.17150000 0.17149500 8393.85476751 0 34.64447240 0 1950.72500916 0 389.54250295 0 -12.34909130 0 32608
0.17250000 0.17250900 8239.75668664 0 -14.79471968 0 1739.56938518 0 418.12185744 0 -59.93256435 0 32361
0.17350000 0.17350400 8225.59346672 0 53.55596800 0 1522.13023744 0 161.31570271 0 -287.34025838 0 32508
0.17450000 0.17449800 8215.30827130 0 39.56405560 0 1481.60769155 0 102.86038468 0 -32.88486093 0 32791
0.17550000 0.17549800 8114.61452205 0 116.94885427 0 1155.97728052 0 -80.86861355 0 -352.42924643 0 33633
0.17650000 0.17650100 8126.83310940 0 155.72460303 0 1583.42550587 0 -98.23305840 0 333.57755109 0 33984
0.17750000 0.17750300 7936.01182259 0 188.15388039 0 1275.34175064 0 -38.51080662 0 -221.81400900 0 34069
0.17850000 0.17849800 7873.94094925 0 179.94146097 0 1783.47536693 0 -47.34393478 0 404.26550728 0 34536
