### header ###
fiducial parameters:
Omega_m = 0.31
Omega_nu = 0
Omega_de = 0.69
Omega_k = 0
H_0 = 100
w_de = -1
zeff = 0
beta = 0
fgrowth = 0
b_1 = 2
gamma = 0.55
Lx = 3500 Ly = 3500 Lz = 3500
nx = 700 ny = 700 nz = 700
xoffset = 857.220397 yoffset = 15.9954215 zoffset = 262.898189
bins = 400 dk = 0.001
kx_ny = 0.628318531 ky_ny = 0.628318531 kz_ny = 0.628318531
############################
A(data) = 3.04436769 (not used)
A(ran) = 3.04159961 (used)
Ngal = 185351
weighted Ngal = 0
Nran = 9360983
weighted Nran = 0
SN(data) = 3452.84887
SN(ran) = 68.3028964
SN(data+ran) = 3521.15177
############################
13 columns: k_central k_mean P_0(k) sigma^{lin}_{P_0(k)} P^img_1(k) sigma^{lin}_{P_1(k)} P_2(k) sigma^{lin}_{P_2(k)} P^img_3(k) sigma^{lin}_{P_3(k)} P_4(k) sigma^{lin}_{P_4(k)} N_modes
### header ###
0.00050000 0 0 0 0 0 0 0 0 0 0 0 0
0.00150000 0.00179520 16588.50272277 0 -27369.97287140 0 -33722.40181900 0 51898.19683149 0 16039.84656059 0 3
0.00250000 0.00253879 27944.25771724 0 -26421.93638875 0 -14181.76699475 0 -35867.23038498 0 -19722.73336609 0 6
0.00350000 0.00331552 45880.51446266 0 -27412.79975068 0 -51483.52922603 0 27777.67127341 0 18932.85283922 0 7
0.00450000 0.00420575 58150.80880061 0 -25082.38804113 0 -51023.56179811 0 -3397.92506882 0 5566.90979322 0 24
0.00550000 0.00557378 72097.08416255 0 -12568.62120835 0 -73513.74337417 0 -1767.56984615 0 20063.32508324 0 45
0.00650000 0.00659388 66587.70401977 0 -6913.24749388 0 -48625.03174514 0 -7419.49268085 0 9446.64287432 0 40
0.00750000 0.00754703 66971.34742922 0 1403.82238849 0 -65530.97044455 0 -10017.73537536 0 29031.90308197 0 57
0.00850000 0.00846663 63404.23932624 0 -2423.51801955 0 -43151.17205867 0 -19720.59764245 0 34214.51750801 0 75
0.00950000 0.00948925 67088.02538380 0 -2260.59602786 0 -42152.10302169 0 -14866.65984379 0 45391.54615586 0 112
0.01050000 0.01054430 69833.10469882 0 -8525.97737620 0 804.96997641 0 -18183.21384197 0 41581.07796456 0 105
0.01150000 0.01145670 85080.82260239 0 -9024.50023612 0 -2500.24670144 0 -6687.76004021 0 41951.56981265 0 144
0.01250000 0.01249090 93157.79218515 0 -2660.22364265 0 25535.72348511 0 -10104.97406569 0 12901.11965697 0 169
0.01350000 0.01339930 97582.78675191 0 482.47683100 0 32724.79406663 0 -17994.82053572 0 42199.98819381 0 180
0.01450000 0.01448870 94172.82294616 0 16879.63557670 0 46760.99463442 0 -5027.66205570 0 10006.42728073 0 267
0.01550000 0.01550050 82336.19291341 0 12226.23098708 0 42305.53790417 0 11056.95601675 0 -13878.38183153 0 238
0.01650000 0.01653350 72598.30477864 0 11241.54998305 0 50258.18588984 0 13326.80310016 0 12799.61658087 0 315
0.01750000 0.01747870 72045.60198220 0 3271.00688142 0 51139.90253318 0 10962.12988718 0 29388.11930364 0 297
0.01850000 0.01844180 68028.30581745 0 -1795.08695914 0 47257.71899022 0 23963.49366737 0 16930.78053753 0 388
0.01950000 0.01947590 72087.52960943 0 707.34829700 0 40946.09360477 0 16834.22334775 0 18189.73341940 0 399
0.02050000 0.02045430 73832.52822891 0 1573.28643891 0 47218.93874520 0 22424.76098881 0 40899.66971725 0 462
0.02150000 0.02154770 74740.09836893 0 1772.98783980 0 45687.84970913 0 21487.74034387 0 44726.88647814 0 571
0.02250000 0.02255340 73735.97103913 0 760.66495155 0 38962.79318979 0 13785.64646299 0 38559.59104807 0 510
0.02350000 0.02348930 73995.06803848 0 2123.26899788 0 39178.95090335 0 13249.69223614 0 37496.67511495 0 555
0.02450000 0.02439640 72869.99130681 0 2584.06823394 0 48640.09421712 0 10097.53275490 0 38046.45534220 0 592
0.02550000 0.02547300 68391.26642955 0 5163.26926612 0 44915.05497137 0 1437.76915370 0 37354.14366368 0 837
0.02650000 0.02652900 65892.80699158 0 2898.19945927 0 41602.32279444 0 6767.01786852 0 24895.90564551 0 723
0.02750000 0.02749970 64547.07628606 0 1079.65551019 0 41974.72555316 0 856.20486244 0 22590.22336757 0 826
0.02850000 0.02848090 66517.89957873 0 -2400.40724165 0 39816.74542582 0 6198.20721958 0 9591.88332242 0 831
0.02950000 0.02946900 65988.57733581 0 -2364.69569428 0 36544.70440454 0 5562.13251666 0 9085.58193219 0 996
0.03050000 0.03053250 70621.97356712 0 -1515.45329090 0 32624.07783608 0 4085.30210167 0 3553.40574973 0 1041
0.03150000 0.03150510 68349.78842836 0 2628.14282546 0 32898.23730741 0 2116.92927087 0 -127.38804660 0 1036
0.03250000 0.03246190 67647.02294466 0 3730.23242638 0 24649.51058148 0 4035.15755876 0 3006.55933232 0 1059
0.03350000 0.03345080 58507.24983529 0 5361.37449461 0 25436.91816519 0 7035.63569903 0 -367.03309986 0 1302
0.03450000 0.03451200 55219.13468346 0 4778.98513958 0 12313.12121723 0 7858.03542847 0 440.25469873 0 1339
0.03550000 0.03553350 48334.01129771 0 3890.94000988 0 15221.63959388 0 8889.55622410 0 -154.54770690 0 1365
0.03650000 0.03647120 45697.29185574 0 2278.12020235 0 6092.37649294 0 6960.55939280 0 162.39705331 0 1308
0.03750000 0.03744890 44201.94808900 0 1692.87572204 0 6751.23599489 0 1877.68326071 0 -2708.25494322 0 1579
0.03850000 0.03847530 43429.60297727 0 -15.60078674 0 8153.24863861 0 -3590.38749064 0 -2594.60072368 0 1662
0.03950000 0.03950240 42487.86125903 0 -180.36972976 0 10858.28875573 0 -3235.23913079 0 -5187.72892211 0 1683
0.04050000 0.04050350 44232.07303296 0 -468.44625076 0 14305.18933978 0 -3136.28768241 0 -86.86561313 0 1822
0.04150000 0.04152450 45346.02152040 0 -130.99854362 0 16309.50977162 0 -2257.47112696 0 4714.76730196 0 1887
0.04250000 0.04250150 45750.57254021 0 296.81949914 0 17783.94592801 0 3125.17067883 0 1715.55935521 0 1920
0.04350000 0.04349210 45250.58839569 0 1216.84540423 0 13043.20148221 0 4077.36620226 0 2230.70713757 0 2005
0.04450000 0.04448520 43553.69976134 0 951.15801136 0 14475.03557233 0 4140.40377155 0 163.94713904 0 2151
0.04550000 0.04548030 42335.55044162 0 2372.58663109 0 11444.10650922 0 -407.42975046 0 -1028.11150626 0 2274
0.04650000 0.04648670 40093.04062079 0 2681.26614082 0 11715.90544390 0 -1308.58035485 0 -2885.00293531 0 2311
0.04750000 0.04749250 36831.67821770 0 2648.43220003 0 9895.89796209 0 -3388.48292221 0 -5023.40184908 0 2568
0.04850000 0.04851840 35900.50271115 0 1362.56920031 0 14658.25817924 0 -1447.91946131 0 -3248.14339783 0 2493
0.04950000 0.04949480 35225.16441523 0 -408.29865276 0 11541.67535757 0 1141.78033865 0 -3722.81359690 0 2644
0.05050000 0.05050630 35954.34542815 0 -1180.86408124 0 13765.52569819 0 3148.18029088 0 -3111.55825080 0 2829
0.05150000 0.05149060 36993.76840124 0 -766.69780880 0 12789.83721474 0 2844.28929837 0 -488.91772387 0 2784
0.05250000 0.05249300 36859.21781199 0 753.01119247 0 13549.81761066 0 1899.00677514 0 635.09451817 0 3055
0.05350000 0.05348950 36582.92261703 0 1569.00375098 0 14733.34572612 0 402.01625307 0 2250.61433001 0 3009
0.05450000 0.05448610 35996.61027490 0 1579.04165209 0 15213.43391885 0 -419.06269990 0 3059.57024117 0 3336
0.05550000 0.05550870 34381.21635835 0 951.66833690 0 17383.21672945 0 -132.03942788 0 3317.95907952 0 3349
0.05650000 0.05647670 34927.73679689 0 382.97346667 0 16848.16175465 0 -644.37142722 0 5264.69365767 0 3324
0.05750000 0.05747970 34402.23637521 0 -276.60094067 0 17629.04976094 0 835.51419664 0 2407.96095894 0 3639
0.05850000 0.05849280 36189.05021541 0 -432.20077248 0 16646.16726102 0 1339.33477525 0 5632.90365366 0 3846
0.05950000 0.05951020 36143.41317344 0 -665.75564117 0 17746.96418710 0 2935.84439857 0 4517.85358245 0 3787
0.06050000 0.06049470 37235.77961148 0 -719.78944923 0 15730.05422644 0 3442.55045222 0 6052.24736983 0 3930
0.06150000 0.06148310 36641.59881384 0 151.53746063 0 14131.07165996 0 2652.69240666 0 3389.37093361 0 4083
0.06250000 0.06249100 36773.11442739 0 549.32835309 0 11439.49784242 0 2233.65218806 0 2721.01308180 0 4303
0.06350000 0.06350600 35037.67036104 0 899.16887766 0 11897.32954670 0 915.15308300 0 2935.79943597 0 4470
0.06450000 0.06451750 34031.63212061 0 1728.42990030 0 9014.54101957 0 -642.95285710 0 746.85806026 0 4479
0.06550000 0.06550280 32726.81738376 0 1697.31577908 0 9025.60181989 0 -1255.00741346 0 -887.70116579 0 4636
0.06650000 0.06648880 31029.47912338 0 1808.51953676 0 8638.70986238 0 -1676.88027605 0 -3274.32287338 0 4653
0.06750000 0.06749660 28894.20511052 0 1626.37603231 0 9289.18383889 0 -612.08265799 0 -3320.45450398 0 5220
0.06850000 0.06852730 28207.17653784 0 1255.76053706 0 9225.14585167 0 232.05761402 0 -3355.16563344 0 5029
0.06950000 0.06949320 27307.81207286 0 32.38532641 0 8539.06149365 0 2453.14837488 0 -3218.22078558 0 5040
0.07050000 0.07048030 26632.47377694 0 330.82696386 0 7705.44359479 0 1686.32242266 0 -3154.60994310 0 5475
0.07150000 0.07148790 27203.38642756 0 -367.25116849 0 6746.78469720 0 1612.46010671 0 -2477.15840484 0 5509
0.07250000 0.07249820 27704.71945017 0 -523.88514016 0 7481.42866638 0 135.16545284 0 -2166.09587716 0 5916
0.07350000 0.07351270 27966.40179918 0 -24.88826200 0 7762.18639968 0 -555.33086058 0 -2461.33156861 0 5721
0.07450000 0.07449140 28559.57093826 0 -130.81419695 0 8657.98757839 0 -1319.61867387 0 -991.81656912 0 6028
0.07550000 0.07549160 28883.63889883 0 241.32665461 0 9984.89019393 0 -2199.97519847 0 -516.92492923 0 6183
0.07650000 0.07648840 28766.51131822 0 432.19627622 0 11294.15622847 0 -1147.67043963 0 -92.91330803 0 6330
0.07750000 0.07749960 28541.92311661 0 458.08349485 0 11991.86341934 0 -164.51479190 0 1100.61145535 0 6583
0.07850000 0.07848650 28157.83008113 0 732.33626358 0 13275.77054584 0 1582.52625381 0 1736.70301924 0 6549
0.07950000 0.07947320 27766.09340316 0 511.59910891 0 12180.93116464 0 1680.39859973 0 2800.42827921 0 6828
0.08050000 0.08048110 27013.75664973 0 644.00610607 0 11716.57988294 0 2524.95365175 0 972.89068548 0 7147
0.08150000 0.08149960 25974.55848965 0 417.22822570 0 9529.86865234 0 2471.87529900 0 1159.75413917 0 7386
0.08250000 0.08250610 25590.01582815 0 449.35175736 0 8647.16283173 0 1756.05941980 0 -149.69624204 0 7227
0.08350000 0.08350160 24718.97780300 0 795.98869647 0 7569.03829817 0 733.94704883 0 -1013.20190713 0 7798
0.08450000 0.08449610 23716.19935129 0 990.79366990 0 7530.62899462 0 -1500.19972786 0 -421.19167915 0 7371
0.08550000 0.08548940 23275.45343613 0 884.16373300 0 8005.62517256 0 -608.56883058 0 -809.17173165 0 8256
0.08650000 0.08650700 22430.60612719 0 467.93480115 0 8289.76634174 0 -872.66117511 0 -683.94301405 0 8037
0.08750000 0.08749060 22472.08412838 0 331.97688243 0 8612.33929577 0 75.74838474 0 -919.03672783 0 8155
0.08850000 0.08849210 22061.68797019 0 315.93759790 0 9902.75475904 0 -141.12187367 0 -620.05677562 0 8718
0.08950000 0.08949900 22143.18268799 0 646.10023930 0 9384.57200099 0 202.36880731 0 -541.18225351 0 8571
0.09050000 0.09049190 20862.53535021 0 523.76261707 0 9495.68583346 0 893.23156595 0 -477.37245150 0 8932
0.09150000 0.09150830 20879.50873282 0 417.85995027 0 8342.82221319 0 138.22178578 0 -1002.79306456 0 9285
0.09250000 0.09250820 20470.12423319 0 122.99744843 0 8922.12038926 0 832.02847085 0 -1542.63318437 0 9204
0.09350000 0.09350330 20473.04680238 0 150.10764986 0 8242.31955501 0 118.42587578 0 -1865.75693028 0 9349
0.09450000 0.09448040 19952.49226703 0 209.56169971 0 7853.19070800 0 835.67268981 0 -2283.44827080 0 9564
0.09550000 0.09549270 20117.39261325 0 230.69299902 0 7517.78093084 0 412.69037500 0 -1658.67042187 0 10155
0.09650000 0.09649430 19469.36909861 0 284.32776398 0 6593.95680986 0 1316.96588029 0 -1993.04605916 0 9913
0.09750000 0.09749140 19238.14891308 0 455.51500616 0 7021.32635065 0 334.85673715 0 -1848.32268100 0 10476
0.09850000 0.09850240 18640.14629419 0 623.34354190 0 5300.32652049 0 424.44135128 0 -1584.77438396 0 10575
0.09950000 0.09950330 18314.16742299 0 548.47631177 0 6200.26425866 0 -87.49621363 0 -1580.35680822 0 10882
0.10050000 0.10051200 17819.57879083 0 359.89528665 0 6211.08900531 0 -1016.95740854 0 -1544.72394540 0 10875
0.10150000 0.10150300 17733.36299972 0 95.77270476 0 7101.06752694 0 -542.43221387 0 -2128.68699153 0 11118
0.10250000 0.10250800 18033.37596773 0 -22.26064749 0 7782.90291898 0 -1245.50906360 0 -1237.28090726 0 11575
0.10350000 0.10349800 18164.66676827 0 -163.24122618 0 7966.44026412 0 130.89737776 0 -1774.55029025 0 11364
0.10450000 0.10450100 18588.32689432 0 -37.77780379 0 9035.65096165 0 405.33561723 0 -411.91139791 0 12093
0.10550000 0.10551000 18573.48923535 0 331.99149527 0 8101.48544200 0 996.24313738 0 -524.82935483 0 12067
0.10650000 0.10649700 17970.54073014 0 647.03883364 0 8024.49822514 0 1805.91170579 0 851.18253969 0 12054
0.10750000 0.10749900 17212.13402532 0 839.87669319 0 7278.82717760 0 1405.65461456 0 700.61065096 0 12807
0.10850000 0.10850100 16305.80035688 0 806.89325175 0 6049.95427708 0 1445.21046448 0 1483.08021680 0 12736
0.10950000 0.10950300 15502.76826866 0 519.15619840 0 5581.96102455 0 873.39069334 0 861.12826746 0 12933
0.11050000 0.11050200 15047.52191406 0 226.44290898 0 5073.64755784 0 584.94772713 0 1090.55107294 0 13428
0.11150000 0.11150900 15056.73924766 0 -21.52550893 0 4624.01028795 0 -106.02721321 0 809.73488825 0 13453
0.11250000 0.11250000 15047.63432056 0 -32.35284093 0 5003.61830379 0 -151.10357152 0 768.04443876 0 13668
0.11350000 0.11349100 15382.83052536 0 27.05849444 0 5042.74700899 0 -192.42420360 0 1502.05443523 0 13791
0.11450000 0.11448600 15413.29268884 0 -51.26332488 0 5091.04808518 0 524.20774684 0 1674.69958981 0 14205
0.11550000 0.11549300 15344.49990637 0 49.88499629 0 5589.41357599 0 430.26962868 0 2503.78750642 0 14776
0.11650000 0.11649800 15206.46471539 0 149.10161162 0 5156.64852284 0 608.45867220 0 1762.32046226 0 14553
0.11750000 0.11747300 15314.93699495 0 4.63500364 0 6039.61287841 0 917.56083039 0 3134.81515716 0 14568
0.11850000 0.11849100 15078.54611007 0 277.15510475 0 5117.48609570 0 -66.51902364 0 2574.06405479 0 16015
0.11950000 0.11950300 15020.43194579 0 249.78187209 0 5908.44572503 0 116.87129378 0 3056.67015328 0 15270
0.12050000 0.12050700 14563.27468056 0 332.62321985 0 5978.73351405 0 51.06874921 0 3252.87571179 0 15999
0.12150000 0.12150000 14457.50015719 0 461.39386649 0 5586.55845070 0 105.03286524 0 2863.80306804 0 15670
0.12250000 0.12250700 13965.72168771 0 379.61925649 0 5873.70087362 0 322.71121403 0 3535.25209880 0 16887
0.12350000 0.12352200 13714.71795688 0 149.71197896 0 4920.90959571 0 595.20257279 0 2452.95728382 0 16407
0.12450000 0.12449800 13663.12337003 0 -159.29575777 0 4884.75966296 0 1212.60767891 0 3321.47740320 0 16306
0.12550000 0.12549900 13635.13414971 0 -27.64919064 0 4042.62135085 0 673.23404610 0 1755.68847832 0 17523
0.12650000 0.12650100 13643.78945077 0 -165.32074656 0 2968.08258487 0 695.68387374 0 2103.46297129 0 17154
0.12750000 0.12750600 13375.25030481 0 313.89404760 0 3210.16123901 0 -81.33408890 0 710.33493790 0 18007
0.12850000 0.12850300 13229.45906483 0 352.77770661 0 2427.18247169 0 -520.71190446 0 831.23712904 0 17496
0.12950000 0.12949900 12749.70809163 0 297.87724437 0 3007.50354698 0 -454.53706954 0 436.64082952 0 18405
0.13050000 0.13049000 12855.59502151 0 247.85972081 0 3509.39860212 0 -758.07510562 0 462.08404244 0 18100
0.13150000 0.13148800 12687.99691911 0 216.54214381 0 3368.10362243 0 -234.03484448 0 393.32723005 0 19059
0.13250000 0.13249300 12619.99098219 0 94.52724066 0 3686.43885113 0 -413.70315763 0 225.54140879 0 18957
0.13350000 0.13349100 12592.00176187 0 100.97330423 0 4161.27765996 0 -1.25933506 0 868.61678898 0 19468
0.13450000 0.13450700 12604.59129069 0 -2.32762403 0 4250.69703653 0 382.34286616 0 371.21462194 0 19953
0.13550000 0.13551000 12693.05521194 0 -3.23513796 0 4319.86076048 0 297.75921754 0 748.16984420 0 19956
0.13650000 0.13649900 12767.13110026 0 37.63246218 0 4383.50532491 0 -164.86774834 0 535.36971302 0 19723
0.13750000 0.13749600 12706.20677330 0 140.81163171 0 4837.43652338 0 -130.77597873 0 484.23374471 0 20946
0.13850000 0.13851100 12804.56246719 0 167.58798581 0 5065.72289908 0 -284.01414982 0 1267.88919920 0 20955
0.13950000 0.13949800 12628.53387675 0 226.30240084 0 5329.09134571 0 24.44987662 0 1575.64697557 0 20506
0.14050000 0.14048300 12515.11571087 0 178.91518956 0 5345.71626814 0 83.20824260 0 1855.25816250 0 21447
0.14150000 0.14148400 12249.61154060 0 263.60899655 0 5462.93377396 0 620.83800085 0 1651.67873711 0 21771
0.14250000 0.14249400 11977.81260593 0 346.66279261 0 5062.04720629 0 378.17595693 0 1576.27645201 0 22470
0.14350000 0.14350900 11652.17095425 0 215.53835370 0 4740.81188970 0 467.80890586 0 1678.65629886 0 22519
0.14450000 0.14449900 11201.01619651 0 221.78703144 0 3930.97920779 0 328.62941664 0 1106.28348771 0 22218
0.14550000 0.14550500 11138.28212478 0 133.14438384 0 3781.36614656 0 418.12298150 0 1014.84191808 0 23559
0.14650000 0.14650700 10977.02374940 0 92.33542618 0 3177.96801532 0 206.49637425 0 74.13467692 0 23044
0.14750000 0.14750500 10937.65899054 0 106.00608078 0 3180.32855197 0 283.24304118 0 360.09649430 0 23649
0.14850000 0.14849900 10885.34500204 0 102.87263699 0 2818.32339518 0 96.04776349 0 19.63528110 0 23640
0.14950000 0.14949500 10671.53658448 0 215.36637175 0 3039.16846009 0 51.82951646 0 403.58432385 0 24457
0.15050000 0.15050000 10658.56487354 0 172.13932529 0 2803.81171508 0 487.17991927 0 533.33852743 0 24591
0.15150000 0.15149900 10330.60764781 0 110.51616708 0 2724.43023962 0 491.44349809 0 786.63422694 0 25020
0.15250000 0.15250500 10455.65988719 0 147.64931955 0 2614.65404458 0 510.57171344 0 1206.12182344 0 25297
0.15350000 0.15350100 10135.89709585 0 146.57021708 0 2340.91047733 0 252.42679721 0 608.73744034 0 25452
0.15450000 0.15450400 10225.19282525 0 112.55038764 0 2268.19470775 0 76.13584997 0 1378.69953411 0 26061
0.15550000 0.15549900 9969.29941136 0 147.63470670 0 2156.79985901 0 -208.93334733 0 919.51895175 0 26128
0.15650000 0.15649500 9957.74402241 0 178.29807783 0 2391.07750154 0 -173.91984437 0 1349.99091214 0 26331
0.15750000 0.15749700 9818.11265903 0 123.60444357 0 2411.67037368 0 -228.98104791 0 482.52966206 0 27345
0.15850000 0.15849900 9882.63399423 0 222.05680706 0 2950.49096647 0 -277.45073386 0 1117.08800119 0 26980
0.15950000 0.15949700 9633.03534475 0 127.30486579 0 2919.55669566 0 -282.70348995 0 661.91583488 0 27777
0.16050000 0.16050000 9520.92109436 0 164.21241840 0 3265.80246013 0 -101.04625606 0 601.35458094 0 28224
0.16150000 0.16150500 9485.22078763 0 195.04215116 0 3216.43352212 0 59.04702588 0 589.38103978 0 28075
0.16250000 0.16249700 9153.61035042 0 228.35606773 0 3191.71533116 0 178.69712093 0 551.08639087 0 28590
0.16350000 0.16349900 9037.65179748 0 225.84378229 0 3096.52950077 0 385.47563552 0 929.77829367 0 29163
0.16450000 0.16449100 8795.41577422 0 112.03680231 0 2917.24112161 0 428.48461334 0 781.22972206 0 28996
0.16550000 0.16550500 8825.70932794 0 139.15700792 0 2737.78413269 0 216.54214381 0 1062.00544041 0 30777
0.16650000 0.16650700 8610.33845994 0 174.63587382 0 2799.83252473 0 163.84484912 0 1026.91212883 0 29211
0.16750000 0.16749900 8485.25249860 0 114.76142364 0 2655.85102951 0 39.46007958 0 1436.07181544 0 30922
0.16850000 0.16850800 8462.02931419 0 49.89702378 0 2616.08160723 0 183.86669620 0 1219.59936366 0 30867
0.16950000 0.16949900 8494.96442084 0 -77.38940734 0 2560.94621539 0 226.53957857 0 1282.25475084 0 30852
0.17050000 0.17049200 8611.32763720 0 -68.82301982 0 2666.75446072 0 119.07108913 0 1104.83344376 0 31257
0.17150000 0.17149500 8593.57864970 0 -123.78879024 0 2327.14068019 0 75.08338784 0 932.05452544 0 32608
0.17250000 0.17250900 8638.26023635 0 33.41126061 0 2499.59474370 0 166.85959165 0 1330.33101401 0 32361
0.17350000 0.17350400 8647.63493906 0 131.20649566 0 2207.25914014 0 -4.29340027 0 982.59698739 0 32508
0.17450000 0.17449800 8505.67676098 0 188.95758692 0 2485.57765224 0 224.47242290 0 1123.85150074 0 32791
0.17550000 0.17549800 8349.06077435 0 171.90664382 0 2305.41250232 0 205.33858723 0 1245.94744898 0 33633
0.17650000 0.17650100 8192.83821049 0 176.44899078 0 2200.44730580 0 278.16901144 0 1572.79185028 0 33984
0.17750000 0.17750300 8026.37541381 0 91.90884348 0 2052.74515519 0 363.94529311 0 1508.30423704 0 34069
