### header ###
fiducial parameters:
Omega_m = 0.31
Omega_nu = 0
Omega_de = 0.69
Omega_k = 0
H_0 = 100
w_de = -1
zeff = 0
beta = 0
fgrowth = 0
b_1 = 2
gamma = 0.55
Lx = 3500 Ly = 3500 Lz = 3500
nx = 700 ny = 700 nz = 700
xoffset = 857.220397 yoffset = 15.9954215 zoffset = 262.898189
bins = 400 dk = 0.001
kx_ny = 0.628318531 ky_ny = 0.628318531 kz_ny = 0.628318531
############################
A(data) = 3.05846607 (not used)
A(ran) = 3.05858796 (used)
Ngal = 186487
weighted Ngal = 0
Nran = 9360983
weighted Nran = 0
SN(data) = 3447.23642
SN(ran) = 68.684391
SN(data+ran) = 3515.92081
############################
13 columns: k_central k_mean P_0(k) sigma^{lin}_{P_0(k)} P^img_1(k) sigma^{lin}_{P_1(k)} P_2(k) sigma^{lin}_{P_2(k)} P^img_3(k) sigma^{lin}_{P_3(k)} P_4(k) sigma^{lin}_{P_4(k)} N_modes
### header ###
0.00050000 0 0 0 0 0 0 0 0 0 0 0 0
0.00150000 0.00179520 4048.57889573 0 -8624.06329448 0 -1540.04783470 0 16471.82476818 0 -22848.87074089 0 3
0.00250000 0.00253879 13522.27801637 0 -14555.40622505 0 3111.24351258 0 3661.72066018 0 31817.33633311 0 6
0.00350000 0.00331552 20094.68649878 0 -13930.53845092 0 -2320.39628975 0 1417.56970434 0 -16186.87427215 0 7
0.00450000 0.00420575 31280.48285420 0 -13319.60908369 0 -6438.19511268 0 4711.20401567 0 9537.74834850 0 24
0.00550000 0.00557378 45381.09235068 0 -12844.24196427 0 -23791.06208516 0 13379.85897161 0 15501.75661010 0 45
0.00650000 0.00659388 49692.78115807 0 -4965.86095799 0 -17391.87203051 0 11860.79743182 0 20639.97046574 0 40
0.00750000 0.00754703 54841.11159937 0 -7195.89365651 0 -41695.84500852 0 20478.89194076 0 17347.58386663 0 57
0.00850000 0.00846663 55465.41734097 0 -5268.18950005 0 -39114.09234863 0 16143.26054731 0 30591.76818391 0 75
0.00950000 0.00948925 62559.39201730 0 -7077.65325147 0 -56240.01058285 0 8979.75120556 0 38720.66957305 0 112
0.01050000 0.01054430 61047.29968097 0 -6619.99015695 0 -37644.04004603 0 -8143.01964645 0 9333.35959626 0 105
0.01150000 0.01145670 70255.19113377 0 -5163.74137345 0 -38326.57235842 0 -24852.85395321 0 37931.35107871 0 144
0.01250000 0.01249090 75260.20327825 0 -4020.07260548 0 -12767.13110026 0 -26120.91176217 0 12780.61988114 0 169
0.01350000 0.01339930 81592.62386755 0 -2804.44119153 0 -4246.47055185 0 -32172.87811574 0 33935.18733734 0 180
0.01450000 0.01448870 83677.87698466 0 2345.98001081 0 18777.28223311 0 -17525.29855469 0 20122.11368656 0 267
0.01550000 0.01550050 90183.51600173 0 7164.32990925 0 46121.62642084 0 -1908.13418354 0 -2883.99127675 0 238
0.01650000 0.01653350 78029.89961837 0 7722.86660343 0 35000.12658759 0 5359.86824741 0 8859.21770777 0 315
0.01750000 0.01747870 77727.52611370 0 6635.71582733 0 36728.37663748 0 10433.94294998 0 -8413.49218434 0 297
0.01850000 0.01844180 69100.77630369 0 5730.14652314 0 26909.33100444 0 13912.77822276 0 -9009.86490887 0 388
0.01950000 0.01947590 65468.69723950 0 -764.72057834 0 24227.08692701 0 -5311.79198423 0 -22467.36305508 0 399
0.02050000 0.02045430 68008.63467867 0 -640.08649116 0 19371.46303075 0 -5765.76814530 0 -16127.86085581 0 462
0.02150000 0.02154770 71208.06109623 0 -3129.94795539 0 25562.58864036 0 -9624.22267457 0 -18910.37153776 0 571
0.02250000 0.02255340 74379.04866745 0 -3941.25316255 0 22203.65738893 0 -8749.43027208 0 -12613.35899826 0 510
0.02350000 0.02348930 86848.52733635 0 -5244.84266848 0 37553.77762066 0 3677.01918582 0 1229.83959648 0 555
0.02450000 0.02439640 88161.32293522 0 -1160.82200099 0 37009.95493830 0 4504.30859832 0 -23333.11797438 0 592
0.02550000 0.02547300 93675.19933830 0 1106.98827651 0 42770.67603142 0 10593.61639361 0 12139.00353741 0 837
0.02650000 0.02652900 90512.30503561 0 1746.70719839 0 42859.47717220 0 14261.46320844 0 95.03644214 0 723
0.02750000 0.02749970 90197.22959562 0 6630.99475402 0 41855.46224890 0 12394.50352853 0 38522.15968114 0 826
0.02850000 0.02848090 81270.57922411 0 4736.54044242 0 38808.34664875 0 17244.84431895 0 14392.52919596 0 831
0.02950000 0.02946900 74539.22794036 0 5320.61589506 0 30923.59219349 0 16238.13163948 0 23873.00642899 0 996
0.03050000 0.03053250 70328.48017653 0 5427.33463310 0 20290.38622800 0 14807.98364698 0 21889.36879449 0 1041
0.03150000 0.03150510 62031.08143295 0 4330.93280145 0 16639.08565106 0 7242.14893426 0 16148.65605966 0 1036
0.03250000 0.03246190 60852.83642332 0 4610.65639489 0 17942.77632284 0 1197.46652237 0 23997.77765210 0 1059
0.03350000 0.03345080 55528.70220459 0 3324.17515937 0 13288.58488767 0 1842.20776700 0 15872.81049073 0 1302
0.03450000 0.03451200 55034.00116592 0 2183.10298172 0 16020.06301530 0 -1343.85351684 0 22694.76141936 0 1339
0.03550000 0.03553350 52864.89279436 0 1287.88631685 0 15479.50012165 0 1566.99167450 0 17216.96750514 0 1365
0.03650000 0.03647120 51831.09014663 0 1380.63292603 0 15376.31094794 0 707.89571670 0 14078.69022755 0 1308
0.03750000 0.03744890 51571.99314728 0 1942.38444632 0 17425.59398270 0 1149.79492262 0 10221.19115359 0 1579
0.03850000 0.03847530 48614.46553345 0 3385.14444894 0 18203.33460678 0 -2589.76724387 0 9273.36824331 0 1662
0.03950000 0.03950240 47137.21921438 0 3707.77360622 0 20621.31098553 0 -2970.44312152 0 7683.33323481 0 1683
0.04050000 0.04050350 44197.78904823 0 3037.02149580 0 24039.14324679 0 -1946.83574400 0 5156.77217000 0 1822
0.04150000 0.04152450 42776.52116980 0 2570.93915389 0 27295.67217007 0 532.87653668 0 6469.46660302 0 1887
0.04250000 0.04250150 41221.60195418 0 1655.11837623 0 28559.12131223 0 719.95581086 0 4696.83846404 0 1920
0.04350000 0.04349210 39986.47925186 0 354.54473690 0 28418.16355206 0 4579.29497935 0 6080.15790560 0 2005
0.04450000 0.04448520 40232.31228335 0 49.99762761 0 27727.08834512 0 5341.35489565 0 3061.16641357 0 2151
0.04550000 0.04548030 40286.49221987 0 -107.16667797 0 25390.15705815 0 4359.46157300 0 5562.35732968 0 2274
0.04650000 0.04648670 40530.75156026 0 -1069.33097249 0 22915.30298671 0 6055.13621707 0 7167.76954838 0 2311
0.04750000 0.04749250 39233.46805939 0 -247.97100326 0 16878.28669861 0 4434.59408249 0 5092.41944457 0 2568
0.04850000 0.04851840 40657.88332002 0 -1200.23172245 0 13334.33433615 0 7146.47975589 0 8953.54924871 0 2493
0.04950000 0.04949480 40254.34395878 0 -554.52265780 0 11194.08071501 0 6318.52714500 0 5168.43996546 0 2644
0.05050000 0.05050630 41281.62702909 0 358.22605002 0 10453.02957492 0 1855.50545682 0 10742.06042717 0 2829
0.05150000 0.05149060 38769.67881023 0 375.51979117 0 8409.46803138 0 725.81556209 0 6040.26483615 0 2784
0.05250000 0.05249300 39322.38160668 0 2126.75359960 0 10885.58105570 0 -1963.37074123 0 10097.60019881 0 3055
0.05350000 0.05348950 37669.66872970 0 1851.87472663 0 11130.15513431 0 -2560.92373409 0 6810.75524051 0 3009
0.05450000 0.05448610 36259.19187597 0 1199.62472731 0 11539.76444694 0 217.90451068 0 10150.12775967 0 3336
0.05550000 0.05550870 36092.49302563 0 318.16549488 0 8479.78954235 0 2370.50711071 0 6990.92039043 0 3349
0.05650000 0.05647670 35680.41076983 0 -611.78253262 0 9789.97731025 0 2921.68117865 0 6340.81735540 0 3324
0.05750000 0.05747970 37060.98749261 0 -281.72218114 0 9599.95410964 0 2633.54957846 0 4867.89868686 0 3639
0.05850000 0.05849280 36136.78118951 0 -339.11919190 0 8111.83808132 0 1634.66039190 0 4784.41437389 0 3846
0.05950000 0.05951020 36843.14368145 0 192.31741742 0 8871.64986748 0 77.17572257 0 7432.74540806 0 3787
0.06050000 0.06049470 35760.10698352 0 818.71392006 0 8235.90114344 0 149.80640042 0 4684.33886043 0 3930
0.06150000 0.06148310 36135.88193745 0 1150.85154379 0 12097.97516224 0 424.88086072 0 6985.71596914 0 4083
0.06250000 0.06249100 34658.41080537 0 1300.10490420 0 8118.68363762 0 -252.61676420 0 4708.23648388 0 4303
0.06350000 0.06350600 33649.89962179 0 1571.63406325 0 11281.34188664 0 -512.49611284 0 3378.02911703 0 4470
0.06450000 0.06451750 32164.56003419 0 1319.46130476 0 8301.38917460 0 265.38839156 0 1097.94292487 0 4479
0.06550000 0.06550280 31305.66191184 0 437.53783344 0 10289.39942223 0 -2034.70391077 0 -622.93438221 0 4636
0.06650000 0.06648880 30803.65445019 0 353.95010648 0 8553.76426481 0 -2270.53276311 0 -3969.81565606 0 4653
0.06750000 0.06749660 31156.16125712 0 177.97434709 0 10888.07648016 0 -1265.61858775 0 -3174.51713554 0 5220
0.06850000 0.06852730 31001.04027703 0 264.17552535 0 10908.71431490 0 -1086.66967625 0 -4910.30966207 0 5029
0.06950000 0.06949320 31091.97714144 0 183.57556335 0 11612.60386368 0 940.05000031 0 -5794.22947295 0 5040
0.07050000 0.07048030 30460.47738338 0 722.25115174 0 12491.39793783 0 324.99756239 0 -4062.76459696 0 5475
0.07150000 0.07148790 29955.54735254 0 701.96964563 0 11596.97935916 0 1610.20073591 0 -4375.10855882 0 5509
0.07250000 0.07249820 29719.26887417 0 699.99016704 0 11289.77237469 0 1394.07674431 0 -2148.41433356 0 5916
0.07350000 0.07351270 29296.62040669 0 752.55144985 0 10795.43103684 0 1504.67350685 0 -1475.74007187 0 5721
0.07450000 0.07449140 27891.31425230 0 931.47338380 0 10041.76788663 0 1299.11572693 0 -1249.51073526 0 6028
0.07550000 0.07549160 27763.17083397 0 861.20133169 0 10100.42160214 0 1006.49348678 0 765.69177056 0 6183
0.07650000 0.07648840 26289.29671012 0 687.87162148 0 7689.68420247 0 1992.85496810 0 -678.42610267 0 6330
0.07750000 0.07749960 25774.13768712 0 658.57398942 0 7877.98758351 0 1032.65947355 0 2428.93601321 0 6583
0.07850000 0.07848650 25262.91289187 0 172.94640402 0 5962.07486967 0 1832.45088217 0 -444.75095902 0 6549
0.07950000 0.07947320 24478.87750339 0 361.95569793 0 6879.42437583 0 866.66091575 0 4268.05260126 0 6828
0.08050000 0.08048110 24756.85879596 0 371.46079219 0 6614.42603484 0 571.24312576 0 1815.91588494 0 7147
0.08150000 0.08149960 24253.83967575 0 320.46420795 0 5520.17116748 0 453.88286367 0 3069.58566097 0 7386
0.08250000 0.08250610 23844.00555010 0 595.57239020 0 6362.33196090 0 261.66436398 0 3577.98905288 0 7227
0.08350000 0.08350160 23373.69672352 0 350.66221614 0 6084.81153500 0 458.63091454 0 4091.02359289 0 7798
0.08450000 0.08449610 22815.26119520 0 611.48465538 0 7274.28595470 0 944.53839214 0 4125.76844430 0 7371
0.08550000 0.08548940 22774.23282003 0 535.29102846 0 6114.05970820 0 395.96765891 0 3203.97888111 0 8256
0.08650000 0.08650700 21823.72339422 0 447.79942350 0 6337.23158782 0 414.27755489 0 3218.09713843 0 8037
0.08750000 0.08749060 22125.31005333 0 71.58349883 0 5524.36393021 0 457.45064621 0 3890.58030906 0 8155
0.08850000 0.08849210 21595.08855835 0 254.08704132 0 6120.23082545 0 -190.87411787 0 2884.14864586 0 8718
0.08950000 0.08949900 21532.36572727 0 203.08820895 0 5719.82760577 0 -197.57691790 0 1035.17288305 0 8571
0.09050000 0.09049190 21133.88465886 0 439.06094162 0 5507.84017363 0 -701.09399894 0 1544.49913239 0 8932
0.09150000 0.09150830 20690.10376800 0 543.70577960 0 5359.37365878 0 -87.83792941 0 117.62441738 0 9285
0.09250000 0.09250820 20074.67814048 0 829.26776703 0 5196.80012725 0 -431.07108708 0 -153.36181825 0 9204
0.09350000 0.09350330 19654.50261615 0 541.53745807 0 4731.83060977 0 173.65344095 0 -1186.06850253 0 9349
0.09450000 0.09448040 18737.82754904 0 508.25951158 0 4579.47482976 0 -319.48289914 0 -2007.52401730 0 9564
0.09550000 0.09549270 18833.93511279 0 163.27157593 0 4319.14135883 0 93.65991205 0 -2013.09938006 0 10155
0.09650000 0.09649430 18710.28795475 0 -110.19221152 0 5227.99293303 0 155.83476141 0 -2217.74666727 0 9913
0.09750000 0.09749140 18900.47976512 0 -213.32506957 0 5028.84232403 0 104.01828411 0 -1168.65673455 0 10476
0.09850000 0.09850240 19045.37175304 0 86.72971366 0 5596.43898269 0 329.94120058 0 -790.65837990 0 10575
0.09950000 0.09950330 18969.60976711 0 546.54629204 0 6112.47477645 0 228.60223798 0 807.98359487 0 10882
0.10050000 0.10051200 18424.43820666 0 836.87881164 0 7003.84713877 0 28.92017101 0 1937.39359739 0 10875
0.10150000 0.10150300 18190.63267146 0 718.35626627 0 7543.80303728 0 287.05024959 0 3032.28918184 0 11118
0.10250000 0.10250800 17254.39887207 0 484.63166375 0 7419.18918328 0 191.12028812 0 2979.82906488 0 11575
0.10350000 0.10349800 17250.01501829 0 477.99967981 0 8072.75433873 0 -190.29185216 0 2513.28585629 0 11364
0.10450000 0.10450100 16826.01767271 0 279.57634092 0 7234.04442509 0 -27.94538178 0 1439.94983994 0 12093
0.10550000 0.10551000 16669.88503406 0 267.48140073 0 8553.23595423 0 -635.12374386 0 1329.99379449 0 12067
0.10650000 0.10649700 16541.96642874 0 154.12843063 0 6760.73434476 0 -365.10870046 0 581.15400751 0 12054
0.10750000 0.10749900 16532.29946911 0 130.87264833 0 7850.21193556 0 -144.36704953 0 -59.16190533 0 12807
0.10850000 0.10850100 16412.58653883 0 50.67296590 0 7279.14191582 0 663.56034208 0 -474.52631874 0 12736
0.10950000 0.10950300 16483.73985795 0 75.64879257 0 7161.37361811 0 824.58041567 0 -270.19264569 0 12933
0.11050000 0.11050200 16212.39054931 0 121.14836138 0 6785.83471784 0 796.05726444 0 -249.47275419 0 13428
0.11150000 0.11150900 16019.61338927 0 336.73167769 0 6740.70350515 0 460.85431525 0 383.61081156 0 13453
0.11250000 0.11250000 15809.30081410 0 352.78220287 0 6506.60571303 0 505.39651784 0 -71.91802060 0 13668
0.11350000 0.11349100 15363.04698007 0 364.06781620 0 6576.63496709 0 481.06725340 0 1022.21578496 0 13791
0.11450000 0.11448600 15251.65213133 0 176.17809110 0 6327.15996476 0 357.19528234 0 745.09327809 0 14205
0.11550000 0.11549300 15157.45547820 0 30.38583946 0 6250.21771051 0 481.74843683 0 1027.58769194 0 14776
0.11650000 0.11649800 15276.60637595 0 -9.08767269 0 6147.81538235 0 511.43162322 0 1451.78624516 0 14553
0.11750000 0.11747300 15041.11474314 0 7.98415553 0 5947.49574567 0 688.07507726 0 1672.14796209 0 14568
0.11850000 0.11849100 15117.21394859 0 189.62752970 0 6090.62295143 0 -60.69838988 0 1472.37911730 0 16015
0.11950000 0.11950300 14898.02125933 0 357.20202673 0 5936.31129819 0 227.70635812 0 1636.49261797 0 15270
0.12050000 0.12050700 14500.77666250 0 636.58278033 0 5930.75841673 0 -289.79521650 0 1559.49416047 0 15999
0.12150000 0.12150000 13963.02393153 0 523.33772047 0 5951.14895716 0 -705.47335646 0 1304.94962466 0 15670
0.12250000 0.12250700 13646.48720695 0 340.18592966 0 6231.76056201 0 -161.05716774 0 1196.74712073 0 16887
0.12350000 0.12352200 13568.13987135 0 72.36112705 0 5954.11648895 0 165.49722478 0 602.22460730 0 16407
0.12450000 0.12449800 13438.19794890 0 -48.71461973 0 6060.46428552 0 226.22821255 0 844.95634325 0 16306
0.12550000 0.12549900 13574.20982274 0 -119.45327125 0 5785.97883532 0 515.60302871 0 -103.53178874 0 17523
0.12650000 0.12650100 13568.13987135 0 -20.75619879 0 5731.60780773 0 292.02536160 0 222.40077097 0 17154
0.12750000 0.12750600 13610.51712461 0 53.94118510 0 5797.47802102 0 268.32782173 0 31.15548682 0 18007
0.12850000 0.12850300 13611.07915714 0 0.35917701 0 5621.94401920 0 216.98952171 0 -315.42952049 0 17496
0.12950000 0.12949900 13548.91835860 0 160.39396935 0 5332.28369051 0 352.07516594 0 -168.38494795 0 18405
0.13050000 0.13049000 13332.31101901 0 158.20541465 0 4959.99333830 0 180.10894666 0 -389.75270312 0 18100
0.13150000 0.13148800 13124.02176097 0 272.88028528 0 4999.52670692 0 646.94890843 0 136.80209159 0 19059
0.13250000 0.13249300 12815.69071142 0 294.17344996 0 4519.96682479 0 593.36922266 0 -357.20989519 0 18957
0.13350000 0.13349100 12508.48372694 0 274.41126191 0 4542.52681081 0 757.44113292 0 210.28559762 0 19468
0.13450000 0.13450700 12288.39178563 0 268.00971131 0 4078.50150798 0 383.35789692 0 327.84706735 0 19953
0.13550000 0.13551000 12053.91181138 0 166.18852480 0 4105.32170062 0 158.76969531 0 655.71998820 0 19956
0.13650000 0.13649900 11997.59615122 0 128.89204567 0 4319.74835397 0 180.69458457 0 1416.38943601 0 19723
0.13750000 0.13749600 12073.24573064 0 81.55676619 0 3984.50718657 0 142.17062638 0 913.00724278 0 20946
0.13850000 0.13851100 11981.18480115 0 103.72737607 0 4438.11240617 0 108.82647246 0 1604.87266747 0 20955
0.13950000 0.13949800 11929.70262080 0 172.44731912 0 3781.06264899 0 120.29856819 0 1106.56787617 0 20506
0.14050000 0.14048300 11876.53434284 0 234.06069798 0 4707.19110336 0 26.95260751 0 1719.67343338 0 21447
0.14150000 0.14148400 11624.51895345 0 256.85111733 0 3639.47541238 0 40.87123087 0 1141.49932238 0 21771
0.14250000 0.14249400 11438.93580989 0 164.39339288 0 4644.72680725 0 0.20795316 0 1624.38643714 0 22470
0.14350000 0.14350900 11270.77567495 0 94.05131151 0 3675.06331259 0 3.96030607 0 990.80153836 0 22519
0.14450000 0.14449900 11273.02380510 0 112.05366328 0 4193.48212431 0 284.75153651 0 1191.70006855 0 22218
0.14550000 0.14550500 11124.91699106 0 103.64048584 0 3581.33876680 0 196.49219510 0 548.53813535 0 23559
0.14650000 0.14650700 11018.83897012 0 182.13226379 0 3761.53763867 0 322.30992280 0 637.57870198 0 23044
0.14750000 0.14750500 10808.07676891 0 254.79857451 0 3145.51625666 0 336.38209345 0 721.22263220 0 23649
0.14850000 0.14849900 10520.52968256 0 230.38837738 0 2998.85948657 0 398.56986955 0 -9.66938761 0 23640
0.14950000 0.14949500 10363.55399510 0 204.39212444 0 2615.42964948 0 265.51765905 0 132.68688936 0 24457
0.15050000 0.15050000 10077.25462098 0 174.66285138 0 2835.06072412 0 -25.90677737 0 -103.80932041 0 24591
0.15150000 0.15149900 9920.13280507 0 133.15674856 0 2583.57364531 0 38.97853010 0 24.50607988 0 25020
0.15250000 0.15250500 9901.61945331 0 36.56111575 0 2742.01061737 0 -133.55354353 0 -188.05046640 0 25297
0.15350000 0.15350100 9809.44611732 0 109.32094868 0 2659.63912881 0 -19.03750330 0 -69.04311177 0 25452
0.15450000 0.15450400 9867.42539379 0 8.04396703 0 2839.61318766 0 -50.66082600 0 80.25431199 0 26061
0.15550000 0.15549900 9780.70377340 0 95.05543884 0 3069.12479429 0 104.54816838 0 -75.78064541 0 26128
0.15650000 0.15649500 9902.64235253 0 162.04746907 0 3181.62122680 0 -120.75718674 0 -13.02780179 0 26331
0.15750000 0.15749700 9691.44176594 0 151.58129917 0 3194.40184669 0 110.56360262 0 -83.63145310 0 27345
0.15850000 0.15849900 9482.73660382 0 230.30294844 0 3159.98297415 0 163.15579723 0 245.44972530 0 26980
0.15950000 0.15949700 9506.37569231 0 62.62447539 0 3249.73957023 0 321.57366018 0 200.52983685 0 27777
0.16050000 0.16050000 9372.29721039 0 -64.03809962 0 2922.24321119 0 397.14118285 0 110.31720756 0 28224
0.16150000 0.16150500 9452.82523223 0 -36.75321848 0 2742.77498162 0 267.05200787 0 -49.72740236 0 28075
0.16250000 0.16249700 9538.44526884 0 -39.18794342 0 2592.16150247 0 3.27516592 0 85.85305531 0 28590
0.16350000 0.16349900 9466.32525375 0 83.89853096 0 2661.15661666 0 -129.08426080 0 243.22857271 0 29163
0.16450000 0.16449100 9385.47125305 0 157.44217446 0 2556.51739900 0 -306.44711649 0 -90.22510641 0 28996
0.16550000 0.16550500 9265.45482519 0 214.85267401 0 2715.47144099 0 -479.55875807 0 -145.52258843 0 30777
0.16650000 0.16650700 9094.56321213 0 297.13198923 0 3031.38992978 0 -423.61516345 0 -438.15382110 0 29211
0.16750000 0.16749900 8985.77619435 0 357.44594886 0 3288.41864940 0 -256.19803553 0 -79.69834941 0 30922
0.16850000 0.16850800 8596.91712297 0 209.64038426 0 3291.37494054 0 5.75224564 0 -438.57197331 0 30867
0.16950000 0.16949900 8479.91318951 0 196.89011414 0 3155.44175125 0 361.93771289 0 127.89162776 0 30852
0.17050000 0.17049200 8376.71277515 0 -25.85327187 0 3020.39657337 0 669.54036827 0 23.58974203 0 31257
0.17150000 0.17149500 8477.72126261 0 -62.16922903 0 2834.43124768 0 751.16547762 0 342.89380242 0 32608
0.17250000 0.17250900 8511.09475464 0 -109.80204854 0 2431.15042140 0 758.42356580 0 977.78936107 0 32361
0.17350000 0.17350400 8539.73593270 0 8.36086346 0 2392.24652922 0 495.48113983 0 1042.95928181 0 32508
0.17450000 0.17449800 8557.86710233 0 101.06131853 0 2211.94649150 0 137.69010300 0 1756.32919542 0 32791
0.17550000 0.17549800 8402.99341656 0 202.71052309 0 2404.10541574 0 161.43485360 0 1549.37757481 0 33633
0.17650000 0.17650100 8267.48737199 0 262.59059360 0 2342.05702371 0 -141.65692864 0 2143.35604073 0 33984
0.17750000 0.17750300 8092.12197994 0 131.62577193 0 2500.33662665 0 -54.98161973 0 1911.05675273 0 34069
0.17850000 0.17849800 8052.52116741 0 103.36834968 0 2572.69269540 0 -68.88147121 0 2009.83959135 0 34536
