### header ###
fiducial parameters:
Omega_m = 0.31
Omega_nu = 0
Omega_de = 0.69
Omega_k = 0
H_0 = 100
w_de = -1
zeff = 0
beta = 0
fgrowth = 0
b_1 = 2
gamma = 0.55
Lx = 3500 Ly = 3500 Lz = 3500
nx = 700 ny = 700 nz = 700
xoffset = 857.220397 yoffset = 15.9954215 zoffset = 262.898189
bins = 400 dk = 0.001
kx_ny = 0.628318531 ky_ny = 0.628318531 kz_ny = 0.628318531
############################
A(data) = 3.15533731 (not used)
A(ran) = 3.15082589 (used)
Ngal = 191997
weighted Ngal = 0
Nran = 9360983
weighted Nran = 0
SN(data) = 3463.31202
SN(ran) = 70.7557081
SN(data+ran) = 3534.06772
############################
13 columns: k_central k_mean P_0(k) sigma^{lin}_{P_0(k)} P^img_1(k) sigma^{lin}_{P_1(k)} P_2(k) sigma^{lin}_{P_2(k)} P^img_3(k) sigma^{lin}_{P_3(k)} P_4(k) sigma^{lin}_{P_4(k)} N_modes
### header ###
0.00050000 0 0 0 0 0 0 0 0 0 0 0 0
0.00150000 0.00179520 16095.60018821 0 -9136.44587675 0 40867.97108219 0 -1881.33647220 0 33633.71308474 0 3
0.00250000 0.00253879 28951.42002274 0 -8162.74698848 0 11417.12894747 0 36881.92392647 0 -5561.10961744 0 6
0.00350000 0.00331552 41982.81882169 0 -5623.20297208 0 67851.04075542 0 -11913.74089676 0 3645.16318165 0 7
0.00450000 0.00420575 50014.82580152 0 3454.25196963 0 48693.48730809 0 43395.43139905 0 431.38132904 0 24
0.00550000 0.00557378 58070.55055439 0 7325.12741796 0 70917.82749436 0 56187.06711790 0 17901.41072815 0 45
0.00650000 0.00659388 50660.15155998 0 5764.80144934 0 6809.99087626 0 53218.52366636 0 -41619.52099006 0 40
0.00750000 0.00754703 60593.40220445 0 -575.31448945 0 55447.99433234 0 49322.62652950 0 17628.48772840 0 57
0.00850000 0.00846663 57588.21423152 0 -3336.37126542 0 7617.14828330 0 19891.23072055 0 -13753.49820190 0 75
0.00950000 0.00948925 58863.57846346 0 -440.36485710 0 18284.49210506 0 5523.73445376 0 7052.64280359 0 112
0.01050000 0.01054430 60839.46004895 0 3396.77852245 0 -3858.25219756 0 2308.70601299 0 -15827.28585526 0 105
0.01150000 0.01145670 53054.97219822 0 980.08245382 0 2305.60359339 0 -9200.56254852 0 6881.50389621 0 144
0.01250000 0.01249090 57888.67682556 0 -5549.83524476 0 -6791.19650824 0 15698.24318487 0 -9212.33150984 0 169
0.01350000 0.01339930 64526.05626920 0 -16451.92881639 0 -7850.95381851 0 11477.04161586 0 -6085.03634802 0 180
0.01450000 0.01448870 74061.50028430 0 -4339.83539682 0 -7798.88712432 0 -1529.62775147 0 -12526.35636160 0 267
0.01550000 0.01550050 83459.02151493 0 -3610.86795627 0 3808.82705629 0 -20629.06703453 0 -3463.77280080 0 238
0.01650000 0.01653350 78165.46186618 0 5122.96029260 0 13125.14582604 0 -17674.34958338 0 14192.22079993 0 315
0.01750000 0.01747870 85494.81576882 0 5496.55456030 0 14330.81802345 0 -11865.96813116 0 2509.25046268 0 297
0.01850000 0.01844180 74378.37422840 0 2459.03847586 0 28352.29333878 0 -4653.97786280 0 4626.82045064 0 388
0.01950000 0.01947590 78567.65234934 0 3118.63986076 0 37910.55587486 0 2684.95307426 0 -7087.79231843 0 399
0.02050000 0.02045430 78265.27884467 0 2346.10365797 0 36539.53370520 0 12065.26486862 0 -2969.93729224 0 462
0.02150000 0.02154770 71129.37654112 0 1400.18041766 0 21605.87958305 0 8512.05020995 0 -10287.75828722 0 571
0.02250000 0.02255340 71994.68183439 0 -1542.16107704 0 21314.85913563 0 9797.00271696 0 -17229.33222094 0 510
0.02350000 0.02348930 69964.28309285 0 11.78008956 0 10058.12303344 0 10703.53871711 0 -5300.13542942 0 555
0.02450000 0.02439640 65236.69020841 0 1605.29981219 0 6052.49466415 0 2218.43234697 0 -18275.61199098 0 592
0.02550000 0.02547300 68606.97451708 0 -2697.01429249 0 -3775.20626996 0 10556.66837466 0 -1405.62089261 0 837
0.02650000 0.02652900 64112.84994832 0 1492.02777478 0 6017.81725664 0 1310.89592890 0 -4000.94101794 0 723
0.02750000 0.02749970 66682.01307940 0 4748.54545740 0 -1737.01775746 0 3633.86632766 0 7624.69075994 0 826
0.02850000 0.02848090 59052.87102177 0 4173.88967008 0 3528.13676689 0 3521.23500734 0 7696.46231486 0 831
0.02950000 0.02946900 61498.38699480 0 496.83563824 0 -1110.97645939 0 2177.70746937 0 21392.41962567 0 996
0.03050000 0.03053250 58885.94735841 0 -1321.52958449 0 2150.43765070 0 5437.49618136 0 16522.52010298 0 1041
0.03150000 0.03150510 61717.01765152 0 -2216.85865586 0 1642.31527505 0 1911.45017550 0 12606.83942084 0 1036
0.03250000 0.03246190 59529.69942578 0 742.98340795 0 -3923.38052789 0 169.66076181 0 13400.09214292 0 1059
0.03350000 0.03345080 61371.48004805 0 3236.19458610 0 -3905.46293063 0 -2871.41298858 0 8807.17349489 0 1302
0.03450000 0.03451200 56666.48087158 0 3503.91316456 0 -4045.88113956 0 -7533.00077193 0 10666.03990627 0 1339
0.03550000 0.03553350 51740.37809523 0 4439.07910213 0 -2441.39065422 0 -5764.61035828 0 3152.10327798 0 1365
0.03650000 0.03647120 49046.78096056 0 3805.19632611 0 6128.35781593 0 -5862.12300337 0 1723.51773593 0 1308
0.03750000 0.03744890 47101.47394506 0 1792.13066799 0 4392.63273331 0 -4423.63444802 0 -2903.89846919 0 1579
0.03850000 0.03847530 46576.87277544 0 921.30396708 0 10255.76739524 0 -3590.02778981 0 -1820.31097938 0 1662
0.03950000 0.03950240 47452.18224786 0 -196.16846436 0 10614.55772593 0 -3283.98983301 0 -2464.92857685 0 1683
0.04050000 0.04050350 47063.59295209 0 959.79195519 0 12092.57964989 0 -1174.24333796 0 -8440.42478349 0 1822
0.04150000 0.04152450 47943.51109132 0 1325.73358786 0 14852.83384340 0 -4303.79787058 0 -3666.82391561 0 1887
0.04250000 0.04250150 46229.87388738 0 2636.52835091 0 16560.73831546 0 -810.22498062 0 -9211.16248216 0 1920
0.04350000 0.04349210 44963.38976952 0 1160.65339123 0 20522.28085259 0 1558.28017019 0 179.89087804 0 2005
0.04450000 0.04448520 42658.26952411 0 996.41624340 0 20468.21332257 0 1130.56216922 0 -7065.07496330 0 2151
0.04550000 0.04548030 45143.46499423 0 -124.87913336 0 21482.34483152 0 2440.10922003 0 993.07889420 0 2274
0.04650000 0.04648670 44202.62252804 0 260.45374589 0 22909.23303531 0 2814.60273979 0 -1475.02067022 0 2311
0.04750000 0.04749250 44029.06688076 0 -134.73493592 0 20238.56682813 0 1118.61223343 0 2852.21395713 0 2568
0.04850000 0.04851840 44443.17245369 0 -660.91429290 0 21578.67720828 0 3953.39306534 0 3181.89100242 0 2493
0.04950000 0.04949480 44473.18499114 0 368.59667438 0 15685.76606256 0 559.58657095 0 390.18996443 0 2644
0.05050000 0.05050630 44843.90165225 0 1125.67248615 0 20798.12642152 0 2857.01371499 0 2256.84165051 0 2829
0.05150000 0.05149060 41994.95872448 0 2738.64966280 0 16669.77262755 0 -1260.06570629 0 -995.62490159 0 2784
0.05250000 0.05249300 40690.59361365 0 2380.29771749 0 19598.41176900 0 -795.25805418 0 3366.51869068 0 3055
0.05350000 0.05348950 38769.79121674 0 1628.24198034 0 16906.16351243 0 -895.76296049 0 61.47309553 0 3009
0.05450000 0.05448610 38197.52968802 0 745.74298771 0 19680.80573886 0 1600.79231125 0 7738.35622013 0 3336
0.05550000 0.05550870 37715.53058468 0 -289.48947080 0 17897.13928087 0 3893.16565873 0 5268.65036673 0 3349
0.05650000 0.05647670 38139.86514977 0 -381.60210728 0 19503.99030286 0 4389.71016412 0 8263.11475886 0 3324
0.05750000 0.05747970 38655.24898579 0 -170.04294393 0 17316.22245109 0 2575.27804507 0 7172.22084607 0 3639
0.05850000 0.05849280 37273.66060444 0 1036.58133659 0 16368.63559447 0 3696.88141566 0 8024.75676011 0 3846
0.05950000 0.05951020 37228.47318851 0 1180.47065847 0 18604.96305740 0 173.76359933 0 7564.69940699 0 3787
0.06050000 0.06049470 35211.00119531 0 2043.42665574 0 16490.70906141 0 812.81145436 0 2513.29709694 0 3930
0.06150000 0.06148310 33634.83714981 0 1849.05332330 0 16882.33333288 0 -1438.85949682 0 3805.53354563 0 4083
0.06250000 0.06249100 31387.15662964 0 1502.79631818 0 13423.36028993 0 127.12051912 0 -608.76891416 0 4303
0.06350000 0.06350600 30946.41071448 0 942.79496722 0 14041.03404760 0 241.54921949 0 514.91397682 0 4470
0.06450000 0.06451750 30596.60166373 0 -274.41800630 0 11251.66656871 0 1980.07434822 0 -3047.79003920 0 4479
0.06550000 0.06550280 30534.77808471 0 -355.64969287 0 12139.00353741 0 1662.79574068 0 -1879.33563637 0 4636
0.06650000 0.06648880 31000.14102497 0 552.56903270 0 11599.67711534 0 5.69689668 0 -2784.30918607 0 4653
0.06750000 0.06749660 30862.10583399 0 702.05619864 0 12706.31917981 0 -588.06700771 0 -513.24249205 0 5220
0.06850000 0.06852730 29483.55242835 0 563.25776748 0 13076.92343441 0 -527.74293149 0 -392.36615442 0 5029
0.06950000 0.06949320 30251.51368629 0 -230.76156699 0 14737.84198642 0 420.70833117 0 360.48429675 0 5040
0.07050000 0.07048030 29741.97498865 0 -555.43764677 0 13011.05322112 0 2746.31578660 0 -850.79248911 0 5475
0.07150000 0.07148790 30035.69319225 0 -393.88926259 0 10793.05925953 0 3256.41651677 0 -3632.43876502 0 5509
0.07250000 0.07249820 29902.04185506 0 -0.23116286 0 7080.58706131 0 3161.06207662 0 -3542.77209414 0 5916
0.07350000 0.07351270 29594.72246408 0 66.98112680 0 4276.61797711 0 3198.96555088 0 -4164.09906330 0 5721
0.07450000 0.07449140 28772.01923707 0 149.02742333 0 2808.45410384 0 1109.05543218 0 -5663.99529359 0 6028
0.07550000 0.07549160 28307.33073585 0 585.51088373 0 1622.46428586 0 984.64953021 0 -4490.44887597 0 6183
0.07650000 0.07648840 27869.17017036 0 759.61282664 0 2931.58419194 0 -496.51415563 0 -3734.14417284 0 6330
0.07750000 0.07749960 26964.97222556 0 997.03672732 0 3149.72026003 0 -1975.43195946 0 -1275.12817827 0 6583
0.07850000 0.07848650 26674.17659115 0 1221.19553607 0 5688.91581626 0 -1317.84265105 0 -876.99781816 0 6549
0.07950000 0.07947320 25769.30420730 0 1104.88964702 0 6914.50644676 0 -1292.78724057 0 1294.34969102 0 6828
0.08050000 0.08048110 24994.82337194 0 961.64666256 0 8573.91875157 0 -1272.10444323 0 996.10937363 0 7147
0.08150000 0.08149960 24713.13266462 0 607.64934535 0 9617.08486136 0 -220.47749563 0 2526.68471196 0 7386
0.08250000 0.08250610 24706.95030672 0 259.14533415 0 10630.30587760 0 -112.40987951 0 1723.14679446 0 7227
0.08350000 0.08350160 24547.33306634 0 -166.67187278 0 8656.26775883 0 701.98650661 0 1571.98252343 0 7798
0.08450000 0.08449610 24489.89334110 0 306.21106282 0 9534.38739393 0 1261.90917301 0 1137.65501983 0 7371
0.08550000 0.08548940 23882.78579512 0 614.10147887 0 7478.03398985 0 1054.62820134 0 -302.51513686 0 8256
0.08650000 0.08650700 23230.82805272 0 949.76304660 0 7704.12843866 0 679.93572207 0 599.71232186 0 8037
0.08750000 0.08749060 21986.37561030 0 988.28588072 0 6010.24105805 0 630.85342065 0 -830.10294738 0 8155
0.08850000 0.08849210 21195.14620534 0 575.80907809 0 5804.64955618 0 737.86778780 0 212.14030499 0 8718
0.08950000 0.08949900 20671.78150731 0 451.90563321 0 4507.56838703 0 73.92346509 0 -1181.62844549 0 8571
0.09050000 0.09049190 20591.18604157 0 283.76685551 0 5051.13253443 0 376.62137494 0 -1.29526018 0 8932
0.09150000 0.09150830 20109.41175124 0 120.46492982 0 4372.88290997 0 193.28860964 0 -1156.91025454 0 9285
0.09250000 0.09250820 20154.59916717 0 201.92704973 0 4993.26566447 0 -40.78737562 0 -234.22256335 0 9204
0.09350000 0.09350330 19969.24083662 0 242.89584945 0 4702.95337804 0 -140.62503690 0 -237.09117741 0 9349
0.09450000 0.09448040 20065.12358736 0 204.98338267 0 5042.71328703 0 34.76182479 0 -730.21964905 0 9564
0.09550000 0.09549270 19751.73424498 0 474.47798394 0 6034.59954819 0 -834.01469383 0 585.02079136 0 10155
0.09650000 0.09649430 19628.42430646 0 346.31096024 0 6049.02130307 0 27.35479799 0 1085.57146467 0 9913
0.09750000 0.09749140 19376.40891707 0 135.65554522 0 6802.67321263 0 882.37759360 0 2120.93094253 0 10476
0.09850000 0.09850240 19110.67993379 0 569.07255610 0 5727.58365477 0 902.04536019 0 1333.51211817 0 10575
0.09950000 0.09950330 18738.72680110 0 379.75639243 0 6481.74139361 0 1575.84930728 0 2564.62190818 0 10882
0.10050000 0.10051200 18060.69074901 0 496.25786880 0 5417.70139542 0 1030.35289202 0 2878.15737902 0 10875
0.10150000 0.10150300 17890.05767091 0 472.59967120 0 5777.04251799 0 656.83506075 0 3586.18348726 0 11118
0.10250000 0.10250800 17432.67559266 0 192.87158150 0 4577.85617605 0 706.19950250 0 3357.76222376 0 11575
0.10350000 0.10349800 16880.53482876 0 -0.17988526 0 4697.95128846 0 116.61950320 0 3172.26900540 0 11364
0.10450000 0.10450100 17192.68769956 0 80.82544946 0 4749.95053874 0 -1180.40321456 0 953.98840721 0 12093
0.10550000 0.10551000 17219.55285481 0 244.71908300 0 5286.64664855 0 -1366.49218741 0 1259.60483961 0 12067
0.10650000 0.10649700 16669.09818851 0 539.09711280 0 5360.68881491 0 -1189.95776768 0 -22.10552651 0 12054
0.10750000 0.10749900 16533.19872117 0 473.01782341 0 6896.19542672 0 -455.02716192 0 -316.25683238 0 12807
0.10850000 0.10850100 16159.10986484 0 303.93483105 0 6172.65722046 0 204.77543063 0 -1076.72057629 0 12736
0.10950000 0.10950300 16122.46534346 0 240.29139068 0 6992.76385715 0 847.70805455 0 -228.53591814 0 12933
0.11050000 0.11050200 15850.66640879 0 30.04783310 0 5964.64897869 0 982.21255713 0 -102.47550480 0 13428
0.11150000 0.11150900 15854.48823003 0 22.84842111 0 5791.48675418 0 1107.64360645 0 411.82034864 0 13453
0.11250000 0.11250000 16092.79002553 0 31.15548682 0 5615.53684828 0 216.93107033 0 726.62938520 0 13668
0.11350000 0.11349100 15911.92795527 0 128.08609101 0 5777.95301070 0 583.55838270 0 1331.06165631 0 13791
0.11450000 0.11448600 15843.02276629 0 43.55830843 0 5350.56098860 0 -66.55139672 0 1127.36982441 0 14205
0.11550000 0.11549300 15775.80367492 0 161.55625263 0 5492.69901710 0 88.89882203 0 1851.47006320 0 14776
0.11650000 0.11649800 15844.82127041 0 184.04317442 0 5193.51785724 0 268.54027003 0 905.56255980 0 14553
0.11750000 0.11747300 15691.27398142 0 132.91619863 0 5575.87983251 0 12.11966962 0 1517.17311046 0 14568
0.11850000 0.11849100 15439.03377902 0 272.66334072 0 4881.91577833 0 583.28748302 0 1156.69668217 0 16015
0.11950000 0.11950300 15049.99485722 0 308.43333947 0 4977.73108516 0 618.94170307 0 1317.12324940 0 15270
0.12050000 0.12050700 14741.21418164 0 435.49203501 0 4624.57232049 0 278.00714607 0 1545.34218120 0 15999
0.12150000 0.12150000 14440.30196157 0 371.12469673 0 4742.28441495 0 451.45825531 0 1831.73148052 0 15670
0.12250000 0.12250700 14090.38050431 0 380.92654417 0 4870.21426092 0 328.50014916 0 2111.12909509 0 16887
0.12350000 0.12352200 13746.86621797 0 149.15781487 0 4645.37876499 0 530.76891467 0 2343.65319611 0 16407
0.12450000 0.12449800 13729.55561585 0 97.15361871 0 4517.66249139 0 572.87302011 0 2687.15624180 0 16306
0.12550000 0.12549900 13610.40471810 0 8.91653379 0 4299.54890460 0 440.02426539 0 1925.43354501 0 17523
0.12650000 0.12650100 13681.67044373 0 64.66184333 0 3829.90327641 0 311.03892231 0 1991.68594042 0 17154
0.12750000 0.12750600 13352.54419033 0 205.18346625 0 3916.47876834 0 -123.50777397 0 1560.74187270 0 18007
0.12850000 0.12850300 13430.44189990 0 247.52362536 0 3749.21788547 0 -563.96255628 0 1161.19294246 0 17496
0.12950000 0.12949900 13033.42211608 0 318.28914203 0 4556.20668274 0 -601.88289152 0 1302.55536606 0 18405
0.13050000 0.13049000 12990.93245631 0 152.31306554 0 4252.19204307 0 -520.76248739 0 646.80390404 0 18100
0.13150000 0.13148800 12914.27121833 0 12.46902904 0 4904.54320825 0 -413.92459845 0 799.85772846 0 19059
0.13250000 0.13249300 13001.94829403 0 -52.69538378 0 4709.39427091 0 233.06590039 0 626.98326460 0 18957
0.13350000 0.13349100 13065.68278367 0 -102.60690800 0 4856.74796134 0 790.91129454 0 739.31108736 0 19468
0.13450000 0.13450700 13022.18146535 0 -30.08526446 0 4137.22266740 0 112.87973871 0 234.33721798 0 19953
0.13550000 0.13551000 13124.35898049 0 195.39623166 0 4308.10303981 0 280.44524322 0 251.02846025 0 19956
0.13650000 0.13649900 12850.64913519 0 269.72278649 0 3976.23406763 0 88.77877188 0 -7.91483444 0 19723
0.13750000 0.13749600 12620.32820171 0 401.89485404 0 3622.58071433 0 -20.73585322 0 -115.93494757 0 20946
0.13850000 0.13851100 12297.15949320 0 384.55165403 0 4105.17557216 0 -299.88482459 0 -243.94685029 0 20955
0.13950000 0.13949800 11951.05985719 0 444.54975137 0 4005.30239042 0 -235.69284046 0 -440.12767937 0 20506
0.14050000 0.14048300 11690.72638626 0 460.55194175 0 4286.76828472 0 91.09614443 0 -35.80563162 0 21447
0.14150000 0.14148400 11246.60827588 0 292.83019219 0 4060.64011397 0 150.11776645 0 -91.71674076 0 21771
0.14250000 0.14249400 11148.94950233 0 145.66084843 0 3879.49702744 0 449.02802662 0 -64.38959477 0 22470
0.14350000 0.14350900 11078.14464337 0 -117.55022908 0 3742.90063975 0 676.46011286 0 358.97692548 0 22519
0.14450000 0.14449900 11153.20970895 0 -171.94486204 0 3609.14813671 0 675.65753040 0 336.22022808 0 22218
0.14550000 0.14550500 11192.32717350 0 34.84084657 0 3017.13678466 0 43.60124771 0 222.13324349 0 23559
0.14650000 0.14650700 11211.34635454 0 156.53168175 0 3472.59671163 0 145.54844193 0 440.99658167 0 23044
0.14750000 0.14750500 10936.62485067 0 234.18771733 0 3269.24209925 0 -210.84088576 0 755.95062264 0 23649
0.14850000 0.14849900 10869.55188776 0 267.59380724 0 3433.68157880 0 177.97322302 0 757.92110871 0 23640
0.14950000 0.14949500 10634.31878991 0 151.03949981 0 3442.41556441 0 314.77981088 0 950.55438842 0 24457
0.15050000 0.15050000 10583.58973316 0 68.90102994 0 3155.10453173 0 612.44235882 0 888.52060923 0 24591
0.15150000 0.15149900 10492.39433378 0 12.32121449 0 2958.96641712 0 510.40647587 0 1070.81473839 0 25020
0.15250000 0.15250500 10499.38601854 0 -11.65531834 0 2711.57093519 0 373.10529939 0 735.26557716 0 25297
0.15350000 0.15350100 10507.88395049 0 19.73577252 0 2386.35642824 0 184.39388272 0 636.35122292 0 25452
0.15450000 0.15450400 10411.74266479 0 106.06397013 0 2704.69165694 0 -303.37279851 0 833.99895692 0 26061
0.15550000 0.15549900 10355.82042740 0 207.11348598 0 2473.42650880 0 202.51268763 0 761.86657711 0 26128
0.15650000 0.15649500 10159.10903961 0 197.11717528 0 2598.96209616 0 49.37073651 0 693.06030586 0 26331
0.15750000 0.15749700 9932.62116803 0 226.33612279 0 2162.18413071 0 65.40687366 0 468.19221205 0 27345
0.15850000 0.15849900 9870.57277599 0 187.54238899 0 2628.15406611 0 187.86049941 0 907.29024782 0 26980
0.15950000 0.15949700 9615.65729872 0 168.78511512 0 2302.53489574 0 10.67857323 0 345.61066770 0 27777
0.16050000 0.16050000 9543.27874866 0 166.84947506 0 2745.39405324 0 -138.98052970 0 873.31987724 0 28224
0.16150000 0.16150500 9488.86275847 0 72.06740884 0 2732.51226750 0 -224.23074891 0 832.46910436 0 28075
0.16250000 0.16249700 9441.35976848 0 59.78486220 0 3029.63638827 0 -209.08959238 0 844.60226276 0 28590
0.16350000 0.16349900 9617.65813455 0 105.93796244 0 3437.00881141 0 -231.87888767 0 1297.04744720 0 29163
0.16450000 0.16449100 9446.71031823 0 100.69610978 0 3664.83432043 0 -70.06117750 0 1037.82567663 0 28996
0.16550000 0.16550500 9494.82030336 0 138.55001278 0 3857.47659266 0 172.10110708 0 1515.63314131 0 30777
0.16650000 0.16650700 9384.07741236 0 194.41829504 0 3555.75504573 0 92.76538107 0 1091.30532061 0 29211
0.16750000 0.16749900 9244.13131076 0 180.19887187 0 3889.88338871 0 148.38445810 0 1253.06278089 0 30922
0.16850000 0.16850800 9057.50278667 0 169.73157791 0 3372.91462094 0 104.63663231 0 960.02688479 0 30867
0.16950000 0.16949900 8899.43675609 0 129.68338748 0 3375.71354298 0 182.78984186 0 810.13280729 0 30852
0.17050000 0.17049200 8816.28966263 0 71.16433496 0 2941.26239222 0 80.67448752 0 525.57460997 0 31257
0.17150000 0.17149500 8774.22714760 0 -37.35717864 0 3025.46610685 0 227.94241178 0 411.67534424 0 32608
0.17250000 0.17250900 8879.04621566 0 -57.77109962 0 2852.96708073 0 82.97117727 0 375.26462839 0 32361
0.17350000 0.17350400 8925.90848856 0 38.49113549 0 2831.64356629 0 84.77732503 0 212.06162043 0 32508
0.17450000 0.17449800 8860.99373059 0 54.47713933 0 2705.62463095 0 -39.18816824 0 301.81596839 0 32791
0.17550000 0.17549800 8813.61438776 0 128.57843152 0 2813.80465358 0 32.80696322 0 269.43727396 0 33633
0.17650000 0.17650100 8643.48713894 0 198.92129973 0 2744.37115402 0 -11.54347386 0 345.76129242 0 33984
0.17750000 0.17750300 8501.22546329 0 243.52869809 0 2732.93941223 0 134.61915722 0 -216.96479228 0 34069
0.17850000 0.17849800 8294.79091262 0 203.88404702 0 2731.09594551 0 -30.06626776 0 88.96559150 0 34536
