### header ###
fiducial parameters:
Omega_m = 0.31
Omega_nu = 0
Omega_de = 0.69
Omega_k = 0
H_0 = 100
w_de = -1
zeff = 0
beta = 0
fgrowth = 0
b_1 = 2
gamma = 0.55
Lx = 3500 Ly = 3500 Lz = 3500
nx = 700 ny = 700 nz = 700
xoffset = 857.220397 yoffset = 15.9954215 zoffset = 262.898189
bins = 400 dk = 0.001
kx_ny = 0.628318531 ky_ny = 0.628318531 kz_ny = 0.628318531
############################
A(data) = 3.07795741 (not used)
A(ran) = 3.07856684 (used)
Ngal = 187937
weighted Ngal = 0
Nran = 9360983
weighted Nran = 0
SN(data) = 3438.83991
SN(ran) = 69.1330415
SN(data+ran) = 3507.97296
############################
13 columns: k_central k_mean P_0(k) sigma^{lin}_{P_0(k)} P^img_1(k) sigma^{lin}_{P_1(k)} P_2(k) sigma^{lin}_{P_2(k)} P^img_3(k) sigma^{lin}_{P_3(k)} P_4(k) sigma^{lin}_{P_4(k)} N_modes
### header ###
0.00050000 0 0 0 0 0 0 0 0 0 0 0 0
0.00150000 0.00179520 88263.27563735 0 -120391.86558921 0 -136744.76427265 0 233958.40805456 0 19650.11876237 0 3
0.00250000 0.00253879 142795.60656115 0 -109855.77884603 0 -28931.97369698 0 -170518.42345899 0 -70065.78616895 0 6
0.00350000 0.00331552 197119.42341388 0 -74392.98707435 0 -141409.63432601 0 -4024.05179584 0 82160.61394899 0 7
0.00450000 0.00420575 218918.41737649 0 -28440.86966654 0 -100684.86913414 0 -104252.98889568 0 20520.14512895 0 24
0.00550000 0.00557378 201689.87200110 0 30895.37816016 0 -114871.58201522 0 -112231.71519104 0 32775.37699492 0 45
0.00650000 0.00659388 151022.63883116 0 29627.99479024 0 -19128.77738146 0 -36303.81725937 0 19861.44299611 0 40
0.00750000 0.00754703 124683.54603830 0 36983.76422209 0 -62990.47097284 0 -59921.99813629 0 17006.76733647 0 57
0.00850000 0.00846663 98765.07839580 0 21125.90379684 0 4104.19763555 0 -36937.22792807 0 6874.53469276 0 75
0.00950000 0.00948925 78726.59515067 0 15038.30458046 0 14480.09386516 0 -25273.36669705 0 31174.48351781 0 112
0.01050000 0.01054430 77452.80460984 0 10077.49067465 0 37358.75233048 0 -4261.79155880 0 10483.67158881 0 105
0.01150000 0.01145670 75999.38847032 0 -4026.78327397 0 43349.56954407 0 7435.62301465 0 17572.39688125 0 144
0.01250000 0.01249090 78267.18975530 0 -5837.91064170 0 43438.37068484 0 20447.86774475 0 -8506.16010896 0 169
0.01350000 0.01339930 83428.89657097 0 -2971.48850204 0 30981.81876428 0 14358.02039822 0 -1496.87249524 0 180
0.01450000 0.01448870 81610.83372174 0 -600.87235702 0 16327.83203232 0 14408.04129397 0 -14003.49027416 0 267
0.01550000 0.01550050 73410.66660697 0 -1701.57598571 0 -3481.82528588 0 5142.66515333 0 -40860.77706572 0 238
0.01650000 0.01653350 74550.69340411 0 -214.32661155 0 -3578.02277483 0 2796.49405146 0 -23075.03263359 0 315
0.01750000 0.01747870 74057.22883702 0 -5507.97506144 0 -20705.61586601 0 4214.25484686 0 -46049.01181711 0 297
0.01850000 0.01844180 73464.50932397 0 -1031.33420083 0 -13869.50171745 0 -4872.32750325 0 -17662.32208710 0 388
0.01950000 0.01947590 75282.90939273 0 1951.50061406 0 -14468.51599490 0 -8377.91552477 0 -14438.50345745 0 399
0.02050000 0.02045430 74895.33175552 0 5421.72554838 0 -7614.37184257 0 -3420.82227436 0 -3303.88578481 0 462
0.02150000 0.02154770 71125.77953288 0 7690.11134720 0 6252.80306018 0 -7682.79368357 0 12511.06907661 0 571
0.02250000 0.02255340 69082.22922999 0 6969.06856541 0 16311.08346273 0 -5639.02980831 0 23710.91624545 0 510
0.02350000 0.02348930 61436.67582229 0 5204.18523478 0 17389.62390037 0 492.68446593 0 17898.26334594 0 555
0.02450000 0.02439640 59869.39189087 0 4629.81046373 0 25186.25165389 0 1694.43817249 0 12989.80839124 0 592
0.02550000 0.02547300 58005.91681268 0 2146.35729448 0 21866.88749303 0 7670.76618729 0 16020.62504784 0 837
0.02650000 0.02652900 57058.89198860 0 277.32259044 0 28673.55113667 0 9270.98522535 0 12107.30490235 0 723
0.02750000 0.02749970 61599.55285138 0 -1761.40996955 0 22748.04210383 0 6236.42543206 0 30596.82647674 0 826
0.02850000 0.02848090 58604.59387062 0 -325.36400760 0 20186.97224128 0 9385.88715712 0 6685.50066942 0 831
0.02950000 0.02946900 66723.82830012 0 -2131.11497209 0 32145.67574097 0 2494.12054680 0 31553.96788649 0 996
0.03050000 0.03053250 63975.37678988 0 2643.93593974 0 33996.89850985 0 -2947.34358427 0 27600.51861789 0 1041
0.03150000 0.03150510 65383.83032648 0 2857.65443209 0 41257.79684954 0 -9645.72603942 0 27585.23133290 0 1036
0.03250000 0.03246190 66196.07974830 0 2743.17964504 0 47323.81401652 0 -5702.79801991 0 29196.69102169 0 1059
0.03350000 0.03345080 64903.18010122 0 2418.38104217 0 55164.16790138 0 -625.90191400 0 22056.40486435 0 1302
0.03450000 0.03451200 64515.26524449 0 -15.02425377 0 50477.26617259 0 8990.38486115 0 23576.25324969 0 1339
0.03550000 0.03553350 64010.67243318 0 328.12133923 0 44234.65838263 0 11351.48354720 0 9974.93097738 0 1365
0.03650000 0.03647120 61624.73190902 0 2755.57808280 0 34936.95413049 0 10497.27277620 0 4108.03069745 0 1308
0.03750000 0.03744890 57758.62249660 0 3980.38186775 0 35389.05310289 0 7654.34359657 0 3742.00138770 0 1579
0.03850000 0.03847530 53617.56676731 0 5495.99252776 0 30417.87531711 0 5233.45588929 0 6123.41192961 0 1662
0.03950000 0.03950240 48160.90527645 0 4592.78376022 0 27105.14314018 0 3289.70008358 0 6575.88184349 0 1683
0.04050000 0.04050350 41939.65472288 0 3308.24715729 0 25855.07037238 0 5792.54337535 0 4047.18505504 0 1822
0.04150000 0.04152450 41561.29441927 0 -198.93366444 0 23302.54340439 0 8198.87443993 0 4695.12988513 0 1887
0.04250000 0.04250150 39050.47026549 0 117.27820534 0 19583.23689052 0 7478.69718825 0 2888.47629639 0 1920
0.04350000 0.04349210 40148.45702890 0 -557.75209675 0 14679.50300912 0 2967.64419949 0 4794.78949451 0 2005
0.04450000 0.04448520 39265.72872699 0 -407.27687761 0 15130.81513597 0 2720.42856796 0 2882.35014174 0 2151
0.04550000 0.04548030 40538.17038974 0 -185.85179512 0 15069.21636997 0 -1013.53463040 0 4280.02389428 0 2274
0.04650000 0.04648670 40491.85890873 0 143.07999502 0 13875.57166884 0 -1760.97158417 0 2378.76898899 0 2311
0.04750000 0.04749250 41937.18177972 0 114.77266429 0 20138.97466266 0 -1035.58316681 0 3025.82580767 0 2568
0.04850000 0.04851840 41175.51528619 0 968.64284357 0 17038.57837804 0 -1635.35731225 0 3503.83448001 0 2493
0.04950000 0.04949480 42261.58695981 0 173.42300761 0 21691.64574813 0 1596.29605096 0 3911.63404788 0 2644
0.05050000 0.05050630 40401.82129637 0 1220.99320435 0 19594.14032173 0 -119.03736718 0 4655.95621733 0 2829
0.05150000 0.05149060 41482.49745765 0 880.35877273 0 20948.30151529 0 2044.21350129 0 5239.42467483 0 2784
0.05250000 0.05249300 40403.84461350 0 696.27962823 0 19118.88560882 0 -926.01717193 0 5014.88143582 0 3055
0.05350000 0.05348950 39699.28062569 0 393.61049445 0 19295.25141879 0 250.76430496 0 -624.14724842 0 3009
0.05450000 0.05448610 39916.78721733 0 -344.65633645 0 18504.02201384 0 -446.81137030 0 1655.05093233 0 3336
0.05550000 0.05550870 40014.91809821 0 -355.00672765 0 19502.30420525 0 1541.71145101 0 -1765.95119244 0 3349
0.05650000 0.05647670 40125.63850791 0 841.59651275 0 17662.43449361 0 -524.75179434 0 -2911.01380111 0 3324
0.05750000 0.05747970 39117.01491782 0 614.01267772 0 18895.87109832 0 2611.33805262 0 728.69654087 0 3639
0.05850000 0.05849280 37641.67950938 0 1728.83456373 0 16423.71478305 0 3694.61080421 0 -2259.24714977 0 3846
0.05950000 0.05951020 37903.24945189 0 1180.35825196 0 17332.18417513 0 2786.75964793 0 4015.63254844 0 3787
0.06050000 0.06049470 35472.90835734 0 1340.24526796 0 16366.83709035 0 4390.93539505 0 4424.66858789 0 3930
0.06150000 0.06148310 35367.92067951 0 885.64862296 0 16556.01724215 0 2644.84643245 0 9371.25182987 0 4083
0.06250000 0.06249100 33982.62288343 0 618.22792175 0 14911.84725973 0 2457.27369370 0 8178.82111903 0 4303
0.06350000 0.06350600 34709.44335969 0 368.16390933 0 14209.41899555 0 1024.88319137 0 9150.44048691 0 4470
0.06450000 0.06451750 32947.80857713 0 247.60343398 0 11460.96748532 0 493.81415133 0 6331.38644944 0 4479
0.06550000 0.06550280 33033.12511618 0 237.98256102 0 12089.88189372 0 1510.92330866 0 4918.65022491 0 4636
0.06650000 0.06648880 32343.51119383 0 508.53265940 0 10066.74461255 0 -136.97070135 0 2445.27991937 0 4653
0.06750000 0.06749660 31199.21294942 0 942.11940411 0 10585.97275112 0 -85.70782610 0 1120.01057038 0 5220
0.06850000 0.06852730 31112.21031276 0 184.13984401 0 8374.92551168 0 1951.06222868 0 2275.27631771 0 5029
0.06950000 0.06949320 30158.77831776 0 357.84948822 0 9808.32205225 0 722.55914557 0 120.14344721 0 5040
0.07050000 0.07048030 30583.89972840 0 274.81367720 0 6256.09657084 0 1264.25846902 0 461.25673055 0 5475
0.07150000 0.07148790 30142.36696769 0 297.06566939 0 9203.85605919 0 985.53304536 0 1399.29240625 0 5509
0.07250000 0.07249820 30261.96749147 0 456.34569025 0 8228.07765053 0 266.15387988 0 3704.91848093 0 5916
0.07350000 0.07351270 29884.73125293 0 344.46299726 0 8888.49960293 0 1083.13561566 0 4582.56600871 0 5721
0.07450000 0.07449140 30241.39710063 0 302.44544483 0 10573.60803531 0 1440.98397981 0 8897.72817718 0 6028
0.07550000 0.07549160 29873.49060220 0 162.85117560 0 10518.00053615 0 991.06906585 0 8604.15610204 0 6183
0.07650000 0.07648840 30228.58275880 0 160.71432789 0 10954.47500403 0 1287.17815586 0 9603.75344959 0 6330
0.07750000 0.07749960 29390.81705982 0 315.98930489 0 11016.43347086 0 9.82404772 0 9318.28588363 0 6583
0.07850000 0.07848650 29736.80428932 0 962.60549006 0 10475.03876905 0 -793.77653641 0 6593.21492691 0 6549
0.07950000 0.07947320 28348.47151753 0 840.64330557 0 11854.50266741 0 -1343.39265016 0 6789.37552282 0 6828
0.08050000 0.08048110 27618.50365906 0 1122.02377093 0 9782.82825639 0 -796.61704885 0 2528.23592176 0 7147
0.08150000 0.08149960 26727.68208863 0 738.32191009 0 10819.77828632 0 195.81550793 0 4126.52156790 0 7386
0.08250000 0.08250610 25685.56135936 0 744.30755661 0 7987.66261270 0 1371.41559243 0 21.05564973 0 7227
0.08350000 0.08350160 24795.41422797 0 846.25126622 0 8009.04233039 0 2102.67612574 0 959.41539339 0 7798
0.08450000 0.08449610 23732.27348183 0 1071.59146736 0 6348.37107269 0 2252.61516584 0 -378.05006164 0 7371
0.08550000 0.08548940 22669.91958125 0 581.93635680 0 5421.79299228 0 2339.38174883 0 1116.77326297 0 8256
0.08650000 0.08650700 21919.04411242 0 505.83715135 0 3910.65611126 0 1424.85364601 0 687.41412700 0 8037
0.08750000 0.08749060 21957.59954443 0 3.98023574 0 4412.06781842 0 825.85398140 0 1490.01569830 0 8155
0.08850000 0.08849210 21470.42974174 0 294.62420005 0 3989.08213141 0 -431.58141262 0 1101.50508708 0 8718
0.08950000 0.08949900 21389.94668251 0 482.13623928 0 3360.78595881 0 -629.66303574 0 877.87458892 0 8571
0.09050000 0.09049190 21315.87079419 0 426.20276125 0 4297.41318097 0 -684.42748610 0 819.14556104 0 8932
0.09150000 0.09150830 20992.47727266 0 388.61852146 0 5210.82845937 0 -1244.74469935 0 -347.30126157 0 9285
0.09250000 0.09250820 20748.89237132 0 526.04222104 0 5041.02718942 0 -192.29606019 0 -810.43518079 0 9204
0.09350000 0.09350330 19942.37568137 0 616.76214089 0 5639.11973352 0 -99.63926380 0 86.98521365 0 9349
0.09450000 0.09448040 19554.79804417 0 737.51595544 0 5636.24212693 0 43.36654293 0 -730.74458744 0 9564
0.09550000 0.09549270 19230.73008359 0 369.39700871 0 6308.44428129 0 328.40685176 0 642.24357204 0 10155
0.09650000 0.09649430 18483.00199697 0 463.63188005 0 5949.80007907 0 365.99896000 0 73.60254451 0 9913
0.09750000 0.09749140 18794.14320920 0 209.84946037 0 6339.35607080 0 50.32529257 0 1206.80750313 0 10476
0.09850000 0.09850240 18200.41203759 0 -63.16807325 0 5699.32465883 0 179.69304259 0 409.07313360 0 10575
0.09950000 0.09950330 18459.62144345 0 7.68029826 0 5733.78849397 0 -58.13248654 0 1163.65464497 0 10882
0.10050000 0.10051200 18326.30732578 0 -258.95087089 0 5187.56031235 0 963.92963872 0 768.39065080 0 10875
0.10150000 0.10150300 18507.05698953 0 39.64251534 0 4788.70830246 0 686.09559867 0 1746.23509106 0 11118
0.10250000 0.10250800 18226.71516030 0 365.76065820 0 4636.75718588 0 1000.51008839 0 1466.12931549 0 11575
0.10350000 0.10349800 17984.02951102 0 512.69844456 0 4680.47207658 0 375.90646955 0 2418.22367306 0 11364
0.10450000 0.10450100 17329.93604498 0 760.77510993 0 4771.93725157 0 -477.46912110 0 2215.88071925 0 12093
0.10550000 0.10551000 16868.28251946 0 801.36622378 0 5303.68747505 0 -470.92481424 0 2553.51614526 0 12067
0.10650000 0.10649700 16263.19829061 0 540.98441806 0 6636.16545336 0 -1362.69284747 0 2299.01657206 0 12054
0.10750000 0.10749900 16030.96644651 0 354.72795951 0 6369.96436275 0 -651.81611020 0 1923.09548966 0 12807
0.10850000 0.10850100 15852.35250639 0 198.18166491 0 7247.92662874 0 -893.73851930 0 1071.72523110 0 12736
0.10950000 0.10950300 15849.20512419 0 -46.90633625 0 6940.16885238 0 226.86106118 0 507.56483937 0 12933
0.11050000 0.11050200 15904.28431277 0 20.31129384 0 7005.34214531 0 818.49809956 0 -1098.86128603 0 13428
0.11150000 0.11150900 15577.85581554 0 -29.19050866 0 5770.93884464 0 995.10108726 0 -606.33306515 0 13453
0.11250000 0.11250000 15518.72999270 0 33.15002788 0 5056.38191832 0 1000.99793264 0 -1905.12168914 0 13668
0.11350000 0.11349100 15555.26210757 0 209.24134116 0 5164.07859298 0 1017.71278027 0 -804.88454746 0 13791
0.11450000 0.11448600 15142.05578670 0 224.46567851 0 4790.64169439 0 322.27732491 0 -1001.97362112 0 14205
0.11550000 0.11549300 15069.44118298 0 182.14687664 0 5127.49027485 0 10.73139305 0 -553.07261385 0 14776
0.11650000 0.11649800 15197.80941433 0 10.20344217 0 5188.13358554 0 -183.92964385 0 251.73549719 0 14553
0.11750000 0.11747300 15219.50387024 0 -103.34418228 0 5248.96798730 0 295.15138657 0 190.35255167 0 14568
0.11850000 0.11849100 15542.22295273 0 -225.12887691 0 4897.91122432 0 151.69145755 0 606.83889443 0 16015
0.11950000 0.11950300 15717.46469762 0 -122.09932044 0 4678.98831068 0 968.21007852 0 -259.53650879 0 15270
0.12050000 0.12050700 15607.19391395 0 131.13343143 0 4059.44860499 0 619.16988828 0 586.48320002 0 15999
0.12150000 0.12150000 15285.26167702 0 285.76319508 0 3406.38927882 0 780.91273571 0 -363.02355975 0 15670
0.12250000 0.12250700 14914.43260940 0 537.09852510 0 3345.17269494 0 137.52823763 0 40.77546053 0 16887
0.12350000 0.12352200 14349.25269065 0 637.86421451 0 2907.38307092 0 -110.39510527 0 -601.55691265 0 16407
0.12450000 0.12449800 13820.71729328 0 718.65751571 0 3297.41116998 0 -384.03570816 0 -71.93746692 0 16306
0.12550000 0.12549900 13339.72984850 0 530.99035549 0 3366.21519311 0 -570.62264184 0 -697.71056307 0 17523
0.12650000 0.12650100 12937.98899137 0 310.13067773 0 3813.69425806 0 -408.77076009 0 -390.04271191 0 17154
0.12750000 0.12750600 12910.22458407 0 144.09052953 0 3790.53851755 0 -96.35485807 0 -659.58789611 0 18007
0.12850000 0.12850300 12756.22766905 0 120.40872657 0 3843.06607842 0 -94.08368459 0 -1031.59835612 0 17496
0.12950000 0.12949900 12807.93466241 0 87.77543140 0 3962.58791764 0 68.34776511 0 -709.19625998 0 18405
0.13050000 0.13049000 12610.99846161 0 111.64495322 0 3923.94256043 0 11.92464433 0 -1424.60635169 0 18100
0.13150000 0.13148800 12694.85371606 0 -25.72467882 0 3636.11445781 0 293.62603026 0 -738.35450798 0 19059
0.13250000 0.13249300 12811.98129668 0 -81.10736498 0 3774.81284718 0 399.56579121 0 -971.79472204 0 18957
0.13350000 0.13349100 12747.23514847 0 -48.11875284 0 3412.80769039 0 568.66901674 0 -832.55678143 0 19468
0.13450000 0.13450700 12942.03562563 0 36.80121605 0 3451.08210613 0 276.57958343 0 -488.15673182 0 19953
0.13550000 0.13551000 12749.59568512 0 151.73417202 0 3193.74988894 0 369.45995636 0 -321.22182781 0 19956
0.13650000 0.13649900 12662.14342243 0 199.56426495 0 3248.43565475 0 421.16807378 0 84.41717458 0 19723
0.13750000 0.13749600 12404.39530117 0 212.36062174 0 3255.53974601 0 339.67335598 0 119.42179743 0 20946
0.13850000 0.13851100 12176.32249784 0 132.08888674 0 2969.84736703 0 302.72870923 0 560.17782918 0 20955
0.13950000 0.13949800 12168.22922931 0 72.06111408 0 3144.13365662 0 427.72811755 0 824.27916623 0 20506
0.14050000 0.14048300 12225.33173503 0 -60.36161999 0 2359.62616080 0 250.87221521 0 875.57362771 0 21447
0.14150000 0.14148400 12178.23340846 0 33.73678985 0 3025.18509058 0 273.10285016 0 1228.86165986 0 21771
0.14250000 0.14249400 12124.50309797 0 48.63986940 0 2445.53845434 0 104.19071569 0 1450.85327115 0 22470
0.14350000 0.14350900 12218.25012507 0 213.66678535 0 2645.27357717 0 96.30022850 0 1665.85319768 0 22519
0.14450000 0.14449900 11807.74156037 0 247.13582291 0 2522.63807770 0 103.85124804 0 1153.72915038 0 22218
0.14550000 0.14550500 11654.53149091 0 283.87251763 0 2343.25977333 0 300.35805599 0 1123.67165032 0 23559
0.14650000 0.14650700 11408.13642688 0 147.14573839 0 2095.53831253 0 463.72068119 0 784.64463176 0 23044
0.14750000 0.14750500 11213.21230256 0 222.36817309 0 1845.90594109 0 117.05788858 0 794.83428164 0 23649
0.14850000 0.14849900 11009.10456658 0 168.80534829 0 1823.12114206 0 -37.29614191 0 108.91887061 0 23640
0.14950000 0.14949500 10823.62258887 0 248.48694912 0 1726.12556690 0 -313.69283995 0 179.97967918 0 24457
0.15050000 0.15050000 10625.65224820 0 246.65697119 0 2052.01451289 0 -431.10705716 0 188.41915975 0 24591
0.15150000 0.15149900 10566.76247902 0 231.80582344 0 1997.39619099 0 -153.00998588 0 317.25050591 0 25020
0.15250000 0.15250500 10451.63573423 0 165.59164624 0 2666.81066398 0 -263.21782191 0 530.39347694 0 25297
0.15350000 0.15350100 10330.16926243 0 215.86208444 0 2647.85892684 0 43.94790938 0 448.17036497 0 25452
0.15450000 0.15450400 10200.67696601 0 237.25866311 0 3279.90947680 0 11.20083635 0 1162.59802380 0 26061
0.15550000 0.15549900 9941.51252276 0 283.06206671 0 2880.19193680 0 99.47863490 0 1044.22835128 0 26128
0.15650000 0.15649500 9900.55159149 0 122.01838775 0 3283.86618585 0 140.53398763 0 1290.35926001 0 26331
0.15750000 0.15749700 9689.37348621 0 187.92007486 0 2942.01551582 0 -100.97038166 0 909.30457243 0 27345
0.15850000 0.15849900 9607.37293913 0 116.04623002 0 3172.74111273 0 146.92429757 0 1344.41554938 0 26980
0.15950000 0.15949700 9461.94139997 0 55.74969340 0 3040.32624712 0 132.92406709 0 987.53050900 0 27777
0.16050000 0.16050000 9526.85615794 0 -7.10545138 0 2904.71903670 0 176.20731679 0 995.30229491 0 28224
0.16150000 0.16150500 9594.83961356 0 0.72329428 0 3037.15638361 0 -2.87110949 0 792.85143085 0 28075
0.16250000 0.16249700 9565.73756882 0 115.00646982 0 3041.25922113 0 -40.08775751 0 747.43245751 0 28590
0.16350000 0.16349900 9476.17206380 0 138.11275147 0 3542.83953804 0 -135.82527904 0 1402.41730715 0 29163
0.16450000 0.16449100 9455.34313799 0 167.44410548 0 3276.17758075 0 -5.45568355 0 1217.69969369 0 28996
0.16550000 0.16550500 9299.40159040 0 88.05712210 0 3427.79147781 0 207.16069671 0 1462.15012514 0 30777
0.16650000 0.16650700 9258.19336482 0 153.90024542 0 3247.33407098 0 65.01817196 0 1262.28011449 0 29211
0.16750000 0.16749900 9166.86307763 0 21.94871943 0 3137.61407919 0 360.36851805 0 1230.13185340 0 30922
0.16850000 0.16850800 9092.40500719 0 14.92466160 0 2784.88245925 0 330.97196825 0 1078.13240202 0 30867
0.16950000 0.16949900 9123.58657232 0 47.31212374 0 2714.30241331 0 -34.09075794 0 662.80384629 0 30852
0.17050000 0.17049200 9044.92449850 0 59.35906635 0 2523.69469887 0 -2.39937310 0 153.46972850 0 31257
0.17150000 0.17149500 8941.29693941 0 154.68147064 0 2891.57871599 0 -172.56759409 0 438.79116600 0 32608
0.17250000 0.17250900 8841.25514791 0 196.63944763 0 2661.65120529 0 -122.00827116 0 440.92576557 0 32361
0.17350000 0.17350400 8774.95778989 0 170.38016345 0 3104.90378557 0 88.09320459 0 565.49915323 0 32508
0.17450000 0.17449800 8647.92719598 0 100.70319139 0 3017.64261394 0 302.27908320 0 727.04641335 0 32791
0.17550000 0.17549800 8663.76527286 0 13.43875998 0 2909.85601408 0 447.77244593 0 922.36620858 0 33633
0.17650000 0.17650100 8531.62018287 0 29.32460963 0 2672.30734218 0 402.97732871 0 798.85618648 0 33984
0.17750000 0.17750300 8414.48136160 0 39.90768229 0 2488.07307670 0 360.43483788 0 948.51196218 0 34069
