### header ###
fiducial parameters:
Omega_m = 0.31
Omega_nu = 0
Omega_de = 0.69
Omega_k = 0
H_0 = 100
w_de = -1
zeff = 0
beta = 0
fgrowth = 0
b_1 = 2
gamma = 0.55
Lx = 3500 Ly = 3500 Lz = 3500
nx = 700 ny = 700 nz = 700
xoffset = 857.220397 yoffset = 15.9954215 zoffset = 262.898189
bins = 400 dk = 0.001
kx_ny = 0.628318531 ky_ny = 0.628318531 kz_ny = 0.628318531
############################
A(data) = 3.05064362 (not used)
A(ran) = 3.04772479 (used)
Ngal = 186343
weighted Ngal = 0
Nran = 9360983
weighted Nran = 0
SN(data) = 3451.4597
SN(ran) = 68.4404448
SN(data+ran) = 3519.90014
############################
13 columns: k_central k_mean P_0(k) sigma^{lin}_{P_0(k)} P^img_1(k) sigma^{lin}_{P_1(k)} P_2(k) sigma^{lin}_{P_2(k)} P^img_3(k) sigma^{lin}_{P_3(k)} P_4(k) sigma^{lin}_{P_4(k)} N_modes
### header ###
0.00050000 0 0 0 0 0 0 0 0 0 0 0 0
0.00150000 0.00179520 6415.46651690 0 -15043.70009281 0 -1474.12141816 0 6645.07928939 0 42937.15006875 0 3
0.00250000 0.00253879 16103.91826975 0 -19147.88648771 0 -4812.31366900 0 -12882.12295724 0 -27375.36838375 0 6
0.00350000 0.00331552 27141.00081601 0 -19960.47312905 0 -5991.63778109 0 -3599.08775430 0 25069.34888629 0 7
0.00450000 0.00420575 41924.25503138 0 -17039.81484962 0 -2676.81484313 0 -18603.16455328 0 987.28883500 0 24
0.00550000 0.00557378 54564.70399790 0 -4626.92161649 0 5107.92030192 0 -22635.86040953 0 14399.04877339 0 45
0.00650000 0.00659388 61619.56120968 0 3932.47421433 0 13207.20257638 0 -16476.65824799 0 -16635.37623632 0 40
0.00750000 0.00754703 53424.00276172 0 7518.53405444 0 12306.82645283 0 -7072.85349360 0 15542.22295273 0 57
0.00850000 0.00846663 53904.31576745 0 5329.03514245 0 16437.87800297 0 7031.06075419 0 -3661.28227480 0 75
0.00950000 0.00948925 47186.34085808 0 3091.31383883 0 8714.75286458 0 10197.72067487 0 6059.35146110 0 112
0.01050000 0.01054430 51495.21950279 0 -1092.38554714 0 15692.17323348 0 11234.55829829 0 -9567.07520626 0 105
0.01150000 0.01145670 48168.21169943 0 601.08930158 0 9266.12926424 0 8265.07063209 0 2096.20151092 0 144
0.01250000 0.01249090 51175.53539600 0 421.31757444 0 11691.40082530 0 5852.33239658 0 3913.85969672 0 169
0.01350000 0.01339930 50733.66541576 0 646.23962337 0 19067.96546101 0 8132.27358435 0 20307.02239109 0 180
0.01450000 0.01448870 50802.68301125 0 2453.76661067 0 21703.11121188 0 5758.29311257 0 21921.40464907 0 267
0.01550000 0.01550050 52011.61499737 0 2720.42856796 0 24157.61970549 0 15082.48033783 0 15289.08349826 0 238
0.01650000 0.01653350 50551.34206091 0 1229.35624850 0 26281.31584810 0 13640.08003603 0 28690.41211277 0 315
0.01750000 0.01747870 56729.42851567 0 -683.02240476 0 18702.30709273 0 16850.85951083 0 26830.30922980 0 297
0.01850000 0.01844180 53739.64023424 0 190.11987020 0 18857.20325980 0 10671.99745116 0 28069.70337940 0 388
0.01950000 0.01947590 55584.34342571 0 -3347.74680396 0 7710.94027300 0 9791.51727940 0 9223.07757194 0 399
0.02050000 0.02045430 56979.42058793 0 -2667.90100710 0 13235.97864225 0 609.57037256 0 11861.35946436 0 462
0.02150000 0.02154770 60028.78431823 0 -3959.26068502 0 2346.14862057 0 -2120.43635389 0 -780.64633229 0 571
0.02250000 0.02255340 64686.57276163 0 -2988.22583098 0 8165.89437069 0 -6756.45165683 0 -7223.73674837 0 510
0.02350000 0.02348930 66830.95170159 0 -1587.51710274 0 -2924.64871044 0 -3919.50250339 0 -14600.14401496 0 555
0.02450000 0.02439640 64433.20849416 0 1261.11108681 0 3858.36460406 0 -5638.38909122 0 -20246.88490968 0 592
0.02550000 0.02547300 64318.32904369 0 2206.25872223 0 4409.53867201 0 -4568.84117417 0 -14745.59803542 0 837
0.02650000 0.02652900 63089.72591879 0 2930.72990249 0 11337.65754680 0 -7420.95396544 0 -18683.64761252 0 723
0.02750000 0.02749970 61521.87995483 0 4157.47832002 0 19142.15375583 0 -10873.98070415 0 -20670.88225525 0 826
0.02850000 0.02848090 59203.27092855 0 3512.13008025 0 24084.89269527 0 -11018.81648882 0 -13547.79429353 0 831
0.02950000 0.02946900 56629.04950465 0 1692.96564725 0 25843.26768911 0 -7442.22127663 0 -11582.47891972 0 996
0.03050000 0.03053250 58350.77997711 0 -840.95129940 0 27565.67260062 0 2669.73323317 0 -7025.58655728 0 1041
0.03150000 0.03150510 57941.84510352 0 -2033.27634813 0 23719.34673349 0 10636.38706965 0 -16339.74712209 0 1036
0.03250000 0.03246190 60891.95388787 0 -2741.49354743 0 15788.61801675 0 14134.44385518 0 -3434.81688452 0 1059
0.03350000 0.03345080 57745.13371573 0 151.40482096 0 9746.04884720 0 15146.10242097 0 -13345.91220640 0 1302
0.03450000 0.03451200 56256.98396545 0 2250.34455439 0 -1324.51959758 0 10717.20734840 0 -2430.19496609 0 1339
0.03550000 0.03553350 53472.11274685 0 2090.44629774 0 -6756.68771049 0 4696.35511606 0 3135.47835555 0 1365
0.03650000 0.03647120 52687.40291932 0 853.16988674 0 -3215.30945704 0 -620.55698458 0 5027.36979879 0 1308
0.03750000 0.03744890 52462.25268517 0 1733.71300615 0 -1533.11235320 0 -7255.23305172 0 10548.74371590 0 1579
0.03850000 0.03847530 51912.80967744 0 1124.26740481 0 9931.55330621 0 -7365.62748254 0 11575.28490325 0 1662
0.03950000 0.03950240 52486.64489726 0 3286.40657292 0 14636.56372333 0 -10044.42068020 0 16723.72775106 0 1683
0.04050000 0.04050350 51690.13238646 0 2393.23570648 0 29765.13072916 0 -4091.51818153 0 12193.52069346 0 1822
0.04150000 0.04152450 51133.94498829 0 2947.72576639 0 30377.74619400 0 -1533.83175485 0 16191.59534546 0 1887
0.04250000 0.04250150 48644.59047741 0 999.91995423 0 32871.25974565 0 3975.63831314 0 7877.80773310 0 1920
0.04350000 0.04349210 48806.23103492 0 1155.94355857 0 31843.86426884 0 4179.88093692 0 12761.84799442 0 2005
0.04450000 0.04448520 47890.56762637 0 289.41977876 0 27872.20514606 0 7561.04619550 0 7372.65288925 0 2151
0.04550000 0.04548030 47234.22603019 0 716.93882021 0 24006.32054666 0 5343.59178515 0 6686.81582555 0 2274
0.04650000 0.04648670 45918.84508165 0 1290.38174131 0 19715.20213010 0 3713.10167467 0 4665.29719809 0 2311
0.04750000 0.04749250 43461.86364487 0 2159.75615015 0 16639.98490312 0 2666.22615014 0 -1203.24421685 0 2568
0.04850000 0.04851840 40972.17191446 0 2265.12601010 0 15072.02653265 0 -469.73780153 0 -519.34166914 0 2493
0.04950000 0.04949480 40098.54853965 0 2740.22335390 0 18567.41928396 0 -1398.30322898 0 -202.87463659 0 2644
0.05050000 0.05050630 37100.77939620 0 2142.85021145 0 19511.74635187 0 -1773.48242843 0 161.51466222 0 2829
0.05150000 0.05149060 36518.85090786 0 1511.45161924 0 19694.63173926 0 602.42806308 0 -1086.94844439 0 2784
0.05250000 0.05249300 35327.11711736 0 1245.85752377 0 22417.00493980 0 -363.94978937 0 -267.10483893 0 3055
0.05350000 0.05348950 35852.05550650 0 195.63790565 0 21879.70183486 0 3423.69988095 0 248.32171156 0 3009
0.05450000 0.05448610 35478.30386969 0 -199.02583778 0 24110.85859845 0 3462.01925929 0 2700.15043404 0 3336
0.05550000 0.05550870 34844.66838798 0 342.74879802 0 20990.56636204 0 3043.70968299 0 917.24834030 0 3349
0.05650000 0.05647670 34974.94752996 0 234.19670985 0 19944.17418549 0 3553.46195299 0 -391.97048351 0 3324
0.05750000 0.05747970 34678.30675717 0 453.24664284 0 17828.68371792 0 1041.83184455 0 1177.41320147 0 3639
0.05850000 0.05849280 34516.32898013 0 43.20186739 0 16637.28714694 0 1875.51381512 0 -1224.87122885 0 3846
0.05950000 0.05951020 34037.25244598 0 -365.24696046 0 15248.27993611 0 3068.27050483 0 -366.12035902 0 3787
0.06050000 0.06049470 33795.57845526 0 84.42167084 0 14500.77666250 0 1380.27322521 0 -1313.71733223 0 3930
0.06150000 0.06148310 33354.27050756 0 530.17316018 0 12641.68543810 0 1186.95651394 0 -1773.28009672 0 4083
0.06250000 0.06249100 33153.96211154 0 556.52236956 0 13923.56924746 0 457.95872363 0 -1233.25675430 0 4303
0.06350000 0.06350600 32555.95949265 0 -248.72974718 0 12083.13750328 0 1967.41737549 0 -638.13511419 0 4470
0.06450000 0.06451750 32991.87192800 0 557.49131365 0 12683.16343930 0 -93.66328425 0 -2688.07797516 0 4479
0.06550000 0.06550280 32667.46674790 0 118.07404341 0 11604.84781468 0 -206.96623345 0 -4120.45161651 0 4636
0.06650000 0.06648880 32307.09148546 0 870.97058124 0 12486.67686452 0 -1124.84067800 0 -3724.88187663 0 4653
0.06750000 0.06749660 31778.10646206 0 550.57156906 0 10114.51737816 0 366.94654685 0 -5650.04564603 0 5220
0.06850000 0.06852730 30604.35771273 0 674.62676273 0 12098.42478827 0 593.07471761 0 -5210.56992440 0 5029
0.06950000 0.06949320 30637.85485191 0 773.21064183 0 10437.88841839 0 296.88581898 0 -7243.18307413 0 5040
0.07050000 0.07048030 29606.41274084 0 266.63048347 0 11715.79303739 0 1965.19172665 0 -3174.69698595 0 5475
0.07150000 0.07148790 30335.03172122 0 544.12055961 0 10991.47922624 0 1018.58842696 0 -1020.91074541 0 5509
0.07250000 0.07249820 29729.16064682 0 -100.97364145 0 12994.75427756 0 1675.98102399 0 1392.99764184 0 5916
0.07350000 0.07351270 30292.09243543 0 389.72460149 0 14045.75512091 0 844.52357820 0 3288.95820063 0 5721
0.07450000 0.07449140 29468.60236287 0 863.14933646 0 14070.37214601 0 90.69440358 0 4622.12185863 0 6028
0.07550000 0.07549160 29281.44552820 0 649.34878736 0 13973.25292370 0 1161.27162702 0 6246.18231690 0 6183
0.07650000 0.07648840 28959.28847825 0 324.73790336 0 13923.68165397 0 1221.44283038 0 5768.12868196 0 6330
0.07750000 0.07749960 28267.20161275 0 16.28612922 0 11206.26558041 0 1945.72291958 0 2621.34223177 0 6583
0.07850000 0.07848650 28543.83402724 0 237.79034589 0 10443.37385594 0 2454.76702859 0 3175.36018435 0 6549
0.07950000 0.07947320 27680.32723808 0 641.18020648 0 8596.93960427 0 1391.30030358 0 1681.83740302 0 6828
0.08050000 0.08048110 27410.77643355 0 1032.48749159 0 8126.43968662 0 401.07316247 0 1515.14979333 0 7147
0.08150000 0.08149960 26110.45795699 0 1048.36041449 0 9120.81013159 0 776.43108827 0 5894.03521080 0 7386
0.08250000 0.08250610 25571.69356745 0 1049.52719404 0 9114.35799807 0 591.59544797 0 5070.17419677 0 7227
0.08350000 0.08350160 25207.60889028 0 120.51214055 0 11206.81637229 0 1627.47761609 0 8363.53873249 0 7798
0.08450000 0.08449610 25196.03102002 0 246.80422371 0 10242.08752330 0 767.53748541 0 8813.20972433 0 7371
0.08550000 0.08548940 25039.56116185 0 481.15380641 0 12515.11571087 0 501.41845155 0 9259.59844616 0 8256
0.08650000 0.08650700 24371.64169541 0 800.04881952 0 12390.56930077 0 -943.43793244 0 9161.98463521 0 8037
0.08750000 0.08749060 24152.89863219 0 768.41425617 0 13333.54749059 0 -759.48355916 0 8661.26984840 0 8155
0.08850000 0.08849210 23070.19915378 0 834.73521954 0 13106.93597186 0 -789.19484717 0 5908.28835592 0 8718
0.08950000 0.08949900 22385.53111775 0 491.12538767 0 11688.25344310 0 -52.43212774 0 4357.98904775 0 8571
0.09050000 0.09049190 21655.45085278 0 528.63993542 0 12017.49210301 0 521.86069897 0 2464.29910041 0 8932
0.09150000 0.09150830 21486.95349832 0 487.69361701 0 10210.65866386 0 119.04748376 0 127.07218432 0 9285
0.09250000 0.09250820 20868.26808209 0 192.42532767 0 9736.14583390 0 1625.24072659 0 -65.75746956 0 9204
0.09350000 0.09350330 20095.58575084 0 426.07799002 0 8040.11148901 0 1218.47529859 0 -1027.47416137 0 9349
0.09450000 0.09448040 19997.23005694 0 66.83814572 0 6799.18861091 0 2037.68268321 0 -1466.17427810 0 9564
0.09550000 0.09549270 19474.53979795 0 29.87225413 0 5564.74034763 0 2003.53358629 0 -1668.41606605 0 10155
0.09650000 0.09649430 19339.53958267 0 197.93886685 0 4613.45531692 0 1287.69522579 0 -1707.58973385 0 9913
0.09750000 0.09749140 18821.34558397 0 137.10334103 0 3827.31792674 0 711.50958591 0 -623.49191849 0 10476
0.09850000 0.09850240 18576.97383708 0 496.71311515 0 4317.55642708 0 325.25160110 0 -1205.27877463 0 10575
0.09950000 0.09950330 18337.88519603 0 381.46609540 0 3680.30145583 0 -314.09750338 0 -284.07709747 0 10882
0.10050000 0.10051200 18010.78225976 0 258.43942128 0 4035.71959130 0 306.45161275 0 -308.44008386 0 10875
0.10150000 0.10150300 18080.58670080 0 -35.01597591 0 3971.22073740 0 226.26530669 0 557.42611788 0 11118
0.10250000 0.10250800 17804.29150583 0 79.46128408 0 3977.58294572 0 215.73731322 0 478.35376031 0 11575
0.10350000 0.10349800 17888.59638631 0 200.69170222 0 3457.46679574 0 -175.89595077 0 -745.79919096 0 11364
0.10450000 0.10450100 17560.03216545 0 526.41878284 0 3431.73694622 0 -708.40716630 0 -704.90120734 0 12093
0.10550000 0.10551000 17107.25875400 0 586.41575612 0 3689.20405121 0 -1099.92577565 0 -1415.96229128 0 12067
0.10650000 0.10649700 16873.22840578 0 286.02397818 0 3769.66462915 0 -531.00272021 0 -381.57962597 0 12054
0.10750000 0.10749900 16527.35358279 0 70.81778570 0 4261.93768726 0 257.48284190 0 -2359.10909087 0 12807
0.10850000 0.10850100 16778.02009409 0 77.09141769 0 4020.67960062 0 35.80574403 0 -2045.67478588 0 12736
0.10950000 0.10950300 16602.66594269 0 43.62608955 0 4070.30707360 0 554.64630495 0 -1812.93711250 0 12933
0.11050000 0.11050200 16473.17364627 0 275.68482763 0 3998.32194632 0 509.74552561 0 -1795.58154777 0 13428
0.11150000 0.11150900 16256.67871319 0 262.20728741 0 4243.05339403 0 433.57887626 0 213.16432827 0 13453
0.11250000 0.11250000 16066.37449631 0 124.85327986 0 4320.68132798 0 1117.71860170 0 -609.43998101 0 13668
0.11350000 0.11349100 16001.29112858 0 85.42332523 0 3924.07744824 0 832.88388437 0 1573.01666329 0 13791
0.11450000 0.11448600 15763.77617863 0 195.41871296 0 4068.41864427 0 691.58328435 0 767.07212247 0 14205
0.11550000 0.11549300 15516.93148858 0 220.11442261 0 4206.11661573 0 -40.60010638 0 1882.84271939 0 14776
0.11650000 0.11649800 15487.93060970 0 179.25465721 0 4418.74476496 0 -380.27121423 0 1884.97844303 0 14553
0.11750000 0.11747300 15194.54962562 0 320.16520664 0 4493.38268581 0 -368.56744869 0 1881.74113562 0 14568
0.11850000 0.11849100 15195.11165815 0 354.99548700 0 4892.75176563 0 -725.58400469 0 1391.53635724 0 16015
0.11950000 0.11950300 14670.51048854 0 425.95209474 0 5132.71717744 0 -436.01135307 0 818.40705029 0 15270
0.12050000 0.12050700 14632.40468256 0 418.57485566 0 5422.64728174 0 -388.88155269 0 1312.43589805 0 15999
0.12150000 0.12150000 14141.18824562 0 215.27532247 0 5040.10545606 0 284.21648154 0 417.85882621 0 15670
0.12250000 0.12250700 14003.04064813 0 163.79201806 0 4740.37350432 0 955.24286384 0 1027.43032283 0 16887
0.12350000 0.12352200 14043.73180378 0 -47.19690707 0 4597.02148555 0 988.13750413 0 108.23375295 0 16407
0.12450000 0.12449800 14012.14557522 0 133.52544190 0 4256.42976840 0 296.99260516 0 18.64778994 0 16306
0.12550000 0.12549900 13852.41592834 0 124.35981530 0 3944.79396753 0 12.24635175 0 393.01024370 0 17523
0.12650000 0.12650100 13544.64691132 0 272.61388185 0 3715.87811540 0 -606.17457197 0 298.77200017 0 17154
0.12750000 0.12750600 13825.77558610 0 203.55132376 0 4257.39646436 0 -690.79419067 0 640.67999752 0 18007
0.12850000 0.12850300 13468.77251889 0 -3.32462479 0 4429.27725469 0 -109.34680218 0 251.45672905 0 17496
0.12950000 0.12949900 13797.33673976 0 169.76754799 0 4910.78176940 0 79.34876517 0 375.02632660 0 18405
0.13050000 0.13049000 13545.54616338 0 145.89352990 0 4487.30149376 0 138.79843116 0 54.75242287 0 18100
0.13150000 0.13148800 13541.94915515 0 244.24697567 0 4807.21041357 0 340.40062609 0 154.46677422 0 19059
0.13250000 0.13249300 13114.80442737 0 204.29095858 0 4362.66515846 0 276.45256408 0 -489.39545153 0 18957
0.13350000 0.13349100 13192.92694995 0 131.18963468 0 4467.20321026 0 156.95770242 0 105.56353636 0 19468
0.13450000 0.13450700 12860.54090783 0 -9.79131495 0 3980.58419946 0 301.55293716 0 -277.96443160 0 19953
0.13550000 0.13551000 12959.34622776 0 140.17203868 0 4060.65135462 0 232.49937159 0 79.43115914 0 19956
0.13650000 0.13649900 12915.50768991 0 230.49066730 0 4107.53610882 0 27.71674695 0 -278.62425780 0 19723
0.13750000 0.13749600 12576.71447688 0 290.16053764 0 4223.69699347 0 45.79632199 0 408.50660480 0 20946
0.13850000 0.13851100 12452.84250582 0 448.59526157 0 4441.11365991 0 -66.20923131 0 1233.74010228 0 20955
0.13950000 0.13949800 12157.10098509 0 271.78207370 0 4646.85129024 0 391.95025034 0 1831.74272117 0 20506
0.14050000 0.14048300 11891.37200181 0 161.34830059 0 4516.60587022 0 869.04842997 0 2365.21276421 0 21447
0.14150000 0.14148400 11820.33108919 0 93.07832078 0 4319.91696373 0 773.98175047 0 2325.33093542 0 21771
0.14250000 0.14249400 11639.69383194 0 151.71056666 0 4209.88223372 0 519.25736426 0 2456.47560750 0 22470
0.14350000 0.14350900 11480.18899807 0 188.61362301 0 3832.52234803 0 389.03892180 0 2857.62071013 0 22519
0.14450000 0.14449900 11282.12873219 0 208.27127300 0 3827.87995928 0 376.05484614 0 3169.31271425 0 22218
0.14550000 0.14550500 11157.67224729 0 57.67960072 0 3336.29258086 0 360.24037463 0 2863.25227615 0 23559
0.14650000 0.14650700 11009.38558285 0 14.11454790 0 3099.66564232 0 597.00557317 0 2383.37765579 0 23044
0.14750000 0.14750500 10939.45749465 0 66.07951420 0 2430.27365064 0 677.73030639 0 2389.64993890 0 23649
0.14850000 0.14849900 10829.74874352 0 124.15186326 0 1884.66370481 0 418.96490624 0 1609.02046759 0 23640
0.14950000 0.14949500 10713.80143123 0 82.45006071 0 1523.97370416 0 130.17235579 0 1649.97015820 0 24457
0.15050000 0.15050000 10517.33733775 0 71.75817854 0 1275.93750513 0 76.82108004 0 898.67541310 0 24591
0.15150000 0.15149900 10568.75207420 0 97.31110022 0 1332.98380759 0 -279.86972190 0 1096.25233100 0 25020
0.15250000 0.15250500 10392.35254228 0 93.23850006 0 1495.11895373 0 -164.99251956 0 864.68705748 0 25297
0.15350000 0.15350100 10451.41092122 0 140.46654373 0 1587.37097428 0 -257.50532321 0 500.57427868 0 25452
0.15450000 0.15450400 10373.07482627 0 80.42685598 0 1931.03138908 0 -112.83702423 0 683.93964186 0 26061
0.15550000 0.15549900 10266.42353214 0 127.64096125 0 2200.91941313 0 13.78407277 0 592.02259270 0 26128
0.15650000 0.15649500 10335.99191951 0 114.18253013 0 2487.08389944 0 -0.47093605 0 1059.94727726 0 26331
0.15750000 0.15749700 10108.73968368 0 214.96508051 0 2445.08882831 0 -197.75452018 0 676.90636669 0 27345
0.15850000 0.15849900 10056.40321388 0 297.74460469 0 2832.71142811 0 -229.35648565 0 1259.99826239 0 26980
0.15950000 0.15949700 9693.55500828 0 290.04475894 0 2935.97928638 0 -148.12929533 0 1028.78931750 0 27777
0.16050000 0.16050000 9610.73389370 0 204.36851907 0 2967.38566452 0 110.07013806 0 1291.49456574 0 28224
0.16150000 0.16150500 9462.67204227 0 145.85643576 0 2904.91012776 0 -99.12062018 0 878.29161706 0 28075
0.16250000 0.16249700 9353.07569764 0 28.67512483 0 2839.36589335 0 201.27846418 0 570.53946102 0 28590
0.16350000 0.16349900 9451.10541267 0 92.79842858 0 2736.30036679 0 -74.16592593 0 650.24241910 0 29163
0.16450000 0.16449100 9296.29917080 0 45.58960642 0 2598.43378558 0 55.20800644 0 540.03570713 0 28996
0.16550000 0.16550500 9300.18843595 0 139.28290321 0 2758.83787151 0 38.57341705 0 730.63105686 0 30777
0.16650000 0.16650700 9129.84761477 0 144.69078027 0 2679.32150824 0 281.66597789 0 603.64654962 0 29211
0.16750000 0.16749900 9006.56015756 0 233.52339487 0 2330.18689653 0 298.12453869 0 828.90356994 0 30922
0.16850000 0.16850800 8843.86297888 0 123.29644974 0 2476.18046823 0 229.31601930 0 936.77559875 0 30867
0.16950000 0.16949900 8620.18526998 0 153.59787191 0 2242.97068751 0 196.34606664 0 904.00348154 0 30852
0.17050000 0.17049200 8685.43724747 0 159.80046299 0 2286.86542862 0 22.71521940 0 860.31669248 0 31257
0.17150000 0.17149500 8400.71156446 0 100.82785021 0 2252.54772194 0 0.62560404 0 876.58191409 0 32608
0.17250000 0.17250900 8550.33586634 0 72.00704655 0 2492.97400042 0 -122.76701509 0 1254.52406548 0 32361
0.17350000 0.17350400 8467.55971435 0 -34.31534615 0 2273.44409164 0 251.81193361 0 850.27991544 0 32508
0.17450000 0.17449800 8553.59565505 0 -37.63673362 0 2453.53055701 0 214.05908407 0 1049.00337971 0 32791
0.17550000 0.17549800 8631.92050934 0 -29.42037997 0 2096.89843126 0 260.62460378 0 883.88384080 0 33633
0.17650000 0.17650100 8522.96488181 0 158.71574019 0 2362.84098691 0 90.44755889 0 1013.19628681 0 33984
0.17750000 0.17750300 8448.42812681 0 185.72252764 0 2317.37255470 0 59.88928784 0 1055.43528006 0 34069
