### header ###
fiducial parameters:
Omega_m = 0.31
Omega_nu = 0
Omega_de = 0.69
Omega_k = 0
H_0 = 100
w_de = -1
zeff = 0
beta = 0
fgrowth = 0
b_1 = 2
gamma = 0.55
Lx = 3500 Ly = 3500 Lz = 3500
nx = 700 ny = 700 nz = 700
xoffset = 857.220397 yoffset = 15.9954215 zoffset = 262.898189
bins = 400 dk = 0.001
kx_ny = 0.628318531 ky_ny = 0.628318531 kz_ny = 0.628318531
############################
A(data) = 3.09592799 (not used)
A(ran) = 3.09294299 (used)
Ngal = 189072
weighted Ngal = 0
Nran = 9360983
weighted Nran = 0
SN(data) = 3453.47538
SN(ran) = 69.4558757
SN(data+ran) = 3522.93126
############################
13 columns: k_central k_mean P_0(k) sigma^{lin}_{P_0(k)} P^img_1(k) sigma^{lin}_{P_1(k)} P_2(k) sigma^{lin}_{P_2(k)} P^img_3(k) sigma^{lin}_{P_3(k)} P_4(k) sigma^{lin}_{P_4(k)} N_modes
### header ###
0.00050000 0 0 0 0 0 0 0 0 0 0 0 0
0.00150000 0.00179520 1362.90641983 0 -7457.74461528 0 7337.88555654 0 -16639.98490312 0 -32452.99513195 0 3
0.00250000 0.00253879 12109.66543900 0 -18157.24793878 0 -2018.68598348 0 -1199.65844927 0 5572.47391533 0 6
0.00350000 0.00331552 21458.96427800 0 -20176.85565562 0 2201.36903916 0 -6127.37987932 0 9893.71727585 0 7
0.00450000 0.00420575 45240.24699702 0 -23080.54055245 0 4939.23185640 0 -35219.99371589 0 -3239.20708050 0 24
0.00550000 0.00557378 70603.98852595 0 -15150.71108777 0 26720.03844613 0 -47740.16771959 0 8406.63538739 0 45
0.00650000 0.00659388 100374.51476746 0 2240.14928418 0 36187.58893082 0 -28156.03157702 0 978.28844596 0 40
0.00750000 0.00754703 93259.74488728 0 2829.40667680 0 47129.91279141 0 1323.78895529 0 16863.22422663 0 57
0.00850000 0.00846663 95472.12976415 0 12984.86250492 0 67915.22487110 0 12049.19073807 0 3140.95255246 0 75
0.00950000 0.00948925 93534.12917162 0 6936.47067829 0 58085.61302637 0 26654.73026538 0 9103.35340100 0 112
0.01050000 0.01054430 81213.70153141 0 11942.74177565 0 51103.03319878 0 34871.87076275 0 -23228.91714210 0 105
0.01150000 0.01145670 75409.59152646 0 9876.20434201 0 47561.10415345 0 17020.81814988 0 -11190.68603849 0 144
0.01250000 0.01249090 65658.66423685 0 2319.89046046 0 32965.23158576 0 16145.95830349 0 -14591.71352691 0 169
0.01350000 0.01339930 57961.62864880 0 1193.35244420 0 18528.30181941 0 14424.78986356 0 -3720.26196918 0 180
0.01450000 0.01448870 63825.42650913 0 -7785.52199060 0 5445.99411331 0 9722.27487090 0 -14527.52941124 0 267
0.01550000 0.01550050 71119.03514244 0 -9845.29255250 0 -1836.07037170 0 4868.01109337 0 -27436.29271071 0 238
0.01650000 0.01653350 71244.81802412 0 -4701.84055362 0 -11258.29855264 0 -444.54075885 0 -11693.87376846 0 315
0.01750000 0.01747870 75872.25671055 0 -3764.08926638 0 -15544.80830239 0 -6074.38021112 0 -8716.58509065 0 297
0.01850000 0.01844180 75024.48683242 0 1425.64049156 0 -13683.80616737 0 -3083.49034592 0 7399.99015183 0 388
0.01950000 0.01947590 77239.11983944 0 4529.82487548 0 2030.79216431 0 -5557.05174253 0 3461.09752593 0 399
0.02050000 0.02045430 72180.71460399 0 4902.59857567 0 8639.98005592 0 7435.42068293 0 28910.16683456 0 462
0.02150000 0.02154770 66910.08588273 0 5826.09671778 0 9413.04456929 0 10175.85760920 0 31636.58666936 0 571
0.02250000 0.02255340 64019.32773424 0 3582.14809365 0 9247.22248971 0 13498.33543031 0 46224.25356201 0 510
0.02350000 0.02348930 58518.26567300 0 3296.33206751 0 3539.78208105 0 15298.97527091 0 30905.38233931 0 555
0.02450000 0.02439640 54669.46686271 0 2283.59439925 0 -3969.73697151 0 3133.23022541 0 24755.95954391 0 592
0.02550000 0.02547300 53077.34109317 0 662.33286302 0 -2407.61249877 0 -4554.44190058 0 25195.46898749 0 837
0.02650000 0.02652900 55019.16350695 0 -809.80795248 0 -2693.47348751 0 -16415.95873405 0 8503.19257717 0 723
0.02750000 0.02749970 55482.61553659 0 -673.33183976 0 -1279.17481254 0 -14551.35959079 0 2440.90730623 0 826
0.02850000 0.02848090 59387.05556800 0 -3928.75355894 0 6210.04362480 0 -16840.29329914 0 -11838.65334988 0 831
0.02950000 0.02946900 63312.29080326 0 -3593.47866959 0 9610.30674897 0 -7915.95850168 0 -14587.32967313 0 996
0.03050000 0.03053250 66013.19436091 0 -1876.68284279 0 15368.66730544 0 -3345.75720878 0 -20840.84089430 0 1041
0.03150000 0.03150510 66308.71106862 0 851.62429727 0 13851.96630231 0 3286.97984611 0 -23027.48468100 0 1036
0.03250000 0.03246190 63663.33632559 0 1413.69167983 0 17767.08495191 0 5696.76179047 0 -13895.58002714 0 1059
0.03350000 0.03345080 63701.21731856 0 4171.09074805 0 11481.98750219 0 7446.93110928 0 -17334.99433781 0 1302
0.03450000 0.03451200 58267.37434869 0 2778.48652899 0 10318.42278242 0 7057.38635820 0 -12614.59546984 0 1339
0.03550000 0.03553350 55194.40525185 0 2638.31561437 0 6697.42699984 0 2599.05202137 0 -9448.69991341 0 1365
0.03650000 0.03647120 53105.89234603 0 3265.16174304 0 4109.49198204 0 -5171.42997855 0 -14109.03998453 0 1308
0.03750000 0.03744890 50967.13373145 0 2765.78459366 0 7246.73511976 0 -3971.25445935 0 -12930.57016189 0 1579
0.03850000 0.03847530 49206.96023348 0 2212.02517605 0 6828.45926541 0 -5647.94364434 0 -8703.33236344 0 1662
0.03950000 0.03950240 47942.94905878 0 836.87656351 0 8443.18998357 0 -1073.80699962 0 -8121.66241006 0 1683
0.04050000 0.04050350 47509.39716009 0 -332.74799107 0 9591.53486225 0 3940.74733327 0 -11661.16347484 0 1822
0.04150000 0.04152450 48319.06123224 0 597.64066994 0 10501.45429827 0 3773.30659998 0 -1927.32197434 0 1887
0.04250000 0.04250150 47194.09690708 0 959.72788348 0 10033.41608313 0 4731.21237398 0 -8745.69837604 0 1920
0.04350000 0.04349210 46864.74584066 0 370.84368046 0 8700.47723815 0 2503.89991293 0 1149.74996002 0 2005
0.04450000 0.04448520 45565.55142917 0 965.22118949 0 9605.70932282 0 -1811.08240513 0 -3201.03383062 0 2151
0.04550000 0.04548030 46414.33296587 0 935.50315709 0 11468.16150179 0 -2774.47361668 0 -171.67508642 0 2274
0.04650000 0.04648670 44999.69707138 0 267.51287455 0 14101.17152901 0 -2386.43511279 0 943.12769048 0 2311
0.04750000 0.04749250 45859.71925880 0 301.60352009 0 13271.04947253 0 261.07872607 0 -2634.38138662 0 2568
0.04850000 0.04851840 46398.37124183 0 401.67116509 0 15318.75881619 0 1729.80125969 0 -2548.35668657 0 2493
0.04950000 0.04949480 45637.71640687 0 988.38367439 0 14041.14645411 0 -548.24587843 0 -4290.57886532 0 2644
0.05050000 0.05050630 44919.66363817 0 2189.25161767 0 17398.16679492 0 -590.85356502 0 1788.80343538 0 2829
0.05150000 0.05149060 43749.96152311 0 1813.06075966 0 18189.28379337 0 -209.71457256 0 2005.10727739 0 2784
0.05250000 0.05249300 42028.11864413 0 875.84565146 0 16998.78647445 0 1807.37299039 0 2378.70154509 0 3055
0.05350000 0.05348950 42321.83684773 0 1339.98673299 0 24046.67448278 0 1362.76029137 0 5466.03619356 0 3009
0.05450000 0.05448610 41324.67872139 0 585.06125770 0 20578.70891925 0 3129.63321717 0 6891.72164773 0 3336
0.05550000 0.05550870 38896.81057000 0 750.25835711 0 19801.30551470 0 4362.15932918 0 9146.31516809 0 3349
0.05650000 0.05647670 39461.20364320 0 -240.71965947 0 16523.64416805 0 4823.74541079 0 7164.25122470 0 3324
0.05750000 0.05747970 38627.93420451 0 218.66100647 0 17231.24313157 0 4916.58194518 0 7467.95112615 0 3639
0.05850000 0.05849280 38440.32774381 0 1186.25959359 0 14043.84421029 0 1359.37685550 0 5399.82876076 0 3846
0.05950000 0.05951020 36053.26315458 0 1581.80685217 0 14580.36046968 0 -2741.17880921 0 5582.97268312 0 3787
0.06050000 0.06049470 36183.20507703 0 2193.32073323 0 15782.21084583 0 -2281.50363822 0 3857.07192923 0 3930
0.06150000 0.06148310 34240.82063072 0 1044.12943356 0 17023.51590606 0 -1757.93660847 0 3001.32118908 0 4083
0.06250000 0.06249100 33325.94406772 0 887.23243065 0 16316.02934905 0 -82.69904112 0 1803.58489109 0 4303
0.06350000 0.06350600 33811.98980533 0 288.60033532 0 17501.80559466 0 935.81677124 0 2140.07377072 0 4470
0.06450000 0.06451750 33897.19393787 0 497.72926998 0 16688.09488824 0 1158.65255540 0 2109.18446251 0 4479
0.06550000 0.06550280 33273.89985484 0 916.57277719 0 17090.51018441 0 1142.67959071 0 2164.58962997 0 4636
0.06650000 0.06648880 32494.13591363 0 866.27311330 0 17794.51213970 0 843.09601556 0 6582.26653310 0 4653
0.06750000 0.06749660 31724.60096458 0 1022.13597634 0 17690.87333996 0 -193.42911778 0 3543.43529253 0 5220
0.06850000 0.06852730 31666.48680030 0 374.17653340 0 18374.52971741 0 2048.41750466 0 4889.27840455 0 5029
0.06950000 0.06949320 31521.36999937 0 239.98339685 0 17165.48532479 0 2366.89886182 0 2838.64649170 0 5040
0.07050000 0.07048030 31284.86670799 0 560.74435798 0 16003.42685222 0 1772.47076987 0 2455.66628064 0 5475
0.07150000 0.07148790 30277.81680900 0 847.16400706 0 17095.34366423 0 1518.28593489 0 1020.34758880 0 5509
0.07250000 0.07249820 29359.23083126 0 1050.33090056 0 15871.91123867 0 982.80718756 0 2781.35289492 0 5916
0.07350000 0.07351270 28535.62835220 0 1015.82884721 0 15089.67435430 0 1303.63446853 0 2174.45892131 0 5721
0.07450000 0.07449140 27393.01620540 0 501.67473838 0 15304.93281580 0 961.41173296 0 2403.36353279 0 6028
0.07550000 0.07549160 27055.79668347 0 275.91301284 0 12028.39553422 0 1450.76334594 0 1109.90410131 0 6183
0.07650000 0.07648840 26753.31077230 0 151.73642015 0 12752.74306732 0 1070.36061610 0 25.68556136 0 6330
0.07750000 0.07749960 26517.93154599 0 389.17380961 0 10341.23006275 0 -500.91037413 0 -1655.00596973 0 6583
0.07850000 0.07848650 26255.79957094 0 284.98196985 0 10943.35800046 0 -806.06481579 0 -3062.20055344 0 6549
0.07950000 0.07947320 25519.19972854 0 1073.31578318 0 9805.73670258 0 -1311.88510616 0 -3499.32697906 0 6828
0.08050000 0.08048110 25014.26969770 0 786.10591635 0 9570.55980798 0 -49.38714786 0 -5178.28677550 0 7147
0.08150000 0.08149960 24122.09924919 0 338.58526099 0 9797.55350885 0 653.04021706 0 -4676.60529272 0 7386
0.08250000 0.08250610 24070.27984932 0 380.79053229 0 10445.12739746 0 1297.46335128 0 -4365.58772765 0 7227
0.08350000 0.08350160 23695.96617997 0 8.25973132 0 9574.04440971 0 1781.31716199 0 -3451.43056630 0 7798
0.08450000 0.08449610 24291.38344919 0 39.94949751 0 9877.56446075 0 1954.73792147 0 -1141.19582481 0 7371
0.08550000 0.08548940 23969.90083829 0 -13.20922589 0 9399.16236564 0 590.32525444 0 -1415.86112542 0 8256
0.08650000 0.08650700 23898.41029964 0 456.38952878 0 9907.74560796 0 931.46439128 0 -221.49702265 0 8037
0.08750000 0.08749060 23371.44859337 0 710.72611255 0 9208.19495037 0 1251.03946376 0 785.90583277 0 8155
0.08850000 0.08849210 22560.21083011 0 752.18837684 0 8059.09694809 0 1310.77228174 0 2751.48648593 0 8718
0.08950000 0.08949900 22203.88220194 0 299.35763807 0 7968.95816988 0 2298.88168425 0 2590.76766178 0 8571
0.09050000 0.09049190 21881.38793247 0 232.14866329 0 7016.84133101 0 1869.97217431 0 2875.71815781 0 8932
0.09150000 0.09150830 21320.81668051 0 721.70822831 0 7038.73811864 0 761.47652653 0 3368.27223219 0 9285
0.09250000 0.09250820 20390.31561300 0 948.76712495 0 6354.96933467 0 -805.92093546 0 4736.95634650 0 9204
0.09350000 0.09350330 19662.59588468 0 901.05843105 0 7000.17144598 0 153.19658068 0 5288.64748438 0 9349
0.09450000 0.09448040 19000.74636964 0 349.93269791 0 6510.38257168 0 493.38813067 0 4050.89446978 0 9564
0.09550000 0.09549270 18763.34382620 0 -82.15735416 0 6311.81647651 0 1141.11714026 0 3078.58942220 0 10155
0.09650000 0.09649430 18587.31523575 0 287.59542115 0 5077.25580673 0 266.08081565 0 315.08668064 0 9913
0.09750000 0.09749140 18437.92698754 0 460.21584629 0 5138.10144914 0 -779.41997730 0 226.22146816 0 10476
0.09850000 0.09850240 17781.69779786 0 625.51860781 0 5009.67701453 0 -1268.84465451 0 392.16157457 0 10575
0.09950000 0.09950330 17343.64963888 0 261.40245681 0 5562.75075245 0 -92.84181749 0 -239.94068237 0 10882
0.10050000 0.10051200 17104.44859132 0 156.86328095 0 5582.20831887 0 329.18245666 0 -155.27610107 0 10875
0.10150000 0.10150300 17342.07594777 0 61.83954074 0 5683.41913805 0 1077.66479095 0 159.84092933 0 11118
0.10250000 0.10250800 17163.01238163 0 -166.21999862 0 5283.01591836 0 1222.28587919 0 152.79304132 0 11575
0.10350000 0.10349800 17623.76665509 0 -149.49615846 0 4869.69719098 0 694.94648705 0 476.38552237 0 11364
0.10450000 0.10450100 17407.83375455 0 -41.25599835 0 4515.79654337 0 415.35890549 0 235.70632924 0 12093
0.10550000 0.10551000 17494.27435867 0 103.44051466 0 4474.77940885 0 269.63061315 0 628.16802919 0 12067
0.10650000 0.10649700 17336.56802891 0 126.92830399 0 3725.06172704 0 25.87035766 0 443.13904970 0 12054
0.10750000 0.10749900 17121.64678694 0 308.47043362 0 4051.43402102 0 262.59958612 0 -8.77055145 0 12807
0.10850000 0.10850100 16916.39250459 0 369.99950759 0 3548.71839838 0 71.48874014 0 -298.07845202 0 12736
0.10950000 0.10950300 16504.64746831 0 322.32003939 0 4352.84082972 0 72.73937495 0 -567.20548402 0 12933
0.11050000 0.11050200 16526.90395676 0 361.67355760 0 4681.55117905 0 34.90829047 0 27.50182570 0 13428
0.11150000 0.11150900 16155.40045010 0 133.55579166 0 4681.75351076 0 13.43684907 0 257.16922775 0 13453
0.11250000 0.11250000 16374.48073285 0 221.89606576 0 4619.67139677 0 -105.62738326 0 457.15951336 0 13668
0.11350000 0.11349100 16150.45456378 0 31.78181588 0 4692.35344440 0 552.06657561 0 285.85312028 0 13791
0.11450000 0.11448600 16116.95742460 0 270.08361137 0 4405.24474343 0 234.30012384 0 223.21459409 0 14205
0.11550000 0.11549300 15688.12659922 0 345.22398932 0 3494.60590576 0 163.64364147 0 300.37042070 0 14776
0.11650000 0.11649800 15577.29378301 0 220.25155855 0 3958.92346550 0 130.71415516 0 -702.71714890 0 14553
0.11750000 0.11747300 15190.27817834 0 418.71423973 0 3389.34845231 0 -432.41434484 0 -141.53890181 0 14568
0.11850000 0.11849100 15121.14817634 0 267.63202545 0 4243.41309485 0 -684.51179098 0 -1251.01698245 0 16015
0.11950000 0.11950300 14677.14247247 0 334.44982559 0 4755.06503483 0 -838.60200340 0 -1163.26122220 0 15270
0.12050000 0.12050700 14696.47639173 0 335.65819554 0 5141.30503459 0 -825.80564660 0 -677.65724216 0 15999
0.12150000 0.12150000 14519.66095573 0 73.72158301 0 5623.69756071 0 -116.48124320 0 -1240.88915615 0 15670
0.12250000 0.12250700 14792.58395548 0 -17.98076972 0 6164.33913892 0 297.17695183 0 -979.56088763 0 16887
0.12350000 0.12352200 14407.81648096 0 222.83915635 0 5758.18070606 0 385.07322022 0 -2161.45348841 0 16407
0.12450000 0.12449800 14174.79779130 0 439.86240001 0 5796.11790228 0 131.36049257 0 -1703.23960201 0 16306
0.12550000 0.12549900 13640.75447507 0 557.47445268 0 5567.59547292 0 -88.38017840 0 -2262.97904581 0 17523
0.12650000 0.12650100 13489.90494226 0 331.44969591 0 5790.37392975 0 -2.26966723 0 -1211.31500407 0 17154
0.12750000 0.12750600 13016.33632697 0 80.03523171 0 4632.91288333 0 900.15243460 0 -2064.00828722 0 18007
0.12850000 0.12850300 13139.64626548 0 -105.72405286 0 4795.14919533 0 916.14563246 0 -1467.64680334 0 17496
0.12950000 0.12949900 13002.28551355 0 -18.52863904 0 3868.49243037 0 777.92272262 0 -1729.86870360 0 18405
0.13050000 0.13049000 13054.32972644 0 102.92670452 0 3999.22119837 0 637.66975125 0 -623.96402582 0 18100
0.13150000 0.13148800 13048.82180758 0 49.71627412 0 3498.95603759 0 242.97678214 0 -211.84130368 0 19059
0.13250000 0.13249300 13005.65770877 0 65.62359341 0 3608.08027489 0 254.10053010 0 314.91807088 0 18957
0.13350000 0.13349100 12985.98656999 0 87.29466876 0 4292.46729464 0 156.63846794 0 984.27634061 0 19468
0.13450000 0.13450700 12853.23448486 0 46.44412069 0 3675.14199715 0 469.43317989 0 1288.61695915 0 19953
0.13550000 0.13551000 12726.32753811 0 199.11913518 0 3831.85914964 0 385.04624266 0 1307.07410765 0 19956
0.13650000 0.13649900 12666.75208923 0 279.31106156 0 3510.91608997 0 205.28013584 0 1190.74461324 0 19723
0.13750000 0.13749600 12214.31589731 0 286.70066535 0 3431.02878522 0 194.04847763 0 668.03974140 0 20946
0.13850000 0.13851100 11946.78840991 0 376.30776078 0 3239.75787238 0 -100.61854929 0 880.14407630 0 20955
0.13950000 0.13949800 11798.74903978 0 220.81246702 0 3044.46280658 0 -118.88786652 0 587.42179436 0 20506
0.14050000 0.14048300 11434.43954959 0 78.30720647 0 2942.51010445 0 95.44166760 0 7.27725349 0 21447
0.14150000 0.14148400 11551.11750418 0 255.34149794 0 3247.39027423 0 -393.62061104 0 -77.98707274 0 21771
0.14250000 0.14249400 11357.89071812 0 216.34093616 0 3422.80062889 0 -403.51463181 0 -296.78577719 0 22470
0.14350000 0.14350900 11194.18188087 0 252.12105151 0 3660.47294794 0 -418.06003386 0 -296.42270417 0 22519
0.14450000 0.14449900 11204.95042427 0 144.86388630 0 3936.16114777 0 -402.59851878 0 -325.56633932 0 22218
0.14550000 0.14550500 11002.21404769 0 121.30011017 0 3955.50630768 0 -5.43382049 0 -524.75966279 0 23559
0.14650000 0.14650700 11035.73366817 0 173.80181754 0 4122.28384258 0 277.57775322 0 -842.36986952 0 23044
0.14750000 0.14750500 10802.53512810 0 218.38785866 0 3745.28365771 0 165.73327844 0 -935.00294813 0 23649
0.14850000 0.14849900 10455.14281726 0 243.24768182 0 3807.92780423 0 493.96252792 0 -963.83858945 0 23640
0.14950000 0.14949500 10254.74449603 0 229.29016581 0 3383.99790256 0 363.38213651 0 -690.74697994 0 24457
0.15050000 0.15050000 10173.35094408 0 -84.84488134 0 3439.88641800 0 684.75009278 0 -514.70827291 0 24591
0.15150000 0.15149900 10302.16880146 0 -76.44440583 0 3044.46280658 0 504.64227018 0 -149.55011359 0 25020
0.15250000 0.15250500 10338.79084154 0 -142.80909534 0 3006.61553557 0 199.46309909 0 -124.34070619 0 25297
0.15350000 0.15350100 10437.58492082 0 63.04633701 0 3343.86877946 0 65.01513698 0 538.07533765 0 25452
0.15450000 0.15450400 10309.22793012 0 191.79360310 0 3155.18321628 0 -95.11141728 0 711.21508086 0 26061
0.15550000 0.15549900 10255.21660336 0 230.14895152 0 3443.38226038 0 248.78482637 0 1071.74434021 0 26128
0.15650000 0.15649500 10049.69254539 0 170.55102135 0 3384.67234161 0 216.64555780 0 1298.41880659 0 26331
0.15750000 0.15749700 9950.92094742 0 238.46366087 0 3196.27903536 0 495.32039853 0 1248.31922628 0 27345
0.15850000 0.15849900 9688.90137888 0 181.18580100 0 3292.40908041 0 366.48005985 0 1738.96239004 0 26980
0.15950000 0.15949700 9502.93605319 0 246.44452289 0 2610.02289648 0 238.11520069 0 1345.16867298 0 27777
0.16050000 0.16050000 9316.68971122 0 183.93189198 0 2884.57579059 0 274.05605734 0 1786.40917677 0 28224
0.16150000 0.16150500 9192.18826373 0 100.99623516 0 2627.13116690 0 59.73798868 0 1502.77383688 0 28075
0.16250000 0.16249700 9143.17902654 0 -0.03126846 0 2515.43282058 0 237.17323416 0 1455.10223713 0 28590
0.16350000 0.16349900 9074.92579530 0 20.27262600 0 2610.60741032 0 129.87447855 0 1524.47953344 0 29163
0.16450000 0.16449100 9166.24484184 0 -9.29403980 0 2262.58562304 0 61.09158784 0 943.14455145 0 28996
0.16550000 0.16550500 9164.69363204 0 79.62382389 0 2608.60657449 0 -154.29816445 0 977.60276627 0 30777
0.16650000 0.16650700 9119.83219497 0 173.63995217 0 2280.87416178 0 -218.08548516 0 660.50513321 0 29211
0.16750000 0.16749900 8912.29606053 0 223.24494384 0 2509.38535049 0 -222.87287830 0 1020.44425840 0 30922
0.16850000 0.16850800 8770.09058813 0 313.15553684 0 2416.06546812 0 14.83720934 0 791.28111195 0 30867
0.16950000 0.16949900 8499.91030716 0 207.76881592 0 2675.82566586 0 43.28201323 0 1077.62994493 0 30852
0.17050000 0.17049200 8327.54616885 0 224.10260549 0 2491.63636298 0 370.97407201 0 845.90955044 0 31257
0.17150000 0.17149500 8120.15616286 0 71.13578371 0 2096.44880523 0 548.59883486 0 466.85232648 0 32608
0.17250000 0.17250900 8084.57950330 0 -9.87259609 0 1995.11433889 0 330.71792955 0 894.31179248 0 32361
0.17350000 0.17350400 8152.09085159 0 -26.87729515 0 1637.20077897 0 154.92089650 0 274.37866402 0 32508
0.17450000 0.17449800 8126.78814679 0 -11.49187927 0 1761.52237605 0 -187.29059841 0 234.57664384 0 32791
0.17550000 0.17549800 8170.58172204 0 55.64605460 0 1432.02518118 0 -419.94846318 0 -358.84990613 0 33633
0.17650000 0.17650100 8135.48841046 0 178.48467263 0 1932.44771107 0 -693.12550163 0 -328.56646900 0 33984
0.17750000 0.17750300 8073.78847860 0 160.49963146 0 1988.30250455 0 -593.75702511 0 -810.56557234 0 34069
