### header ###
fiducial parameters:
Omega_m = 0.31
Omega_nu = 0
Omega_de = 0.69
Omega_k = 0
H_0 = 100
w_de = -1
zeff = 0
beta = 0
fgrowth = 0
b_1 = 2
gamma = 0.55
Lx = 3500 Ly = 3500 Lz = 3500
nx = 700 ny = 700 nz = 700
xoffset = 857.220397 yoffset = 15.9954215 zoffset = 262.898189
bins = 400 dk = 0.001
kx_ny = 0.628318531 ky_ny = 0.628318531 kz_ny = 0.628318531
############################
A(data) = 3.09515418 (not used)
A(ran) = 3.09469047 (used)
Ngal = 188247
weighted Ngal = 0
Nran = 9360983
weighted Nran = 0
SN(data) = 3447.74179
SN(ran) = 69.4951174
SN(data+ran) = 3517.23691
############################
13 columns: k_central k_mean P_0(k) sigma^{lin}_{P_0(k)} P^img_1(k) sigma^{lin}_{P_1(k)} P_2(k) sigma^{lin}_{P_2(k)} P^img_3(k) sigma^{lin}_{P_3(k)} P_4(k) sigma^{lin}_{P_4(k)} N_modes
### header ###
0.00050000 0 0 0 0 0 0 0 0 0 0 0 0
0.00150000 0.00179520 5572.39523078 0 -10800.66918008 0 -10983.85806504 0 17367.92944445 0 989.52572450 0 3
0.00250000 0.00253879 12773.42586467 0 -10481.13120175 0 -1945.80160414 0 -11178.13023163 0 2547.96326380 0 6
0.00350000 0.00331552 17191.67604099 0 -4533.73662193 0 -1772.99908045 0 -23875.92899818 0 -8473.61842510 0 7
0.00450000 0.00420575 20658.74235246 0 2213.52018260 0 4224.89974310 0 -22463.42882732 0 1867.56667505 0 24
0.00550000 0.00557378 14740.53974259 0 4495.65329726 0 9216.37814410 0 -10500.19534539 0 10570.03350838 0 45
0.00650000 0.00659388 18935.88781492 0 -1461.81290561 0 19217.91574176 0 3532.40821417 0 -10802.24287118 0 40
0.00750000 0.00754703 19704.74832492 0 -11228.99417618 0 10444.57660557 0 18551.00793389 0 -13682.68210230 0 57
0.00850000 0.00846663 32655.88887765 0 -16714.06079143 0 4710.60826119 0 26415.07959180 0 -13289.14692021 0 75
0.00950000 0.00948925 43357.77521910 0 -14804.83626477 0 -1316.39260711 0 15520.64090332 0 -7519.53447235 0 112
0.01050000 0.01054430 52923.34417816 0 -10761.97886026 0 -6467.38708263 0 7351.08208050 0 -12419.00814712 0 105
0.01150000 0.01145670 61840.43999655 0 -4998.17782884 0 -1352.62122441 0 -4550.84489235 0 9624.04282416 0 144
0.01250000 0.01249090 66058.49418335 0 439.56564684 0 9019.82412542 0 -14642.07164219 0 9654.49374699 0 169
0.01350000 0.01339930 71146.46233023 0 1058.82658439 0 20333.32551380 0 -10352.81917365 0 27271.05514496 0 180
0.01450000 0.01448870 74188.63204406 0 -1199.19758259 0 35716.94288471 0 -12414.73669984 0 28623.08061489 0 267
0.01550000 0.01550050 83404.50435888 0 -2646.10538533 0 38311.39747993 0 -7777.35003752 0 -8474.22542024 0 238
0.01650000 0.01653350 88289.91597958 0 -1423.49352727 0 60553.16067483 0 -11576.52137483 0 11202.97206974 0 315
0.01750000 0.01747870 90832.88839446 0 5536.71740536 0 48095.70950221 0 -2356.45629729 0 -28067.23043624 0 297
0.01850000 0.01844180 88864.98767098 0 5612.63676040 0 67965.69539288 0 -2881.40592708 0 3766.14630547 0 388
0.01950000 0.01947590 82855.51097718 0 5127.96238218 0 37502.96987936 0 17422.22178749 0 -15685.54124955 0 399
0.02050000 0.02045430 80621.54405090 0 757.08930055 0 48212.38745680 0 29609.56012304 0 -6174.14098636 0 462
0.02150000 0.02154770 77362.54218447 0 3159.79188308 0 24512.82426859 0 25907.45180479 0 -5671.36916046 0 571
0.02250000 0.02255340 72607.40970573 0 5421.83795489 0 27043.09474814 0 22380.58523143 0 -1142.27492728 0 510
0.02350000 0.02348930 69667.08028752 0 9767.65337790 0 24243.94790311 0 5206.26475517 0 27426.28853156 0 555
0.02450000 0.02439640 61066.18397420 0 5599.65380880 0 32091.49580444 0 6171.69052450 0 23741.60322194 0 592
0.02550000 0.02547300 61185.78449797 0 3675.65906708 0 46778.86726908 0 -1922.60090103 0 48155.95939013 0 837
0.02650000 0.02652900 59043.65368817 0 223.36297068 0 50472.54509928 0 -4603.90076380 0 29090.91649831 0 723
0.02750000 0.02749970 63037.45689289 0 542.37039029 0 61137.33729332 0 3621.44540861 0 54982.40657906 0 826
0.02850000 0.02848090 62442.15203018 0 -744.25135335 0 55475.87114615 0 7347.12537144 0 28758.30564318 0 831
0.02950000 0.02946900 62238.47143893 0 977.64772887 0 55668.19868016 0 7278.01785075 0 34257.00716777 0 996
0.03050000 0.03053250 63642.87834126 0 1152.07677472 0 51825.80704079 0 11855.96395201 0 24620.95932863 0 1041
0.03150000 0.03150510 60074.30895369 0 1671.43980110 0 39923.64401428 0 7006.05030631 0 14958.94558630 0 1036
0.03250000 0.03246190 59520.70690519 0 2612.59700550 0 41010.95215948 0 10800.20831340 0 26571.43704347 0 1059
0.03350000 0.03345080 56452.68369468 0 2933.85480339 0 30717.55106559 0 298.76975204 0 2697.23910550 0 1302
0.03450000 0.03451200 56501.24330583 0 2960.31529521 0 34564.55137177 0 3032.71632657 0 12232.41334499 0 1339
0.03550000 0.03553350 52404.58814692 0 2708.42355298 0 29990.95540234 0 1020.93322671 0 2138.96094630 0 1365
0.03650000 0.03647120 51984.41262260 0 1827.85345602 0 31582.63154585 0 -3622.35590132 0 5774.53585287 0 1308
0.03750000 0.03744890 51008.04970011 0 640.59344451 0 29421.27922330 0 2820.11065864 0 664.57312471 0 1579
0.03850000 0.03847530 52410.99531784 0 -508.15834573 0 32031.13351002 0 2958.65167890 0 -2468.06471840 0 1662
0.03950000 0.03950240 51213.97842150 0 -393.58801315 0 25980.17881502 0 4504.91559346 0 -8773.17052643 0 1683
0.04050000 0.04050350 51916.06946616 0 1777.51782204 0 27983.48758830 0 4952.81056249 0 -11811.78819463 0 1822
0.04150000 0.04152450 46361.38950093 0 2376.32976779 0 19624.71489172 0 5781.69614739 0 -6876.22079037 0 1887
0.04250000 0.04250150 45683.69066836 0 3202.40519001 0 20786.21133175 0 4946.66192654 0 -7405.25077637 0 1920
0.04350000 0.04349210 43369.12827634 0 1964.84326648 0 21554.06018318 0 5175.39792826 0 -2359.80601121 0 2005
0.04450000 0.04448520 42374.33068665 0 1850.06498186 0 20644.24191302 0 4033.85364328 0 287.84721172 0 2151
0.04550000 0.04548030 40719.70689904 0 438.66527071 0 22019.08590392 0 4472.66616651 0 9373.05033399 0 2274
0.04650000 0.04648670 40867.52145616 0 873.77512360 0 20541.38995883 0 4329.52772010 0 10723.47963151 0 2311
0.04750000 0.04749250 41117.96315444 0 -792.73227996 0 23911.11223496 0 2496.25627043 0 12442.38870064 0 2568
0.04850000 0.04851840 42116.69497189 0 -359.66822550 0 21385.56282873 0 4595.82997657 0 12012.88343621 0 2493
0.04950000 0.04949480 41923.24337281 0 116.27104303 0 22910.69431991 0 -1516.73472508 0 10392.56611464 0 2644
0.05050000 0.05050630 40931.81797834 0 2078.59865187 0 19451.83368347 0 537.34919161 0 7978.42279780 0 2829
0.05150000 0.05149060 40068.98562823 0 1756.45284257 0 22587.52561139 0 -2053.31842838 0 7267.01325368 0 2784
0.05250000 0.05249300 37770.38496025 0 1725.84455063 0 20282.18055297 0 364.23192970 0 3964.99341690 0 3055
0.05350000 0.05348950 35374.21544392 0 689.14743534 0 17206.17648044 0 2676.70243662 0 1173.07431029 0 3009
0.05450000 0.05448610 36375.42020453 0 -850.27654324 0 16560.96312848 0 6236.76265158 0 3767.47270225 0 3336
0.05550000 0.05550870 36314.15865805 0 -777.87551189 0 12785.11614143 0 5270.31398303 0 2981.79617876 0 3349
0.05650000 0.05647670 38209.10755828 0 -713.82403589 0 12916.85656800 0 6426.66220503 0 4579.26125739 0 3324
0.05750000 0.05747970 37372.69073738 0 -121.52155099 0 11532.45802397 0 2032.69183429 0 9371.30803313 0 3639
0.05850000 0.05849280 36829.43008756 0 933.76872468 0 11243.34848717 0 4390.46328772 0 8049.80092994 0 3846
0.05950000 0.05951020 37337.50750060 0 966.03726073 0 14389.83143979 0 -347.25517490 0 16721.81684044 0 3787
0.06050000 0.06049470 35119.50229836 0 1320.94507065 0 11098.49022120 0 2085.24187646 0 9710.97801691 0 3930
0.06150000 0.06148310 34908.62769064 0 808.11623455 0 15254.91192004 0 -709.43118959 0 14945.34439891 0 4083
0.06250000 0.06249100 32959.83607341 0 362.58629843 0 12093.81612147 0 491.66269078 0 10474.20696090 0 4303
0.06350000 0.06350600 34252.62331398 0 259.74783303 0 15433.63826667 0 -703.81985674 0 10338.11640250 0 4470
0.06450000 0.06451750 33752.52676296 0 517.65781966 0 13564.09323709 0 -3595.63687453 0 6040.24235485 0 4479
0.06550000 0.06550280 33186.67240516 0 683.40233875 0 14186.82528758 0 -2034.83879858 0 3306.29128406 0 4636
0.06650000 0.06648880 32285.17221654 0 1148.19875022 0 14561.36376994 0 -2292.42955073 0 -2615.66570315 0 4653
0.06750000 0.06749660 31832.51121160 0 1529.76263928 0 13236.42826828 0 -513.09973579 0 -3578.38247566 0 5220
0.06850000 0.06852730 30114.37774737 0 1517.72390235 0 12914.72084436 0 758.03913554 0 -6903.09718627 0 5029
0.06950000 0.06949320 28744.92926881 0 1281.10820446 0 10974.73065665 0 2305.10900475 0 -7872.94053134 0 5040
0.07050000 0.07048030 28075.32370477 0 761.54397044 0 10170.39465294 0 2848.41461719 0 -7070.57164151 0 5475
0.07150000 0.07148790 26871.33760497 0 513.54149336 0 7857.72069025 0 1941.18169669 0 -8395.66451228 0 5509
0.07250000 0.07249820 26903.03624003 0 -60.17019170 0 7377.90227314 0 2143.97427652 0 -5212.22230006 0 5916
0.07350000 0.07351270 26803.21926154 0 135.27785935 0 6840.53172430 0 556.13119492 0 -5130.60393510 0 5721
0.07450000 0.07449140 26202.40647997 0 391.87718611 0 6525.16402739 0 585.26920974 0 -2416.72866651 0 6028
0.07550000 0.07549160 26015.24964530 0 689.36662803 0 8014.61769315 0 460.80598046 0 -1109.18245153 0 6183
0.07650000 0.07648840 25255.60646890 0 890.77998002 0 6733.00365940 0 -216.53090316 0 -1258.03114851 0 6330
0.07750000 0.07749960 24653.21999622 0 566.74574140 0 7629.90642188 0 74.49392812 0 7.33413118 0 6583
0.07850000 0.07848650 23954.83836631 0 564.45714491 0 6951.16220879 0 302.53761816 0 -1203.16553229 0 6549
0.07950000 0.07947320 23739.80471782 0 432.29519394 0 6560.52711459 0 719.65343736 0 -357.82813098 0 6828
0.08050000 0.08048110 23195.75722244 0 593.98970658 0 6597.95848152 0 112.29601171 0 -1526.12066845 0 7147
0.08150000 0.08149960 22453.64946118 0 296.88132272 0 5259.79273395 0 107.69060470 0 -2118.88514409 0 7386
0.08250000 0.08250610 22326.40529491 0 414.92276824 0 5784.52879137 0 253.35864715 0 -2390.78524463 0 7227
0.08350000 0.08350160 22364.06147486 0 -173.08129183 0 5413.82337092 0 241.32777867 0 -3104.74641645 0 7798
0.08450000 0.08449610 22261.88395971 0 -85.46311713 0 4891.79631032 0 -447.91070594 0 -3400.26312417 0 7371
0.08550000 0.08548940 22646.87624725 0 1.25232090 0 5981.44251088 0 -673.23067391 0 -5676.23636223 0 8256
0.08650000 0.08650700 22745.79397368 0 259.97601824 0 5109.97734101 0 -308.96165006 0 -4543.65087588 0 8037
0.08750000 0.08749060 22435.55201351 0 554.81379065 0 6260.23313031 0 -964.01169547 0 -5763.83475338 0 8155
0.08850000 0.08849210 21964.79356089 0 694.14053240 0 5691.42248137 0 -522.66215736 0 -4024.34405276 0 8718
0.08950000 0.08949900 21222.01136059 0 776.37713314 0 5525.30814487 0 596.49749576 0 -4280.99059025 0 8571
0.09050000 0.09049190 20900.86596920 0 619.99270391 0 6743.36753938 0 669.85960275 0 -2961.40563833 0 8932
0.09150000 0.09150830 20333.21310729 0 376.99119235 0 6217.00158760 0 846.89423144 0 -1533.91043940 0 9285
0.09250000 0.09250820 20292.63435815 0 367.74912932 0 7120.85107223 0 1433.77872269 0 -661.35155421 0 9204
0.09350000 0.09350330 20012.62974844 0 162.41728648 0 6684.50025150 0 769.46862920 0 1689.97563415 0 9349
0.09450000 0.09448040 19865.93925640 0 290.54496790 0 7708.90571522 0 688.15600995 0 748.42613104 0 9564
0.09550000 0.09549270 19860.65615056 0 343.17032243 0 7157.00100498 0 485.98054183 0 2649.57874640 0 10155
0.09650000 0.09649430 19298.73602052 0 447.53414414 0 7977.61347094 0 406.09548522 0 1969.59806173 0 9913
0.09750000 0.09749140 19102.47425875 0 367.57602329 0 7562.20398253 0 -119.70056557 0 2808.22929082 0 10476
0.09850000 0.09850240 18966.91201094 0 147.44136751 0 7834.08160176 0 416.83705106 0 2094.94255804 0 10575
0.09950000 0.09950330 18560.00045448 0 252.89665641 0 7499.45867015 0 -93.44341712 0 1806.02411230 0 10882
0.10050000 0.10051200 18566.40762539 0 143.41496642 0 7380.53258541 0 -14.45963588 0 1583.93133515 0 10875
0.10150000 0.10150300 17890.39489043 0 391.08134804 0 7327.51043592 0 98.76238064 0 208.33422065 0 11118
0.10250000 0.10250800 17919.84539535 0 614.18465968 0 7064.07454538 0 -10.93315149 0 1487.70012425 0 11575
0.10350000 0.10349800 16921.33839091 0 805.69387432 0 6936.24586527 0 -33.85920054 0 -265.47044831 0 11364
0.10450000 0.10450100 16438.44003551 0 604.66832477 0 6817.22985533 0 512.85468960 0 1373.50635347 0 12093
0.10550000 0.10551000 16112.01153828 0 220.12341513 0 6913.21377192 0 377.95114392 0 136.19397239 0 12067
0.10650000 0.10649700 15861.45743349 0 44.49622833 0 6232.62609211 0 700.35099192 0 161.48768466 0 12054
0.10750000 0.10749900 15954.86724106 0 -3.30883167 0 6698.48362101 0 -9.12192296 0 -339.74642021 0 12807
0.10850000 0.10850100 15680.59536323 0 105.78902382 0 6238.98830043 0 -443.85507915 0 -1124.27864546 0 12736
0.10950000 0.10950300 15752.98515393 0 339.95662038 0 6512.77683028 0 -762.25887583 0 -1053.55134700 0 12933
0.11050000 0.11050200 15272.33492868 0 249.49748363 0 6574.20698653 0 67.54653153 0 -1741.76131207 0 13428
0.11150000 0.11150900 15221.75200039 0 278.80748041 0 6284.80519281 0 343.99201400 0 -1649.04842484 0 13453
0.11250000 0.11250000 15112.94250131 0 203.03425383 0 6216.27094530 0 453.85363798 0 -2670.57628197 0 13668
0.11350000 0.11349100 14736.26829531 0 239.88672725 0 5975.10278387 0 729.45865699 0 -1434.65549345 0 13791
0.11450000 0.11448600 14657.69614671 0 106.47593998 0 5512.26899002 0 643.07200799 0 -1306.59075967 0 14205
0.11550000 0.11549300 14685.23574100 0 47.70363560 0 5680.13686804 0 478.64264504 0 40.73375771 0 14776
0.11650000 0.11649800 14668.48717141 0 160.12306966 0 5174.06029082 0 381.11201490 0 -401.04955711 0 14553
0.11750000 0.11747300 14479.75664563 0 270.16341999 0 5620.79747283 0 233.00520087 0 15.32381711 0 14568
0.11850000 0.11849100 14263.03689954 0 492.08533925 0 5937.42412262 0 -224.95689495 0 638.76346657 0 16015
0.11950000 0.11950300 13846.90800948 0 233.93817488 0 5804.34605861 0 -207.18205395 0 -348.16566761 0 15270
0.12050000 0.12050700 13916.15041798 0 -50.58450198 0 6026.06789428 0 243.90638395 0 487.91730595 0 15999
0.12150000 0.12150000 13939.98059753 0 -88.67266014 0 5290.34482264 0 473.99238783 0 -1307.51249303 0 15670
0.12250000 0.12250700 14112.97421228 0 -0.09796418 0 5665.44533753 0 -30.41765050 0 -688.32686784 0 16887
0.12350000 0.12352200 13892.54505145 0 222.11975470 0 5540.12332253 0 -277.00560409 0 -1200.74879239 0 16407
0.12450000 0.12449800 13849.60576565 0 235.68946827 0 5895.68758645 0 -100.62776663 0 -234.88238954 0 16306
0.12550000 0.12549900 13730.79208743 0 34.97191255 0 5866.52933846 0 83.51927140 0 -280.24740776 0 17523
0.12650000 0.12650100 13895.46762064 0 -67.85744793 0 5719.23185128 0 554.51254121 0 -11.07001765 0 17154
0.12750000 0.12750600 13848.25688757 0 41.00398296 0 6000.21439760 0 808.12185487 0 422.96995010 0 18007
0.12850000 0.12850300 13620.85852328 0 252.20198419 0 5609.80411641 0 479.41824994 0 374.13381893 0 17496
0.12950000 0.12949900 13349.28440162 0 325.27745459 0 5203.42087053 0 548.38975876 0 1079.76566857 0 18405
0.13050000 0.13049000 13202.81872259 0 313.80299833 0 4772.85898493 0 545.36714778 0 697.79486795 0 18100
0.13150000 0.13148800 12864.25032258 0 71.04439722 0 4397.25264076 0 493.16893798 0 1268.01284636 0 19059
0.13250000 0.13249300 12809.17113399 0 136.60762833 0 4273.67292662 0 463.86006526 0 610.93161536 0 18957
0.13350000 0.13349100 12730.26176586 0 101.57625274 0 3881.08195919 0 87.31849894 0 743.59377529 0 19468
0.13450000 0.13450700 12497.01826319 0 117.36475835 0 3769.55222264 0 109.37973729 0 330.18624677 0 19953
0.13550000 0.13551000 12503.53784062 0 157.17689511 0 3637.86799932 0 125.59179062 0 471.35982743 0 19956
0.13650000 0.13649900 12311.09790010 0 146.99286554 0 3653.22272822 0 150.09416108 0 -309.20332405 0 19723
0.13750000 0.13749600 12291.31435482 0 99.13343452 0 3119.32554045 0 19.70047688 0 -479.14285399 0 20946
0.13850000 0.13851100 12182.05522971 0 103.81111892 0 3391.83263612 0 -150.06943165 0 -716.08677888 0 20955
0.13950000 0.13949800 12006.70107831 0 208.65795139 0 3180.36227392 0 10.48352546 0 -678.81840138 0 20506
0.14050000 0.14048300 11863.38278149 0 159.43064558 0 2999.17422479 0 -145.45402046 0 -614.77029758 0 21447
0.14150000 0.14148400 11772.33351057 0 162.87253283 0 3354.08653097 0 288.60258345 0 -493.95016320 0 21771
0.14250000 0.14249400 11613.16589622 0 244.70896641 0 3560.82457921 0 154.88605049 0 -244.52574381 0 22470
0.14350000 0.14350900 11535.38059316 0 145.00551849 0 3323.92786506 0 297.20505346 0 234.78571995 0 22519
0.14450000 0.14449900 11216.15735305 0 368.60117064 0 3972.10874881 0 -250.76767716 0 797.09814870 0 22218
0.14550000 0.14550500 11025.72948901 0 339.35861776 0 3631.56199426 0 -44.37269357 0 1004.14868704 0 23559
0.14650000 0.14650700 10697.31139661 0 292.21308047 0 4429.02996037 0 230.87734569 0 1044.94550480 0 23044
0.14750000 0.14750500 10589.44611219 0 297.47145688 0 3850.30505749 0 209.64263239 0 1443.02977824 0 23649
0.14850000 0.14849900 10257.18371724 0 115.64381472 0 4071.40865737 0 368.07173599 0 686.09672273 0 23640
0.14950000 0.14949500 10254.99179034 0 153.15161808 0 3721.56588467 0 320.54626470 0 1195.07226377 0 24457
0.15050000 0.15050000 10037.92358408 0 92.30507642 0 3590.73595081 0 328.46305501 0 835.74800217 0 24591
0.15150000 0.15149900 10053.00853736 0 1.42881036 0 3494.39233339 0 388.92988749 0 1336.25483695 0 25020
0.15250000 0.15250500 10060.80954896 0 -9.27694277 0 3341.50824280 0 22.91800074 0 1094.95066364 0 25297
0.15350000 0.15350100 10154.29804109 0 18.38554556 0 3177.86684946 0 232.52634915 0 1123.43896885 0 25452
0.15450000 0.15450400 9987.05963952 0 91.42538309 0 3451.73406387 0 4.02397311 0 1276.81427588 0 26061
0.15550000 0.15549900 9943.18737972 0 193.65617892 0 3065.16808523 0 140.24735104 0 1067.94500026 0 26128
0.15650000 0.15649500 9724.19702217 0 201.66963883 0 3348.41000235 0 208.17685154 0 1294.39465363 0 26331
0.15750000 0.15749700 9589.71387683 0 250.34840089 0 3111.36715974 0 147.90560638 0 640.01904726 0 27345
0.15850000 0.15849900 9329.95367909 0 157.03863510 0 3099.95789924 0 -27.09873597 0 858.05619762 0 26980
0.15950000 0.15949700 9184.94928466 0 134.88106438 0 3008.15550472 0 -87.44978974 0 -21.36948870 0 27777
0.16050000 0.16050000 9142.16736797 0 108.35987305 0 2994.02600675 0 -235.92214974 0 375.87724386 0 28224
0.16150000 0.16150500 9115.11112167 0 127.49370872 0 3220.76117265 0 -148.56093632 0 -32.41736227 0 28075
0.16250000 0.16249700 8974.92896640 0 154.24308527 0 3184.24029842 0 -281.58729333 0 173.53429005 0 28590
0.16350000 0.16349900 9037.52815032 0 83.69709850 0 3192.55837997 0 93.48422068 0 281.33550276 0 29163
0.16450000 0.16449100 8888.13990210 0 13.33883060 0 3142.34639315 0 368.90466821 0 295.52794837 0 28996
0.16550000 0.16550500 8938.88019950 0 32.85552283 0 3022.88075718 0 328.28882492 0 485.58936719 0 30777
0.16650000 0.16650700 8944.80402244 0 -9.45417411 0 2897.88472105 0 331.26534924 0 446.46178606 0 29211
0.16750000 0.16749900 8960.61961802 0 45.87972762 0 3035.03190062 0 96.47243527 0 759.56561591 0 30922
0.16850000 0.16850800 8889.80351841 0 116.69818776 0 2762.10890087 0 -31.38816829 0 684.12960885 0 30867
0.16950000 0.16949900 8909.33976938 0 19.82210072 0 2743.50562391 0 15.33415851 0 861.42389657 0 30852
0.17050000 0.17049200 8909.82311737 0 8.62782891 0 2844.37922357 0 8.29868018 0 392.68988516 0 31257
0.17150000 0.17149500 8911.66658408 0 38.22832907 0 2695.29447293 0 -27.76081030 0 87.73665115 0 32608
0.17250000 0.17250900 8844.05406994 0 99.77021738 0 2782.11725917 0 36.88226115 0 -149.12746512 0 32361
0.17350000 0.17350400 8774.00233458 0 218.18103069 0 2829.90126543 0 -121.20568870 0 -338.72801726 0 32508
0.17450000 0.17449800 8563.46494639 0 219.38153219 0 2746.21462074 0 -33.30267592 0 -354.24123933 0 32791
0.17550000 0.17549800 8417.80859422 0 149.95252888 0 2619.62241221 0 90.76319636 0 -354.56159788 0 33633
0.17650000 0.17650100 8238.75626872 0 106.50302995 0 2684.42476367 0 170.43524264 0 -300.66942201 0 33984
0.17750000 0.17750300 8298.11814524 0 97.53152938 0 2556.98950633 0 320.77669804 0 -52.11682749 0 34069
0.17850000 0.17849800 8137.59041215 0 106.06644308 0 2637.13534605 0 304.07421512 0 104.78242355 0 34536
