### header ###
fiducial parameters:
Omega_m = 0.31
Omega_nu = 0
Omega_de = 0.69
Omega_k = 0
H_0 = 100
w_de = -1
zeff = 0
beta = 0
fgrowth = 0
b_1 = 2
gamma = 0.55
Lx = 3500 Ly = 3500 Lz = 3500
nx = 700 ny = 700 nz = 700
xoffset = 857.220397 yoffset = 15.9954215 zoffset = 262.898189
bins = 400 dk = 0.001
kx_ny = 0.628318531 ky_ny = 0.628318531 kz_ny = 0.628318531
############################
A(data) = 3.10674298 (not used)
A(ran) = 3.11029165 (used)
Ngal = 189722
weighted Ngal = 0
Nran = 9360983
weighted Nran = 0
SN(data) = 3433.45277
SN(ran) = 69.8454613
SN(data+ran) = 3503.29823
############################
13 columns: k_central k_mean P_0(k) sigma^{lin}_{P_0(k)} P^img_1(k) sigma^{lin}_{P_1(k)} P_2(k) sigma^{lin}_{P_2(k)} P^img_3(k) sigma^{lin}_{P_3(k)} P_4(k) sigma^{lin}_{P_4(k)} N_modes
### header ###
0.00050000 0 0 0 0 0 0 0 0 0 0 0 0
0.00150000 0.00179520 6253.80347809 0 -3749.99349037 0 20645.02875857 0 7270.93624079 0 9835.96281239 0 3
0.00250000 0.00253879 15646.42378500 0 -6682.63430348 0 19990.48566650 0 -14676.13081390 0 -2118.24442700 0 6
0.00350000 0.00331552 21067.78963256 0 -5486.35929008 0 31786.42454360 0 -7180.40403980 0 21381.62860097 0 7
0.00450000 0.00420575 32403.98589476 0 -5469.97042132 0 45103.78549715 0 -13506.76591836 0 -4996.97507921 0 24
0.00550000 0.00557378 53530.78894366 0 -18600.91642314 0 62116.51037850 0 -2442.07633391 0 12524.44545098 0 45
0.00650000 0.00659388 69995.41969537 0 -11644.07768573 0 55185.07551174 0 394.06686487 0 -64445.68561647 0 40
0.00750000 0.00754703 86275.92858811 0 -7717.75210734 0 54598.87557612 0 -13707.97356644 0 -25802.35172045 0 57
0.00850000 0.00846663 91667.16949171 0 2459.00475391 0 48739.34916307 0 -8951.52593158 0 -61081.47125919 0 75
0.00950000 0.00948925 86969.02711219 0 16761.60874402 0 50432.30356966 0 -47658.78540830 0 -36661.38235913 0 112
0.01050000 0.01054430 72887.18950243 0 12825.13285803 0 38640.63613984 0 -14902.96714566 0 -52790.14246700 0 105
0.01150000 0.01145670 68840.66764578 0 9137.53621987 0 45447.97422253 0 -17093.76997313 0 -40243.44052757 0 144
0.01250000 0.01249090 66394.02760767 0 2000.68970166 0 39601.71177734 0 3810.79417017 0 -46003.48718165 0 169
0.01350000 0.01339930 68129.92130006 0 -1426.32617126 0 56895.34052046 0 4890.48115418 0 -34554.32237960 0 180
0.01450000 0.01448870 67624.09201716 0 -134.52473575 0 40347.75376636 0 15208.93765855 0 -17263.84101869 0 267
0.01550000 0.01550050 64896.32330427 0 2348.35178812 0 41142.58017954 0 23939.10145528 0 -25394.87813146 0 238
0.01650000 0.01653350 67276.98072259 0 3029.68135087 0 43745.80248233 0 11897.89157923 0 7717.97692036 0 315
0.01750000 0.01747870 64721.30637239 0 1571.63406325 0 33996.33647732 0 15414.52916042 0 -3855.23970316 0 297
0.01850000 0.01844180 67332.05991117 0 469.93563698 0 39662.86091732 0 11061.17126077 0 21621.95371360 0 388
0.01950000 0.01947590 62547.70174054 0 -1701.81203937 0 18385.54555513 0 14086.78349608 0 4047.84825344 0 399
0.02050000 0.02045430 71190.30086808 0 -3939.47713974 0 19107.30773857 0 11836.29281323 0 4052.32203243 0 462
0.02150000 0.02154770 70856.67835438 0 -4058.45942773 0 5609.07347411 0 -1144.38816962 0 -4495.55213140 0 571
0.02250000 0.02255340 77165.15635763 0 2759.32121949 0 6988.49240987 0 -4330.10099329 0 -2805.10438992 0 510
0.02350000 0.02348930 73527.79418759 0 1990.20217452 0 5751.79601645 0 -12482.06819772 0 -1733.18469556 0 555
0.02450000 0.02439640 69614.02441607 0 5927.41994347 0 21748.41103432 0 -8664.47343386 0 8136.83728855 0 592
0.02550000 0.02547300 68070.79547721 0 5444.73516043 0 25972.75998554 0 -3621.43416796 0 7293.21521054 0 837
0.02650000 0.02652900 65888.87276382 0 2027.08274957 0 35038.68201960 0 1987.39201184 0 8587.92460238 0 723
0.02750000 0.02749970 66403.69456730 0 2273.61270141 0 34907.61603208 0 3496.03346840 0 4307.83326419 0 826
0.02850000 0.02848090 66527.56653836 0 -411.49886603 0 41553.87558979 0 4463.20153860 0 10124.17309714 0 831
0.02950000 0.02946900 66216.98735866 0 356.64111826 0 35209.31509770 0 2839.69187222 0 2852.38256689 0 996
0.03050000 0.03053250 64353.28746746 0 3913.94962193 0 31365.46217373 0 8448.45060811 0 739.52016346 0 1041
0.03150000 0.03150510 60753.13185134 0 4482.64786436 0 32166.47094482 0 -796.42483372 0 -922.14364369 0 1036
0.03250000 0.03246190 54871.12413683 0 4914.59235000 0 25125.32732693 0 8947.85023879 0 -201.26722353 0 1059
0.03350000 0.03345080 51361.45575909 0 2274.11853069 0 24020.59617308 0 7472.36870189 0 -3664.15988138 0 1302
0.03450000 0.03451200 47836.38768985 0 1105.46179614 0 16565.12216925 0 5393.75880936 0 -5639.43447174 0 1339
0.03550000 0.03553350 47740.84215864 0 37.17822748 0 16443.61073484 0 3001.09637606 0 -6023.21276900 0 1365
0.03650000 0.03647120 48465.07728523 0 133.71428484 0 21970.86351229 0 -8838.87212995 0 -8833.26304524 0 1308
0.03750000 0.03744890 50571.68763873 0 1027.50788332 0 24038.80602727 0 -7191.99315070 0 -7680.34322171 0 1579
0.03850000 0.03847530 48493.51613158 0 1158.87736841 0 28456.38176455 0 -6786.04829020 0 -7563.41797281 0 1662
0.03950000 0.03950240 49802.37750270 0 -610.01100606 0 29862.81198401 0 -1678.93731513 0 -8807.48823311 0 1683
0.04050000 0.04050350 50452.53674098 0 330.18175051 0 32678.03295959 0 3612.79010754 0 -10829.20919228 0 1822
0.04150000 0.04152450 49677.60627959 0 776.64915689 0 28698.84260082 0 6535.84264558 0 -10865.53897545 0 1887
0.04250000 0.04250150 47507.48624946 0 1614.19116692 0 28476.72734237 0 3820.00026312 0 -12135.18171616 0 1920
0.04350000 0.04349210 46289.78655577 0 56.60555654 0 21564.73880138 0 1657.91729827 0 -9710.21365267 0 2005
0.04450000 0.04448520 46288.55008419 0 286.17460290 0 22962.40131327 0 601.53218322 0 -10093.31751088 0 2151
0.04550000 0.04548030 46199.29931739 0 383.83000425 0 20170.11126518 0 -134.27744144 0 -9436.26775370 0 2274
0.04650000 0.04648670 45448.64866157 0 1643.64167184 0 18586.52839020 0 -143.90955505 0 -10260.35358074 0 2311
0.04750000 0.04749250 44014.22922179 0 2023.81172021 0 18705.11725541 0 3949.06541481 0 -10270.68373876 0 2568
0.04850000 0.04851840 41057.93807954 0 2058.48912772 0 18921.72459500 0 2474.40444541 0 -6655.40944741 0 2493
0.04950000 0.04949480 40662.15476730 0 1446.66050843 0 15105.74848484 0 5553.52217820 0 -7311.16652975 0 2644
0.05050000 0.05050630 38928.62161157 0 867.00825186 0 14914.20779639 0 3493.44811873 0 -3502.41815802 0 2829
0.05150000 0.05149060 38253.84534819 0 86.09888834 0 12481.73097820 0 2368.64116269 0 -1140.73495813 0 2784
0.05250000 0.05249300 38888.82970798 0 -930.72588053 0 13307.69399391 0 1008.43811935 0 1045.07027602 0 3055
0.05350000 0.05348950 39691.86179620 0 -734.57877340 0 12410.57765907 0 380.86472059 0 -318.46786838 0 3009
0.05450000 0.05448610 40377.65389730 0 189.44430709 0 13415.71664744 0 -683.24721777 0 -495.48338796 0 3336
0.05550000 0.05550870 39873.39830551 0 2220.83784622 0 13421.67419233 0 -2346.96918808 0 -977.42966025 0 3349
0.05650000 0.05647670 38683.12579960 0 2560.58651457 0 14809.22011856 0 975.11521026 0 1298.91339522 0 3324
0.05750000 0.05747970 35513.93673251 0 1644.97930927 0 12934.84160917 0 1694.78663266 0 498.57906317 0 3639
0.05850000 0.05849280 35856.77657980 0 705.20470491 0 12255.79389851 0 5071.59051876 0 28.96839341 0 3846
0.05950000 0.05951020 34261.61583457 0 127.26664758 0 9818.79833873 0 5401.91952179 0 1108.44056858 0 3787
0.06050000 0.06049470 33793.10551210 0 -453.10051438 0 8318.01409703 0 5566.68498021 0 1993.72049820 0 3930
0.06150000 0.06148310 33949.46296377 0 28.01788398 0 5037.75616006 0 2514.64597503 0 3264.37489749 0 4083
0.06250000 0.06249100 33381.58528884 0 -33.73971242 0 4097.32959795 0 2230.63969366 0 3537.21921268 0 4303
0.06350000 0.06350600 33068.98279201 0 625.28705041 0 3942.08497071 0 -86.99083397 0 4518.15708002 0 4470
0.06450000 0.06451750 32271.00899662 0 888.99496469 0 4200.22651475 0 -634.80563345 0 5126.79335450 0 4479
0.06550000 0.06550280 31331.40300201 0 1145.65836315 0 3937.80228278 0 -870.03311097 0 2603.40215320 0 4636
0.06650000 0.06648880 30269.27391444 0 1009.54757158 0 3965.34187707 0 5.51360663 0 3355.48037166 0 4653
0.06750000 0.06749660 29989.04449172 0 733.54688166 0 4577.37282807 0 -460.98920306 0 1317.83141040 0 5220
0.06850000 0.06852730 30196.43449771 0 241.50088470 0 5091.35158275 0 -675.33941998 0 3668.73482623 0 5029
0.06950000 0.06949320 29739.95167152 0 28.70277683 0 6109.97935199 0 -513.01992717 0 1308.54663290 0 5040
0.07050000 0.07048030 30693.04644700 0 -2.25514431 0 6814.80187477 0 176.97730137 0 4058.44818708 0 5475
0.07150000 0.07148790 29908.44902598 0 -1.81668025 0 8422.40602037 0 -217.74826564 0 1118.56951896 0 5509
0.07250000 0.07249820 30099.87730793 0 724.89495280 0 9098.77845615 0 -393.90837170 0 5208.24310970 0 5916
0.07350000 0.07351270 29513.90218532 0 944.30571067 0 9196.43722970 0 -522.19567036 0 2368.80977245 0 5721
0.07450000 0.07449140 29181.29133019 0 481.51912756 0 8842.01951216 0 359.74691006 0 3037.45988118 0 6028
0.07550000 0.07549160 28603.40947611 0 422.25616877 0 9344.55528439 0 849.21542582 0 2507.09225774 0 6183
0.07650000 0.07648840 28544.62087279 0 -82.19995623 0 7203.69466811 0 1068.57110451 0 1019.67652196 0 6330
0.07750000 0.07749960 27800.71460741 0 514.41489192 0 7393.47057441 0 872.16546241 0 -36.98207812 0 6583
0.07850000 0.07848650 27273.30327511 0 632.72498900 0 6101.61630784 0 170.64993907 0 -959.59299567 0 6549
0.07950000 0.07947320 26040.99073547 0 1189.14844083 0 5911.63806984 0 82.29808711 0 -699.27750978 0 6828
0.08050000 0.08048110 25201.87615840 0 1329.92635059 0 4809.35737786 0 36.98871011 0 -2671.84647550 0 7147
0.08150000 0.08149960 23582.77282711 0 962.78646454 0 5177.49992995 0 -243.62873988 0 -1051.67415833 0 7386
0.08250000 0.08250610 22779.96555190 0 830.01976656 0 4922.48328681 0 844.72253772 0 -2262.24840352 0 7227
0.08350000 0.08350160 22710.49833039 0 482.69939589 0 4663.54365658 0 346.70213489 0 -731.38305640 0 7798
0.08450000 0.08449610 21809.11054827 0 857.31656280 0 5043.27531957 0 232.13067825 0 -1595.18322654 0 7371
0.08550000 0.08548940 21463.23572528 0 1037.15011352 0 5997.48291947 0 -838.69530080 0 -810.26769510 0 8256
0.08650000 0.08650700 20584.10443161 0 852.01547191 0 5032.70910788 0 -115.55838577 0 292.49409674 0 8037
0.08750000 0.08749060 20090.75227102 0 966.35986741 0 7731.44321993 0 -193.53927616 0 12.09617666 0 8155
0.08850000 0.08849210 19740.15637472 0 101.99991286 0 6375.44980030 0 399.04984534 0 -1520.01699510 0 8718
0.08950000 0.08949900 19248.49031175 0 146.59719464 0 6593.60834969 0 -263.55953769 0 -1735.11808749 0 8571
0.09050000 0.09049190 19345.49712756 0 157.35224926 0 6080.74241944 0 -524.28643139 0 -2530.15807304 0 8932
0.09150000 0.09150830 19264.45203579 0 29.70971432 0 5993.57117302 0 148.84195259 0 -2841.77139260 0 9285
0.09250000 0.09250820 19381.12999037 0 -92.62071389 0 5438.77761554 0 629.14708987 0 -2481.72210904 0 9204
0.09350000 0.09350330 19122.03299103 0 187.99651128 0 5158.03112288 0 1387.90562706 0 -2663.82065088 0 9349
0.09450000 0.09448040 19054.02705410 0 170.85789111 0 4355.88704607 0 1691.89778543 0 -2479.33909108 0 9564
0.09550000 0.09549270 18579.55918675 0 444.09787721 0 4409.24641509 0 1277.64608404 0 -1339.42470045 0 10155
0.09650000 0.09649430 18422.86451556 0 642.41555399 0 3971.47927237 0 600.68801035 0 -675.41810454 0 9913
0.09750000 0.09749140 17656.47694872 0 277.72837794 0 3381.55868136 0 786.51282791 0 -170.05306052 0 10476
0.09850000 0.09850240 17290.03173489 0 101.93336821 0 3058.10895657 0 -141.09826830 0 -287.75503839 0 10575
0.09950000 0.09950330 17435.26094233 0 -21.29575003 0 3359.00993599 0 -188.32923454 0 -60.49291079 0 10882
0.10050000 0.10051200 17532.82979068 0 -71.25943087 0 3190.60250674 0 -689.73532137 0 -313.46802694 0 10875
0.10150000 0.10150300 17498.99543198 0 134.17065526 0 4287.75746199 0 -620.79191418 0 -543.59899342 0 11118
0.10250000 0.10250800 17613.53766293 0 231.50232587 0 5003.10123386 0 -1293.48416092 0 921.08477439 0 11575
0.10350000 0.10349800 17633.54602123 0 388.72755577 0 6025.41593654 0 -441.15282672 0 622.42742886 0 11364
0.10450000 0.10450100 17491.57660250 0 201.03903832 0 6790.62323505 0 -246.59739574 0 1065.13933384 0 12093
0.10550000 0.10551000 17149.18638123 0 335.52892806 0 6655.25207830 0 -51.83198940 0 569.21531237 0 12067
0.10650000 0.10649700 16989.11951482 0 308.82114192 0 7394.56091753 0 225.07042552 0 1145.52347534 0 12054
0.10750000 0.10749900 16935.72642385 0 222.75597554 0 6659.56848818 0 -155.11535976 0 282.77318198 0 12807
0.10850000 0.10850100 16688.99414030 0 227.46805632 0 6613.61670799 0 -22.67610194 0 -593.59066348 0 12736
0.10950000 0.10950300 16560.28868943 0 264.52735772 0 6317.57168969 0 -282.80353174 0 -1413.71416114 0 12933
0.11050000 0.11050200 16192.60700402 0 310.48700636 0 6488.81176292 0 -182.87189861 0 -1664.88650172 0 13428
0.11150000 0.11150900 16228.91430588 0 332.65244554 0 6579.53505497 0 226.44515711 0 -683.02802508 0 13453
0.11250000 0.11250000 15805.59139935 0 195.48952906 0 6566.49590013 0 491.90211664 0 -925.60126786 0 13668
0.11350000 0.11349100 15888.43499524 0 104.40979597 0 6429.50608967 0 1037.21193710 0 -134.07510972 0 13791
0.11450000 0.11448600 15557.06061169 0 85.05305820 0 6071.28903217 0 1434.83534386 0 -667.71938285 0 14205
0.11550000 0.11549300 15370.01618353 0 380.25210512 0 5582.65794490 0 866.32032403 0 655.41649063 0 14776
0.11650000 0.11649800 14872.50498217 0 370.32998272 0 4896.36001452 0 745.07529305 0 391.93451343 0 14553
0.11750000 0.11747300 14527.52941124 0 318.89838530 0 3873.53948255 0 1129.97765538 0 249.18049727 0 14568
0.11850000 0.11849100 14361.84221947 0 40.87336659 0 3517.86281212 0 929.19715203 0 445.41190928 0 16015
0.11950000 0.11950300 14171.20078307 0 -104.11427927 0 3179.10332104 0 439.95344929 0 317.16732509 0 15270
0.12050000 0.12050700 14235.94693128 0 -6.07431277 0 2771.56228814 0 54.73769761 0 366.73634668 0 15999
0.12150000 0.12150000 14385.44758600 0 117.02753883 0 3434.18740808 0 -468.21918961 0 637.84285727 0 15670
0.12250000 0.12250700 14437.37939238 0 126.13808624 0 3414.80852622 0 -404.67916323 0 1170.96106795 0 16887
0.12350000 0.12352200 14379.49004111 0 184.16906971 0 4611.13974287 0 -532.18748479 0 1438.44359274 0 16407
0.12450000 0.12449800 14259.88951734 0 190.25026175 0 4234.57794338 0 623.25586482 0 2233.48357830 0 16306
0.12550000 0.12549900 13990.90074534 0 284.24570723 0 4387.73180959 0 824.17575225 0 2141.24279840 0 17523
0.12650000 0.12650100 13883.10290483 0 238.20062964 0 3537.18549073 0 1073.64513425 0 2708.89566031 0 17154
0.12750000 0.12750600 13582.19068476 0 260.38630199 0 3772.17129426 0 602.05262535 0 2700.36400641 0 18007
0.12850000 0.12850300 13336.24524677 0 221.63528266 0 2738.32368393 0 621.99466381 0 2556.10149493 0 17496
0.12950000 0.12949900 13027.68938420 0 228.14361943 0 2908.02378801 0 127.98942142 0 2525.30211192 0 18405
0.13050000 0.13049000 12913.14715326 0 240.81857720 0 2481.16007650 0 -609.58948166 0 1888.50800736 0 18100
0.13150000 0.13148800 12760.49911633 0 224.72084128 0 3176.68658113 0 -648.57543059 0 1658.73786577 0 19059
0.13250000 0.13249300 12535.91091472 0 199.83853683 0 3294.03897476 0 -993.87136007 0 542.11859971 0 18957
0.13350000 0.13349100 12529.50374381 0 212.07960547 0 3978.17870021 0 -1213.39452446 0 179.61660616 0 19468
0.13450000 0.13450700 12446.43533490 0 114.35226395 0 4152.34134263 0 -767.15979954 0 -260.58188931 0 19953
0.13550000 0.13551000 12438.22965987 0 105.70944001 0 4533.08466419 0 -276.91230669 0 -524.03688895 0 19956
0.13650000 0.13649900 12503.65024713 0 -87.82275454 0 4528.71205106 0 248.03619903 0 -888.81961054 0 19723
0.13750000 0.13749600 12473.97492920 0 34.68224098 0 4550.10300940 0 627.34633762 0 -775.06197701 0 20946
0.13850000 0.13851100 12499.37879985 0 94.15888454 0 3887.02826343 0 888.13168271 0 -728.64146168 0 20955
0.13950000 0.13949800 12181.83041670 0 181.03742441 0 3674.80477763 0 533.75330744 0 -788.76770244 0 20506
0.14050000 0.14048300 12002.65444405 0 386.85823556 0 3222.97558084 0 347.59239442 0 -698.46593480 0 21447
0.14150000 0.14148400 11659.36497072 0 292.58064975 0 3550.15720167 0 55.00578713 0 -705.74425615 0 21771
0.14250000 0.14249400 11493.67777895 0 200.32638107 0 3120.42712422 0 -162.64659575 0 -811.16245090 0 22470
0.14350000 0.14350900 11362.72419793 0 57.47917992 0 3196.99843700 0 -189.92653101 0 -1171.48937853 0 22519
0.14450000 0.14449900 11256.38764201 0 -5.30498015 0 2856.45168246 0 -96.79099531 0 -1797.30136733 0 22218
0.14550000 0.14550500 11304.49762714 0 76.92932751 0 3110.25433531 0 -120.04228135 0 -1689.14382600 0 23559
0.14650000 0.14650700 11249.75565808 0 83.78623686 0 2949.89521198 0 77.11513546 0 -2241.85786309 0 23044
0.14750000 0.14750500 11068.94979108 0 169.56296815 0 2784.20802021 0 213.28572730 0 -1941.65380402 0 23649
0.14850000 0.14849900 10995.55958245 0 94.11470878 0 2706.97350904 0 415.32293540 0 -1712.82787709 0 23640
0.14950000 0.14949500 10913.27801910 0 139.80109721 0 2452.65378625 0 493.35328465 0 -1241.67600170 0 24457
0.15050000 0.15050000 10730.37015041 0 240.27902596 0 2275.37748357 0 414.03475683 0 -1038.45627713 0 24591
0.15150000 0.15149900 10607.39743141 0 353.18237003 0 2384.95134690 0 218.42045655 0 -548.40774380 0 25020
0.15250000 0.15250500 10334.59807882 0 366.98026881 0 2497.99857130 0 -54.75152361 0 -270.72320440 0 25297
0.15350000 0.15350100 10064.65385151 0 308.05115735 0 2768.02148316 0 83.51016648 0 486.68420657 0 25452
0.15450000 0.15450400 9853.49822753 0 121.64857034 0 2635.86515251 0 200.02513163 0 1034.04094952 0 26061
0.15550000 0.15549900 9885.25306585 0 61.83594374 0 2846.39130005 0 461.33541511 0 978.47391670 0 26128
0.15650000 0.15649500 9837.34541243 0 19.88740890 0 2328.70313064 0 339.40807663 0 566.60523327 0 26331
0.15750000 0.15749700 9795.38406325 0 198.62791874 0 2748.45151023 0 -86.18229397 0 637.64726995 0 27345
0.15850000 0.15849900 9496.92230504 0 334.55661177 0 2551.81880700 0 -401.16645987 0 644.21630624 0 26980
0.15950000 0.15949700 9226.66333952 0 367.50408313 0 3000.88280370 0 -323.22378770 0 407.56913453 0 27777
0.16050000 0.16050000 9051.81501740 0 184.66028614 0 2964.94644331 0 -166.15817504 0 599.24471079 0 28224
0.16150000 0.16150500 8871.95336505 0 75.55864256 0 3269.89405699 0 76.15102485 0 57.92903076 0 28075
0.16250000 0.16249700 8989.31699933 0 -57.04596524 0 3117.67316480 0 242.19443285 0 371.46416438 0 28590
0.16350000 0.16349900 8951.95307630 0 -54.97734829 0 3101.28429603 0 287.73368115 0 7.95919004 0 29163
0.16450000 0.16449100 9114.26807286 0 -36.80481306 0 2921.59125344 0 153.29212621 0 352.91259442 0 28996
0.16550000 0.16550500 9140.30141995 0 -29.53773236 0 3013.03394714 0 239.69900838 0 455.07886891 0 30777
0.16650000 0.16650700 9146.09035508 0 62.23217667 0 2761.92905046 0 -48.34952340 0 234.09329586 0 29211
0.16750000 0.16749900 9030.35661515 0 113.49460230 0 2875.48210415 0 7.48768971 0 352.33594903 0 30922
0.16850000 0.16850800 9048.58895064 0 128.23446760 0 2743.74167758 0 17.48427018 0 140.44069023 0 30867
0.16950000 0.16949900 8889.11783872 0 204.37189127 0 2964.48557663 0 -247.79340097 0 133.08818059 0 30852
0.17050000 0.17049200 8822.33713273 0 204.35727842 0 2897.05291290 0 -138.79843116 0 -191.20684113 0 31257
0.17150000 0.17149500 8635.39387042 0 100.84830820 0 2914.53212479 0 -1.04441719 0 -134.97211365 0 32608
0.17250000 0.17250900 8655.37974742 0 38.63377934 0 2846.35757810 0 72.76770139 0 248.96018052 0 32361
0.17350000 0.17350400 8603.84136382 0 52.16493747 0 2999.55640691 0 65.39619504 0 176.95257194 0 32508
0.17450000 0.17449800 8578.84215659 0 39.96883143 0 2853.38298481 0 391.58605326 0 359.30964875 0 32791
0.17550000 0.17549800 8497.01021927 0 87.93504864 0 2848.95416842 0 375.51079864 0 340.51977698 0 33633
0.17650000 0.17650100 8503.05768936 0 61.65114744 0 2649.81480007 0 178.46219133 0 592.77571630 0 33984
0.17750000 0.17750300 8416.29110637 0 45.28453516 0 2709.79491237 0 205.84666464 0 615.32333760 0 34069
0.17850000 0.17849800 8415.21200390 0 -9.09758695 0 2689.53925975 0 78.67589982 0 722.45460752 0 34536
