### header ###
fiducial parameters:
Omega_m = 0.31
Omega_nu = 0
Omega_de = 0.69
Omega_k = 0
H_0 = 100
w_de = -1
zeff = 0
beta = 0
fgrowth = 0
b_1 = 2
gamma = 0.55
Lx = 3500 Ly = 3500 Lz = 3500
nx = 700 ny = 700 nz = 700
xoffset = 857.220397 yoffset = 15.9954215 zoffset = 262.898189
bins = 400 dk = 0.001
kx_ny = 0.628318531 ky_ny = 0.628318531 kz_ny = 0.628318531
############################
A(data) = 3.08549891 (not used)
A(ran) = 3.07548624 (used)
Ngal = 187660
weighted Ngal = 0
Nran = 9360983
weighted Nran = 0
SN(data) = 3480.70455
SN(ran) = 69.0638627
SN(data+ran) = 3549.76841
############################
13 columns: k_central k_mean P_0(k) sigma^{lin}_{P_0(k)} P^img_1(k) sigma^{lin}_{P_1(k)} P_2(k) sigma^{lin}_{P_2(k)} P^img_3(k) sigma^{lin}_{P_3(k)} P_4(k) sigma^{lin}_{P_4(k)} N_modes
### header ###
0.00050000 0 0 0 0 0 0 0 0 0 0 0 0
0.00150000 0.00179520 21912.63694150 0 -4700.66028529 0 19286.14649170 0 -11892.94569291 0 -32840.23554963 0 3
0.00250000 0.00253879 28189.64112270 0 -1440.07348710 0 -1152.53764140 0 10725.27813563 0 -10476.67990406 0 6
0.00350000 0.00331552 35653.77042760 0 1402.03512503 0 18871.25407322 0 20220.24456744 0 36306.62742206 0 7
0.00450000 0.00420575 37133.93931586 0 4903.01447975 0 12098.98682081 0 35203.46995932 0 8733.15380983 0 24
0.00550000 0.00557378 41168.43367623 0 1141.34195327 0 37727.10845493 0 60844.63074829 0 39247.96849884 0 45
0.00650000 0.00659388 36335.51589444 0 -6592.87770739 0 -12107.52971537 0 69243.75738099 0 10096.25132072 0 40
0.00750000 0.00754703 54213.20884954 0 -9596.37958271 0 55641.33352491 0 59633.11341250 0 72143.39564356 0 57
0.00850000 0.00846663 59057.70450158 0 -10399.44539289 0 24495.40125996 0 39976.25025970 0 46254.15369296 0 75
0.00950000 0.00948925 74388.04118803 0 -3790.57223950 0 76619.42276464 0 32589.45663183 0 107563.36053596 0 112
0.01050000 0.01054430 81534.17248375 0 -2234.76501248 0 83513.42626446 0 -1428.97896483 0 76913.25337475 0 105
0.01150000 0.01145670 88273.05500349 0 180.48101220 0 94588.38980368 0 11569.43976487 0 84810.37254581 0 144
0.01250000 0.01249090 99245.50380804 0 1711.54644290 0 112328.04756781 0 14713.11255481 0 73849.05198548 0 169
0.01350000 0.01339930 92194.35601099 0 8151.06795237 0 91207.76409634 0 6494.36464439 0 65588.29776327 0 180
0.01450000 0.01448870 95530.80596097 0 8302.65936813 0 98794.07927468 0 31616.80312407 0 42185.60016087 0 267
0.01550000 0.01550050 81706.71647247 0 10176.85802711 0 54768.49699565 0 16250.60876179 0 965.14924932 0 238
0.01650000 0.01653350 77086.47180251 0 2984.88735771 0 49344.77061144 0 26339.54241889 0 -4856.15220685 0 315
0.01750000 0.01747870 75846.51562038 0 -149.62992221 0 36770.19185820 0 3672.57912878 0 -14923.76234951 0 297
0.01850000 0.01844180 75376.54401331 0 -2313.15731068 0 13770.02195848 0 -772.36871709 0 -37426.08382836 0 388
0.01950000 0.01947590 74376.68813079 0 -967.62444062 0 15239.73704156 0 -14642.63367473 0 -42219.54692608 0 399
0.02050000 0.02045430 76020.18367417 0 1445.15426123 0 18046.97715511 0 -6926.81495931 0 -30888.74617623 0 462
0.02150000 0.02154770 73796.78295958 0 3326.07482935 0 28730.42882937 0 -2249.60267144 0 -22204.78145400 0 571
0.02250000 0.02255340 75603.38034507 0 4936.68022869 0 38826.33168992 0 15335.39497928 0 -8460.14088487 0 510
0.02350000 0.02348930 68011.55724786 0 5104.12096198 0 41607.94311981 0 16464.51834520 0 2383.78231922 0 555
0.02450000 0.02439640 67028.78715445 0 5878.34326237 0 39887.67393194 0 20646.93966919 0 10603.63181342 0 592
0.02550000 0.02547300 62013.99564383 0 2782.02733397 0 40819.86109706 0 17118.27459172 0 27114.47288028 0 837
0.02650000 0.02652900 60309.12614746 0 1590.36098737 0 33915.06657253 0 9472.69870272 0 23928.53524360 0 723
0.02750000 0.02749970 60060.93257932 0 -2099.73107525 0 35443.68266544 0 7248.27508891 0 32192.54925451 0 826
0.02850000 0.02848090 61815.03612590 0 -1318.03374211 0 31042.06865220 0 4314.28539771 0 19160.58842303 0 831
0.02950000 0.02946900 65161.26544200 0 -2404.94846455 0 24299.70153073 0 5945.12396837 0 23599.07177067 0 996
0.03050000 0.03053250 63198.31060485 0 -416.13338632 0 25366.77650463 0 3805.31997326 0 8581.68604123 0 1041
0.03150000 0.03150510 66728.77418644 0 915.72860432 0 21582.49902953 0 3514.10843478 0 11669.81877590 0 1036
0.03250000 0.03246190 62966.64079329 0 2976.07468754 0 20384.35806812 0 9379.43502360 0 12803.43840212 0 1059
0.03350000 0.03345080 59088.27907157 0 3976.94222862 0 22189.71898202 0 1348.24861128 0 8540.71386931 0 1302
0.03450000 0.03451200 57243.80069312 0 3605.40500001 0 19425.86778028 0 5510.99879649 0 19843.45795494 0 1339
0.03550000 0.03553350 53696.92576147 0 2674.64539753 0 21252.13630455 0 5863.02225543 0 17708.40875510 0 1365
0.03650000 0.03647120 54363.72116283 0 2603.37967190 0 21506.96185662 0 -169.98786474 0 26249.84202605 0 1308
0.03750000 0.03744890 52719.77599342 0 1469.49027006 0 24079.15996339 0 1905.71744363 0 22568.41650515 0 1579
0.03850000 0.03847530 51930.56990560 0 589.77446255 0 25091.49296823 0 -340.23651259 0 21751.44601002 0 1662
0.03950000 0.03950240 53058.56920645 0 -441.01569078 0 24547.10825332 0 387.38542208 0 21448.39806631 0 1683
0.04050000 0.04050350 52724.49706673 0 -750.95977371 0 22171.84634736 0 2224.72711138 0 8630.67279711 0 1822
0.04150000 0.04152450 53321.71284007 0 172.17754351 0 25112.85020461 0 2366.24690408 0 8133.79107220 0 1887
0.04250000 0.04250150 51927.98455593 0 921.48831376 0 18900.92939115 0 2054.12775523 0 -4420.67815688 0 1920
0.04350000 0.04349210 49632.30645714 0 1547.16316661 0 15732.18995008 0 2553.48242331 0 -3959.64286715 0 2005
0.04450000 0.04448520 48205.75547287 0 2598.77100510 0 12262.31347593 0 1647.98056302 0 -13355.69157253 0 2151
0.04550000 0.04548030 43278.19141193 0 2400.09250343 0 8573.31175643 0 -238.74917340 0 -12509.15816598 0 2274
0.04650000 0.04648670 42169.52603033 0 3171.49340050 0 10598.75337100 0 56.82463683 0 -13738.32332342 0 2311
0.04750000 0.04749250 39443.55582156 0 2499.10015507 0 8715.76452315 0 435.92592413 0 -10333.93488043 0 2568
0.04850000 0.04851840 36569.09661663 0 2206.44981329 0 6731.00282357 0 1264.55072594 0 -8764.23420910 0 2493
0.04950000 0.04949480 37232.63222928 0 925.15501402 0 11586.86277351 0 835.62885128 0 -4282.00224881 0 2644
0.05050000 0.05050630 35427.72094140 0 449.50238208 0 9314.02567700 0 -335.49183391 0 -1200.40033221 0 2829
0.05150000 0.05149060 37483.86077311 0 -122.32188532 0 10666.59069816 0 1361.26528482 0 -791.49468431 0 2784
0.05250000 0.05249300 36703.53479937 0 -1096.59966710 0 10921.57361934 0 570.06510556 0 2644.26191861 0 3055
0.05350000 0.05348950 38128.84931206 0 -313.60628694 0 12494.09569400 0 1396.93186959 0 3484.32071034 0 3009
0.05450000 0.05448610 37677.08755918 0 529.74713952 0 10149.30719217 0 1319.06788198 0 2016.34792813 0 3336
0.05550000 0.05550870 36469.50445115 0 858.68792219 0 9347.77011050 0 1750.14683751 0 -642.90002604 0 3349
0.05650000 0.05647670 35187.28342227 0 1448.08807107 0 7035.43336732 0 39.39724434 0 -1593.98047691 0 3324
0.05750000 0.05747970 35067.90771150 0 860.37289573 0 8175.06674168 0 897.34114786 0 -2100.78769642 0 3639
0.05850000 0.05849280 34110.76630176 0 400.63590116 0 5872.73417766 0 -200.10943651 0 -6278.40926254 0 3846
0.05950000 0.05951020 34402.34878172 0 14.89622276 0 6439.75756313 0 -616.33049991 0 -5540.65163311 0 3787
0.06050000 0.06049470 34279.26365622 0 -176.21181305 0 5830.53677482 0 -1148.64837625 0 -6420.03022110 0 3930
0.06150000 0.06148310 34575.79202250 0 105.52857794 0 6840.16078282 0 569.62896831 0 -4831.81619802 0 4083
0.06250000 0.06249100 35706.60148604 0 71.66094691 0 8019.70970793 0 97.14923485 0 -6165.29459424 0 4303
0.06350000 0.06350600 34550.61296486 0 189.53310824 0 7968.30621214 0 -1352.77859352 0 -6282.29852769 0 4470
0.06450000 0.06451750 34985.62614815 0 1173.45649241 0 10575.79996221 0 -2055.76889024 0 -6743.25513287 0 4479
0.06550000 0.06550280 33582.34331089 0 1269.13691143 0 9512.45688435 0 -3230.52929813 0 -5841.32779952 0 4636
0.06650000 0.06648880 32876.54285150 0 1425.91026718 0 14680.28985467 0 -2178.60672143 0 -3484.69165181 0 4653
0.06750000 0.06749660 31704.14298025 0 1020.42177710 0 14318.56571415 0 -954.87192236 0 -7010.65897311 0 5220
0.06850000 0.06852730 31162.56842803 0 450.33306617 0 15619.78344277 0 2692.19205333 0 -2011.41328245 0 5029
0.06950000 0.06949320 31341.40718116 0 162.85454779 0 13672.00348410 0 3017.17050661 0 -5519.15950892 0 5040
0.07050000 0.07048030 30988.22593520 0 -188.43377259 0 15300.43655550 0 3281.88783132 0 1854.72985191 0 5475
0.07150000 0.07148790 30564.22858962 0 -449.09097426 0 12610.32402256 0 4287.69001808 0 -1191.47525553 0 5509
0.07250000 0.07249820 31677.50263802 0 -168.76263381 0 12233.20019054 0 2852.95584008 0 4766.54173922 0 5916
0.07350000 0.07351270 30499.59484792 0 317.01894850 0 10745.96093297 0 2420.62917232 0 4599.60683522 0 5721
0.07450000 0.07449140 30837.71362191 0 811.13322520 0 9947.09912617 0 1064.41656000 0 4381.21223216 0 6028
0.07550000 0.07549160 29423.07772741 0 951.15801136 0 9047.11642539 0 40.73870360 0 5150.55609015 0 6183
0.07650000 0.07648840 28366.45655870 0 1339.36849720 0 8192.44478771 0 -586.13361578 0 3002.82743628 0 6330
0.07750000 0.07749960 27038.48608134 0 1548.68065446 0 8461.52348491 0 -1695.59595952 0 2850.38173106 0 6583
0.07850000 0.07848650 26345.49996378 0 1203.82873069 0 8748.85699890 0 -474.80283875 0 1080.76159022 0 6549
0.07950000 0.07947320 25526.50615152 0 1088.18716410 0 9756.74994669 0 -1082.10822018 0 1204.39076322 0 6828
0.08050000 0.08048110 24664.01102093 0 623.36602320 0 9452.69034442 0 430.33482446 0 -559.35388948 0 7147
0.08150000 0.08149960 24618.59879197 0 63.70683764 0 9811.28958404 0 442.27689179 0 196.27525054 0 7386
0.08250000 0.08250610 24377.59924030 0 -248.24190294 0 9320.18555360 0 1551.77183341 0 -665.26779693 0 7227
0.08350000 0.08350160 25170.62714937 0 -126.95078529 0 9099.58778301 0 629.15833052 0 637.10097433 0 7798
0.08450000 0.08449610 24808.67819583 0 112.73023805 0 8937.20534255 0 1162.18211973 0 -376.26055005 0 7371
0.08550000 0.08548940 25012.58360009 0 385.19124705 0 8465.66004438 0 327.84144702 0 1220.63350353 0 8256
0.08650000 0.08650700 23913.24795860 0 925.29664622 0 8159.91434450 0 731.21894290 0 911.76290274 0 8037
0.08750000 0.08749060 23619.19253548 0 934.98383902 0 7984.25669552 0 467.23001235 0 800.84915385 0 8155
0.08850000 0.08849210 22239.29025174 0 1047.10258567 0 8375.01543689 0 1461.25087308 0 1370.58378428 0 8718
0.08950000 0.08949900 21386.34967428 0 925.93174299 0 7210.23672684 0 429.98524022 0 980.69844148 0 8571
0.09050000 0.09049190 20605.12444847 0 591.61680521 0 7458.35161042 0 1040.04682921 0 1307.52373368 0 8932
0.09150000 0.09150830 20055.90625376 0 355.12363041 0 6451.68389356 0 676.67818149 0 692.38923901 0 9285
0.09250000 0.09250820 19625.83895679 0 218.82849217 0 5671.88623040 0 769.17187603 0 655.39850559 0 9204
0.09350000 0.09350330 19717.22544723 0 213.63418747 0 6123.41192961 0 569.89087548 0 1067.44703943 0 9349
0.09450000 0.09448040 19428.11591043 0 209.33463856 0 5342.69253309 0 76.43046743 0 192.64227223 0 9564
0.09550000 0.09549270 19050.76726539 0 336.22922060 0 5333.25038648 0 -137.21687160 0 323.22715990 0 10155
0.09650000 0.09649430 19179.92234229 0 401.10351223 0 6217.04655020 0 94.02186101 0 607.09742940 0 9913
0.09750000 0.09749140 18708.37704413 0 343.64467789 0 6241.36007773 0 -226.34623938 0 1179.66133161 0 10476
0.09850000 0.09850240 18661.39112407 0 269.24168663 0 6844.35354555 0 127.66681474 0 1890.76737816 0 10575
0.09950000 0.09950330 18230.08735552 0 443.34924987 0 7019.33675547 0 54.72814306 0 2155.82192240 0 10882
0.10050000 0.10051200 18248.40961621 0 524.96087044 0 7830.28226181 0 -4.49228110 0 2387.69406567 0 10875
0.10150000 0.10150300 17734.37465828 0 322.38748329 0 7661.38024393 0 10.34323090 0 2267.03692073 0 11118
0.10250000 0.10250800 17946.93536361 0 358.29124579 0 8029.82629359 0 261.17651973 0 2279.76133736 0 11575
0.10350000 0.10349800 17269.01171802 0 138.79505897 0 7580.20026435 0 -117.65589120 0 944.56986597 0 11364
0.10450000 0.10450100 17504.50335084 0 54.16431202 0 7771.66226825 0 -64.82415833 0 661.02107908 0 12093
0.10550000 0.10551000 17341.40150873 0 34.54386857 0 7602.05208937 0 -455.20926046 0 -171.04336185 0 12067
0.10650000 0.10649700 17364.44484273 0 241.48065152 0 7473.61641412 0 410.84128796 0 -293.26408131 0 12054
0.10750000 0.10749900 17172.22971523 0 186.35312814 0 6917.47397855 0 585.63453089 0 -909.65865293 0 12807
0.10850000 0.10850100 16862.66219410 0 189.54210076 0 6341.12085297 0 1192.85785557 0 -793.83273966 0 12736
0.10950000 0.10950300 16680.78846527 0 185.91249464 0 5372.50273883 0 1440.92777656 0 -975.25909059 0 12933
0.11050000 0.11050200 16338.84787003 0 251.54440612 0 4552.86820948 0 1322.10285768 0 -826.25864483 0 13428
0.11150000 0.11150900 15796.48647226 0 342.57231981 0 3634.59696996 0 885.15403433 0 -945.57815234 0 13453
0.11250000 0.11250000 15489.95392683 0 368.31003779 0 3672.12950275 0 131.72581372 0 -1757.72303611 0 13668
0.11350000 0.11349100 15108.78346054 0 410.32871428 0 3730.37855484 0 -58.97710904 0 -915.94667294 0 13791
0.11450000 0.11448600 14724.69042506 0 477.53656500 0 3919.74979771 0 -1011.18083813 0 -1618.54129876 0 14205
0.11550000 0.11549300 14566.87168880 0 383.22300911 0 4722.35474120 0 -682.11191205 0 -631.50987465 0 14776
0.11650000 0.11649800 14057.44539767 0 212.06724076 0 4859.76045574 0 -46.06767130 0 -585.41196600 0 14553
0.11750000 0.11747300 14309.23597404 0 -108.87559410 0 5206.50080883 0 217.02324366 0 -15.99870578 0 14568
0.11850000 0.11849100 14678.49135056 0 -422.26066504 0 5118.66636402 0 884.01086015 0 2.05629720 0 16015
0.11950000 0.11950300 15029.31205987 0 -453.73898334 0 4793.24952536 0 695.93454025 0 -1028.09239716 0 15270
0.12050000 0.12050700 15331.34834501 0 -196.90360292 0 4667.96123231 0 396.17673501 0 -85.31069391 0 15999
0.12150000 0.12150000 15057.07646718 0 199.53728739 0 4418.99205927 0 -86.78805264 0 -863.04704654 0 15670
0.12250000 0.12250700 15038.52939347 0 329.54890187 0 4291.12965721 0 -247.23249250 0 20.29589415 0 16887
0.12350000 0.12352200 14709.96517260 0 487.10348284 0 4383.80882248 0 385.50598527 0 -170.64993907 0 16407
0.12450000 0.12449800 14338.46166594 0 324.48498872 0 4647.66061709 0 333.31227174 0 149.63104627 0 16306
0.12550000 0.12549900 14053.62357642 0 330.76514028 0 4152.12777027 0 621.56189876 0 598.30386833 0 17523
0.12650000 0.12650100 13764.17682010 0 217.26716578 0 4308.93484796 0 749.85256961 0 700.05761094 0 17154
0.12750000 0.12750600 13378.39768701 0 363.71373570 0 3990.90311683 0 92.73795388 0 1133.34985060 0 18007
0.12850000 0.12850300 13509.35126803 0 195.01067734 0 3853.40747709 0 276.82238149 0 1424.40401998 0 17496
0.12950000 0.12949900 13000.37460293 0 115.36279845 0 4201.83392780 0 59.23215940 0 1610.21197656 0 18405
0.13050000 0.13049000 13111.76945167 0 -28.66264771 0 3373.69022584 0 258.30902973 0 1571.98252343 0 18100
0.13150000 0.13148800 13275.54573282 0 -78.43242732 0 4343.11766684 0 261.78014268 0 1796.30094942 0 19059
0.13250000 0.13249300 13188.99272219 0 186.00241984 0 3878.36172171 0 -272.62624657 0 1181.25750402 0 18957
0.13350000 0.13349100 13224.85039803 0 339.89254867 0 4366.21720409 0 -719.21392792 0 822.36713154 0 19468
0.13450000 0.13450700 12877.40188393 0 426.80413606 0 4850.57684409 0 -1027.73157227 0 1224.10686460 0 19953
0.13550000 0.13551000 12692.83039893 0 291.48131411 0 4862.21091759 0 -734.74850723 0 230.44120844 0 19956
0.13650000 0.13649900 12573.79190769 0 181.14308653 0 5447.01701253 0 -138.44884692 0 657.59605280 0 19723
0.13750000 0.13749600 12304.35350966 0 99.41669892 0 4869.24756495 0 439.07105820 0 -659.38331627 0 20946
0.13850000 0.13851100 12199.47823834 0 148.75652364 0 4964.91674332 0 724.98712613 0 -341.76524109 0 20955
0.13950000 0.13949800 12084.82360089 0 160.23772430 0 4339.13847648 0 864.76124578 0 -632.37990102 0 20506
0.14050000 0.14048300 11734.90214363 0 171.34236316 0 4160.15359489 0 636.11854145 0 89.86967703 0 21447
0.14150000 0.14148400 11631.82537643 0 189.43194238 0 3827.29544544 0 485.80631175 0 -85.56181005 0 21771
0.14250000 0.14249400 11497.38719369 0 99.65230296 0 3810.20965633 0 283.91410803 0 573.12143850 0 22470
0.14350000 0.14350900 11481.98750219 0 111.90011599 0 3645.68025158 0 -307.89378824 0 539.03304109 0 22519
0.14450000 0.14449900 11392.62432887 0 82.88586073 0 3665.74481314 0 40.16059693 0 544.01939375 0 22218
0.14550000 0.14550500 11252.11619474 0 90.18789986 0 3557.19384903 0 -340.95366610 0 47.18735252 0 23559
0.14650000 0.14650700 11233.92882185 0 130.37918376 0 3423.43010533 0 92.75998556 0 -234.54179783 0 23044
0.14750000 0.14750500 11056.61879722 0 156.29225589 0 3412.54915542 0 50.55718720 0 -673.58700253 0 23649
0.14850000 0.14849900 11052.17874018 0 242.98127840 0 3249.72832958 0 126.10211616 0 -952.53499107 0 23640
0.14950000 0.14949500 10773.68037767 0 259.77368652 0 3201.39353144 0 134.90017349 0 -794.51504716 0 24457
0.15050000 0.15050000 10480.69281637 0 249.11305337 0 2848.69563345 0 330.71905361 0 -638.33744591 0 24591
0.15150000 0.15149900 10284.89192129 0 230.03092469 0 2797.46074742 0 643.82962785 0 47.69610437 0 25020
0.15250000 0.15250500 10089.39452377 0 229.48125687 0 2815.51323250 0 479.11700050 0 -108.14191683 0 25297
0.15350000 0.15350100 9925.51707677 0 213.02831639 0 3110.80512720 0 320.68902096 0 178.06314823 0 25452
0.15450000 0.15450400 9817.13472242 0 213.92532032 0 2907.32686767 0 42.13715296 0 854.81102175 0 26061
0.15550000 0.15549900 9660.81099270 0 69.47913661 0 3119.47166891 0 121.98354173 0 831.89133491 0 26128
0.15650000 0.15649500 9724.89394252 0 2.65338933 0 3194.41308734 0 -11.12631083 0 996.68714308 0 26331
0.15750000 0.15749700 9607.10316351 0 -70.77642011 0 2860.58824193 0 274.05268515 0 802.71172968 0 27345
0.15850000 0.15849900 9821.67594531 0 -61.76861224 0 3002.99604604 0 264.11594990 0 1216.39577820 0 26980
0.15950000 0.15949700 9759.81864434 0 95.21258314 0 2644.85767310 0 366.45083416 0 1017.11365359 0 27777
0.16050000 0.16050000 9687.32768778 0 192.20613498 0 2812.84919827 0 164.48556621 0 1307.01790440 0 28224
0.16150000 0.16150500 9628.66273161 0 144.48058011 0 2638.14700461 0 198.91005908 0 1448.47025320 0 28075
0.16250000 0.16249700 9484.58007054 0 164.83177825 0 2573.69311332 0 303.83816145 0 1585.81976448 0 28590
0.16350000 0.16349900 9340.49740947 0 87.40314104 0 2512.85871156 0 106.44952446 0 1446.67174908 0 29163
0.16450000 0.16449100 9336.23720285 0 80.58040327 0 2239.64345490 0 186.73868246 0 1155.57261710 0 28996
0.16550000 0.16550500 9269.33284969 0 29.97780384 0 2363.90884873 0 -11.71736673 0 972.53660499 0 30777
0.16650000 0.16650700 9272.81745142 0 34.96573020 0 1944.49768865 0 55.99091776 0 720.97084163 0 29211
0.16750000 0.16749900 9087.97619080 0 98.31904937 0 2085.51165207 0 -66.23834460 0 617.04990155 0 30922
0.16850000 0.16850800 9174.78773640 0 150.16385312 0 1939.76537469 0 -361.86802085 0 259.20603366 0 30867
0.16950000 0.16949900 8967.49889627 0 190.25363395 0 2508.50857973 0 -133.63560028 0 155.15132984 0 30852
0.17050000 0.17049200 8899.38055284 0 175.93866524 0 2477.20336745 0 -308.26023345 0 561.90888939 0 31257
0.17150000 0.17149500 8738.51560022 0 100.74377014 0 2738.57097824 0 -5.81170868 0 357.03791323 0 32608
0.17250000 0.17250900 8788.09811060 0 95.41581410 0 2640.59746647 0 236.67639740 0 817.22903010 0 32361
0.17350000 0.17350400 8719.26036552 0 91.80599153 0 2675.33107723 0 516.11560238 0 666.15693240 0 32508
0.17450000 0.17449800 8574.26721174 0 119.42966589 0 2391.95427230 0 267.17453096 0 980.97945775 0 32791
0.17550000 0.17549800 8480.61010985 0 152.76493969 0 2292.72180765 0 336.65074500 0 796.51813112 0 33633
0.17650000 0.17650100 8334.00954302 0 167.50817719 0 2234.33786775 0 152.84699644 0 1294.77683575 0 33984
0.17750000 0.17750300 8221.51311050 0 157.10158275 0 2250.11974138 0 -65.71767765 0 1333.10745474 0 34069
0.17850000 0.17849800 8260.43948398 0 153.79233517 0 2410.69243707 0 -20.17685566 0 1414.82698556 0 34536
