### header ###
fiducial parameters:
Omega_m = 0.31
Omega_nu = 0
Omega_de = 0.69
Omega_k = 0
H_0 = 100
w_de = -1
zeff = 0
beta = 0
fgrowth = 0
b_1 = 2
gamma = 0.55
Lx = 3500 Ly = 3500 Lz = 3500
nx = 700 ny = 700 nz = 700
xoffset = 857.220397 yoffset = 15.9954215 zoffset = 262.898189
bins = 400 dk = 0.001
kx_ny = 0.628318531 ky_ny = 0.628318531 kz_ny = 0.628318531
############################
A(data) = 3.03104948 (not used)
A(ran) = 3.0295114 (used)
Ngal = 184877
weighted Ngal = 0
Nran = 9360983
weighted Nran = 0
SN(data) = 3447.24415
SN(ran) = 68.0314406
SN(data+ran) = 3515.27559
############################
13 columns: k_central k_mean P_0(k) sigma^{lin}_{P_0(k)} P^img_1(k) sigma^{lin}_{P_1(k)} P_2(k) sigma^{lin}_{P_2(k)} P^img_3(k) sigma^{lin}_{P_3(k)} P_4(k) sigma^{lin}_{P_4(k)} N_modes
### header ###
0.00050000 0 0 0 0 0 0 0 0 0 0 0 0
0.00150000 0.00179520 35120.51395692 0 -51082.46280795 0 -47948.90660367 0 81890.38870542 0 -33862.90995314 0 3
0.00250000 0.00253879 60660.84610884 0 -50038.76838757 0 -15237.37650490 0 -62593.11396949 0 -3421.21569714 0 6
0.00350000 0.00331552 81439.97583063 0 -32731.65086357 0 -53806.97173212 0 -9899.37132317 0 17559.91975894 0 7
0.00450000 0.00420575 95677.83367253 0 -16506.89559846 0 -45629.17351231 0 -50213.67291295 0 10972.74106147 0 24
0.00550000 0.00557378 91946.94928841 0 5744.63572193 0 -51062.67926266 0 -54014.02451859 0 14382.97464284 0 45
0.00650000 0.00659388 86937.89050966 0 4453.66946678 0 -30135.84739027 0 -19257.59523884 0 -3188.15204488 0 40
0.00750000 0.00754703 69397.86670251 0 7118.72658924 0 -42240.90416247 0 -17404.01193330 0 -5973.78762773 0 57
0.00850000 0.00846663 68364.73849383 0 1163.76705148 0 -32063.28177111 0 -2098.75313863 0 -217.55829864 0 75
0.00950000 0.00948925 59031.40137887 0 -527.57094954 0 -28972.77725913 0 -6894.65545757 0 1532.29178570 0 112
0.01050000 0.01054430 59188.99530212 0 1315.87553717 0 -30714.17887037 0 -6118.25247093 0 -18398.13508395 0 105
0.01150000 0.01145670 57984.67198280 0 -298.81583871 0 -24341.51675145 0 -23066.82695856 0 -3898.15650765 0 144
0.01250000 0.01249090 57205.80729365 0 -693.87412897 0 -8970.53387196 0 -27090.75510724 0 -6232.37879780 0 169
0.01350000 0.01339930 66561.96292959 0 -4209.65742071 0 -3141.89676712 0 -28435.81137371 0 8121.79729787 0 180
0.01450000 0.01448870 66448.43235721 0 -3439.78525214 0 13277.23183043 0 -19743.97819597 0 -4971.76229962 0 267
0.01550000 0.01550050 73580.73765253 0 -2670.03673074 0 16905.15185386 0 -6680.73463351 0 -8302.17602015 0 238
0.01650000 0.01653350 79037.62395640 0 -3521.56098621 0 16698.54869342 0 -3233.54179253 0 -17599.48684951 0 315
0.01750000 0.01747870 88423.67972328 0 -1384.08380581 0 24819.91884656 0 4916.04239395 0 -22431.39297274 0 297
0.01850000 0.01844180 82531.78023613 0 -162.03622842 0 9591.44493704 0 8173.17831236 0 -23980.91667600 0 388
0.01950000 0.01947590 83697.99774947 0 -1913.78823086 0 10728.86390321 0 11110.64136464 0 -13575.55870083 0 399
0.02050000 0.02045430 82746.92629112 0 2732.62467401 0 9906.66650549 0 5916.30293989 0 -10373.00738237 0 462
0.02150000 0.02154770 78495.26255863 0 5860.65047812 0 6036.61162467 0 3286.20424121 0 -4889.91912165 0 571
0.02250000 0.02255340 73209.90858492 0 8240.90323301 0 20831.06152817 0 -3555.53023272 0 2035.53571892 0 510
0.02350000 0.02348930 67420.29901941 0 5925.44158894 0 20409.53712575 0 -10098.21843460 0 13445.61677838 0 555
0.02450000 0.02439640 64955.78634664 0 5183.99702607 0 32216.94146660 0 -1506.34836381 0 5683.88000473 0 592
0.02550000 0.02547300 60488.18971361 0 4362.51903000 0 36202.08937026 0 -4012.90107031 0 11201.03867782 0 837
0.02650000 0.02652900 58462.06241935 0 3235.29533404 0 35107.47480208 0 5989.06367207 0 3108.89421657 0 723
0.02750000 0.02749970 54066.06873147 0 667.92283863 0 37719.57721894 0 4019.44312904 0 10822.67837421 0 826
0.02850000 0.02848090 53658.59514247 0 504.10496707 0 26644.50127322 0 12045.48132333 0 -1676.01474594 0 831
0.02950000 0.02946900 55261.73674973 0 -2.13455461 0 24312.40346606 0 6904.19877004 0 -3570.15431932 0 996
0.03050000 0.03053250 51894.71222977 0 1255.23222648 0 17911.52731381 0 2423.45057565 0 -3615.73515803 0 1041
0.03150000 0.03150510 51745.43638806 0 1513.72223069 0 20919.97507545 0 -4848.36243589 0 -3021.62180430 0 1036
0.03250000 0.03246190 48755.19848060 0 3416.32601407 0 16975.96795346 0 -3036.81916409 0 -1782.29509860 0 1059
0.03350000 0.03345080 49117.93427969 0 2097.53914836 0 20585.11609017 0 -4336.60933006 0 -7251.04028899 0 1302
0.03450000 0.03451200 45901.87169905 0 2212.14882321 0 20459.33320849 0 1149.15420553 0 -3322.06191704 0 1339
0.03550000 0.03553350 45363.21971602 0 469.16115615 0 19323.91507815 0 5772.19779752 0 -12124.72791098 0 1365
0.03650000 0.03647120 44861.88669341 0 -874.51251029 0 14581.14731523 0 6476.18851215 0 -9226.43852650 0 1308
0.03750000 0.03744890 44122.47668833 0 -484.88120619 0 9737.51719329 0 5426.10940217 0 -15267.83866838 0 1579
0.03850000 0.03847530 43515.48154886 0 956.18595443 0 5010.59874789 0 675.54849609 0 -19008.95204467 0 1662
0.03950000 0.03950240 41893.68046139 0 1711.74877462 0 5906.71466482 0 -2228.76250499 0 -18822.58205555 0 1683
0.04050000 0.04050350 39837.99025571 0 1909.62919009 0 7582.47087580 0 -3769.78827630 0 -14442.77490473 0 1822
0.04150000 0.04152450 39632.28634733 0 2581.25807126 0 8334.47040970 0 -1933.16711272 0 -11242.22442209 0 1887
0.04250000 0.04250150 38417.28440982 0 798.92812664 0 12493.19644195 0 -1301.21772862 0 -9334.32629222 0 1920
0.04350000 0.04349210 38072.98327793 0 1007.60855933 0 17763.26313066 0 2398.61997818 0 -3421.84517358 0 2005
0.04450000 0.04448520 38316.79299228 0 205.14974430 0 17340.38985016 0 937.15103648 0 -3243.38860257 0 2151
0.04550000 0.04548030 38023.18719519 0 -460.05173279 0 18627.10713934 0 2200.97561638 0 1557.00997665 0 2274
0.04650000 0.04648670 39645.55031519 0 -1213.15847079 0 18701.85746670 0 1148.35611933 0 5065.52056737 0 2311
0.04750000 0.04749250 39610.25467190 0 -1568.12698023 0 18467.82711848 0 2444.02096649 0 3663.49668299 0 2568
0.04850000 0.04851840 40837.84613823 0 -1491.61187070 0 13452.36116882 0 4462.23484263 0 3844.79713863 0 2493
0.04950000 0.04949480 41428.31752113 0 -730.10162221 0 13914.35191386 0 2770.56187022 0 1800.05532676 0 2644
0.05050000 0.05050630 42850.14743209 0 83.97384332 0 7353.30772934 0 2755.16217872 0 86.25704429 0 2829
0.05150000 0.05149060 40542.55424352 0 634.29305977 0 9487.31154867 0 1398.10089727 0 -638.01146704 0 2784
0.05250000 0.05249300 40889.21591207 0 674.12093344 0 5700.59485237 0 -210.74084397 0 1174.34450382 0 3055
0.05350000 0.05348950 40401.70888986 0 624.68342746 0 6821.77107823 0 1514.52031689 0 1340.13286145 0 3009
0.05450000 0.05448610 39954.44339728 0 762.47806851 0 6657.15174827 0 -301.49560984 0 2981.99851047 0 3336
0.05550000 0.05550870 38631.19399323 0 1473.05355634 0 7686.04223163 0 590.36347265 0 3404.63573731 0 3349
0.05650000 0.05647670 37975.30202307 0 1981.13096938 0 10232.16202871 0 674.33113361 0 5719.01827891 0 3324
0.05750000 0.05747970 36974.88410801 0 1978.60182297 0 12230.50243436 0 -844.03123770 0 10152.53325893 0 3639
0.05850000 0.05849280 35282.94135999 0 1916.00263905 0 15464.32524316 0 902.52421191 0 13068.94257239 0 3846
0.05950000 0.05951020 34774.97635345 0 955.98699491 0 15200.84439003 0 1676.86903540 0 16634.25217124 0 3787
0.06050000 0.06049470 33444.64533944 0 573.10682565 0 16851.08432384 0 1899.15290360 0 16069.29706550 0 3930
0.06150000 0.06148310 34161.57404306 0 468.05957237 0 15232.88024461 0 1325.85723502 0 13600.85016498 0 4083
0.06250000 0.06249100 33171.94715271 0 630.30600096 0 14122.30395239 0 584.78473769 0 9877.22724123 0 4303
0.06350000 0.06350600 31393.90102008 0 1254.52406548 0 12601.66872150 0 205.15986088 0 6786.91382031 0 4470
0.06450000 0.06451750 31223.26794198 0 528.34205818 0 10683.49663686 0 -1665.14503669 0 4127.10608174 0 4479
0.06550000 0.06550280 29852.58299184 0 486.03000070 0 11247.17030842 0 -111.29862877 0 -481.72595553 0 4636
0.06650000 0.06648880 30172.26709863 0 340.84125960 0 8614.91340479 0 -188.33597893 0 -1960.04350861 0 4653
0.06750000 0.06749660 28737.39803282 0 264.84659220 0 9671.65822066 0 639.03886251 0 -4380.81880939 0 5220
0.06850000 0.06852730 29021.67408981 0 587.91525892 0 7782.46453360 0 1055.61625454 0 -3351.64730976 0 5029
0.06950000 0.06949320 28680.85755965 0 -159.83755713 0 8478.67671793 0 2315.15814651 0 -2931.15704722 0 5040
0.07050000 0.07048030 28880.82873615 0 -425.44626545 0 7398.09048186 0 1731.57728251 0 -1174.42318837 0 5475
0.07150000 0.07148790 29098.33532779 0 -697.52509233 0 5915.36996588 0 2605.66152400 0 -1745.32459835 0 5509
0.07250000 0.07249820 29590.22620378 0 181.46681727 0 5087.60844605 0 1812.11654499 0 2056.49953254 0 5916
0.07350000 0.07351270 29029.54254532 0 695.23986804 0 4517.99971091 0 504.21737358 0 767.89044184 0 5721
0.07450000 0.07449140 28512.92223772 0 1319.23649174 0 4895.01113643 0 14.73413257 0 2889.91509968 0 6028
0.07550000 0.07549160 26766.57474016 0 1150.88526574 0 5234.69236087 0 -544.10145050 0 2550.27883785 0 6183
0.07650000 0.07648840 26455.88315395 0 789.78498134 0 6482.88793999 0 -1004.33752997 0 3136.70358648 0 6330
0.07750000 0.07749960 26072.12733800 0 528.82203396 0 7719.11222608 0 -1153.65046582 0 2953.27864785 0 6583
0.07850000 0.07848650 26160.92847877 0 340.37926885 0 9070.98032690 0 -992.52248198 0 2703.94977399 0 6549
0.07950000 0.07947320 25894.30024343 0 -45.81925292 0 8920.73778922 0 274.43823947 0 3064.49364619 0 6828
0.08050000 0.08048110 26122.93507930 0 67.57216021 0 8875.42672613 0 688.42016524 0 1787.25222558 0 7147
0.08150000 0.08149960 26021.43200320 0 285.49004727 0 9051.06189380 0 1809.83469290 0 2318.33925066 0 7386
0.08250000 0.08250610 25202.21337793 0 678.84650301 0 7087.65743062 0 1740.44615593 0 693.35818310 0 7227
0.08350000 0.08350160 24627.92853208 0 1123.92006870 0 7139.75784676 0 1650.66707854 0 2604.61614348 0 7798
0.08450000 0.08449610 23483.63028766 0 1182.81995447 0 5648.67428664 0 1491.57814875 0 2974.54595904 0 7371
0.08550000 0.08548940 22450.72689199 0 708.44538452 0 5518.61995768 0 570.97110201 0 2938.45222954 0 8256
0.08650000 0.08650700 22202.64573036 0 465.82493101 0 5893.91156364 0 -978.45930386 0 4819.46272286 0 8037
0.08750000 0.08749060 22103.27837790 0 461.67937902 0 6705.11560494 0 -965.38979925 0 2500.93238114 0 8155
0.08850000 0.08849210 21717.16202529 0 620.04665904 0 7934.86527621 0 -1801.35924224 0 4135.25555352 0 8718
0.08950000 0.08949900 21386.34967428 0 441.11348444 0 7515.01573076 0 -785.51240999 0 2602.90756457 0 8571
0.09050000 0.09049190 20767.77666455 0 391.07909991 0 8768.11223360 0 316.87169598 0 1264.04489665 0 8932
0.09150000 0.09150830 20945.82857213 0 103.16871573 0 7314.22398675 0 1818.57991916 0 629.92044664 0 9285
0.09250000 0.09250820 20591.63566760 0 -50.17950133 0 6359.63420472 0 2583.88838353 0 -602.43817967 0 9204
0.09350000 0.09350330 20129.64492255 0 159.37107013 0 4762.88852774 0 2348.40799137 0 1093.78838036 0 9349
0.09450000 0.09448040 19633.37019278 0 399.02399184 0 3734.53759561 0 1909.55050553 0 415.07901328 0 9564
0.09550000 0.09549270 19181.49603339 0 850.32150585 0 2587.91253649 0 564.71455581 0 670.91847205 0 10155
0.09650000 0.09649430 18315.96592711 0 973.67415884 0 3623.07530296 0 -545.96177820 0 981.33691044 0 9913
0.09750000 0.09749140 17854.98684063 0 740.10804949 0 4171.91131555 0 -1701.72211416 0 2054.09403328 0 10476
0.09850000 0.09850240 17433.12521869 0 411.10881544 0 4879.88122054 0 -1311.57036794 0 1813.02703770 0 10575
0.09950000 0.09950330 17479.32429320 0 205.96693960 0 6392.97397479 0 -1248.87001817 0 2106.76772261 0 10882
0.10050000 0.10051200 17247.87929465 0 21.44997176 0 6022.30227629 0 66.95448645 0 1148.27743477 0 10875
0.10150000 0.10150300 17450.09860130 0 188.97219976 0 6997.26011744 0 355.04044960 0 1863.69989120 0 11118
0.10250000 0.10250800 17519.56582282 0 266.69005892 0 6500.80553725 0 908.30078232 0 1728.05895883 0 11575
0.10350000 0.10349800 16799.04011096 0 436.07205259 0 6315.97551728 0 333.43816702 0 1246.30714980 0 11364
0.10450000 0.10450100 16809.38150963 0 351.26134282 0 6836.79982825 0 225.23341496 0 2045.79843304 0 12093
0.10550000 0.10551000 16321.31245489 0 213.91520374 0 6685.37702226 0 -200.27692220 0 1770.95328202 0 12067
0.10650000 0.10649700 16170.12570256 0 155.03217895 0 6962.72883839 0 -225.24577967 0 2303.99618033 0 12054
0.10750000 0.10749900 16334.80123577 0 40.61348275 0 7375.06962916 0 -93.45623146 0 1686.99686171 0 12807
0.10850000 0.10850100 16038.49768250 0 319.65375703 0 7641.63042059 0 50.40678729 0 1967.06891532 0 12736
0.10950000 0.10950300 15989.93807134 0 342.24746500 0 7743.18969995 0 448.67619425 0 2709.15419528 0 12933
0.11050000 0.11050200 15641.92752471 0 207.62156339 0 7728.89159222 0 846.41425565 0 2793.27922535 0 13428
0.11150000 0.11150900 15755.45809709 0 67.99930494 0 7396.05592407 0 1064.95835936 0 3833.36539684 0 13453
0.11250000 0.11250000 15764.90024371 0 -81.96704994 0 7391.44725727 0 1204.88535185 0 3286.15927860 0 13668
0.11350000 0.11349100 15639.00495552 0 203.29953319 0 6695.15638839 0 289.90537487 0 3780.62426361 0 13791
0.11450000 0.11448600 15417.90135564 0 484.38886569 0 6979.72470230 0 -307.78025767 0 3308.16847273 0 14205
0.11550000 0.11549300 14908.25025150 0 545.13446631 0 6838.31731610 0 -377.99048620 0 3437.98674803 0 14776
0.11650000 0.11649800 14434.68163620 0 427.78994113 0 6850.77195711 0 108.70653472 0 2627.40094251 0 14553
0.11750000 0.11747300 14264.16096461 0 193.42799371 0 6351.42852969 0 -204.62030965 0 1726.66511814 0 14568
0.11850000 0.11849100 13995.39700564 0 76.44575471 0 6355.94727128 0 366.62169205 0 1503.76301414 0 16015
0.11950000 0.11950300 13855.33849753 0 -85.66567366 0 5367.84910943 0 477.14426629 0 282.62368133 0 15270
0.12050000 0.12050700 14021.02568930 0 -13.07995841 0 5258.45509651 0 678.16981584 0 1159.56304811 0 15999
0.12150000 0.12150000 13849.49335915 0 129.94417058 0 4660.71101259 0 839.31690878 0 241.66387413 0 15670
0.12250000 0.12250700 13852.75314786 0 -44.15518698 0 4330.68550713 0 1041.75428406 0 1874.05253052 0 16887
0.12350000 0.12352200 13784.52239792 0 46.83765587 0 3984.74324023 0 337.41623332 0 963.73742359 0 16407
0.12450000 0.12449800 14130.62203393 0 -187.53789273 0 3955.49506703 0 638.74210933 0 1984.85162478 0 16306
0.12550000 0.12549900 13942.34113418 0 81.47706998 0 4189.28936158 0 127.46111083 0 1771.89749668 0 17523
0.12650000 0.12650100 13894.90558810 0 234.56877539 0 3891.26598875 0 -366.66553058 0 2079.32929417 0 17154
0.12750000 0.12750600 13691.56221638 0 343.08489348 0 4806.63714038 0 -222.19843926 0 1586.79770109 0 18007
0.12850000 0.12850300 13252.83961835 0 463.83870802 0 4252.60794715 0 -253.83749887 0 998.91166786 0 17496
0.12950000 0.12949900 12946.41947942 0 370.06020711 0 4252.72035366 0 58.57469374 0 292.76724455 0 18405
0.13050000 0.13049000 12670.91113000 0 228.18296171 0 4172.88925217 0 -117.44007071 0 -319.44243280 0 18100
0.13150000 0.13148800 12352.80071432 0 177.41456268 0 3629.62860234 0 297.58161526 0 -270.88506977 0 19059
0.13250000 0.13249300 12170.81457898 0 190.52340956 0 3423.17157036 0 384.46847321 0 -1115.36818163 0 18957
0.13350000 0.13349100 11986.69272001 0 103.35137630 0 3148.64115756 0 167.35193215 0 -586.52479043 0 19468
0.13450000 0.13450700 11920.03566117 0 54.94744816 0 2962.78823837 0 441.38438412 0 -863.22802102 0 19953
0.13550000 0.13551000 11957.35462160 0 105.76867824 0 2900.51503332 0 322.84048151 0 -587.09244329 0 19956
0.13650000 0.13649900 11847.98308999 0 118.54952293 0 2603.80681663 0 237.27440002 0 -232.46789777 0 19723
0.13750000 0.13749600 11833.37024404 0 99.61453437 0 2673.98219914 0 331.75993787 0 -461.55685593 0 20946
0.13850000 0.13851100 11722.87464735 0 181.95128932 0 2766.25670099 0 151.39245624 0 194.67120968 0 20955
0.13950000 0.13949800 11530.20989382 0 178.02605408 0 2679.10793588 0 280.15523443 0 -280.83754193 0 20506
0.14050000 0.14048300 11465.46374561 0 149.21177000 0 2621.24106591 0 54.56841341 0 146.19253121 0 21447
0.14150000 0.14148400 11229.45504286 0 311.67739127 0 2568.33132292 0 -253.97575888 0 -204.14595419 0 21771
0.14250000 0.14249400 10954.01413735 0 283.27451501 0 3026.97235405 0 -202.77459480 0 5.20465734 0 22470
0.14350000 0.14350900 10703.43755126 0 392.24025913 0 3033.53689407 0 -378.82117029 0 -323.15297160 0 22519
0.14450000 0.14449900 10555.37569983 0 274.36405117 0 3436.63786994 0 -222.36929715 0 -409.47105263 0 22218
0.14550000 0.14550500 10376.03111741 0 60.81102120 0 3458.66954537 0 -229.19462027 0 -181.56910719 0 23559
0.14650000 0.14650700 10435.68525084 0 -84.76923176 0 3803.42030329 0 280.18333606 0 -107.43094567 0 23044
0.14750000 0.14750500 10467.88971519 0 -130.01835888 0 3571.89662018 0 414.69008677 0 173.38703753 0 23649
0.14850000 0.14849900 10811.22415112 0 -78.87721987 0 3671.39886045 0 495.69920846 0 282.91706231 0 23640
0.14950000 0.14949500 10559.69210971 0 104.82806059 0 3458.90559904 0 386.04553651 0 808.66140611 0 24457
0.15050000 0.15050000 10565.61593264 0 191.14052129 0 3550.30333013 0 544.79162646 0 1403.28283726 0 24591
0.15150000 0.15149900 10366.12810412 0 199.72725438 0 3219.52470107 0 167.73186614 0 1765.38915991 0 25020
0.15250000 0.15250500 10168.24768865 0 186.13843171 0 3488.42354786 0 301.07183731 0 1649.37440371 0 25297
0.15350000 0.15350100 10062.38324007 0 223.53720076 0 3537.60139480 0 42.00417606 0 1343.50505667 0 25452
0.15450000 0.15450400 9854.86958692 0 135.51840928 0 3268.88239843 0 -115.81130042 0 1696.22543596 0 26061
0.15550000 0.15549900 9787.52684839 0 220.57978555 0 3610.01366681 0 -254.45461060 0 1425.70793547 0 26128
0.15650000 0.15649500 9639.59988477 0 95.78203450 0 3183.93680085 0 120.28283128 0 1245.94744898 0 26331
0.15750000 0.15749700 9502.52014911 0 154.05536640 0 2970.31947436 0 150.84278842 0 921.08589846 0 27345
0.15850000 0.15849900 9419.09203938 0 31.67356841 0 2634.67364354 0 481.14031763 0 804.83846079 0 26980
0.15950000 0.15949700 9363.79927844 0 21.05980877 0 2314.30385705 0 516.39212239 0 401.42836704 0 27777
0.16050000 0.16050000 9255.47312734 0 110.99895303 0 2047.39460544 0 236.40662178 0 206.31202758 0 28224
0.16150000 0.16150500 9124.47458372 0 152.58284115 0 1892.09377494 0 6.19799365 0 -16.08256103 0 28075
0.16250000 0.16249700 9012.85492197 0 206.61440109 0 2045.30384441 0 -237.39130279 0 119.35772572 0 28590
0.16350000 0.16349900 8859.13902322 0 216.41849665 0 1612.98841729 0 22.55560216 0 125.48837663 0 29163
0.16450000 0.16449100 8809.27549658 0 137.07074314 0 2125.53960933 0 71.37745770 0 483.77062990 0 28996
0.16550000 0.16550500 8601.69439953 0 -21.89577597 0 1610.04336680 0 311.79991437 0 165.73777470 0 30777
0.16650000 0.16650700 8862.46625584 0 -125.32426313 0 2098.56204757 0 437.10844059 0 411.87767595 0 29211
0.16750000 0.16749900 8876.38218144 0 -92.05036328 0 1710.17508351 0 260.26490296 0 494.59987281 0 30922
0.16850000 0.16850800 8970.92729474 0 3.00960555 0 1936.93273071 0 72.36112705 0 827.89303544 0 30867
0.16950000 0.16949900 8896.75024056 0 174.47176032 0 1926.88358896 0 -176.39391160 0 920.12594689 0 30852
0.17050000 0.17049200 8757.61346582 0 321.45563334 0 2449.80990161 0 -335.18159195 0 1341.45925824 0 31257
0.17150000 0.17149500 8587.14899748 0 328.32142281 0 2558.70932590 0 -308.99874420 0 1227.89496390 0 32608
0.17250000 0.17250900 8337.61779190 0 251.41176644 0 2833.57695822 0 -252.13678842 0 1287.50413473 0 32361
0.17350000 0.17350400 8253.48152118 0 127.84216889 0 3070.61980084 0 -153.33708882 0 1159.39443835 0 32508
0.17450000 0.17449800 8208.71000932 0 -21.21504216 0 2915.20656383 0 -5.28177945 0 1046.02573133 0 32791
0.17550000 0.17549800 8212.46438667 0 -43.43612255 0 2949.50178921 0 85.22256721 0 881.87963277 0 33633
0.17650000 0.17650100 8308.24597154 0 -89.74164602 0 2577.79595084 0 247.16392453 0 561.01750579 0 33984
0.17750000 0.17750300 8310.57278625 0 -4.14727181 0 2371.88971075 0 270.23423609 0 585.18265673 0 34069
