### header ###
fiducial parameters:
Omega_m = 0.31
Omega_nu = 0
Omega_de = 0.69
Omega_k = 0
H_0 = 100
w_de = -1
zeff = 0
beta = 0
fgrowth = 0
b_1 = 2
gamma = 0.55
Lx = 3500 Ly = 3500 Lz = 3500
nx = 700 ny = 700 nz = 700
xoffset = 857.220397 yoffset = 15.9954215 zoffset = 262.898189
bins = 400 dk = 0.001
kx_ny = 0.628318531 ky_ny = 0.628318531 kz_ny = 0.628318531
############################
A(data) = 3.06428866 (not used)
A(ran) = 3.06795588 (used)
Ngal = 187115
weighted Ngal = 0
Nran = 9360983
weighted Nran = 0
SN(data) = 3432.38613
SN(ran) = 68.8947591
SN(data+ran) = 3501.28089
############################
13 columns: k_central k_mean P_0(k) sigma^{lin}_{P_0(k)} P^img_1(k) sigma^{lin}_{P_1(k)} P_2(k) sigma^{lin}_{P_2(k)} P^img_3(k) sigma^{lin}_{P_3(k)} P_4(k) sigma^{lin}_{P_4(k)} N_modes
### header ###
0.00050000 0 0 0 0 0 0 0 0 0 0 0 0
0.00150000 0.00179520 4341.52149443 0 -6682.44321242 0 -3749.33029197 0 176.69291291 0 -2269.89204601 0 3
0.00250000 0.00253879 7831.54121469 0 -3696.16201402 0 636.03536064 0 -9040.91158619 0 -4873.40660572 0 6
0.00350000 0.00331552 18168.15136999 0 -10450.45546590 0 -14342.73311322 0 23457.88919749 0 4733.97757406 0 7
0.00450000 0.00420575 24006.65776618 0 -10377.12146053 0 -7638.07837496 0 4300.94274529 0 -367.58389175 0 24
0.00550000 0.00557378 48903.91228977 0 -14818.32504565 0 -18242.78929085 0 5878.91653556 0 -3508.38694355 0 45
0.00650000 0.00659388 44642.01956512 0 -11719.50245213 0 12818.95050013 0 -10887.24467201 0 -8495.33536231 0 40
0.00750000 0.00754703 68986.45888576 0 -6125.17671178 0 -15162.40136453 0 -6885.41564267 0 -11172.41998105 0 57
0.00850000 0.00846663 69150.79719945 0 -6706.22842936 0 -6012.42174429 0 5782.94385962 0 9650.45835338 0 75
0.00950000 0.00948925 80330.18638396 0 -9021.56642628 0 -30470.70637554 0 13892.99467748 0 17951.76884342 0 112
0.01050000 0.01054430 79788.38701872 0 -7751.71011320 0 -22996.12326546 0 14238.75709396 0 -10704.66278219 0 105
0.01150000 0.01145670 85778.52979327 0 -7762.61354441 0 -36752.09441053 0 11658.69053168 0 9765.86611443 0 144
0.01250000 0.01249090 80368.96662898 0 1410.96020171 0 -36865.28776339 0 488.94807363 0 -2599.65901651 0 169
0.01350000 0.01339930 84102.88598880 0 -66.11289893 0 -39749.75114747 0 2018.21387615 0 19313.68608599 0 180
0.01450000 0.01448870 81710.65070023 0 -6584.86312342 0 -27285.78039742 0 -5447.74765482 0 21968.72778865 0 267
0.01550000 0.01550050 93593.92943351 0 -12835.58666321 0 -25851.58577066 0 14119.04416368 0 12379.55346306 0 238
0.01650000 0.01653350 104497.92267511 0 -7415.36736203 0 -14933.31690263 0 -8120.47090108 0 21240.10880827 0 315
0.01750000 0.01747870 109652.88510034 0 1865.55459857 0 -3969.24238287 0 -17621.29371193 0 13338.60578342 0 297
0.01850000 0.01844180 101068.17532407 0 15279.97857117 0 18690.95403549 0 -23339.18792577 0 18947.24087216 0 388
0.01950000 0.01947590 92657.02119508 0 16857.04186873 0 22455.33555879 0 -12222.63397885 0 15705.21238833 0 399
0.02050000 0.02045430 78418.48891414 0 9840.23425967 0 27809.48231498 0 -771.42562650 0 10546.21456948 0 462
0.02150000 0.02154770 71789.98958458 0 1079.53748336 0 26835.81714866 0 14824.17018403 0 -11478.61530697 0 571
0.02250000 0.02255340 74049.58519452 0 -5416.08274171 0 15854.15101051 0 5259.74777135 0 -25785.60315086 0 510
0.02350000 0.02348930 73967.41603768 0 2826.38294175 0 23497.90591409 0 -7538.07030541 0 -28149.39959308 0 555
0.02450000 0.02439640 72029.52785165 0 5337.55555571 0 19213.86910750 0 -22701.61821631 0 -29520.64657576 0 592
0.02550000 0.02547300 65700.81667709 0 7533.10193779 0 34528.13166340 0 -18377.78950613 0 -13842.07452966 0 837
0.02650000 0.02652900 63953.00789493 0 5763.50877451 0 47692.84458001 0 -12360.89398284 0 -15285.82370955 0 723
0.02750000 0.02749970 64638.23796349 0 2574.86214100 0 55020.84960456 0 2348.59908243 0 -8104.30684533 0 826
0.02850000 0.02848090 64949.15436271 0 1068.73634207 0 58683.72805176 0 13514.40956086 0 -14754.59055601 0 831
0.02950000 0.02946900 60075.54542527 0 -926.85460041 0 46536.74365233 0 17348.14589917 0 -5657.92534219 0 996
0.03050000 0.03053250 61425.32276505 0 940.95262456 0 42569.24357032 0 15215.00760995 0 -6067.26487921 0 1041
0.03150000 0.03150510 60014.05906578 0 -16.18530058 0 30807.92589747 0 17121.08475440 0 -10352.13349396 0 1036
0.03250000 0.03246190 56984.92850679 0 4734.26983097 0 22965.77350849 0 2995.44232875 0 -823.96442801 0 1059
0.03350000 0.03345080 53832.15078976 0 3831.16222929 0 15718.47635619 0 4386.81007623 0 -11349.68504308 0 1302
0.03450000 0.03451200 49836.43667441 0 3056.37789636 0 21058.12267293 0 94.34165752 0 2947.88313550 0 1339
0.03550000 0.03553350 47855.04717006 0 3288.45237135 0 18165.11639430 0 -41.51026186 0 126.18304885 0 1365
0.03650000 0.03647120 46825.62837612 0 -0.37170134 0 20730.12048460 0 3920.67153107 0 5256.66783305 0 1308
0.03750000 0.03744890 46720.19107226 0 227.73895601 0 23999.80096923 0 2658.73987675 0 9389.59657187 0 1579
0.03850000 0.03847530 47987.12481615 0 -953.32633289 0 25709.16672589 0 4563.59179028 0 9755.90689789 0 1662
0.03950000 0.03950240 49687.49805223 0 -2123.46008894 0 27018.70253605 0 5654.62059088 0 18284.49210506 0 1683
0.04050000 0.04050350 51028.84490396 0 -303.11988387 0 30102.01303157 0 3412.61659933 0 14310.13522610 0 1822
0.04150000 0.04152450 52604.33451041 0 -796.83961373 0 24966.72174511 0 2012.42494102 0 20013.30418749 0 1887
0.04250000 0.04250150 51830.64052060 0 46.41197243 0 29202.64856658 0 1328.04916191 0 17736.96000795 0 1920
0.04350000 0.04349210 53995.70225790 0 535.95085466 0 27819.71130714 0 100.24918151 0 17579.81571073 0 2005
0.04450000 0.04448520 53077.67831270 0 846.72337355 0 27282.63301522 0 779.49416559 0 12877.28947742 0 2151
0.04550000 0.04548030 52472.03205131 0 1458.63180146 0 26343.25183363 0 2264.90119709 0 9638.22852538 0 2274
0.04650000 0.04648670 48862.99632111 0 1965.03435754 0 22939.35797927 0 1479.47196791 0 6140.13801790 0 2311
0.04750000 0.04749250 47947.22050606 0 2299.34255093 0 19322.11657404 0 3449.38476787 0 -573.46989867 0 2568
0.04850000 0.04851840 44450.92850269 0 2172.75034240 0 15981.73239631 0 5968.07737716 0 -5399.03067455 0 2493
0.04950000 0.04949480 42535.07199210 0 2740.29079780 0 13922.66999541 0 2610.37135666 0 -8830.65521427 0 2644
0.05050000 0.05050630 39125.78262539 0 2019.47282903 0 7583.11159289 0 -47.99375680 0 -9725.35480920 0 2829
0.05150000 0.05149060 39459.74235861 0 1307.53497433 0 11177.08485111 0 -80.35367934 0 -4691.52163624 0 2784
0.05250000 0.05249300 37127.64455145 0 944.88123199 0 9559.04938163 0 -627.75662137 0 -4503.27445845 0 3055
0.05350000 0.05348950 38223.38318471 0 499.54688320 0 16046.14132500 0 849.70214599 0 -2634.53875573 0 3009
0.05450000 0.05448610 37682.03344550 0 359.54682648 0 12349.87814513 0 884.67293448 0 -431.44090449 0 3336
0.05550000 0.05550870 37949.22371338 0 -98.83499524 0 14980.75244871 0 2636.08996553 0 -1661.26701218 0 3349
0.05650000 0.05647670 38343.43333451 0 -313.01502871 0 13817.00787853 0 -456.79306815 0 -204.49216623 0 3324
0.05750000 0.05747970 37511.62518042 0 232.80961355 0 11120.22963971 0 1878.54879081 0 -3860.73638137 0 3639
0.05850000 0.05849280 37446.09218666 0 1044.00353827 0 10948.58490305 0 1263.07820069 0 -3254.04473946 0 3846
0.05950000 0.05951020 35775.39426851 0 1508.40540289 0 7193.97150523 0 1682.62424857 0 -4967.04122631 0 3787
0.06050000 0.06049470 33837.95570852 0 1434.29579262 0 6592.24823095 0 3076.09399774 0 -1975.94902940 0 3930
0.06150000 0.06148310 32981.75534234 0 160.09159584 0 3466.11085615 0 4431.51414419 0 -2329.46749489 0 4083
0.06250000 0.06249100 32758.17879930 0 -118.83615953 0 3903.96792408 0 3560.41991579 0 -935.59083416 0 4303
0.06350000 0.06350600 32045.85876248 0 886.21065550 0 2001.89245129 0 608.49239415 0 338.12327025 0 4470
0.06450000 0.06451750 31489.89617732 0 1670.93397181 0 3864.47951806 0 -2475.40486333 0 1374.14707056 0 4479
0.06550000 0.06550280 30365.83110422 0 1820.07492571 0 6299.45176071 0 -4339.16095778 0 3212.18455614 0 4636
0.06650000 0.06648880 29789.63534775 0 1299.59907491 0 9076.33087664 0 -5338.69086143 0 3351.60234716 0 4653
0.06750000 0.06749660 29138.23963789 0 684.89172497 0 11308.43185490 0 -2712.29033683 0 2238.31705811 0 5220
0.06850000 0.06852730 29333.93936712 0 380.98274742 0 15294.02938459 0 -1624.44264039 0 4238.05130445 0 5029
0.06950000 0.06949320 29120.25459672 0 331.90044600 0 14849.91127421 0 13.99123796 0 2022.12562260 0 5040
0.07050000 0.07048030 29595.05968360 0 512.29265706 0 20213.83739653 0 888.03276498 0 3966.10624132 0 5475
0.07150000 0.07148790 29345.29242435 0 551.41911413 0 17914.56228950 0 -27.09873597 0 2734.08595860 0 5509
0.07250000 0.07249820 28735.26230918 0 556.64601672 0 17878.25498764 0 156.73064127 0 2841.77139260 0 5916
0.07350000 0.07351270 28818.33071809 0 132.42723033 0 18668.13551451 0 1469.59143592 0 4833.99688426 0 5721
0.07450000 0.07449140 27847.13849493 0 -12.57637726 0 14924.77400807 0 1546.24143325 0 438.40448761 0 6028
0.07550000 0.07549160 28478.63825300 0 497.99117714 0 15412.16862377 0 2872.70566342 0 1013.57846893 0 6183
0.07650000 0.07648840 27411.56327910 0 758.81024418 0 11895.19382306 0 1295.44003414 0 -2910.80022874 0 6330
0.07750000 0.07749960 26450.93726763 0 1336.45716866 0 11752.43755877 0 472.43106144 0 -2012.67223534 0 6583
0.07850000 0.07848650 24914.34031271 0 1461.79042431 0 11099.79413668 0 581.66208492 0 -3718.39602116 0 6549
0.07950000 0.07947320 24049.93427149 0 866.56874241 0 11890.24793674 0 480.38494590 0 -2394.03379269 0 6828
0.08050000 0.08048110 23219.13777596 0 806.14012815 0 11865.18128561 0 62.41472484 0 -2783.67970963 0 7147
0.08150000 0.08149960 22876.74755470 0 116.54194271 0 10801.32113782 0 1209.97736664 0 -3169.22278905 0 7386
0.08250000 0.08250610 22600.78957925 0 -31.62534602 0 11497.83681972 0 1449.21213614 0 -2259.85414491 0 7227
0.08350000 0.08350160 22709.26185881 0 -72.75780961 0 10777.67080868 0 1969.42945197 0 -1339.48090371 0 7798
0.08450000 0.08449610 23035.57794953 0 -78.98029664 0 9547.51647398 0 2371.96839530 0 -994.10179341 0 7371
0.08550000 0.08548940 22489.95676305 0 51.40596874 0 8310.78635861 0 1942.10343005 0 -689.16317225 0 8256
0.08650000 0.08650700 22350.90991350 0 543.56189927 0 6953.69135521 0 955.34515376 0 -94.24543755 0 8037
0.08750000 0.08749060 21615.54654268 0 519.63167793 0 7384.44433187 0 880.17105386 0 394.27369285 0 8155
0.08850000 0.08849210 21002.93107784 0 677.64262932 0 6620.81072446 0 414.94749767 0 1185.98981798 0 8718
0.08950000 0.08949900 20860.17481356 0 354.19964892 0 7582.38095059 0 -612.27824532 0 742.46746208 0 8571
0.09050000 0.09049190 20470.91107874 0 135.48918359 0 6910.89819787 0 626.20653564 0 931.22946168 0 8932
0.09150000 0.09150830 20570.72805724 0 127.16323359 0 8066.43709302 0 250.79128252 0 694.69469648 0 9285
0.09250000 0.09250820 20416.84354873 0 418.76257453 0 7230.78463638 0 69.49790849 0 1597.97090792 0 9204
0.09350000 0.09350330 19882.12579346 0 592.41489141 0 7862.67781722 0 396.77136544 0 1122.75890948 0 9349
0.09450000 0.09448040 19453.40737458 0 678.84200675 0 7003.47619729 0 482.53640645 0 192.27695108 0 9564
0.09550000 0.09549270 18625.53344824 0 774.85065277 0 6996.72056620 0 522.89146664 0 798.34586093 0 10155
0.09650000 0.09649430 18051.47341541 0 415.24425085 0 6382.36280050 0 331.63291852 0 -614.86696718 0 9913
0.09750000 0.09749140 17753.82098405 0 185.90350211 0 7127.76407243 0 -104.55154058 0 716.04406441 0 10476
0.09850000 0.09850240 17845.31988100 0 181.53538524 0 6585.07669578 0 -316.70983061 0 -845.82074929 0 10575
0.09950000 0.09950330 17681.65600636 0 257.29062678 0 7558.60697429 0 -357.77417586 0 993.55324966 0 10882
0.10050000 0.10051200 17641.86410277 0 316.21524197 0 7538.74474445 0 -40.53165081 0 166.77528677 0 10875
0.10150000 0.10150300 17444.14105641 0 310.95911369 0 7789.40001510 0 49.03745122 0 -25.00123054 0 11118
0.10250000 0.10250800 17120.07309584 0 331.21027005 0 7698.10344987 0 583.92033165 0 1606.34519271 0 11575
0.10350000 0.10349800 16849.73544576 0 81.55215752 0 7485.62142910 0 302.17342108 0 -852.38416526 0 11364
0.10450000 0.10450100 17030.82232903 0 -28.85531246 0 7240.62020577 0 369.61058108 0 324.18823554 0 12093
0.10550000 0.10551000 16718.66945823 0 -13.62940142 0 6837.63163641 0 44.58289374 0 -596.45478128 0 12067
0.10650000 0.10649700 16761.83355704 0 76.40157895 0 7688.78495041 0 -288.66440703 0 256.16656170 0 12054
0.10750000 0.10749900 16735.75524734 0 319.15692027 0 7093.17659013 0 -574.02406275 0 -1167.06056215 0 12807
0.10850000 0.10850100 16722.26646647 0 419.64046935 0 8434.74825487 0 226.69245142 0 99.31811841 0 12736
0.10950000 0.10950300 16212.95258185 0 398.93181851 0 7451.34868502 0 109.10703910 0 255.50785957 0 12933
0.11050000 0.11050200 15917.21106111 0 175.68687467 0 7774.40498703 0 937.53883893 0 757.60299829 0 13428
0.11150000 0.11150900 15937.66904544 0 42.57924775 0 6604.10711747 0 1195.64553695 0 370.18722646 0 13453
0.11250000 0.11250000 15855.72470161 0 33.39720979 0 6643.41567308 0 1170.61260778 0 148.96672381 0 13668
0.11350000 0.11349100 15865.50406775 0 -29.19893915 0 5033.67580385 0 762.60283974 0 -14.18390272 0 13791
0.11450000 0.11448600 15543.57183081 0 75.54616543 0 5083.68545895 0 241.05687899 0 6.71979589 0 14205
0.11550000 0.11549300 15459.82898287 0 245.75097474 0 3966.38725759 0 -44.60526264 0 -740.22832446 0 14776
0.11650000 0.11649800 15075.62354088 0 396.08793387 0 4483.70448553 0 253.10798064 0 -913.17922473 0 14553
0.11750000 0.11747300 14643.75773980 0 386.35577847 0 4035.07887421 0 -154.33188641 0 -1151.09883811 0 14568
0.11850000 0.11849100 14429.96056290 0 254.06905628 0 4313.75708713 0 9.89596541 0 -548.09188151 0 16015
0.11950000 0.11950300 14396.46342372 0 267.00142494 0 4447.66695929 0 -65.61583736 0 -787.34576013 0 15270
0.12050000 0.12050700 14184.57715744 0 75.48760164 0 4603.57478493 0 -151.05523672 0 -201.90681656 0 15999
0.12150000 0.12150000 14120.73026129 0 87.08570507 0 5205.27557790 0 -227.51414299 0 -413.57613828 0 15670
0.12250000 0.12250700 14122.86598492 0 239.34717601 0 5150.32003648 0 -210.91057780 0 193.44822689 0 16887
0.12350000 0.12352200 14061.60443844 0 143.59594089 0 5619.42611344 0 315.12714698 0 198.36601158 0 16407
0.12450000 0.12449800 13961.22542741 0 208.48596943 0 5419.17392066 0 285.95653427 0 1186.34951880 0 16306
0.12550000 0.12549900 13730.34246140 0 209.28855190 0 4889.44701432 0 1272.18312778 0 993.98826284 0 17523
0.12650000 0.12650100 13533.29385408 0 255.76077421 0 4939.07448729 0 1157.23623341 0 1476.29086375 0 17154
0.12750000 0.12750600 13165.49976217 0 260.13451141 0 4172.47334809 0 889.50866243 0 1586.38179701 0 18007
0.12850000 0.12850300 12924.94983652 0 328.46417908 0 3893.69396931 0 601.73788713 0 1477.50485403 0 17496
0.12950000 0.12949900 12687.09766706 0 159.31936314 0 3566.50110783 0 -69.58907017 0 1345.60705836 0 18405
0.13050000 0.13049000 12393.94149599 0 281.91552033 0 3715.50717392 0 -165.63885698 0 1261.66187870 0 18100
0.13150000 0.13148800 12259.16609373 0 215.08310735 0 3570.35665103 0 -109.60972100 0 1205.34621853 0 19059
0.13250000 0.13249300 12049.30314458 0 159.02710622 0 3592.05110694 0 -98.92244751 0 399.01837152 0 18957
0.13350000 0.13349100 12040.87265653 0 -5.39801902 0 3464.55964635 0 163.75379985 0 249.08270361 0 19468
0.13450000 0.13450700 12006.47626529 0 -61.66429900 0 3482.80322249 0 313.45004189 0 -306.36618380 0 19953
0.13550000 0.13551000 12116.63464246 0 -64.73884179 0 3215.06216273 0 44.62291046 0 -339.16415451 0 19956
0.13650000 0.13649900 12179.91950607 0 -18.00527434 0 3137.27685967 0 73.46192397 0 -368.63489259 0 19723
0.13750000 0.13749600 12141.47648057 0 64.71568605 0 3023.03812629 0 112.07805550 0 -321.80521758 0 20946
0.13850000 0.13851100 12184.07854684 0 8.61269900 0 2711.44728803 0 528.79056014 0 206.02089473 0 20955
0.13950000 0.13949800 12207.23428735 0 164.80367663 0 2610.29267210 0 513.83262622 0 252.24919492 0 20506
0.14050000 0.14048300 11998.15818375 0 196.86538471 0 2446.01056167 0 451.40654832 0 572.23342709 0 21447
0.14150000 0.14148400 11788.07042159 0 353.73091379 0 2714.88692715 0 138.28922968 0 325.18078500 0 21771
0.14250000 0.14249400 11439.38543592 0 321.27578293 0 2604.79599389 0 -9.10778222 0 728.47847225 0 22470
0.14350000 0.14350900 11181.97453418 0 256.64541342 0 2958.98889843 0 -440.54245938 0 591.93716375 0 22519
0.14450000 0.14449900 11150.62435929 0 97.33099618 0 3079.38750841 0 -123.97875724 0 804.20673622 0 22218
0.14550000 0.14550500 11177.74804950 0 40.89427420 0 3410.60452285 0 -489.85856634 0 364.00149636 0 23559
0.14650000 0.14650700 11133.11142545 0 74.90488631 0 3195.26737679 0 -474.31499451 0 -566.52654871 0 23044
0.14750000 0.14750500 11031.16996397 0 235.16677801 0 3977.76279613 0 -670.67679806 0 -82.70128925 0 23649
0.14850000 0.14849900 10888.14392407 0 356.90527355 0 3859.15144961 0 -483.56267786 0 -751.40715161 0 23640
0.14950000 0.14949500 10591.96401796 0 289.41865470 0 4164.54868932 0 -114.23423712 0 215.11907743 0 24457
0.15050000 0.15050000 10461.22400930 0 179.79196031 0 3882.88046331 0 618.45610696 0 -132.04392414 0 24591
0.15150000 0.15149900 10319.64801335 0 14.56327468 0 3685.74193079 0 955.85547930 0 317.58997356 0 25020
0.15250000 0.15250500 10209.83809636 0 -17.51821694 0 3361.08945638 0 979.89136276 0 -104.61325175 0 25297
0.15350000 0.15350100 10113.93286432 0 -68.32753194 0 2757.16301455 0 783.71390588 0 245.44972530 0 25452
0.15450000 0.15450400 10190.50417710 0 56.64703455 0 2314.27013510 0 547.78613581 0 297.57824306 0 26061
0.15550000 0.15549900 10044.61177126 0 153.94520802 0 2311.87587649 0 90.29592251 0 319.92802891 0 26128
0.15650000 0.15649500 9928.56329311 0 131.98884495 0 2004.38787575 0 231.09316618 0 404.37454159 0 26331
0.15750000 0.15749700 9770.94688856 0 305.96601664 0 2100.16946063 0 -48.36143849 0 432.90780941 0 27345
0.15850000 0.15849900 9573.78587474 0 282.48204913 0 1869.69115804 0 85.82000779 0 682.86953191 0 26980
0.15950000 0.15949700 9240.46685862 0 164.38440036 0 2080.39715599 0 147.78083516 0 781.61640045 0 27777
0.16050000 0.16050000 9202.23740548 0 222.32770674 0 2165.82610155 0 81.83283657 0 861.04958290 0 28224
0.16150000 0.16150500 9068.31629267 0 46.86823044 0 2378.64534184 0 -35.56800426 0 881.50082284 0 28075
0.16250000 0.16249700 9100.83549524 0 148.75989584 0 2452.94604317 0 -258.02801346 0 833.35037137 0 28590
0.16350000 0.16349900 9036.93239583 0 155.80553572 0 2861.82471351 0 -325.16729622 0 1164.09303035 0 29163
0.16450000 0.16449100 8965.65542955 0 170.27112914 0 3182.95886424 0 -313.87381443 0 1138.47558734 0 28996
0.16550000 0.16550500 8971.09590450 0 31.63860999 0 3179.45178121 0 62.01275917 0 1188.76625871 0 30777
0.16650000 0.16650700 9005.37988923 0 12.10730490 0 3306.04398975 0 65.12473333 0 939.95895104 0 29211
0.16750000 0.16749900 9016.33952369 0 60.58216155 0 3142.14406144 0 103.05394868 0 1204.67177949 0 30922
0.16850000 0.16850800 8791.02067979 0 118.26513447 0 3040.06771215 0 186.90841629 0 837.02494010 0 30867
0.16950000 0.16949900 8858.57699068 0 49.93827697 0 3071.17059272 0 301.18424382 0 1239.13561463 0 30852
0.17050000 0.17049200 8766.89824332 0 -7.91523910 0 2590.63277397 0 324.23994253 0 736.26149881 0 31257
0.17150000 0.17149500 8833.33048914 0 -70.89343528 0 2397.81065133 0 370.31649394 0 489.75402828 0 32608
0.17250000 0.17250900 8767.87617993 0 21.86688749 0 2272.36498917 0 277.39115841 0 699.41352165 0 32361
0.17350000 0.17350400 8760.71588542 0 48.43686325 0 1706.38698422 0 222.82791570 0 406.14494408 0 32508
0.17450000 0.17449800 8638.57497458 0 123.62018048 0 2008.07480919 0 169.07399984 0 744.98311972 0 32791
0.17550000 0.17549800 8549.18931996 0 224.65901770 0 1602.12994869 0 12.91449603 0 264.42956406 0 33633
0.17650000 0.17650100 8426.76739285 0 147.14236620 0 1702.21670280 0 -67.65882563 0 667.62833358 0 33984
0.17750000 0.17750300 8246.80457465 0 233.50316170 0 1777.11315862 0 8.90616991 0 629.90021347 0 34069
0.17850000 0.17849800 8060.24349447 0 92.54394025 0 1659.56967392 0 86.24557883 0 605.03701812 0 34536
