### header ###
fiducial parameters:
Omega_m = 0.31
Omega_nu = 0
Omega_de = 0.69
Omega_k = 0
H_0 = 100
w_de = -1
zeff = 0
beta = 0
fgrowth = 0
b_1 = 2
gamma = 0.55
Lx = 3500 Ly = 3500 Lz = 3500
nx = 700 ny = 700 nz = 700
xoffset = 857.220397 yoffset = 15.9954215 zoffset = 262.898189
bins = 400 dk = 0.001
kx_ny = 0.628318531 ky_ny = 0.628318531 kz_ny = 0.628318531
############################
A(data) = 3.06515743 (not used)
A(ran) = 3.0631278 (used)
Ngal = 187432
weighted Ngal = 0
Nran = 9360983
weighted Nran = 0
SN(data) = 3443.13317
SN(ran) = 68.7863386
SN(data+ran) = 3511.91951
############################
13 columns: k_central k_mean P_0(k) sigma^{lin}_{P_0(k)} P^img_1(k) sigma^{lin}_{P_1(k)} P_2(k) sigma^{lin}_{P_2(k)} P^img_3(k) sigma^{lin}_{P_3(k)} P_4(k) sigma^{lin}_{P_4(k)} N_modes
### header ###
0.00050000 0 0 0 0 0 0 0 0 0 0 0 0
0.00150000 0.00179520 38806.32333162 0 -66005.43831190 0 -47014.35890189 0 25239.75715137 0 -67135.34852338 0 3
0.00250000 0.00253879 74998.07130320 0 -84809.13607423 0 -75254.58295288 0 7914.66582685 0 70171.89791185 0 6
0.00350000 0.00331552 116884.78256114 0 -88517.31434387 0 -106557.43470204 0 -27244.18998972 0 -79089.66816928 0 7
0.00450000 0.00420575 160108.45681702 0 -80381.10653177 0 -160980.73131374 0 -2726.45355675 0 5229.31932982 0 24
0.00550000 0.00557378 195535.61572588 0 -37537.59108361 0 -196484.32664758 0 -31926.48305171 0 15045.38619042 0 45
0.00650000 0.00659388 190681.90274024 0 -6554.71569816 0 -214336.72813854 0 -55712.14962452 0 61950.82318673 0 40
0.00750000 0.00754703 172520.38335418 0 19740.15637472 0 -155508.78253790 0 -62895.03784813 0 61098.44464180 0 57
0.00850000 0.00846663 135144.09560856 0 30928.20086029 0 -155249.12350601 0 -64891.04019843 0 62006.23959483 0 75
0.00950000 0.00948925 107037.97252079 0 35689.62810343 0 -86630.68352518 0 -40002.89060193 0 81279.57174469 0 112
0.01050000 0.01054430 82372.83743479 0 20162.35521618 0 -45863.31626704 0 -63688.62778974 0 76080.54596860 0 105
0.01150000 0.01145670 68371.03325824 0 13859.16031878 0 -24297.79062011 0 -28525.51176654 0 61905.07373825 0 144
0.01250000 0.01249090 70000.02836217 0 2126.87724676 0 7113.47720535 0 -25183.55389771 0 51558.61677291 0 169
0.01350000 0.01339930 59702.80544704 0 -2773.25962640 0 -2830.20476300 0 -17463.58738218 0 59191.13102576 0 180
0.01450000 0.01448870 77544.41591329 0 -4680.25850421 0 14303.05361614 0 -320.45071917 0 19533.77802730 0 267
0.01550000 0.01550050 85189.29488195 0 247.85072829 0 6272.29434854 0 -291.17894060 0 6722.37000381 0 238
0.01650000 0.01653350 77675.70671383 0 3460.85023161 0 8521.86329804 0 127.49033653 0 -1425.41567855 0 315
0.01750000 0.01747870 83042.10577931 0 130.95920134 0 29083.16044931 0 -21451.99507455 0 7737.13098920 0 297
0.01850000 0.01844180 76834.34400662 0 3026.93863209 0 25724.00438486 0 -10529.84818202 0 7641.82151166 0 388
0.01950000 0.01947590 75179.38299949 0 4755.95304623 0 25869.57081182 0 -7466.48984155 0 -5012.12747639 0 399
0.02050000 0.02045430 75261.43974983 0 4134.05280389 0 41189.11647357 0 -6177.50194093 0 -9025.53437599 0 462
0.02150000 0.02154770 72505.23219059 0 2522.10976712 0 36253.79636362 0 9305.48278245 0 -4459.97547184 0 571
0.02250000 0.02255340 73768.11930022 0 2012.15516540 0 43112.61662666 0 11483.33638027 0 -18490.75804597 0 510
0.02350000 0.02348930 67105.67320545 0 -213.49929966 0 23153.60478220 0 15024.36617355 0 -6270.82182330 0 555
0.02450000 0.02439640 64607.55098700 0 -163.28956097 0 21608.24011971 0 17716.83924314 0 -16702.14570166 0 592
0.02550000 0.02547300 65359.77533391 0 504.34439293 0 8505.57559513 0 16040.52099963 0 -7975.35410015 0 837
0.02650000 0.02652900 63378.83545559 0 1571.71274781 0 5122.31957551 0 13831.05869195 0 -7171.90610785 0 723
0.02750000 0.02749970 60456.04145252 0 2211.09220204 0 1985.94196790 0 9631.69770731 0 5711.50952423 0 826
0.02850000 0.02848090 57435.11656856 0 2614.60908198 0 -5329.39484328 0 3050.97114336 0 10945.31387369 0 831
0.02950000 0.02946900 57571.57806844 0 1276.33092790 0 -3005.57015506 0 1160.22624650 0 17196.39711430 0 996
0.03050000 0.03053250 55627.17030499 0 1544.25183807 0 -2981.93106657 0 2541.38748312 0 18650.93731889 0 1041
0.03150000 0.03150510 56216.74243583 0 1627.63498520 0 5394.24215734 0 -3364.84383372 0 7159.01308146 0 1036
0.03250000 0.03246190 53037.32437657 0 976.14935013 0 2669.76695512 0 -3739.52844454 0 18844.95095051 0 1059
0.03350000 0.03345080 52119.63765089 0 2793.38039121 0 11014.81481715 0 -8674.94972034 0 -2728.51059584 0 1302
0.03450000 0.03451200 52754.28479117 0 -304.66097709 0 8219.88321615 0 -5853.01807628 0 9166.98672479 0 1339
0.03550000 0.03553350 51505.33608845 0 1573.03914460 0 16163.94334466 0 -6245.42919330 0 -5973.90003424 0 1365
0.03650000 0.03647120 51696.65196389 0 131.38072574 0 15953.18114345 0 -4484.33396197 0 -890.31461708 0 1308
0.03750000 0.03744890 50715.56796809 0 819.12307974 0 16703.71939276 0 -980.42079741 0 -4989.57873103 0 1579
0.03850000 0.03847530 49214.60387598 0 1291.34843728 0 19994.41989426 0 335.76722986 0 -6684.54521410 0 1662
0.03950000 0.03950240 49096.80185632 0 1218.02567256 0 15595.16641767 0 4275.11172991 0 -76.29996347 0 1683
0.04050000 0.04050350 47420.82083232 0 1067.40207683 0 12770.05366945 0 6088.57715300 0 -2328.32094851 0 1822
0.04150000 0.04152450 49951.54093790 0 -1056.35476529 0 9642.71354503 0 3663.54164559 0 -65.01086554 0 1887
0.04250000 0.04250150 47334.94226074 0 -73.11638637 0 9924.29184584 0 4075.08435016 0 -3610.29468308 0 1920
0.04350000 0.04349210 47617.64462662 0 401.53178102 0 5605.30785612 0 -132.59584009 0 -4639.61231117 0 2005
0.04450000 0.04448520 47483.54366340 0 1490.24051131 0 6696.96613316 0 -2160.34066399 0 -1597.79105751 0 2151
0.04550000 0.04548030 45175.27603579 0 2914.47592153 0 8422.40602037 0 -3761.14421589 0 -3973.09792607 0 2274
0.04650000 0.04648670 44494.76704054 0 2234.16925799 0 10196.13574312 0 580.54926050 0 484.22812438 0 2311
0.04750000 0.04749250 40261.20075573 0 2697.07049574 0 9912.74769754 0 3186.80316679 0 -1397.89856556 0 2568
0.04850000 0.04851840 39660.16316114 0 1242.21555293 0 10177.21772793 0 4765.81109693 0 2409.84938826 0 2493
0.04950000 0.04949480 36730.28754811 0 1485.38455020 0 8689.04549636 0 3471.94475388 0 1565.24937364 0 2644
0.05050000 0.05050630 38236.64715257 0 1135.53053684 0 11169.95827854 0 416.95058163 0 6063.61166772 0 2829
0.05150000 0.05149060 35312.84149093 0 1302.11698068 0 9488.89648042 0 -1695.43859041 0 3003.54683792 0 2784
0.05250000 0.05249300 36159.26249097 0 1423.30243621 0 11438.48618386 0 -2320.23892064 0 6205.74969622 0 3055
0.05350000 0.05348950 34746.42510060 0 810.77464845 0 12081.67621868 0 -4961.02747817 0 2088.13072369 0 3009
0.05450000 0.05448610 35384.10721657 0 143.51838040 0 16280.50889274 0 -1717.42530324 0 2753.97066974 0 3336
0.05550000 0.05550870 34881.42531588 0 811.15121025 0 17678.50862415 0 -1007.48266404 0 509.77587537 0 3349
0.05650000 0.05647670 35253.26604206 0 102.01767309 0 16689.78098585 0 1160.17004325 0 -924.10401318 0 3324
0.05750000 0.05747970 34379.75507375 0 759.73422567 0 18877.77365064 0 844.54718357 0 -967.80316696 0 3639
0.05850000 0.05849280 34541.05841174 0 538.59690384 0 16336.03770735 0 3771.28328285 0 -1015.48713143 0 3846
0.05950000 0.05951020 32591.36754245 0 550.75029541 0 14994.80326213 0 4903.61023424 0 855.83504503 0 3787
0.06050000 0.06049470 32860.80594047 0 109.65400917 0 13327.70235221 0 2547.54735972 0 -1230.88497700 0 3930
0.06150000 0.06148310 32674.99798389 0 413.37830283 0 12144.62386278 0 1759.69014998 0 -720.24919185 0 4083
0.06250000 0.06249100 32266.17551680 0 483.41205314 0 12147.20921245 0 -1107.18948416 0 -334.63754446 0 4303
0.06350000 0.06350600 31795.86669022 0 412.13396279 0 12511.74351565 0 -1529.04323764 0 574.89071692 0 4470
0.06450000 0.06451750 32245.82993898 0 410.73899804 0 14918.02961763 0 -3885.40960972 0 497.59775436 0 4479
0.06550000 0.06550280 32100.37591852 0 228.72588514 0 14815.17766345 0 -737.44738747 0 -811.12985301 0 4636
0.06650000 0.06648880 32102.39923565 0 764.76216874 0 16716.19651507 0 -1735.11808749 0 -1918.13836269 0 4653
0.06750000 0.06749660 31640.97052315 0 932.00394251 0 16148.76846617 0 586.36854538 0 -3585.72262058 0 5220
0.06850000 0.06852730 30889.64542829 0 525.56561745 0 15491.86483745 0 1603.14160725 0 -769.37645587 0 5029
0.06950000 0.06949320 29958.02029570 0 678.03830022 0 12897.63505525 0 2836.74682173 0 -3998.46807477 0 5040
0.07050000 0.07048030 30041.87555015 0 -170.63420216 0 11514.36057629 0 4491.82023536 0 -2735.05265456 0 5475
0.07150000 0.07148790 29257.84016167 0 348.08473493 0 9995.86106904 0 3167.85142966 0 -2909.78857018 0 5509
0.07250000 0.07249820 28302.27244303 0 674.72230826 0 8063.86298400 0 1746.87580815 0 -3123.01247389 0 5916
0.07350000 0.07351270 28272.25990557 0 844.54268731 0 8521.96446389 0 -222.65930594 0 -381.41326434 0 5721
0.07450000 0.07449140 27612.54611417 0 528.87374096 0 7491.30919837 0 -1190.11513679 0 -3146.85389409 0 6028
0.07550000 0.07549160 27618.05403303 0 539.02742076 0 10682.91212302 0 -831.33941896 0 1261.87545106 0 6183
0.07650000 0.07648840 27328.71968321 0 237.45087824 0 10373.47948970 0 -1134.40647177 0 -1777.90000417 0 6330
0.07750000 0.07749960 27478.22033794 0 633.59613943 0 11697.58318321 0 67.77190657 0 1176.92985349 0 6583
0.07850000 0.07848650 26949.23531454 0 463.30140492 0 12226.56820661 0 -211.83568335 0 -613.26180226 0 6549
0.07950000 0.07947320 27097.72431069 0 398.78569005 0 12352.35108829 0 660.10384198 0 1897.34315884 0 6828
0.08050000 0.08048110 26252.09015620 0 586.05380716 0 12993.18058646 0 1050.48602154 0 2128.70947283 0 7147
0.08150000 0.08149960 25256.05609493 0 479.95442898 0 11593.60716394 0 1878.86352903 0 2071.55076387 0 7386
0.08250000 0.08250610 25658.69620411 0 440.87293452 0 11957.01740208 0 1486.39620876 0 3799.13761536 0 7227
0.08350000 0.08350160 24423.57350179 0 567.40781573 0 10201.35140505 0 2497.26792900 0 4318.33203198 0 7798
0.08450000 0.08449610 24018.23563643 0 234.18434513 0 9418.20402798 0 2677.66913258 0 6059.31773914 0 7371
0.08550000 0.08548940 23535.33728103 0 310.97147841 0 7590.17072155 0 1842.54498652 0 4164.13278525 0 8256
0.08650000 0.08650700 23348.51766588 0 529.88090326 0 7063.11909007 0 670.01472373 0 4134.68228033 0 8037
0.08750000 0.08749060 22386.76758933 0 375.51192271 0 6022.70693971 0 1374.02342340 0 3251.13341092 0 8155
0.08850000 0.08849210 21709.40597629 0 540.27625706 0 5823.62377462 0 0.10686060 0 3506.91441831 0 8718
0.08950000 0.08949900 21517.75288132 0 51.72295509 0 4706.40425781 0 1008.70452278 0 2047.25971764 0 8571
0.09050000 0.09049190 21665.23021891 0 -99.75706582 0 4394.38627482 0 917.19550924 0 2169.44559108 0 8932
0.09150000 0.09150830 21529.66797110 0 130.46910897 0 4001.09838705 0 637.51463027 0 1659.45726742 0 9285
0.09250000 0.09250820 21550.57558146 0 443.15141442 0 4145.10236356 0 -134.61690909 0 1929.74995489 0 9204
0.09350000 0.09350330 21170.41677373 0 623.78867167 0 4502.35272509 0 -388.53084439 0 3408.01917318 0 9349
0.09450000 0.09448040 20595.90711487 0 993.10137550 0 5505.05249225 0 -926.39373373 0 3128.08200737 0 9564
0.09550000 0.09549270 20169.99885868 0 618.53141932 0 6581.88435098 0 24.33510958 0 4359.24800064 0 10155
0.09650000 0.09649430 19543.33258042 0 566.98741539 0 6737.32006928 0 -198.88083338 0 3478.08214918 0 9913
0.09750000 0.09749140 19417.66210525 0 278.40843731 0 6490.20560361 0 1109.80967984 0 3872.31425162 0 10476
0.09850000 0.09850240 18972.41992980 0 292.81108309 0 6587.18993812 0 473.39775741 0 2210.71001991 0 10575
0.09950000 0.09950330 18569.66741410 0 380.20714252 0 5370.71547536 0 695.12521340 0 2426.06964727 0 10882
0.10050000 0.10051200 18242.56447783 0 305.22525775 0 5566.97723713 0 111.75365032 0 1723.91115871 0 10875
0.10150000 0.10150300 17737.40963398 0 311.89883209 0 4896.73095599 0 72.40103136 0 1080.02195540 0 11118
0.10250000 0.10250800 17703.01324275 0 230.68513056 0 5336.26288087 0 411.94849205 0 1024.94501495 0 11575
0.10350000 0.10349800 17417.38830767 0 142.73490705 0 4890.36874768 0 8.03631215 0 998.17652930 0 11364
0.10450000 0.10450100 17321.28074392 0 212.70795785 0 5168.03530203 0 -85.02844117 0 1862.13744075 0 12093
0.10550000 0.10551000 17447.51325163 0 185.06045331 0 6079.35981940 0 141.89972670 0 1780.71016685 0 12067
0.10650000 0.10649700 17013.96135294 0 91.44291851 0 4932.07156189 0 -151.66785218 0 2101.87803954 0 12054
0.10750000 0.10749900 17104.22377831 0 398.12923605 0 5786.10248248 0 -245.56775213 0 1530.67313199 0 12807
0.10850000 0.10850100 16925.83465120 0 382.39569722 0 6105.91023642 0 -172.63054173 0 1176.48022746 0 12736
0.10950000 0.10950300 16449.79309275 0 431.37570871 0 5873.50978256 0 -143.82749830 0 999.18706380 0 12933
0.11050000 0.11050200 16194.51791465 0 478.92928163 0 5261.18657464 0 312.48671813 0 663.74244062 0 13428
0.11150000 0.11150900 15813.68466788 0 127.02834578 0 5701.70767679 0 624.05282696 0 1064.82234749 0 13453
0.11250000 0.11250000 15657.21480970 0 77.33297927 0 5052.59381903 0 1099.94151257 0 1132.09089772 0 13668
0.11350000 0.11349100 15807.83952950 0 -66.50587208 0 5340.91651028 0 990.67114681 0 2172.57049198 0 13791
0.11450000 0.11448600 15658.11406176 0 89.64565086 0 4330.80915429 0 897.72108185 0 2060.59112940 0 14205
0.11550000 0.11549300 15625.62858115 0 135.90059140 0 4749.41098751 0 313.40283116 0 3113.14318255 0 14776
0.11650000 0.11649800 15401.82722510 0 189.87482402 0 5341.19752654 0 305.67938004 0 3446.27110761 0 14553
0.11750000 0.11747300 15218.49221167 0 344.41466246 0 4512.63792051 0 -9.81021048 0 2832.00326712 0 14568
0.11850000 0.11849100 15183.30897489 0 288.28222491 0 5225.80100614 0 -227.39161990 0 3113.35675491 0 16015
0.11950000 0.11950300 14545.40204590 0 419.42015260 0 4392.94747153 0 -519.70811435 0 2133.46426809 0 15270
0.12050000 0.12050700 14493.47023953 0 143.54310983 0 5280.89143537 0 276.39186456 0 2164.03883808 0 15999
0.12150000 0.12150000 14264.27337112 0 120.46942608 0 4284.10425050 0 101.66752682 0 595.56452175 0 15670
0.12250000 0.12250700 14202.89941813 0 114.05438671 0 4515.51552710 0 516.71360500 0 1099.01977921 0 16887
0.12350000 0.12352200 13835.10532621 0 50.11745294 0 3475.32818975 0 499.73122987 0 707.81365994 0 16407
0.12450000 0.12449800 13869.61412396 0 74.69468614 0 3435.91846829 0 775.71168662 0 1412.12922938 0 16306
0.12550000 0.12549900 13853.65239992 0 62.96607876 0 3393.60865894 0 489.06610046 0 934.78712764 0 17523
0.12650000 0.12650100 13886.36269354 0 -8.63006580 0 3378.61363086 0 647.11302193 0 1837.21691808 0 17154
0.12750000 0.12750600 13987.75336314 0 21.57586705 0 3702.72655404 0 29.37744069 0 1701.31745074 0 18007
0.12850000 0.12850300 13890.85895384 0 143.35314284 0 3359.68437503 0 -277.22929304 0 1434.47564304 0 17496
0.12950000 0.12949900 13963.81077708 0 108.62369112 0 4182.47752724 0 -325.94514925 0 1793.23225177 0 18405
0.13050000 0.13049000 13869.95134348 0 229.71393834 0 3664.54206351 0 -153.29325028 0 998.35075939 0 18100
0.13150000 0.13148800 13655.92935356 0 175.21813953 0 3805.96069036 0 -26.04919641 0 1058.98957382 0 19059
0.13250000 0.13249300 13598.37722182 0 249.95385404 0 3444.24779048 0 -72.10247967 0 173.03857735 0 18957
0.13350000 0.13349100 13409.53428954 0 327.67283726 0 3742.83319585 0 -229.28342142 0 37.35223275 0 19468
0.13450000 0.13450700 13185.28330745 0 358.12938042 0 3374.54451530 0 -280.02034662 0 -86.39676558 0 19953
0.13550000 0.13551000 12909.32533201 0 190.24801362 0 3850.37250139 0 -128.72455998 0 291.68814208 0 19956
0.13650000 0.13649900 12788.15111713 0 189.90742190 0 4010.96767839 0 -233.26373584 0 19.63179650 0 19723
0.13750000 0.13749600 12723.51737542 0 173.13299882 0 4408.99912077 0 7.06211867 0 241.78864535 0 20946
0.13850000 0.13851100 12569.63286692 0 237.91511711 0 4399.25347659 0 264.02714876 0 239.43148090 0 20955
0.13950000 0.13949800 12172.83789611 0 313.17352189 0 4233.29650920 0 9.89069354 0 325.86196843 0 20506
0.14050000 0.14048300 12104.94436570 0 253.40473382 0 4319.34369054 0 370.79422160 0 610.59889210 0 21447
0.14150000 0.14148400 11684.88124788 0 73.45000888 0 4305.57389340 0 234.81944190 0 233.95615992 0 21771
0.14250000 0.14249400 11955.89333700 0 -33.25602722 0 3849.20347372 0 383.60294311 0 456.03095203 0 22470
0.14350000 0.14350900 11911.26795360 0 44.49667795 0 4463.11161339 0 164.16520767 0 190.55263526 0 22519
0.14450000 0.14449900 11797.84978773 0 58.59987280 0 3726.56797424 0 -139.37170435 0 -60.88790725 0 22218
0.14550000 0.14550500 11765.70152664 0 106.49898332 0 4048.83743070 0 -89.58416450 0 179.82905446 0 23559
0.14650000 0.14650700 11894.29457100 0 106.84204798 0 3745.77824634 0 1.70377915 0 -101.97923007 0 23044
0.14750000 0.14750500 11698.59484177 0 106.26337928 0 3745.85693090 0 599.14017274 0 74.96794636 0 23649
0.14850000 0.14849900 11654.86871043 0 151.21372989 0 3213.48847163 0 147.48295792 0 -468.38330311 0 23640
0.14950000 0.14949500 11255.60079646 0 261.92177488 0 2966.31780270 0 479.38790018 0 -213.41724291 0 24457
0.15050000 0.15050000 11114.10348506 0 402.03761030 0 2996.21793365 0 -46.91813893 0 -645.24482578 0 24591
0.15150000 0.15149900 10713.71150602 0 291.85113151 0 3012.38198940 0 -30.84502004 0 -241.46266648 0 25020
0.15250000 0.15250500 10426.79389612 0 319.50987670 0 3049.61102462 0 -165.75238755 0 -904.83641376 0 25297
0.15350000 0.15350100 10224.82188378 0 232.95349388 0 3158.93759363 0 -151.28904225 0 -373.14014541 0 25452
0.15450000 0.15450400 10017.34195259 0 242.61258505 0 3630.50537310 0 -17.69907901 0 -381.45260662 0 26061
0.15550000 0.15549900 9930.28311268 0 219.34668617 0 3362.40461251 0 196.27412648 0 -265.69301320 0 26128
0.15650000 0.15649500 9696.19656120 0 165.58265372 0 3498.45020831 0 298.60339041 0 60.44007973 0 26331
0.15750000 0.15749700 9779.96189045 0 154.43867259 0 3491.66085527 0 403.79002775 0 388.72867984 0 27345
0.15850000 0.15849900 9480.82569320 0 123.85960634 0 3293.73547720 0 483.59864794 0 670.51942895 0 26980
0.15950000 0.15949700 9339.29465984 0 148.19786330 0 2906.98964814 0 527.61141588 0 917.74517706 0 27777
0.16050000 0.16050000 9269.74875377 0 32.15680399 0 2896.97422834 0 239.02794153 0 1173.04058833 0 28224
0.16150000 0.16150500 9319.46615195 0 -7.78521849 0 2733.81618298 0 215.28094280 0 1218.48653924 0 28075
0.16250000 0.16249700 9388.47250679 0 -62.57400486 0 2566.28552449 0 40.75050628 0 1021.72794071 0 28590
0.16350000 0.16349900 9469.30402620 0 19.28951869 0 2649.18532363 0 -345.04975923 0 1250.49991252 0 29163
0.16450000 0.16449100 9363.66439063 0 156.15961622 0 2712.91981327 0 -169.63153612 0 1000.39880595 0 28996
0.16550000 0.16550500 9334.15768246 0 270.40284585 0 3145.67362577 0 -376.70005949 0 1069.48384534 0 30777
0.16650000 0.16650700 9055.86165166 0 210.84650609 0 3223.93103616 0 -173.36568029 0 719.08016417 0 29211
0.16750000 0.16749900 9014.56350088 0 184.39613085 0 3445.81024093 0 82.59686360 0 1008.50556326 0 30922
0.16850000 0.16850800 8809.56775350 0 93.00042307 0 3263.20586981 0 292.63685300 0 523.09941868 0 30867
0.16950000 0.16949900 8750.90279733 0 72.01693832 0 2882.87845233 0 327.80772507 0 499.92681720 0 30852
0.17050000 0.17049200 8672.80275605 0 106.85677323 0 2853.59655717 0 127.73425865 0 -137.62940349 0 31257
0.17150000 0.17149500 8620.99459683 0 56.96402090 0 2467.67129563 0 206.21985425 0 -91.11795130 0 32608
0.17250000 0.17250900 8509.92572696 0 101.54792630 0 2396.58542040 0 -21.53000519 0 -456.93582441 0 32361
0.17350000 0.17350400 8427.05964977 0 109.41503293 0 2103.31684283 0 -12.32773406 0 -772.90826833 0 32508
0.17450000 0.17449800 8353.72564440 0 167.44410548 0 2327.05075498 0 31.89995512 0 -486.36609615 0 32791
0.17550000 0.17549800 8216.52226158 0 208.55341334 0 2485.35283923 0 -101.64212295 0 -389.34017124 0 33633
0.17650000 0.17650100 8190.05052911 0 164.17869645 0 2489.60180520 0 -25.16871624 0 -122.99295217 0 33984
0.17750000 0.17750300 8013.71844109 0 122.48599882 0 2758.51189264 0 80.13538591 0 -17.40153899 0 34069
