### header ###
fiducial parameters:
Omega_m = 0.31
Omega_nu = 0
Omega_de = 0.69
Omega_k = 0
H_0 = 100
w_de = -1
zeff = 0
beta = 0
fgrowth = 0
b_1 = 2
gamma = 0.55
Lx = 3500 Ly = 3500 Lz = 3500
nx = 700 ny = 700 nz = 700
xoffset = 857.220397 yoffset = 15.9954215 zoffset = 262.898189
bins = 400 dk = 0.001
kx_ny = 0.628318531 ky_ny = 0.628318531 kz_ny = 0.628318531
############################
A(data) = 3.05457929 (not used)
A(ran) = 3.05278706 (used)
Ngal = 186500
weighted Ngal = 0
Nran = 9360983
weighted Nran = 0
SN(data) = 3443.67912
SN(ran) = 68.5541245
SN(data+ran) = 3512.23324
############################
13 columns: k_central k_mean P_0(k) sigma^{lin}_{P_0(k)} P^img_1(k) sigma^{lin}_{P_1(k)} P_2(k) sigma^{lin}_{P_2(k)} P^img_3(k) sigma^{lin}_{P_3(k)} P_4(k) sigma^{lin}_{P_4(k)} N_modes
### header ###
0.00050000 0 0 0 0 0 0 0 0 0 0 0 0
0.00150000 0.00179520 15224.44975656 0 -21061.71968117 0 -19460.71379755 0 70692.11522768 0 27537.68338030 0 3
0.00250000 0.00253879 29337.08674932 0 -24538.67776528 0 2498.08849650 0 -13117.05255752 0 -17886.79788220 0 6
0.00350000 0.00331552 44827.93992821 0 -22698.35842760 0 -11394.76005251 0 8894.81684864 0 28897.01527320 0 7
0.00450000 0.00420575 59113.34572270 0 -21237.52345860 0 -14646.45549597 0 18591.47427652 0 3392.99042315 0 24
0.00550000 0.00557378 77134.35697463 0 -13790.70475582 0 -35549.11996930 0 23838.94725727 0 24773.15773952 0 45
0.00650000 0.00659388 77274.86510876 0 -12100.33569890 0 -37568.27806010 0 27704.38223064 0 -6403.29289216 0 40
0.00750000 0.00754703 77781.03161118 0 1678.53265171 0 -45821.61345283 0 -2245.97194126 0 47837.96138095 0 57
0.00850000 0.00846663 72004.68601354 0 5004.51755585 0 -51120.34380091 0 6025.69695281 0 24294.41842489 0 75
0.00950000 0.00948925 62456.42765661 0 8709.49224004 0 -27179.21902849 0 -30763.18810756 0 40794.45722641 0 112
0.01050000 0.01054430 56995.71953149 0 3800.32912434 0 -23988.56031850 0 -24606.57129569 0 28352.63055830 0 105
0.01150000 0.01145670 58836.37608869 0 940.63676228 0 7404.86859425 0 -40607.86242427 0 14443.44934377 0 144
0.01250000 0.01249090 63167.84844137 0 -3689.29397642 0 7271.16105380 0 -22572.46313941 0 5689.09566667 0 169
0.01350000 0.01339930 74425.92218099 0 -6429.23631405 0 40190.83428215 0 -26463.63920296 0 -8353.20857447 0 180
0.01450000 0.01448870 81276.31195598 0 -7069.63866750 0 25981.75250612 0 -2515.29793277 0 -14679.05338309 0 267
0.01550000 0.01550050 90854.02081783 0 -1660.81738615 0 27398.18690473 0 5414.07066523 0 -33418.67943625 0 238
0.01650000 0.01653350 93319.54514917 0 -1088.78179452 0 19604.93134643 0 4797.29615962 0 -24474.26883659 0 315
0.01750000 0.01747870 96744.45902039 0 2819.30133179 0 27943.58327820 0 -1505.88749713 0 -45795.19792361 0 297
0.01850000 0.01844180 87935.16104251 0 7290.74226737 0 14689.05756224 0 2626.50169045 0 -18997.93620696 0 388
0.01950000 0.01947590 86076.96907017 0 4894.59523235 0 19537.37503554 0 -8929.24696183 0 -29857.30406515 0 399
0.02050000 0.02045430 86252.99766062 0 2840.35507061 0 23007.36391619 0 2105.38512257 0 -18195.69096428 0 462
0.02150000 0.02154770 82315.73492908 0 1402.12505023 0 21146.92381371 0 10809.50433155 0 -20576.57319562 0 571
0.02250000 0.02255340 80845.12059394 0 2475.84324871 0 12859.30443625 0 16619.30210577 0 -22194.88968136 0 510
0.02350000 0.02348930 69771.95555884 0 5392.65722559 0 7763.02944849 0 13687.29076910 0 -14122.19154588 0 555
0.02450000 0.02439640 68452.97760207 0 5867.24874010 0 -5789.19366143 0 8474.70876822 0 -12595.37395709 0 592
0.02550000 0.02547300 61811.10189814 0 3043.22633500 0 -3305.38079135 0 6327.24988997 0 -676.98954751 0 837
0.02650000 0.02652900 60445.13802131 0 2392.34769508 0 -7094.77276253 0 -3145.86471683 0 -3205.09170553 0 723
0.02750000 0.02749970 56698.40431966 0 2384.77149648 0 -2687.96556865 0 -8559.67684709 0 5235.92883245 0 826
0.02850000 0.02848090 57223.67992832 0 2363.68403571 0 3182.37435040 0 -8499.92154781 0 3762.79659155 0 831
0.02950000 0.02946900 54384.51636668 0 2453.63172286 0 9726.88353770 0 -6460.84502391 0 5140.60811425 0 996
0.03050000 0.03053250 53690.29377754 0 580.02657024 0 9642.85967349 0 -214.50758603 0 1498.78340587 0 1041
0.03150000 0.03150510 52686.27885424 0 -374.40921487 0 13189.32994172 0 4001.63793828 0 -6301.00297051 0 1036
0.03250000 0.03246190 56373.99913956 0 -144.62221230 0 10761.86645376 0 950.15197312 0 -5955.51032964 0 1059
0.03350000 0.03345080 52904.90951096 0 1236.48282106 0 7684.54722508 0 -573.27093915 0 -12004.22813515 0 1302
0.03450000 0.03451200 53264.27311483 0 899.91862907 0 3823.67595591 0 -2299.57860459 0 -12848.40100504 0 1339
0.03550000 0.03553350 51744.98676203 0 1822.95253230 0 6826.02004420 0 -5541.07877784 0 -10725.50294864 0 1365
0.03650000 0.03647120 51233.53715377 0 2244.24088105 0 8612.02455755 0 -529.21545674 0 -13588.71026219 0 1308
0.03750000 0.03744890 48526.11401870 0 2727.31908686 0 7293.04660077 0 -2778.20551272 0 -8054.34215283 0 1579
0.03850000 0.03847530 48895.93142775 0 1214.59727409 0 13756.75799062 0 1849.58163388 0 -2780.29627376 0 1662
0.03950000 0.03950240 48064.34808667 0 776.20290306 0 13267.11524477 0 2721.77744605 0 -2350.00416377 0 1683
0.04050000 0.04050350 49579.47539870 0 -78.61497549 0 15716.11581954 0 2438.65917609 0 1168.37571828 0 1822
0.04150000 0.04152450 47805.36349383 0 61.23142154 0 15442.63078725 0 5594.29201840 0 2963.22662375 0 1887
0.04250000 0.04250150 47531.31642901 0 1311.33431428 0 13728.99358331 0 -1191.16051731 0 -630.33635072 0 1920
0.04350000 0.04349210 46784.71240746 0 1770.13271451 0 12919.89154369 0 1996.36205113 0 -1180.88656254 0 2005
0.04450000 0.04448520 43716.46438393 0 2563.67769352 0 11522.56625132 0 1157.57345293 0 -4614.54566004 0 2151
0.04550000 0.04548030 42487.29922649 0 1644.93434667 0 9348.86045362 0 2358.79435264 0 -4937.07365146 0 2274
0.04650000 0.04648670 39837.65303618 0 1704.67840531 0 6026.38263250 0 -291.68139769 0 -8989.05846437 0 2311
0.04750000 0.04749250 38943.45927053 0 893.13602042 0 7258.89750385 0 1352.46385530 0 -9126.55410411 0 2568
0.04850000 0.04851840 37416.52927524 0 1226.23134759 0 5622.57349564 0 -932.08150300 0 -8975.26618592 0 2493
0.04950000 0.04949480 37151.92435703 0 510.97974906 0 7794.73932420 0 -3205.76614457 0 -12263.10032148 0 2644
0.05050000 0.05050630 37260.17182357 0 220.39656295 0 7331.26481326 0 -792.19834905 0 -10665.60152090 0 2829
0.05150000 0.05149060 36697.57725448 0 -59.03106416 0 11282.46595171 0 -1646.30570606 0 -10343.53439615 0 2784
0.05250000 0.05249300 38791.59807916 0 -616.37771064 0 7465.87160576 0 1285.41337369 0 -10091.01317748 0 3055
0.05350000 0.05348950 39160.74104916 0 -618.39990371 0 10999.24651589 0 2422.84358051 0 -10800.19707275 0 3009
0.05450000 0.05448610 38478.65836281 0 275.72979024 0 6789.46544803 0 3092.53906976 0 -7703.69005328 0 3336
0.05550000 0.05550870 39166.58618754 0 583.37740822 0 9605.88917323 0 1961.07764848 0 -4876.32917491 0 3349
0.05650000 0.05647670 36888.55591040 0 1135.94644092 0 8936.49718155 0 1878.18908999 0 -3927.05622068 0 3324
0.05750000 0.05747970 37494.08976528 0 1033.13832527 0 8365.25855205 0 460.08545474 0 -1129.64043586 0 3639
0.05850000 0.05849280 35990.65273001 0 630.12502648 0 10316.25333683 0 54.86539140 0 258.30565754 0 3846
0.05950000 0.05951020 35934.89910238 0 667.94307180 0 11751.76311973 0 -1420.94189956 0 1108.07974369 0 3787
0.06050000 0.06049470 35492.91671564 0 549.18447276 0 12387.64673158 0 -1144.01722815 0 3038.96612838 0 3930
0.06150000 0.06148310 35035.75945041 0 845.80950864 0 12961.81917092 0 -507.30630440 0 1473.72799539 0 4083
0.06250000 0.06249100 35152.88703103 0 943.19513438 0 14682.87520434 0 -1196.99441504 0 828.02230293 0 4303
0.06350000 0.06350600 34494.97174374 0 1079.03952253 0 17108.83244511 0 -423.96249956 0 904.99490694 0 4470
0.06450000 0.06451750 34158.76388038 0 1075.67744390 0 16837.59554297 0 -1331.25274737 0 -899.14639636 0 4479
0.06550000 0.06550280 32444.11501787 0 689.39248153 0 17091.63424949 0 1097.93056015 0 -881.16023113 0 4636
0.06650000 0.06648880 32702.76239119 0 530.20575807 0 17372.53811125 0 1471.71591891 0 -651.78463638 0 4653
0.06750000 0.06749660 32054.85128306 0 16.30793608 0 16416.97039261 0 1354.86935456 0 -3459.43390962 0 5220
0.06850000 0.06852730 32356.55034868 0 51.35954485 0 14690.40644033 0 401.65542818 0 -2845.72810166 0 5029
0.06950000 0.06949320 31430.88276098 0 787.04563475 0 12661.80620291 0 -322.54597647 0 -5452.47996878 0 5040
0.07050000 0.07048030 30746.77675749 0 786.35770693 0 12381.80159320 0 -834.58122263 0 -4339.64430576 0 5475
0.07150000 0.07148790 29683.29879184 0 1342.08873468 0 11114.05852246 0 -331.92967170 0 -7901.35689638 0 5509
0.07250000 0.07249820 29071.47017255 0 855.42251315 0 11178.65854221 0 970.11761695 0 -6674.32746259 0 5916
0.07350000 0.07351270 28019.45767063 0 707.10212675 0 10825.09511412 0 1071.01369791 0 -8236.05851255 0 5721
0.07450000 0.07449140 28088.47526612 0 442.61073912 0 9352.12024233 0 1904.96432003 0 -6988.75094484 0 6028
0.07550000 0.07549160 26696.43307960 0 666.06138687 0 9476.72285568 0 2308.42499672 0 -5072.41108626 0 6183
0.07650000 0.07648840 26486.23291093 0 788.65866813 0 7575.71524471 0 2698.52053969 0 -3030.44571512 0 6330
0.07750000 0.07749960 25740.07851540 0 911.46839769 0 8503.01272676 0 2745.78747601 0 324.38719506 0 6583
0.07850000 0.07848650 24838.12870075 0 810.09458908 0 7530.21309055 0 1146.62505912 0 1476.50443612 0 6549
0.07950000 0.07947320 24009.91755489 0 643.79478184 0 7634.39144152 0 523.44787885 0 3314.85665992 0 6828
0.08050000 0.08048110 23809.38434585 0 811.17144342 0 9036.13430963 0 -760.41990537 0 2440.12046068 0 7147
0.08150000 0.08149960 22483.66199864 0 599.20986478 0 9345.60066490 0 -685.10192514 0 3117.53827699 0 7386
0.08250000 0.08250610 22862.47192827 0 297.19268874 0 10490.92180854 0 -800.64120181 0 1990.20217452 0 7227
0.08350000 0.08350160 22743.77065655 0 -246.03648727 0 9406.04164388 0 -116.74877069 0 -164.30683987 0 7798
0.08450000 0.08449610 23217.45167835 0 -650.77859814 0 8812.26550967 0 1264.60692919 0 -526.03884884 0 7371
0.08550000 0.08548940 23244.42924011 0 -282.12796863 0 7465.71423665 0 711.89176803 0 -2047.52949325 0 8256
0.08650000 0.08650700 23640.77458488 0 92.00236570 0 7670.77742794 0 1631.88395117 0 -730.57372954 0 8037
0.08750000 0.08749060 22898.21719759 0 710.09888424 0 6856.54965159 0 952.54510766 0 -1244.40747983 0 8155
0.08850000 0.08849210 22628.66639307 0 861.17885039 0 5493.28353093 0 705.64196622 0 1316.40384776 0 8718
0.08950000 0.08949900 21768.75661214 0 800.48383270 0 7102.65245869 0 -57.83247357 0 805.97826278 0 8571
0.09050000 0.09049190 21444.80105808 0 680.14817037 0 8031.92829527 0 -791.87124611 0 2140.35478699 0 8932
0.09150000 0.09150830 20697.07297145 0 507.58170034 0 8325.74766473 0 -319.07036726 0 2014.42577685 0 9285
0.09250000 0.09250820 20478.55472124 0 496.89521369 0 8544.34459950 0 -285.84525183 0 2091.35679045 0 9204
0.09350000 0.09350330 19956.31408828 0 285.44845686 0 8342.46251237 0 -156.00786743 0 2000.31876018 0 9349
0.09450000 0.09448040 19641.68827432 0 443.59766825 0 8150.48343853 0 67.53236831 0 -1452.80914438 0 9564
0.09550000 0.09549270 19502.97864430 0 456.30522390 0 8587.87963978 0 -644.44336738 0 -165.19260314 0 10155
0.09650000 0.09649430 18677.57766112 0 742.88673836 0 7210.14680163 0 -559.42920184 0 -1994.70967547 0 9913
0.09750000 0.09749140 18540.89134823 0 731.60562128 0 8448.47308941 0 -633.85579846 0 -1031.76359369 0 10476
0.09850000 0.09850240 17664.12059122 0 482.02270871 0 7987.79750050 0 -136.88302428 0 -2826.16936939 0 10575
0.09950000 0.09950330 17447.40084512 0 435.34141029 0 8710.72871162 0 540.04919591 0 -1778.24846434 0 10882
0.10050000 0.10051200 17110.51854271 0 178.32280726 0 8690.75407527 0 382.89815431 0 -2012.70595729 0 10875
0.10150000 0.10150300 16952.36258693 0 290.04925520 0 8605.85344030 0 639.00401650 0 -1579.00793013 0 11118
0.10250000 0.10250800 16983.72400247 0 157.32864389 0 8878.45046117 0 817.29647400 0 -484.26971479 0 11575
0.10350000 0.10349800 16873.11599928 0 -100.52154248 0 8074.45167699 0 1300.67817738 0 -671.77838183 0 11364
0.10450000 0.10450100 17127.94155135 0 -229.60827622 0 7847.14323791 0 1396.39231836 0 63.49674988 0 12093
0.10550000 0.10551000 17256.19737619 0 -203.81098279 0 7152.43730078 0 1353.53171712 0 -487.45756334 0 12067
0.10650000 0.10649700 17088.93649331 0 122.31738906 0 6507.50496509 0 74.95681812 0 -402.60751130 0 12054
0.10750000 0.10749900 17218.87841576 0 348.88169706 0 6643.06721291 0 311.57734948 0 -834.08663400 0 12807
0.10850000 0.10850100 16726.98753977 0 317.77769243 0 6251.74643901 0 -189.42857018 0 -482.68927930 0 12736
0.10950000 0.10950300 16357.17013072 0 245.35980009 0 5664.87206434 0 255.62026608 0 -1147.45686727 0 12933
0.11050000 0.11050200 16581.87073884 0 -4.76161833 0 6300.40721602 0 877.97350665 0 -865.97748419 0 13428
0.11150000 0.11150900 16239.70533058 0 41.63795566 0 5266.46968048 0 573.41931574 0 -815.44963508 0 13453
0.11250000 0.11250000 16301.41650310 0 212.49101329 0 5698.22307506 0 465.66756190 0 -1289.51621121 0 13668
0.11350000 0.11349100 15977.12372951 0 308.94816128 0 5424.91789319 0 618.08291735 0 240.69380597 0 13791
0.11450000 0.11448600 15694.42136362 0 354.11759217 0 5823.54509006 0 372.13860343 0 -277.83966038 0 14205
0.11550000 0.11549300 15413.06787583 0 236.96303399 0 5452.97455741 0 555.65346726 0 938.67189653 0 14776
0.11650000 0.11649800 15242.54720424 0 175.65652491 0 5209.33345282 0 622.65111781 0 -209.00191530 0 14553
0.11750000 0.11747300 14833.94955017 0 373.51333501 0 4949.41588597 0 -121.17758708 0 254.60748345 0 14568
0.11850000 0.11849100 14553.94494046 0 445.15000212 0 4511.88479691 0 -94.02231063 0 -48.31389053 0 16015
0.11950000 0.11950300 14127.58705823 0 524.62140279 0 4185.66987205 0 -127.59037832 0 84.98898649 0 15270
0.12050000 0.12050700 13781.03779620 0 301.27304496 0 4115.01114155 0 269.02024581 0 215.12582182 0 15999
0.12150000 0.12150000 13685.82948450 0 64.04686733 0 4197.02292929 0 41.19754696 0 -306.12226168 0 15670
0.12250000 0.12250700 13716.62886751 0 60.05845964 0 4532.76992597 0 384.74836542 0 637.87433110 0 16887
0.12350000 0.12352200 13721.12512780 0 23.33368001 0 4500.11583560 0 149.57821521 0 -251.05431375 0 16407
0.12450000 0.12449800 13839.71399301 0 -21.87250782 0 4219.49299010 0 -223.35622629 0 655.64579990 0 16306
0.12550000 0.12549900 13758.10686870 0 70.03656048 0 4744.48758249 0 82.84516958 0 548.11661094 0 17523
0.12650000 0.12650100 13674.70124028 0 110.03855183 0 4037.81035233 0 325.55847086 0 322.88319599 0 17154
0.12750000 0.12750600 13635.47136923 0 97.73678367 0 4396.15105699 0 92.65544750 0 584.84768534 0 18007
0.12850000 0.12850300 13699.09345237 0 141.20730261 0 4658.99119303 0 171.64923292 0 -122.09594824 0 17496
0.12950000 0.12949900 13415.37942792 0 152.18154992 0 4591.50232604 0 234.93072434 0 789.15775302 0 18405
0.13050000 0.13049000 13349.50921463 0 264.44080471 0 4797.53221329 0 6.31162539 0 684.87711213 0 18100
0.13150000 0.13148800 13326.24106762 0 321.05659024 0 5267.47009840 0 -308.19054142 0 1436.70129188 0 19059
0.13250000 0.13249300 13207.87701542 0 294.23077727 0 5668.86249535 0 105.78857419 0 1466.98360495 0 18957
0.13350000 0.13349100 12914.49603134 0 221.45430818 0 5406.58439185 0 -36.98443866 0 1203.00816318 0 19468
0.13450000 0.13450700 12886.84403054 0 46.58507845 0 5049.60380593 0 425.73964644 0 1317.93257626 0 19953
0.13550000 0.13551000 12805.91134528 0 67.84440877 0 4639.20764774 0 387.77996892 0 846.72337355 0 19956
0.13650000 0.13649900 12582.67202176 0 75.89518764 0 3968.39933407 0 654.07660506 0 62.75835154 0 19723
0.13750000 0.13749600 12309.41180249 0 133.23543311 0 3339.67601673 0 565.37325795 0 -478.46504276 0 20946
0.13850000 0.13851100 11989.27806968 0 161.62369654 0 3087.93040296 0 532.95746937 0 -671.52659126 0 20955
0.13950000 0.13949800 11923.29544988 0 185.33697332 0 2212.67713379 0 420.75329377 0 -574.25786828 0 20506
0.14050000 0.14048300 11722.98705386 0 215.86433257 0 3023.47651167 0 333.62476183 0 -332.81206278 0 21447
0.14150000 0.14148400 11587.87443207 0 178.98825378 0 2503.43904625 0 -150.30660938 0 -413.24453908 0 21771
0.14250000 0.14249400 11383.40699527 0 276.47167318 0 3215.98389609 0 28.15546954 0 468.26864848 0 22470
0.14350000 0.14350900 11252.11619474 0 280.96456128 0 3008.07682017 0 -73.16517080 0 508.41463256 0 22519
0.14450000 0.14449900 10914.99783866 0 266.11004134 0 3291.07144297 0 72.19825002 0 651.17426904 0 22218
0.14550000 0.14550500 10970.20067440 0 179.82455820 0 3164.59164095 0 -81.03227743 0 618.03008630 0 23559
0.14650000 0.14650700 10683.74393117 0 138.87936385 0 3350.26470972 0 -93.29234277 0 305.85810639 0 23044
0.14750000 0.14750500 10793.76742053 0 74.22696266 0 3182.54296016 0 -101.26488671 0 624.74412698 0 23649
0.14850000 0.14849900 10615.37829343 0 14.32980636 0 3258.11385503 0 109.17796761 0 98.08850363 0 23640
0.14950000 0.14949500 10679.53992780 0 128.49974696 0 3325.65892527 0 20.47304680 0 601.73451493 0 24457
0.15050000 0.15050000 10649.66227816 0 173.05431426 0 2999.57888822 0 351.70759666 0 242.42149399 0 24591
0.15150000 0.15149900 10369.11811721 0 108.45159676 0 3277.65010600 0 385.05635925 0 1016.52689162 0 25020
0.15250000 0.15250500 10417.47539666 0 73.21193190 0 2985.49435285 0 462.87538426 0 868.70446605 0 25297
0.15350000 0.15350100 10263.64709141 0 -42.65557177 0 2803.87915899 0 410.91660032 0 665.78037060 0 25452
0.15450000 0.15450400 10306.96855932 0 174.44365869 0 2649.19656428 0 -24.98189662 0 1046.53268468 0 26061
0.15550000 0.15549900 10056.57182364 0 235.95249949 0 2456.01474082 0 -141.23990050 0 339.55870135 0 26128
0.15650000 0.15649500 9786.68379959 0 422.94297253 0 2748.74376715 0 -343.18493527 0 522.26648646 0 26331
0.15750000 0.15749700 9504.59966949 0 428.41604538 0 2794.66182539 0 -384.62022200 0 -187.19954914 0 27345
0.15850000 0.15849900 9121.87799341 0 234.59238076 0 2977.62589734 0 35.52686348 0 139.03223670 0 26980
0.15950000 0.15949700 9048.83624496 0 78.81247372 0 2738.57097824 0 -149.50739911 0 -324.87391523 0 27777
0.16050000 0.16050000 9149.60867876 0 -121.94307539 0 2745.28164673 0 256.12047504 0 -351.21975242 0 28224
0.16150000 0.16150500 9129.93753998 0 -67.75999148 0 2974.55719969 0 180.64737383 0 -466.62189314 0 28075
0.16250000 0.16249700 9264.63425769 0 50.59765354 0 2542.82628641 0 68.74523452 0 -76.61975998 0 28590
0.16350000 0.16349900 9199.74198102 0 105.64008520 0 2919.06210703 0 69.70720941 0 193.42124932 0 29163
0.16450000 0.16449100 9207.89145280 0 136.18273174 0 2957.39272602 0 -9.78426706 0 271.74385549 0 28996
0.16550000 0.16550500 9175.43969414 0 33.20364579 0 3499.15836930 0 141.77607954 0 945.62873527 0 30777
0.16650000 0.16650700 9140.89717444 0 57.10014518 0 3174.28108188 0 156.98580404 0 863.16282524 0 29211
0.16750000 0.16749900 9294.37701952 0 -33.21533606 0 3320.40954138 0 325.46517346 0 1343.31396561 0 30922
0.16850000 0.16850800 9058.50320458 0 110.15073352 0 3067.77591620 0 467.60657415 0 1162.24956363 0 30867
0.16950000 0.16949900 9041.37245287 0 112.12009553 0 2631.70611174 0 270.76479481 0 894.25783736 0 30852
0.17050000 0.17049200 8872.45919434 0 119.99956688 0 2623.75897168 0 241.52111787 0 654.06424034 0 31257
0.17150000 0.17149500 8760.06392768 0 125.85032558 0 2283.83045292 0 -56.32341621 0 318.69830172 0 32608
0.17250000 0.17250900 8722.46395098 0 21.64331095 0 2207.50643446 0 -9.00623418 0 46.32924124 0 32361
0.17350000 0.17350400 8622.18610581 0 126.93617244 0 2305.96329421 0 -317.24151339 0 -159.33285192 0 32508
0.17450000 0.17449800 8584.56364781 0 266.78560445 0 2558.09109011 0 -268.72686483 0 207.07301964 0 32791
0.17550000 0.17549800 8458.98309785 0 263.14250955 0 2655.51380999 0 -82.04101343 0 23.93775258 0 33633
0.17650000 0.17650100 8196.22164636 0 252.01988565 0 2702.98307803 0 90.17025203 0 577.43784838 0 33984
0.17750000 0.17750300 8170.42435293 0 97.88976892 0 2794.79671320 0 263.23243475 0 604.55029794 0 34069
