### header ###
fiducial parameters:
Omega_m = 0.31
Omega_nu = 0
Omega_de = 0.69
Omega_k = 0
H_0 = 100
w_de = -1
zeff = 0
beta = 0
fgrowth = 0
b_1 = 2
gamma = 0.55
Lx = 3500 Ly = 3500 Lz = 3500
nx = 700 ny = 700 nz = 700
xoffset = 857.220397 yoffset = 15.9954215 zoffset = 262.898189
bins = 400 dk = 0.001
kx_ny = 0.628318531 ky_ny = 0.628318531 kz_ny = 0.628318531
############################
A(data) = 3.09318794 (not used)
A(ran) = 3.09629382 (used)
Ngal = 188960
weighted Ngal = 0
Nran = 9360983
weighted Nran = 0
SN(data) = 3433.78152
SN(ran) = 69.5311228
SN(data+ran) = 3503.31264
############################
13 columns: k_central k_mean P_0(k) sigma^{lin}_{P_0(k)} P^img_1(k) sigma^{lin}_{P_1(k)} P_2(k) sigma^{lin}_{P_2(k)} P^img_3(k) sigma^{lin}_{P_3(k)} P_4(k) sigma^{lin}_{P_4(k)} N_modes
### header ###
0.00050000 0 0 0 0 0 0 0 0 0 0 0 0
0.00150000 0.00179520 28915.44994040 0 -35481.33884539 0 -13620.63371026 0 3473.13626286 0 57566.74458862 0 3
0.00250000 0.00253879 61510.07727156 0 -50052.14476194 0 -32497.17088932 0 -15820.31665181 0 22940.48204434 0 6
0.00350000 0.00331552 85724.34985674 0 -44317.72679153 0 -38951.55253906 0 -40513.66577115 0 -24968.07062320 0 7
0.00450000 0.00420575 117653.64307114 0 -29938.79878295 0 -44349.65023960 0 -50860.12273649 0 5402.29046327 0 24
0.00550000 0.00557378 125184.87906090 0 -2333.86258932 0 -25710.17838446 0 -56036.55480462 0 36874.95472302 0 45
0.00650000 0.00659388 119805.10362105 0 27633.11650501 0 -5630.70048612 0 -33235.00720331 0 -9890.89587252 0 40
0.00750000 0.00754703 92931.63029244 0 21389.83427600 0 9094.00117959 0 -12792.98459694 0 26351.56991517 0 57
0.00850000 0.00846663 75771.99010603 0 21777.18710019 0 26757.80703259 0 4473.86891614 0 7323.78978052 0 75
0.00950000 0.00948925 65630.56261002 0 12486.22723849 0 27883.44579679 0 10621.54941068 0 16392.91540005 0 112
0.01050000 0.01054430 48082.89516038 0 1511.40665664 0 47820.98799835 0 6915.64175248 0 12351.56424273 0 105
0.01150000 0.01145670 54867.97675462 0 105.54734983 0 37549.73098640 0 9735.43767291 0 8052.19518854 0 144
0.01250000 0.01249090 57415.89505582 0 -1692.43733666 0 52097.26875594 0 3475.00221088 0 22161.84216821 0 169
0.01350000 0.01339930 63658.16562626 0 -1063.07330223 0 43385.42721990 0 11846.29699238 0 13895.46762064 0 180
0.01450000 0.01448870 62442.48924970 0 -2346.83430027 0 42087.58168650 0 13868.37765237 0 24660.18919968 0 267
0.01550000 0.01550050 73600.85841734 0 -5387.85746773 0 18993.66475968 0 32912.17571431 0 568.49029039 0 238
0.01650000 0.01653350 72683.39650468 0 -6375.76453852 0 6731.86835368 0 25857.88053506 0 17212.13402532 0 315
0.01750000 0.01747870 79272.55355668 0 -4789.95601470 0 -7062.44465103 0 23211.94375950 0 11010.13870645 0 297
0.01850000 0.01844180 76479.25185002 0 -2831.39627198 0 -19937.76701457 0 17600.83572760 0 12150.13178164 0 388
0.01950000 0.01947590 74422.88720530 0 4708.42757494 0 -27722.59208483 0 -5013.04920975 0 2372.90136931 0 399
0.02050000 0.02045430 66529.25263597 0 7705.81453627 0 -31336.23648183 0 -5053.16709221 0 6880.14377747 0 462
0.02150000 0.02154770 58431.26303635 0 5914.22341951 0 -12763.75890504 0 -14409.27776555 0 8688.07880039 0 571
0.02250000 0.02255340 56090.62233463 0 3291.56603160 0 -14413.32439981 0 -10743.62287762 0 16637.28714694 0 510
0.02350000 0.02348930 52468.65985609 0 -1447.96442391 0 1170.99478990 0 -8234.65343121 0 9527.22709942 0 555
0.02450000 0.02439640 59631.98934743 0 -1717.06560241 0 15191.73946293 0 -14690.06922081 0 19018.28178478 0 592
0.02550000 0.02547300 66588.04123929 0 -572.67630873 0 33114.61983398 0 -16376.05442395 0 16348.62723617 0 837
0.02650000 0.02652900 67299.23721104 0 3226.44894192 0 49134.90766229 0 -13624.34312501 0 25123.30400979 0 723
0.02750000 0.02749970 68118.79305584 0 4779.78322578 0 56285.64762481 0 -14894.87387713 0 20956.16997080 0 826
0.02850000 0.02848090 68227.37774190 0 2973.77035414 0 66770.47700065 0 2348.99250521 0 20956.61959683 0 831
0.02950000 0.02946900 70503.04748239 0 202.44299560 0 80018.14591966 0 12832.21446799 0 28964.12195807 0 996
0.03050000 0.03053250 69896.38956243 0 -2052.27304786 0 58593.46562639 0 20481.36488392 0 7502.54984910 0 1041
0.03150000 0.03150510 69731.15199669 0 -1828.78643003 0 53250.22230142 0 24590.83438467 0 6330.07129330 0 1036
0.03250000 0.03246190 67518.99193283 0 878.03420616 0 31942.21996274 0 12437.44281432 0 5793.35270220 0 1059
0.03350000 0.03345080 65016.26104757 0 247.65514097 0 21608.46493272 0 16491.60831347 0 1913.25992027 0 1302
0.03450000 0.03451200 62171.58956708 0 2188.67834448 0 15418.91301421 0 9916.44587163 0 2270.92618588 0 1339
0.03550000 0.03553350 58916.97155443 0 1494.89414071 0 1293.59656742 0 6231.06364166 0 -11399.59353233 0 1365
0.03650000 0.03647120 55552.30757112 0 2627.36722056 0 7031.09447614 0 -2204.15672054 0 -4927.49661704 0 1308
0.03750000 0.03744890 53737.61691711 0 2031.23054969 0 7251.75969064 0 -6655.47689131 0 -9183.01589273 0 1579
0.03850000 0.03847530 54117.21369230 0 2788.27713577 0 10849.13886603 0 -9692.09372369 0 -3826.33999013 0 1662
0.03950000 0.03950240 51368.42496254 0 2324.72394028 0 16226.44136272 0 -5251.21611744 0 -4907.49949939 0 1683
0.04050000 0.04050350 50267.74044296 0 2175.16708230 0 21690.85890258 0 -1625.85896238 0 -616.69244886 0 1822
0.04150000 0.04152450 49270.58231662 0 738.85022068 0 21204.36353894 0 2471.79661444 0 106.95254358 0 1887
0.04250000 0.04250150 48923.02139601 0 1328.65615705 0 24435.48859157 0 3494.17876103 0 3274.08681972 0 1920
0.04350000 0.04349210 48801.28514860 0 672.96876674 0 21211.33274239 0 4374.11938155 0 5564.33568420 0 2005
0.04450000 0.04448520 47781.75812730 0 565.21701290 0 24422.22462370 0 2923.27735105 0 3098.24932033 0 2151
0.04550000 0.04548030 47112.48978277 0 1988.35870781 0 21771.22955531 0 490.44532830 0 7621.39724928 0 2274
0.04650000 0.04648670 45108.73138347 0 1818.18649639 0 23303.55506295 0 325.64839607 0 9690.09288786 0 2311
0.04750000 0.04749250 45074.55980525 0 1841.69069707 0 22030.88858719 0 6107.36028037 0 11276.39600032 0 2568
0.04850000 0.04851840 42613.64414071 0 -11.45242459 0 19722.17133355 0 7799.19062189 0 12758.92542523 0 2493
0.04950000 0.04949480 41373.57555207 0 405.96509367 0 14215.37654044 0 9877.27220383 0 11163.34877591 0 2644
0.05050000 0.05050630 41502.50581595 0 -525.36440980 0 10643.50240156 0 8125.22569634 0 10779.93017948 0 2829
0.05150000 0.05149060 38944.69574211 0 1110.50547612 0 8054.44331869 0 3159.48838551 0 8995.71292960 0 2784
0.05250000 0.05249300 40185.77598932 0 956.02970939 0 5241.09953178 0 -617.83787117 0 8559.33962757 0 3055
0.05350000 0.05348950 37604.69776847 0 1281.68147765 0 4986.63368054 0 -4060.32537575 0 5465.69897404 0 3009
0.05450000 0.05448610 37229.48484707 0 1729.77877839 0 8638.51877132 0 -4112.30214473 0 6083.51886017 0 3336
0.05550000 0.05550870 35116.80454218 0 1894.43183030 0 6998.41790446 0 -3080.66894259 0 -1164.35156532 0 3349
0.05650000 0.05647670 34326.81160881 0 1561.96710363 0 6990.76302132 0 -986.54695206 0 -1822.37925911 0 3324
0.05750000 0.05747970 33002.88776571 0 730.89071590 0 7394.99930290 0 277.34619581 0 -2058.62401552 0 3639
0.05850000 0.05849280 32893.29142108 0 -160.94925749 0 4639.62355182 0 2675.06130161 0 -5906.25379814 0 3846
0.05950000 0.05951020 32472.66627073 0 -28.03036110 0 6062.82482217 0 1059.00081447 0 -4026.22124143 0 3787
0.06050000 0.06049470 32733.78658721 0 349.06154747 0 2886.54290446 0 962.56502372 0 -7715.87491867 0 3930
0.06150000 0.06148310 31812.05322727 0 1098.20145983 0 5695.86253841 0 -13.75495949 0 -1425.56180701 0 4083
0.06250000 0.06249100 30930.67380345 0 725.70427965 0 4658.60901090 0 -11.86270834 0 -1820.58075499 0 4303
0.06350000 0.06350600 30979.12100810 0 535.99581726 0 8009.72801008 0 1304.46627668 0 1783.12690676 0 4470
0.06450000 0.06451750 30486.78050609 0 -282.35053352 0 7165.81367515 0 446.18751418 0 2784.44407388 0 4479
0.06550000 0.06550280 31101.86891409 0 155.14233732 0 8185.57675012 0 879.26842961 0 3934.52001277 0 4636
0.06650000 0.06648880 31167.06468833 0 32.82382420 0 9299.83997578 0 1027.13356965 0 5193.36048813 0 4653
0.06750000 0.06749660 30813.88344236 0 82.07361131 0 8525.44906562 0 -1132.93394653 0 1541.43043474 0 5220
0.06850000 0.06852730 31112.09790625 0 392.34704531 0 10961.41048553 0 -1110.22445985 0 3488.49099176 0 5029
0.06950000 0.06949320 30451.48486279 0 908.57393013 0 11119.71256978 0 -2349.59950035 0 -1724.30458148 0 5040
0.07050000 0.07048030 29857.97850420 0 1367.39143947 0 11295.61751307 0 -2165.09545925 0 648.23821107 0 5475
0.07150000 0.07148790 28462.22690293 0 1100.37202949 0 10472.13868116 0 -125.43554557 0 -3219.71579213 0 5509
0.07250000 0.07249820 27471.13872798 0 606.15433880 0 9961.68949082 0 669.74382405 0 -2675.42100244 0 5916
0.07350000 0.07351270 27034.43944708 0 40.84919920 0 9155.80227731 0 1972.94777565 0 -4849.84620179 0 5721
0.07450000 0.07449140 27144.14819821 0 -580.37390635 0 7551.61528954 0 2326.16274357 0 -5918.04524076 0 6028
0.07550000 0.07549160 27412.57493767 0 -621.65969242 0 5509.15532977 0 1701.66591091 0 -6170.10559275 0 6183
0.07650000 0.07648840 27885.69392694 0 -214.37831855 0 5128.62558057 0 22.20860328 0 -6380.73290615 0 6330
0.07750000 0.07749960 27443.37432067 0 275.73541056 0 4972.09951914 0 -1675.08177193 0 -6694.41450544 0 6583
0.07850000 0.07848650 27398.86134378 0 1090.79162287 0 4765.45139610 0 -1723.65262374 0 -6709.73551239 0 6549
0.07950000 0.07947320 26635.95837866 0 974.94884863 0 6537.75355621 0 -1418.48019705 0 -7209.18010567 0 6828
0.08050000 0.08048110 26002.66011648 0 747.61118386 0 6769.67066209 0 -1153.04347068 0 -6940.07892717 0 7147
0.08150000 0.08149960 25456.92652349 0 714.16125541 0 7856.24816500 0 -534.97853837 0 -6821.13036114 0 7386
0.08250000 0.08250610 24990.77673768 0 646.04178792 0 8142.89599929 0 335.48171733 0 -6474.03030721 0 7227
0.08350000 0.08350160 24202.24508890 0 760.33222829 0 7346.92303973 0 1625.64539002 0 -6466.28549886 0 7798
0.08450000 0.08449610 23580.63710347 0 720.28853413 0 7108.98094505 0 862.03089171 0 -4536.16460249 0 7371
0.08550000 0.08548940 23076.04429216 0 766.06046390 0 7572.11823647 0 1613.93263196 0 -4345.17470592 0 8256
0.08650000 0.08650700 22436.90089159 0 543.13925080 0 6505.11070648 0 1655.06217298 0 -1481.40535984 0 8037
0.08750000 0.08749060 22012.56632650 0 450.75571464 0 6966.69678810 0 821.72079413 0 -1623.07128100 0 8155
0.08850000 0.08849210 21781.23373446 0 452.82062218 0 6199.81463263 0 354.98199821 0 -601.27252419 0 8718
0.08950000 0.08949900 21442.44052142 0 507.59406506 0 6642.95480640 0 -344.49896734 0 -272.30588802 0 8571
0.09050000 0.09049190 21131.18690268 0 446.06499109 0 7798.02159421 0 -196.66305299 0 1576.19776745 0 8932
0.09150000 0.09150830 20710.67415884 0 206.00290969 0 6346.47140272 0 658.49193267 0 1063.60498501 0 9285
0.09250000 0.09250820 20808.58022670 0 -43.95926244 0 6701.60852191 0 815.95771250 0 500.04934029 0 9204
0.09350000 0.09350330 20780.02897385 0 143.95114546 0 6388.98354378 0 800.43437384 0 555.58939555 0 9349
0.09450000 0.09448040 20590.28678951 0 304.86443287 0 5901.69009394 0 269.41704079 0 -654.32277531 0 9564
0.09550000 0.09549270 19910.45223330 0 650.26827259 0 5931.29796797 0 -27.16280768 0 -200.76251832 0 10155
0.09650000 0.09649430 19510.39747378 0 514.78021307 0 6280.54498618 0 -704.11773398 0 -848.60843068 0 9913
0.09750000 0.09749140 18676.90322208 0 709.88643594 0 6223.26263006 0 146.88270717 0 23.63706517 0 10476
0.09850000 0.09850240 18478.39333017 0 321.40392635 0 5166.36044507 0 681.62519187 0 -1151.78451780 0 10575
0.09950000 0.09950330 18161.96901209 0 235.15104110 0 5496.01500906 0 904.83304157 0 -910.74787198 0 10882
0.10050000 0.10051200 17907.59308605 0 236.75733009 0 4876.31793426 0 819.96500448 0 -1045.96503182 0 10875
0.10150000 0.10150300 17510.34848922 0 570.86319176 0 4903.99241636 0 -168.81434081 0 -1187.99065381 0 11118
0.10250000 0.10250800 17146.71343807 0 706.13093453 0 5119.03730550 0 -5.04374743 0 54.39733071 0 11575
0.10350000 0.10349800 16285.22996605 0 723.17625730 0 5613.88447263 0 -690.65255847 0 -60.32317696 0 11364
0.10450000 0.10450100 15993.98470561 0 505.66741752 0 6430.06812220 0 269.78348600 0 1477.54981664 0 12093
0.10550000 0.10551000 15854.48823003 0 230.50752828 0 6752.23641280 0 619.28454292 0 863.59671436 0 12067
0.10650000 0.10649700 15552.33953838 0 110.21795261 0 6779.09032740 0 535.47312700 0 1749.37123261 0 12054
0.10750000 0.10749900 15689.92510333 0 -87.86288366 0 5999.04536992 0 492.94300090 0 1383.16207245 0 12807
0.10850000 0.10850100 15742.64375526 0 -293.05163301 0 6456.88831485 0 813.88830870 0 1815.30888980 0 12736
0.10950000 0.10950300 15980.15870521 0 -67.23853770 0 4854.29749948 0 430.62033698 0 1326.04832608 0 12933
0.11050000 0.11050200 15869.66310852 0 -93.97476268 0 5372.44653558 0 377.43182585 0 1213.77670658 0 13428
0.11150000 0.11150900 15980.49592473 0 322.42232931 0 4528.93686407 0 -30.91178951 0 1407.49808128 0 13453
0.11250000 0.11250000 15603.14727969 0 167.80268224 0 4993.14201731 0 498.16877942 0 511.45185639 0 13668
0.11350000 0.11349100 15533.90487119 0 129.78230521 0 4532.57883491 0 112.88985529 0 1351.33979023 0 13791
0.11450000 0.11448600 15429.02959987 0 24.56138388 0 4383.58400947 0 525.46894785 0 732.54983594 0 14205
0.11550000 0.11549300 15402.83888366 0 160.41869878 0 4828.41028085 0 360.23250617 0 1422.12216788 0 14776
0.11650000 0.11649800 15253.67544846 0 261.31815193 0 4214.85060135 0 201.84724111 0 897.57607746 0 14553
0.11750000 0.11747300 15184.32063345 0 432.97750144 0 4498.02507456 0 94.50487177 0 1160.70959448 0 14568
0.11850000 0.11849100 14604.52786875 0 390.34845761 0 4559.46647146 0 -453.08252934 0 1005.20980446 0 16015
0.11950000 0.11950300 14490.09804431 0 182.66057438 0 4905.66727332 0 -48.09818245 0 258.12468306 0 15270
0.12050000 0.12050700 14268.88203792 0 125.03537841 0 4698.86178117 0 2.34070815 0 698.14445219 0 15999
0.12150000 0.12150000 14157.26237616 0 124.11364505 0 4522.72078422 0 365.84721121 0 -404.72749802 0 15670
0.12250000 0.12250700 13990.22630630 0 243.22182832 0 4142.57321715 0 275.76126406 0 378.18944571 0 16887
0.12350000 0.12352200 13773.95618623 0 275.75002341 0 4342.87037252 0 164.49231060 0 248.35992977 0 16407
0.12450000 0.12449800 13513.73512181 0 288.76557289 0 4537.35611147 0 407.98503861 0 895.60896358 0 16306
0.12550000 0.12549900 13491.25382035 0 36.46320969 0 4241.83940375 0 529.06595609 0 1157.87695050 0 17523
0.12650000 0.12650100 13438.53516842 0 72.94271832 0 4213.10830048 0 633.44101845 0 1975.49940337 0 17154
0.12750000 0.12750600 13420.21290773 0 53.85170952 0 4482.72654892 0 305.01393352 0 1758.04901498 0 18007
0.12850000 0.12850300 13251.71555327 0 197.31051448 0 3676.11993376 0 399.28589901 0 2273.21927863 0 17496
0.12950000 0.12949900 13071.19070253 0 223.84744272 0 4010.06842633 0 198.27046605 0 1993.22590957 0 18405
0.13050000 0.13049000 12829.40430531 0 175.52838149 0 3435.63745202 0 -116.26767084 0 1922.49973517 0 18100
0.13150000 0.13148800 12715.87373293 0 269.54406014 0 3898.15650765 0 200.84682320 0 1560.57326294 0 19059
0.13250000 0.13249300 12291.53916783 0 290.55396042 0 3194.14331172 0 -56.25911969 0 800.56139319 0 18957
0.13350000 0.13349100 12204.98615720 0 297.52316387 0 3419.33850846 0 -355.18995025 0 713.80380272 0 19468
0.13450000 0.13450700 11914.41533581 0 266.78110819 0 3478.31820285 0 -50.45444765 0 80.72158584 0 19953
0.13550000 0.13551000 11799.76069835 0 154.38471746 0 3878.86755100 0 -306.05706591 0 442.31286187 0 19956
0.13650000 0.13649900 11688.81547564 0 152.32205806 0 3603.43788614 0 308.44233199 0 -6.07333483 0 19723
0.13750000 0.13749600 11682.52071123 0 50.89721688 0 4087.62891637 0 -103.47086442 0 377.88707221 0 20946
0.13850000 0.13851100 11590.12256222 0 122.07459100 0 3671.02791898 0 188.55854382 0 358.89149654 0 20955
0.13950000 0.13949800 11665.88454814 0 48.87378735 0 4217.66076403 0 350.65771988 0 1080.69189819 0 20506
0.14050000 0.14048300 11556.06339050 0 -117.05451639 0 3396.38509967 0 429.61654687 0 394.20624894 0 21447
0.14150000 0.14148400 11699.94371986 0 -160.97735912 0 3415.03333923 0 466.67809640 0 389.38288571 0 21771
0.14250000 0.14249400 11756.48419304 0 -1.97847818 0 2870.86219670 0 321.36908033 0 20.72135278 0 22470
0.14350000 0.14350900 11566.40478918 0 127.68817198 0 2163.44308359 0 129.76319610 0 -524.10770505 0 22519
0.14450000 0.14449900 11400.83000391 0 300.58174494 0 2407.28651990 0 -156.10341296 0 -594.08075585 0 22218
0.14550000 0.14550500 11134.11184336 0 364.60961557 0 1862.21612530 0 -284.59304334 0 -1277.90461900 0 23559
0.14650000 0.14650700 10872.77795452 0 214.10854293 0 2461.78119464 0 -15.24153555 0 -1092.28662942 0 23044
0.14750000 0.14750500 10651.86544570 0 246.20959329 0 2407.14039144 0 -167.89260745 0 -588.62566805 0 23649
0.14850000 0.14849900 10654.95662465 0 167.13948385 0 2757.07308935 0 389.36377661 0 -113.67782491 0 23640
0.14950000 0.14949500 10471.18322585 0 130.60849304 0 2556.34878924 0 469.67148169 0 326.74211138 0 24457
0.15050000 0.15050000 10513.39186935 0 207.36977282 0 2722.53056965 0 531.85700966 0 822.82350196 0 24591
0.15150000 0.15149900 10216.05417621 0 180.59004651 0 2322.94791746 0 615.71563631 0 1181.41487313 0 25020
0.15250000 0.15250500 10130.53530545 0 163.95500750 0 2159.94724121 0 454.09643604 0 1372.42725100 0 25297
0.15350000 0.15350100 9930.92382977 0 138.95804840 0 1758.58856621 0 483.21421769 0 1344.42679003 0 25452
0.15450000 0.15450400 9770.99185117 0 33.12091460 0 1587.35973363 0 246.15339003 0 1201.67052575 0 26061
0.15550000 0.15549900 9653.74062339 0 156.61486257 0 1155.59509840 0 181.94454493 0 1081.92612164 0 26128
0.15650000 0.15649500 9489.93062029 0 203.00727627 0 952.91717320 0 136.59526362 0 912.72285432 0 26331
0.15750000 0.15749700 9263.33034220 0 273.77728920 0 1146.00682333 0 -292.77848520 0 721.28220765 0 27345
0.15850000 0.15849900 9097.41833741 0 174.01089364 0 1326.80144968 0 -202.32384470 0 1035.86530714 0 26980
0.15950000 0.15949700 9074.45368797 0 51.89808442 0 1419.16587674 0 -286.74562795 0 741.19951668 0 27777
0.16050000 0.16050000 9151.82308695 0 -52.82105426 0 1811.47582790 0 -332.92896555 0 1076.02590407 0 28224
0.16150000 0.16150500 9324.29963177 0 -79.65664659 0 2052.37421372 0 -234.54067376 0 663.90655412 0 28075
0.16250000 0.16249700 9405.43464875 0 -78.44726498 0 2126.78732156 0 -256.21152431 0 564.81572167 0 28590
0.16350000 0.16349900 9482.39938430 0 53.21413981 0 2228.98731800 0 -164.90821468 0 568.90057415 0 29163
0.16450000 0.16449100 9504.35237518 0 179.05569769 0 2351.71274268 0 -200.23533180 0 365.12893363 0 28996
0.16550000 0.16550500 9329.70638477 0 157.76478114 0 2241.94778830 0 23.28512040 0 237.29013693 0 30777
0.16650000 0.16650700 9192.70533366 0 128.14229427 0 2204.80867828 0 183.18888496 0 -141.95817808 0 29211
0.16750000 0.16749900 9161.80478480 0 35.07791189 0 1718.18966749 0 375.84014971 0 9.42799463 0 30922
0.16850000 0.16850800 9035.33622343 0 82.33900308 0 1799.38088772 0 239.78106513 0 -276.51213953 0 30867
0.16950000 0.16949900 8963.29489289 0 180.72605839 0 1572.03872668 0 96.52077007 0 -242.86549969 0 30852
0.17050000 0.17049200 8724.13880794 0 221.54086119 0 1506.12355079 0 226.20235905 0 -171.95273049 0 31257
0.17150000 0.17149500 8511.43197416 0 303.98428991 0 1552.99706434 0 42.46785290 0 -30.38314171 0 32608
0.17250000 0.17250900 8367.64157001 0 164.05504929 0 1429.34990630 0 416.00973916 0 176.30173826 0 32361
0.17350000 0.17350400 8122.55042147 0 15.65035801 0 1502.03195393 0 236.77419106 0 -76.93652152 0 32508
0.17450000 0.17449800 8336.81970570 0 -9.58710605 0 1369.08877773 0 216.01495729 0 291.76345444 0 32791
0.17550000 0.17549800 8194.61423330 0 -28.02957426 0 1436.02685284 0 243.23981336 0 224.87146600 0 33633
0.17650000 0.17650100 8342.74352864 0 -8.93876779 0 1353.31814476 0 36.83752336 0 601.63896940 0 33984
0.17750000 0.17750300 8275.91786004 0 7.42132491 0 1236.22428609 0 49.96637860 0 303.26264014 0 34069
