### header ###
fiducial parameters:
Omega_m = 0.31
Omega_nu = 0
Omega_de = 0.69
Omega_k = 0
H_0 = 100
w_de = -1
zeff = 0
beta = 0
fgrowth = 0
b_1 = 2
gamma = 0.55
Lx = 3500 Ly = 3500 Lz = 3500
nx = 700 ny = 700 nz = 700
xoffset = 857.220397 yoffset = 15.9954215 zoffset = 262.898189
bins = 400 dk = 0.001
kx_ny = 0.628318531 ky_ny = 0.628318531 kz_ny = 0.628318531
############################
A(data) = 3.11172022 (not used)
A(ran) = 3.10958905 (used)
Ngal = 189487
weighted Ngal = 0
Nran = 9360983
weighted Nran = 0
SN(data) = 3450.90741
SN(ran) = 69.8296837
SN(data+ran) = 3520.73709
############################
13 columns: k_central k_mean P_0(k) sigma^{lin}_{P_0(k)} P^img_1(k) sigma^{lin}_{P_1(k)} P_2(k) sigma^{lin}_{P_2(k)} P^img_3(k) sigma^{lin}_{P_3(k)} P_4(k) sigma^{lin}_{P_4(k)} N_modes
### header ###
0.00050000 0 0 0 0 0 0 0 0 0 0 0 0
0.00150000 0.00179520 2141.90599679 0 -4238.07378576 0 12560.19072030 0 -43404.42391963 0 -18033.82559376 0 3
0.00250000 0.00253879 6779.61863799 0 -6105.49433235 0 -20285.88996771 0 27691.11826278 0 4990.59038959 0 6
0.00350000 0.00331552 15756.80697518 0 -13684.48060642 0 -9197.98843950 0 12469.25385589 0 16923.58652106 0 7
0.00450000 0.00420575 26334.37171955 0 -20609.05867623 0 -29346.64130244 0 23905.71672261 0 -1042.01169496 0 24
0.00550000 0.00557378 55484.18922769 0 -19055.82555822 0 -13445.16715235 0 25306.07699068 0 12650.56555218 0 45
0.00650000 0.00659388 57482.43970814 0 -6011.02790360 0 -50885.41420063 0 10152.43209307 0 -6868.55466657 0 40
0.00750000 0.00754703 67473.57970388 0 6925.67965358 0 19330.43465558 0 -2450.52930326 0 72662.71370733 0 57
0.00850000 0.00846663 55506.22090313 0 11786.04710446 0 12059.53213674 0 9681.53875265 0 34924.25219516 0 75
0.00950000 0.00948925 65506.80304548 0 -3934.67738188 0 51032.55431870 0 28225.61120504 0 74690.75191222 0 112
0.01050000 0.01054430 61543.79922376 0 -5167.25969713 0 67786.29460721 0 3754.77076693 0 29954.08606795 0 105
0.01150000 0.01145670 78396.45723870 0 -5408.23676750 0 75382.61396471 0 5803.51425046 0 18610.35856975 0 144
0.01250000 0.01249090 84970.66422523 0 -3866.67144495 0 80837.70176446 0 -4776.47847447 0 2990.01309444 0 169
0.01350000 0.01339930 88166.94326059 0 5117.38492984 0 64064.73996320 0 -6893.23913557 0 2290.66476856 0 180
0.01450000 0.01448870 89733.55275297 0 3845.88748175 0 79531.20093000 0 -5648.65180534 0 -33680.13697225 0 267
0.01550000 0.01550050 93574.03348172 0 5376.08850641 0 69702.15111780 0 14156.13831109 0 -53247.29973223 0 238
0.01650000 0.01653350 81645.34251948 0 6097.05260365 0 59811.50253960 0 16491.83312648 0 -44903.92672715 0 315
0.01750000 0.01747870 83429.23379049 0 8984.16878130 0 49436.49432141 0 18957.02023829 0 -42830.02666728 0 297
0.01850000 0.01844180 76696.42122215 0 1367.33523622 0 39464.01380589 0 34592.42818558 0 -19087.29938027 0 388
0.01950000 0.01947590 76148.21468600 0 2723.91316969 0 32244.48106089 0 26409.00964041 0 -12233.76222307 0 399
0.02050000 0.02045430 72454.42444929 0 -2419.19036902 0 27240.70538799 0 30749.58692018 0 11342.49102661 0 462
0.02150000 0.02154770 77885.12003695 0 -3305.48195721 0 22811.10215443 0 23516.34058129 0 26923.38181786 0 571
0.02250000 0.02255340 79175.32192785 0 -7346.78815192 0 7198.16426795 0 22254.80234975 0 29690.71762132 0 510
0.02350000 0.02348930 86835.93780753 0 -3991.63375913 0 12314.35768882 0 3266.63426828 0 33458.69615285 0 555
0.02450000 0.02439640 89230.98325878 0 -817.79668296 0 16446.53330404 0 -884.11539820 0 16407.30343298 0 592
0.02550000 0.02547300 85867.66815356 0 7007.56779416 0 20532.17262523 0 -16369.98447256 0 27744.28654074 0 837
0.02650000 0.02652900 82141.50484275 0 8636.30436313 0 16644.36875690 0 -15694.42136362 0 12198.80379930 0 723
0.02750000 0.02749970 74019.34784405 0 8978.55969659 0 36301.34431621 0 -11411.17140258 0 19628.87393249 0 826
0.02850000 0.02848090 71029.89678215 0 5966.60485191 0 32308.66517657 0 -1711.27666729 0 -1442.71504002 0 831
0.02950000 0.02946900 64143.76173784 0 1354.23987812 0 37406.07547006 0 7173.33367049 0 -1381.38604963 0 996
0.03050000 0.03053250 63814.07345190 0 730.43884174 0 29069.10963589 0 8040.16769226 0 -10378.63894838 0 1041
0.03150000 0.03150510 62963.71822410 0 -521.40545261 0 29750.18066368 0 9638.81303922 0 -10375.37915967 0 1036
0.03250000 0.03246190 60522.58610485 0 1179.98731049 0 22790.41935708 0 6979.07274456 0 -8284.88789932 0 1059
0.03350000 0.03345080 61551.10564673 0 532.58540383 0 19353.36558307 0 6596.62084409 0 -6333.66830153 0 1302
0.03450000 0.03451200 58191.61236276 0 1999.37454552 0 18163.54270319 0 1748.05607648 0 -2951.30029333 0 1339
0.03550000 0.03553350 55306.13732012 0 3971.18701545 0 16283.43146193 0 4489.78567758 0 600.38676091 0 1365
0.03650000 0.03647120 53239.65608973 0 1740.96322587 0 17338.36653303 0 3086.52532162 0 3540.16426317 0 1308
0.03750000 0.03744890 52092.32286962 0 1427.33782982 0 18973.31918185 0 3198.50468420 0 2718.20291912 0 1579
0.03850000 0.03847530 50490.08051442 0 2682.97471973 0 15531.99396056 0 -661.31333600 0 1575.16362758 0 1662
0.03950000 0.03950240 47188.36417521 0 2931.79776431 0 15542.56017225 0 -3547.17842923 0 660.17128589 0 1683
0.04050000 0.04050350 46262.47177450 0 2247.35454130 0 17902.30998021 0 -5731.84386140 0 -2232.12345956 0 1822
0.04150000 0.04152450 43802.00573599 0 -22.43274185 0 13681.22081770 0 1490.53276823 0 -416.96631854 0 1887
0.04250000 0.04250150 45423.46960394 0 -847.61700528 0 14507.07142691 0 767.23061564 0 -10459.71776211 0 1920
0.04350000 0.04349210 45040.38822702 0 -588.92242123 0 9106.77055882 0 2214.50935986 0 -11741.98375359 0 2005
0.04450000 0.04448520 45716.96299452 0 -174.64261821 0 12069.53631589 0 2729.57845766 0 -11809.65247099 0 2151
0.04550000 0.04548030 45691.22190435 0 550.21524044 0 6253.51122117 0 663.77166632 0 -12922.36448685 0 2274
0.04650000 0.04648670 43891.93094184 0 1913.59713979 0 5711.64441203 0 908.75715274 0 -10057.75209197 0 2311
0.04750000 0.04749250 42767.97827525 0 2452.42897323 0 8290.62063120 0 -877.00793475 0 -9970.50216099 0 2568
0.04850000 0.04851840 40658.44535256 0 2088.79392209 0 7540.39712011 0 -792.33436092 0 -7405.67792110 0 2493
0.04950000 0.04949480 39665.44626698 0 1298.04786511 0 10057.74085132 0 -702.67555850 0 -7349.31729833 0 2644
0.05050000 0.05050630 38372.32180689 0 1111.56097323 0 11201.53326645 0 -786.38468449 0 -3017.47400418 0 2829
0.05150000 0.05149060 37397.08294947 0 1254.29925247 0 12434.52024513 0 2560.47410806 0 -5072.14131065 0 2784
0.05250000 0.05249300 36708.14346617 0 1169.84824353 0 12819.06290664 0 2072.74227284 0 -1077.01170914 0 3055
0.05350000 0.05348950 34844.66838798 0 1479.30335815 0 12598.07171327 0 1522.24264394 0 839.92502799 0 3009
0.05450000 0.05448610 34770.81731268 0 1762.73636633 0 15350.79467078 0 2623.33182695 0 4236.06170928 0 3336
0.05550000 0.05550870 32815.28130501 0 1530.65065069 0 15490.06633334 0 714.11516874 0 7075.92219125 0 3349
0.05650000 0.05647670 31753.37703045 0 1007.19265525 0 14808.99530554 0 2218.25249656 0 6369.51473672 0 3324
0.05750000 0.05747970 32190.30112437 0 151.84657853 0 15540.42444861 0 879.33474945 0 9274.03144170 0 3639
0.05850000 0.05849280 31749.55520921 0 -535.52370993 0 16699.78516500 0 -852.26389029 0 5831.43602687 0 3846
0.05950000 0.05951020 32671.51338216 0 496.33992555 0 14811.80546823 0 348.26795753 0 3885.63442274 0 3787
0.06050000 0.06049470 32088.12360922 0 237.59925483 0 17125.24379517 0 -2576.76181097 0 1804.67523421 0 3930
0.06150000 0.06148310 32065.86712078 0 965.94396333 0 13912.55340975 0 -975.29506067 0 -275.88153902 0 4083
0.06250000 0.06249100 31877.47381453 0 121.45972741 0 17454.25764207 0 -32.24481828 0 -613.42703982 0 4303
0.06350000 0.06350600 31850.94587880 0 -553.14342995 0 13182.81036429 0 3106.26390430 0 -472.24896290 0 4470
0.06450000 0.06451750 32136.79562689 0 -1329.25191154 0 12900.67003094 0 3538.93903224 0 -2977.04138350 0 4479
0.06550000 0.06550280 33429.92008698 0 -977.10930170 0 9530.61053529 0 3181.92472437 0 -3771.04722919 0 4636
0.06650000 0.06648880 34288.93061584 0 90.84390423 0 9551.88908712 0 1067.32451634 0 -5833.17832774 0 4653
0.06750000 0.06749660 33155.31098962 0 1558.33637344 0 9583.96990431 0 -1961.86449403 0 -5944.47201063 0 5220
0.06850000 0.06852730 31511.92785275 0 2130.81147452 0 10967.51415888 0 -3296.79293419 0 -5663.63559276 0 5029
0.06950000 0.06949320 29703.41955664 0 1605.32229350 0 11041.55632524 0 -2134.70073967 0 -5674.86500284 0 5040
0.07050000 0.07048030 29567.29527629 0 758.03126709 0 12653.48812137 0 358.97018109 0 -6755.94582755 0 5475
0.07150000 0.07148790 28868.68883336 0 -706.66036918 0 10728.84142191 0 1388.26532788 0 -7086.13994277 0 5509
0.07250000 0.07249820 29948.35333607 0 -673.93771084 0 12666.19005670 0 2355.88302411 0 -6430.66387669 0 5916
0.07350000 0.07351270 29648.11555505 0 -195.27932889 0 9996.20952921 0 592.75773126 0 -6479.84172364 0 5721
0.07450000 0.07449140 29491.98291639 0 771.69202992 0 11730.40588334 0 196.09764826 0 -4136.17728688 0 6028
0.07550000 0.07549160 28756.61954557 0 1316.04414693 0 10802.18666793 0 260.69092362 0 -3814.82956378 0 6183
0.07650000 0.07648840 27537.45856729 0 1001.39023135 0 10987.14033506 0 1587.71943445 0 -1301.61115140 0 6330
0.07750000 0.07749960 26791.86620430 0 882.26293896 0 10075.51232012 0 2550.40248501 0 -716.73311630 0 6583
0.07850000 0.07848650 26198.13503269 0 389.09512505 0 9571.75131696 0 3009.61678932 0 380.24536073 0 6549
0.07950000 0.07947320 25550.33633106 0 743.81746424 0 8345.67733848 0 1989.88743630 0 1516.80216899 0 6828
0.08050000 0.08048110 24850.94304258 0 974.67008049 0 8674.76986993 0 1011.18308626 0 2767.26835956 0 7147
0.08150000 0.08149960 24189.76796659 0 504.62765733 0 6648.83366673 0 269.78910632 0 3681.74025913 0 7386
0.08250000 0.08250610 23726.54074996 0 172.97000938 0 7204.71756733 0 219.70863512 0 3701.47884181 0 7227
0.08350000 0.08350160 23984.06405821 0 -195.06238433 0 6767.43377259 0 80.74485399 0 3045.31709604 0 7798
0.08450000 0.08449610 24068.59375171 0 56.54317093 0 7998.62224716 0 -468.64970654 0 3152.27188775 0 7371
0.08550000 0.08548940 24034.08495396 0 599.75503634 0 6813.31810888 0 -554.17532169 0 1525.87337413 0 8256
0.08650000 0.08650700 23020.74029056 0 730.19267149 0 8147.85312626 0 -290.21561683 0 2432.75783445 0 8037
0.08750000 0.08749060 22913.84170211 0 638.86013617 0 7559.32637594 0 51.75038227 0 1971.80122928 0 8155
0.08850000 0.08849210 22359.90243409 0 120.42221535 0 8437.54717690 0 728.26602395 0 2083.53329754 0 8718
0.08950000 0.08949900 22811.55178046 0 -108.47700063 0 8651.00713428 0 1020.33185189 0 2022.40663887 0 8571
0.09050000 0.09049190 22647.88790582 0 -70.56363459 0 8516.64763610 0 -432.25697573 0 2179.87691496 0 8932
0.09150000 0.09150830 22891.02318113 0 181.40611776 0 9307.68594999 0 433.57325593 0 2301.54571847 0 9285
0.09250000 0.09250820 22843.13800901 0 404.76459217 0 8670.12748118 0 13.72371048 0 1915.69914148 0 9204
0.09350000 0.09350330 22131.15519171 0 749.04661496 0 8236.46317598 0 282.64503857 0 2345.44045958 0 9349
0.09450000 0.09448040 21835.30126447 0 855.73050698 0 8849.69687660 0 464.05565258 0 2033.04029446 0 9564
0.09550000 0.09549270 20341.19396931 0 927.98203768 0 8236.44069467 0 567.02675767 0 2204.41525551 0 10155
0.09650000 0.09649430 19888.08333834 0 708.24417687 0 8991.62133273 0 571.65453358 0 2104.85681198 0 9913
0.09750000 0.09749140 19075.49669700 0 415.04079507 0 8386.00879330 0 268.72461670 0 2599.36675959 0 10476
0.09850000 0.09850240 19118.09876327 0 96.84371397 0 9203.62000552 0 239.72935814 0 2636.95549563 0 10575
0.09950000 0.09950330 18966.57479142 0 223.86317963 0 8894.09744699 0 146.51288976 0 3514.44565430 0 10882
0.10050000 0.10051200 18881.25825237 0 244.98885862 0 9527.98022301 0 666.04564996 0 2984.42649103 0 10875
0.10150000 0.10150300 18477.60648462 0 318.28239764 0 8781.74714294 0 246.94922810 0 3618.24182315 0 11118
0.10250000 0.10250800 18398.13508395 0 366.59021822 0 8583.46206404 0 1428.37196969 0 3406.98503331 0 11575
0.10350000 0.10349800 17682.33044540 0 266.86878526 0 7475.92074752 0 978.82912126 0 2554.08941845 0 11364
0.10450000 0.10450100 17383.10432294 0 299.96800541 0 6654.40902949 0 973.12336695 0 1211.91075856 0 12093
0.10550000 0.10551000 17054.87732160 0 360.78329806 0 6101.56010459 0 81.50798177 0 387.13475557 0 12067
0.10650000 0.10649700 16622.89911400 0 468.95208004 0 5812.93391577 0 -865.21311994 0 -275.23182941 0 12054
0.10750000 0.10749900 16464.85556473 0 491.26589581 0 5452.65981919 0 -1081.18086650 0 -1469.56895462 0 12807
0.10850000 0.10850100 16129.09732739 0 344.96095809 0 6185.62893141 0 -941.07514765 0 -1802.20229105 0 12736
0.10950000 0.10950300 16145.39627095 0 196.86538471 0 6389.03974704 0 -520.11390184 0 -1871.56834671 0 12933
0.11050000 0.11050200 15960.93719246 0 212.00092092 0 7236.67473736 0 292.16924193 0 -2226.64926265 0 13428
0.11150000 0.11150900 16143.48536033 0 119.48137288 0 6896.37527713 0 581.91949582 0 -623.91793915 0 13453
0.11250000 0.11250000 15707.12329895 0 344.82269808 0 7638.17954082 0 891.70620964 0 -998.85883680 0 13668
0.11350000 0.11349100 15631.69853255 0 308.28271475 0 7058.48794197 0 790.97649031 0 1169.74707767 0 13791
0.11450000 0.11448600 15130.70272947 0 265.90096524 0 6927.68048941 0 1050.13081698 0 488.90198696 0 14205
0.11550000 0.11549300 15119.91170476 0 398.60246744 0 6969.37206298 0 441.95540918 0 2525.25714932 0 14776
0.11650000 0.11649800 14558.32879424 0 294.09364134 0 6579.06294764 0 507.90430702 0 1180.43693652 0 14553
0.11750000 0.11747300 14401.63412305 0 192.56358767 0 6697.32583398 0 291.49143069 0 2322.63317924 0 14568
0.11850000 0.11849100 14274.95198931 0 77.15852437 0 6015.67029236 0 680.08409866 0 1833.86720416 0 16015
0.11950000 0.11950300 14338.57407245 0 -33.84211475 0 6157.57226718 0 867.93223335 0 1673.48559953 0 15270
0.12050000 0.12050700 14329.35673885 0 -50.30550903 0 5571.05759334 0 355.97229954 0 1538.76640052 0 15999
0.12150000 0.12150000 14236.62137032 0 3.50009134 0 5246.60745064 0 181.98501127 0 1068.20690742 0 15670
0.12250000 0.12250700 14263.48652557 0 199.73624690 0 5322.34695527 0 -136.72677923 0 1582.15531234 0 16887
0.12350000 0.12352200 14036.65019382 0 192.37474474 0 5232.71400634 0 -165.53431892 0 789.75350751 0 16407
0.12450000 0.12449800 14060.14315385 0 86.63911401 0 5362.54352228 0 -299.22275026 0 477.49722273 0 16306
0.12550000 0.12549900 14033.50281161 0 16.04737780 0 5284.60085011 0 -102.64602547 0 -111.27311250 0 17523
0.12650000 0.12650100 13888.38601068 0 118.71588457 0 5418.92662635 0 -432.25472760 0 -376.78324031 0 17154
0.12750000 0.12750600 14014.50611188 0 172.38437148 0 5751.49251888 0 -181.66128053 0 -468.28663352 0 18007
0.12850000 0.12850300 13813.07365078 0 322.25371955 0 6022.77438362 0 -109.23776787 0 -412.34865922 0 17496
0.12950000 0.12949900 13661.43727242 0 373.46500021 0 6085.62086185 0 131.78538917 0 -356.53433208 0 18405
0.13050000 0.13049000 13523.06486192 0 251.40164986 0 6356.94768920 0 386.48617002 0 278.31064364 0 18100
0.13150000 0.13148800 13166.17420121 0 188.22244836 0 6368.51431880 0 437.49849117 0 1008.77758701 0 19059
0.13250000 0.13249300 13418.52681012 0 -28.90825592 0 6379.99102320 0 570.84183453 0 1417.15380026 0 18957
0.13350000 0.13349100 13333.21027107 0 -64.93622761 0 6250.97083411 0 471.76111866 0 1765.76010138 0 19468
0.13450000 0.13450700 13433.92650162 0 30.94438740 0 6171.43198953 0 275.87704276 0 1859.76566344 0 19953
0.13550000 0.13551000 13290.60820480 0 137.73394154 0 6304.34144378 0 114.17241354 0 2235.87783690 0 19956
0.13650000 0.13649900 13309.15527851 0 190.89997136 0 6264.17859872 0 657.87706907 0 2633.30228415 0 19723
0.13750000 0.13749600 13031.06157942 0 248.30597465 0 5823.66873722 0 585.03315608 0 2587.87881454 0 20946
0.13850000 0.13851100 12799.72898738 0 424.29971908 0 5975.55240990 0 694.06522004 0 2954.82985766 0 20955
0.13950000 0.13949800 12424.74087899 0 428.42728603 0 5932.57940215 0 620.73009060 0 2898.24442188 0 20506
0.14050000 0.14048300 12078.75364949 0 323.70938382 0 5754.33640351 0 132.50591488 0 3667.73440832 0 21447
0.14150000 0.14148400 11795.48925107 0 81.11590787 0 5076.35655467 0 493.47355961 0 2991.58678555 0 21771
0.14250000 0.14249400 11855.62673248 0 -123.95627594 0 5200.98164933 0 380.97375490 0 3155.55415776 0 22470
0.14350000 0.14350900 11849.55678109 0 -81.24360166 0 4499.17162094 0 279.09299293 0 2288.70889534 0 22519
0.14450000 0.14449900 11904.86078269 0 127.88151117 0 4488.34687428 0 148.73291828 0 1853.86432181 0 22218
0.14550000 0.14550500 11670.83043447 0 246.03311507 0 4142.88795537 0 1.96216799 0 1631.06338367 0 23559
0.14650000 0.14650700 11513.34891772 0 348.97274633 0 4093.86747753 0 -16.52746599 0 1338.46924514 0 23044
0.14750000 0.14750500 11187.26888067 0 203.84582881 0 3866.23305958 0 527.75079995 0 1655.99514699 0 23649
0.14850000 0.14849900 10941.45833048 0 73.74664966 0 3693.38557328 0 473.78668392 0 1014.05507253 0 23640
0.14950000 0.14949500 10897.04651945 0 31.96930993 0 3031.38992978 0 659.81046100 0 967.48730468 0 24457
0.15050000 0.15050000 10909.62480761 0 61.97341689 0 3011.92112272 0 315.27327544 0 661.28635844 0 24591
0.15150000 0.15149900 10601.67594019 0 151.52397185 0 2579.51577040 0 27.88142248 0 615.19631825 0 25020
0.15250000 0.15250500 10555.25205267 0 181.48030605 0 2634.76356874 0 -70.62545817 0 377.49702163 0 25297
0.15350000 0.15350100 10323.79581347 0 198.67288134 0 2478.68713334 0 -112.89322749 0 208.77373009 0 25452
0.15450000 0.15450400 10091.27171245 0 169.89793954 0 2500.14553559 0 -25.81718938 0 234.10903277 0 26061
0.15550000 0.15549900 10048.87197789 0 244.15030607 0 2577.20019635 0 29.27402670 0 -191.41142097 0 26128
0.15650000 0.15649500 9808.52438396 0 140.46541966 0 2359.92965837 0 160.74580171 0 60.68816089 0 26331
0.15750000 0.15749700 9750.53386684 0 207.50578469 0 2434.23035970 0 88.53136516 0 65.27041216 0 27345
0.15850000 0.15849900 9640.84759700 0 76.21104992 0 2371.67613838 0 106.68198111 0 519.62605760 0 26980
0.15950000 0.15949700 9643.99497921 0 47.15306853 0 2447.47184626 0 12.58907919 0 379.64286185 0 27777
0.16050000 0.16050000 9638.50954165 0 33.97857625 0 2307.67187312 0 -39.88104195 0 436.02821405 0 28224
0.16150000 0.16150500 9593.87291760 0 77.66727623 0 2440.52512411 0 27.27409012 0 201.49428468 0 28075
0.16250000 0.16249700 9410.54914483 0 180.24046228 0 2435.44434998 0 -154.10707339 0 5.96173765 0 28590
0.16350000 0.16349900 9349.06278533 0 233.18280315 0 2595.69106680 0 -115.06829340 0 154.45778169 0 29163
0.16450000 0.16449100 9088.24596642 0 196.02908029 0 2591.39713822 0 43.38655128 0 -173.85577266 0 28996
0.16550000 0.16550500 9001.73791839 0 213.63868373 0 2641.64284699 0 173.13974321 0 -135.91632831 0 30777
0.16650000 0.16650700 8868.05285925 0 165.08694103 0 2619.91466913 0 61.68475698 0 -268.03444075 0 29211
0.16750000 0.16749900 8700.16249993 0 165.02961371 0 2377.51003611 0 358.17659115 0 183.40245733 0 30922
0.16850000 0.16850800 8611.36135916 0 86.74724907 0 2558.87793566 0 227.08587420 0 484.36526032 0 30867
0.16950000 0.16949900 8536.29629357 0 74.51202557 0 2272.38747048 0 431.05647423 0 666.18390996 0 30852
0.17050000 0.17049200 8570.61400026 0 75.09496571 0 2334.34593730 0 514.84878104 0 842.01129276 0 31257
0.17150000 0.17149500 8344.65443926 0 103.09463984 0 1968.72129098 0 304.48787107 0 985.68367008 0 32608
0.17250000 0.17250900 8406.92764431 0 108.87143506 0 1809.38506687 0 325.23811232 0 1427.88862171 0 32361
0.17350000 0.17350400 8179.59672393 0 82.51446963 0 1833.01291470 0 343.31645089 0 1096.87169085 0 32508
0.17450000 0.17449800 8175.31403600 0 72.43666422 0 1454.70881435 0 89.69690823 0 1403.77742589 0 32791
0.17550000 0.17549800 8045.92290543 0 14.11792010 0 1527.33465872 0 -68.11193626 0 918.09026504 0 33633
0.17650000 0.17650100 8048.30592339 0 103.44658461 0 1577.05205691 0 -281.10844161 0 1124.34608937 0 33984
0.17750000 0.17750300 7909.58505272 0 143.09011161 0 1731.13889713 0 -381.07154856 0 632.55413111 0 34069
