### header ###
fiducial parameters:
Omega_m = 0.31
Omega_nu = 0
Omega_de = 0.69
Omega_k = 0
H_0 = 100
w_de = -1
zeff = 0
beta = 0
fgrowth = 0
b_1 = 2
gamma = 0.55
Lx = 3500 Ly = 3500 Lz = 3500
nx = 700 ny = 700 nz = 700
xoffset = 857.220397 yoffset = 15.9954215 zoffset = 262.898189
bins = 400 dk = 0.001
kx_ny = 0.628318531 ky_ny = 0.628318531 kz_ny = 0.628318531
############################
A(data) = 3.08117249 (not used)
A(ran) = 3.07739585 (used)
Ngal = 188304
weighted Ngal = 0
Nran = 9360983
weighted Nran = 0
SN(data) = 3454.66295
SN(ran) = 69.1067455
SN(data+ran) = 3523.76969
############################
13 columns: k_central k_mean P_0(k) sigma^{lin}_{P_0(k)} P^img_1(k) sigma^{lin}_{P_1(k)} P_2(k) sigma^{lin}_{P_2(k)} P^img_3(k) sigma^{lin}_{P_3(k)} P_4(k) sigma^{lin}_{P_4(k)} N_modes
### header ###
0.00050000 0 0 0 0 0 0 0 0 0 0 0 0
0.00150000 0.00179520 18194.45449270 0 -18395.99936031 0 7233.31378279 0 51530.29033307 0 38602.64274037 0 3
0.00250000 0.00253879 33415.86927357 0 -18656.44523775 0 21559.90532156 0 -13085.12910944 0 -33325.04481566 0 6
0.00350000 0.00331552 52231.48212567 0 -17434.81131630 0 30223.52446597 0 21193.79732725 0 22482.76274658 0 7
0.00450000 0.00420575 70926.93242145 0 -13035.89505924 0 44385.50791544 0 10705.08992691 0 -1259.00908512 0 24
0.00550000 0.00557378 87102.67844938 0 4056.21129758 0 58103.37325452 0 16898.74468294 0 18666.33701039 0 45
0.00650000 0.00659388 92803.48687411 0 9514.98603077 0 52967.85715505 0 25683.08841620 0 -66931.89274515 0 40
0.00750000 0.00754703 78842.03663368 0 18698.37286497 0 56452.57128817 0 21128.37674000 0 -11067.58967234 0 57
0.00850000 0.00846663 78793.81424204 0 10586.93944708 0 44101.23185845 0 20041.06859479 0 -15960.59997293 0 75
0.00950000 0.00948925 66324.22316663 0 3711.19076404 0 39462.77733431 0 16910.54736621 0 2738.34616523 0 112
0.01050000 0.01054430 72058.30391753 0 -970.56049859 0 17554.52424659 0 26743.19418664 0 -52960.66313859 0 105
0.01150000 0.01145670 68130.59573910 0 -1101.89963392 0 10422.80346511 0 12206.78466132 0 -18849.10999128 0 144
0.01250000 0.01249090 68598.43162253 0 -522.82402273 0 -1817.02870936 0 13206.64054384 0 -27929.42005828 0 169
0.01350000 0.01339930 63996.05958723 0 -2546.15351903 0 1087.94886230 0 -316.32090409 0 2926.41349261 0 180
0.01450000 0.01448870 66960.33159150 0 -4580.56517288 0 -20239.46608019 0 11991.30138681 0 -4055.40197073 0 267
0.01550000 0.01550050 69768.80817664 0 -5487.84305598 0 -16471.93717469 0 1163.20501894 0 -22947.22643478 0 238
0.01650000 0.01653350 75004.14125460 0 -7598.89346651 0 -34232.27773616 0 4003.82986517 0 5615.37947917 0 315
0.01750000 0.01747870 83554.22982662 0 -5442.84673110 0 -27716.07250740 0 8333.57115764 0 -2446.25785598 0 297
0.01850000 0.01844180 84267.78633502 0 850.49461187 0 -37858.39925547 0 -9768.06928198 0 10450.61283501 0 388
0.01950000 0.01947590 75359.79544373 0 1629.12999174 0 -28160.52783731 0 -4371.27549692 0 -7898.34440199 0 399
0.02050000 0.02045430 76074.13879768 0 6343.61627743 0 -22714.43255814 0 -15698.58040439 0 -914.56744510 0 462
0.02150000 0.02154770 70831.94892277 0 4446.86887308 0 -16701.35885611 0 -12754.42916493 0 -6351.32736383 0 571
0.02250000 0.02255340 66849.61118180 0 4018.13921355 0 19.08257831 0 -15705.32479483 0 -1483.97946885 0 510
0.02350000 0.02348930 67255.28626668 0 837.56898759 0 -966.31378074 0 -8368.46213751 0 -2712.15544902 0 555
0.02450000 0.02439640 68875.96328908 0 -528.41287428 0 6899.92732276 0 -133.81545069 0 -7146.28866483 0 592
0.02550000 0.02547300 66906.15165498 0 285.88347004 0 -762.22178168 0 -509.48249438 0 -5503.19778488 0 837
0.02650000 0.02652900 67192.22621608 0 3884.46539506 0 5824.96141205 0 -1970.93569917 0 -11816.50926794 0 723
0.02750000 0.02749970 60162.77287495 0 8002.69136272 0 5131.49194651 0 -12053.79940487 0 -14759.53644233 0 826
0.02850000 0.02848090 55916.72946782 0 7955.32326054 0 13714.15592435 0 -13285.21269245 0 -13045.44961236 0 831
0.02950000 0.02946900 51250.62294288 0 4312.88031637 0 19389.78529144 0 -11394.87245902 0 -10744.64577684 0 996
0.03050000 0.03053250 48717.87952017 0 2313.05614482 0 25435.79410012 0 -9277.43735887 0 -12968.56356136 0 1041
0.03150000 0.03150510 51156.76350928 0 -227.66251958 0 28978.95961703 0 -4114.82005049 0 -16863.56144615 0 1036
0.03250000 0.03246190 51880.77382286 0 746.75015001 0 38210.00681034 0 -1260.21183475 0 -11754.23606289 0 1059
0.03350000 0.03345080 51845.36577306 0 725.97742746 0 32216.71665359 0 3911.24062510 0 -16069.85909804 0 1302
0.03450000 0.03451200 49686.93601969 0 1478.50527195 0 34597.03685238 0 9175.64202585 0 -10742.51005320 0 1339
0.03550000 0.03553350 49251.47321037 0 2038.79550763 0 30170.24378150 0 8234.50730275 0 -15085.51531353 0 1365
0.03650000 0.03647120 45918.28304911 0 2731.26455527 0 28999.86722739 0 7114.35397610 0 -6831.28066875 0 1308
0.03750000 0.03744890 42574.07705014 0 2734.26580901 0 24753.26178773 0 4978.77646567 0 -3765.71916074 0 1579
0.03850000 0.03847530 41524.53749138 0 1247.70099049 0 24741.34669796 0 6563.86558785 0 1840.13948727 0 1662
0.03950000 0.03950240 40637.42533569 0 300.31983778 0 22568.30409864 0 4493.57377687 0 524.97211109 0 1683
0.04050000 0.04050350 40589.98978961 0 -1216.35081560 0 21125.67898382 0 6571.82396857 0 3855.08233405 0 1822
0.04150000 0.04152450 42924.89775945 0 -1062.73158645 0 18045.06624449 0 3877.48495096 0 7150.00932022 0 1887
0.04250000 0.04250150 42307.33640829 0 -879.31564034 0 20525.87786082 0 1554.85177171 0 6612.99847220 0 1920
0.04350000 0.04349210 43780.08646706 0 9.17730564 0 18339.34648063 0 2423.33816914 0 6793.57952619 0 2005
0.04450000 0.04448520 42929.05680022 0 -150.37517735 0 19366.06751840 0 3205.94599499 0 6686.17510846 0 2151
0.04550000 0.04548030 43096.31768310 0 1284.55908424 0 13953.91900444 0 904.09453081 0 6234.42459623 0 2274
0.04650000 0.04648670 40362.59142532 0 1713.81705435 0 17126.36786025 0 1494.55692119 0 3048.80169777 0 2311
0.04750000 0.04749250 40366.63805958 0 2756.52229746 0 13293.98040002 0 -851.01955026 0 4242.28902978 0 2568
0.04850000 0.04851840 35938.60851712 0 2689.80903537 0 18484.91290759 0 -412.14745157 0 3893.51411890 0 2493
0.04950000 0.04949480 36189.61224795 0 2035.72680999 0 16279.49723417 0 -3503.82323936 0 4283.57593992 0 2644
0.05050000 0.05050630 34358.39783736 0 207.55299542 0 19976.65966610 0 -231.87776360 0 2270.53276311 0 2829
0.05150000 0.05149060 36077.31814715 0 -495.53846715 0 18921.61218849 0 -691.35397508 0 4299.88612413 0 2784
0.05250000 0.05249300 35988.74181939 0 -1428.43941359 0 20413.13413399 0 1137.09298730 0 -12.78702705 0 3055
0.05350000 0.05348950 37886.95050833 0 -392.46169995 0 17998.30513745 0 830.91452236 0 -2775.06937117 0 3009
0.05450000 0.05448610 37089.76355849 0 746.37808447 0 18208.84252564 0 -670.58350066 0 -3908.08200225 0 3336
0.05550000 0.05550870 36924.30117973 0 1364.40142638 0 16955.17274961 0 -1150.58176817 0 -6086.44142936 0 3349
0.05650000 0.05647670 35403.55354233 0 1451.62887605 0 18778.74351770 0 -2761.34453662 0 -4823.08221240 0 3324
0.05750000 0.05747970 35041.04255626 0 455.52849494 0 20834.32131688 0 439.62859448 0 -2724.68877459 0 3639
0.05850000 0.05849280 36464.55856483 0 -580.75721254 0 22781.42683650 0 2533.84500648 0 1210.35954876 0 3846
0.05950000 0.05951020 37406.63750259 0 -1214.54107083 0 23363.13051183 0 4239.38894189 0 6008.18401897 0 3787
0.06050000 0.06049470 39556.52436140 0 -319.50425638 0 25613.62119468 0 4393.89168619 0 8131.54294205 0 3930
0.06150000 0.06148310 38786.31497331 0 648.74291629 0 23477.33552326 0 2490.00646863 0 9598.90872913 0 4083
0.06250000 0.06249100 38236.64715257 0 1088.63229386 0 24324.99299488 0 2436.55717440 0 11334.17294507 0 4303
0.06350000 0.06350600 37012.54028796 0 2163.82526572 0 23693.83045633 0 635.90384502 0 11809.54006449 0 4470
0.06450000 0.06451750 34471.70359673 0 1155.76370816 0 20020.04857792 0 3735.80778914 0 6851.45763681 0 4479
0.06550000 0.06550280 33558.28831833 0 812.86878168 0 18350.81194437 0 1610.26817982 0 5973.92251554 0 4636
0.06650000 0.06648880 32712.99138336 0 -70.93165349 0 15922.26935394 0 3388.86510433 0 2809.99407299 0 4653
0.06750000 0.06749660 31778.21886857 0 -38.33680135 0 11742.65819264 0 2043.73015331 0 -1174.60303879 0 5220
0.06850000 0.06852730 32132.97380564 0 720.66284780 0 12765.55740916 0 1.65707425 0 921.55800579 0 5029
0.06950000 0.06949320 31031.27762750 0 740.17998966 0 11017.89475546 0 -590.89740356 0 -2022.27175106 0 5040
0.07050000 0.07048030 30782.40962031 0 1659.58091457 0 14957.93392773 0 -1130.59589117 0 4211.77066305 0 5475
0.07150000 0.07148790 29342.70707469 0 1440.42194727 0 14473.34947472 0 478.97536830 0 1777.61898790 0 5509
0.07250000 0.07249820 28271.58546653 0 922.47187069 0 14724.46561205 0 1249.13979378 0 4056.04268782 0 5916
0.07350000 0.07351270 27290.50147073 0 1225.66931506 0 15934.40925673 0 1949.82575710 0 5222.46253287 0 5721
0.07450000 0.07449140 26127.65615261 0 1241.52987324 0 13715.61720894 0 2377.04916943 0 2779.79044447 0 6028
0.07550000 0.07549160 24889.94810062 0 673.37792643 0 13711.45816817 0 3117.36966723 0 4249.48304625 0 6183
0.07650000 0.07648840 24474.49364960 0 398.58335834 0 12087.07173103 0 478.36724909 0 3101.92501312 0 6330
0.07750000 0.07749960 24215.62146327 0 -20.50867967 0 11793.24112093 0 18.04101961 0 3144.84181761 0 6583
0.07850000 0.07848650 24638.60715027 0 -211.16349244 0 12630.21997436 0 -1294.65318859 0 1928.97434999 0 6549
0.07950000 0.07947320 24939.85658986 0 -164.13148571 0 11739.62321694 0 -1727.93531167 0 2725.46437949 0 6828
0.08050000 0.08048110 25882.27274715 0 9.62140127 0 14402.42096860 0 -1474.33499053 0 1811.09364578 0 7147
0.08150000 0.08149960 25250.32336305 0 371.57657089 0 13528.23556126 0 285.45632531 0 1750.09063426 0 7386
0.08250000 0.08250610 25021.80093369 0 525.67015550 0 13610.40471810 0 1818.81597283 0 1194.04936455 0 7227
0.08350000 0.08350160 24374.56426460 0 544.72193442 0 11917.78753103 0 2247.01732178 0 -54.59100712 0 7798
0.08450000 0.08449610 24119.62630602 0 635.41600078 0 11380.03480006 0 1809.50871402 0 1541.66648841 0 7371
0.08550000 0.08548940 23312.65999005 0 603.34979644 0 10836.88655673 0 1453.28125171 0 1070.98447222 0 8256
0.08650000 0.08650700 22475.11910408 0 656.57540172 0 8942.61209555 0 1065.02130700 0 1392.22203694 0 8037
0.08750000 0.08749060 21841.59602888 0 835.96719486 0 9363.42833696 0 151.28679412 0 2055.21809835 0 8155
0.08850000 0.08849210 21190.98716457 0 680.61465737 0 9257.81118270 0 316.83684996 0 2106.19444942 0 8718
0.08950000 0.08949900 20654.35849867 0 537.56838430 0 9022.47691899 0 448.85267247 0 2159.49761518 0 8571
0.09050000 0.09049190 20364.68692934 0 255.68096559 0 8605.86468095 0 164.55188605 0 1826.11115515 0 8932
0.09150000 0.09150830 20186.74742827 0 34.95156698 0 8139.64745123 0 -31.08231018 0 849.42225379 0 9285
0.09250000 0.09250820 20360.19066904 0 82.41588913 0 8084.24228378 0 82.27987725 0 1321.79936011 0 9204
0.09350000 0.09350330 20163.36687474 0 -47.55211163 0 8406.14079876 0 -215.97898721 0 1563.91173620 0 9349
0.09450000 0.09448040 20308.70848870 0 144.54015555 0 7356.15161398 0 817.29872213 0 -42.20414723 0 9564
0.09550000 0.09549270 20024.43243171 0 191.25405186 0 7438.73667490 0 657.23747605 0 -206.83921410 0 10155
0.09650000 0.09649430 19588.63240287 0 206.36598271 0 6567.46259609 0 1237.35959182 0 -1608.66076676 0 9913
0.09750000 0.09749140 19380.23073832 0 386.26697733 0 6622.60922858 0 416.60099739 0 -787.51099769 0 10476
0.09850000 0.09850240 18981.30004387 0 568.44532779 0 5870.35115971 0 561.60426776 0 -1373.12417135 0 10575
0.09950000 0.09950330 18641.04554625 0 96.59878019 0 4806.92939730 0 111.85425414 0 -558.67270605 0 10882
0.10050000 0.10051200 18205.13311090 0 208.18471999 0 5548.01425934 0 628.37935342 0 -361.35432311 0 10875
0.10150000 0.10150300 18332.93930971 0 232.02501613 0 4788.53969270 0 669.23012631 0 -922.72141314 0 11118
0.10250000 0.10250800 17996.28182032 0 222.44460951 0 5593.40400699 0 511.04831703 0 -543.26064983 0 11575
0.10350000 0.10349800 17860.94438552 0 661.92707553 0 5073.23165377 0 270.64564391 0 2.87131182 0 11364
0.10450000 0.10450100 17192.80010607 0 333.97884232 0 4689.89174189 0 347.21133636 0 -201.73933086 0 12093
0.10550000 0.10551000 17060.61005347 0 178.37451425 0 5126.11891546 0 132.19117666 0 172.06176480 0 12067
0.10650000 0.10649700 16885.70552809 0 -89.92958970 0 4324.06476385 0 539.52200940 0 -37.47385659 0 12054
0.10750000 0.10749900 16876.03856847 0 1.31549336 0 4987.37556348 0 427.09639298 0 -355.24840164 0 12807
0.10850000 0.10850100 16965.85136781 0 67.41524073 0 4647.66061709 0 106.58666039 0 472.06236810 0 12736
0.10950000 0.10950300 16904.02778879 0 239.58772594 0 5398.90702740 0 -225.73812017 0 507.98299157 0 12933
0.11050000 0.11050200 16709.11490511 0 395.27186263 0 5898.31789872 0 -200.92213556 0 1732.71258823 0 13428
0.11150000 0.11150900 16369.53484653 0 459.66055815 0 6578.19741754 0 -238.18826492 0 2311.06654964 0 13453
0.11250000 0.11250000 16186.64945913 0 428.14514569 0 6742.54697187 0 114.01729256 0 2055.47663332 0 13668
0.11350000 0.11349100 15770.07094304 0 490.89607840 0 6705.39662121 0 240.73202419 0 2788.59187400 0 13791
0.11450000 0.11448600 15581.90244981 0 195.89306842 0 6718.10979719 0 398.31695491 0 2342.42796518 0 14205
0.11550000 0.11549300 15162.28895802 0 52.39773135 0 5881.33327547 0 489.15152941 0 2070.73019636 0 14776
0.11650000 0.11649800 15330.89871898 0 -68.40216986 0 5746.02956262 0 353.40156272 0 1028.54876758 0 14553
0.11750000 0.11747300 15313.02608432 0 64.40263392 0 4868.75297632 0 124.47671806 0 1439.39904806 0 14568
0.11850000 0.11849100 15106.98495642 0 370.24680191 0 4987.36432283 0 139.32449362 0 1358.19658717 0 16015
0.11950000 0.11950300 14810.68140315 0 516.03129750 0 5276.31649052 0 146.46905122 0 937.42980462 0 15270
0.12050000 0.12050700 14269.10685093 0 488.20956287 0 5393.43283049 0 103.02236245 0 1473.61558888 0 15999
0.12150000 0.12150000 13958.75248425 0 247.60230991 0 4932.59987247 0 301.39219585 0 598.59275305 0 15670
0.12250000 0.12250700 13817.45750456 0 101.60547843 0 4956.98084391 0 136.31424735 0 903.95514675 0 16887
0.12350000 0.12352200 13839.03955397 0 -78.77020888 0 4688.18316298 0 -82.06697933 0 -64.84326743 0 16407
0.12450000 0.12449800 13818.13194361 0 -48.65886610 0 4368.97116352 0 -45.52160048 0 -188.71029260 0 16306
0.12550000 0.12549900 14039.57276301 0 -29.40048402 0 4296.76122322 0 -214.18947561 0 -815.22594613 0 17523
0.12650000 0.12650100 13781.59982873 0 187.72785973 0 3952.81979216 0 -11.58978534 0 -881.41989016 0 17154
0.12750000 0.12750600 13908.61918199 0 207.48892371 0 4562.91735123 0 265.93693532 0 -520.97605975 0 18007
0.12850000 0.12850300 13476.52856789 0 259.76919026 0 4005.47100018 0 827.73903853 0 -385.50486121 0 17496
0.12950000 0.12949900 13311.74062818 0 205.79383358 0 4118.02363595 0 1035.37184257 0 431.54544254 0 18405
0.13050000 0.13049000 13088.50130466 0 135.77806831 0 3410.27854397 0 896.16762392 0 522.74646224 0 18100
0.13150000 0.13148800 13003.74679815 0 126.35840300 0 3592.47825167 0 788.89921806 0 1469.65887982 0 19059
0.13250000 0.13249300 12658.20919468 0 288.31819499 0 3284.76543791 0 289.71540788 0 1426.79827859 0 18957
0.13350000 0.13349100 12578.51298099 0 362.11868736 0 3704.18783864 0 15.18151047 0 1976.35369282 0 19468
0.13450000 0.13450700 12049.64036410 0 378.06017823 0 3382.59282122 0 -244.73257178 0 2317.12526039 0 19953
0.13550000 0.13551000 11901.26377445 0 378.68403435 0 3735.48181027 0 78.82427641 0 1908.16790549 0 19956
0.13650000 0.13649900 11645.98859635 0 201.78766566 0 3822.38328107 0 -33.11664315 0 1990.62931925 0 19723
0.13750000 0.13749600 11495.25147005 0 132.44971163 0 3691.10372119 0 -162.02948403 0 799.36651202 0 20946
0.13850000 0.13851100 11543.02423565 0 -18.54044172 0 3571.96406409 0 -489.38870714 0 1084.56430237 0 20955
0.13950000 0.13949800 11450.51368014 0 -25.54584007 0 3572.05398929 0 -303.25477168 0 -106.76741006 0 20506
0.14050000 0.14048300 11615.07680684 0 -52.09940448 0 3466.26822527 0 -232.77589160 0 -220.08182473 0 21447
0.14150000 0.14148400 11629.80205930 0 -112.64705724 0 3301.72757986 0 79.43835315 0 -1140.11672234 0 21771
0.14250000 0.14249400 11573.71121215 0 132.84088627 0 3285.26002654 0 259.15657480 0 -1160.33865301 0 22470
0.14350000 0.14350900 11541.78776407 0 144.04444286 0 3066.01113404 0 168.82445739 0 -1395.80780452 0 22519
0.14450000 0.14449900 11396.33374362 0 243.62761581 0 3214.79238711 0 412.25086556 0 -1118.84716303 0 22218
0.14550000 0.14550500 11084.48437039 0 354.76505366 0 3021.44195389 0 367.38942849 0 -711.85692201 0 23559
0.14650000 0.14650700 10967.15445806 0 256.68812790 0 2949.73784287 0 265.68289661 0 -160.76041456 0 23044
0.14750000 0.14750500 10599.23671898 0 153.25165987 0 2707.14211880 0 121.41364074 0 191.54630878 0 23649
0.14850000 0.14849900 10666.26471929 0 149.82550953 0 2847.13318300 0 117.97175349 0 233.35141292 0 23640
0.14950000 0.14949500 10596.57268476 0 54.41509094 0 2854.73186290 0 -82.24064738 0 155.90670157 0 24457
0.15050000 0.15050000 10434.48250122 0 251.32071717 0 2865.29807458 0 -168.72778780 0 -10.14803700 0 24591
0.15150000 0.15149900 10269.40230458 0 249.94598559 0 3207.58712999 0 -72.79254322 0 605.60354691 0 25020
0.15250000 0.15250500 9894.87506287 0 304.80822961 0 3111.40088169 0 186.59142994 0 -26.37360159 0 25297
0.15350000 0.15350100 9825.03689988 0 260.02435303 0 3033.61557863 0 381.79207427 0 102.60117527 0 25452
0.15450000 0.15450400 9598.71763806 0 36.09372950 0 2695.42936074 0 295.27952999 0 -115.12674479 0 26061
0.15550000 0.15549900 9594.72720706 0 -34.29331447 0 2653.05210748 0 442.54329521 0 -14.18345309 0 26128
0.15650000 0.15649500 9594.73844771 0 -69.13382382 0 2390.81896658 0 123.12896404 0 19.07673317 0 26331
0.15750000 0.15749700 9657.37135358 0 30.31625983 0 2274.06232743 0 8.55710274 0 -263.92036258 0 27345
0.15850000 0.15849900 9614.64564015 0 220.49772880 0 2518.89494101 0 -496.45795238 0 -233.53013926 0 26980
0.15950000 0.15949700 9467.42683753 0 305.15106946 0 2883.78894504 0 -401.43511143 0 332.89636766 0 27777
0.16050000 0.16050000 9275.16674742 0 190.32445005 0 3017.67633589 0 -282.23025855 0 121.17421488 0 28224
0.16150000 0.16150500 9247.69459704 0 136.50646248 0 3271.71504241 0 17.23259201 0 455.57008535 0 28075
0.16250000 0.16249700 9183.22946509 0 21.90611736 0 3361.71893282 0 290.88780775 0 241.79314161 0 28590
0.16350000 0.16349900 9038.48360563 0 81.83238695 0 3138.78310687 0 557.50367837 0 965.44825063 0 29163
0.16450000 0.16449100 9021.09431895 0 65.72790665 0 2778.75630461 0 529.42453284 0 720.20085705 0 28996
0.16550000 0.16550500 8962.47432539 0 87.33693361 0 2679.68120906 0 409.25972840 0 1084.63624253 0 30777
0.16650000 0.16650700 8898.13284060 0 5.20439881 0 2562.16020567 0 340.68164235 0 1178.60471045 0 29211
0.16750000 0.16749900 8911.73402799 0 -13.92851513 0 2210.86738902 0 424.60883697 0 1423.61717443 0 30922
0.16850000 0.16850800 8862.38757128 0 54.09484480 0 2360.08702748 0 -19.85593508 0 1853.52710229 0 30867
0.16950000 0.16949900 8802.90204761 0 120.76280706 0 2526.33625179 0 27.37278303 0 1622.79026473 0 30852
0.17050000 0.17049200 8693.94642008 0 135.63418798 0 2525.50444364 0 65.92158306 0 1861.57540821 0 31257
0.17150000 0.17149500 8723.18335263 0 150.69103963 0 2603.89674183 0 -79.08966817 0 1591.55249635 0 32608
0.17250000 0.17250900 8661.07875734 0 49.80698617 0 2779.65555666 0 -117.29057005 0 1794.55864855 0 32361
0.17350000 0.17350400 8503.75460971 0 40.83143897 0 2708.65960665 0 16.78083026 0 1270.33966106 0 32508
0.17450000 0.17449800 8601.06492309 0 55.12156584 0 2607.29141835 0 -129.58334569 0 1182.30288454 0 32791
0.17550000 0.17549800 8588.76765119 0 7.79644790 0 2653.40056765 0 219.70638699 0 1118.25028448 0 33633
0.17650000 0.17650100 8483.20670017 0 120.30756071 0 2374.19404415 0 84.21192030 0 761.73506150 0 33984
0.17750000 0.17750300 8428.12751159 0 61.81155152 0 2374.92468644 0 225.86176733 0 628.68734725 0 34069
