### header ###
fiducial parameters:
Omega_m = 0.31
Omega_nu = 0
Omega_de = 0.69
Omega_k = 0
H_0 = 100
w_de = -1
zeff = 0
beta = 0
fgrowth = 0
b_1 = 2
gamma = 0.55
Lx = 3500 Ly = 3500 Lz = 3500
nx = 700 ny = 700 nz = 700
xoffset = 857.220397 yoffset = 15.9954215 zoffset = 262.898189
bins = 400 dk = 0.001
kx_ny = 0.628318531 ky_ny = 0.628318531 kz_ny = 0.628318531
############################
A(data) = 3.07355795 (not used)
A(ran) = 3.07281999 (used)
Ngal = 187507
weighted Ngal = 0
Nran = 9360983
weighted Nran = 0
SN(data) = 3446.23784
SN(ran) = 69.0039887
SN(data+ran) = 3515.24183
############################
13 columns: k_central k_mean P_0(k) sigma^{lin}_{P_0(k)} P^img_1(k) sigma^{lin}_{P_1(k)} P_2(k) sigma^{lin}_{P_2(k)} P^img_3(k) sigma^{lin}_{P_3(k)} P_4(k) sigma^{lin}_{P_4(k)} N_modes
### header ###
0.00050000 0 0 0 0 0 0 0 0 0 0 0 0
0.00150000 0.00179520 1518.80300482 0 -6694.41450544 0 -11668.35749131 0 30133.82407313 0 33732.74321768 0 3
0.00250000 0.00253879 10706.21399199 0 -14932.41765057 0 -1728.76711982 0 -13672.11589061 0 -8613.03621611 0 6
0.00350000 0.00331552 23185.52823028 0 -22783.33774712 0 -21968.95260166 0 15948.79728967 0 2357.36679000 0 7
0.00450000 0.00420575 42135.91648464 0 -24653.21999622 0 -15504.67917929 0 -10622.07772126 0 -12665.74043067 0 24
0.00550000 0.00557378 67680.29527082 0 -20942.45637691 0 -32644.87303993 0 -11310.67998505 0 7782.38584905 0 45
0.00650000 0.00659388 78898.01507432 0 -6665.89697454 0 1116.66647679 0 -36216.36499669 0 -53348.80280833 0 40
0.00750000 0.00754703 84803.06612283 0 -3850.72096157 0 -40964.19105244 0 -10983.22858860 0 -3836.34416928 0 57
0.00850000 0.00846663 77357.37148513 0 2030.79216431 0 -17658.94989188 0 -15186.00673106 0 -25177.37153981 0 75
0.00950000 0.00948925 72309.30764835 0 6161.28168192 0 -33427.78436334 0 -20294.09564275 0 -7551.67149279 0 112
0.01050000 0.01054430 60688.16089011 0 2226.45817159 0 -24152.22419314 0 -3977.43681726 0 -28208.63782244 0 105
0.01150000 0.01145670 57220.98217214 0 3528.73252138 0 -28140.06985298 0 -13272.17353760 0 -13240.81212206 0 144
0.01250000 0.01249090 53422.76629014 0 1601.45550964 0 -19702.83741430 0 -18365.98682286 0 -4424.63486594 0 169
0.01350000 0.01339930 53047.55336874 0 1111.56884168 0 -11715.56822438 0 -15637.43126442 0 16983.27437644 0 180
0.01450000 0.01448870 57413.42211265 0 -4324.80664680 0 -3767.29285184 0 -4648.43622199 0 23217.90130438 0 267
0.01550000 0.01550050 62500.37860096 0 4598.58393600 0 17105.23543687 0 -1228.94034442 0 39768.74784720 0 238
0.01650000 0.01653350 68237.49432755 0 -4548.40567114 0 15896.75307678 0 14988.84571724 0 38098.04992906 0 315
0.01750000 0.01747870 68255.36696222 0 159.46099533 0 32125.89219568 0 17351.74290740 0 45707.63325441 0 297
0.01850000 0.01844180 73994.73081895 0 7807.64359124 0 23488.35136097 0 5356.73210585 0 42143.89734666 0 388
0.01950000 0.01947590 66828.36635192 0 3827.31792674 0 36738.60562965 0 3049.92576284 0 46612.84285778 0 399
0.02050000 0.02045430 66912.10919986 0 5144.73343307 0 35975.59025803 0 4138.17812271 0 47623.15254548 0 462
0.02150000 0.02154770 62229.81613787 0 -1294.68691054 0 37739.58557724 0 2668.31691117 0 40762.87099785 0 571
0.02250000 0.02255340 70377.48941372 0 -5325.58426268 0 40844.25330914 0 12859.86646879 0 39326.99027347 0 510
0.02350000 0.02348930 70795.07958838 0 -7368.26903547 0 40281.88355307 0 18271.34054370 0 29211.52868066 0 555
0.02450000 0.02439640 76191.37878480 0 -4867.70759580 0 29739.61445200 0 15071.01487408 0 21714.57667562 0 592
0.02550000 0.02547300 78050.69482222 0 -1554.26725788 0 27702.69613303 0 13423.13547692 0 19543.33258042 0 837
0.02650000 0.02652900 77378.16668898 0 3989.37438833 0 23274.44177756 0 4866.68469659 0 13396.04550866 0 723
0.02750000 0.02749970 71635.43063703 0 4019.65670140 0 13243.73469125 0 7346.21487873 0 21679.95547137 0 826
0.02850000 0.02848090 65517.48166367 0 5168.93455409 0 16169.11404399 0 2216.00436641 0 7388.68205719 0 831
0.02950000 0.02946900 63425.70896914 0 3895.29014171 0 10053.16590647 0 -2683.36814250 0 3029.43405656 0 996
0.03050000 0.03053250 58966.43041765 0 2855.51870845 0 12369.21206438 0 -7884.02381296 0 -4915.32299230 0 1041
0.03150000 0.03150510 55440.68790937 0 2573.58070681 0 12002.99166357 0 -11070.64712934 0 -12136.75540727 0 1036
0.03250000 0.03246190 60628.02340870 0 1188.91238717 0 18466.81545992 0 -14778.08351603 0 -6525.75978188 0 1059
0.03350000 0.03345080 55555.34254682 0 -748.77459121 0 22252.55421961 0 -5167.64187926 0 -15805.92861888 0 1302
0.03450000 0.03451200 61341.46751060 0 1027.34826608 0 24900.06468628 0 -2419.20160967 0 -7538.76722575 0 1339
0.03550000 0.03553350 60384.32610086 0 128.54583363 0 26302.22345846 0 1011.24378578 0 -13931.77492250 0 1365
0.03650000 0.03647120 58000.97092636 0 3403.02832425 0 25445.91068577 0 3075.38583675 0 -8602.06534100 0 1308
0.03750000 0.03744890 56063.75717938 0 4226.75445047 0 24295.09286393 0 6203.14186525 0 -9256.02391923 0 1579
0.03850000 0.03847530 49475.72419246 0 4918.61650296 0 18567.08206444 0 5479.80599071 0 -6203.20930915 0 1662
0.03950000 0.03950240 46573.05095419 0 3534.71254757 0 22419.92750899 0 5085.78746063 0 -2566.87003833 0 1683
0.04050000 0.04050350 41818.14328848 0 2665.68659890 0 14009.56022556 0 4446.23939664 0 -10354.15681109 0 1822
0.04150000 0.04152450 41532.63075991 0 745.86663486 0 16764.30650020 0 76.70698743 0 -6010.35346456 0 1887
0.04250000 0.04250150 39512.57341704 0 354.82125691 0 12330.99385190 0 -988.90748871 0 -11589.67293619 0 1920
0.04350000 0.04349210 40844.14090264 0 -736.20866776 0 14016.97905504 0 -2454.64338143 0 -9831.55647731 0 2005
0.04450000 0.04448520 41214.85756374 0 -2151.12333039 0 14217.62467059 0 -1043.72139793 0 -11676.00113380 0 2151
0.04550000 0.04548030 44384.27144386 0 -2166.65790970 0 13165.61216867 0 748.79482438 0 -13013.52616428 0 2274
0.04650000 0.04648670 44552.99361133 0 -1756.50904583 0 13610.62953111 0 -1429.69836647 0 -15556.38617265 0 2311
0.04750000 0.04749250 46592.04765393 0 278.96147732 0 12593.80026599 0 -715.16279739 0 -16408.20268504 0 2568
0.04850000 0.04851840 45946.60948896 0 2151.91017594 0 16124.82588011 0 -853.50598220 0 -13359.28858077 0 2493
0.04950000 0.04949480 43702.75079004 0 3136.08535069 0 13299.26350586 0 -683.26295468 0 -11192.81052148 0 2644
0.05050000 0.05050630 40940.36087289 0 1426.68587208 0 13175.84116084 0 3177.42846408 0 -9373.11777789 0 2829
0.05150000 0.05149060 39614.18889965 0 832.32409996 0 12473.97492920 0 983.31076871 0 -9113.62735577 0 2784
0.05250000 0.05249300 39221.55296962 0 -33.05167219 0 10680.10196034 0 3481.13960618 0 -8143.58167899 0 3055
0.05350000 0.05348950 39070.47862379 0 728.81569177 0 10578.48647773 0 -16.07469258 0 -9484.75992095 0 3009
0.05450000 0.05448610 38293.63725177 0 1008.46397285 0 9669.88219784 0 -357.26834657 0 -4113.98824234 0 3336
0.05550000 0.05550870 37501.95822079 0 881.60198870 0 9339.64312002 0 -777.83729367 0 -5483.40299894 0 3349
0.05650000 0.05647670 36912.04887043 0 886.15894851 0 11057.67541839 0 2289.74303520 0 -3206.96889420 0 3324
0.05750000 0.05747970 35671.86787528 0 1170.69129233 0 9485.87274538 0 2612.96794697 0 -4519.00012883 0 3639
0.05850000 0.05849280 34807.12461454 0 1336.25483695 0 7573.10741374 0 2081.35261130 0 -3608.41749441 0 3846
0.05950000 0.05951020 33329.99070198 0 1432.36240070 0 10291.08551984 0 833.53359398 0 -2095.17861170 0 3787
0.06050000 0.06049470 32567.31254989 0 1647.57589959 0 7973.27457976 0 1418.60384420 0 -268.55600694 0 3930
0.06150000 0.06148310 30300.52292347 0 928.76326291 0 9099.22808218 0 -269.43390176 0 -2176.04385306 0 4083
0.06250000 0.06249100 29967.01281629 0 996.86699349 0 10056.94276511 0 -2231.53894572 0 -1020.33297596 0 4303
0.06350000 0.06350600 29964.98949915 0 236.32793723 0 10676.35882364 0 -586.21117627 0 -232.66910542 0 4470
0.06450000 0.06451750 29651.82496979 0 -98.48923283 0 12017.26729000 0 -1964.21379003 0 -1655.96142504 0 4479
0.06550000 0.06550280 31254.17973149 0 -762.82540462 0 12526.24395509 0 -460.10793605 0 -902.28366198 0 4636
0.06650000 0.06648880 31459.65882685 0 -1093.52872132 0 14371.17195957 0 -24.97571427 0 -898.35393049 0 4653
0.06750000 0.06749660 32952.75446345 0 -578.81145590 0 14835.86046079 0 428.79710344 0 544.06885262 0 5220
0.06850000 0.06852730 33374.61608539 0 393.85104438 0 13665.82112620 0 2112.57913903 0 90.43924081 0 5029
0.06950000 0.06949320 32115.77561002 0 1443.42320102 0 14216.95023154 0 -93.34315052 0 1053.30180455 0 5040
0.07050000 0.07048030 31521.48240587 0 1849.51418998 0 13962.79911852 0 919.16711938 0 1106.21379567 0 5475
0.07150000 0.07148790 29091.14131133 0 1598.22944288 0 13202.81872259 0 533.71621329 0 2030.35377894 0 5509
0.07250000 0.07249820 28490.10371674 0 676.49158668 0 11528.86101573 0 126.80353277 0 953.39939712 0 5916
0.07350000 0.07351270 27666.27642467 0 -3.56564682 0 12890.66585179 0 1007.42646079 0 -1385.29779609 0 5721
0.07450000 0.07449140 28648.14726602 0 -139.12665816 0 11768.84890884 0 -1156.86529193 0 -3660.46170729 0 6028
0.07550000 0.07549160 28348.24670452 0 55.00848489 0 11752.99959131 0 -1251.91623451 0 -3555.03564409 0 6183
0.07650000 0.07648840 28459.97877278 0 291.71062338 0 11997.70855772 0 -776.61768307 0 -4616.26547960 0 6330
0.07750000 0.07749960 28191.43962682 0 135.91970051 0 11104.13302786 0 1135.10339212 0 -3421.77772967 0 6583
0.07850000 0.07848650 28009.90311751 0 -51.38393706 0 10475.53335768 0 3170.61662974 0 -4128.47744113 0 6549
0.07950000 0.07947320 28256.07336852 0 39.87789457 0 10939.95208329 0 2253.82915612 0 -2333.96375518 0 6828
0.08050000 0.08048110 27866.69722720 0 701.97863815 0 9148.14739416 0 1978.62430427 0 -3036.54938847 0 7147
0.08150000 0.08149960 26743.86862568 0 1009.55881223 0 9011.51728453 0 193.68428055 0 -1303.74687503 0 7386
0.08250000 0.08250610 26237.92693628 0 1314.42549323 0 9943.55832119 0 -922.76300355 0 25.33642675 0 7227
0.08350000 0.08350160 25194.68214194 0 946.07161690 0 9105.06197991 0 52.71550455 0 -861.35420454 0 7798
0.08450000 0.08449610 24934.34867101 0 446.27406719 0 10008.67541087 0 837.47681426 0 829.33296280 0 7371
0.08550000 0.08548940 24264.74310696 0 227.23312672 0 9709.03338434 0 1269.76638787 0 -628.96836352 0 8256
0.08650000 0.08650700 24291.72066872 0 230.73009316 0 10666.66938271 0 676.09816391 0 838.81107950 0 8037
0.08750000 0.08749060 23733.73476643 0 245.17994968 0 9284.69881924 0 357.58645699 0 -55.45237819 0 8155
0.08850000 0.08849210 23737.21936816 0 420.64875572 0 9302.82998887 0 180.77214506 0 841.31324835 0 8718
0.08950000 0.08949900 23385.72421980 0 452.43506786 0 9660.54121708 0 -1066.91760478 0 665.27678945 0 8571
0.09050000 0.09049190 23075.36985312 0 801.08633158 0 10081.67219672 0 341.98668190 0 1056.90555718 0 8932
0.09150000 0.09150830 22183.19940460 0 1067.80449213 0 10888.95325092 0 -445.82668929 0 320.03256696 0 9285
0.09250000 0.09250820 21336.77840455 0 1209.15679913 0 9228.82154446 0 909.73621342 0 582.15892168 0 9204
0.09350000 0.09350330 20031.73885468 0 921.47594904 0 10026.76161790 0 992.63938475 0 1278.36548568 0 9349
0.09450000 0.09448040 19323.80267165 0 459.90335620 0 8417.42641209 0 1928.76077763 0 317.44721729 0 9564
0.09550000 0.09549270 18868.89353656 0 83.06818409 0 8434.00637192 0 1615.86602388 0 1369.26862814 0 10155
0.09650000 0.09649430 18949.71381532 0 93.11856231 0 7892.12832213 0 666.15018801 0 169.29993692 0 9913
0.09750000 0.09749140 18640.03388768 0 176.10277874 0 7552.57074485 0 184.10612206 0 2107.68945597 0 10476
0.09850000 0.09850240 18452.42742698 0 168.40293299 0 7266.14772358 0 868.67636443 0 1843.84890201 0 10575
0.09950000 0.09950330 18103.96725432 0 480.39281436 0 7170.79328342 0 357.36614023 0 2086.26477567 0 10882
0.10050000 0.10051200 18070.02048911 0 166.81687717 0 6913.76456381 0 879.13354180 0 2140.34354634 0 10875
0.10150000 0.10150300 17567.90062096 0 354.52675186 0 6906.89652621 0 521.66286351 0 1338.34559798 0 11118
0.10250000 0.10250800 17709.75763318 0 220.51458978 0 6392.26581380 0 -208.96594522 0 1670.23705147 0 11575
0.10350000 0.10349800 17444.02864990 0 32.72288316 0 6678.65511312 0 398.82390826 0 1212.76504802 0 11364
0.10450000 0.10450100 17287.22157221 0 189.67249230 0 5972.98954153 0 -184.32756288 0 1215.10310337 0 12093
0.10550000 0.10551000 17314.08672745 0 8.54016308 0 5872.19462642 0 1059.44819237 0 975.21637612 0 12067
0.10650000 0.10649700 17056.67582571 0 39.83068383 0 5240.88595942 0 1064.33562731 0 1909.01095429 0 12054
0.10750000 0.10749900 16887.16681269 0 140.54298015 0 4781.06465997 0 1663.99849031 0 1987.12223622 0 12807
0.10850000 0.10850100 16766.55463035 0 160.40970626 0 4179.89217757 0 1676.48685327 0 3151.37263569 0 12736
0.10950000 0.10950300 16367.51152940 0 313.99521345 0 3320.35333813 0 1224.60145324 0 3167.31187842 0 12933
0.11050000 0.11050200 15998.48096590 0 369.53976498 0 3289.84621204 0 923.67799252 0 4178.03747020 0 13428
0.11150000 0.11150900 15601.91080811 0 411.23133854 0 2709.37900829 0 517.78259088 0 4821.26122698 0 13453
0.11250000 0.11250000 15227.70954527 0 339.24283906 0 3297.11891307 0 -263.79559135 0 4101.93826475 0 13668
0.11350000 0.11349100 14963.10462707 0 434.01950976 0 3023.74628729 0 -662.61050710 0 3782.40028642 0 13791
0.11450000 0.11448600 14730.87278296 0 477.81308501 0 4067.78916783 0 -692.97038065 0 3052.08396778 0 14205
0.11550000 0.11549300 14350.71397524 0 414.06510659 0 3506.30742317 0 -1029.52782826 0 2740.12218804 0 14776
0.11650000 0.11649800 14304.85212026 0 101.72901318 0 4432.12113933 0 -481.37524723 0 1889.24989031 0 14553
0.11750000 0.11747300 14287.54151813 0 -162.59713689 0 4013.48558415 0 -91.39829313 0 1181.70713005 0 14568
0.11850000 0.11849100 14473.12466170 0 -208.58151496 0 3945.76066350 0 457.98120493 0 1409.10549434 0 16015
0.11950000 0.11950300 14710.41479863 0 -28.56901308 0 3671.41010111 0 365.98322309 0 294.77932103 0 15270
0.12050000 0.12050700 14667.36310633 0 51.48150591 0 3816.26836708 0 252.60664762 0 709.08385348 0 15999
0.12150000 0.12150000 14553.83253395 0 238.92227942 0 3425.92552979 0 396.37232234 0 256.15756918 0 15670
0.12250000 0.12250700 14494.14467857 0 112.68415138 0 3651.88509079 0 -532.11554463 0 1098.34084390 0 16887
0.12350000 0.12352200 14390.61828534 0 172.88907670 0 3758.50266297 0 -283.34757924 0 280.59586794 0 16407
0.12450000 0.12449800 14447.60838454 0 204.52476412 0 4907.76927501 0 -617.58945279 0 651.56319556 0 16306
0.12550000 0.12549900 14154.00258745 0 189.91529036 0 4290.26412710 0 -367.35570654 0 -0.86536150 0 17523
0.12650000 0.12650100 14343.29514576 0 80.41921234 0 5230.20734123 0 -419.90350058 0 825.00418821 0 17154
0.12750000 0.12750600 14237.85784190 0 42.98121342 0 5120.82456896 0 -125.33100752 0 132.90720611 0 18007
0.12850000 0.12850300 14354.64820300 0 185.96195350 0 5532.31107027 0 231.12801220 0 531.22528509 0 17496
0.12950000 0.12949900 14056.99577164 0 288.78130980 0 5679.78840786 0 -199.11463892 0 275.82758390 0 18405
0.13050000 0.13049000 13940.20541055 0 279.40660709 0 5437.52990331 0 259.63992278 0 529.79772245 0 18100
0.13150000 0.13148800 13643.56463776 0 283.32847013 0 5702.11234021 0 58.28682067 0 551.69563414 0 19059
0.13250000 0.13249300 13470.79583602 0 77.87309254 0 5352.96648786 0 282.06614505 0 114.12857500 0 18957
0.13350000 0.13349100 13391.32443535 0 186.27669172 0 5634.21880980 0 372.67590653 0 598.52980541 0 19468
0.13450000 0.13450700 13169.88361595 0 246.07020922 0 5206.24227387 0 528.72761250 0 582.96937260 0 19953
0.13550000 0.13551000 12858.18037118 0 356.72542314 0 5344.87321933 0 373.36383436 0 727.32518148 0 19956
0.13650000 0.13649900 12573.34228166 0 348.87832487 0 4940.97415727 0 465.03696139 0 1168.42068088 0 19723
0.13750000 0.13749600 12242.08030462 0 250.79128252 0 5001.42637690 0 467.29295999 0 1099.77739906 0 20946
0.13850000 0.13851100 12065.82690115 0 64.89205186 0 4342.62307821 0 535.97670816 0 1612.26901565 0 20955
0.13950000 0.13949800 12050.65202267 0 36.28909201 0 4713.73316209 0 449.51249867 0 1254.96245086 0 20506
0.14050000 0.14048300 11949.14894657 0 72.81142752 0 3707.73988427 0 120.76842739 0 1170.76997689 0 21447
0.14150000 0.14148400 12084.37397486 0 94.96742455 0 3938.63409093 0 71.75671726 0 1230.90745830 0 21771
0.14250000 0.14249400 11942.85418216 0 35.65984038 0 3482.03885824 0 235.54333981 0 1212.87745452 0 22470
0.14350000 0.14350900 12028.62034723 0 125.80536298 0 3861.74803993 0 345.29143322 0 1548.79306097 0 22519
0.14450000 0.14449900 11800.88476342 0 124.40365384 0 3750.53304160 0 445.48384945 0 1410.09467160 0 22218
0.14550000 0.14550500 11706.01367125 0 224.38586989 0 3755.92855395 0 258.45965445 0 1773.17893086 0 23559
0.14650000 0.14650700 11324.05635942 0 304.94648962 0 3844.29130935 0 417.61715222 0 1664.35819113 0 23044
0.14750000 0.14750500 11209.85134799 0 347.78910581 0 3807.98400749 0 200.26568155 0 2030.70223911 0 23649
0.14850000 0.14849900 10900.57608378 0 238.55471014 0 3713.31524703 0 50.23727828 0 1472.67137422 0 23640
0.14950000 0.14949500 10609.96029978 0 192.72432898 0 3498.21415464 0 -34.55184944 0 1822.96377295 0 24457
0.15050000 0.15050000 10456.62658316 0 241.19963526 0 3706.06502731 0 58.27175820 0 1390.99680601 0 24591
0.15150000 0.15149900 10253.63167160 0 137.98460805 0 3267.57848294 0 -79.26468510 0 1184.24751711 0 25020
0.15250000 0.15250500 10221.70822353 0 201.68087948 0 3294.62348860 0 21.96164618 0 807.40132916 0 25297
0.15350000 0.15350100 10085.23548300 0 100.68678004 0 3456.20784286 0 -15.09124805 0 874.33603207 0 25452
0.15450000 0.15450400 9971.76111387 0 37.89347009 0 3166.81728979 0 -2.39029066 0 674.83583883 0 26061
0.15550000 0.15549900 10023.18709097 0 14.32856989 0 3279.32496296 0 259.90520214 0 593.65698332 0 26128
0.15650000 0.15649500 10013.16043052 0 95.48269598 0 3025.62347596 0 34.68066729 0 351.31192575 0 26331
0.15750000 0.15749700 9962.35268921 0 94.43900156 0 3100.39628462 0 133.66482597 0 363.68451001 0 27345
0.15850000 0.15849900 9828.11683818 0 157.53322373 0 3094.74223730 0 15.79131577 0 400.10534244 0 26980
0.15950000 0.15949700 9826.48694383 0 101.15045689 0 3231.25994043 0 -111.30604760 0 467.66165334 0 27777
0.16050000 0.16050000 9770.08135846 0 113.39905677 0 3309.41618496 0 -87.82635154 0 638.36891973 0 28224
0.16150000 0.16150500 9697.88265881 0 184.88397509 0 3563.81459231 0 -118.12462634 0 919.72915192 0 28075
0.16250000 0.16249700 9644.32095808 0 228.39428594 0 3457.96138437 0 86.51153263 0 605.05725129 0 28590
0.16350000 0.16349900 9325.58106595 0 209.66511369 0 3669.36430267 0 363.61144578 0 1153.71790973 0 29163
0.16450000 0.16449100 9245.07552542 0 171.76163943 0 3348.80342513 0 252.96634844 0 1026.23656572 0 28996
0.16550000 0.16550500 9064.11228930 0 145.86880047 0 3246.70459454 0 85.63453706 0 886.32193794 0 30777
0.16650000 0.16650700 8922.78358766 0 145.47537770 0 3220.45767508 0 198.26372166 0 792.07245376 0 29211
0.16750000 0.16749900 8825.68684664 0 71.81764159 0 3213.55591553 0 -38.21551473 0 739.62245338 0 30922
0.16850000 0.16850800 8805.90330136 0 39.58743615 0 2991.39569448 0 -9.15671277 0 685.14126742 0 30867
0.16950000 0.16949900 8843.61568456 0 -13.20888867 0 3198.54964680 0 103.01089699 0 645.65286140 0 30852
0.17050000 0.17049200 8860.82512083 0 4.33013472 0 3068.46159590 0 18.74490916 0 495.58567788 0 31257
0.17150000 0.17149500 8892.28770222 0 16.05895567 0 2957.75242685 0 -4.36826300 0 275.54207137 0 32608
0.17250000 0.17250900 8920.24320059 0 97.55592160 0 3205.81110718 0 -109.12760949 0 769.77999523 0 32361
0.17350000 0.17350400 8796.70844906 0 153.94408396 0 3193.45763202 0 64.43556903 0 529.45713073 0 32508
0.17450000 0.17449800 8657.62787756 0 180.56531708 0 3011.96608532 0 281.19836682 0 855.77322145 0 32791
0.17550000 0.17549800 8554.07900303 0 156.52830956 0 2821.45953673 0 430.27749714 0 547.16790002 0 33633
0.17650000 0.17650100 8329.05241605 0 77.98257648 0 2344.69857663 0 495.39458682 0 726.90815334 0 33984
0.17750000 0.17750300 8328.37797700 0 60.10465871 0 2374.29521000 0 340.54338235 0 308.14557881 0 34069
