### header ###
fiducial parameters:
Omega_m = 0.31
Omega_nu = 0
Omega_de = 0.69
Omega_k = 0
H_0 = 100
w_de = -1
zeff = 0
beta = 0
fgrowth = 0
b_1 = 2
gamma = 0.55
Lx = 3500 Ly = 3500 Lz = 3500
nx = 700 ny = 700 nz = 700
xoffset = 857.220397 yoffset = 15.9954215 zoffset = 262.898189
bins = 400 dk = 0.001
kx_ny = 0.628318531 ky_ny = 0.628318531 kz_ny = 0.628318531
############################
A(data) = 3.06117708 (not used)
A(ran) = 3.05730888 (used)
Ngal = 186780
weighted Ngal = 0
Nran = 9360983
weighted Nran = 0
SN(data) = 3452.5866
SN(ran) = 68.6556676
SN(data+ran) = 3521.24227
############################
13 columns: k_central k_mean P_0(k) sigma^{lin}_{P_0(k)} P^img_1(k) sigma^{lin}_{P_1(k)} P_2(k) sigma^{lin}_{P_2(k)} P^img_3(k) sigma^{lin}_{P_3(k)} P_4(k) sigma^{lin}_{P_4(k)} N_modes
### header ###
0.00050000 0 0 0 0 0 0 0 0 0 0 0 0
0.00150000 0.00179520 6126.18837034 0 -11227.67902005 0 -7899.55839227 0 3004.67090300 0 -23452.71849815 0 3
0.00250000 0.00253879 16724.85181613 0 -18927.12010735 0 -4226.23738054 0 -15238.50056998 0 8495.84119159 0 6
0.00350000 0.00331552 26638.31891532 0 -20904.46297744 0 -17482.47167540 0 1273.73433758 0 -9663.74480254 0 7
0.00450000 0.00420575 46616.77708554 0 -27011.17130006 0 -13788.11940616 0 -15330.11187343 0 12900.22040491 0 24
0.00550000 0.00557378 71073.84772651 0 -22535.03177248 0 -24714.14432319 0 -20059.27844898 0 11835.28115466 0 45
0.00650000 0.00659388 101560.74063910 0 -18903.51474082 0 4583.30789166 0 -34173.93875887 0 -1500.15476526 0 40
0.00750000 0.00754703 93378.67097201 0 -589.70926678 0 -16599.96818651 0 -23268.70904569 0 6192.67681942 0 57
0.00850000 0.00846663 97172.16578071 0 8534.40786425 0 -4775.17455898 0 -23495.43297093 0 1797.22268278 0 75
0.00950000 0.00948925 78831.92004802 0 10047.55682175 0 -8546.71637680 0 -17963.12190066 0 8379.12951505 0 112
0.01050000 0.01054430 83771.96123128 0 8525.55023148 0 9778.23083024 0 -6393.98563336 0 -19543.66979995 0 105
0.01150000 0.01145670 73128.18905410 0 524.85520832 0 1157.25871471 0 -11438.26137084 0 -34612.09932436 0 144
0.01250000 0.01249090 74309.46903942 0 194.30813667 0 12480.71931963 0 -25532.35128990 0 -42730.99653434 0 169
0.01350000 0.01339930 75559.31699420 0 931.12941989 0 7267.46287971 0 -40549.97307301 0 -38292.62559321 0 180
0.01450000 0.01448870 78916.33733501 0 4732.78606508 0 24245.52159421 0 -37365.72153393 0 -57993.66450339 0 267
0.01550000 0.01550050 80258.92065832 0 3032.76128917 0 45003.63129913 0 -42848.79855400 0 -69040.97604181 0 238
0.01650000 0.01653350 73956.51260647 0 4124.40832556 0 43161.62586385 0 -26033.00987345 0 -69499.59459163 0 315
0.01750000 0.01747870 78401.96515756 0 3707.17785173 0 51752.96762405 0 -9840.31294423 0 -84417.39939625 0 297
0.01850000 0.01844180 73306.80299422 0 -3170.81896145 0 49636.12827839 0 -2471.06597215 0 -65377.76037508 0 388
0.01950000 0.01947590 82583.37482298 0 -6445.68138607 0 38249.68630742 0 15246.03180597 0 -84633.78192282 0 399
0.02050000 0.02045430 88624.10052582 0 -9644.24227353 0 32228.18211733 0 18283.48044649 0 -59024.31976891 0 462
0.02150000 0.02154770 95071.51297210 0 -6561.41512600 0 18028.76730093 0 15093.49617555 0 -54894.05506432 0 571
0.02250000 0.02255340 98466.18949286 0 -674.78413184 0 8583.06864127 0 22398.45786609 0 -44676.30354985 0 510
0.02350000 0.02348930 99665.11729983 0 4640.34295347 0 14261.68802145 0 -2744.05641580 0 -4092.18137992 0 555
0.02450000 0.02439640 90263.54943493 0 9933.49793879 0 -1927.74911906 0 12609.42477050 0 -20693.70077623 0 592
0.02550000 0.02547300 85252.57974556 0 6816.24067807 0 22811.77659347 0 3026.73630038 0 20865.12069988 0 837
0.02650000 0.02652900 75433.98373855 0 2905.84310177 0 581.17086848 0 1132.96766848 0 -1256.43497611 0 723
0.02750000 0.02749970 82810.09874823 0 738.54784717 0 33064.37412521 0 1751.34958714 0 37516.23384722 0 826
0.02850000 0.02848090 73751.37073063 0 -674.57955199 0 17440.99367421 0 -643.27321564 0 10644.80631704 0 831
0.02950000 0.02946900 79906.75107092 0 1260.40292582 0 24296.66655504 0 8106.98212021 0 32413.65285439 0 996
0.03050000 0.03053250 76210.15067152 0 3852.24969007 0 22259.18620354 0 4464.89887686 0 20677.51423918 0 1041
0.03150000 0.03150510 72091.57624369 0 4993.65908724 0 14636.45131682 0 7365.26778172 0 18776.15816803 0 1036
0.03250000 0.03246190 66038.59823156 0 6645.33782435 0 15924.40507758 0 5460.89921618 0 19447.33742318 0 1059
0.03350000 0.03345080 59972.58106458 0 4611.53316564 0 8330.30012828 0 -222.87175424 0 6478.97619353 0 1302
0.03450000 0.03451200 55425.62543739 0 2050.14856487 0 10715.97087682 0 1591.08038902 0 9957.30563703 0 1339
0.03550000 0.03553350 55282.08232755 0 -92.90903658 0 10027.85196102 0 -4646.99741870 0 -966.25195716 0 1365
0.03650000 0.03647120 56991.22327120 0 -1953.74874420 0 9627.41501938 0 -4764.10251801 0 1551.25476348 0 1308
0.03750000 0.03744890 58225.10950194 0 -1152.84113897 0 13986.74170457 0 -3542.19882095 0 -827.52996243 0 1579
0.03850000 0.03847530 60616.22072544 0 230.58059251 0 15439.59581155 0 -1782.63231813 0 -5024.63832066 0 1662
0.03950000 0.03950240 57961.29142928 0 2060.35507574 0 10926.58694957 0 3084.59192969 0 -4774.94974597 0 1683
0.04050000 0.04050350 56299.69843823 0 4713.45214582 0 17237.87511550 0 820.46408938 0 -6539.78811399 0 1822
0.04150000 0.04152450 51241.18079627 0 5096.06141540 0 11907.89575838 0 1257.57028183 0 -5150.66849665 0 1887
0.04250000 0.04250150 46321.37278433 0 4611.54440629 0 10764.63165384 0 2716.35945240 0 -7646.26156869 0 1920
0.04350000 0.04349210 43444.89026227 0 2751.72253960 0 3184.38642688 0 1750.82127656 0 -4865.18969004 0 2005
0.04450000 0.04448520 40025.82152942 0 1471.25505223 0 3045.98029443 0 4106.53569090 0 -7253.68184191 0 2151
0.04550000 0.04548030 38991.34444265 0 565.96901244 0 -280.60036420 0 1050.32528024 0 -4085.68428380 0 2274
0.04650000 0.04648670 37587.16235333 0 1020.24305075 0 254.37255385 0 1124.61586498 0 -5493.08119922 0 2311
0.04750000 0.04749250 37090.21318451 0 325.38761297 0 -372.49268392 0 -2664.93347530 0 -4123.01448487 0 2568
0.04850000 0.04851840 39029.89987465 0 -319.59642971 0 5005.50673311 0 -3751.56718147 0 -1561.66360606 0 2493
0.04950000 0.04949480 38993.59257279 0 -1155.48269189 0 6270.90050785 0 -7102.21407331 0 -3400.21816157 0 2644
0.05050000 0.05050630 42538.10696780 0 -2026.46451378 0 12717.33501752 0 -5469.61072049 0 284.65599098 0 2829
0.05150000 0.05149060 43362.49629241 0 -1237.01113164 0 12012.77102970 0 -4805.01848668 0 -7245.10522541 0 2784
0.05250000 0.05249300 46343.40445976 0 -491.02759401 0 18024.72066667 0 -2203.02141481 0 -3722.48761803 0 3055
0.05350000 0.05348950 45647.38336650 0 1269.99120089 0 15483.54675591 0 -652.83114096 0 -9327.13227575 0 3009
0.05450000 0.05448610 43251.32625668 0 1890.22782692 0 15650.80763879 0 4296.17670938 0 -5916.22425534 0 3336
0.05550000 0.05550870 42131.19541134 0 2290.26010514 0 13861.52085543 0 5332.86820435 0 -6109.61965116 0 3349
0.05650000 0.05647670 38503.16298140 0 2117.56998796 0 10221.26983815 0 6178.24382388 0 -5638.82747660 0 3324
0.05750000 0.05747970 36793.57241172 0 2111.72484958 0 9236.99349754 0 3964.03796159 0 -1832.52956672 0 3639
0.05850000 0.05849280 35198.74888601 0 1859.92303255 0 7716.30206340 0 1249.57817916 0 -1387.89438641 0 3846
0.05950000 0.05951020 32847.09234658 0 1550.92878461 0 6428.06728637 0 -148.86443389 0 1645.32776945 0 3787
0.06050000 0.06049470 31477.64386802 0 875.41850673 0 8530.09145437 0 -1353.11581304 0 -997.53356408 0 3930
0.06150000 0.06148310 31903.10249819 0 444.70037609 0 7766.42412501 0 -1901.10877683 0 -3116.29056476 0 4083
0.06250000 0.06249100 31492.70634000 0 -70.25552835 0 9717.10417156 0 -2951.76116001 0 -4856.95029305 0 4303
0.06350000 0.06350600 31954.24745902 0 97.87122185 0 9134.88342630 0 -2572.56904825 0 -5512.61745019 0 4470
0.06450000 0.06451750 32145.67574097 0 -262.18368204 0 10842.59680731 0 -237.13838815 0 -3229.64128673 0 4479
0.06550000 0.06550280 32742.89151430 0 -371.52936016 0 9174.12453800 0 1058.66921528 0 -3446.02381330 0 4636
0.06650000 0.06648880 33833.23463521 0 -617.47592222 0 12247.13859744 0 3484.75909572 0 48.08682939 0 4653
0.06750000 0.06749660 34410.32964374 0 -485.21730165 0 12035.25233116 0 2194.21998529 0 1672.93480764 0 5220
0.06850000 0.06852730 35016.31312465 0 -120.00181501 0 13514.97159339 0 3247.06429536 0 6207.41331252 0 5029
0.06950000 0.06949320 34575.45480298 0 1178.73959825 0 13509.01404851 0 390.97568592 0 6837.85644942 0 5040
0.07050000 0.07048030 34079.18007320 0 1825.72897303 0 13875.00963631 0 465.81256629 0 8447.45019020 0 5475
0.07150000 0.07148790 31769.90078703 0 1941.69876662 0 15516.81908207 0 -636.60301350 0 6452.20096349 0 5509
0.07250000 0.07249820 29991.96706091 0 1606.44635857 0 12874.02968871 0 552.32286245 0 4626.19097420 0 5916
0.07350000 0.07351270 29771.65030658 0 591.99449107 0 13341.64075912 0 -1315.88677782 0 1214.61975539 0 5721
0.07450000 0.07449140 28762.35227745 0 -115.65280724 0 11806.84230831 0 -944.80254744 0 -1854.19030068 0 6028
0.07550000 0.07549160 29212.76515224 0 -174.24694731 0 13327.81475872 0 -684.02057454 0 -1005.14798089 0 6183
0.07650000 0.07648840 28841.37405208 0 93.50164369 0 10033.59593355 0 81.13906361 0 -4299.16672248 0 6330
0.07750000 0.07749960 28659.27551024 0 475.29068299 0 11563.81943951 0 860.10087198 0 -2169.44559108 0 6583
0.07850000 0.07848650 28698.95500732 0 937.26793925 0 9257.63133228 0 635.04281118 0 -4336.93530894 0 6549
0.07950000 0.07947320 27841.06854353 0 552.34871594 0 9637.57656764 0 1731.11641583 0 -3550.06727646 0 6828
0.08050000 0.08048110 26418.11456750 0 774.77646448 0 7739.00817788 0 1048.50991515 0 -5462.75392355 0 7147
0.08150000 0.08149960 26054.14229683 0 519.16181873 0 7603.64826177 0 714.27366192 0 -3999.01886666 0 7386
0.08250000 0.08250610 25011.57194153 0 531.90871666 0 6685.10724664 0 242.80929644 0 -6022.32475759 0 7227
0.08350000 0.08350160 24706.27586767 0 813.50500251 0 6602.74699873 0 -338.96856718 0 -5658.67846579 0 7798
0.08450000 0.08449610 24256.87465145 0 634.97536727 0 6426.16761640 0 -90.84761365 0 -5363.42029304 0 7371
0.08550000 0.08548940 23618.74290945 0 420.25533294 0 6786.44171298 0 -12.20667225 0 -5729.25851173 0 8256
0.08650000 0.08650700 23579.51303840 0 414.94974580 0 7036.35510068 0 -127.12838757 0 -3319.75758364 0 8037
0.08750000 0.08749060 23209.47081634 0 206.34012921 0 6803.03291346 0 610.11104786 0 -3088.72848916 0 8155
0.08850000 0.08849210 22977.46378525 0 643.51376557 0 7690.61717648 0 487.98137766 0 -2167.39979265 0 8718
0.08950000 0.08949900 22358.55355600 0 761.79800915 0 7119.60336000 0 507.90205889 0 -2337.38091300 0 8571
0.09050000 0.09049190 21371.62442182 0 897.42320461 0 7685.03057307 0 782.20541055 0 -1519.30883410 0 8932
0.09150000 0.09150830 20724.05053321 0 709.15017332 0 7058.24064765 0 593.53108803 0 -2269.48738259 0 9285
0.09250000 0.09250820 20218.78328285 0 470.59658724 0 7459.74545111 0 191.83631757 0 -2035.83921649 0 9204
0.09350000 0.09350330 20001.83872374 0 265.28272945 0 7135.01429215 0 -114.37586932 0 -1945.86904804 0 9349
0.09450000 0.09448040 19914.72368058 0 -76.60436029 0 7669.33862465 0 -94.46451783 0 -2148.42557421 0 9564
0.09550000 0.09549270 20181.01469639 0 -65.93934329 0 8020.59771934 0 -145.99581982 0 -394.16353447 0 10155
0.09650000 0.09649430 20397.17240995 0 55.47879372 0 7238.72053579 0 803.12988188 0 -1268.78845126 0 9913
0.09750000 0.09749140 20004.98610594 0 331.79815608 0 7982.81789223 0 858.59687292 0 681.19467495 0 10476
0.09850000 0.09850240 19560.98040207 0 595.82193265 0 7363.78401582 0 742.65855315 0 339.22710215 0 10575
0.09950000 0.09950330 19070.21359116 0 699.10440376 0 6997.24887679 0 1350.11455930 0 1847.34474438 0 10882
0.10050000 0.10051200 18447.03191463 0 644.15897892 0 6914.40528090 0 965.09417014 0 1648.64376141 0 10875
0.10150000 0.10150300 17554.29943357 0 489.62138861 0 5988.73769320 0 352.89123718 0 1565.77768422 0 11118
0.10250000 0.10250800 17295.98927978 0 410.61085462 0 6126.13216709 0 444.83076764 0 2610.28143145 0 11575
0.10350000 0.10349800 16840.29329914 0 287.25033317 0 6368.90774158 0 440.59866264 0 1090.67022384 0 11364
0.10450000 0.10450100 16644.14394389 0 134.32465217 0 5401.48113641 0 510.46942352 0 1771.83005277 0 12093
0.10550000 0.10551000 16657.85753778 0 113.03148749 0 5089.26082171 0 652.22526988 0 536.81413663 0 12067
0.10650000 0.10649700 16489.24777681 0 236.69438244 0 5256.93760866 0 -151.53633657 0 684.48031716 0 12054
0.10750000 0.10749900 16185.52539406 0 314.58534762 0 4439.84346638 0 -235.44554615 0 -509.09244380 0 12807
0.10850000 0.10850100 15872.13605168 0 298.78661302 0 4327.53812492 0 -189.05425651 0 -634.63365149 0 12736
0.10950000 0.10950300 15611.12814171 0 232.51623257 0 4660.51992153 0 -91.90075021 0 -774.82255115 0 12933
0.11050000 0.11050200 15521.65256189 0 80.76193978 0 4436.62864027 0 464.23437893 0 -1107.25580400 0 13428
0.11150000 0.11150900 15685.87846907 0 96.92341018 0 4814.44939264 0 413.12314006 0 -236.98214310 0 13453
0.11250000 0.11250000 15322.24341792 0 300.34344314 0 4828.92735078 0 680.39658875 0 212.19313604 0 13668
0.11350000 0.11349100 15195.78609720 0 276.07263008 0 5186.79594810 0 822.92017156 0 1930.87401997 0 13791
0.11450000 0.11448600 15026.38949068 0 316.40071271 0 4976.04498755 0 721.02816894 0 2503.86619098 0 14205
0.11550000 0.11549300 14901.39345455 0 140.61154812 0 4711.73232626 0 1378.81194062 0 3647.41131179 0 14776
0.11650000 0.11649800 14704.12003422 0 -0.36526944 0 4589.69258127 0 967.45807898 0 3845.28048661 0 14553
0.11750000 0.11747300 14594.86090912 0 -107.31516697 0 3488.80572998 0 1126.09963088 0 3215.84900828 0 14568
0.11850000 0.11849100 14658.93261829 0 -22.22389056 0 2865.68025671 0 308.99649607 0 2591.75683904 0 16015
0.11950000 0.11950300 14838.33340395 0 -52.09603228 0 2369.04582611 0 -439.15648715 0 2105.82350794 0 15270
0.12050000 0.12050700 14385.11036648 0 84.93593061 0 2126.97841262 0 -778.70394784 0 1278.46665154 0 15999
0.12150000 0.12150000 14883.07119386 0 -52.91626257 0 2919.15203224 0 -698.26922341 0 630.14975591 0 15670
0.12250000 0.12250700 14633.75356065 0 46.59069878 0 3367.71019966 0 -709.46378747 0 377.02941056 0 16887
0.12350000 0.12352200 14813.82878536 0 240.97819444 0 3950.34684900 0 -676.24878863 0 392.30208271 0 16407
0.12450000 0.12449800 14639.14907300 0 481.52025162 0 4608.20593303 0 -364.89850029 0 775.55431751 0 16306
0.12550000 0.12549900 14332.95374709 0 516.89682760 0 5251.77814998 0 189.71295865 0 1795.40169736 0 17523
0.12650000 0.12650100 13928.51513379 0 415.18017914 0 5387.84622708 0 814.96741117 0 2181.51804997 0 17154
0.12750000 0.12750600 13729.89283537 0 387.93171770 0 5267.82979922 0 886.24437745 0 2841.26556332 0 18007
0.12850000 0.12850300 13306.00789630 0 282.12796863 0 4711.28270023 0 1195.55561175 0 2724.53140548 0 17496
0.12950000 0.12949900 13015.54948141 0 62.06131878 0 4439.04538018 0 709.00629299 0 2811.96118686 0 18405
0.13050000 0.13049000 13090.86184131 0 3.59255694 0 3841.78464424 0 29.82324489 0 2562.73347886 0 18100
0.13150000 0.13148800 12981.49030970 0 -58.34156264 0 3572.61602183 0 43.51514433 0 2261.39411406 0 19059
0.13250000 0.13249300 13069.84182445 0 99.65724884 0 3425.08248099 0 -729.33051357 0 1250.75844749 0 18957
0.13350000 0.13349100 12863.91310305 0 107.71342322 0 3543.86243726 0 -422.14488633 0 956.21518012 0 19468
0.13450000 0.13450700 12850.08710265 0 348.32640892 0 3774.98145694 0 -542.68512851 0 432.51101444 0 19953
0.13550000 0.13551000 12513.99164580 0 319.05912661 0 3707.90849403 0 -375.26125620 0 158.31107677 0 19956
0.13650000 0.13649900 12329.75738032 0 321.85804864 0 4170.29266185 0 -45.68267901 0 172.68000059 0 19723
0.13750000 0.13749600 12080.77696663 0 423.02727741 0 4502.40892835 0 -287.14804325 0 -225.74936083 0 20946
0.13850000 0.13851100 11708.26180140 0 358.75660873 0 4668.43333964 0 -51.70249710 0 -75.94633260 0 20955
0.13950000 0.13949800 11555.27654495 0 313.32864287 0 4777.36648588 0 327.54019759 0 390.28326184 0 20506
0.14050000 0.14048300 11282.24113870 0 74.26439403 0 5001.66243056 0 232.55782297 0 484.86996554 0 21447
0.14150000 0.14148400 11232.46753726 0 -73.37559578 0 4395.78011551 0 817.00309302 0 408.52571391 0 21771
0.14250000 0.14249400 11370.81746646 0 -90.35864534 0 4358.98946567 0 616.08545372 0 352.52816416 0 22470
0.14350000 0.14350900 11450.17646062 0 -43.13048926 0 3625.35715506 0 279.66963832 0 -50.07530050 0 22519
0.14450000 0.14449900 11366.65842569 0 60.47290243 0 3825.65431044 0 -129.84412879 0 275.15426892 0 22218
0.14550000 0.14550500 11405.77589023 0 35.50786678 0 3622.35590132 0 -174.64374228 0 -273.83461652 0 23559
0.14650000 0.14650700 11467.26224973 0 -53.79101001 0 3653.76227946 0 -234.52381279 0 -645.22234448 0 23044
0.14750000 0.14750500 11526.16325956 0 8.73798729 0 3852.26093072 0 -54.56908785 0 -86.19859291 0 23649
0.14850000 0.14849900 11557.41226859 0 100.25446462 0 4176.54246365 0 2.80617225 0 -518.58629741 0 23640
0.14950000 0.14949500 11447.59111095 0 217.94048076 0 4031.75164159 0 484.37200471 0 37.12843140 0 24457
0.15050000 0.15050000 11223.47501667 0 251.23079197 0 4124.36336296 0 506.68244829 0 377.69710521 0 24591
0.15150000 0.15149900 10977.45089412 0 259.12397691 0 3857.58899916 0 567.92713379 0 874.35851337 0 25020
0.15250000 0.15250500 10786.68581057 0 165.95471926 0 3591.82629393 0 708.07781524 0 1212.10184962 0 25297
0.15350000 0.15350100 10549.18210127 0 152.58958554 0 3319.88123080 0 572.25478432 0 1228.43451514 0 25452
0.15450000 0.15450400 10486.59415800 0 84.92806216 0 2633.70694757 0 326.85002163 0 1001.44980680 0 26061
0.15550000 0.15549900 10305.15881456 0 117.17703948 0 2621.19610331 0 52.36592031 0 800.43774603 0 26128
0.15650000 0.15649500 10072.05019970 0 197.93661872 0 1964.46108435 0 -117.94477593 0 688.80684362 0 26331
0.15750000 0.15749700 9974.66120176 0 100.23378182 0 2443.03178922 0 0.21545517 0 217.88764970 0 27345
0.15850000 0.15849900 9926.40508817 0 87.32232076 0 1853.16740146 0 -39.08913810 0 362.05573972 0 26980
0.15950000 0.15949700 9876.41791437 0 -0.08095202 0 2181.99015730 0 308.40074159 0 -249.93137274 0 27777
0.16050000 0.16050000 9844.04484027 0 18.27920900 0 1954.94025318 0 267.71183407 0 173.78945282 0 28224
0.16150000 0.16150500 9894.27930839 0 33.37427887 0 2105.55373233 0 150.99341314 0 269.74301966 0 28075
0.16250000 0.16249700 9866.71723279 0 248.17895529 0 1947.71251476 0 85.47233447 0 601.18259898 0 28590
0.16350000 0.16349900 9680.12243066 0 285.52376922 0 2403.75695557 0 -79.34471853 0 1082.84673093 0 29163
0.16450000 0.16449100 9446.22697025 0 336.36073621 0 2142.91765536 0 -85.59407071 0 852.84278381 0 28996
0.16550000 0.16550500 9173.57374612 0 280.56889038 0 2513.44322540 0 -103.08913192 0 1235.25759013 0 30777
0.16650000 0.16650700 9069.40663579 0 164.76208622 0 2455.12672941 0 -11.44208319 0 897.13881614 0 29211
0.16750000 0.16749900 8905.32685707 0 44.97159544 0 2515.47778318 0 31.99887284 0 1121.72139742 0 30922
0.16850000 0.16850800 8923.54795191 0 60.47413890 0 2479.28288783 0 7.40565544 0 660.93789827 0 30867
0.16950000 0.16949900 8877.33763675 0 143.78365976 0 2489.82661822 0 -40.83750892 0 939.68243103 0 30852
0.17050000 0.17049200 8751.49855182 0 166.47965765 0 2688.06673451 0 -69.58356225 0 809.96981785 0 31257
0.17150000 0.17149500 8669.79026166 0 201.35377654 0 2454.51973427 0 67.21616880 0 856.46227334 0 32608
0.17250000 0.17250900 8530.15889828 0 184.05216694 0 2651.92804241 0 79.70543102 0 787.48064794 0 32361
0.17350000 0.17350400 8379.26440286 0 74.91612696 0 2477.84408454 0 136.08831027 0 475.04676087 0 32508
0.17450000 0.17449800 8300.43371929 0 26.86043417 0 2543.75926042 0 322.76404509 0 571.65565764 0 32791
0.17550000 0.17549800 8336.70729919 0 -52.12154856 0 2283.61688056 0 25.58641882 0 -4.49661999 0 33633
0.17650000 0.17650100 8299.23096966 0 10.03627121 0 2286.78674406 0 -52.07917131 0 -133.88064647 0 33984
0.17750000 0.17750300 8300.59108840 0 25.66128155 0 2229.04352126 0 -178.29245750 0 -256.24974252 0 34069
