### header ###
fiducial parameters:
Omega_m = 0.31
Omega_nu = 0
Omega_de = 0.69
Omega_k = 0
H_0 = 100
w_de = -1
zeff = 0
beta = 0
fgrowth = 0
b_1 = 2
gamma = 0.55
Lx = 3500 Ly = 3500 Lz = 3500
nx = 700 ny = 700 nz = 700
xoffset = 857.220397 yoffset = 15.9954215 zoffset = 262.898189
bins = 400 dk = 0.001
kx_ny = 0.628318531 ky_ny = 0.628318531 kz_ny = 0.628318531
############################
A(data) = 3.07765294 (not used)
A(ran) = 3.07285602 (used)
Ngal = 187412
weighted Ngal = 0
Nran = 9360983
weighted Nran = 0
SN(data) = 3464.29119
SN(ran) = 69.0047978
SN(data+ran) = 3533.29598
############################
13 columns: k_central k_mean P_0(k) sigma^{lin}_{P_0(k)} P^img_1(k) sigma^{lin}_{P_1(k)} P_2(k) sigma^{lin}_{P_2(k)} P^img_3(k) sigma^{lin}_{P_3(k)} P_4(k) sigma^{lin}_{P_4(k)} N_modes
### header ###
0.00050000 0 0 0 0 0 0 0 0 0 0 0 0
0.00150000 0.00179520 24569.81436780 0 -26936.98300524 0 1526.19935300 0 46952.19810335 0 93596.40237667 0 3
0.00250000 0.00253879 44828.05233471 0 -26299.30088927 0 10697.65985678 0 -26522.20299327 0 -65065.15787825 0 6
0.00350000 0.00331552 65981.38331934 0 -21123.76807320 0 20069.17022162 0 -3092.49410716 0 39572.59849195 0 7
0.00450000 0.00420575 87836.24331608 0 -13037.01912431 0 34372.22383776 0 -6334.54507229 0 5198.28389315 0 24
0.00550000 0.00557378 94392.12804192 0 1646.85649795 0 46372.51774515 0 13230.47072339 0 34624.68885318 0 45
0.00650000 0.00659388 103498.51641862 0 3280.60639714 0 34836.57511946 0 53547.31270024 0 -63503.15705268 0 40
0.00750000 0.00754703 83903.81406435 0 2551.36918097 0 22873.71257900 0 35860.93562057 0 -20786.99817730 0 57
0.00850000 0.00846663 94874.46436478 0 -2526.66223066 0 7676.44271591 0 20965.83693043 0 -36442.41448289 0 75
0.00950000 0.00948925 85122.07579058 0 843.48606614 0 -9222.68414916 0 -6649.37321797 0 -37029.73848358 0 112
0.01050000 0.01054430 95401.98810359 0 1652.22952900 0 1000.85292824 0 -48009.38130460 0 -54060.44840611 0 105
0.01150000 0.01145670 95144.35238884 0 1560.49457838 0 5009.94679015 0 -36373.05966788 0 -26139.34642937 0 144
0.01250000 0.01249090 108240.83455551 0 -3736.29113712 0 36477.82253269 0 -22140.37252531 0 -25419.49515656 0 169
0.01350000 0.01339930 113880.15662074 0 -1577.18694472 0 28532.36856349 0 3446.11373850 0 -11756.82141256 0 180
0.01450000 0.01448870 127601.61896807 0 -1019.21677934 0 71502.67855189 0 14762.23419850 0 12406.75583782 0 267
0.01550000 0.01550050 135182.31382105 0 7422.66254435 0 67508.31331464 0 42974.69384219 0 -11217.52871244 0 238
0.01650000 0.01653350 124857.77612463 0 12653.48812137 0 82301.00967662 0 37755.99692731 0 50573.26132983 0 315
0.01750000 0.01747870 110464.34767661 0 14288.55317670 0 60394.21787350 0 46426.13564914 0 46670.05777000 0 297
0.01850000 0.01844180 98054.10723706 0 13870.17615649 0 72721.61471716 0 27512.16710314 0 78121.73573484 0 388
0.01950000 0.01947590 83915.72915413 0 12106.51805680 0 47809.97216063 0 34676.62065956 0 43761.08976733 0 399
0.02050000 0.02045430 74233.81946000 0 7009.22016982 0 43888.22152710 0 15897.53992233 0 44547.26087945 0 462
0.02150000 0.02154770 67852.50204002 0 2839.59070636 0 29790.75941282 0 -967.12760385 0 28806.07840879 0 571
0.02250000 0.02255340 69509.37395777 0 518.88080246 0 36516.04074518 0 -11850.90565918 0 2872.64946016 0 510
0.02350000 0.02348930 66741.36371526 0 -181.65566020 0 24358.82735358 0 -13012.96413175 0 -6619.49556832 0 555
0.02450000 0.02439640 68942.84516092 0 -489.33137982 0 33139.68648511 0 -11618.33659555 0 -21883.52365611 0 592
0.02550000 0.02547300 69749.47425738 0 322.62241289 0 22228.04960101 0 -2111.06165118 0 -31019.02531820 0 837
0.02650000 0.02652900 68183.98883008 0 2099.47254028 0 21943.32391800 0 3916.04038296 0 -43431.73870091 0 723
0.02750000 0.02749970 66107.50342054 0 2898.31186578 0 15303.24671819 0 8818.86377165 0 -32092.39505650 0 826
0.02850000 0.02848090 61567.06737077 0 3333.81963770 0 12682.71381327 0 7067.52542516 0 -38648.39218884 0 831
0.02950000 0.02946900 59653.23417731 0 2536.64392851 0 11343.39027867 0 4297.26705251 0 -22473.54541298 0 996
0.03050000 0.03053250 60065.09162009 0 -130.25778474 0 19327.84930591 0 3916.40008379 0 -14406.35519636 0 1041
0.03150000 0.03150510 61647.32561699 0 -1346.52879172 0 11841.01388653 0 -630.64546861 0 -8685.75198569 0 1036
0.03250000 0.03246190 64679.04152564 0 -50.63047624 0 30036.25522479 0 5631.31872191 0 11010.35227881 0 1059
0.03350000 0.03345080 64017.41682362 0 960.73504578 0 15495.46184569 0 -1276.49953766 0 139.55942322 0 1302
0.03450000 0.03451200 64508.07122803 0 1686.10885030 0 29669.24797842 0 10574.95691340 0 26499.15965927 0 1339
0.03550000 0.03553350 60661.74536090 0 2797.16849050 0 18495.70393229 0 7519.63563821 0 9559.97111499 0 1365
0.03650000 0.03647120 59444.04566721 0 2599.63653521 0 18786.72437972 0 8653.50255875 0 14467.05471031 0 1308
0.03750000 0.03744890 55090.76645211 0 3027.53438658 0 13078.83434503 0 1069.15337021 0 3807.14095868 0 1579
0.03850000 0.03847530 51183.85347754 0 2184.89024519 0 15094.05820808 0 -3609.40667167 0 10051.17631129 0 1662
0.03950000 0.03950240 49321.05283840 0 4411.02243790 0 14396.35101721 0 -6799.33473937 0 5364.45443291 0 1683
0.04050000 0.04050350 45770.35608549 0 3607.79925862 0 21583.39828159 0 -4291.29826697 0 4848.90198713 0 1822
0.04150000 0.04152450 43502.32998750 0 4108.80630235 0 23469.12984822 0 -3612.22807501 0 1975.94902940 0 1887
0.04250000 0.04250150 41213.84590518 0 3278.42571090 0 26328.86380069 0 1092.22255771 0 1471.70467826 0 1920
0.04350000 0.04349210 39068.34290015 0 510.57058937 0 27287.69130805 0 4125.97077602 0 3902.11321671 0 2005
0.04450000 0.04448520 39565.06725596 0 -1286.69480788 0 23670.22508980 0 5371.79457783 0 1162.60926446 0 2151
0.04550000 0.04548030 40601.56765986 0 -2271.97156640 0 17458.75390236 0 5141.27131264 0 1880.40349818 0 2274
0.04650000 0.04648670 43292.91666438 0 -2567.27470175 0 17316.33485760 0 6268.16902973 0 2323.97081668 0 2311
0.04750000 0.04749250 43289.54446916 0 -281.37259690 0 13258.12272419 0 -274.18644889 0 -2334.87424789 0 2568
0.04850000 0.04851840 44188.00968209 0 1493.48905937 0 13954.70584999 0 415.28134500 0 1591.86723457 0 2493
0.04950000 0.04949480 42166.26624162 0 1148.20999087 0 16385.27175755 0 -2690.42727116 0 -2291.56402062 0 2644
0.05050000 0.05050630 42195.04230749 0 1250.40998732 0 16714.06079143 0 -1036.42733967 0 4730.84143250 0 2829
0.05150000 0.05149060 43278.64103795 0 -398.25850353 0 20801.72342976 0 847.56754642 0 -1980.95111897 0 2784
0.05250000 0.05249300 42905.45143369 0 -497.94846267 0 16899.86874802 0 539.30956110 0 -1132.05717577 0 3055
0.05350000 0.05348950 42774.49785267 0 416.06706648 0 16626.27130922 0 461.56584845 0 -7565.66610295 0 3009
0.05450000 0.05448610 42095.78736153 0 1234.78548280 0 14963.55425310 0 -1841.80310357 0 -4354.12226390 0 3336
0.05550000 0.05550870 40592.91235880 0 1413.00600014 0 13648.73533709 0 -684.68377294 0 -8590.18397318 0 3349
0.05650000 0.05647670 40523.10791776 0 925.81933648 0 15483.20953639 0 663.87283217 0 -8238.92487849 0 3324
0.05750000 0.05747970 40240.18073886 0 427.77870048 0 16810.61798121 0 823.73399467 0 -5658.86955685 0 3639
0.05850000 0.05849280 39655.89171386 0 952.33041123 0 16960.68066847 0 3111.28847518 0 -4115.10106676 0 3846
0.05950000 0.05951020 39335.64557454 0 953.05543320 0 19210.15969276 0 2635.96631837 0 4859.54688337 0 3787
0.06050000 0.06049470 37590.98417458 0 1380.43059432 0 16074.91739087 0 4446.41924706 0 4170.45003096 0 3930
0.06150000 0.06148310 37635.72196449 0 1492.44367886 0 20347.93835975 0 4623.44825542 0 12038.39971337 0 4083
0.06250000 0.06249100 35885.66505218 0 1137.31780031 0 16828.82783540 0 3890.13068303 0 10991.72652055 0 4303
0.06350000 0.06350600 35015.97590513 0 1259.31258269 0 15588.19721422 0 3346.42040717 0 10549.78909641 0 4470
0.06450000 0.06451750 34217.44007720 0 852.40439843 0 14898.69569838 0 -931.44528217 0 9261.76789175 0 4479
0.06550000 0.06550280 32183.55673393 0 583.75397002 0 13144.81696482 0 -1585.56122951 0 5136.92118081 0 4636
0.06650000 0.06648880 32539.77295560 0 587.25318459 0 14017.42868107 0 -1584.66197745 0 4439.80974443 0 4653
0.06750000 0.06749660 31792.38208849 0 798.05810027 0 12896.62339668 0 -2029.22971386 0 1336.46840931 0 5220
0.06850000 0.06852730 30456.43074911 0 1025.82066165 0 14736.38070182 0 646.73083981 0 229.96010859 0 5029
0.06950000 0.06949320 29220.29638823 0 1045.56486465 0 12846.15287490 0 -34.83455180 0 -1629.92807795 0 5040
0.07050000 0.07048030 28551.25285672 0 580.70213335 0 14033.84003114 0 1704.70088661 0 -799.27433868 0 5475
0.07150000 0.07148790 28457.95545565 0 -69.96473272 0 12074.93182825 0 1856.60704059 0 -950.63532110 0 5509
0.07250000 0.07249820 28352.51815179 0 -404.59823054 0 10564.09844479 0 2659.97634833 0 6.58006337 0 5916
0.07350000 0.07351270 28189.64112270 0 292.50196519 0 10754.03172020 0 2059.95041231 0 -659.86104393 0 5721
0.07450000 0.07449140 28031.26035390 0 1032.07945597 0 9072.77883101 0 1673.28326782 0 1605.15368373 0 6028
0.07550000 0.07549160 26835.81714866 0 1015.02738881 0 9063.59521936 0 1170.56764517 0 4551.77786636 0 6183
0.07650000 0.07648840 26320.99534518 0 335.39404025 0 7574.15279425 0 1757.05983771 0 4341.04938710 0 6330
0.07750000 0.07749960 26292.89371835 0 -596.55369901 0 8555.59649088 0 2824.33714332 0 5006.94553641 0 6583
0.07850000 0.07848650 26763.09013843 0 -964.92668444 0 6869.45391863 0 2512.21799447 0 5657.57688202 0 6549
0.07950000 0.07947320 27288.92777963 0 -134.13131298 0 7502.51612715 0 660.02403336 0 5242.51585378 0 6828
0.08050000 0.08048110 27265.32241309 0 238.75029746 0 6106.56219417 0 -26.89786554 0 4728.14367633 0 7147
0.08150000 0.08149960 26770.17174839 0 942.75000461 0 6636.16545336 0 -1494.18597972 0 4444.60950229 0 7386
0.08250000 0.08250610 25686.79783094 0 1244.69973674 0 6465.33004355 0 -507.35576326 0 3883.45373650 0 7227
0.08350000 0.08350160 25191.53475973 0 1233.14434779 0 7778.65395300 0 -1641.62959536 0 4549.85571508 0 7798
0.08450000 0.08449610 23898.85992567 0 913.19046539 0 7731.44321993 0 377.38911138 0 3327.95201802 0 7371
0.08550000 0.08548940 23553.20991569 0 686.06862111 0 8367.69777326 0 -36.72388038 0 2212.51976468 0 8256
0.08650000 0.08650700 23281.07376149 0 65.53557911 0 8460.57927025 0 -79.12440178 0 2930.46012687 0 8037
0.08750000 0.08749060 23496.66944251 0 246.63111769 0 10263.53468490 0 -521.37510286 0 2473.90985678 0 8155
0.08850000 0.08849210 23257.01876893 0 204.39100037 0 9110.97456220 0 -570.09657938 0 2304.76054458 0 8718
0.08950000 0.08949900 22930.02823916 0 478.95738326 0 10007.00055392 0 -484.46417805 0 2845.60445450 0 8571
0.09050000 0.09049190 23101.44816281 0 702.01573230 0 10707.57411072 0 87.68494416 0 3144.74065176 0 8932
0.09150000 0.09150830 22385.75593077 0 266.51470477 0 9956.13660936 0 1444.78331976 0 3110.64775809 0 9285
0.09250000 0.09250820 22087.87868640 0 314.34704582 0 9254.46146878 0 1946.55472774 0 2498.09973715 0 9204
0.09350000 0.09350330 21548.32745131 0 185.93160374 0 8448.29323900 0 891.93439485 0 2070.80888092 0 9349
0.09450000 0.09448040 21069.58813668 0 461.44557348 0 8197.91898462 0 744.40535027 0 1963.69672010 0 9564
0.09550000 0.09549270 20464.50390783 0 736.14122385 0 6984.58066341 0 -169.64614896 0 2058.42168381 0 10155
0.09650000 0.09649430 20193.26700569 0 619.75552618 0 7743.51567882 0 -328.03591028 0 2346.92422547 0 9913
0.09750000 0.09749140 19380.45555133 0 769.14377440 0 7588.76564021 0 -690.13099228 0 1836.29518472 0 10476
0.09850000 0.09850240 18837.86934055 0 572.53130433 0 7346.46217305 0 175.76555922 0 717.50984527 0 10575
0.09950000 0.09950330 18171.74837823 0 570.27867793 0 8064.87464257 0 -43.80290499 0 352.90585002 0 10882
0.10050000 0.10051200 17929.39994847 0 374.02590868 0 7500.47032871 0 613.57766454 0 570.60240867 0 10875
0.10150000 0.10150300 17547.77985615 0 58.80242932 0 8164.80402757 0 1105.45055549 0 1050.94126790 0 11118
0.10250000 0.10250800 17667.15556691 0 -210.41374103 0 7124.41435851 0 1294.28224712 0 1346.22529415 0 11575
0.10350000 0.10349800 17984.14191753 0 -185.87427642 0 6927.91654308 0 1271.75598305 0 732.18451479 0 11364
0.10450000 0.10450100 17800.69449760 0 56.06881547 0 6183.07730369 0 834.86448703 0 2129.24902407 0 12093
0.10550000 0.10551000 17601.39776014 0 199.27425616 0 5645.81916135 0 596.55707120 0 1926.05178080 0 12067
0.10650000 0.10649700 17517.09287965 0 434.77488149 0 5479.24395817 0 72.88584062 0 2823.02198718 0 12054
0.10750000 0.10749900 16890.42660140 0 508.55626476 0 5129.67096109 0 365.15029087 0 1238.16891867 0 12807
0.10850000 0.10850100 16551.07135583 0 585.41533820 0 5384.91241724 0 40.38687123 0 2281.79589514 0 12736
0.10950000 0.10950300 15729.49219391 0 606.90296614 0 4770.06006290 0 420.12943766 0 918.34205562 0 12933
0.11050000 0.11050200 15429.70403891 0 420.12606546 0 4564.96314966 0 392.47968499 0 1811.31845879 0 13428
0.11150000 0.11150900 14878.68734008 0 272.91625536 0 3511.26455014 0 780.83629929 0 1448.52645645 0 13453
0.11250000 0.11250000 14732.89610010 0 41.12909140 0 3552.70882939 0 895.50667366 0 1150.31199256 0 13668
0.11350000 0.11349100 14633.52874763 0 61.13025568 0 2463.30992314 0 367.22531499 0 1671.36111654 0 13791
0.11450000 0.11448600 14539.89412704 0 122.11393328 0 2752.35201604 0 -97.75173373 0 1252.24221338 0 14205
0.11550000 0.11549300 14638.81185348 0 85.46030697 0 3127.28392117 0 -707.36740611 0 1168.54432804 0 14776
0.11650000 0.11649800 14662.19240700 0 46.27067745 0 3298.78252937 0 -601.82781233 0 760.40416845 0 14553
0.11750000 0.11747300 14715.36068496 0 -70.03487438 0 4128.08401835 0 -780.93521702 0 1017.14287928 0 14568
0.11850000 0.11849100 14915.55667447 0 -4.76830652 0 4366.14976019 0 -529.78760586 0 580.33231594 0 16015
0.11950000 0.11950300 15246.93105802 0 65.63573331 0 4959.76852529 0 8.11804292 0 485.15547807 0 15270
0.12050000 0.12050700 15062.69679254 0 154.60615828 0 4912.42290441 0 -50.13791093 0 144.29623343 0 15999
0.12150000 0.12150000 15118.00079414 0 236.64379951 0 5426.17684607 0 316.51087109 0 860.19529345 0 15670
0.12250000 0.12250700 14689.61959478 0 332.95594311 0 5090.95815997 0 298.89564733 0 494.03896434 0 16887
0.12350000 0.12352200 14640.72276410 0 225.32783642 0 5139.63017764 0 516.09424514 0 606.12061685 0 16407
0.12450000 0.12449800 14252.35828135 0 204.10998410 0 4938.32136369 0 698.33666731 0 728.53017924 0 16306
0.12550000 0.12549900 14071.94583711 0 186.10470976 0 4452.44423585 0 589.34057344 0 791.87799050 0 17523
0.12650000 0.12650100 14008.88578651 0 269.09668224 0 4383.41539971 0 238.20737403 0 616.71830236 0 17154
0.12750000 0.12750600 13543.41043974 0 419.26053535 0 4283.58718057 0 -40.96587715 0 355.07417155 0 18007
0.12850000 0.12850300 13201.13262498 0 493.68375978 0 4103.52319651 0 -537.41663551 0 590.05435476 0 17496
0.12950000 0.12949900 12877.73910345 0 309.92609789 0 4380.91997525 0 19.51320764 0 135.23289675 0 18405
0.13050000 0.13049000 12668.43818684 0 235.77826941 0 4415.65358600 0 -31.00823429 0 -170.06317710 0 18100
0.13150000 0.13148800 12349.87814513 0 136.17935954 0 3816.62806790 0 473.66640896 0 -315.46099431 0 19059
0.13250000 0.13249300 12339.08712042 0 115.09527096 0 3821.19177210 0 734.81145487 0 -420.75666597 0 18957
0.13350000 0.13349100 12010.52289956 0 63.74707917 0 2872.46960975 0 634.57070385 0 -411.94062360 0 19468
0.13450000 0.13450700 12092.24243037 0 24.25552577 0 2798.51736859 0 755.18738245 0 -316.06124506 0 19953
0.13550000 0.13551000 11906.65928680 0 -97.74982282 0 2389.87475192 0 411.87430376 0 -239.17969032 0 19956
0.13650000 0.13649900 12127.53807367 0 -96.03270102 0 2112.61286099 0 250.38549503 0 1.03474012 0 19723
0.13750000 0.13749600 12297.04708669 0 -64.48873731 0 2053.39711293 0 242.10450764 0 -454.23694417 0 20946
0.13850000 0.13851100 12461.49780688 0 22.62664308 0 2195.77119509 0 -442.02060496 0 -19.80209236 0 20955
0.13950000 0.13949800 12290.30269625 0 231.91822995 0 2546.98532718 0 -128.82460177 0 -115.69889391 0 20506
0.14050000 0.14048300 12232.30093848 0 369.59821636 0 2822.57236115 0 -314.46956892 0 537.76734382 0 21447
0.14150000 0.14148400 11874.06139968 0 285.68675865 0 2849.53868226 0 173.17571329 0 348.22636713 0 21771
0.14250000 0.14249400 11856.86320406 0 211.54679863 0 2691.19163541 0 449.10446305 0 744.17379286 0 22470
0.14350000 0.14350900 11499.63532383 0 110.06800233 0 2544.81588159 0 615.75497859 0 191.15625820 0 22519
0.14450000 0.14449900 11414.88081732 0 145.77775120 0 2223.73793411 0 363.36302740 0 608.44967968 0 22218
0.14550000 0.14550500 11251.89138172 0 241.68523137 0 2251.97444875 0 -166.57295505 0 497.69779616 0 23559
0.14650000 0.14650700 11010.34103816 0 310.73430068 0 2408.79276710 0 -626.46507060 0 437.99420386 0 23044
0.14750000 0.14750500 10919.26928594 0 261.32714445 0 3109.04034503 0 -568.49366259 0 950.34306418 0 23649
0.14850000 0.14849900 10696.62571691 0 -4.05105184 0 3175.79856973 0 -636.53332146 0 405.74702505 0 23640
0.14950000 0.14949500 10976.54040142 0 -32.39094674 0 3970.43389185 0 -123.22563364 0 1048.32781660 0 24457
0.15050000 0.15050000 11057.31571757 0 -271.70001695 0 3764.90983389 0 275.99506959 0 484.54061448 0 24591
0.15150000 0.15149900 11192.97913124 0 -4.03115589 0 3872.30301097 0 156.66319737 0 711.67707160 0 25020
0.15250000 0.15250500 11199.74600298 0 185.95408504 0 3883.65606821 0 243.14764003 0 549.54866985 0 25297
0.15350000 0.15350100 10780.88563479 0 377.04402340 0 3382.66026513 0 206.97072971 0 395.48880719 0 25452
0.15450000 0.15450400 10533.61380001 0 365.16377965 0 3227.34819398 0 384.18071255 0 693.72238019 0 26061
0.15550000 0.15549900 10266.92936142 0 165.23868981 0 2671.89143811 0 568.33966567 0 389.66277792 0 26128
0.15650000 0.15649500 10024.98559509 0 20.82150698 0 2533.86748778 0 697.24857232 0 700.58367339 0 26331
0.15750000 0.15749700 10078.65970233 0 -93.49995759 0 2091.73897258 0 775.16988726 0 368.02677339 0 27345
0.15850000 0.15849900 10125.69058498 0 40.50523528 0 1997.85705767 0 209.81124215 0 654.05637189 0 26980
0.15950000 0.15949700 9980.94472552 0 210.08551403 0 1756.12686370 0 -134.17627558 0 573.18551020 0 27777
0.16050000 0.16050000 9763.73039080 0 292.41316405 0 2010.92993447 0 -252.24357460 0 725.36481200 0 28224
0.16150000 0.16150500 9609.16020259 0 330.65947816 0 2181.67541908 0 -291.14297052 0 919.29863499 0 28075
0.16250000 0.16249700 9359.86505068 0 232.92651632 0 2440.13170133 0 -221.20588980 0 561.13778075 0 28590
0.16350000 0.16349900 9248.47020194 0 169.03353350 0 2529.28130228 0 -114.93790185 0 604.05121305 0 29163
0.16450000 0.16449100 9085.34587853 0 122.68495834 0 2557.27052260 0 -178.31381474 0 -60.69962635 0 28996
0.16550000 0.16550500 9096.12566258 0 107.27177806 0 2615.96920072 0 -138.05654821 0 353.78711704 0 30777
0.16650000 0.16650700 8937.76737508 0 75.70308492 0 2598.95085551 0 -68.67082141 0 -333.01439449 0 29211
0.16750000 0.16749900 8956.57298376 0 95.31363659 0 2688.58380444 0 -165.35784071 0 108.06817816 0 30922
0.16850000 0.16850800 8850.70853517 0 101.16372086 0 2795.31378313 0 84.99831623 0 -168.77612260 0 30867
0.16950000 0.16949900 8796.84333687 0 83.46655275 0 2701.38690562 0 186.58243742 0 -91.63558326 0 30852
0.17050000 0.17049200 8795.68554984 0 34.12830172 0 2717.98934675 0 -41.61176494 0 -180.56082082 0 31257
0.17150000 0.17149500 8725.81366490 0 122.86368468 0 2751.49772658 0 262.11174188 0 -424.03219159 0 32608
0.17250000 0.17250900 8642.21694541 0 109.19156879 0 2815.01864386 0 -15.60539541 0 -132.25637244 0 32361
0.17350000 0.17350400 8457.81407017 0 143.95226952 0 2443.43645265 0 197.00027252 0 -344.58439629 0 32508
0.17450000 0.17449800 8401.46468806 0 54.25918311 0 2598.84968966 0 226.30352491 0 -62.66235638 0 32791
0.17550000 0.17549800 8342.19273675 0 93.56200599 0 2294.12688899 0 320.76096113 0 -219.81879350 0 33633
0.17650000 0.17650100 8203.82032625 0 72.26086044 0 2233.35993114 0 444.81840292 0 255.27742623 0 33984
0.17750000 0.17750300 8141.50215860 0 167.96229948 0 1885.88893574 0 400.12107936 0 153.18309190 0 34069
