### header ###
fiducial parameters:
Omega_m = 0.31
Omega_nu = 0
Omega_de = 0.69
Omega_k = 0
H_0 = 100
w_de = -1
zeff = 0
beta = 0
fgrowth = 0
b_1 = 2
gamma = 0.55
Lx = 3500 Ly = 3500 Lz = 3500
nx = 700 ny = 700 nz = 700
xoffset = 857.220397 yoffset = 15.9954215 zoffset = 262.898189
bins = 400 dk = 0.001
kx_ny = 0.628318531 ky_ny = 0.628318531 kz_ny = 0.628318531
############################
A(data) = 3.10391251 (not used)
A(ran) = 3.10169839 (used)
Ngal = 189354
weighted Ngal = 0
Nran = 9360983
weighted Nran = 0
SN(data) = 3457.29032
SN(ran) = 69.652489
SN(data+ran) = 3526.94281
############################
13 columns: k_central k_mean P_0(k) sigma^{lin}_{P_0(k)} P^img_1(k) sigma^{lin}_{P_1(k)} P_2(k) sigma^{lin}_{P_2(k)} P^img_3(k) sigma^{lin}_{P_3(k)} P_4(k) sigma^{lin}_{P_4(k)} N_modes
### header ###
0.00050000 0 0 0 0 0 0 0 0 0 0 0 0
0.00150000 0.00179520 4936.00578964 0 -8165.37730075 0 -5731.42795732 0 -6529.68276898 0 -46137.70055138 0 3
0.00250000 0.00253879 17398.72882746 0 -17258.78272586 0 -10357.11310223 0 7106.54172385 0 48751.48906586 0 6
0.00350000 0.00331552 26626.29141904 0 -19822.77515760 0 -10391.54321542 0 -14310.24763261 0 -35780.67737435 0 7
0.00450000 0.00420575 43912.72614569 0 -18446.91950812 0 -10976.31558840 0 -20393.12577569 0 4991.51212295 0 24
0.00550000 0.00557378 58623.81538337 0 -12640.89859255 0 -5357.12552863 0 -19144.28947947 0 10880.88246370 0 45
0.00650000 0.00659388 75032.80491396 0 -3871.96579145 0 16578.49854362 0 -27220.35981017 0 18151.06558088 0 40
0.00750000 0.00754703 74298.56560821 0 -2766.43655140 0 23431.92329430 0 -9416.12450759 0 10569.62884495 0 57
0.00850000 0.00846663 81944.56864194 0 547.92664395 0 41678.98403243 0 -908.95386413 0 15099.56612694 0 75
0.00950000 0.00948925 83954.84661867 0 2034.10815628 0 57584.50481678 0 9431.08581371 0 25294.04949440 0 112
0.01050000 0.01054430 86964.41844539 0 -317.09650899 0 51309.29913970 0 12631.90607197 0 5333.80117836 0 105
0.01150000 0.01145670 86915.85883423 0 3429.38765022 0 61262.10851644 0 27695.61452307 0 23883.90986020 0 144
0.01250000 0.01249090 85386.90552180 0 3408.53624311 0 47257.83139673 0 24431.44195730 0 14384.32352093 0 169
0.01350000 0.01339930 84071.63697977 0 2343.82180587 0 41435.84875712 0 37164.40147934 0 46539.10418899 0 180
0.01450000 0.01448870 82834.71577333 0 1876.44678913 0 32332.83257564 0 26641.46629752 0 24684.24419224 0 267
0.01550000 0.01550050 82881.81409989 0 1244.58733024 0 3406.04081865 0 17917.37245219 0 9373.73601368 0 238
0.01650000 0.01653350 76657.19135110 0 2027.49865365 0 16116.28298556 0 13450.56266470 0 24156.60804693 0 315
0.01750000 0.01747870 75314.38321477 0 -14.28664227 0 9179.69990077 0 -8182.49681182 0 23200.92792178 0 297
0.01850000 0.01844180 79788.61183174 0 -3891.65941153 0 9542.84036328 0 -1615.36019460 0 25264.03695695 0 388
0.01950000 0.01947590 79478.03265204 0 -805.88271725 0 13838.58992794 0 -7333.73775642 0 -2353.15154598 0 399
0.02050000 0.02045430 85496.05224040 0 -3615.70143608 0 8379.41053132 0 3919.44630014 0 -5203.39838923 0 462
0.02150000 0.02154770 86547.95233580 0 1110.48749108 0 15138.90840450 0 -9057.68263708 0 -15754.89606456 0 571
0.02250000 0.02255340 85499.53684212 0 6150.85035805 0 9688.24942114 0 -10651.37085707 0 -20089.17857992 0 510
0.02350000 0.02348930 78290.00827628 0 8229.37032536 0 9274.45858643 0 -1371.88769977 0 -13806.77888637 0 555
0.02450000 0.02439640 73070.18729633 0 7188.55351158 0 15959.92553389 0 1891.58794566 0 -19031.54575264 0 592
0.02550000 0.02547300 67807.08981107 0 6137.53018693 0 13437.29869684 0 6643.91026171 0 -10670.08654054 0 837
0.02650000 0.02652900 61345.73895788 0 4637.21805256 0 13991.12555836 0 7435.60053334 0 -13725.95860761 0 723
0.02750000 0.02749970 57625.08356592 0 4350.87371584 0 15462.18951952 0 3512.83824124 0 -3433.99631702 0 826
0.02850000 0.02848090 52387.27754480 0 3458.81567383 0 9839.61602388 0 1066.79845389 0 -8209.67670528 0 831
0.02950000 0.02946900 50479.96392876 0 2587.01328444 0 22124.07358175 0 663.64464696 0 -10623.96615059 0 996
0.03050000 0.03053250 49580.03743124 0 964.59958150 0 15074.72428882 0 -2604.06535160 0 -6326.86770784 0 1041
0.03150000 0.03150510 48942.46772178 0 -1141.96018906 0 16728.56123088 0 2291.68766778 0 -13567.46543231 0 1036
0.03250000 0.03246190 50518.85658029 0 -2202.78536115 0 15327.18930424 0 4135.01949985 0 -2860.75685169 0 1059
0.03350000 0.03345080 54113.27946454 0 -3835.29878876 0 13937.95728040 0 7012.50243983 0 -6591.37146019 0 1302
0.03450000 0.03451200 56166.49672707 0 -850.04498584 0 14873.51664074 0 4513.42476606 0 3330.63853354 0 1339
0.03550000 0.03553350 57416.00746232 0 2036.50241489 0 12522.87175988 0 -257.85603151 0 7821.28974123 0 1365
0.03650000 0.03647120 55438.77699874 0 4764.03507411 0 19414.06509702 0 137.98910431 0 16548.48600617 0 1308
0.03750000 0.03744890 53469.86461670 0 3572.98696331 0 22851.90571658 0 1049.13939159 0 21226.50762088 0 1579
0.03850000 0.03847530 50930.82642958 0 945.07457118 0 26293.11853137 0 -238.58168770 0 16466.31684932 0 1662
0.03950000 0.03950240 50091.59944601 0 277.43050069 0 23392.13139071 0 2514.34247746 0 9449.82397848 0 1683
0.04050000 0.04050350 49297.44747186 0 561.52445914 0 24242.59902502 0 129.62268797 0 6601.88146863 0 1822
0.04150000 0.04152450 48915.37775352 0 1405.04761942 0 16972.93297777 0 3105.19604248 0 -739.03906361 0 1887
0.04250000 0.04250150 46430.40709642 0 2027.85835447 0 15989.48844531 0 -291.79380420 0 -4340.57727977 0 1920
0.04350000 0.04349210 44322.33545833 0 1063.17221996 0 10663.57820376 0 -472.12868794 0 -6111.78909676 0 2005
0.04450000 0.04448520 43846.63111939 0 440.79762216 0 13579.83014811 0 1894.60044006 0 -10266.56966060 0 2151
0.04550000 0.04548030 44640.10865449 0 -335.00398967 0 12005.23979371 0 -1358.27527173 0 -6584.62706976 0 2274
0.04650000 0.04648670 45522.27492386 0 -27.38840754 0 17471.68065070 0 -1903.89645821 0 -5511.94301115 0 2311
0.04750000 0.04749250 46140.84793359 0 1122.00128962 0 19930.23577858 0 -1607.19948217 0 -3341.90166558 0 2568
0.04850000 0.04851840 44705.07961572 0 2162.46514698 0 23254.88304529 0 1853.26856732 0 -1068.96227915 0 2493
0.04950000 0.04949480 44073.57985765 0 2542.34293843 0 23048.50469787 0 1356.47676761 0 353.21721605 0 2644
0.05050000 0.05050630 41732.37712340 0 1718.08850163 0 25814.71643626 0 3274.71629616 0 4660.72225324 0 2829
0.05150000 0.05149060 40840.54389440 0 2228.66133913 0 23935.72926007 0 4148.99162871 0 6285.45715055 0 2784
0.05250000 0.05249300 38023.18719519 0 741.89980922 0 21896.22559143 0 3917.18692934 0 3314.95782578 0 3055
0.05350000 0.05348950 38206.52220861 0 748.73300080 0 18192.76839509 0 3842.68389629 0 3767.83240308 0 3009
0.05450000 0.05448610 38536.77252709 0 -279.08624854 0 17166.04735733 0 3406.54664793 0 4703.22315366 0 3336
0.05550000 0.05550870 37777.35416370 0 -598.28363516 0 13487.43199910 0 1917.31779519 0 2614.21565921 0 3349
0.05650000 0.05647670 37773.19512293 0 133.77273622 0 12878.07632297 0 3253.84240775 0 76.43743663 0 3324
0.05750000 0.05747970 38384.79892920 0 132.10237552 0 12089.31986118 0 1335.67032311 0 2231.26917010 0 3639
0.05850000 0.05849280 35690.86457501 0 999.06004445 0 10637.11771194 0 623.32106060 0 -509.56904739 0 3846
0.05950000 0.05951020 37188.34406540 0 1139.74578087 0 13197.76042976 0 687.17470114 0 3294.23006583 0 3787
0.06050000 0.06049470 34074.23418688 0 1288.23477703 0 10101.26465095 0 392.49542190 0 -355.14386359 0 3930
0.06150000 0.06148310 33581.10683931 0 2006.34374897 0 11808.41599941 0 1598.78023477 0 3050.19553846 0 4083
0.06250000 0.06249100 30715.97737449 0 1402.63087951 0 10242.66079649 0 531.75134755 0 2533.21553004 0 4303
0.06350000 0.06350600 30490.04029480 0 916.60200288 0 9089.11149652 0 2708.54720014 0 588.60768301 0 4470
0.06450000 0.06451750 29178.25635449 0 344.93510459 0 8674.46637236 0 401.14397857 0 -462.63258620 0 4479
0.06550000 0.06550280 29272.34060111 0 396.83206495 0 7011.90668534 0 -1081.32025056 0 -602.70795528 0 4636
0.06650000 0.06648880 28953.21852686 0 -373.39530818 0 7319.23731698 0 -1538.10320212 0 -1033.49915016 0 4653
0.06750000 0.06749660 29618.66505013 0 21.63476806 0 8510.55520340 0 -2675.87062846 0 -2505.94571136 0 5220
0.06850000 0.06852730 29999.72310991 0 -92.83226294 0 10657.50825237 0 -1779.64230503 0 -2835.28553713 0 5029
0.06950000 0.06949320 30154.39446397 0 567.42692484 0 13850.61742422 0 -1436.49896017 0 -2304.46828766 0 5040
0.07050000 0.07048030 30099.98971443 0 1173.56889892 0 15290.88200238 0 -1554.59323675 0 402.14664462 0 5475
0.07150000 0.07148790 29921.71299384 0 831.94641410 0 18042.93052085 0 -183.20124968 0 2160.73408676 0 5509
0.07250000 0.07249820 29536.83311281 0 645.41793180 0 19203.52770883 0 798.89552875 0 3734.60503952 0 5916
0.07350000 0.07351270 29239.29308796 0 412.60157386 0 18759.74681797 0 1857.22527638 0 4816.85489190 0 5721
0.07450000 0.07449140 28873.07268715 0 132.93305961 0 19396.41727537 0 2102.63116314 0 5649.84331432 0 6028
0.07550000 0.07549160 28971.09116152 0 143.48241032 0 15455.22031607 0 3492.68375448 0 5061.59758026 0 6183
0.07650000 0.07648840 28579.80410957 0 -108.24173381 0 15141.04412814 0 3220.17665881 0 4487.06544010 0 6330
0.07750000 0.07749960 28042.27619162 0 -141.02070781 0 10575.55266789 0 4556.04931363 0 2902.08872443 0 6583
0.07850000 0.07848650 27428.64906821 0 80.84455856 0 7295.77807890 0 3221.96392228 0 1614.39349864 0 6549
0.07950000 0.07947320 26690.58794122 0 505.70001541 0 4778.94017698 0 2016.98864522 0 1366.34605895 0 6828
0.08050000 0.08048110 25997.93904317 0 343.65367041 0 3011.08931456 0 1873.51297929 0 1653.78073880 0 7147
0.08150000 0.08149960 25589.00416958 0 179.51656437 0 1228.32210863 0 655.95716593 0 621.05382134 0 7386
0.08250000 0.08250610 25166.35570209 0 37.37415202 0 1459.13763074 0 180.09096162 0 -329.43424723 0 7227
0.08350000 0.08350160 25531.67685085 0 401.83527859 0 2490.24252229 0 -1086.54827722 0 -433.99365627 0 7798
0.08450000 0.08449610 25364.30356147 0 821.58927851 0 3294.89326422 0 -1826.38093077 0 305.03304263 0 7371
0.08550000 0.08548940 24875.22284816 0 578.00437717 0 4931.97039603 0 -1507.42746628 0 626.68988362 0 8256
0.08650000 0.08650700 24510.35132543 0 728.73138689 0 5709.13774692 0 -1223.18513124 0 229.31264711 0 8037
0.08750000 0.08749060 24426.27125797 0 582.83223666 0 6664.25583953 0 435.38524883 0 619.11818129 0 8155
0.08850000 0.08849210 23318.39272192 0 857.55711272 0 6620.42854233 0 115.93269944 0 -185.96420163 0 8718
0.08950000 0.08949900 22860.33620463 0 845.59706035 0 7530.38170031 0 -290.78439376 0 168.60526470 0 8571
0.09050000 0.09049190 21923.31555970 0 629.60908061 0 6569.69948558 0 333.74391272 0 -184.38826240 0 8932
0.09150000 0.09150830 21613.97285158 0 375.59173133 0 7481.04648425 0 -110.28652058 0 -456.32320895 0 9285
0.09250000 0.09250820 21397.70273151 0 478.98211269 0 7165.91484101 0 -680.64388306 0 -672.44944868 0 9204
0.09350000 0.09350330 21268.32284160 0 553.70209029 0 9402.10741613 0 -616.43278983 0 700.80511421 0 9349
0.09450000 0.09448040 20760.35783507 0 618.88100356 0 8699.04967551 0 -1033.09223860 0 509.57691585 0 9564
0.09550000 0.09549270 20573.65062643 0 579.53198161 0 10625.69721080 0 -239.60233879 0 1195.57809305 0 10155
0.09650000 0.09649430 20203.60840436 0 531.03419403 0 10992.08622138 0 -70.35838031 0 1133.81071728 0 9913
0.09750000 0.09749140 19921.80529054 0 517.95457284 0 10682.42877504 0 579.10708501 0 1115.01747333 0 10476
0.09850000 0.09850240 19021.42916698 0 512.18474682 0 10611.82624780 0 858.74862170 0 777.81481237 0 10575
0.09950000 0.09950330 18799.42631505 0 602.09309169 0 9350.63647643 0 949.72482839 0 1161.88986281 0 10882
0.10050000 0.10051200 17995.60738127 0 321.35671562 0 8940.03798653 0 1446.49189867 0 -98.01813715 0 10875
0.10150000 0.10150300 18095.42435976 0 134.57981494 0 8086.78267084 0 733.30183548 0 1319.60743322 0 11118
0.10250000 0.10250800 17596.33946731 0 31.42604928 0 7492.71427971 0 979.48557527 0 533.98486485 0 11575
0.10350000 0.10349800 17846.33153957 0 106.24494461 0 7823.74020309 0 479.43173872 0 786.07556659 0 11364
0.10450000 0.10450100 17496.63489532 0 182.44025762 0 6672.34910806 0 465.40340661 0 764.24734694 0 12093
0.10550000 0.10551000 17607.91733756 0 153.17971971 0 7133.96891163 0 889.60758015 0 1088.59632378 0 12067
0.10650000 0.10649700 17357.02601325 0 367.18822084 0 6897.72415522 0 -87.69899497 0 1764.71472086 0 12054
0.10750000 0.10749900 16887.95365824 0 364.30049767 0 6516.31763526 0 772.68570344 0 344.73389694 0 12807
0.10850000 0.10850100 16431.13361253 0 511.53391314 0 5995.94295032 0 29.97386961 0 1133.22620344 0 12736
0.10950000 0.10950300 16019.61338927 0 298.99793725 0 5852.92815107 0 590.04873443 0 1024.54035153 0 12933
0.11050000 0.11050200 16080.98734226 0 103.37059781 0 5994.15568686 0 628.05674675 0 955.02142302 0 13428
0.11150000 0.11150900 15753.43477996 0 12.03615158 0 5489.97877962 0 545.50877997 0 164.65754817 0 13453
0.11250000 0.11250000 15842.34832724 0 99.53607463 0 5276.81107916 0 -37.62099671 0 -557.10013901 0 13668
0.11350000 0.11349100 15647.54785008 0 271.37066588 0 5615.36823852 0 -358.83416922 0 428.32162391 0 13791
0.11450000 0.11448600 15321.00694634 0 79.08562154 0 5234.34390069 0 28.32059470 0 201.12559133 0 14205
0.11550000 0.11549300 15446.67742151 0 -5.96616647 0 5368.71463953 0 371.44617934 0 505.95967444 0 14776
0.11650000 0.11649800 15467.36021886 0 -85.72176451 0 4723.95091360 0 975.03427758 0 -342.01365947 0 14553
0.11750000 0.11747300 15362.82216706 0 145.80248063 0 4741.19407182 0 331.73520844 0 -23.03299260 0 14568
0.11850000 0.11849100 15284.02520544 0 199.81830365 0 4468.91178917 0 -586.31571432 0 -29.47422269 0 16015
0.11950000 0.11950300 15200.73198352 0 312.46311276 0 4948.06700788 0 -215.10671271 0 350.94997680 0 15270
0.12050000 0.12050700 14939.49926053 0 282.32468002 0 4653.51699612 0 214.19509594 0 511.81380534 0 15999
0.12150000 0.12150000 14752.11761285 0 123.68874845 0 5076.49144248 0 124.54416197 0 -275.07446030 0 15670
0.12250000 0.12250700 14456.26368561 0 178.17218254 0 4810.84114375 0 199.25851925 0 -228.01097975 0 16887
0.12350000 0.12352200 14442.32527870 0 292.87627886 0 4270.25576880 0 242.73173595 0 -1181.80829590 0 16407
0.12450000 0.12449800 14013.83167283 0 341.59438319 0 4215.63744690 0 -68.68846923 0 -913.68392995 0 16306
0.12550000 0.12549900 13853.98961944 0 285.75982288 0 3792.65175989 0 237.65208588 0 -1554.79556846 0 17523
0.12650000 0.12650100 13544.87172434 0 247.96201074 0 3977.00967253 0 138.72424287 0 -1457.75503070 0 17154
0.12750000 0.12750600 13405.60006178 0 262.89521523 0 3521.67339272 0 112.43685707 0 -1680.67961600 0 18007
0.12850000 0.12850300 13285.43750547 0 258.63613267 0 3591.35418660 0 -97.81535582 0 -1417.47977913 0 17496
0.12950000 0.12949900 12984.18806588 0 174.35260942 0 3972.32232117 0 25.50964518 0 -1025.97353450 0 18405
0.13050000 0.13049000 13021.28221329 0 140.58007430 0 3878.47412822 0 -492.71144349 0 -1197.93862970 0 18100
0.13150000 0.13148800 12915.84490943 0 97.56817391 0 4382.85336717 0 443.88992517 0 -643.44632166 0 19059
0.13250000 0.13249300 12753.30509986 0 198.68074980 0 3937.39761935 0 2.93148303 0 -793.67199836 0 18957
0.13350000 0.13349100 12603.24241260 0 204.98001047 0 3887.47788946 0 258.63388454 0 -910.78721426 0 19468
0.13450000 0.13450700 12469.36626240 0 149.04653243 0 3759.44687763 0 247.31005299 0 -818.45313696 0 19953
0.13550000 0.13551000 12331.33107142 0 96.98062509 0 3684.64034702 0 636.02187186 0 -1045.99650564 0 19956
0.13650000 0.13649900 12223.53323091 0 72.83379641 0 3378.47874306 0 681.10362568 0 -629.93730762 0 19723
0.13750000 0.13749600 12159.68633476 0 30.86772616 0 3176.37184291 0 590.16338907 0 -550.12531523 0 20946
0.13850000 0.13851100 12078.19161696 0 141.36916798 0 2907.29314571 0 565.56210088 0 -19.90910336 0 20955
0.13950000 0.13949800 12133.94524458 0 139.08956402 0 2936.21534005 0 345.61853616 0 363.17418447 0 20506
0.14050000 0.14048300 11931.27631190 0 149.65465164 0 3128.10448867 0 -46.12466140 0 798.57629427 0 21447
0.14150000 0.14148400 11968.37045932 0 189.82424109 0 3356.14357005 0 -181.41511028 0 1219.50943846 0 21771
0.14250000 0.14249400 11864.28203355 0 225.34244927 0 3726.29819863 0 -552.55329579 0 1730.75671500 0 22470
0.14350000 0.14350900 11695.67227258 0 224.96588747 0 3875.12441430 0 -83.90212797 0 1816.97250611 0 22519
0.14450000 0.14449900 11605.07262769 0 270.24660081 0 4479.06209678 0 194.77462367 0 1783.35171977 0 22218
0.14550000 0.14550500 11456.92085106 0 194.93086872 0 4096.62143696 0 44.29063682 0 1671.38359784 0 23559
0.14650000 0.14650700 11225.80183138 0 191.05059608 0 4164.47000477 0 300.44011274 0 1150.76161859 0 23044
0.14750000 0.14750500 11028.74198341 0 215.21349890 0 3835.71469284 0 111.44599370 0 1426.84324119 0 23649
0.14850000 0.14849900 10904.93745626 0 205.61735537 0 4128.30883137 0 107.92407302 0 757.92560497 0 23640
0.14950000 0.14949500 10660.00367683 0 254.95819175 0 3747.19456833 0 -208.92323075 0 771.07379413 0 24457
0.15050000 0.15050000 10518.02301745 0 162.94110080 0 3703.15369877 0 -76.21723228 0 534.33782128 0 24591
0.15150000 0.15149900 10422.47748623 0 39.03282244 0 3612.44164737 0 121.17084268 0 187.99988348 0 25020
0.15250000 0.15250500 10389.78967391 0 -80.82769759 0 3515.91817954 0 368.51461763 0 -105.82881572 0 25297
0.15350000 0.15350100 10511.14373920 0 -59.34276740 0 3375.54493322 0 408.91464042 0 -338.34471107 0 25452
0.15450000 0.15450400 10517.29237515 0 27.29983121 0 2847.50412448 0 336.22922060 0 -79.75545191 0 26061
0.15550000 0.15549900 10368.51112207 0 175.03266879 0 2832.95872243 0 387.25952679 0 -153.76760574 0 26128
0.15650000 0.15649500 10252.56380978 0 193.13348866 0 2636.98921759 0 167.90722029 0 358.39128758 0 26331
0.15750000 0.15749700 10073.94986967 0 154.70957227 0 2877.33681152 0 240.31274791 0 124.10577659 0 27345
0.15850000 0.15849900 10097.46531100 0 118.04032146 0 2889.49919561 0 264.40483462 0 975.19951514 0 26980
0.15950000 0.15949700 9983.54131584 0 94.72687462 0 3267.37615123 0 53.44288705 0 1280.77098494 0 27777
0.16050000 0.16050000 9979.58460678 0 105.97651787 0 3564.79252892 0 212.43256190 0 1835.71067088 0 28224
0.16150000 0.16150500 9922.68443278 0 121.03033455 0 3888.65815778 0 -11.21046958 0 2016.24676227 0 28075
0.16250000 0.16249700 9828.99360894 0 146.68599578 0 3636.31678952 0 235.70408111 0 2054.06031133 0 28590
0.16350000 0.16349900 9640.16191731 0 184.99975380 0 3790.49355495 0 -46.56979117 0 2230.27999284 0 29163
0.16450000 0.16449100 9396.56577532 0 305.28258507 0 3581.75467088 0 -20.14909125 0 1679.06096229 0 28996
0.16550000 0.16550500 9209.83608538 0 298.92262489 0 3276.75085394 0 -91.88478849 0 1565.78892487 0 30777
0.16650000 0.16650700 8926.95386908 0 173.94794600 0 3037.28003077 0 13.50923886 0 878.52542260 0 29211
0.16750000 0.16749900 8776.94738507 0 90.56266315 0 2873.67235938 0 85.81877132 0 802.73308691 0 30922
0.16850000 0.16850800 8664.21489889 0 125.80536298 0 2807.71222089 0 200.40731375 0 434.61638832 0 30867
0.16950000 0.16949900 8586.41835518 0 134.99909121 0 2928.06586827 0 11.14299196 0 502.75159272 0 30852
0.17050000 0.17049200 8481.47563996 0 186.33739123 0 2882.20401328 0 14.32441085 0 512.37808601 0 31257
0.17150000 0.17149500 8445.12337550 0 130.68830166 0 3214.07298546 0 52.01633607 0 777.30785902 0 32608
0.17250000 0.17250900 8314.57445791 0 19.04874395 0 3030.95154441 0 216.02394981 0 1131.46142128 0 32361
0.17350000 0.17350400 8454.08217413 0 -125.83234054 0 3223.77366705 0 416.15811575 0 1169.29745164 0 32508
0.17450000 0.17449800 8558.89000154 0 -107.08563288 0 2849.66232942 0 247.21563153 0 1097.68101770 0 32791
0.17550000 0.17549800 8584.92334864 0 -2.79755067 0 2760.44528456 0 348.45567640 0 850.18886617 0 33633
0.17650000 0.17650100 8581.25889650 0 32.79268760 0 2589.16024873 0 280.38791590 0 1442.37782050 0 33984
0.17750000 0.17750300 8520.49193865 0 176.96493665 0 2375.62160679 0 137.60017779 0 1228.64808750 0 34069
0.17850000 0.17849800 8387.02045187 0 192.47253840 0 2465.11966791 0 145.72829234 0 1440.98397981 0 34536
