### header ###
fiducial parameters:
Omega_m = 0.31
Omega_nu = 0
Omega_de = 0.69
Omega_k = 0
H_0 = 100
w_de = -1
zeff = 0
beta = 0
fgrowth = 0
b_1 = 2
gamma = 0.55
Lx = 3500 Ly = 3500 Lz = 3500
nx = 700 ny = 700 nz = 700
xoffset = 857.220397 yoffset = 15.9954215 zoffset = 262.898189
bins = 400 dk = 0.001
kx_ny = 0.628318531 ky_ny = 0.628318531 kz_ny = 0.628318531
############################
A(data) = 3.07362767 (not used)
A(ran) = 3.07818852 (used)
Ngal = 188087
weighted Ngal = 0
Nran = 9360983
weighted Nran = 0
SN(data) = 3435.22727
SN(ran) = 69.1245459
SN(data+ran) = 3504.35182
############################
13 columns: k_central k_mean P_0(k) sigma^{lin}_{P_0(k)} P^img_1(k) sigma^{lin}_{P_1(k)} P_2(k) sigma^{lin}_{P_2(k)} P^img_3(k) sigma^{lin}_{P_3(k)} P_4(k) sigma^{lin}_{P_4(k)} N_modes
### header ###
0.00050000 0 0 0 0 0 0 0 0 0 0 0 0
0.00150000 0.00179520 42292.04912330 0 -57888.90163858 0 -39565.06725596 0 132059.66104798 0 -14895.54831617 0 3
0.00250000 0.00253879 81774.27278337 0 -74718.51631952 0 -26886.40007695 0 -42627.58254762 0 64372.28416720 0 6
0.00350000 0.00331552 105309.49765789 0 -56385.68941632 0 -51520.06134090 0 -61496.02645815 0 -31544.52573987 0 7
0.00450000 0.00420575 133160.12075454 0 -33485.67371461 0 -62489.69998277 0 -60280.57489461 0 6853.70576695 0 24
0.00550000 0.00557378 128570.56306108 0 2444.04344779 0 -75131.27301436 0 -73103.00999646 0 19256.47117377 0 45
0.00650000 0.00659388 129834.01220324 0 16922.12523646 0 -55722.26621018 0 -70294.53341133 0 -23670.33749631 0 40
0.00750000 0.00754703 96462.31868704 0 21545.96691466 0 -48960.67757596 0 -75692.40629886 0 -2910.37308401 0 57
0.00850000 0.00846663 85842.15187640 0 18908.79784666 0 -34981.01748135 0 -50536.16718242 0 -24996.05984352 0 75
0.00950000 0.00948925 65952.27003394 0 8015.96657124 0 -18984.33501957 0 -43352.94173929 0 -19096.17949434 0 112
0.01050000 0.01054430 76493.75228947 0 -3064.57233074 0 -27620.86419571 0 -20586.35256175 0 -40871.34327741 0 105
0.01150000 0.01145670 69583.44984608 0 -2789.55856996 0 -14789.43657327 0 -10590.68258377 0 -34485.52959713 0 144
0.01250000 0.01249090 75745.34976380 0 886.95366251 0 -15454.99550305 0 -18378.23913216 0 -45498.78196383 0 169
0.01350000 0.01339930 72037.17149415 0 2063.25516363 0 11282.46595171 0 -20044.44079001 0 -27441.01378402 0 180
0.01450000 0.01448870 67309.35379670 0 7645.09254102 0 -2274.01736483 0 -5782.28066123 0 -26436.99886073 0 267
0.01550000 0.01550050 64892.95110906 0 5983.47706866 0 1000.85068011 0 -8604.79681913 0 -35827.32607489 0 238
0.01650000 0.01653350 60231.67806393 0 1767.14270142 0 7827.79807800 0 -1987.04355167 0 -17955.02863213 0 315
0.01750000 0.01747870 60215.49152688 0 1214.19261066 0 22654.85710927 0 -7720.73087979 0 -23001.74359083 0 297
0.01850000 0.01844180 59967.85999127 0 624.99142129 0 13402.90230560 0 -1129.46058545 0 -17210.56033422 0 388
0.01950000 0.01947590 57115.09524225 0 590.07571199 0 16917.40416316 0 82.70556070 0 -18804.70942089 0 399
0.02050000 0.02045430 55552.86960366 0 -5008.75528117 0 2445.79698930 0 9865.41331731 0 -15934.97128927 0 462
0.02150000 0.02154770 64586.30615711 0 -8866.24311448 0 -7005.97162176 0 17416.48905561 0 -13500.02152792 0 571
0.02250000 0.02255340 70549.24655689 0 -7782.04862952 0 -17742.35552030 0 7384.54549772 0 -25663.41727742 0 510
0.02350000 0.02348930 73517.45278892 0 -4820.51934403 0 -21534.61385742 0 3291.48734705 0 -14576.65105493 0 555
0.02450000 0.02439640 72380.79818700 0 309.57763772 0 -28812.48557971 0 -12290.19028974 0 -29556.50425159 0 592
0.02550000 0.02547300 70931.31627524 0 5812.38312389 0 -18927.23251386 0 -18753.11483403 0 -15922.49416696 0 837
0.02650000 0.02652900 66637.50010251 0 3964.74612258 0 -9723.51134248 0 -16909.42330114 0 -27368.06196077 0 723
0.02750000 0.02749970 64923.07605301 0 3812.75004340 0 -7057.59993056 0 -12359.54510475 0 -21118.93459339 0 826
0.02850000 0.02848090 61601.68857502 0 2723.74455993 0 2466.72708096 0 -7612.37100674 0 -29633.05308307 0 831
0.02950000 0.02946900 60803.37756011 0 2081.64486822 0 4842.24752190 0 -3795.94527055 0 -25558.31719308 0 996
0.03050000 0.03053250 59851.40684970 0 3166.46882962 0 3453.79110295 0 -990.94991495 0 -28177.95084594 0 1041
0.03150000 0.03150510 57467.26482966 0 2027.48741300 0 3393.29392072 0 -537.00859989 0 -29274.36391824 0 1036
0.03250000 0.03246190 58828.05800715 0 -2047.10234853 0 2706.73745537 0 2261.89994334 0 -20423.13831314 0 1059
0.03350000 0.03345080 57331.92739485 0 398.52603102 0 816.03414892 0 -920.27207535 0 -31033.75057066 0 1302
0.03450000 0.03451200 58105.95860419 0 958.66901418 0 5279.22781906 0 -3856.72346906 0 -15898.88880042 0 1339
0.03550000 0.03553350 53206.83338960 0 3947.23318874 0 4603.28252801 0 1537.60861349 0 -21752.12044906 0 1365
0.03650000 0.03647120 50924.98129120 0 4119.13646037 0 5510.53792981 0 -1989.10059075 0 -9456.66953478 0 1308
0.03750000 0.03744890 48884.35355750 0 4263.51137836 0 6581.92931358 0 4293.59135972 0 -8177.00013361 0 1579
0.03850000 0.03847530 45530.03097286 0 2703.90481139 0 8462.45645892 0 1802.68563903 0 -4677.96541146 0 1662
0.03950000 0.03950240 43270.21054991 0 1625.52174286 0 9831.05064802 0 -722.16797093 0 -3962.66660220 0 1683
0.04050000 0.04050350 44154.17532339 0 1068.86560955 0 14210.31824761 0 -5961.36670867 0 2197.87319678 0 1822
0.04150000 0.04152450 43264.81503756 0 327.72454426 0 19096.29190085 0 -3755.43396532 0 4671.88421942 0 1887
0.04250000 0.04250150 44420.46633921 0 306.14586705 0 21568.78543564 0 -2013.35791503 0 3135.81557508 0 1920
0.04350000 0.04349210 42977.72881789 0 -413.30748673 0 20399.75775962 0 1484.04691276 0 342.10920500 0 2005
0.04450000 0.04448520 43851.57700571 0 1369.79693873 0 23971.58693590 0 1812.07158239 0 -1108.85197640 0 2151
0.04550000 0.04548030 43150.83483914 0 1627.28652502 0 22678.01284977 0 3419.34974911 0 2841.72643000 0 2274
0.04650000 0.04648670 40255.35561735 0 2497.71755503 0 21264.05139432 0 1691.89778543 0 -1437.48813743 0 2311
0.04750000 0.04749250 38358.72061951 0 2354.52290537 0 20038.59565163 0 3136.91715885 0 -294.61520753 0 2568
0.04850000 0.04851840 35643.09180941 0 1008.53366489 0 16227.00339526 0 5134.18970268 0 874.05613987 0 2493
0.04950000 0.04949480 36234.46244436 0 -402.61650382 0 14645.44383741 0 2309.53782114 0 186.02602521 0 2644
0.05050000 0.05050630 36874.28028397 0 -1285.31220784 0 13572.52372514 0 1613.31439617 0 521.92589474 0 2829
0.05150000 0.05149060 37889.76067101 0 -446.36286833 0 15792.55224451 0 416.59987333 0 1503.35835071 0 2784
0.05250000 0.05249300 38014.53189412 0 875.90073065 0 16489.58499633 0 -2933.76487819 0 2330.58031931 0 3055
0.05350000 0.05348950 37536.46701854 0 1767.01905426 0 17736.96000795 0 -2787.78254714 0 2067.22311333 0 3009
0.05450000 0.05448610 36185.67802019 0 2010.55899300 0 21551.25002050 0 1324.85681711 0 6253.08407644 0 3336
0.05550000 0.05550870 35059.70203647 0 1405.21622918 0 20409.42471925 0 1425.40443790 0 4196.77563497 0 3349
0.05650000 0.05647670 33922.71021503 0 1151.68335195 0 20215.41108763 0 4457.79478560 0 6163.50733077 0 3324
0.05750000 0.05747970 33016.26414008 0 -221.90730641 0 16738.56541003 0 5073.27661637 0 5237.43507965 0 3639
0.05850000 0.05849280 32940.61456066 0 -502.65267500 0 13628.95179180 0 5535.81815330 0 2973.38817201 0 3846
0.05950000 0.05951020 33377.76346759 0 -1166.31867920 0 11186.60568228 0 2659.48175970 0 5716.28680079 0 3787
0.06050000 0.06049470 33692.16446854 0 -588.32217048 0 8967.68998733 0 2692.61919805 0 2041.32465405 0 3930
0.06150000 0.06148310 34663.35669169 0 -384.25040459 0 9943.22110167 0 -733.32881304 0 1646.57548168 0 4083
0.06250000 0.06249100 34478.89761320 0 83.02704331 0 8576.99868987 0 -1110.98770004 0 1162.02475062 0 4303
0.06350000 0.06350600 34343.67258490 0 387.90811234 0 11031.69827455 0 -2470.90860304 0 -226.56430800 0 4470
0.06450000 0.06451750 34783.06962198 0 700.66460608 0 10469.45216564 0 -2816.04154308 0 -775.11255994 0 4479
0.06550000 0.06550280 33541.53974874 0 1520.16312356 0 12826.93136215 0 -1971.34036260 0 -3319.27423566 0 4636
0.06650000 0.06648880 32777.17549903 0 1153.16711784 0 13567.80265183 0 -973.83602421 0 -2942.86980528 0 4653
0.06750000 0.06749660 31766.19137229 0 860.61681785 0 13690.10093178 0 1208.60600725 0 -3285.28250785 0 5220
0.06850000 0.06852730 31655.80818211 0 803.13662627 0 12166.65553821 0 2045.32632571 0 -5347.62717876 0 5029
0.06950000 0.06949320 30233.41623861 0 510.63241295 0 12082.80028376 0 3338.72056142 0 -5185.19977570 0 5040
0.07050000 0.07048030 29622.37446487 0 899.57354109 0 10290.71457837 0 533.51837784 0 -4391.62107474 0 5475
0.07150000 0.07148790 29015.82895143 0 780.02472431 0 9354.81799850 0 1553.64902209 0 -5660.22967559 0 5509
0.07250000 0.07249820 27503.73661510 0 396.26328802 0 9579.01277733 0 145.98682730 0 -3655.17860145 0 5916
0.07350000 0.07351270 27753.39146783 0 220.15826115 0 7328.87055465 0 1293.43919831 0 -4761.52840900 0 5721
0.07450000 0.07449140 27199.90182584 0 -237.45312637 0 7803.19229355 0 1100.62606819 0 -4118.91164736 0 6028
0.07550000 0.07549160 27241.94185957 0 387.25952679 0 5757.56247027 0 1312.78435822 0 -2697.26158681 0 6183
0.07650000 0.07648840 27051.75004920 0 242.61033692 0 4951.50664700 0 2780.73465913 0 -2619.47628375 0 6330
0.07750000 0.07749960 26448.12710495 0 625.50174684 0 3479.88065330 0 1809.65484248 0 -1297.66568299 0 6583
0.07850000 0.07848650 25834.72479456 0 361.34757872 0 2952.62669011 0 1521.34339188 0 33.57278876 0 6549
0.07950000 0.07947320 25321.70149520 0 531.83003210 0 3663.92382772 0 824.40506152 0 620.17143026 0 6828
0.08050000 0.08048110 25156.01430342 0 209.07497953 0 2833.97038100 0 -193.79668706 0 -208.65570326 0 7147
0.08150000 0.08149960 24776.19271522 0 723.14703161 0 4414.51828028 0 -1816.11821665 0 1082.54210930 0 7386
0.08250000 0.08250610 24284.41424574 0 703.05886469 0 5565.97681921 0 -988.11839503 0 150.74162256 0 7227
0.08350000 0.08350160 23476.66108421 0 1028.87362238 0 6228.63566110 0 -1784.54322875 0 512.03524616 0 7798
0.08450000 0.08449610 23346.04472272 0 827.49736454 0 6584.90808602 0 359.79074860 0 1210.28086421 0 7371
0.08550000 0.08548940 22266.15540699 0 1142.66835006 0 6674.58599756 0 -280.17771573 0 -562.46867380 0 8256
0.08650000 0.08650700 21630.04698212 0 948.09718217 0 6058.33980253 0 650.58301081 0 476.86887035 0 8037
0.08750000 0.08749060 20851.06988647 0 498.79488367 0 6856.24615402 0 190.47170257 0 289.71765601 0 8155
0.08850000 0.08849210 20835.10816243 0 136.39405597 0 5920.11352049 0 322.19751629 0 1026.31300215 0 8718
0.08950000 0.08949900 20596.58155392 0 54.37024074 0 6720.07691106 0 -5.72169355 0 10.51596598 0 8571
0.09050000 0.09049190 20392.45133664 0 194.96796286 0 6180.87413615 0 -450.27124259 0 10.13330051 0 8932
0.09150000 0.09150830 20727.31032192 0 161.79005817 0 6793.46711969 0 -389.13559140 0 -604.97744267 0 9285
0.09250000 0.09250820 20030.83960263 0 487.62842123 0 7259.58318355 0 -172.61030856 0 -680.13580565 0 9204
0.09350000 0.09350330 20000.37743915 0 602.54384178 0 7861.72236191 0 -376.66408941 0 -658.59309852 0 9349
0.09450000 0.09448040 19260.29299502 0 676.33534164 0 7525.12107577 0 98.64873766 0 -1268.84465451 0 9564
0.09550000 0.09549270 18503.01035527 0 917.14605038 0 7725.53063765 0 148.72504982 0 -596.45028502 0 10155
0.09650000 0.09649430 17902.87201274 0 667.80143960 0 7590.58662562 0 583.31670871 0 -558.78848475 0 9913
0.09750000 0.09749140 17384.11598151 0 67.12556916 0 6601.52176780 0 1539.06989809 0 1316.58369817 0 10476
0.09850000 0.09850240 17480.78557779 0 -316.82223711 0 5990.67108513 0 2014.40329555 0 745.48108054 0 10575
0.09950000 0.09950330 17446.61399957 0 -249.85718445 0 5410.47365700 0 1280.53493127 0 1249.46577265 0 10882
0.10050000 0.10051200 17504.05372481 0 182.40878380 0 4873.81126915 0 908.74141583 0 1222.89287433 0 10875
0.10150000 0.10150300 17280.36477526 0 424.76395795 0 4918.39168995 0 270.17690877 0 1400.74245019 0 11118
0.10250000 0.10250800 16907.06276448 0 541.73641759 0 3891.85050259 0 -186.33177091 0 1987.80791592 0 11575
0.10350000 0.10349800 16214.07664692 0 546.02922210 0 5143.18222327 0 -375.29160596 0 1062.07513245 0 11364
0.10450000 0.10450100 16024.10964956 0 428.89489710 0 4486.88558969 0 -105.23463492 0 746.83782709 0 12093
0.10550000 0.10551000 15555.48692059 0 357.94953001 0 4707.00001230 0 -74.76359133 0 411.85519465 0 12067
0.10650000 0.10649700 15450.16202324 0 46.68815522 0 4538.72747086 0 99.34734410 0 446.09421678 0 12054
0.10750000 0.10749900 15353.38002045 0 132.66890432 0 5103.03061886 0 -464.59970008 0 -723.73716577 0 12807
0.10850000 0.10850100 15489.16708128 0 56.14862409 0 5080.47063284 0 147.91122671 0 -278.41855389 0 12736
0.10950000 0.10950300 15248.16752960 0 157.86819513 0 5603.08220727 0 -476.83627246 0 -141.30734440 0 12933
0.11050000 0.11050200 15329.66224740 0 163.18389886 0 5068.34197070 0 466.26106826 0 13.36580816 0 13428
0.11150000 0.11150900 15314.03774289 0 -14.86800872 0 5264.34519750 0 841.10529631 0 609.14660002 0 13453
0.11250000 0.11250000 15202.08086161 0 50.41611703 0 4741.95843607 0 747.37288206 0 -35.35544356 0 13668
0.11350000 0.11349100 15250.64047276 0 15.21523242 0 3960.44095335 0 586.99689776 0 -32.16028859 0 13791
0.11450000 0.11448600 15061.01069493 0 152.69861986 0 4153.57781421 0 -132.92181896 0 -744.59644133 0 14205
0.11550000 0.11549300 15029.53687289 0 257.44012743 0 3692.90222530 0 -617.71647214 0 -101.19676837 0 14776
0.11650000 0.11649800 14775.49816637 0 80.12684301 0 4088.37079932 0 24.26440589 0 -952.79352604 0 14553
0.11750000 0.11747300 14863.51246159 0 158.85737239 0 4267.50180937 0 -438.96202389 0 -990.42947282 0 14568
0.11850000 0.11849100 14859.69064034 0 201.77754908 0 4558.20751857 0 -324.70305734 0 -1481.41660049 0 16015
0.11950000 0.11950300 14512.35453275 0 354.80214780 0 4796.14961325 0 -477.80521656 0 -1450.75210529 0 15270
0.12050000 0.12050700 14503.69923169 0 313.55120775 0 5532.96302801 0 -582.54672413 0 -1099.39634100 0 15999
0.12150000 0.12150000 14183.67790538 0 340.69288301 0 5618.17840121 0 195.00842921 0 -1341.30188913 0 15670
0.12250000 0.12250700 14053.62357642 0 113.45413596 0 5910.43532021 0 571.99287716 0 -118.08528406 0 16887
0.12350000 0.12352200 14144.78525385 0 -132.71161879 0 5649.80959236 0 1266.57404307 0 -202.89599382 0 16407
0.12450000 0.12449800 13975.50105384 0 94.16023342 0 4996.70530359 0 1247.85835960 0 147.75610573 0 16306
0.12550000 0.12549900 13947.17461400 0 284.95836449 0 4974.99960703 0 693.40651790 0 30.55040259 0 17523
0.12650000 0.12650100 13522.50282938 0 347.50134515 0 4394.63356914 0 194.87466546 0 26.09966693 0 17154
0.12750000 0.12750600 13284.65065991 0 267.23523048 0 4703.43672602 0 -392.28522173 0 982.00572916 0 18007
0.12850000 0.12850300 13127.95598872 0 30.78375850 0 4481.91722206 0 -230.68513056 0 111.10146776 0 17496
0.12950000 0.12949900 13108.39725645 0 -105.72607617 0 4527.94768681 0 -17.44121849 0 224.08237232 0 18405
0.13050000 0.13049000 13159.09259125 0 82.80582730 0 4567.59346194 0 -243.79734964 0 -679.37031734 0 18100
0.13150000 0.13148800 13374.23864624 0 20.14504461 0 4332.91115597 0 228.78546059 0 145.46526111 0 19059
0.13250000 0.13249300 13106.03671980 0 102.82329053 0 4759.20159430 0 42.07982564 0 -223.33824124 0 18957
0.13350000 0.13349100 13264.19267558 0 31.90546303 0 3903.99040538 0 402.15451307 0 -321.07682341 0 19468
0.13450000 0.13450700 12985.31213095 0 171.41879958 0 4458.39054008 0 125.45465468 0 -49.25799279 0 19953
0.13550000 0.13551000 13077.26065393 0 294.24314199 0 3903.37216959 0 222.60872301 0 53.68242532 0 19956
0.13650000 0.13649900 12635.72789321 0 285.52601735 0 4070.49816466 0 289.15674753 0 681.25987072 0 19723
0.13750000 0.13749600 12418.55852109 0 267.19588820 0 3979.15663682 0 286.68717657 0 378.97404314 0 20946
0.13850000 0.13851100 12312.67159121 0 156.47323037 0 3583.91287582 0 550.92902176 0 576.98485015 0 20955
0.13950000 0.13949800 11981.74683369 0 99.07565758 0 3667.85805547 0 433.04269722 0 -53.01428104 0 20506
0.14050000 0.14048300 11978.26223196 0 243.58377728 0 3282.47234516 0 -114.28032379 0 36.60450467 0 21447
0.14150000 0.14148400 11829.77323580 0 282.11785205 0 3539.19756721 0 -139.12216190 0 -554.39788657 0 21771
0.14250000 0.14249400 11397.45780869 0 264.18339381 0 2961.11338141 0 -283.20145078 0 -870.17811536 0 22470
0.14350000 0.14350900 11266.84144719 0 121.37092627 0 3027.30957357 0 345.54772006 0 -634.34701490 0 22519
0.14450000 0.14449900 11111.09099067 0 42.61409377 0 2733.22042849 0 295.87303635 0 -1246.34087175 0 22218
0.14550000 0.14550500 11193.58612638 0 129.69575220 0 2269.49862324 0 302.43083198 0 -1233.94243399 0 23559
0.14650000 0.14650700 10838.21295352 0 267.21387324 0 2272.39871113 0 176.17359484 0 -1856.96674141 0 23044
0.14750000 0.14750500 10687.64443698 0 277.16634540 0 1961.51603386 0 45.57937743 0 -905.37371687 0 23649
0.14850000 0.14849900 10418.95916256 0 240.83431411 0 1902.09795410 0 185.06832177 0 -1287.07699000 0 23640
0.14950000 0.14949500 10223.33811788 0 94.96180422 0 1939.57428363 0 340.54675455 0 -594.80915002 0 24457
0.15050000 0.15050000 10087.79835137 0 46.73255579 0 1691.70669436 0 452.60929794 0 -603.07664863 0 24591
0.15150000 0.15149900 10140.26970898 0 45.46224985 0 1583.68404084 0 557.62395333 0 -469.32302152 0 25020
0.15250000 0.15250500 9960.36309403 0 134.89005690 0 1228.06357366 0 306.78546008 0 -401.98365518 0 25297
0.15350000 0.15350100 9894.79637832 0 75.50547428 0 1467.11849276 0 42.86374862 0 -464.13546120 0 25452
0.15450000 0.15450400 9835.15348554 0 9.91995295 0 1108.13032662 0 77.92075290 0 -292.29401315 0 26061
0.15550000 0.15549900 9781.06347422 0 51.68664778 0 1194.26293691 0 -97.80523923 0 -260.09179694 0 26128
0.15650000 0.15649500 9768.53014866 0 76.65516803 0 1059.93154035 0 -166.18515260 0 -127.41502417 0 26331
0.15750000 0.15749700 9814.78542642 0 49.61072441 0 1569.88052174 0 -22.59989033 0 -127.57239328 0 27345
0.15850000 0.15849900 9795.27165675 0 79.61573062 0 1530.02117425 0 -230.46256568 0 -22.25806214 0 26980
0.15950000 0.15949700 9825.43032266 0 242.57886310 0 2042.66229149 0 -80.39751788 0 127.80619881 0 27777
0.16050000 0.16050000 9447.93554916 0 305.85585826 0 2261.94490595 0 -280.07992207 0 86.30998776 0 28224
0.16150000 0.16150500 9284.13678671 0 323.60596983 0 2547.82837599 0 -198.53911760 0 499.05566676 0 28075
0.16250000 0.16249700 9210.93766915 0 154.99171260 0 2511.16137330 0 212.52023898 0 541.87130540 0 28590
0.16350000 0.16349900 9096.95747073 0 -28.72211075 0 2411.29943221 0 341.28414123 0 740.01475209 0 29163
0.16450000 0.16449100 9200.83232414 0 -66.84185513 0 2118.75025628 0 277.25065028 0 308.84025103 0 28996
0.16550000 0.16550500 9187.54587498 0 -99.19964195 0 1704.00396626 0 472.19613184 0 78.04012861 0 30777
0.16650000 0.16650700 9161.15282706 0 60.49853111 0 1612.89849209 0 122.02400808 0 -14.01000985 0 29211
0.16750000 0.16749900 9187.59083758 0 136.90325745 0 1371.20202007 0 23.39696487 0 214.98531369 0 30922
0.16850000 0.16850800 9040.74297643 0 122.45677313 0 1786.36421417 0 -75.81403014 0 49.13985355 0 30867
0.16950000 0.16949900 8955.33651217 0 238.86270397 0 1486.11519249 0 -203.12417903 0 326.95793188 0 30852
0.17050000 0.17049200 8837.64689902 0 167.24177377 0 1925.08508484 0 -21.78258261 0 108.39573072 0 31257
0.17150000 0.17149500 8680.39019529 0 111.20409490 0 1918.41937896 0 -125.51872639 0 288.71161777 0 32608
0.17250000 0.17250900 8601.32345805 0 81.47347297 0 2032.96160991 0 25.93353011 0 479.76558604 0 32361
0.17350000 0.17350400 8544.68181902 0 69.79578574 0 2034.17560018 0 -19.24197073 0 -35.96805902 0 32508
0.17450000 0.17449800 8471.85364293 0 129.11798275 0 2054.52117801 0 -100.48411111 0 77.58049840 0 32791
0.17550000 0.17549800 8370.42925139 0 199.26975990 0 1935.32531766 0 -122.95136176 0 -142.87091892 0 33633
0.17650000 0.17650100 8238.66634352 0 185.58988796 0 2047.74306562 0 -92.99896179 0 4.53034195 0 33984
0.17750000 0.17750300 8111.70319351 0 214.74476376 0 2158.60960378 0 -88.46133590 0 -298.08519641 0 34069
