### header ###
fiducial parameters:
Omega_m = 0.31
Omega_nu = 0
Omega_de = 0.69
Omega_k = 0
H_0 = 100
w_de = -1
zeff = 0
beta = 0
fgrowth = 0
b_1 = 2
gamma = 0.55
Lx = 3500 Ly = 3500 Lz = 3500
nx = 700 ny = 700 nz = 700
xoffset = 857.220397 yoffset = 15.9954215 zoffset = 262.898189
bins = 400 dk = 0.001
kx_ny = 0.628318531 ky_ny = 0.628318531 kz_ny = 0.628318531
############################
A(data) = 3.12939132 (not used)
A(ran) = 3.12672153 (used)
Ngal = 190549
weighted Ngal = 0
Nran = 9360983
weighted Nran = 0
SN(data) = 3448.18779
SN(ran) = 70.2144147
SN(data+ran) = 3518.4022
############################
13 columns: k_central k_mean P_0(k) sigma^{lin}_{P_0(k)} P^img_1(k) sigma^{lin}_{P_1(k)} P_2(k) sigma^{lin}_{P_2(k)} P^img_3(k) sigma^{lin}_{P_3(k)} P_4(k) sigma^{lin}_{P_4(k)} N_modes
### header ###
0.00050000 0 0 0 0 0 0 0 0 0 0 0 0
0.00150000 0.00179520 3328.34544080 0 -4740.94677751 0 9698.42221005 0 -9778.95023189 0 35740.54825124 0 3
0.00250000 0.00253879 9769.92398935 0 -6295.75358662 0 1400.67500629 0 2295.23971341 0 -17811.14830278 0 6
0.00350000 0.00331552 16298.26912089 0 -5969.77471542 0 4861.22174033 0 16757.89932928 0 6232.39003845 0 7
0.00450000 0.00420575 27589.27796716 0 -7908.05632422 0 7202.91906321 0 8299.59067048 0 1215.90118957 0 24
0.00550000 0.00557378 39471.99466790 0 -9177.58665843 0 12254.22020740 0 18056.75652125 0 14218.63632915 0 45
0.00650000 0.00659388 55015.79131173 0 -6331.24032098 0 -7998.28502764 0 30244.31966982 0 -12494.54532003 0 40
0.00750000 0.00754703 57772.11127748 0 -8432.21910846 0 -3696.63412135 0 14614.41964139 0 -5711.77929984 0 57
0.00850000 0.00846663 68533.57306781 0 -3826.76713486 0 6985.28882441 0 2602.82888001 0 10938.79429626 0 75
0.00950000 0.00948925 72939.79574785 0 800.31859514 0 13037.58115685 0 -10591.15469110 0 13905.80901931 0 112
0.01050000 0.01054430 66165.28036530 0 5491.39510161 0 14110.27645611 0 -8773.85620612 0 7670.31656126 0 105
0.01150000 0.01145670 67081.61821289 0 7354.34186921 0 37391.91225013 0 -8539.30878797 0 18466.70305341 0 144
0.01250000 0.01249090 58526.92097407 0 6897.46562025 0 35986.49368924 0 5425.89582980 0 7119.23241852 0 169
0.01350000 0.01339930 59569.71614238 0 3748.71205618 0 54988.92615649 0 15090.79841937 0 21040.58725779 0 180
0.01450000 0.01448870 56866.67686110 0 -4612.60102746 0 39748.96430192 0 11681.17183314 0 7158.04638550 0 267
0.01550000 0.01550050 63627.36624325 0 -6608.33360215 0 44719.80486818 0 97.53557602 0 -7810.30762546 0 238
0.01650000 0.01653350 72515.34877625 0 -11720.06448467 0 34830.50516806 0 2118.84018149 0 2154.83274513 0 315
0.01750000 0.01747870 82049.66872627 0 -9396.28475905 0 50400.04290207 0 -8230.86533191 0 -5554.56755872 0 297
0.01850000 0.01844180 100619.11132736 0 -11259.53502422 0 36809.98376179 0 -19672.48765732 0 -8272.83792174 0 388
0.01950000 0.01947590 97845.81797901 0 396.11378737 0 44325.59524704 0 -12588.74197316 0 -27497.89147672 0 399
0.02050000 0.02045430 102895.90513293 0 5446.94956862 0 34623.00275557 0 -370.65933379 0 -22846.17298471 0 462
0.02150000 0.02154770 92306.53770529 0 9532.04933858 0 32063.50658412 0 4146.17022538 0 -28821.25328728 0 571
0.02250000 0.02255340 87715.29391422 0 7825.78600152 0 13236.09104876 0 20224.40360821 0 -38494.73249335 0 510
0.02350000 0.02348930 76337.50724431 0 5848.44313143 0 16740.92594668 0 19314.02330551 0 -33016.15173357 0 555
0.02450000 0.02439640 72248.94535392 0 4417.19355515 0 -4642.02905108 0 17388.05020926 0 -32572.25843621 0 592
0.02550000 0.02547300 64989.17107931 0 2920.59083553 0 -3608.90084239 0 9822.62015998 0 -19364.71864031 0 837
0.02650000 0.02652900 62383.25102035 0 4470.19322335 0 -12260.17775229 0 -3030.99650701 0 -11922.62101084 0 723
0.02750000 0.02749970 58332.12049690 0 3613.45330594 0 2451.19250165 0 -7590.08079634 0 -12515.22811738 0 826
0.02850000 0.02848090 57992.54043831 0 2014.30212969 0 6529.48043727 0 -12804.89968672 0 -7338.29021997 0 831
0.02950000 0.02946900 59466.97659470 0 586.25276668 0 19362.69532318 0 -9800.59972519 0 -2033.73721481 0 996
0.03050000 0.03053250 59418.75420306 0 -1737.09644202 0 25173.43731205 0 -5875.53309969 0 -3265.89238533 0 1041
0.03150000 0.03150510 62422.14367188 0 -919.77636265 0 25372.95886253 0 1017.24854140 0 -5351.39279676 0 1036
0.03250000 0.03246190 63667.15814684 0 -512.46688715 0 25509.53276891 0 8162.21867790 0 1331.69113275 0 1059
0.03350000 0.03345080 61219.05682414 0 1894.17329533 0 24651.64630512 0 8738.77413519 0 -2409.52340939 0 1302
0.03450000 0.03451200 61920.92305578 0 3824.46280146 0 23903.91821850 0 359.59965754 0 2751.39656073 0 1339
0.03550000 0.03553350 56760.45271169 0 3261.03642422 0 22769.06212070 0 2859.88008093 0 -423.21162409 0 1365
0.03650000 0.03647120 55559.83880711 0 3457.62416485 0 26537.49027826 0 -2942.40893860 0 7741.31251128 0 1308
0.03750000 0.03744890 53350.93853197 0 490.65777660 0 19637.64164006 0 5479.74978745 0 5674.37041421 0 1579
0.03850000 0.03847530 53905.88945856 0 -722.14773776 0 19960.58553556 0 9200.23656965 0 3300.73840260 0 1662
0.03950000 0.03950240 55350.53789050 0 -2186.92480297 0 13971.00479355 0 9447.40723857 0 3928.31517356 0 1683
0.04050000 0.04050350 55553.43163620 0 -824.06896607 0 12023.33724139 0 6653.88071891 0 961.24761946 0 1822
0.04150000 0.04152450 55191.48268266 0 46.03720913 0 9309.11351263 0 2711.48100998 0 5543.48427710 0 1887
0.04250000 0.04250150 54381.36898448 0 1505.93245973 0 8181.37274674 0 -1332.69155067 0 1944.41900410 0 1920
0.04350000 0.04349210 52824.65126474 0 2469.98686968 0 16185.41298755 0 -814.90671165 0 13123.45972843 0 2005
0.04450000 0.04448520 50697.69533342 0 3304.48153929 0 15463.98802364 0 -967.48842874 0 8223.19920811 0 2151
0.04550000 0.04548030 48922.00973745 0 4238.55713374 0 23942.36124400 0 1147.86153070 0 19302.33302875 0 2274
0.04650000 0.04648670 44793.65594348 0 4445.80101127 0 22966.44794753 0 188.91936871 0 18036.18613041 0 2311
0.04750000 0.04749250 41634.69586855 0 3663.95754967 0 25057.77101603 0 1385.46640585 0 16165.51703576 0 2568
0.04850000 0.04851840 39253.25160468 0 2687.61710848 0 23702.26094438 0 1774.39292114 0 17033.74489822 0 2493
0.04950000 0.04949480 36639.23827719 0 814.77744417 0 20188.99555841 0 3631.21353409 0 12922.36448685 0 2644
0.05050000 0.05050630 36129.02514051 0 277.15510475 0 19032.89463073 0 1224.30919632 0 10632.96991182 0 2829
0.05150000 0.05149060 35847.44683970 0 224.83549592 0 11963.87419902 0 4135.14314701 0 843.13086157 0 2784
0.05250000 0.05249300 34391.55775702 0 450.17906926 0 11852.02972425 0 1619.94638010 0 1019.53039350 0 3055
0.05350000 0.05348950 33912.48122286 0 547.64000735 0 8047.22682092 0 1821.07534363 0 -3658.21357715 0 3009
0.05450000 0.05448610 34356.82414626 0 -458.20601794 0 7334.15366050 0 3044.44032528 0 112.02297631 0 3336
0.05550000 0.05550870 34218.11451624 0 -853.35760561 0 7393.98764434 0 2534.87914635 0 250.37200625 0 3349
0.05650000 0.05647670 35893.75832071 0 -555.70067799 0 6931.10888789 0 1208.21258447 0 3997.06299343 0 3324
0.05750000 0.05747970 36201.52733772 0 141.42199904 0 9027.93987525 0 691.85643217 0 5132.93074980 0 3639
0.05850000 0.05849280 36931.72000921 0 223.02575115 0 9725.65830677 0 584.43964972 0 6458.36084009 0 3846
0.05950000 0.05951020 35283.50339252 0 474.49596898 0 9661.15945288 0 -158.02781237 0 8184.68873871 0 3787
0.06050000 0.06049470 36155.66548274 0 258.54733153 0 9939.48920563 0 67.47279286 0 3968.16328040 0 3930
0.06150000 0.06148310 34577.92774614 0 386.94591263 0 9572.98778854 0 25.67465793 0 4134.39002341 0 4083
0.06250000 0.06249100 34341.87408079 0 1358.34271563 0 9891.32301724 0 -1140.00431584 0 -1489.92577309 0 4303
0.06350000 0.06350600 32694.89393568 0 1591.65366221 0 8573.25555318 0 -1839.21775391 0 -216.70625731 0 4470
0.06450000 0.06451750 31326.00748966 0 1994.51858441 0 10253.99137243 0 -1656.57966083 0 -1223.09520604 0 4479
0.06550000 0.06550280 30308.61619200 0 942.29925452 0 10060.74210506 0 -138.50842237 0 -268.67290971 0 4636
0.06650000 0.06648880 30249.26555614 0 -230.11522957 0 12829.29189880 0 1270.40710497 0 1623.27361271 0 4653
0.06750000 0.06749660 30963.38409708 0 -688.71129809 0 11291.79569182 0 3322.78131868 0 3008.21170798 0 5220
0.06850000 0.06852730 32411.40472425 0 -552.52182197 0 14236.05933779 0 1332.19696203 0 6897.12840073 0 5029
0.06950000 0.06949320 31892.76109952 0 719.13411930 0 10413.31635589 0 1537.42876308 0 5702.24722802 0 5040
0.07050000 0.07048030 31587.01539964 0 1520.69143414 0 13286.56157054 0 699.45061580 0 7023.47331494 0 5475
0.07150000 0.07148790 29597.64503327 0 1818.78225088 0 10881.25340517 0 472.64913007 0 7432.25081943 0 5509
0.07250000 0.07249820 28182.10988671 0 1308.08576622 0 11580.23078957 0 704.16269659 0 5306.13793691 0 5916
0.07350000 0.07351270 27692.46714087 0 536.17117141 0 9712.02339743 0 -140.12820014 0 2565.99326757 0 5721
0.07450000 0.07449140 26523.21465183 0 -100.80615576 0 10223.93387237 0 -62.87266895 0 1374.90019416 0 6028
0.07550000 0.07549160 27361.76719636 0 -344.22357140 0 9460.86229750 0 61.15509752 0 553.10858393 0 6183
0.07650000 0.07648840 27227.55382664 0 -737.11803640 0 9887.71476836 0 403.26396530 0 876.02887407 0 6330
0.07750000 0.07749960 28050.03224062 0 -253.82625822 0 9008.56099339 0 1605.74943822 0 11.12570384 0 6583
0.07850000 0.07848650 27785.98935495 0 235.68384794 0 8857.16066869 0 1420.89693695 0 -1553.19939606 0 6549
0.07950000 0.07947320 27052.08726873 0 1367.82982485 0 8640.69945756 0 857.16706214 0 929.80976749 0 6828
0.08050000 0.08048110 25382.62582216 0 1457.62014289 0 7659.87399673 0 -328.63840916 0 -846.30072508 0 7147
0.08150000 0.08149960 24025.99168544 0 1675.14921584 0 8366.98961226 0 -723.98895635 0 -470.75620448 0 7386
0.08250000 0.08250610 23329.29615313 0 854.21301913 0 8555.25927136 0 -1043.44262980 0 159.27327647 0 7227
0.08350000 0.08350160 22452.75020913 0 546.76998099 0 8714.65169872 0 -32.55539746 0 -139.52907346 0 7798
0.08450000 0.08449610 22847.18464328 0 354.99885919 0 8375.55498812 0 424.38739615 0 866.80929234 0 7371
0.08550000 0.08548940 22167.23768056 0 151.84657853 0 9413.29186361 0 1867.66784091 0 -344.56191499 0 8256
0.08650000 0.08650700 22358.89077552 0 76.76195422 0 7169.01726061 0 2129.61996554 0 1455.22588428 0 8037
0.08750000 0.08749060 21883.18643659 0 -128.54920582 0 7982.08724993 0 3282.00023783 0 1095.12601779 0 8155
0.08850000 0.08849210 22224.78981230 0 -127.47684774 0 4610.67887619 0 2442.77325426 0 1599.79189334 0 8718
0.08950000 0.08949900 22075.40156409 0 19.27895248 0 4528.70081041 0 1739.20968435 0 2217.42068840 0 8571
0.09050000 0.09049190 21549.78873591 0 136.75712899 0 3081.70308246 0 822.35027057 0 1556.81888559 0 8932
0.09150000 0.09150830 21289.34285847 0 506.80834357 0 2657.12122305 0 -362.95723991 0 1527.57071239 0 9285
0.09250000 0.09250820 20823.19307265 0 1024.92478178 0 3183.46469352 0 -1109.87037936 0 420.97923085 0 9204
0.09350000 0.09350330 19967.55473901 0 1010.20964591 0 4258.19455056 0 -1649.63293868 0 1046.97556632 0 9349
0.09450000 0.09448040 19138.78156061 0 1068.38563377 0 5056.71913784 0 -1292.82096252 0 516.10998205 0 9564
0.09550000 0.09549270 18703.65597082 0 842.74530725 0 6506.02119919 0 -953.70963908 0 1202.41240869 0 10155
0.09650000 0.09649430 18055.40764316 0 179.68967039 0 5895.21547912 0 -7.32522858 0 275.67695918 0 9913
0.09750000 0.09749140 17844.30822243 0 -23.36594067 0 6346.94351005 0 1033.36763455 0 -428.41492131 0 10476
0.09850000 0.09850240 18123.97561262 0 -443.55270565 0 4904.49824564 0 819.58844268 0 -992.50899320 0 10575
0.09950000 0.09950330 18173.09725632 0 -301.81372026 0 4910.38834663 0 714.10167996 0 -683.62153144 0 10882
0.10050000 0.10051200 18775.70854200 0 -494.84829120 0 4797.34112223 0 503.51708104 0 -726.45627918 0 10875
0.10150000 0.10150300 18906.10009048 0 -49.72740236 0 4926.67604954 0 -574.06790129 0 35.86520707 0 11118
0.10250000 0.10250800 19522.42497006 0 -39.14129472 0 5842.20457027 0 236.16831999 0 548.18855111 0 11575
0.10350000 0.10349800 19482.97028600 0 245.98478027 0 6843.25196177 0 -237.32161075 0 1882.93264460 0 11364
0.10450000 0.10450100 19316.60865518 0 194.23057618 0 6572.27359460 0 552.09467724 0 2342.94503511 0 12093
0.10550000 0.10551000 19045.25934653 0 281.46477024 0 7099.72988950 0 552.40267107 0 3458.52341691 0 12067
0.10650000 0.10649700 18664.08888024 0 558.19385432 0 6772.54826868 0 743.37683073 0 3662.77728134 0 12054
0.10750000 0.10749900 18092.95141660 0 486.57517226 0 6032.31769609 0 533.49814467 0 2910.98007915 0 12807
0.10850000 0.10850100 17563.40436067 0 613.71367642 0 5716.55657640 0 -254.04545091 0 2210.62009471 0 12736
0.10950000 0.10950300 17115.12720951 0 562.79352860 0 6022.33599824 0 -869.03606525 0 1531.49369949 0 12933
0.11050000 0.11050200 16466.65406884 0 595.76460533 0 5807.90934489 0 -818.89489453 0 320.97565756 0 13428
0.11150000 0.11150900 16273.98931531 0 678.79816821 0 7145.98516726 0 -1111.39011533 0 1082.48253385 0 13453
0.11250000 0.11250000 15635.85757332 0 534.64806324 0 6656.85949135 0 -596.30190843 0 -687.19718244 0 13668
0.11350000 0.11349100 15755.57050360 0 246.11517182 0 7827.07867635 0 113.15401058 0 252.49761331 0 13791
0.11450000 0.11448600 15481.07381275 0 -28.23336725 0 6529.87386004 0 1156.25829679 0 -342.93876502 0 14205
0.11550000 0.11549300 15644.62528089 0 -195.04327522 0 7301.88175225 0 1305.03954987 0 833.69883155 0 14776
0.11650000 0.11649800 15714.42972193 0 -161.58435426 0 5692.51282449 0 1429.52975671 0 198.25810133 0 14553
0.11750000 0.11747300 15633.72184968 0 63.11209481 0 5833.00971798 0 838.79084633 0 1106.65780138 0 14568
0.11850000 0.11849100 15605.84503586 0 79.90214240 0 4604.87870041 0 426.62653378 0 638.55663860 0 16015
0.11950000 0.11950300 15445.77816945 0 44.35853035 0 5506.08663212 0 515.18824869 0 1310.70483784 0 15270
0.12050000 0.12050700 15483.20953639 0 69.96922898 0 4140.52741871 0 173.68154257 0 1398.80905827 0 15999
0.12150000 0.12150000 15256.03598512 0 271.77420524 0 4223.78691868 0 302.48478711 0 992.67198264 0 15670
0.12250000 0.12250700 14936.23947182 0 339.86107485 0 3576.52776829 0 191.99705888 0 1138.20581172 0 16887
0.12350000 0.12352200 14592.16315294 0 408.89777945 0 3850.61979571 0 313.78501329 0 849.92246275 0 16407
0.12450000 0.12449800 14272.92867218 0 405.48286975 0 3163.16407830 0 411.73267156 0 866.81603673 0 16306
0.12550000 0.12549900 13955.82991506 0 126.30219974 0 3490.99765687 0 -18.51346416 0 417.82285613 0 17523
0.12650000 0.12650100 14011.35872967 0 6.81753335 0 3025.88201093 0 -101.47036581 0 957.35385804 0 17154
0.12750000 0.12750600 14094.20232556 0 -61.83470726 0 3556.46320673 0 -162.29139119 0 637.84173321 0 18007
0.12850000 0.12850300 14149.95595319 0 25.27921184 0 3787.93068658 0 -392.52689572 0 753.02355718 0 17496
0.12950000 0.12949900 14397.47508228 0 127.22280904 0 4236.94972068 0 -395.57423613 0 565.33728786 0 18405
0.13050000 0.13049000 14140.51380657 0 280.63521021 0 4872.28254065 0 -294.22628101 0 785.22802153 0 18100
0.13150000 0.13148800 14173.67372623 0 430.14710559 0 5335.79077354 0 -201.89894810 0 1616.05711494 0 19059
0.13250000 0.13249300 13696.62050921 0 348.82999007 0 5401.07647299 0 499.12423473 0 1472.49152381 0 18957
0.13350000 0.13349100 13427.40692420 0 335.39853651 0 5558.53550843 0 593.38720770 0 1990.28085908 0 19468
0.13450000 0.13450700 13240.81212206 0 213.61732649 0 5163.47159784 0 1145.16377452 0 1972.34078051 0 19953
0.13550000 0.13551000 13034.43377464 0 153.98230217 0 5001.48258015 0 709.13668454 0 2727.73499094 0 19956
0.13650000 0.13649900 12765.89462868 0 32.83270431 0 4278.32655602 0 531.80305454 0 2302.55737704 0 19723
0.13750000 0.13749600 12858.74240372 0 28.35915014 0 4354.34707692 0 237.68131158 0 2048.30509815 0 20946
0.13850000 0.13851100 12647.98020251 0 89.17163262 0 4236.54505726 0 -93.25682232 0 2226.96400087 0 20955
0.13950000 0.13949800 12774.77474276 0 204.50902720 0 4111.40289267 0 -181.57247939 0 2030.85960822 0 20506
0.14050000 0.14048300 12346.84316943 0 314.57298290 0 3964.72364128 0 -294.55788021 0 1480.23633216 0 21447
0.14150000 0.14148400 12244.10362175 0 182.42564478 0 4001.63793828 0 -97.13855624 0 1214.69843994 0 21771
0.14250000 0.14249400 12191.27256331 0 153.04820409 0 4417.38464622 0 169.44831351 0 1334.96216211 0 22470
0.14350000 0.14350900 11953.98242638 0 40.39867391 0 3959.95760537 0 233.05128754 0 859.34100399 0 22519
0.14450000 0.14449900 11851.35528521 0 133.23543311 0 4086.50485130 0 293.62040994 0 1126.97640164 0 22218
0.14550000 0.14550500 11748.72814403 0 190.24576549 0 4002.87440986 0 104.96081267 0 910.63096921 0 23559
0.14650000 0.14650700 11590.23496872 0 213.67802601 0 3703.86185977 0 395.11561758 0 639.57391749 0 23044
0.14750000 0.14750500 11347.32450643 0 117.98074601 0 3635.12528055 0 242.53614863 0 759.44983721 0 23649
0.14850000 0.14849900 11220.12530276 0 222.27937195 0 3484.05093472 0 76.97001866 0 697.04399248 0 23640
0.14950000 0.14949500 11111.14719392 0 139.44814077 0 3492.00931544 0 47.03639058 0 478.28294421 0 24457
0.15050000 0.15050000 10888.25633057 0 246.33436451 0 3482.15126475 0 -12.57592763 0 655.13997062 0 24591
0.15150000 0.15149900 10706.91091233 0 236.34929447 0 3444.07918072 0 -84.51991413 0 348.89630991 0 25020
0.15250000 0.15250500 10602.59767355 0 226.55531548 0 3642.89257020 0 -74.83204689 0 493.65003783 0 25297
0.15350000 0.15350100 10443.85720392 0 149.06901373 0 3327.06400661 0 112.16078668 0 289.39842152 0 25452
0.15450000 0.15450400 10296.22249722 0 146.65564602 0 3609.66520664 0 177.41343862 0 393.58464096 0 26061
0.15550000 0.15549900 10224.10248213 0 129.63730082 0 3453.60001189 0 57.92003824 0 408.73816221 0 26128
0.15650000 0.15649500 10016.13920296 0 212.69559313 0 3523.53934074 0 61.73736323 0 142.39881159 0 26331
0.15750000 0.15749700 9879.29552096 0 218.78577770 0 3476.49721743 0 -224.68599527 0 70.34354265 0 27345
0.15850000 0.15849900 9759.62755328 0 152.79191726 0 3548.05519998 0 -88.72841376 0 -81.38793162 0 26980
0.15950000 0.15949700 9601.28050643 0 94.84467664 0 3531.02561413 0 33.77062421 0 -164.45971271 0 27777
0.16050000 0.16050000 9586.55525397 0 28.19335054 0 3513.77121525 0 54.71308059 0 -454.78773606 0 28224
0.16150000 0.16150500 9653.62821689 0 -63.46426440 0 3037.58352834 0 432.38849134 0 -724.55211295 0 28075
0.16250000 0.16249700 9744.45267479 0 -71.10633321 0 2932.44972205 0 443.06710954 0 -884.15923674 0 28590
0.16350000 0.16349900 9705.94220539 0 -49.37017448 0 2181.54053127 0 544.61177605 0 -604.92123941 0 29163
0.16450000 0.16449100 9734.66206801 0 35.38781663 0 2233.31496853 0 224.91305641 0 -744.37050425 0 28996
0.16550000 0.16550500 9688.14825528 0 105.69741251 0 1826.86427875 0 256.86348205 0 -206.72118727 0 30777
0.16650000 0.16650700 9569.28961445 0 167.08777686 0 2130.60914281 0 -126.11672901 0 -641.99515365 0 29211
0.16750000 0.16749900 9392.69899147 0 240.58139947 0 1979.65844414 0 -102.66356088 0 -128.64025510 0 30922
0.16850000 0.16850800 9232.76701287 0 219.73111642 0 2433.90438083 0 -217.79772450 0 -476.36416513 0 30867
0.16950000 0.16949900 9003.15424038 0 293.84185076 0 2406.25238003 0 -233.75045602 0 -129.08538486 0 30852
0.17050000 0.17049200 8765.60556849 0 260.35932443 0 2836.22975179 0 10.39857986 0 -298.82370716 0 31257
0.17150000 0.17149500 8540.32044654 0 237.41041189 0 2699.61088281 0 151.90053365 0 -333.83721012 0 32608
0.17250000 0.17250900 8344.94669618 0 194.79822904 0 2584.15815915 0 205.39029422 0 -108.37842012 0 32361
0.17350000 0.17350400 8298.42164280 0 64.18287920 0 2484.20629285 0 251.27800270 0 -222.69190383 0 32508
0.17450000 0.17449800 8177.97807022 0 83.20127339 0 2489.07349462 0 191.03261104 0 16.03411383 0 32791
0.17550000 0.17549800 8205.32657345 0 87.08739116 0 2605.54911749 0 -4.38206652 0 -86.48983817 0 33633
0.17650000 0.17650100 8170.10961471 0 165.74901535 0 2691.16915411 0 -128.53908924 0 488.72888094 0 33984
0.17750000 0.17750300 7993.59767628 0 148.21022802 0 2701.13961131 0 -109.37119439 0 487.02142609 0 34069
0.17850000 0.17849800 8107.13948932 0 30.33210915 0 2915.88100287 0 60.43333534 0 911.87306112 0 34536
