### header ###
fiducial parameters:
Omega_m = 0.31
Omega_nu = 0
Omega_de = 0.69
Omega_k = 0
H_0 = 100
w_de = -1
zeff = 0
beta = 0
fgrowth = 0
b_1 = 2
gamma = 0.55
Lx = 3500 Ly = 3500 Lz = 3500
nx = 700 ny = 700 nz = 700
xoffset = 857.220397 yoffset = 15.9954215 zoffset = 262.898189
bins = 400 dk = 0.001
kx_ny = 0.628318531 ky_ny = 0.628318531 kz_ny = 0.628318531
############################
A(data) = 3.03979273 (not used)
A(ran) = 3.0388613 (used)
Ngal = 185673
weighted Ngal = 0
Nran = 9360983
weighted Nran = 0
SN(data) = 3443.43341
SN(ran) = 68.2414042
SN(data+ran) = 3511.67482
############################
13 columns: k_central k_mean P_0(k) sigma^{lin}_{P_0(k)} P^img_1(k) sigma^{lin}_{P_1(k)} P_2(k) sigma^{lin}_{P_2(k)} P^img_3(k) sigma^{lin}_{P_3(k)} P_4(k) sigma^{lin}_{P_4(k)} N_modes
### header ###
0.00050000 0 0 0 0 0 0 0 0 0 0 0 0
0.00150000 0.00179520 11770.64741296 0 -15695.77024171 0 9562.73631507 0 13795.53823564 0 -8164.53425195 0 3
0.00250000 0.00253879 19365.50548586 0 -11517.84517802 0 4238.27611747 0 -4919.90917780 0 -11429.83088279 0 6
0.00350000 0.00331552 23967.09067560 0 -2352.09492481 0 11101.63760340 0 286.75124828 0 20457.42229787 0 7
0.00450000 0.00420575 25537.07236320 0 428.41829351 0 8661.46093946 0 765.92670016 0 1769.69432914 0 24
0.00550000 0.00557378 29912.27084723 0 -5583.29866199 0 11709.83549250 0 2804.34002567 0 9574.67388615 0 45
0.00650000 0.00659388 53029.90554709 0 -21407.81931717 0 -1556.97625470 0 5890.37075866 0 5792.47593144 0 40
0.00750000 0.00754703 63738.64868549 0 -21848.11560631 0 3785.51394668 0 9747.02678381 0 8368.86680094 0 57
0.00850000 0.00846663 97165.42139027 0 -25889.46676362 0 -9451.22905982 0 -2116.35599768 0 14585.64357552 0 75
0.00950000 0.00948925 113132.65334713 0 -20140.54835376 0 -19479.48568427 0 -2098.05621829 0 2956.10005119 0 112
0.01050000 0.01054430 129983.51285796 0 -2358.55829898 0 -13917.04967004 0 -10142.81009605 0 -26709.35982794 0 105
0.01150000 0.01145670 129537.25902394 0 10644.34545036 0 -16348.62723617 0 -27837.47153530 0 -33434.30394077 0 144
0.01250000 0.01249090 110288.65630569 0 19768.70762758 0 204.19204085 0 -40310.88443196 0 -46166.58902376 0 169
0.01350000 0.01339930 98621.76009897 0 22489.28232400 0 24438.29875425 0 -49073.98333533 0 -34044.78368197 0 180
0.01450000 0.01448870 74660.06493572 0 15318.75881619 0 29105.52934426 0 -25172.20084047 0 -53139.72670473 0 267
0.01550000 0.01550050 66781.15561885 0 6276.36346411 0 52325.67877879 0 -14147.03338400 0 -60997.16637871 0 238
0.01650000 0.01653350 64704.67020931 0 -1803.49496588 0 39602.49862289 0 5189.72975794 0 -51320.53979043 0 315
0.01750000 0.01747870 75119.13311157 0 -3837.71552867 0 53592.83733570 0 7636.17870499 0 -45226.64580964 0 297
0.01850000 0.01844180 72402.60504942 0 -1271.82342696 0 37897.96634604 0 3164.10829297 0 -43351.48045469 0 388
0.01950000 0.01947590 74889.03699111 0 1921.28574489 0 36867.19867401 0 17729.65358498 0 -40199.37717671 0 399
0.02050000 0.02045430 70890.51271308 0 4189.64906241 0 31467.86450189 0 5427.04237618 0 -29970.72223103 0 462
0.02150000 0.02154770 67697.15624692 0 4335.85620647 0 33928.44294690 0 9824.08144457 0 -18796.27893284 0 571
0.02250000 0.02255340 65651.24540737 0 2783.62350637 0 22692.85050874 0 7529.88711168 0 -15961.04959896 0 510
0.02350000 0.02348930 62986.76155809 0 214.44576245 0 20871.30305778 0 6400.43776688 0 -13096.70697969 0 555
0.02450000 0.02439640 63563.85656662 0 811.71549091 0 21289.56767148 0 6398.97648228 0 -3931.30518666 0 592
0.02550000 0.02547300 63827.00020024 0 -586.14148424 0 19670.35193368 0 1232.37998354 0 -6910.36988729 0 837
0.02650000 0.02652900 65727.79423885 0 520.41177909 0 19948.55803928 0 -2295.20599146 0 -9881.28511614 0 723
0.02750000 0.02749970 68009.75874374 0 2159.36272738 0 21032.94361529 0 -5263.14244787 0 -10112.19056346 0 826
0.02850000 0.02848090 63407.94874098 0 2125.75318169 0 18175.12057345 0 -3530.73335721 0 -15618.77178420 0 831
0.02950000 0.02946900 61597.75434727 0 2187.45311355 0 22461.96754272 0 1468.95071883 0 -11269.42679686 0 996
0.03050000 0.03053250 59492.49287186 0 2088.36677736 0 13458.43112022 0 4885.68139632 0 -14177.83276700 0 1041
0.03150000 0.03150510 57164.44169896 0 3635.28264966 0 12796.24438565 0 6166.67719428 0 -19831.20564564 0 1036
0.03250000 0.03246190 54648.89647187 0 3544.76168932 0 8250.07560401 0 980.16788277 0 -12516.12736944 0 1059
0.03350000 0.03345080 48538.47873451 0 3880.44124210 0 13256.21181357 0 -1357.46594488 0 -11244.58495875 0 1302
0.03450000 0.03451200 47192.41080947 0 2209.19253207 0 13617.03670203 0 -182.90000024 0 -4259.89188883 0 1339
0.03550000 0.03553350 47880.00141469 0 -75.39126927 0 19373.14912836 0 452.84535161 0 2711.96435796 0 1365
0.03650000 0.03647120 48628.40394036 0 -1478.78628822 0 17974.02533187 0 5937.00821854 0 2166.61294710 0 1308
0.03750000 0.03744890 49967.05303591 0 -1410.51057568 0 20186.63502176 0 5745.17527316 0 6391.95107558 0 1579
0.03850000 0.03847530 52322.98102262 0 -1459.13763074 0 17822.16414049 0 5357.32786034 0 3981.26987916 0 1662
0.03950000 0.03950240 51909.21266921 0 1528.50368640 0 13698.53141983 0 3569.56980548 0 2826.50658891 0 1683
0.04050000 0.04050350 50745.01847300 0 2201.79618389 0 14428.16205878 0 -4700.54787878 0 -4941.47998655 0 1822
0.04150000 0.04152450 48221.60479040 0 2608.70774035 0 12369.99890993 0 -5247.83268157 0 -6703.38454473 0 1887
0.04250000 0.04250150 45867.70012082 0 2297.07193948 0 15565.49109974 0 -5213.00914561 0 -12469.25385589 0 1920
0.04350000 0.04349210 45299.14800685 0 864.18909665 0 16581.19629979 0 -3478.81279148 0 -5260.87183642 0 2005
0.04450000 0.04448520 43142.62916411 0 558.01512798 0 17169.19473953 0 2318.38421327 0 -12123.15421988 0 2151
0.04550000 0.04548030 44168.22613681 0 673.22842578 0 18864.50968278 0 5523.54336270 0 -5179.56820968 0 2274
0.04650000 0.04648670 43534.36584208 0 599.38409486 0 18381.94854690 0 3328.82878878 0 -5673.47116215 0 2311
0.04750000 0.04749250 42068.69739327 0 258.02801346 0 13722.36159938 0 4715.00335562 0 -5532.81689955 0 2568
0.04850000 0.04851840 41962.13602434 0 931.48350039 0 20026.23093583 0 -1124.86315930 0 1751.55191886 0 2493
0.04950000 0.04949480 40825.70623544 0 600.08438740 0 12379.44105655 0 -918.70625270 0 -5769.88222347 0 2644
0.05050000 0.05050630 41467.32257916 0 1509.43954276 0 22827.17628497 0 341.84167751 0 7013.54782035 0 2829
0.05150000 0.05149060 40390.35583263 0 1930.66044760 0 15848.86790467 0 -71.11195353 0 -1891.18328224 0 2784
0.05250000 0.05249300 39185.02085474 0 2020.09106482 0 22915.07817369 0 3442.84270914 0 8371.22733759 0 3055
0.05350000 0.05348950 38296.22260144 0 1765.47908511 0 20712.24784994 0 3423.48630858 0 6549.00544759 0 3009
0.05450000 0.05448610 35682.20927395 0 1575.44464385 0 21960.18489409 0 2258.61767333 0 11223.39633212 0 3336
0.05550000 0.05550870 36117.11005073 0 1229.37872980 0 24228.09858558 0 1519.14022434 0 12561.08997236 0 3349
0.05650000 0.05647670 33649.67480877 0 -23.89132869 0 23345.25787717 0 -478.73369431 0 8963.10380183 0 3324
0.05750000 0.05747970 36002.68022629 0 484.90593562 0 24686.82954191 0 -918.65904197 0 13028.81344928 0 3639
0.05850000 0.05849280 34801.95391521 0 54.92058300 0 23739.69231132 0 -15.35574056 0 9388.37134094 0 3846
0.05950000 0.05951020 35163.90286874 0 505.21554336 0 25656.89769999 0 1669.79866609 0 10407.28012645 0 3787
0.06050000 0.06049470 34843.76913593 0 526.18497730 0 21226.84484040 0 3354.83965457 0 7814.71396055 0 3930
0.06150000 0.06148310 34074.79621942 0 832.62422534 0 21627.46163246 0 5177.75846491 0 9194.51507843 0 4083
0.06250000 0.06249100 32517.51646715 0 611.83761181 0 16983.04956343 0 4415.92336162 0 5367.72546227 0 4303
0.06350000 0.06350600 32055.86294163 0 -166.67861717 0 14992.33031897 0 4158.13027776 0 8878.32681402 0 4470
0.06450000 0.06451750 31584.54245648 0 -120.28058315 0 12391.80577235 0 4530.27450151 0 5541.50592257 0 4479
0.06550000 0.06550280 32109.03121958 0 -602.68884618 0 10208.53418087 0 3742.73202999 0 8159.28486806 0 4636
0.06650000 0.06648880 31790.92080390 0 -481.33815308 0 7188.90197175 0 1640.49428963 0 7821.15485342 0 4653
0.06750000 0.06749660 32856.53449319 0 -249.65148054 0 7821.12113147 0 1451.11180612 0 6811.64325192 0 5220
0.06850000 0.06852730 31740.22546910 0 320.06741298 0 6531.38010724 0 405.74590098 0 5731.74269554 0 5029
0.06950000 0.06949320 32168.26944894 0 659.66882880 0 6745.13232154 0 217.84381117 0 5588.59300848 0 5040
0.07050000 0.07048030 30891.78115192 0 1001.47566029 0 7218.34123602 0 95.46752110 0 6478.44788295 0 5475
0.07150000 0.07148790 30388.76203171 0 945.60175770 0 6591.69743906 0 295.46724885 0 5630.81289263 0 5509
0.07250000 0.07249820 29640.58431906 0 995.72831557 0 7233.97698118 0 1104.87953043 0 6858.74157848 0 5916
0.07350000 0.07351270 28992.44839791 0 488.67492581 0 5639.52439694 0 788.08427088 0 4548.61924350 0 5721
0.07450000 0.07449140 28749.98756164 0 213.57798421 0 6979.67973970 0 -146.84448895 0 5567.35941925 0 6028
0.07550000 0.07549160 28406.58568181 0 163.73019448 0 6121.56846289 0 338.37955709 0 5118.59892012 0 6183
0.07650000 0.07648840 28171.99330105 0 -90.18508969 0 4800.53346703 0 311.92468559 0 2398.90099445 0 6330
0.07750000 0.07749960 28062.95898896 0 73.98922290 0 4788.42728620 0 -1292.19148608 0 1570.64488599 0 6583
0.07850000 0.07848650 28316.32325644 0 305.81764005 0 5313.00597451 0 -804.27867639 0 -316.06461725 0 6549
0.07950000 0.07947320 27897.49661020 0 352.00322577 0 5756.10118568 0 -1468.86079362 0 -700.24195761 0 6828
0.08050000 0.08048110 27453.49090633 0 581.14501499 0 5454.00869728 0 -936.60249273 0 -2669.85688032 0 7147
0.08150000 0.08149960 27248.68625001 0 498.33064479 0 6984.90664229 0 -972.64676336 0 -1196.65719552 0 7386
0.08250000 0.08250610 26825.36334348 0 470.42348122 0 5628.12637710 0 136.32661207 0 -2323.57739390 0 7227
0.08350000 0.08350160 26965.42185159 0 671.78287809 0 8096.56203698 0 126.45057633 0 -1910.65208930 0 7798
0.08450000 0.08449610 25876.76482829 0 1053.19839057 0 6066.35438650 0 -610.74389649 0 -1068.89371118 0 7371
0.08550000 0.08548940 24942.10472001 0 913.15449530 0 8395.11372039 0 1136.66584257 0 -1187.84452535 0 8256
0.08650000 0.08650700 24154.92194932 0 897.84697714 0 6493.99370291 0 48.89491977 0 -172.27983343 0 8037
0.08750000 0.08749060 23799.60497971 0 222.18719861 0 7007.02824292 0 2056.62317969 0 -1242.19307163 0 8155
0.08850000 0.08849210 23440.24137584 0 379.49336120 0 5994.18940881 0 222.60422675 0 615.34357077 0 8718
0.08950000 0.08949900 23071.99765790 0 307.16539407 0 6952.67969664 0 1063.81968144 0 -119.04411157 0 8571
0.09050000 0.09049190 22642.49239346 0 937.02289307 0 6272.01333228 0 -555.88165247 0 55.05311027 0 8932
0.09150000 0.09150830 21812.14552397 0 1064.54919967 0 6550.30936307 0 -341.66857149 0 36.76209859 0 9285
0.09250000 0.09250820 20542.17680438 0 1032.65272916 0 6670.01105271 0 -627.47785324 0 -784.80874526 0 9204
0.09350000 0.09350330 19811.64691337 0 914.54046754 0 7992.20383559 0 -439.22280699 0 557.91058993 0 9349
0.09450000 0.09448040 19151.93312197 0 653.46736179 0 6746.20018336 0 -135.87811010 0 -1753.96865876 0 9564
0.09550000 0.09549270 18456.36165474 0 455.93877869 0 7670.36152386 0 -501.94226587 0 -876.43803376 0 10155
0.09650000 0.09649430 18646.55346510 0 77.99168141 0 7207.44904546 0 -162.47236567 0 -1575.39968125 0 9913
0.09750000 0.09749140 18266.16984437 0 -121.56988579 0 7307.17609874 0 173.65568908 0 -1050.42419797 0 10476
0.09850000 0.09850240 18622.38606603 0 -15.01436199 0 7518.54529509 0 218.43844159 0 -1156.08968703 0 10575
0.09950000 0.09950330 18742.88584187 0 195.22987003 0 7614.21447346 0 666.12545858 0 -933.67430321 0 10882
0.10050000 0.10051200 18443.32249989 0 479.04955659 0 7266.69851546 0 646.90057363 0 -92.71322445 0 10875
0.10150000 0.10150300 18040.00795166 0 650.65270285 0 7218.54356773 0 804.32363899 0 854.98974810 0 11118
0.10250000 0.10250800 17500.79393609 0 383.53999546 0 7772.92122113 0 695.64565553 0 1464.65679025 0 11575
0.10350000 0.10349800 17211.12236676 0 351.84473260 0 7017.34716030 0 774.85739716 0 980.77487791 0 11364
0.10450000 0.10450100 16949.77723726 0 308.05790174 0 7420.13339794 0 153.39441614 0 1929.18792236 0 12093
0.10550000 0.10551000 16595.24711321 0 459.91010059 0 6642.72999338 0 47.11788530 0 1132.07965707 0 12067
0.10650000 0.10649700 16253.86855051 0 515.52434415 0 7275.47746368 0 296.45530205 0 1926.09674341 0 12054
0.10750000 0.10749900 16016.80322659 0 299.64877093 0 6371.35820344 0 23.64246068 0 632.12249012 0 12807
0.10850000 0.10850100 15708.02255101 0 -177.53820984 0 6413.34203392 0 551.31794827 0 680.42806257 0 12736
0.10950000 0.10950300 16087.61932619 0 -272.94660511 0 5923.96906369 0 532.20996610 0 -527.03364643 0 12933
0.11050000 0.11050200 16246.67453404 0 -373.82582510 0 5432.31424137 0 464.75819325 0 -779.60994429 0 13428
0.11150000 0.11150900 16381.22512329 0 -99.11983333 0 5211.46917646 0 -216.63768934 0 -917.71033104 0 13453
0.11250000 0.11250000 16416.85798611 0 320.64181023 0 5083.55057114 0 -390.69579372 0 -1751.65308471 0 13668
0.11350000 0.11349100 16109.08896909 0 446.51012086 0 5316.10839411 0 -176.55465290 0 -1235.95451048 0 13791
0.11450000 0.11448600 15714.87934795 0 535.58328538 0 5629.39657064 0 66.46978959 0 -1400.28158351 0 14205
0.11550000 0.11549300 15351.01948379 0 310.60503319 0 5634.73587973 0 165.99743373 0 -769.96096971 0 14776
0.11650000 0.11649800 15008.85407554 0 308.63117493 0 5406.77548291 0 512.16114145 0 -1024.82361593 0 14553
0.11750000 0.11747300 14788.31250820 0 44.76701560 0 5179.63565359 0 951.69981073 0 -1018.21411330 0 14568
0.11850000 0.11849100 14476.72166994 0 196.38316079 0 4806.42356802 0 730.35341279 0 -381.28174873 0 16015
0.11950000 0.11950300 14476.49685692 0 13.15291023 0 3860.83754722 0 938.60670075 0 -556.88319445 0 15270
0.12050000 0.12050700 14307.32506342 0 -6.14601688 0 3692.43011797 0 825.61343148 0 -131.68984364 0 15999
0.12150000 0.12150000 14336.43834881 0 56.66086055 0 2774.33872887 0 328.01680118 0 -949.57083148 0 15670
0.12250000 0.12250700 14103.86928519 0 193.21891761 0 3465.41393581 0 36.72624091 0 -435.64378380 0 16887
0.12350000 0.12352200 13923.11962143 0 359.08033947 0 3188.29817334 0 -610.24705973 0 -799.60818601 0 16407
0.12450000 0.12449800 13744.16846180 0 409.05402449 0 3905.26059891 0 -468.60699206 0 177.56181521 0 16306
0.12550000 0.12549900 13330.17529538 0 258.05836322 0 4075.53397619 0 -521.15478610 0 -448.19734253 0 17523
0.12650000 0.12650100 13535.99161026 0 60.03013320 0 4570.53851243 0 266.30787679 0 33.04009432 0 17154
0.12750000 0.12750600 13382.21950826 0 21.79517214 0 4389.84505193 0 34.42483008 0 -451.64372605 0 18007
0.12850000 0.12850300 13566.56618025 0 187.70425436 0 4623.40329281 0 221.08673890 0 -130.60624491 0 17496
0.12950000 0.12949900 13343.55166974 0 253.08212714 0 4852.40907016 0 -167.06529555 0 245.81617051 0 18405
0.13050000 0.13049000 13184.38405539 0 284.46265179 0 5168.56361262 0 88.56373823 0 455.54085965 0 18100
0.13150000 0.13148800 13037.69356335 0 176.17134671 0 5027.57213050 0 257.28163426 0 827.46251852 0 19059
0.13250000 0.13249300 12962.38120346 0 16.71136304 0 5390.69011171 0 171.51209698 0 795.15014393 0 18957
0.13350000 0.13349100 13018.92167663 0 90.31525643 0 5504.32184995 0 448.22769229 0 1207.20092591 0 19468
0.13450000 0.13450700 12890.55344529 0 138.83440124 0 5552.40935378 0 215.18539727 0 1788.52241911 0 19953
0.13550000 0.13551000 12700.24922841 0 280.09453491 0 4981.84516332 0 69.29546437 0 1846.17571671 0 19956
0.13650000 0.13649900 12618.41729109 0 341.37294237 0 5527.58999696 0 147.31322409 0 2211.68795653 0 19723
0.13750000 0.13749600 12161.48483887 0 303.91684601 0 5276.88976371 0 82.71534006 0 1312.22232569 0 20946
0.13850000 0.13851100 11961.96328840 0 169.20439139 0 5040.03801216 0 281.19274649 0 2126.69739635 0 20955
0.13950000 0.13949800 11757.60825811 0 135.89834327 0 4735.10163913 0 398.17644678 0 1084.75988969 0 20506
0.14050000 0.14048300 11827.74991867 0 -49.79855568 0 4053.51354140 0 641.11725883 0 1574.20817227 0 21447
0.14150000 0.14148400 11573.26158612 0 85.02641785 0 3983.24823368 0 752.58629587 0 690.82566450 0 21771
0.14250000 0.14249400 11532.90765000 0 234.66207279 0 3271.83868957 0 322.48302882 0 856.46339741 0 22470
0.14350000 0.14350900 11219.49582632 0 253.74869773 0 3109.99580035 0 339.74979241 0 757.93796968 0 22519
0.14450000 0.14449900 10993.51378402 0 300.18270184 0 2773.20342314 0 202.68804179 0 579.89505463 0 22218
0.14550000 0.14550500 10812.05595927 0 182.49308868 0 2492.40072723 0 88.46470810 0 573.82622730 0 23559
0.14650000 0.14650700 10669.24349173 0 79.41845720 0 2656.90765068 0 -67.11534017 0 129.94079839 0 23044
0.14750000 0.14750500 10559.64714710 0 108.17271621 0 2562.65479430 0 24.24125015 0 289.02523192 0 23649
0.14850000 0.14849900 10518.89978820 0 116.28115962 0 2587.21561615 0 201.83150420 0 313.38147392 0 23640
0.14950000 0.14949500 10362.31752352 0 45.51002261 0 2499.85327867 0 351.06125924 0 622.26443943 0 24457
0.15050000 0.15050000 10362.56481784 0 78.21222297 0 2416.41392829 0 479.63069824 0 821.50160144 0 24591
0.15150000 0.15149900 10487.20115314 0 -27.28330745 0 2332.99705922 0 573.16190484 0 929.47029984 0 25020
0.15250000 0.15250500 10399.80509371 0 -20.82735211 0 2327.79263793 0 92.48458961 0 893.10454659 0 25297
0.15350000 0.15350100 10399.04072946 0 145.07408646 0 2388.90805595 0 -182.82806007 0 947.53514963 0 25452
0.15450000 0.15450400 10380.65102486 0 126.11110868 0 2550.34628175 0 -304.49573952 0 1172.11885497 0 26061
0.15550000 0.15549900 10084.35871225 0 307.83646092 0 2930.17911060 0 -213.67915007 0 802.83200464 0 26128
0.15650000 0.15649500 10001.22285944 0 356.92550673 0 3149.42800311 0 -512.83445643 0 1134.62004414 0 26331
0.15750000 0.15749700 9671.01750357 0 260.52343793 0 3479.07132645 0 164.47207743 0 813.93214724 0 27345
0.15850000 0.15849900 9564.99568587 0 208.61860911 0 3406.89510810 0 78.15860507 0 895.49093674 0 26980
0.15950000 0.15949700 9370.36381846 0 133.06457522 0 3499.95645551 0 73.20271457 0 999.13423274 0 27777
0.16050000 0.16050000 9366.55323787 0 80.61704779 0 3545.11014949 0 67.28001570 0 892.59759325 0 28224
0.16150000 0.16150500 9301.98694007 0 70.12637328 0 3565.17471105 0 -110.59147944 0 1080.94031657 0 28075
0.16250000 0.16249700 9370.28513391 0 48.81533596 0 3446.33855152 0 109.16807583 0 1103.06978566 0 28590
0.16350000 0.16349900 9213.59046272 0 -20.24733454 0 3340.21556797 0 60.83946005 0 1051.77757231 0 29163
0.16450000 0.16449100 9273.22211485 0 -42.92388610 0 3342.31756965 0 159.37331826 0 831.70586417 0 28996
0.16550000 0.16550500 9236.56635281 0 13.77822763 0 2997.71294019 0 11.23760451 0 166.67524497 0 30777
0.16650000 0.16650700 9226.83194928 0 101.73272260 0 3095.55156416 0 -204.81477290 0 201.86972241 0 29211
0.16750000 0.16749900 9108.94000441 0 194.62175082 0 2842.58071946 0 -258.59679039 0 -286.81869218 0 30922
0.16850000 0.16850800 8966.19498078 0 159.28114492 0 2930.40392362 0 -98.92244751 0 -421.84700909 0 30867
0.16950000 0.16949900 8747.18214194 0 215.01229125 0 2872.63821951 0 104.37854696 0 -513.20652197 0 30852
0.17050000 0.17049200 8676.71450251 0 184.31969443 0 2623.66904647 0 316.58168719 0 -614.99623466 0 31257
0.17150000 0.17149500 8488.10762389 0 118.07629154 0 2352.61199474 0 518.73242587 0 -778.47351450 0 32608
0.17250000 0.17250900 8306.43622678 0 139.17274483 0 2166.16332107 0 631.26370440 0 -305.38375093 0 32361
0.17350000 0.17350400 8328.88380629 0 158.85962052 0 2121.26816205 0 471.61611426 0 -344.32923352 0 32508
0.17450000 0.17449800 8051.07112347 0 159.67456770 0 1797.23392343 0 367.56028638 0 212.19875637 0 32791
0.17550000 0.17549800 7961.66298756 0 168.54793739 0 1883.06753241 0 206.54583312 0 329.15435503 0 33633
0.17650000 0.17650100 7955.12092883 0 104.97935975 0 1740.09769576 0 221.89156949 0 836.30216626 0 33984
0.17750000 0.17750300 7817.94002731 0 45.47011830 0 1882.14579905 0 36.33371739 0 932.17480041 0 34069
