### header ###
fiducial parameters:
Omega_m = 0.31
Omega_nu = 0
Omega_de = 0.69
Omega_k = 0
H_0 = 100
w_de = -1
zeff = 0
beta = 0
fgrowth = 0
b_1 = 2
gamma = 0.55
Lx = 3500 Ly = 3500 Lz = 3500
nx = 700 ny = 700 nz = 700
xoffset = 857.220397 yoffset = 15.9954215 zoffset = 262.898189
bins = 400 dk = 0.001
kx_ny = 0.628318531 ky_ny = 0.628318531 kz_ny = 0.628318531
############################
A(data) = 3.06466129 (not used)
A(ran) = 3.06564993 (used)
Ngal = 187175
weighted Ngal = 0
Nran = 9360983
weighted Nran = 0
SN(data) = 3445.8462
SN(ran) = 68.8429762
SN(data+ran) = 3514.68917
############################
13 columns: k_central k_mean P_0(k) sigma^{lin}_{P_0(k)} P^img_1(k) sigma^{lin}_{P_1(k)} P_2(k) sigma^{lin}_{P_2(k)} P^img_3(k) sigma^{lin}_{P_3(k)} P_4(k) sigma^{lin}_{P_4(k)} N_modes
### header ###
0.00050000 0 0 0 0 0 0 0 0 0 0 0 0
0.00150000 0.00179520 14098.58617935 0 -13701.00436299 0 -6363.13004710 0 58494.54789996 0 -19972.16340581 0 3
0.00250000 0.00253879 30700.69008950 0 -22292.68334272 0 10134.75054947 0 24630.17666223 0 62902.56908412 0 6
0.00350000 0.00331552 50084.06821002 0 -23819.83815103 0 16455.41341811 0 5393.80377196 0 -100064.49762030 0 7
0.00450000 0.00420575 68783.11551404 0 -18847.42389367 0 -4713.37346127 0 45052.52812981 0 -9279.22462234 0 24
0.00550000 0.00557378 79235.79662879 0 -3445.61914987 0 -28594.52936203 0 26772.64469155 0 -18433.20591423 0 45
0.00650000 0.00659388 84394.46846876 0 -5371.62596807 0 -60081.72778318 0 3415.06706119 0 7175.63800389 0 40
0.00750000 0.00754703 78393.98429554 0 647.87288992 0 -48663.47477064 0 -9465.25739194 0 -25647.45555338 0 57
0.00850000 0.00846663 76806.24237979 0 -2518.18678001 0 -74727.73365312 0 -24372.76576049 0 -1526.82882944 0 75
0.00950000 0.00948925 72918.66332448 0 -4647.91915206 0 -58794.22364845 0 -20783.85079510 0 -8780.37578355 0 112
0.01050000 0.01054430 85525.50274531 0 -4868.37079420 0 -57899.46785026 0 -35707.72555111 0 -29229.17650230 0 105
0.01150000 0.01145670 90984.63717932 0 -6968.00070359 0 -47475.67520789 0 -32810.67263821 0 -19933.83278682 0 144
0.01250000 0.01249090 94646.39156145 0 -2797.64059783 0 -32823.48698005 0 -27365.58901761 0 -32306.86667245 0 169
0.01350000 0.01339930 99913.42327447 0 -2268.26215166 0 -22247.94555281 0 -20810.71595034 0 -1607.88516186 0 180
0.01450000 0.01448870 99056.77328226 0 -3731.21036299 0 -21429.40136658 0 -17210.78514724 0 -27877.26343889 0 267
0.01550000 0.01550050 111959.01700431 0 -1457.60890224 0 -9922.78559864 0 -14204.92273526 0 -50160.16741547 0 238
0.01650000 0.01653350 97285.24672706 0 4889.93036230 0 -7744.16763656 0 -17129.62764896 0 -37901.22613476 0 315
0.01750000 0.01747870 94529.15157433 0 9545.20089993 0 11085.10260618 0 -15132.27642057 0 -39221.32815660 0 297
0.01850000 0.01844180 82237.72481300 0 8997.35406461 0 9962.31896726 0 -10642.74927796 0 -27630.75596836 0 388
0.01950000 0.01947590 80970.67866261 0 6771.55909141 0 16463.95631267 0 -4346.01775473 0 -23985.97496883 0 399
0.02050000 0.02045430 73875.24270168 0 4535.88358622 0 14385.44758600 0 5765.41968513 0 -10036.90068486 0 462
0.02150000 0.02154770 74083.75677274 0 3157.61119684 0 17517.31769267 0 10942.82968987 0 1532.96622474 0 571
0.02250000 0.02255340 71280.56329345 0 -272.82295796 0 15078.65851658 0 11321.58341625 0 8781.10642584 0 510
0.02350000 0.02348930 70523.16824719 0 3234.86818932 0 25207.04685774 0 10159.00787375 0 28043.84988272 0 555
0.02450000 0.02439640 73234.30079700 0 -81.65916852 0 4963.72523435 0 5126.23132196 0 19626.62580234 0 592
0.02550000 0.02547300 73488.78912955 0 536.94115599 0 22582.91694459 0 5425.81714525 0 38861.73973972 0 837
0.02650000 0.02652900 73593.10236834 0 4049.51186974 0 21391.85759313 0 -6836.19283311 0 26447.56507241 0 723
0.02750000 0.02749970 71729.73969666 0 2689.55050040 0 39361.16185170 0 256.48017586 0 31954.35986553 0 826
0.02850000 0.02848090 66918.85359030 0 5092.41944457 0 42370.39645889 0 -7274.39836121 0 23556.91933043 0 831
0.02950000 0.02946900 66816.22644913 0 4344.69135794 0 40284.69371576 0 -1905.12168914 0 24996.50946955 0 996
0.03050000 0.03053250 63854.20257500 0 1822.88508839 0 49145.36146747 0 2415.85189576 0 11545.15995929 0 1041
0.03150000 0.03150510 64000.44344101 0 2335.67233409 0 39886.77467988 0 4496.24905175 0 7295.19356506 0 1036
0.03250000 0.03246190 61607.53371340 0 1719.04395694 0 42577.11202583 0 4417.29472101 0 -2819.95328953 0 1059
0.03350000 0.03345080 61687.45474010 0 525.68364428 0 32274.94322437 0 5448.00618979 0 -2280.35709184 0 1302
0.03450000 0.03451200 58539.73531590 0 935.31993448 0 30734.29963518 0 9365.92376143 0 -5175.55529737 0 1339
0.03550000 0.03553350 59300.95218340 0 1683.32116892 0 27071.98322052 0 4803.91690290 0 -10827.02850604 0 1365
0.03650000 0.03647120 55810.16809889 0 2710.00848473 0 27494.29446848 0 4124.21723450 0 -4863.35746397 0 1308
0.03750000 0.03744890 54425.20752233 0 3855.03737145 0 29819.31066568 0 3006.63801687 0 -2881.51833359 0 1579
0.03850000 0.03847530 48948.65007968 0 3244.74872131 0 26600.66273537 0 420.63751507 0 26.03435875 0 1662
0.03950000 0.03950240 48819.38259627 0 1203.72756483 0 31722.46524094 0 6863.74366806 0 5869.53059220 0 1683
0.04050000 0.04050350 46815.51179046 0 -388.68034504 0 25398.81235921 0 5855.17628122 0 3330.35751728 0 1822
0.04150000 0.04152450 47641.24999316 0 -1622.07086308 0 22437.57533064 0 10740.43053281 0 9661.94629843 0 1887
0.04250000 0.04250150 47587.07005664 0 -1344.68532500 0 16775.32233792 0 5726.42586775 0 1776.65229194 0 1920
0.04350000 0.04349210 48030.73854099 0 94.32861837 0 12727.00197715 0 5282.92599315 0 1204.44696648 0 2005
0.04450000 0.04448520 45098.83961082 0 1905.87481274 0 9619.34423216 0 195.37937068 0 -2251.54730402 0 2151
0.04550000 0.04548030 43387.45053703 0 1706.13968990 0 6721.43702980 0 902.33874117 0 -4694.38800218 0 2274
0.04650000 0.04648670 42951.53810168 0 1901.13125813 0 5793.48759001 0 -883.53875282 0 -3704.98592484 0 2311
0.04750000 0.04749250 41383.01769868 0 810.36211656 0 8310.13440087 0 725.60761005 0 -7414.29950021 0 2568
0.04850000 0.04851840 40039.64752982 0 974.49922260 0 4840.06683565 0 -1343.39265016 0 -5084.71959881 0 2493
0.04950000 0.04949480 39707.82352024 0 785.48768056 0 5935.27715833 0 325.63153509 0 -8084.37717159 0 2644
0.05050000 0.05050630 38143.68697102 0 1399.75327293 0 3454.98261193 0 -3743.45143164 0 -9478.27406548 0 2829
0.05150000 0.05149060 38079.84007487 0 1090.52072319 0 5410.18140008 0 -1720.60640739 0 -9278.53894264 0 2784
0.05250000 0.05249300 35619.14922335 0 1482.24840864 0 4737.31604732 0 -2313.76430582 0 -10620.86373099 0 3055
0.05350000 0.05348950 34673.69809037 0 955.70710271 0 4298.14382326 0 741.01067375 0 -9539.34452090 0 3009
0.05450000 0.05448610 33947.77686616 0 1393.22245485 0 6113.02556834 0 527.51137409 0 -7815.05118007 0 3336
0.05550000 0.05550870 32670.27691058 0 1476.87537759 0 7078.35017181 0 -1143.17417934 0 -6404.18090357 0 3349
0.05650000 0.05647670 31120.86561382 0 1375.39478279 0 8054.98286992 0 -96.00864602 0 -4857.99567357 0 3324
0.05750000 0.05747970 31311.73186323 0 738.34214327 0 11956.00574351 0 -3940.11785683 0 -4476.36434060 0 3639
0.05850000 0.05849280 31420.65376882 0 110.61879422 0 11837.97891084 0 -3521.76331792 0 -5498.84765305 0 3846
0.05950000 0.05951020 32170.06795305 0 -531.39726705 0 16269.71786804 0 -3535.47691182 0 -4062.84328151 0 3787
0.06050000 0.06049470 33154.41173757 0 -157.92327431 0 14475.26038534 0 -2988.68669766 0 -7502.23511088 0 3930
0.06150000 0.06148310 32658.92385334 0 -28.79483776 0 15123.39630649 0 1574.73648286 0 -5420.64644591 0 4083
0.06250000 0.06249100 32895.98917726 0 513.00419026 0 14451.99223833 0 989.67522515 0 -9018.86867011 0 4303
0.06350000 0.06350600 32935.44386133 0 217.24356042 0 14472.89984869 0 3707.99841923 0 -5694.05279364 0 4470
0.06450000 0.06451750 32182.76988838 0 350.47112508 0 12747.45996148 0 3140.88510856 0 -5333.39651494 0 4479
0.06550000 0.06550280 32078.11943007 0 78.45580787 0 10961.93879612 0 2769.31415799 0 -2870.48001457 0 4636
0.06650000 0.06648880 31821.94499991 0 221.20813793 0 11506.49212078 0 1414.17502782 0 -1164.83491330 0 4653
0.06750000 0.06749660 32275.39285040 0 203.08596082 0 10724.26647706 0 925.58890314 0 37.14529237 0 5220
0.06850000 0.06852730 31510.91619419 0 400.17166228 0 12359.99473078 0 1645.20412229 0 3159.21860990 0 5029
0.06950000 0.06949320 31466.74043681 0 380.06663439 0 10107.46949015 0 1158.98977492 0 588.51550967 0 5040
0.07050000 0.07048030 30617.28446107 0 780.95882238 0 10549.85654032 0 739.72699144 0 1097.93280828 0 5475
0.07150000 0.07148790 29726.01326461 0 545.10861281 0 10540.77409453 0 825.03341390 0 2120.09913437 0 5509
0.07250000 0.07249820 29044.26779778 0 802.03841470 0 8911.08207025 0 -217.05022123 0 1559.06701574 0 5916
0.07350000 0.07351270 28864.75460560 0 312.71040708 0 8891.52333797 0 -304.77675579 0 -673.13288024 0 5721
0.07450000 0.07449140 28232.35559548 0 369.92981556 0 9672.47878816 0 286.05095574 0 122.20385849 0 6028
0.07550000 0.07549160 27888.61649613 0 474.90625273 0 7034.93877869 0 251.70289930 0 -1645.78863613 0 6183
0.07650000 0.07648840 27801.95107899 0 496.18143237 0 8398.26110260 0 771.71675935 0 -2162.80236650 0 6330
0.07750000 0.07749960 26795.46321254 0 875.89061407 0 7698.05848726 0 -121.79357474 0 -2701.78032840 0 6583
0.07850000 0.07848650 26185.54550387 0 1049.47211485 0 7488.11685356 0 396.43639405 0 -3629.57239908 0 6549
0.07950000 0.07947320 24894.55676742 0 1267.07987235 0 9471.65332220 0 -939.58576143 0 -1247.41997422 0 6828
0.08050000 0.08048110 24679.18589941 0 949.95863393 0 9403.25396250 0 -203.69970035 0 -1497.71554405 0 7147
0.08150000 0.08149960 23772.29019844 0 572.15137034 0 9666.54372458 0 430.17071095 0 96.92813125 0 7386
0.08250000 0.08250610 23771.61575939 0 -20.87624894 0 9099.04823177 0 452.27095436 0 752.09395537 0 7227
0.08350000 0.08350160 23829.39270415 0 -149.97838238 0 9123.53036906 0 1953.68130030 0 927.77520971 0 7798
0.08450000 0.08449610 23831.30361477 0 -320.04155948 0 9020.86950594 0 604.19172118 0 963.55532505 0 7371
0.08550000 0.08548940 23797.13203655 0 173.45335736 0 7385.42226848 0 1150.87402509 0 557.12936470 0 8256
0.08650000 0.08650700 23676.85707373 0 448.37831701 0 7206.54979340 0 818.94322933 0 1433.72251944 0 8037
0.08750000 0.08749060 23050.07838897 0 389.36602474 0 7095.94179021 0 359.66822550 0 1228.81669726 0 8155
0.08850000 0.08849210 23198.23016560 0 214.26141578 0 6714.17556943 0 573.01465231 0 2501.29208196 0 8718
0.08950000 0.08949900 22496.47634047 0 215.30792036 0 7151.14462595 0 549.86228400 0 1473.13224090 0 8571
0.09050000 0.09049190 22325.73085587 0 508.45959517 0 6981.86042594 0 1096.20174807 0 2237.37284345 0 8932
0.09150000 0.09150830 21842.49528094 0 683.27644346 0 6473.97410396 0 513.63254263 0 2635.44924844 0 9285
0.09250000 0.09250820 21134.10947187 0 699.24266376 0 6840.22822673 0 253.61268586 0 1511.58650705 0 9204
0.09350000 0.09350330 20663.80064529 0 549.50932757 0 6366.41231711 0 -175.60819011 0 1807.10321477 0 9349
0.09450000 0.09448040 20029.04109851 0 455.72295820 0 6768.91753849 0 74.11905242 0 1042.60857351 0 9564
0.09550000 0.09549270 19517.81630326 0 131.45154184 0 5547.92433414 0 78.98659140 0 1172.62468426 0 10155
0.09650000 0.09649430 19598.29936250 0 356.01051776 0 5613.10886773 0 626.47855939 0 58.74386553 0 9913
0.09750000 0.09749140 19195.65925331 0 73.26341408 0 4481.04045131 0 1056.06700463 0 628.11969439 0 10476
0.09850000 0.09850240 18668.13551451 0 500.09542696 0 3939.89304382 0 913.98293126 0 -21.04969218 0 10575
0.09950000 0.09950330 18354.74617213 0 375.91208988 0 3582.62020098 0 1030.23823738 0 87.20508078 0 10882
0.10050000 0.10051200 17514.05790396 0 747.86185037 0 2884.18236781 0 98.75923326 0 -46.42737212 0 10875
0.10150000 0.10150300 17079.15712718 0 762.45895941 0 3265.69005362 0 302.75793492 0 304.92738051 0 11118
0.10250000 0.10250800 16338.96027654 0 599.20761665 0 3004.26623957 0 -243.61749923 0 651.15515994 0 11575
0.10350000 0.10349800 16092.34039950 0 294.96928803 0 3556.58685389 0 -181.65453614 0 220.68095141 0 11364
0.10450000 0.10450100 15806.15343189 0 213.51278844 0 3335.44953206 0 -65.24478348 0 225.10077528 0 12093
0.10550000 0.10551000 15870.00032804 0 91.31612397 0 3861.68059603 0 -696.96868012 0 166.73257229 0 12067
0.10650000 0.10649700 15844.93367691 0 -13.05084512 0 4114.86501309 0 -335.96618937 0 751.92309748 0 12054
0.10750000 0.10749900 15827.28585526 0 -79.70453176 0 4216.49173635 0 -469.77377161 0 204.58771176 0 12807
0.10850000 0.10850100 15919.34678475 0 108.80590207 0 4183.99501509 0 -84.84971482 0 -757.73788610 0 12736
0.10950000 0.10950300 16028.38109684 0 99.02012876 0 4543.22373115 0 -529.03223413 0 -937.85470122 0 12933
0.11050000 0.11050200 15741.51969019 0 341.34034449 0 4120.71015147 0 -294.43985338 0 -1414.39984083 0 13428
0.11150000 0.11150900 15881.24097877 0 311.42784883 0 4710.04622865 0 -143.12720576 0 -990.47555949 0 13453
0.11250000 0.11250000 15259.40818034 0 105.32186237 0 3584.53111161 0 243.01500035 0 -2627.17612950 0 13668
0.11350000 0.11349100 15409.47086759 0 140.25746763 0 4234.85895965 0 221.55097778 0 -1579.97462610 0 13791
0.11450000 0.11448600 15269.63717250 0 244.72245519 0 4364.36249672 0 170.06430117 0 -2540.03860503 0 14205
0.11550000 0.11549300 14885.54413702 0 407.70964266 0 4554.76787945 0 -31.14211044 0 -1611.08874732 0 14776
0.11650000 0.11649800 14756.50146663 0 369.52290400 0 5220.70899136 0 -541.13167058 0 -1099.96399387 0 14553
0.11750000 0.11747300 14378.92800858 0 245.17657748 0 4922.43832421 0 -156.55191493 0 -1107.21533765 0 14568
0.11850000 0.11849100 14674.78193582 0 67.48324666 0 5873.41985735 0 187.36253858 0 105.99821233 0 16015
0.11950000 0.11950300 14292.37499795 0 -161.21453685 0 4678.17898383 0 602.22123511 0 -950.92420582 0 15270
0.12050000 0.12050700 14570.13147751 0 54.24344620 0 5066.50974463 0 639.43116122 0 -7.94802808 0 15999
0.12150000 0.12150000 14413.21199331 0 125.04999125 0 4274.59465998 0 -6.68328626 0 -1527.26721482 0 15670
0.12250000 0.12250700 14178.50720604 0 283.43638038 0 4444.87927791 0 -137.06624688 0 -680.15603882 0 16887
0.12350000 0.12352200 14008.88578651 0 246.46025980 0 4170.31514315 0 -357.01655600 0 -1888.14830654 0 16407
0.12450000 0.12449800 13849.49335915 0 266.56416363 0 4327.78541924 0 -220.72478995 0 -786.82082174 0 16306
0.12550000 0.12549900 13616.02504346 0 79.25456852 0 3905.80015015 0 315.96232733 0 -1568.45295910 0 17523
0.12650000 0.12650100 13763.38997455 0 146.15206487 0 3749.10547896 0 700.55781990 0 -785.81815569 0 17154
0.12750000 0.12750600 13520.02988622 0 120.50876836 0 3944.42302606 0 717.10293371 0 -1038.42929957 0 18007
0.12850000 0.12850300 13430.89152592 0 109.03352525 0 3369.14900295 0 696.84615703 0 -961.91531411 0 17496
0.12950000 0.12949900 13233.39329258 0 256.01144072 0 3467.72950986 0 -32.11926021 0 -234.43950791 0 18405
0.13050000 0.13049000 12927.87240571 0 320.66653966 0 3017.65385459 0 187.63905859 0 -620.21414473 0 18100
0.13150000 0.13148800 12706.88121234 0 313.83672028 0 3643.81430356 0 -15.51412133 0 151.45427982 0 19059
0.13250000 0.13249300 12447.33458696 0 316.48501759 0 3349.11816335 0 163.46603919 0 -1138.72288165 0 18957
0.13350000 0.13349100 12057.73363263 0 275.27229575 0 3133.63488883 0 -199.37429795 0 -335.68742124 0 19468
0.13450000 0.13450700 11945.10231230 0 134.71133056 0 3377.16358692 0 168.36021852 0 -1188.86742456 0 19953
0.13550000 0.13551000 11819.54424364 0 144.96167996 0 3311.21468908 0 -139.96408664 0 -544.99508224 0 19956
0.13650000 0.13649900 11738.61155837 0 45.52913172 0 3527.93443518 0 219.95817757 0 -616.43728609 0 19723
0.13750000 0.13749600 11700.05612637 0 48.03905662 0 3463.90768861 0 329.55789439 0 -587.92087925 0 20946
0.13850000 0.13851100 11795.60165758 0 -22.16274142 0 3355.90751639 0 699.30111515 0 64.30068122 0 20955
0.13950000 0.13949800 11637.67051481 0 -23.54815162 0 3215.25325379 0 644.79519975 0 -131.08509663 0 20506
0.14050000 0.14048300 11691.40082530 0 117.99873105 0 3390.73105235 0 263.97993803 0 537.82467114 0 21447
0.14150000 0.14148400 11625.19339250 0 180.97222864 0 3170.66159234 0 232.67135355 0 302.68711882 0 21771
0.14250000 0.14249400 11391.83748332 0 262.80641409 0 3341.81174037 0 16.23588351 0 1502.30172955 0 22470
0.14350000 0.14350900 11225.56577771 0 226.80710606 0 3402.80351124 0 -166.64152302 0 990.52839055 0 22519
0.14450000 0.14449900 11038.36398044 0 231.24491497 0 3315.54233961 0 -26.15587019 0 1314.74023145 0 22218
0.14550000 0.14550500 10994.14326046 0 240.15987506 0 3613.71184090 0 -158.50778815 0 1014.60136815 0 23559
0.14650000 0.14650700 10675.21227727 0 163.93927059 0 3247.94106612 0 -8.95849514 0 784.33551386 0 23044
0.14750000 0.14750500 10710.63156772 0 223.02912335 0 3710.87602582 0 -196.55177055 0 1107.19398042 0 23649
0.14850000 0.14849900 10306.47397069 0 59.69471218 0 2933.19160500 0 279.33241880 0 400.54147969 0 23640
0.14950000 0.14949500 10483.25568474 0 175.87908979 0 3627.96498603 0 318.40379667 0 1170.47771997 0 24457
0.15050000 0.15050000 10179.35345157 0 101.82770609 0 2972.62380776 0 438.13583606 0 637.45842702 0 24591
0.15150000 0.15149900 10098.15099069 0 151.77014210 0 2670.90226084 0 472.18826339 0 839.67436147 0 25020
0.15250000 0.15250500 10042.00394029 0 10.95817318 0 2415.68328599 0 393.80383364 0 1014.11689610 0 25297
0.15350000 0.15350100 9966.92763406 0 -19.32222898 0 2269.04899721 0 311.61669176 0 936.79133566 0 25452
0.15450000 0.15450400 10083.21216587 0 -15.81109932 0 1897.41060274 0 217.93598450 0 897.46029875 0 26061
0.15550000 0.15549900 10008.96766779 0 54.03931598 0 1816.63528659 0 5.26649216 0 235.87718713 0 26128
0.15650000 0.15649500 10090.09144412 0 43.19928204 0 1796.73933479 0 -51.59784664 0 647.55590357 0 26331
0.15750000 0.15749700 9993.87147386 0 31.53092455 0 1570.02665020 0 44.54467553 0 -55.16135774 0 27345
0.15850000 0.15849900 10022.84987145 0 -66.31961450 0 1315.75189001 0 72.47443281 0 -46.67151905 0 26980
0.15950000 0.15949700 9989.77987700 0 3.36512485 0 1270.21601390 0 108.30872809 0 -285.14383522 0 27777
0.16050000 0.16050000 9956.86725166 0 35.03800758 0 1097.28871899 0 116.84544028 0 -448.08830822 0 28224
0.16150000 0.16150500 9924.13447673 0 122.77713167 0 1225.73675896 0 128.71781559 0 -265.30633481 0 28075
0.16250000 0.16249700 9705.12163788 0 181.72422817 0 1144.55677938 0 -64.05147600 0 -190.01420809 0 28590
0.16350000 0.16349900 9577.11310736 0 277.71264102 0 1391.71620765 0 30.57277148 0 219.93457220 0 29163
0.16450000 0.16449100 9335.15810037 0 274.45285231 0 1577.53540489 0 -212.46291166 0 292.76387235 0 28996
0.16550000 0.16550500 9251.88735976 0 235.59504680 0 1457.64262419 0 238.83123015 0 516.13920775 0 30777
0.16650000 0.16650700 8955.38147478 0 167.35193215 0 1771.95369993 0 172.02242253 0 747.67525557 0 29211
0.16750000 0.16749900 8932.20325297 0 87.25937312 0 1209.70759102 0 380.48253846 0 993.89046918 0 30922
0.16850000 0.16850800 8856.16025078 0 123.38525088 0 1754.11478722 0 118.09652471 0 715.16954178 0 30867
0.16950000 0.16949900 8668.78984374 0 185.89338553 0 1469.11932859 0 -190.50654859 0 464.69187341 0 30852
0.17050000 0.17049200 8615.39675277 0 136.52332345 0 1821.86218918 0 -495.28555251 0 467.26485837 0 31257
0.17150000 0.17149500 8503.70964711 0 107.84808622 0 1811.97041653 0 -623.47730564 0 385.40144722 0 32608
0.17250000 0.17250900 8554.22513149 0 64.39296696 0 2187.62172331 0 -415.72759883 0 338.79096490 0 32361
0.17350000 0.17350400 8645.65658454 0 82.44196744 0 2259.26963107 0 -349.03794211 0 -297.49506225 0 32508
0.17450000 0.17449800 8429.49887098 0 226.01576425 0 2367.20235939 0 -55.29500908 0 -134.13580924 0 32791
0.17550000 0.17549800 8272.46698027 0 256.31831049 0 2309.57154309 0 25.46996568 0 -314.56174225 0 33633
0.17650000 0.17650100 8025.70097477 0 249.67508591 0 2201.70625868 0 101.14506138 0 -148.21472428 0 33984
0.17750000 0.17750300 7924.98474422 0 84.62917326 0 2278.36749666 0 391.99184075 0 -16.26983027 0 34069
