### header ###
fiducial parameters:
Omega_m = 0.31
Omega_nu = 0
Omega_de = 0.69
Omega_k = 0
H_0 = 100
w_de = -1
zeff = 0
beta = 0
fgrowth = 0
b_1 = 2
gamma = 0.55
Lx = 3500 Ly = 3500 Lz = 3500
nx = 700 ny = 700 nz = 700
xoffset = 857.220397 yoffset = 15.9954215 zoffset = 262.898189
bins = 400 dk = 0.001
kx_ny = 0.628318531 ky_ny = 0.628318531 kz_ny = 0.628318531
############################
A(data) = 3.09391579 (not used)
A(ran) = 3.09133963 (used)
Ngal = 188906
weighted Ngal = 0
Nran = 9360983
weighted Nran = 0
SN(data) = 3455.25752
SN(ran) = 69.4198704
SN(data+ran) = 3524.67739
############################
13 columns: k_central k_mean P_0(k) sigma^{lin}_{P_0(k)} P^img_1(k) sigma^{lin}_{P_1(k)} P_2(k) sigma^{lin}_{P_2(k)} P^img_3(k) sigma^{lin}_{P_3(k)} P_4(k) sigma^{lin}_{P_4(k)} N_modes
### header ###
0.00050000 0 0 0 0 0 0 0 0 0 0 0 0
0.00150000 0.00179520 15101.81425709 0 -22205.90551907 0 -10838.83118931 0 54724.88327082 0 -16764.98093924 0 3
0.00250000 0.00253879 29077.87734346 0 -25496.26880105 0 2878.94422457 0 -18484.23846855 0 16486.10039461 0 6
0.00350000 0.00331552 43106.65908177 0 -21009.67546828 0 -3199.93224684 0 -1853.95424701 0 -14981.98892029 0 7
0.00450000 0.00420575 54962.06100124 0 -12906.17794980 0 -1337.62619634 0 -3591.21929879 0 4120.35045065 0 24
0.00550000 0.00557378 58907.97903385 0 4083.77337317 0 -2930.80858704 0 -4076.61307866 0 10515.56131494 0 45
0.00650000 0.00659388 57161.51912977 0 5805.36895783 0 1316.21275669 0 -3293.99401216 0 11588.88609064 0 40
0.00750000 0.00754703 49128.95011741 0 9525.60844571 0 -2200.18877083 0 1259.59359896 0 16227.67783430 0 57
0.00850000 0.00846663 45223.38602092 0 3045.63183426 0 -6079.14624703 0 1440.86033265 0 2962.28240909 0 75
0.00950000 0.00948925 41300.28650930 0 -2542.69139860 0 -6729.65394549 0 3143.58286473 0 765.50067950 0 112
0.01050000 0.01054430 49157.27655725 0 -11071.44521554 0 -22346.75087273 0 8352.93879885 0 -3175.30398109 0 105
0.01150000 0.01145670 53501.11362573 0 -11225.44213055 0 -20350.07408339 0 -5574.00264383 0 -22092.03772717 0 144
0.01250000 0.01249090 65830.53378653 0 -9686.31602921 0 -28616.56103746 0 -16323.44817853 0 -33913.26806841 0 169
0.01350000 0.01339930 64557.08046521 0 -6568.94636199 0 -14246.96276899 0 -21584.85956619 0 -32859.11984286 0 180
0.01450000 0.01448870 71116.67460579 0 1021.82011405 0 -20505.75709601 0 -32836.30132188 0 -29017.51504904 0 267
0.01550000 0.01550050 81365.22550326 0 -1171.81535740 0 -7459.18341858 0 -25981.07806708 0 -28078.24627396 0 238
0.01650000 0.01653350 75893.72635345 0 -853.01813796 0 -1438.21877973 0 -7172.35573388 0 -4296.83990778 0 315
0.01750000 0.01747870 86278.51393778 0 -1526.53657252 0 21287.99398038 0 389.68750735 0 4199.36098464 0 297
0.01850000 0.01844180 81472.12409172 0 -1325.25023988 0 22475.90594963 0 7775.82130902 0 9709.98883965 0 388
0.01950000 0.01947590 91225.74913750 0 4577.75501020 0 22953.52119919 0 13677.73621598 0 12668.21337383 0 399
0.02050000 0.02045430 87825.67710439 0 7975.78124487 0 38121.88010861 0 1053.41083886 0 33498.82527596 0 462
0.02150000 0.02154770 80468.33398144 0 8554.38250060 0 47225.23350961 0 -52.17269352 0 31291.49869192 0 571
0.02250000 0.02255340 78523.02696593 0 3538.08474279 0 65105.17459486 0 8384.40138025 0 36567.86014505 0 510
0.02350000 0.02348930 70104.22919445 0 3028.28751018 0 47027.62286975 0 9735.72992982 0 9771.37403329 0 555
0.02450000 0.02439640 75126.55194106 0 2650.24194480 0 41263.19236189 0 8565.39833832 0 3941.28688451 0 592
0.02550000 0.02547300 66858.26648286 0 1822.07576154 0 35057.45390632 0 5004.95594123 0 -7750.47364162 0 837
0.02650000 0.02652900 65728.01905186 0 2232.87658316 0 22700.26933822 0 7193.54436050 0 -28050.25705364 0 723
0.02750000 0.02749970 61229.96025535 0 968.99130374 0 22748.04210383 0 -2478.01269430 0 -24362.64917483 0 826
0.02850000 0.02848090 62083.23805234 0 963.24733122 0 16759.02339436 0 -1093.39270945 0 -44534.22172461 0 831
0.02950000 0.02946900 61177.91604246 0 564.39981759 0 23376.95651223 0 -6330.43099412 0 -26580.54197056 0 996
0.03050000 0.03053250 59026.23067954 0 1391.70496700 0 16996.53834430 0 -2406.37602719 0 -33562.11013958 0 1041
0.03150000 0.03150510 59949.53773058 0 2000.90327402 0 22745.56916067 0 1893.92600101 0 -20323.88336718 0 1036
0.03250000 0.03246190 57669.70894932 0 2331.02994534 0 21194.24695328 0 5940.58274547 0 -20695.83649987 0 1059
0.03350000 0.03345080 54507.82630520 0 2930.23531386 0 18186.58603719 0 7242.19389687 0 -19241.52110830 0 1302
0.03450000 0.03451200 52174.37961995 0 1931.37984925 0 15100.01575297 0 2365.97712846 0 -12224.88210900 0 1339
0.03550000 0.03553350 48999.79504051 0 1410.60050088 0 11116.87992579 0 3391.81015482 0 -17310.26490620 0 1365
0.03650000 0.03647120 49409.74157267 0 1075.22107348 0 9242.61382291 0 -359.26018988 0 -16130.22139246 0 1308
0.03750000 0.03744890 47193.31006153 0 1526.84007009 0 5690.23097239 0 2513.87037013 0 -15915.41255700 0 1579
0.03850000 0.03847530 44637.18608530 0 1325.44133094 0 4311.53143828 0 130.16785953 0 -14084.08573990 0 1662
0.03950000 0.03950240 44267.14386324 0 1489.06024299 0 5884.31204791 0 2318.54158238 0 -12501.85174301 0 1683
0.04050000 0.04050350 42020.13778211 0 1268.84465451 0 3626.18896321 0 1210.13473575 0 -17965.14521779 0 1822
0.04150000 0.04152450 41865.35402155 0 -251.80518922 0 5532.25486702 0 2286.85418797 0 -6593.03507650 0 1887
0.04250000 0.04250150 40826.60548750 0 471.16873637 0 2088.33305541 0 -1583.04332375 0 -11665.77214164 0 1920
0.04350000 0.04349210 41330.86107929 0 590.51971770 0 7138.73494754 0 -576.93426722 0 -4222.04461781 0 2005
0.04450000 0.04448520 41182.25967662 0 351.75255926 0 7056.26229313 0 -747.42571312 0 -3378.55742761 0 2151
0.04550000 0.04548030 40090.11805160 0 1258.40208999 0 8439.93019486 0 48.28039339 0 1183.15717399 0 2274
0.04650000 0.04648670 40277.83691881 0 735.30491944 0 9337.76593134 0 3064.98823482 0 1992.88869005 0 2311
0.04750000 0.04749250 39099.81672220 0 973.83602421 0 9783.22167916 0 1170.99478990 0 2546.33336944 0 2568
0.04850000 0.04851840 38526.31872191 0 1461.72298041 0 11370.81746646 0 901.04494227 0 6340.48013588 0 2493
0.04950000 0.04949480 37155.52136526 0 1856.87681620 0 12539.95754899 0 845.86233970 0 6553.58039244 0 2644
0.05050000 0.05050630 35402.42947726 0 1219.36331000 0 12695.64056161 0 48.81713447 0 12012.54621669 0 2829
0.05150000 0.05149060 34226.88222381 0 510.64927393 0 11899.91489636 0 4312.44193099 0 8399.71114654 0 2784
0.05250000 0.05249300 34158.31425435 0 359.11855768 0 11063.76785109 0 2374.25024740 0 10910.64770683 0 3055
0.05350000 0.05348950 34048.04347068 0 -244.02665891 0 10955.21688698 0 2757.14053325 0 6765.00579204 0 3009
0.05450000 0.05448610 33534.45813878 0 169.63041205 0 8775.56478503 0 -289.03422444 0 8480.21668708 0 3336
0.05550000 0.05550870 33335.49862084 0 471.46099328 0 7607.98715296 0 73.82184961 0 5450.79387117 0 3349
0.05650000 0.05647670 32822.47532148 0 339.38784346 0 7537.40710702 0 -2536.53152200 0 5631.94819835 0 3324
0.05750000 0.05747970 32511.22170274 0 724.94890792 0 9958.57583057 0 -1876.90765581 0 4751.73780221 0 3639
0.05850000 0.05849280 33336.28546639 0 539.93116908 0 12518.93753212 0 -1794.54740790 0 5273.21407092 0 3846
0.05950000 0.05951020 32964.55714672 0 73.13785601 0 13345.57498688 0 -3132.34221400 0 5638.34412862 0 3787
0.06050000 0.06049470 34042.31073881 0 112.44584959 0 15202.30567462 0 -1258.89667862 0 3046.36247656 0 3930
0.06150000 0.06148310 33973.06833030 0 -298.39993463 0 16297.59468185 0 406.30006506 0 2045.06779074 0 4083
0.06250000 0.06249100 33743.53424238 0 -225.48632960 0 15280.76541672 0 688.45838345 0 -1240.67558378 0 4303
0.06350000 0.06350600 34866.70006342 0 -144.79531833 0 12741.39001009 0 1562.19191664 0 -2798.13518647 0 4470
0.06450000 0.06451750 33694.86222471 0 212.82710875 0 10864.15637541 0 821.08344923 0 -7271.70060504 0 4479
0.06550000 0.06550280 33246.69748007 0 1189.68799207 0 8886.82474597 0 1281.24309227 0 -6727.76551616 0 4636
0.06650000 0.06648880 31345.56622193 0 1099.31428425 0 8318.59861087 0 828.22013838 0 -8210.74456710 0 4653
0.06750000 0.06749660 30180.13555415 0 929.88845205 0 6064.66828889 0 1854.94342428 0 -6668.33619575 0 5220
0.06850000 0.06852730 30253.76181643 0 201.63479281 0 7354.82521719 0 1882.13455840 0 -3248.81783687 0 5029
0.06950000 0.06949320 30188.34122918 0 -167.05180677 0 7588.37221743 0 1687.48020969 0 -3059.97490459 0 5040
0.07050000 0.07048030 31096.81062126 0 61.36956914 0 10049.32160392 0 352.54614920 0 2153.24781338 0 5475
0.07150000 0.07148790 30791.06492137 0 -212.07510921 0 9503.41940117 0 -253.79253627 0 721.55647953 0 5509
0.07250000 0.07249820 31456.62385116 0 759.76569949 0 12037.16324179 0 349.19193902 0 4579.58723627 0 5916
0.07350000 0.07351270 30862.55546002 0 654.62065256 0 11709.49827298 0 240.19359702 0 3800.81247232 0 5721
0.07450000 0.07449140 30433.16260210 0 846.18269825 0 12969.35040691 0 2394.88808214 0 4311.01436835 0 6028
0.07550000 0.07549160 29338.77284693 0 451.29189368 0 9962.31896726 0 1862.21612530 0 3737.81986562 0 6183
0.07650000 0.07648840 28786.18245700 0 364.33983995 0 9950.67365310 0 2935.91184248 0 4702.70608372 0 6330
0.07750000 0.07749960 28296.98933718 0 327.11305286 0 7856.25940565 0 1072.66944576 0 3734.65000212 0 6583
0.07850000 0.07848650 28171.54367502 0 428.14964195 0 8049.50867302 0 1278.63526130 0 4226.77693177 0 6549
0.07950000 0.07947320 27612.43370767 0 802.78704204 0 8552.47158998 0 -376.06383866 0 4706.88760579 0 6828
0.08050000 0.08048110 26491.17879725 0 1286.32386640 0 9283.19257205 0 -1291.14610556 0 3639.39672782 0 7147
0.08150000 0.08149960 25475.69841021 0 1440.44442857 0 8926.27943004 0 -1348.12496412 0 3083.89500935 0 7386
0.08250000 0.08250610 24296.44174202 0 1349.83354303 0 10256.93642292 0 -1706.06100535 0 2554.38167536 0 7227
0.08350000 0.08350160 23532.07749232 0 997.93935157 0 10157.92877128 0 -311.92468559 0 1767.88458437 0 7798
0.08450000 0.08449610 22455.78518482 0 673.86801880 0 9767.40608358 0 642.96297368 0 971.46761910 0 7371
0.08550000 0.08548940 22241.31356888 0 289.37931242 0 9103.84798963 0 855.40227998 0 162.95571365 0 8256
0.08650000 0.08650700 21721.65828558 0 187.54238899 0 8451.66543422 0 916.02648157 0 1051.35267572 0 8037
0.08750000 0.08749060 22215.23525918 0 104.98228232 0 9257.66505424 0 902.39157223 0 1444.37865633 0 8155
0.08850000 0.08849210 21639.37672223 0 143.14743893 0 9802.22961955 0 -371.35063381 0 2707.61422613 0 8718
0.08950000 0.08949900 22100.80543474 0 412.20253076 0 10493.20366063 0 545.86173641 0 3918.24355051 0 8571
0.09050000 0.09049190 21330.82085967 0 509.87928935 0 10952.35052104 0 536.04864832 0 5102.59223348 0 8932
0.09150000 0.09150830 21308.22715170 0 486.02213224 0 10775.11918097 0 1823.95295021 0 5713.11693728 0 9285
0.09250000 0.09250820 20472.82198937 0 511.24840061 0 9948.93135224 0 1732.48777522 0 5196.97997766 0 9204
0.09350000 0.09350330 19934.73203888 0 374.97012334 0 8756.27582838 0 1670.39442058 0 4985.18363659 0 9349
0.09450000 0.09448040 19587.84555732 0 544.84445752 0 7108.13789625 0 1174.16465341 0 4133.56945591 0 9564
0.09550000 0.09549270 18862.26155263 0 333.37746751 0 6339.24366430 0 582.55571665 0 3363.30386457 0 10155
0.09650000 0.09649430 18861.47470708 0 45.20360248 0 5933.71470788 0 -650.47397650 0 1535.95623783 0 9913
0.09750000 0.09749140 18841.80356830 0 191.05734047 0 7086.80314116 0 -1529.89752709 0 1315.94298108 0 10476
0.09850000 0.09850240 18881.48306538 0 409.50702272 0 8062.89628804 0 -1274.83592135 0 288.99263403 0 10575
0.09950000 0.09950330 18623.62253761 0 495.97235627 0 8152.69784673 0 -1451.80872646 0 572.80220401 0 10882
0.10050000 0.10051200 18361.26574955 0 424.84826283 0 9468.25864568 0 -193.05255598 0 -366.01020065 0 10875
0.10150000 0.10150300 17888.59638631 0 341.79109458 0 9203.51883966 0 997.14800976 0 -598.32859776 0 11118
0.10250000 0.10250800 17824.41227064 0 109.89691963 0 8545.67099628 0 2136.99383242 0 331.11472452 0 11575
0.10350000 0.10349800 17420.87290940 0 39.69838137 0 7032.20730056 0 2041.38085730 0 -487.34515683 0 11364
0.10450000 0.10450100 17381.30581882 0 -90.53276302 0 6219.84547223 0 2121.87515719 0 626.07839222 0 12093
0.10550000 0.10551000 17127.37951881 0 -212.37298646 0 5174.57736076 0 1216.71051642 0 -106.53585265 0 12067
0.10650000 0.10649700 17397.15513635 0 -130.79621191 0 4496.24905175 0 408.97983620 0 675.47543186 0 12054
0.10750000 0.10749900 17549.80317328 0 25.25268390 0 4831.87240127 0 -663.15567866 0 567.08970531 0 12807
0.10850000 0.10850100 17528.89556292 0 124.19682586 0 5004.11289242 0 -1175.31119978 0 -221.97362625 0 12736
0.10950000 0.10950300 17428.51655189 0 535.30901350 0 5763.85723468 0 -928.04161313 0 -804.07072435 0 12933
0.11050000 0.11050200 16878.39910512 0 494.29862337 0 5271.86519283 0 -401.73186461 0 -1421.57137600 0 13428
0.11150000 0.11150900 16349.86370775 0 572.93596776 0 5533.51381990 0 266.86878526 0 -1413.14088795 0 13453
0.11250000 0.11250000 15989.71325833 0 562.88345381 0 4882.62393932 0 482.72749751 0 -2877.70775299 0 13668
0.11350000 0.11349100 15192.07668246 0 461.61305918 0 4673.40170727 0 673.62184855 0 -2244.06103063 0 13791
0.11450000 0.11448600 14855.30678656 0 493.30494985 0 4268.73828095 0 259.83551010 0 -2640.03543393 0 14205
0.11550000 0.11549300 14338.01203992 0 434.20947676 0 4100.02735413 0 161.60795962 0 -1702.17174019 0 14776
0.11650000 0.11649800 14184.23993792 0 367.30287548 0 4225.58542279 0 89.13779826 0 -1456.37243066 0 14553
0.11750000 0.11747300 13748.55231558 0 259.97377011 0 4394.13898051 0 287.88992620 0 -1420.64964264 0 14568
0.11850000 0.11849100 13569.93837547 0 214.97294897 0 4119.23762623 0 335.25128399 0 -822.37050374 0 16015
0.11950000 0.11950300 13520.36710574 0 105.94954031 0 4514.16664901 0 692.54998032 0 -471.29463165 0 15270
0.12050000 0.12050700 13153.69707890 0 321.05996244 0 4075.99484287 0 235.09596191 0 -143.56221894 0 15999
0.12150000 0.12150000 13201.80706403 0 153.89125290 0 4517.94350766 0 193.68428055 0 445.26465676 0 15670
0.12250000 0.12250700 12836.03628924 0 246.12978467 0 4392.73389916 0 -12.00299166 0 629.21116158 0 16887
0.12350000 0.12352200 12917.08138101 0 177.31339683 0 4830.41111668 0 -91.47248142 0 846.22541272 0 16407
0.12450000 0.12449800 12607.85107940 0 121.56426546 0 4368.03818951 0 154.90403553 0 1122.35986638 0 16306
0.12550000 0.12549900 12741.16519707 0 139.70442761 0 4696.83846404 0 449.92503055 0 1609.00922694 0 17523
0.12650000 0.12650100 12595.03673757 0 -119.79386297 0 4369.17349523 0 1158.74248060 0 1809.56491728 0 17154
0.12750000 0.12750600 12723.18015590 0 -122.06897068 0 3892.28888797 0 1307.10782960 0 2392.06667881 0 18007
0.12850000 0.12850300 12788.82555617 0 -168.66259202 0 3133.55620428 0 1360.42223602 0 2497.89740544 0 17496
0.12950000 0.12949900 12883.80905485 0 -52.63839368 0 2593.64526837 0 965.75624446 0 2496.95319078 0 18405
0.13050000 0.13049000 12722.84293638 0 74.51978161 0 2842.50203490 0 -57.91228219 0 2615.13739257 0 18100
0.13150000 0.13148800 12799.95380039 0 155.30869895 0 2442.06509326 0 -558.41866734 0 2329.88339896 0 19059
0.13250000 0.13249300 12919.32951116 0 29.84673785 0 3041.93366017 0 -563.67142343 0 1965.34909576 0 18957
0.13350000 0.13349100 12855.25780199 0 -9.90218149 0 3200.58420459 0 -820.32245718 0 1525.28886029 0 19468
0.13450000 0.13450700 12905.16629124 0 179.02197574 0 3754.44478806 0 -548.27398005 0 902.83220574 0 19953
0.13550000 0.13551000 12718.90870862 0 278.29827893 0 3905.50789323 0 -167.91733688 0 855.99915853 0 19956
0.13650000 0.13649900 12555.91927302 0 349.43698521 0 3974.30067570 0 -414.11006919 0 521.83934173 0 19723
0.13750000 0.13749600 12403.27123610 0 285.64854044 0 4295.33366058 0 -152.60869465 0 78.95208260 0 20946
0.13850000 0.13851100 12227.69227168 0 137.01903615 0 4097.44200446 0 260.06706751 0 560.26887845 0 20955
0.13950000 0.13949800 11971.63024803 0 1.39355967 0 3944.53543257 0 307.69370465 0 137.90817162 0 20506
0.14050000 0.14048300 12109.55303250 0 5.91738204 0 3629.07781045 0 470.07277292 0 343.98077334 0 21447
0.14150000 0.14148400 11884.06557883 0 51.63584004 0 3325.71512852 0 638.98490739 0 -177.63150724 0 21771
0.14250000 0.14249400 11849.66918760 0 151.04736826 0 2734.54682528 0 411.86980750 0 178.93654679 0 22470
0.14350000 0.14350900 11691.62563832 0 176.45798331 0 2829.85630283 0 250.33716023 0 143.22162722 0 22519
0.14450000 0.14449900 11283.36520377 0 298.95297465 0 2729.16255358 0 100.18747034 0 136.76836964 0 22218
0.14550000 0.14550500 10984.66739189 0 355.68566295 0 2952.86274378 0 -472.31865494 0 -83.56726898 0 23559
0.14650000 0.14650700 10899.99156994 0 218.17653443 0 3106.29762626 0 -367.74575712 0 161.71699394 0 23044
0.14750000 0.14750500 10754.36893972 0 212.95637623 0 3390.58492389 0 -315.71728115 0 86.12968772 0 23649
0.14850000 0.14849900 10764.08086195 0 150.59661817 0 3375.52245191 0 -55.04097037 0 258.55070372 0 23640
0.14950000 0.14949500 10616.52483980 0 93.78254755 0 3477.52011665 0 129.57660130 0 98.28274207 0 24457
0.15050000 0.15050000 10516.56173285 0 186.56108018 0 3278.85285563 0 189.41283327 0 -184.26011898 0 24591
0.15150000 0.15149900 10440.74354367 0 188.19434673 0 2957.81987075 0 440.34799613 0 405.80997269 0 25020
0.15250000 0.15250500 10203.41968479 0 86.48399303 0 2655.18783112 0 417.90266475 0 -148.76664023 0 25297
0.15350000 0.15350100 10212.04126390 0 4.69633263 0 2679.99594728 0 401.66891696 0 77.97684375 0 25452
0.15450000 0.15450400 10209.79313375 0 -24.37422705 0 2413.07545502 0 126.81140122 0 -101.69619048 0 26061
0.15550000 0.15549900 10328.59557133 0 -30.35908671 0 2552.52696799 0 69.69934096 0 1.17641278 0 26128
0.15650000 0.15649500 10218.53836002 0 -39.85361476 0 2489.82661822 0 -162.09018354 0 157.02514632 0 26331
0.15750000 0.15749700 10404.99827435 0 58.46127557 0 2623.52291801 0 -29.35080034 0 -23.25274732 0 27345
0.15850000 0.15849900 10140.31467159 0 226.38445759 0 2780.21758920 0 -139.31437703 0 -133.57490077 0 26980
0.15950000 0.15949700 10005.51678802 0 364.76586061 0 2865.10698352 0 29.39486369 0 -150.13350336 0 27777
0.16050000 0.16050000 9567.95197701 0 412.57010004 0 2751.95859326 0 -4.83228831 0 -325.09310792 0 28224
0.16150000 0.16150500 9312.94657453 0 326.48245235 0 2476.11302432 0 407.02733516 0 -176.01172947 0 28075
0.16250000 0.16249700 9079.75927512 0 93.41542790 0 2338.35884962 0 456.05455739 0 -244.42795015 0 28590
0.16350000 0.16349900 9084.84004925 0 7.53934050 0 2211.62051262 0 371.42707023 0 331.96002145 0 29163
0.16450000 0.16449100 9193.64954832 0 -157.30166633 0 2032.36585542 0 287.63925969 0 259.46456863 0 28996
0.16550000 0.16550500 9184.56710253 0 62.86806029 0 2143.45720659 0 -85.63543631 0 453.53215537 0 30777
0.16650000 0.16650700 9173.43885831 0 203.35910863 0 2375.81269785 0 -284.73692367 0 748.29236729 0 29211
0.16750000 0.16749900 8849.15732537 0 288.48455662 0 2658.63871089 0 -228.37517684 0 1166.73458327 0 30922
0.16850000 0.16850800 8786.87287967 0 326.35655706 0 2801.75467600 0 11.75378644 0 1200.16427855 0 30867
0.16950000 0.16949900 8539.90454246 0 172.59119945 0 2684.90811165 0 258.03250973 0 1170.89362404 0 30852
0.17050000 0.17049200 8359.33472912 0 82.98253033 0 2558.73180720 0 372.53877059 0 1084.91276254 0 31257
0.17150000 0.17149500 8310.40417648 0 34.78351925 0 2283.48199275 0 378.50755613 0 1007.49727689 0 32608
0.17250000 0.17250900 8265.89119959 0 35.98773016 0 2063.74975226 0 338.24691741 0 1199.39991430 0 32361
0.17350000 0.17350400 8211.37404354 0 121.35069310 0 1941.65380402 0 109.20269704 0 924.00509545 0 32508
0.17450000 0.17449800 8149.01091329 0 157.54446439 0 2123.46008894 0 76.34829827 0 1535.37172400 0 32791
0.17550000 0.17549800 7968.67715361 0 132.91282644 0 2174.32403350 0 63.50158336 0 1081.17861837 0 33633
0.17650000 0.17650100 7962.04516968 0 148.42267632 0 2466.64839641 0 -24.36894394 0 1686.18753485 0 33984
0.17750000 0.17750300 7842.72566217 0 68.53020087 0 2413.13165828 0 27.67661782 0 1406.27285035 0 34069
