### header ###
fiducial parameters:
Omega_m = 0.31
Omega_nu = 0
Omega_de = 0.69
Omega_k = 0
H_0 = 100
w_de = -1
zeff = 0
beta = 0
fgrowth = 0
b_1 = 2
gamma = 0.55
Lx = 3500 Ly = 3500 Lz = 3500
nx = 700 ny = 700 nz = 700
xoffset = 857.220397 yoffset = 15.9954215 zoffset = 262.898189
bins = 400 dk = 0.001
kx_ny = 0.628318531 ky_ny = 0.628318531 kz_ny = 0.628318531
############################
A(data) = 3.09966675 (not used)
A(ran) = 3.09515886 (used)
Ngal = 188859
weighted Ngal = 0
Nran = 9360983
weighted Nran = 0
SN(data) = 3461.39904
SN(ran) = 69.5056358
SN(data+ran) = 3530.90468
############################
13 columns: k_central k_mean P_0(k) sigma^{lin}_{P_0(k)} P^img_1(k) sigma^{lin}_{P_1(k)} P_2(k) sigma^{lin}_{P_2(k)} P^img_3(k) sigma^{lin}_{P_3(k)} P_4(k) sigma^{lin}_{P_4(k)} N_modes
### header ###
0.00050000 0 0 0 0 0 0 0 0 0 0 0 0
0.00150000 0.00179520 8538.47697982 0 -11660.03940976 0 -1331.96090837 0 6933.87408797 0 -41177.08897729 0 3
0.00250000 0.00253879 20213.05055098 0 -19994.30748775 0 -3268.09555288 0 6500.36715188 0 44692.37768039 0 6
0.00350000 0.00331552 27789.13673716 0 -17529.34518895 0 -5743.28684384 0 -17104.22377831 0 -22815.48600821 0 7
0.00450000 0.00420575 44129.44589178 0 -16928.64481389 0 -10850.13928395 0 -16613.11974787 0 6555.65991282 0 24
0.00550000 0.00557378 62103.24641064 0 -18770.42543616 0 -19302.10821574 0 -22819.75745549 0 15326.62727171 0 45
0.00650000 0.00659388 83413.04725344 0 -4795.14919533 0 -2525.72925665 0 -13865.23027017 0 11225.11615168 0 40
0.00750000 0.00754703 86210.73281387 0 -7857.92302196 0 -8031.92829527 0 -14657.69614671 0 -4132.05196806 0 57
0.00850000 0.00846663 92046.20423436 0 5616.23376863 0 23706.86961118 0 -19324.02748466 0 11825.83900805 0 75
0.00950000 0.00948925 90604.59077811 0 8735.35697737 0 28715.14154438 0 -15469.49594250 0 21006.86530560 0 112
0.01050000 0.01054430 73771.94112147 0 14427.71243275 0 30905.49474582 0 24402.32867191 0 1218.09311646 0 105
0.01150000 0.01145670 70826.10378439 0 9964.02754617 0 36588.99256842 0 17600.83572760 0 20586.24015524 0 144
0.01250000 0.01249090 64948.59233017 0 1498.53611155 0 21484.93018119 0 32125.21775664 0 1979.56851893 0 169
0.01350000 0.01339930 68456.91182982 0 -1728.76711982 0 23707.43164372 0 23571.86939590 0 9146.52874046 0 180
0.01450000 0.01448870 67439.18331264 0 -2724.12674205 0 7634.15538786 0 -6816.54417564 0 -12963.16804901 0 267
0.01550000 0.01550050 65420.92447389 0 -6905.89610830 0 -1982.83954830 0 -1733.46571183 0 -19084.93884361 0 238
0.01650000 0.01653350 70452.35214759 0 2020.73178191 0 14283.38247736 0 -23120.89448858 0 -3391.01206862 0 315
0.01750000 0.01747870 72169.69876627 0 1195.22963288 0 -4888.17682078 0 -3245.51308556 0 -18117.79325472 0 297
0.01850000 0.01844180 68953.29896610 0 2990.78869934 0 26720.03844613 0 1343.67366643 0 3469.84275220 0 388
0.01950000 0.01947590 67934.78360337 0 3810.05228722 0 13256.09940706 0 9034.95404130 0 914.67198315 0 399
0.02050000 0.02045430 64555.05714808 0 3385.20065219 0 19267.82423101 0 20916.26566071 0 9544.20048202 0 462
0.02150000 0.02154770 64103.96983425 0 -246.20509703 0 22194.21524231 0 15464.88727570 0 26902.36180099 0 571
0.02250000 0.02255340 61167.12501776 0 -4830.87198336 0 13073.32642617 0 16410.45081519 0 21839.90993127 0 510
0.02350000 0.02348930 72721.95193668 0 -6489.73349628 0 22516.82191829 0 11650.37245014 0 22091.58810114 0 555
0.02450000 0.02439640 73122.68113524 0 -6011.42132638 0 8166.56880973 0 -2143.56961310 0 23324.23786030 0 592
0.02550000 0.02547300 82129.36493996 0 195.20401653 0 19242.19554734 0 -11766.03874616 0 15126.43128219 0 837
0.02650000 0.02652900 79497.59138431 0 5079.35780842 0 19689.23622691 0 -14914.09538988 0 619.96123009 0 723
0.02750000 0.02749970 75761.64870736 0 6413.51064368 0 20718.65502086 0 -7724.67634819 0 -1993.99027382 0 826
0.02850000 0.02848090 69205.53916851 0 4692.70190457 0 23536.79856562 0 -4158.10779646 0 -19263.44037722 0 831
0.02950000 0.02946900 66565.11031180 0 2466.24373298 0 11901.82580699 0 3779.98354652 0 -28438.50912989 0 996
0.03050000 0.03053250 63565.65507074 0 -329.72200789 0 16713.94838493 0 320.85875479 0 -30942.58889323 0 1041
0.03150000 0.03150510 64858.32990480 0 -976.54839323 0 10848.61055545 0 -3069.25968210 0 -35188.51989385 0 1036
0.03250000 0.03246190 67567.21432447 0 -2035.70432868 0 11541.00091852 0 229.02263832 0 -25390.83149719 0 1059
0.03350000 0.03345080 65740.94580020 0 832.23642289 0 11554.82691892 0 -3915.32098132 0 -26197.91021968 0 1302
0.03450000 0.03451200 66561.06367753 0 2025.92496255 0 14834.28676969 0 -4102.12935582 0 -12436.31874925 0 1339
0.03550000 0.03553350 64204.79847130 0 4056.06516912 0 22690.26515907 0 3598.94162584 0 -10693.60198187 0 1365
0.03650000 0.03647120 59893.33447693 0 6185.17930538 0 17137.72091748 0 3808.27626441 0 -114.45905013 0 1308
0.03750000 0.03744890 55676.51676170 0 5095.73543653 0 23889.30537255 0 6360.58966004 0 1535.73142482 0 1579
0.03850000 0.03847530 52149.87500136 0 3164.17573687 0 19045.82137907 0 7254.08650534 0 8389.49339503 0 1662
0.03950000 0.03950240 46928.81754983 0 2048.69852093 0 13778.00282050 0 7771.05527311 0 7695.95648558 0 1683
0.04050000 0.04050350 45737.42097885 0 714.06458582 0 10259.40936608 0 5517.67574302 0 11768.96131535 0 1822
0.04150000 0.04152450 42942.20836158 0 -318.08681032 0 4609.08270378 0 5229.88136235 0 6925.76957879 0 1887
0.04250000 0.04250150 44500.16255289 0 180.92839010 0 4650.25720741 0 1409.56636102 0 11892.15884736 0 1920
0.04350000 0.04349210 42325.20904295 0 -126.18642104 0 -569.95382312 0 2728.36446738 0 7787.23056951 0 2005
0.04450000 0.04448520 43175.11464472 0 870.77049766 0 3501.95729134 0 -361.01485546 0 8610.34970059 0 2151
0.04550000 0.04548030 41658.97567413 0 293.42707075 0 -31.38715663 0 -807.35299436 0 4212.42262079 0 2274
0.04650000 0.04648670 42109.83817495 0 812.02236068 0 4502.71242592 0 -2383.86100377 0 4815.50601381 0 2311
0.04750000 0.04749250 41553.53837027 0 806.75836394 0 3977.07711643 0 -3217.14168311 0 551.67202877 0 2568
0.04850000 0.04851840 42084.20949128 0 1851.55998841 0 10055.81870004 0 -5987.91712570 0 1496.95117980 0 2493
0.04950000 0.04949480 39453.56000071 0 2912.76734262 0 8072.63069157 0 -4117.84378554 0 -5115.04687449 0 2644
0.05050000 0.05050630 39148.15152034 0 2783.54482182 0 15536.26540784 0 -3828.75673004 0 1245.94744898 0 2829
0.05150000 0.05149060 36029.77019455 0 2071.19106304 0 12207.45910036 0 -606.44322352 0 -3504.67752881 0 2784
0.05250000 0.05249300 35872.17627130 0 -67.97929658 0 15829.42157890 0 2993.59886203 0 -3882.00369255 0 3055
0.05350000 0.05348950 35868.35445006 0 -794.18794423 0 12613.35899826 0 444.65990975 0 -7763.23178020 0 3009
0.05450000 0.05448610 35934.44947635 0 -673.63533733 0 11863.83240752 0 1358.84854492 0 -6446.97406090 0 3336
0.05550000 0.05550870 36543.46793296 0 -371.62490569 0 12416.08557793 0 -896.86004800 0 -7826.11198039 0 3349
0.05650000 0.05647670 36609.90017878 0 658.52228242 0 10861.44737858 0 -760.75487676 0 -6858.91018824 0 3324
0.05750000 0.05747970 35459.75679598 0 1104.92449303 0 12910.44939708 0 -1242.30547814 0 -7295.83428216 0 3639
0.05850000 0.05849280 34442.47790483 0 1171.26456552 0 12549.62450862 0 -37.04974684 0 -7547.95083740 0 3846
0.05950000 0.05951020 34245.20448450 0 912.36427756 0 15213.20910583 0 355.63170783 0 -4862.95280054 0 3787
0.06050000 0.06049470 33470.83605564 0 705.00124913 0 12557.04333810 0 -694.05735158 0 -7643.92351334 0 3930
0.06150000 0.06148310 33951.48628090 0 28.08184328 0 17977.62234010 0 -293.69122604 0 -4243.22200379 0 4083
0.06250000 0.06249100 34146.39916458 0 -215.27195028 0 15461.06545445 0 -413.43675421 0 -6693.89743551 0 4303
0.06350000 0.06350600 34619.40574734 0 -657.35213068 0 16760.48467895 0 2050.05863967 0 -1779.97952455 0 4470
0.06450000 0.06451750 35731.89295018 0 -201.55273606 0 14593.73684405 0 2672.03756657 0 -2994.94774011 0 4479
0.06550000 0.06550280 35979.18726626 0 487.51039440 0 13927.95310125 0 2219.94983482 0 -2598.36634167 0 4636
0.06650000 0.06648880 34581.97438040 0 1324.23858132 0 13104.91265473 0 1260.87503315 0 -4388.49617384 0 4653
0.06750000 0.06749660 33492.19329203 0 1679.25205335 0 13584.10159539 0 -33.56784287 0 -1850.79562416 0 5220
0.06850000 0.06852730 32235.26372729 0 1664.15585942 0 14989.85737581 0 -1143.61256472 0 -2005.27588716 0 5029
0.06950000 0.06949320 31805.98327588 0 547.23421986 0 14666.80107380 0 -1297.62072039 0 -2359.43506974 0 5040
0.07050000 0.07048030 30970.35330053 0 -322.19302003 0 15060.56106890 0 1244.74469935 0 -3687.45050970 0 5475
0.07150000 0.07148790 31682.44852434 0 -148.95211097 0 14271.01776156 0 37.32165818 0 -5284.48844361 0 5509
0.07250000 0.07249820 31514.85042194 0 -98.34198030 0 12375.28201578 0 1747.02193661 0 -5712.73475516 0 5916
0.07350000 0.07351270 30994.63310611 0 550.15791312 0 10680.28181075 0 997.19634456 0 -7738.47986729 0 5721
0.07450000 0.07449140 30267.25059731 0 1094.72585063 0 9416.36056126 0 751.41277194 0 -7850.11076970 0 6028
0.07550000 0.07549160 28625.55355805 0 767.71059143 0 7990.55145993 0 1348.61955275 0 -7678.89317777 0 6183
0.07650000 0.07648840 28072.73835510 0 788.14272226 0 8245.70299088 0 1972.90281305 0 -7005.85921525 0 6330
0.07750000 0.07749960 27504.07383462 0 808.76144790 0 6676.78916510 0 920.98698073 0 -6737.63480751 0 6583
0.07850000 0.07848650 26961.03799780 0 801.92600819 0 8938.88019950 0 1395.30197524 0 -3977.99884979 0 6549
0.07950000 0.07947320 25361.71821180 0 1254.77135980 0 7631.71616665 0 -247.96650700 0 -999.72998723 0 6828
0.08050000 0.08048110 25569.10821779 0 1131.38273672 0 10566.99853268 0 817.10538294 0 935.04116634 0 7147
0.08150000 0.08149960 24130.30492422 0 1034.55015100 0 10318.59139218 0 868.87982020 0 3034.05396401 0 7386
0.08250000 0.08250610 23525.55791489 0 967.12535572 0 10720.54582167 0 1961.16757369 0 3462.39020076 0 7227
0.08350000 0.08350160 22793.56673929 0 430.48544917 0 11499.52291733 0 682.60200442 0 5302.29363436 0 7798
0.08450000 0.08449610 22266.26781350 0 426.82998956 0 10077.54687790 0 666.21988004 0 5181.41167640 0 7371
0.08550000 0.08548940 22303.24955440 0 92.56642155 0 11032.04673473 0 458.72421194 0 4547.39401257 0 8256
0.08650000 0.08650700 21975.92180512 0 166.63140644 0 10077.56935920 0 150.28862434 0 4630.63103123 0 8037
0.08750000 0.08749060 22079.78541787 0 48.38302053 0 10796.20664174 0 -78.44625332 0 2853.86633279 0 8155
0.08850000 0.08849210 22273.68664298 0 215.23148394 0 11053.15667680 0 -127.62747246 0 3961.82355339 0 8718
0.08950000 0.08949900 21471.10418079 0 339.62277306 0 9862.49074812 0 118.74173806 0 1829.55079428 0 8571
0.09050000 0.09049190 21868.68599714 0 160.49176301 0 9800.56600324 0 975.28831628 0 3060.08731110 0 8932
0.09150000 0.09150830 21381.29138145 0 245.74872661 0 9569.04232013 0 892.60321357 0 1486.04774859 0 9285
0.09250000 0.09250820 21094.20516178 0 379.58665860 0 8711.22330025 0 866.64967510 0 1596.26232901 0 9204
0.09350000 0.09350330 20904.23816442 0 259.60058050 0 8524.19011274 0 364.13526011 0 246.94810404 0 9349
0.09450000 0.09448040 20360.64029507 0 273.96051181 0 6309.74819678 0 277.92171713 0 -1075.41553674 0 9564
0.09550000 0.09549270 20378.96255576 0 30.48498200 0 6839.62123159 0 325.59106875 0 -720.41780161 0 10155
0.09650000 0.09649430 19581.10116688 0 190.93144519 0 5171.45245985 0 604.98418706 0 -2805.53153465 0 9913
0.09750000 0.09749140 19707.89570712 0 585.52549658 0 5936.70472097 0 714.84918324 0 -1358.67993516 0 10476
0.09850000 0.09850240 18739.51364665 0 1101.89513766 0 5280.52049390 0 512.38370634 0 -2078.41880146 0 10575
0.09950000 0.09950330 17872.29744275 0 1120.14321006 0 5126.01774960 0 62.62267688 0 -361.35207498 0 10882
0.10050000 0.10051200 17132.99984418 0 690.15010139 0 5678.18099481 0 733.25912100 0 529.17499040 0 10875
0.10150000 0.10150300 16685.62194508 0 405.19398503 0 5821.97139896 0 -258.09995363 0 788.91045871 0 11118
0.10250000 0.10250800 16601.99150364 0 -96.05192253 0 6300.94676726 0 376.56741981 0 1880.56086729 0 11575
0.10350000 0.10349800 16791.73368798 0 -225.07042552 0 6171.47695214 0 504.86820726 0 1177.71669904 0 11364
0.10450000 0.10450100 16852.88282796 0 -294.56912086 0 5778.66117169 0 631.71557856 0 1459.11514944 0 12093
0.10550000 0.10551000 17107.14634750 0 -199.23154169 0 5104.21088718 0 612.63344988 0 309.22130909 0 12067
0.10650000 0.10649700 17212.58365135 0 150.10090547 0 4917.29010618 0 531.37141355 0 703.66585983 0 12054
0.10750000 0.10749900 16730.02251547 0 437.38271246 0 4800.09508166 0 312.49571065 0 -338.05582634 0 12807
0.10850000 0.10850100 16492.28275251 0 495.59242227 0 5055.81988579 0 60.27742751 0 532.65284773 0 12736
0.10950000 0.10950300 16128.76010787 0 411.81135612 0 5154.97366588 0 62.85873055 0 153.37530703 0 12933
0.11050000 0.11050200 15933.62241118 0 336.43942077 0 5921.78837745 0 -603.18231075 0 748.66330877 0 13428
0.11150000 0.11150900 15515.24539097 0 118.54952293 0 5843.91314919 0 -298.23469706 0 669.96638893 0 13453
0.11250000 0.11250000 16031.30366603 0 -35.65478209 0 6735.69017493 0 -65.04031604 0 1393.31238006 0 13668
0.11350000 0.11349100 15826.16179019 0 -121.90822937 0 6368.71665051 0 409.52388369 0 1716.13262840 0 13791
0.11450000 0.11448600 16173.83511730 0 -73.59175349 0 6499.29929006 0 1129.19080983 0 1640.53925224 0 14205
0.11550000 0.11549300 16032.54013761 0 79.77669674 0 6063.30817015 0 613.38994567 0 2389.85227061 0 14776
0.11650000 0.11649800 16072.10722819 0 312.33946560 0 6132.88779818 0 785.74621553 0 3509.78078424 0 14553
0.11750000 0.11747300 15684.64199749 0 471.58688857 0 6199.43245051 0 798.29865020 0 3948.24484731 0 14568
0.11850000 0.11849100 15575.27046588 0 437.04436888 0 6603.88230446 0 -200.77825523 0 5186.77346680 0 16015
0.11950000 0.11950300 15044.59934487 0 555.49722221 0 6642.47145842 0 418.81428152 0 4996.07582715 0 15270
0.12050000 0.12050700 14869.69481949 0 543.87438936 0 7798.79719911 0 -233.72460252 0 6400.13426931 0 15999
0.12150000 0.12150000 14394.32770008 0 411.96085677 0 7250.70306947 0 60.61464703 0 5160.43662214 0 15670
0.12250000 0.12250700 14067.56198333 0 338.68193059 0 7271.81301154 0 24.94401563 0 5449.36630853 0 16887
0.12350000 0.12352200 13678.29824851 0 275.36896535 0 6638.88569083 0 141.74572978 0 4357.75299409 0 16407
0.12450000 0.12449800 13633.11083258 0 149.03753991 0 6405.38365320 0 596.78300828 0 3783.76040516 0 16306
0.12550000 0.12549900 13305.89548980 0 14.20514755 0 5433.65187881 0 443.10869995 0 2704.09590245 0 17523
0.12650000 0.12650100 13303.98457917 0 36.13228493 0 4733.68531714 0 443.78651118 0 1852.70653478 0 17154
0.12750000 0.12750600 13182.69795778 0 15.75793104 0 4663.22891835 0 190.18956224 0 1192.62180191 0 18007
0.12850000 0.12850300 13248.00613853 0 60.87745345 0 4447.07120480 0 4.91781842 0 1184.15759191 0 17496
0.12950000 0.12949900 13086.92761356 0 48.80544419 0 4333.23713484 0 -355.29448831 0 462.88662491 0 18405
0.13050000 0.13049000 13186.74459205 0 205.61173504 0 4982.09245764 0 -165.68381958 0 746.76476286 0 18100
0.13150000 0.13148800 12960.58269934 0 76.91415263 0 4717.74607440 0 -512.62762846 0 -197.88153953 0 19059
0.13250000 0.13249300 13184.27164889 0 55.55680383 0 4942.07574104 0 -128.91340291 0 221.13732183 0 18957
0.13350000 0.13349100 12943.83412975 0 -66.86354959 0 4442.86720142 0 303.93932731 0 -665.18686424 0 19468
0.13450000 0.13450700 12935.51604821 0 -54.09877903 0 4063.85494008 0 639.26704772 0 -468.09779059 0 19953
0.13550000 0.13551000 12914.27121833 0 -25.95230200 0 3765.51682903 0 702.68679915 0 -1270.14857000 0 19956
0.13650000 0.13649900 12945.40782085 0 134.14704989 0 3137.63656049 0 704.35266358 0 -1352.66618702 0 19723
0.13750000 0.13749600 12627.63462469 0 171.92575293 0 2946.01718748 0 332.18146227 0 -1365.59293536 0 20946
0.13850000 0.13851100 12497.46788922 0 144.41763246 0 2390.99881699 0 466.92763884 0 -832.25553199 0 20955
0.13950000 0.13949800 12337.62583583 0 89.15308555 0 2474.89903405 0 420.90729069 0 -537.21880006 0 20506
0.14050000 0.14048300 12145.63552134 0 276.42446245 0 2116.52460744 0 419.39654723 0 -790.00080183 0 21447
0.14150000 0.14148400 11865.74331814 0 399.13415022 0 2058.06198299 0 212.62477703 0 -499.35354401 0 21771
0.14250000 0.14249400 11343.72749819 0 520.41065502 0 1955.89570849 0 122.11056109 0 -326.81629968 0 22470
0.14350000 0.14350900 10941.34592398 0 406.39561059 0 2025.00322919 0 125.26468768 0 269.34397656 0 22519
0.14450000 0.14449900 10692.37675094 0 175.27097059 0 1937.23622828 0 99.31699435 0 319.15692027 0 22218
0.14550000 0.14550500 10571.12385150 0 208.30836715 0 2336.76267721 0 -99.58159926 0 434.70181726 0 23559
0.14650000 0.14650700 10432.24561172 0 129.91382082 0 2384.26566720 0 -246.11067556 0 508.57874606 0 23044
0.14750000 0.14750500 10436.22480208 0 120.33453827 0 2784.30918607 0 -276.99773564 0 875.15772364 0 23649
0.14850000 0.14849900 10441.06952254 0 107.33854752 0 3066.78673894 0 -360.93729497 0 794.37791122 0 23640
0.14950000 0.14949500 10473.24026494 0 134.42469396 0 3373.06074940 0 -42.82215821 0 856.81073351 0 24457
0.15050000 0.15050000 10338.95945130 0 247.58095268 0 3453.31899562 0 -4.10691787 0 881.24566007 0 24591
0.15150000 0.15149900 10336.49774879 0 131.18513842 0 3547.02106012 0 177.26731016 0 983.32425749 0 25020
0.15250000 0.15250500 10052.24417311 0 143.82974643 0 3448.56420036 0 58.24725358 0 882.05948319 0 25297
0.15350000 0.15350100 10129.05153955 0 26.54299820 0 3512.86072254 0 446.67423436 0 1473.36829456 0 25452
0.15450000 0.15450400 10163.07698932 0 -95.54440715 0 3288.30624289 0 472.76490877 0 1438.40987079 0 26061
0.15550000 0.15549900 10187.85138353 0 -61.28751239 0 3088.09901272 0 565.20464819 0 1800.70728450 0 26128
0.15650000 0.15649500 10294.09801424 0 -15.83346821 0 2750.31745826 0 410.79520129 0 1663.90856511 0 26331
0.15750000 0.15749700 10050.26581858 0 171.34236316 0 2546.25468489 0 305.08362555 0 924.09389659 0 27345
0.15850000 0.15849900 9957.96883543 0 378.42774751 0 2580.89837044 0 -309.24266633 0 1234.83044540 0 26980
0.15950000 0.15949700 9601.06693407 0 294.49605663 0 2525.63933144 0 -412.15756816 0 892.68077406 0 27777
0.16050000 0.16050000 9403.05163079 0 221.43407501 0 2596.59031886 0 -401.39239695 0 687.73898180 0 28224
0.16150000 0.16150500 9333.69681578 0 111.96688546 0 2967.53179298 0 -207.88909088 0 489.11555932 0 28075
0.16250000 0.16249700 9307.60726543 0 20.37817571 0 2633.58330041 0 -44.46992520 0 -78.39769371 0 28590
0.16350000 0.16349900 9356.04322943 0 -35.00394841 0 3037.74089745 0 51.59335038 0 430.99914691 0 29163
0.16450000 0.16449100 9342.81298352 0 134.32015591 0 2763.52522286 0 -32.15242013 0 -77.51833760 0 28996
0.16550000 0.16550500 9337.27134271 0 63.29970127 0 2875.95421148 0 452.58232038 0 242.16183496 0 30777
0.16650000 0.16650700 9077.34253521 0 198.51326410 0 2624.28728226 0 283.07443142 0 85.20053553 0 29211
0.16750000 0.16749900 9074.44244732 0 153.49108573 0 2572.04073766 0 532.42691065 0 657.46903345 0 30922
0.16850000 0.16850800 8781.71342098 0 144.17820660 0 1912.23702105 0 573.12593476 0 230.01968404 0 30867
0.16950000 0.16949900 8696.30695673 0 150.66518614 0 1807.74393186 0 483.96621722 0 615.38178898 0 30852
0.17050000 0.17049200 8505.64303903 0 98.93245169 0 1496.38914726 0 265.53339596 0 354.69648569 0 31257
0.17150000 0.17149500 8222.72710078 0 180.60915562 0 1350.48550077 0 -69.22093886 0 178.18342319 0 32608
0.17250000 0.17250900 8253.50400248 0 205.24528983 0 1665.87567898 0 -136.23781092 0 892.45371292 0 32361
0.17350000 0.17350400 8058.56863751 0 227.59282755 0 1615.55128566 0 -230.91556390 0 282.74732849 0 32508
0.17450000 0.17449800 8098.94505493 0 150.51793361 0 2014.76299637 0 -79.78467760 0 1060.42275679 0 32791
0.17550000 0.17549800 7891.16162617 0 27.94178477 0 1948.66797007 0 -29.49591714 0 416.58750861 0 33633
0.17650000 0.17650100 8016.77589809 0 -17.56767581 0 2214.61052572 0 42.03160325 0 602.85183561 0 33984
0.17750000 0.17750300 8093.45961738 0 -7.94485821 0 1964.16882743 0 -83.40450436 0 446.12344247 0 34069
