### header ###
fiducial parameters:
Omega_m = 0.31
Omega_nu = 0
Omega_de = 0.69
Omega_k = 0
H_0 = 100
w_de = -1
zeff = 0
beta = 0
fgrowth = 0
b_1 = 2
gamma = 0.55
Lx = 3500 Ly = 3500 Lz = 3500
nx = 700 ny = 700 nz = 700
xoffset = 857.220397 yoffset = 15.9954215 zoffset = 262.898189
bins = 400 dk = 0.001
kx_ny = 0.628318531 ky_ny = 0.628318531 kz_ny = 0.628318531
############################
A(data) = 3.05074577 (not used)
A(ran) = 3.05107562 (used)
Ngal = 185998
weighted Ngal = 0
Nran = 9360983
weighted Nran = 0
SN(data) = 3444.2269
SN(ran) = 68.5156919
SN(data+ran) = 3512.7426
############################
13 columns: k_central k_mean P_0(k) sigma^{lin}_{P_0(k)} P^img_1(k) sigma^{lin}_{P_1(k)} P_2(k) sigma^{lin}_{P_2(k)} P^img_3(k) sigma^{lin}_{P_3(k)} P_4(k) sigma^{lin}_{P_4(k)} N_modes
### header ###
0.00050000 0 0 0 0 0 0 0 0 0 0 0 0
0.00150000 0.00179520 10621.80794565 0 -20674.92888951 0 -11023.71741253 0 16610.98402423 0 15250.30325324 0 3
0.00250000 0.00253879 24629.16500366 0 -28308.90442696 0 -19420.80948746 0 -13991.68759089 0 -5903.67968912 0 6
0.00350000 0.00331552 36837.18613656 0 -27987.08459653 0 -33930.69107705 0 -4673.59279833 0 -3192.16495719 0 7
0.00450000 0.00420575 54697.23127002 0 -28640.39121701 0 -40627.19634353 0 -19070.88803020 0 -5133.30169127 0 24
0.00550000 0.00557378 69662.13440120 0 -16900.88040658 0 -53355.77201178 0 -28658.15144517 0 -8237.32870608 0 45
0.00650000 0.00659388 85180.07754835 0 -10871.69885205 0 -32014.94697297 0 -68664.63905533 0 -50064.39707124 0 40
0.00750000 0.00754703 73814.65559424 0 2194.34363245 0 -33239.05383757 0 -59279.14532098 0 -26510.28790349 0 57
0.00850000 0.00846663 78906.89518840 0 4111.93120325 0 -14647.24234153 0 -70856.00391534 0 -42485.95034841 0 75
0.00950000 0.00948925 70772.59828692 0 6363.59091378 0 862.57156701 0 -52603.09803883 0 -26927.09123260 0 112
0.01050000 0.01054430 79711.72578074 0 3474.23784663 0 25823.14692431 0 -53361.72955667 0 -47396.76583976 0 105
0.01150000 0.01145670 78095.76983165 0 3782.38904577 0 27545.21461629 0 -27271.16755147 0 -32249.87657324 0 144
0.01250000 0.01249090 84310.50080780 0 -363.66202871 0 41121.67256918 0 -7079.91262226 0 -26927.87807815 0 169
0.01350000 0.01339930 81434.91753780 0 -1314.90884121 0 29910.35993660 0 19898.53714352 0 -36720.17096245 0 180
0.01450000 0.01448870 85654.09578967 0 -6059.25029524 0 24874.99803515 0 42614.09376674 0 -3148.53999170 0 267
0.01550000 0.01550050 86258.50557948 0 -7742.13307878 0 -17631.85992362 0 45521.37567180 0 -15212.64707329 0 238
0.01650000 0.01653350 87352.10848910 0 -8786.89536097 0 -19876.50546809 0 43375.64785376 0 4745.31939064 0 315
0.01750000 0.01747870 85743.23414997 0 -3419.45091497 0 -36342.48509789 0 22461.85513622 0 8413.23364937 0 297
0.01850000 0.01844180 85132.97922179 0 2570.14106769 0 -33348.53777569 0 -5386.40742378 0 2977.62589734 0 388
0.01950000 0.01947590 79510.29331964 0 7289.49455514 0 -40901.46822136 0 -19953.95355163 0 37387.07877032 0 399
0.02050000 0.02045430 76280.96677113 0 9689.75566833 0 -15705.99923388 0 -33767.02720240 0 36199.84124011 0 462
0.02150000 0.02154770 74885.32757637 0 6906.66047255 0 -3764.12298833 0 -20775.64512006 0 43445.33988830 0 571
0.02250000 0.02255340 74309.69385244 0 -171.15239616 0 22313.36614006 0 784.51199208 0 33619.54986481 0 510
0.02350000 0.02348930 76375.16342426 0 2861.09407121 0 20010.94365083 0 -6417.00648605 0 27881.87210569 0 555
0.02450000 0.02439640 75279.31238449 0 1653.82570140 0 27218.89852557 0 5667.08647254 0 14789.21176026 0 592
0.02550000 0.02547300 71030.57122119 0 4290.79243768 0 30752.17226985 0 1580.42425213 0 14743.91193781 0 837
0.02650000 0.02652900 67879.25478876 0 3650.41256554 0 24477.19140578 0 -25.58495754 0 3440.16743427 0 723
0.02750000 0.02749970 66070.29686662 0 2616.47503000 0 26327.73973562 0 805.77817920 0 5053.49307108 0 826
0.02850000 0.02848090 64999.28766497 0 -413.20407274 0 19833.22896278 0 5848.09467126 0 -2590.25059185 0 831
0.02950000 0.02946900 63054.09305597 0 -1387.50096363 0 13693.24831399 0 6664.73918751 0 -4273.63920467 0 996
0.03050000 0.03053250 63016.21206301 0 -1546.49996822 0 3302.03107743 0 8478.71043988 0 -6359.33070715 0 1041
0.03150000 0.03150510 63133.56445664 0 2109.30810967 0 2247.24213479 0 4841.24710398 0 -7595.72360301 0 1036
0.03250000 0.03246190 59197.87541620 0 4711.38386609 0 2545.42287673 0 2046.47287208 0 -3994.29779335 0 1059
0.03350000 0.03345080 53784.49043066 0 5354.22544074 0 -1621.21657363 0 -2131.21613795 0 -4094.90161740 0 1302
0.03450000 0.03451200 49014.74510598 0 5714.94916335 0 3648.00706628 0 -5570.84402098 0 6189.75425023 0 1339
0.03550000 0.03553350 46273.15039269 0 2711.19999371 0 7476.15680118 0 1039.51739456 0 6970.93451343 0 1365
0.03650000 0.03647120 45380.53031814 0 -736.48069150 0 10650.82006518 0 1134.60880348 0 12936.75251979 0 1308
0.03750000 0.03744890 47670.25087205 0 -958.40598295 0 13808.12776446 0 1774.01073902 0 14037.88666540 0 1579
0.03850000 0.03847530 48308.60742706 0 -347.78573362 0 17301.49719863 0 80.22834609 0 14487.06306861 0 1662
0.03950000 0.03950240 49807.54820204 0 488.57038776 0 19614.14868003 0 658.34692827 0 16279.72204719 0 1683
0.04050000 0.04050350 50752.21248947 0 1086.69215755 0 26132.04000639 0 -3815.95362886 0 12289.96547673 0 1822
0.04150000 0.04152450 50376.66234855 0 1629.32108281 0 25560.56532323 0 -862.24446408 0 12542.88011818 0 1887
0.04250000 0.04250150 48436.52603238 0 1789.15189555 0 26519.73005011 0 1344.70780630 0 5519.60913495 0 1920
0.04350000 0.04349210 47421.60767788 0 728.27951273 0 25128.47470913 0 -762.16108216 0 6635.07511024 0 2005
0.04450000 0.04448520 46128.48321778 0 544.36448173 0 23698.32671663 0 6478.57153011 0 96.60338885 0 2151
0.04550000 0.04548030 45200.67990645 0 966.20137423 0 17150.64766582 0 7037.87258853 0 -272.41155014 0 2274
0.04650000 0.04648670 43683.19205776 0 615.80443745 0 12868.97139588 0 4277.31489746 0 -2086.69192040 0 2311
0.04750000 0.04749250 43298.19977023 0 1138.03720196 0 9575.73050732 0 3387.77476121 0 -1200.63638588 0 2568
0.04850000 0.04851840 42076.22862926 0 533.23623751 0 7534.43957522 0 2114.26523664 0 -516.05827506 0 2493
0.04950000 0.04949480 41309.05421687 0 1018.78401429 0 4627.14642951 0 839.26407772 0 -3435.07541949 0 2644
0.05050000 0.05050630 40341.23418893 0 826.14511426 0 7113.00509802 0 -3172.02171108 0 -1829.28101866 0 2829
0.05150000 0.05149060 40285.36815480 0 376.23919281 0 8233.84410436 0 -3810.62556041 0 -6974.40787450 0 2784
0.05250000 0.05249300 40359.78126264 0 710.16295595 0 10913.68268253 0 -4685.24935314 0 -4773.78071829 0 3055
0.05350000 0.05348950 39356.89040442 0 666.29406834 0 13557.12403363 0 -4339.18343908 0 -10247.33690719 0 3009
0.05450000 0.05448610 39501.33276631 0 1424.58387039 0 17606.11883344 0 -4738.37266849 0 -6340.05299115 0 3336
0.05550000 0.05550870 39521.90315715 0 736.19967524 0 19933.83278682 0 -1137.54261333 0 -8772.91199146 0 3349
0.05650000 0.05647670 38614.89504967 0 1579.54748137 0 20472.25995683 0 1264.56196659 0 -5566.71870216 0 3324
0.05750000 0.05747970 37996.09722693 0 383.27584017 0 19740.38118774 0 4151.73434749 0 -9741.23784868 0 3639
0.05850000 0.05849280 36878.55173125 0 788.06403771 0 17843.18415736 0 4702.99834064 0 -5491.30517641 0 3846
0.05950000 0.05951020 36171.73961329 0 783.19796001 0 15029.42446638 0 4172.23729442 0 -4477.33103657 0 3787
0.06050000 0.06049470 34996.52957936 0 659.55867042 0 14202.11257258 0 2286.42704324 0 -3060.63810299 0 3930
0.06150000 0.06148310 34759.01462941 0 785.61807211 0 11333.16128651 0 2813.01780803 0 -3578.80962038 0 4083
0.06250000 0.06249100 33080.67306877 0 787.06924012 0 10678.24725297 0 845.46442067 0 -2934.43931723 0 4303
0.06350000 0.06350600 32693.43265109 0 1091.97751152 0 9783.52517673 0 -5.52343096 0 -1746.49362603 0 4470
0.06450000 0.06451750 31855.32973259 0 912.60145529 0 10784.88730645 0 -368.90579228 0 -2838.71393560 0 4479
0.06550000 0.06550280 31809.91750363 0 620.45132246 0 10286.75786931 0 430.87999602 0 -93.86246858 0 4636
0.06650000 0.06648880 30465.19845668 0 70.04161877 0 9371.64525265 0 1929.90732400 0 -1035.04249150 0 4653
0.06750000 0.06749660 30855.47385006 0 -208.07456162 0 8859.44252079 0 1825.66152912 0 -1193.88075479 0 5220
0.06850000 0.06852730 30407.42151193 0 154.62077113 0 7522.05237812 0 2447.41564301 0 -1384.98305787 0 5029
0.06950000 0.06949320 29947.00445798 0 769.08082675 0 6303.37474781 0 1605.03003658 0 -2284.49365131 0 5040
0.07050000 0.07048030 28809.90023004 0 790.14693029 0 5564.24575900 0 623.03442400 0 -489.29878193 0 5475
0.07150000 0.07148790 28373.42576215 0 173.84790421 0 4546.28118815 0 1577.76021790 0 -930.89561435 0 5509
0.07250000 0.07249820 27900.08195987 0 -88.98481301 0 4800.51098573 0 1674.66586786 0 682.86953191 0 5916
0.07350000 0.07351270 28231.79356294 0 -289.66257682 0 3802.80206750 0 1044.84883520 0 -756.17206345 0 5721
0.07450000 0.07449140 28140.18225949 0 9.91457992 0 3538.64677532 0 -503.48448315 0 -1137.28407836 0 6028
0.07550000 0.07549160 28289.34569469 0 1041.80936324 0 4388.50741449 0 -1781.91291648 0 510.91567735 0 6183
0.07650000 0.07648840 26960.70077828 0 1009.93987029 0 3275.30081000 0 -1731.30750689 0 -2358.06371035 0 6330
0.07750000 0.07749960 26750.27579660 0 507.00617903 0 5558.02967914 0 -755.37734945 0 569.15910911 0 6583
0.07850000 0.07848650 26149.35060852 0 246.58727915 0 3994.42144051 0 0.61266942 0 -3032.28918184 0 6549
0.07950000 0.07947320 26316.38667838 0 131.47627128 0 4638.35335829 0 552.79721791 0 -2263.88953852 0 6828
0.08050000 0.08048110 26117.65197346 0 473.82827433 0 4628.03444092 0 -538.61264075 0 -4009.15793362 0 7147
0.08150000 0.08149960 25422.75494527 0 784.32539728 0 5061.67626482 0 -525.14184492 0 -1966.58556734 0 7386
0.08250000 0.08250610 24923.67005281 0 821.04410695 0 6621.50764480 0 -545.67064535 0 -1796.34591202 0 7227
0.08350000 0.08350160 24822.05457020 0 166.39198058 0 5695.26678392 0 138.28698155 0 -354.14569380 0 7798
0.08450000 0.08449610 24749.21515347 0 216.43310950 0 8497.48232660 0 981.26609434 0 618.14474093 0 7371
0.08550000 0.08548940 24314.87640922 0 377.79939513 0 7695.07971482 0 432.71896648 0 -281.85369675 0 8256
0.08650000 0.08650700 24037.68196220 0 552.83656019 0 8911.57665888 0 1207.13348200 0 2097.66279551 0 8037
0.08750000 0.08749060 23520.72443508 0 867.90188359 0 8462.59134673 0 -288.97240086 0 819.67387163 0 8155
0.08850000 0.08849210 22740.62327435 0 778.11156555 0 8369.96838471 0 500.97781804 0 1260.88627380 0 8718
0.08950000 0.08949900 21935.23064947 0 377.21825349 0 6769.77182795 0 489.02900631 0 262.43322449 0 8571
0.09050000 0.09049190 21613.86044507 0 160.91441147 0 5248.47339866 0 1283.39005656 0 -47.55829399 0 8932
0.09150000 0.09150830 21387.69855236 0 -94.07390522 0 4463.90969959 0 1347.85518850 0 -1840.42050353 0 9285
0.09250000 0.09250820 20883.44296057 0 222.17820609 0 3088.57112005 0 832.28588175 0 -2746.82161588 0 9204
0.09350000 0.09350330 20640.53249828 0 714.64685152 0 3111.44584429 0 -128.24233606 0 -2106.13824616 0 9349
0.09450000 0.09448040 19784.66935162 0 911.05024549 0 3680.09912412 0 -559.70234965 0 -1395.65043541 0 9564
0.09550000 0.09549270 19270.74680020 0 959.49070575 0 4564.60344884 0 -311.10524215 0 -916.80208647 0 10155
0.09650000 0.09649430 18501.32425766 0 754.94458439 0 5425.27759401 0 -261.65199926 0 676.71415157 0 9913
0.09750000 0.09749140 18384.98352259 0 602.67198520 0 6161.51773559 0 321.35221936 0 1390.58090193 0 10476
0.09850000 0.09850240 17833.06757170 0 622.47688773 0 6360.79199175 0 517.99728731 0 1934.61715666 0 10575
0.09950000 0.09950330 17251.02667685 0 402.44114967 0 6055.87810002 0 897.54235550 0 2694.49638673 0 10882
0.10050000 0.10051200 17211.45958628 0 126.55736252 0 5676.47241590 0 540.33133625 0 2260.70843437 0 10875
0.10150000 0.10150300 16946.85466807 0 18.07339268 0 5096.92694551 0 739.38977191 0 1902.36772971 0 11118
0.10250000 0.10250800 16648.52779767 0 161.03243831 0 5407.32627479 0 -41.92695279 0 1616.83271984 0 11575
0.10350000 0.10349800 16671.79594468 0 272.54981014 0 4368.65642530 0 -525.30483435 0 863.23026915 0 11364
0.10450000 0.10450100 16561.30034800 0 405.41205365 0 5636.14096107 0 -612.82454094 0 1635.45847811 0 12093
0.10550000 0.10551000 16176.19565395 0 457.29777336 0 5038.63293082 0 -475.13668607 0 1424.40401998 0 12067
0.10650000 0.10649700 16062.21545554 0 236.44146780 0 6064.21866286 0 122.00040271 0 1780.78885141 0 12054
0.10750000 0.10749900 15933.51000467 0 79.68800801 0 6029.86723423 0 694.23495386 0 1477.50485403 0 12807
0.10850000 0.10850100 15592.91828752 0 223.33599311 0 6105.59549820 0 667.33720073 0 1727.87910842 0 12736
0.10950000 0.10950300 15790.41652087 0 39.44906374 0 5098.52311791 0 829.22280443 0 1074.50841622 0 12933
0.11050000 0.11050200 15059.66181685 0 57.11869225 0 5009.85686495 0 453.54901634 0 1250.05028649 0 13428
0.11150000 0.11150900 15431.95216906 0 139.38182093 0 4485.54795225 0 267.96474871 0 1121.14025578 0 13453
0.11250000 0.11250000 15342.36418273 0 -184.55912029 0 3579.18056186 0 238.55133794 0 195.65251849 0 13668
0.11350000 0.11349100 15193.31315404 0 73.85467231 0 3855.74553244 0 293.10783627 0 366.55200001 0 13791
0.11450000 0.11448600 15192.18908896 0 136.84030980 0 2963.30530831 0 2.80564394 0 -703.02401867 0 14205
0.11550000 0.11549300 15037.96736093 0 324.05447179 0 3304.36913279 0 -82.86607719 0 -324.02861830 0 14776
0.11650000 0.11649800 14780.10683317 0 427.35155575 0 3419.75441254 0 -262.04204984 0 -897.49514477 0 14553
0.11750000 0.11747300 14379.60244762 0 367.40741353 0 3950.65034656 0 -55.80904403 0 -757.53892658 0 14568
0.11850000 0.11849100 13994.72256659 0 288.22826978 0 3794.87740873 0 18.65194898 0 -615.83366314 0 16015
0.11950000 0.11950300 14123.20320445 0 188.79572155 0 3616.20726537 0 451.86966313 0 -1100.37315355 0 15270
0.12050000 0.12050700 13814.42252887 0 27.78014422 0 3828.63308288 0 497.37518948 0 -362.71893811 0 15999
0.12150000 0.12150000 14071.49621108 0 -123.27284437 0 3315.05899163 0 664.04256600 0 -174.96297676 0 15670
0.12250000 0.12250700 14004.61433923 0 -58.93315809 0 3567.43408184 0 188.04597014 0 477.90076209 0 16887
0.12350000 0.12352200 14214.47728838 0 116.77574825 0 3293.64555199 0 -118.76534343 0 439.42851090 0 16407
0.12450000 0.12449800 14103.98169170 0 140.17091462 0 3980.16829538 0 -595.45323930 0 708.28801541 0 16306
0.12550000 0.12549900 14117.92009860 0 105.14437250 0 4138.23432596 0 -653.72589676 0 382.44065982 0 17523
0.12650000 0.12650100 13997.42032277 0 99.26303922 0 4335.01315766 0 -132.72173538 0 195.88632403 0 17154
0.12750000 0.12750600 14107.80351295 0 66.08547175 0 4513.66081973 0 -174.80673171 0 290.23135374 0 18007
0.12850000 0.12850300 13942.22872768 0 100.60382404 0 4681.98956442 0 118.62258716 0 -120.72796105 0 17496
0.12950000 0.12949900 13773.73137322 0 167.58348955 0 4040.04724183 0 653.71578017 0 -250.59007488 0 18405
0.13050000 0.13049000 13562.63195249 0 418.47368980 0 3697.93803683 0 502.45483955 0 -528.49380696 0 18100
0.13150000 0.13148800 13175.61634782 0 303.95956048 0 3457.77029331 0 938.43022254 0 -364.02510173 0 19059
0.13250000 0.13249300 12616.50638046 0 472.12194355 0 3213.15125210 0 701.54924529 0 -234.33272172 0 18957
0.13350000 0.13349100 12323.79983543 0 295.52682430 0 2421.61834958 0 406.25622652 0 -12.98767267 0 19468
0.13450000 0.13450700 12117.42148801 0 122.27130239 0 2458.49892463 0 394.94026343 0 17.45133507 0 19953
0.13550000 0.13551000 12058.97010421 0 -51.74015328 0 2394.12371789 0 120.80552154 0 85.49088154 0 19956
0.13650000 0.13649900 12262.31347593 0 -37.97608887 0 2025.59898368 0 -366.07652049 0 -298.38194959 0 19723
0.13750000 0.13749600 12068.52465733 0 41.17191828 0 2420.49428451 0 -249.11192931 0 -493.98388515 0 20946
0.13850000 0.13851100 12245.56490634 0 145.01788321 0 2646.31895769 0 -627.33734510 0 -336.69233541 0 20955
0.13950000 0.13949800 12034.35307911 0 283.48696331 0 2617.95879590 0 40.27480194 0 -293.57769547 0 20506
0.14050000 0.14048300 11885.75167644 0 216.48032023 0 3005.44650790 0 140.21138096 0 -139.48748305 0 21447
0.14150000 0.14148400 11566.62960219 0 150.20656759 0 2361.50334947 0 466.25319980 0 -272.86230023 0 21771
0.14250000 0.14249400 11483.56119329 0 208.86140717 0 2626.87263193 0 319.42444776 0 -285.97901557 0 22470
0.14350000 0.14350900 11359.35200271 0 277.69802818 0 2213.14924112 0 87.81263795 0 -151.76114958 0 22519
0.14450000 0.14449900 10960.66860258 0 382.34736242 0 2467.67129563 0 -234.27764254 0 -115.48419748 0 22218
0.14550000 0.14550500 10741.92553936 0 303.23004225 0 2577.75098823 0 -232.19025369 0 318.01037390 0 23559
0.14650000 0.14650700 10480.58040986 0 101.27860031 0 2836.54449001 0 83.74340998 0 318.41616139 0 23044
0.14750000 0.14750500 10498.12706565 0 68.67385639 0 2871.64904225 0 194.21596333 0 526.57053162 0 23649
0.14850000 0.14849900 10545.79866540 0 -36.25739337 0 2786.57979751 0 569.49408050 0 506.52283104 0 23640
0.14950000 0.14949500 10526.73452176 0 48.17045983 0 2849.54992291 0 120.62005080 0 987.78791990 0 24457
0.15050000 0.15050000 10503.55629996 0 38.80755980 0 2617.95879590 0 127.69266824 0 661.34930608 0 24591
0.15150000 0.15149900 10423.51162610 0 156.61149037 0 2706.89482448 0 -31.99493861 0 682.71890719 0 25020
0.15250000 0.15250500 10345.84997020 0 208.95470457 0 2443.73995022 0 -34.19810616 0 19.87290846 0 25297
0.15350000 0.15350100 10086.51691719 0 217.67407734 0 2186.92480297 0 -117.31080322 0 -153.13700523 0 25452
0.15450000 0.15450400 9887.27638298 0 197.16213789 0 2546.74927352 0 -200.14203440 0 -791.87012205 0 26061
0.15550000 0.15549900 9805.86034974 0 223.84856679 0 2336.25684793 0 -206.58854759 0 -962.49645575 0 26128
0.15650000 0.15649500 9634.44042609 0 214.89651254 0 2612.23730468 0 -14.76886618 0 -940.21186568 0 26331
0.15750000 0.15749700 9508.37652814 0 256.61393960 0 2382.25359072 0 -34.82634613 0 -1108.74519022 0 27345
0.15850000 0.15849900 9353.17686350 0 100.72803323 0 2475.37114138 0 374.18889812 0 -665.61738117 0 26980
0.15950000 0.15949700 9153.57662847 0 56.75764255 0 2348.77893284 0 488.82555053 0 -682.74588475 0 27777
0.16050000 0.16050000 9262.44233080 0 97.32065478 0 2030.42122284 0 451.06820473 0 -651.02476839 0 28224
0.16150000 0.16150500 9054.83875245 0 103.61103533 0 2122.31354257 0 241.72007738 0 -616.20685275 0 28075
0.16250000 0.16249700 8996.87071663 0 180.59679090 0 1902.23284190 0 -99.26663623 0 -331.24286794 0 28590
0.16350000 0.16349900 8921.18741525 0 66.04905204 0 1989.57269808 0 -86.06067013 0 -46.40860023 0 29163
0.16450000 0.16449100 8941.96013780 0 -15.09484505 0 2145.36811722 0 -79.31706653 0 -251.91085134 0 28996
0.16550000 0.16550500 8996.76955077 0 7.29031512 0 2341.28141881 0 -127.83205231 0 81.57767380 0 30777
0.16650000 0.16650700 9118.49455754 0 65.35156966 0 2573.92916699 0 -64.44973225 0 245.43174026 0 29211
0.16750000 0.16749900 8978.77326895 0 167.70713671 0 2505.43988208 0 50.28662474 0 808.02743341 0 30922
0.16850000 0.16850800 8889.75855581 0 154.76465146 0 2676.09544148 0 162.80396486 0 769.03361602 0 30867
0.16950000 0.16949900 8732.77162770 0 116.60601442 0 2470.12175748 0 307.16427001 0 1179.48148120 0 30852
0.17050000 0.17049200 8675.11833010 0 134.01216208 0 2653.87267498 0 313.35112417 0 917.61703364 0 31257
0.17150000 0.17149500 8467.22249483 0 102.97324081 0 2109.76897635 0 174.30989495 0 950.77133297 0 32608
0.17250000 0.17250900 8420.94473577 0 107.48186582 0 2358.94048110 0 47.68194115 0 1040.91348338 0 32361
0.17350000 0.17350400 8278.49196906 0 83.25927515 0 2131.01380623 0 26.50714052 0 764.65987882 0 32508
0.17450000 0.17449800 8298.16310784 0 -10.48143470 0 2131.68824528 0 231.14262505 0 823.50018914 0 32791
0.17550000 0.17549800 8229.87615465 0 32.53415263 0 2070.43793944 0 -25.09261703 0 455.54985217 0 33633
0.17650000 0.17650100 8304.14313403 0 100.07337773 0 2131.71072658 0 143.94440107 0 747.38075052 0 33984
0.17750000 0.17750300 8147.30233438 0 243.45226166 0 2503.40532430 0 -191.09331056 0 234.12364562 0 34069
