### header ###
fiducial parameters:
Omega_m = 0.31
Omega_nu = 0
Omega_de = 0.69
Omega_k = 0
H_0 = 100
w_de = -1
zeff = 0
beta = 0
fgrowth = 0
b_1 = 2
gamma = 0.55
Lx = 3500 Ly = 3500 Lz = 3500
nx = 700 ny = 700 nz = 700
xoffset = 857.220397 yoffset = 15.9954215 zoffset = 262.898189
bins = 400 dk = 0.001
kx_ny = 0.628318531 ky_ny = 0.628318531 kz_ny = 0.628318531
############################
A(data) = 3.10023535 (not used)
A(ran) = 3.0948526 (used)
Ngal = 189039
weighted Ngal = 0
Nran = 9360983
weighted Nran = 0
SN(data) = 3467.68774
SN(ran) = 69.4987584
SN(data+ran) = 3537.1865
############################
13 columns: k_central k_mean P_0(k) sigma^{lin}_{P_0(k)} P^img_1(k) sigma^{lin}_{P_1(k)} P_2(k) sigma^{lin}_{P_2(k)} P^img_3(k) sigma^{lin}_{P_3(k)} P_4(k) sigma^{lin}_{P_4(k)} N_modes
### header ###
0.00050000 0 0 0 0 0 0 0 0 0 0 0 0
0.00150000 0.00179520 38425.82730437 0 -64182.31716984 0 -69307.94149667 0 126994.62382859 0 48587.82519122 0 3
0.00250000 0.00253879 64947.69307812 0 -67507.75128210 0 -18745.92081757 0 -94661.79125295 0 -55828.71517260 0 6
0.00350000 0.00331552 115535.90447342 0 -77903.10507812 0 -90820.07405262 0 15482.75991036 0 11815.16038985 0 7
0.00450000 0.00420575 156161.86434537 0 -67004.73216189 0 -68904.62694844 0 -72998.35953816 0 -22860.22379812 0 24
0.00550000 0.00557378 201162.68548182 0 -8436.07465166 0 -80343.45035182 0 -131829.22770799 0 -13025.77847358 0 45
0.00650000 0.00659388 189139.68545995 0 10865.68510391 0 13201.24503149 0 -122300.52808333 0 -28734.70027665 0 40
0.00750000 0.00754703 164131.48571364 0 44292.21051437 0 -23732.61070136 0 -96233.45903816 0 10552.86903471 0 57
0.00850000 0.00846663 132825.14936276 0 34915.14726807 0 21046.20758316 0 -42159.18463166 0 -31198.76332339 0 75
0.00950000 0.00948925 104300.76166129 0 17748.20065868 0 22065.95941747 0 -3117.88673716 0 -23572.88105447 0 112
0.01050000 0.01054430 81173.57240830 0 13119.63790718 0 10358.96780960 0 46942.53114372 0 -33117.31759015 0 105
0.01150000 0.01145670 75306.28994625 0 1407.76785690 0 -4177.28434660 0 31885.90430257 0 -21931.97086076 0 144
0.01250000 0.01249090 64926.67306125 0 -298.74727074 0 -21445.81271664 0 27850.39828364 0 -2485.65633679 0 169
0.01350000 0.01339930 74066.55857712 0 -4604.03565161 0 -32277.64098055 0 8314.70934571 0 -5614.51394907 0 180
0.01450000 0.01448870 72293.23351780 0 -1136.96934014 0 -28201.44380597 0 -16964.16527020 0 9236.60007477 0 267
0.01550000 0.01550050 76501.73315149 0 -1609.27900255 0 -32322.15395744 0 -26331.22433735 0 12737.79300185 0 238
0.01650000 0.01653350 73065.69103604 0 2814.19807636 0 -10175.26185471 0 -16495.99216725 0 28399.39166534 0 315
0.01750000 0.01747870 80013.42484636 0 -874.96775664 0 -8169.27780656 0 -18131.84406813 0 3957.43969961 0 297
0.01850000 0.01844180 76704.96411670 0 1342.20114118 0 11799.64829184 0 6426.25754161 0 12355.49847049 0 388
0.01950000 0.01947590 74001.70002241 0 7044.33596270 0 -2272.49987698 0 -380.23974041 0 1908.48264371 0 399
0.02050000 0.02045430 67498.08432247 0 10578.09305495 0 2094.63906047 0 -4122.05902956 0 9566.14223225 0 462
0.02150000 0.02154770 58203.52745254 0 7726.27252060 0 3490.01972026 0 237.88476735 0 8520.09851587 0 571
0.02250000 0.02255340 55333.56450790 0 307.49137294 0 2870.71606824 0 -1188.92362782 0 4832.40071186 0 510
0.02350000 0.02348930 52947.06195120 0 -1225.02859796 0 5528.64661813 0 1863.60996599 0 -9119.60738196 0 555
0.02450000 0.02439640 56420.87265311 0 -582.68723227 0 8994.53266127 0 -7457.87950309 0 -6774.58282646 0 592
0.02550000 0.02547300 56347.92082986 0 2313.94415623 0 16422.70312449 0 -18006.73562550 0 -11654.30667789 0 837
0.02650000 0.02652900 56570.59812084 0 801.05036150 0 22826.83906545 0 -15599.66267796 0 -8326.81552655 0 723
0.02750000 0.02749970 57551.12008411 0 -386.67838515 0 31354.55874252 0 -5378.32539591 0 -176.08142151 0 826
0.02850000 0.02848090 63727.63284777 0 -4304.58471613 0 33725.99882724 0 4574.61886864 0 637.55172442 0 831
0.02950000 0.02946900 67253.15054304 0 -3955.57375159 0 35901.40196321 0 12773.98789721 0 7307.43463371 0 996
0.03050000 0.03053250 71394.99311789 0 -2278.78340074 0 32986.58882215 0 12758.13857967 0 7352.50964314 0 1041
0.03150000 0.03150510 71113.30241057 0 -1634.85148297 0 25095.31478947 0 12901.68168951 0 864.19359291 0 1036
0.03250000 0.03246190 72416.99308235 0 -549.84092677 0 21763.92313233 0 2610.05661843 0 11354.06889687 0 1059
0.03350000 0.03345080 71795.49750344 0 969.42744099 0 24746.51739729 0 3883.01535112 0 -4409.30261834 0 1302
0.03450000 0.03451200 70943.45617803 0 3949.94218557 0 17486.74312268 0 -3009.16716329 0 -1115.62671660 0 1339
0.03550000 0.03553350 64812.91767585 0 4843.84369430 0 16658.41957031 0 -2506.88992603 0 -15617.87253215 0 1365
0.03650000 0.03647120 62995.41685916 0 5685.02655110 0 11956.90499557 0 -1678.24039479 0 -9055.37830368 0 1308
0.03750000 0.03744890 57107.78881928 0 4844.12471057 0 12219.71140966 0 2277.27715354 0 -13142.68124118 0 1579
0.03850000 0.03847530 52861.29578612 0 2908.30480428 0 8839.00701776 0 4796.98142140 0 -14354.53579649 0 1662
0.03950000 0.03950240 49389.50840135 0 1393.22245485 0 6144.27457737 0 3745.13752925 0 -11776.26773832 0 1683
0.04050000 0.04050350 49384.45010852 0 236.68651399 0 4125.45370608 0 6543.03666205 0 -11673.75300366 0 1822
0.04150000 0.04152450 46461.76851196 0 657.11720108 0 4454.23149931 0 -1271.22767247 0 -7064.79394703 0 1887
0.04250000 0.04250150 47201.06611053 0 1641.13500672 0 3129.50957002 0 1972.36326181 0 -10108.15516984 0 1920
0.04350000 0.04349210 43388.46219560 0 2921.35519978 0 5169.42914272 0 -1032.74265437 0 -4995.41262876 0 2005
0.04450000 0.04448520 41031.74736334 0 3694.36350990 0 4737.48465708 0 -725.96281462 0 -2758.19715442 0 2151
0.04550000 0.04548030 38235.86030702 0 2888.42009314 0 9418.84474507 0 -681.03168551 0 395.63043939 0 2274
0.04650000 0.04648670 36614.17162606 0 1848.88471353 0 8724.80200633 0 1407.94770731 0 2126.29273293 0 2311
0.04750000 0.04749250 35180.42662532 0 1380.13833740 0 13181.57389271 0 -190.75946323 0 3904.27142165 0 2568
0.04850000 0.04851840 35676.92616811 0 189.50163441 0 11612.15423765 0 -1018.77951803 0 6673.67550485 0 2493
0.04950000 0.04949480 35651.07267143 0 52.42987961 0 18829.43885250 0 -876.37171392 0 6551.41094685 0 2644
0.05050000 0.05050630 36737.36915807 0 -548.36727746 0 18731.08315860 0 -1385.59005301 0 9642.76974828 0 2829
0.05150000 0.05149060 38171.45137833 0 -548.99675390 0 18885.75451266 0 619.64424374 0 6157.52730458 0 2784
0.05250000 0.05249300 39134.43792645 0 204.00657012 0 22318.42443289 0 -1602.21987389 0 7834.66611560 0 3055
0.05350000 0.05348950 38880.51162644 0 235.58155802 0 15905.07115832 0 3440.90931722 0 5758.91134836 0 3009
0.05450000 0.05448610 38489.33698100 0 -266.71478835 0 19964.29495030 0 4391.77844385 0 9855.42037881 0 3336
0.05550000 0.05550870 39245.38314917 0 -289.72777259 0 12436.65596877 0 6685.37702226 0 3051.74674826 0 3349
0.05650000 0.05647670 38415.37349919 0 1.73710768 0 13383.23116683 0 4265.80447111 0 4716.54332477 0 3324
0.05750000 0.05747970 38091.30553862 0 798.77750192 0 9876.44039568 0 2919.62413957 0 4600.03397994 0 3639
0.05850000 0.05849280 37395.05963234 0 742.79006876 0 10546.58551096 0 797.35780773 0 4531.10630966 0 3846
0.05950000 0.05951020 36816.27852620 0 965.94508740 0 9621.79469402 0 -966.49138302 0 5956.55571016 0 3787
0.06050000 0.06049470 35279.56916477 0 1451.19049067 0 10185.56953143 0 -2279.43535848 0 3149.52916897 0 3930
0.06150000 0.06148310 35287.99965282 0 1181.31370727 0 11081.58428250 0 -1338.06458172 0 2240.61015086 0 4083
0.06250000 0.06249100 32835.96410236 0 1581.55955785 0 11855.51432598 0 -450.21616340 0 -112.27499170 0 4303
0.06350000 0.06350600 32526.28417472 0 1003.58103417 0 13117.05255752 0 -234.96557036 0 965.19870819 0 4470
0.06450000 0.06451750 31084.67071847 0 587.65222770 0 11324.05635942 0 1464.20716422 0 -1190.17134005 0 4479
0.06550000 0.06550280 30782.18480730 0 738.47028668 0 12896.39858367 0 354.96738537 0 1715.39074545 0 4636
0.06650000 0.06648880 31066.68567730 0 722.92334266 0 12313.57084326 0 149.24324382 0 -444.19679494 0 4653
0.06750000 0.06749660 30358.29986823 0 298.17512162 0 14092.17900843 0 407.87937649 0 2166.56798449 0 5220
0.06850000 0.06852730 30452.49652136 0 482.87475004 0 15421.72317689 0 -1117.22064087 0 4009.84361331 0 5029
0.06950000 0.06949320 30132.47519505 0 770.70959705 0 15599.32545844 0 456.99090360 0 4735.59622776 0 5040
0.07050000 0.07048030 30388.42481219 0 284.47951276 0 18167.25211794 0 -319.89093476 0 6023.85348609 0 5475
0.07150000 0.07148790 29802.11247006 0 890.59226116 0 17548.22948218 0 -22.45275021 0 4190.69444293 0 5509
0.07250000 0.07249820 29364.73875012 0 807.49687469 0 19393.60711269 0 287.43018358 0 6038.82603286 0 5916
0.07350000 0.07351270 28504.15453015 0 830.03887567 0 18584.39266656 0 82.39307061 0 5908.14222746 0 5721
0.07450000 0.07449140 28568.00142631 0 34.99956456 0 19003.89375184 0 2131.53087617 0 2719.01224597 0 6028
0.07550000 0.07549160 27856.91786106 0 133.01062010 0 16777.68287457 0 1505.22429874 0 3929.40551668 0 6183
0.07650000 0.07648840 27877.15103238 0 256.92980189 0 14922.30106491 0 1725.79958803 0 18.42219008 0 6330
0.07750000 0.07749960 27499.91479385 0 726.33150796 0 14179.85608413 0 968.04933721 0 -345.77140901 0 6583
0.07850000 0.07848650 26515.12138331 0 570.06622963 0 11717.81635452 0 1208.62848855 0 89.97207936 0 6549
0.07950000 0.07947320 25922.06465074 0 502.50767060 0 11496.82516115 0 1494.09605451 0 -45.14166649 0 6828
0.08050000 0.08048110 25503.12559799 0 -44.20666916 0 9434.46924958 0 1615.71989542 0 -2565.85837976 0 7147
0.08150000 0.08149960 25483.56686572 0 -180.05611560 0 10933.53367172 0 1700.48564258 0 216.43535763 0 7386
0.08250000 0.08250610 25322.82556027 0 245.39801830 0 10029.62798384 0 1564.26019638 0 -355.90035938 0 7227
0.08350000 0.08350160 25306.18939719 0 494.49645883 0 9492.95435534 0 1267.93416181 0 1900.70411340 0 7798
0.08450000 0.08449610 24740.67225891 0 476.39676302 0 10172.09199120 0 634.35263522 0 4322.23253778 0 7371
0.08550000 0.08548940 24278.00707482 0 941.89459109 0 9248.39151738 0 1356.54421152 0 1970.85701462 0 8256
0.08650000 0.08650700 23454.29218926 0 747.61343199 0 9898.78680933 0 1332.92760433 0 3948.54834488 0 8037
0.08750000 0.08749060 22550.65627699 0 453.67153944 0 8548.89706304 0 1029.78411509 0 3451.18327198 0 8155
0.08850000 0.08849210 22373.16640195 0 307.18113098 0 8236.22712231 0 1162.41817339 0 3967.46636006 0 8718
0.08950000 0.08949900 21977.94512225 0 243.19147856 0 7104.70949778 0 1101.85916758 0 2009.36748402 0 8571
0.09050000 0.09049190 21420.07162647 0 145.83058226 0 5579.60048790 0 1146.56885586 0 1791.42250700 0 8932
0.09150000 0.09150830 21392.53203218 0 252.24919492 0 4855.28667674 0 977.79385733 0 495.43730129 0 9285
0.09250000 0.09250820 20902.88928634 0 301.97446156 0 3542.85077870 0 94.86828201 0 463.19461874 0 9204
0.09350000 0.09350330 20094.57409227 0 240.59601231 0 3574.63933896 0 633.75688073 0 -497.99679747 0 9349
0.09450000 0.09448040 20292.40954514 0 284.46827211 0 2930.86479030 0 176.05219581 0 -1162.05847257 0 9564
0.09550000 0.09549270 19855.59785773 0 347.98132094 0 2982.53806171 0 -623.62793036 0 -1722.24754240 0 10155
0.09650000 0.09649430 19742.17969185 0 466.72305900 0 3408.30018945 0 -755.54371108 0 -2065.80679134 0 9913
0.09750000 0.09749140 19040.65067973 0 625.75241335 0 4256.94683833 0 -1330.49962377 0 -1685.05222913 0 10476
0.09850000 0.09850240 18897.33238291 0 848.31842189 0 4832.26582405 0 -994.03434951 0 -1085.73445411 0 10575
0.09950000 0.09950330 18076.20284701 0 522.33842662 0 5708.19353226 0 -544.25657148 0 -425.36533277 0 10882
0.10050000 0.10051200 18278.75937319 0 553.61104102 0 6039.69156297 0 -119.42741776 0 -543.68891862 0 10875
0.10150000 0.10150300 17765.73607382 0 311.42560070 0 6009.11699298 0 828.89907368 0 -257.36481507 0 11118
0.10250000 0.10250800 17351.51809439 0 382.99369984 0 5698.59401654 0 515.97734237 0 -97.73015168 0 11575
0.10350000 0.10349800 17155.59355215 0 261.62164950 0 5708.38462332 0 2.16337564 0 -1681.93856888 0 11364
0.10450000 0.10450100 16826.91692477 0 241.77628064 0 5243.22401477 0 -116.98819655 0 -662.59364612 0 12093
0.10550000 0.10551000 16718.10742570 0 -208.99966717 0 5073.13048791 0 101.59547425 0 -1419.58178082 0 12067
0.10650000 0.10649700 16961.01788799 0 -354.07487770 0 4457.48004737 0 673.58812660 0 -1075.98094147 0 12054
0.10750000 0.10749900 17161.55109703 0 -218.84198095 0 4594.02023180 0 384.99116347 0 -1700.31703282 0 12807
0.10850000 0.10850100 17203.02909823 0 126.17180820 0 4168.48291708 0 770.14419231 0 -941.34717140 0 12736
0.10950000 0.10950300 17010.25193819 0 403.22462302 0 4236.29776294 0 457.46413499 0 -1574.46670724 0 12933
0.11050000 0.11050200 16372.79463524 0 684.36903472 0 4521.47307199 0 -98.25677617 0 -75.24469118 0 13428
0.11150000 0.11150900 16103.91826975 0 619.13279413 0 4049.73668276 0 48.64515251 0 -197.04073886 0 13453
0.11250000 0.11250000 15498.72163440 0 485.47021629 0 4245.77363151 0 267.40496430 0 630.28351966 0 13668
0.11350000 0.11349100 15340.67808512 0 207.81490258 0 4128.94954846 0 219.71650358 0 609.73336199 0 13791
0.11450000 0.11448600 15015.48605947 0 79.22601726 0 4761.23615208 0 470.33130789 0 834.12260408 0 14205
0.11550000 0.11549300 15110.80677767 0 144.22541733 0 4213.88390538 0 602.86757253 0 1064.37609365 0 14776
0.11650000 0.11649800 15025.60264513 0 65.65933868 0 4226.65328461 0 302.46455393 0 737.64634698 0 14553
0.11750000 0.11747300 14777.29667048 0 53.52370733 0 3645.23062555 0 526.00625096 0 1074.49267931 0 14568
0.11850000 0.11849100 14795.95615070 0 297.46696062 0 3775.57721143 0 563.01272129 0 1303.75811568 0 16015
0.11950000 0.11950300 14404.21947272 0 332.02634129 0 3192.71574908 0 80.25307552 0 849.90447771 0 15270
0.12050000 0.12050700 14096.11323618 0 474.94671908 0 3603.46036744 0 279.60219441 0 1373.09044939 0 15999
0.12150000 0.12150000 13752.71135635 0 377.65214261 0 3433.04086170 0 -484.27308699 0 397.13668659 0 15670
0.12250000 0.12250700 13587.24897759 0 127.08454903 0 3528.14800754 0 -125.51647826 0 722.29723841 0 16887
0.12350000 0.12352200 13481.81167374 0 127.34420807 0 3951.24610105 0 -497.43026867 0 44.39225231 0 16407
0.12450000 0.12449800 13582.75271730 0 30.67146440 0 3798.48565762 0 -724.12609229 0 -217.23906416 0 16306
0.12550000 0.12549900 13480.57520216 0 48.63526074 0 4352.36872239 0 -361.85565614 0 -418.60745355 0 17523
0.12650000 0.12650100 13517.33213005 0 145.55743445 0 4289.46604090 0 -275.55218795 0 -1015.64674867 0 17154
0.12750000 0.12750600 13398.51845182 0 54.67418794 0 4356.96614854 0 -8.28174052 0 -1139.32987679 0 18007
0.12850000 0.12850300 13356.47841809 0 228.58537701 0 4563.98521305 0 139.43914825 0 -1381.76823176 0 17496
0.12950000 0.12949900 13041.62779111 0 228.27513504 0 4353.05440208 0 256.00582040 0 -1016.41560918 0 18405
0.13050000 0.13049000 13007.23139987 0 218.94876713 0 4315.91529207 0 563.31397073 0 -767.86796054 0 18100
0.13150000 0.13148800 12847.50175299 0 161.39213913 0 3804.72421878 0 812.67769061 0 -166.99785165 0 19059
0.13250000 0.13249300 12756.34007556 0 182.27052380 0 4077.84955024 0 785.55962073 0 163.96175189 0 18957
0.13350000 0.13349100 12505.89837727 0 242.16183496 0 3461.74948367 0 488.93008859 0 299.21825400 0 19468
0.13450000 0.13450700 12344.14541325 0 250.20452056 0 3562.40951097 0 586.44498181 0 950.03282222 0 19953
0.13550000 0.13551000 12005.46460673 0 290.48426839 0 3155.79021142 0 344.17748473 0 935.64366522 0 19956
0.13650000 0.13649900 11736.02620871 0 210.31819550 0 2953.23368525 0 194.80609749 0 560.76346708 0 19723
0.13750000 0.13749600 11510.53875504 0 297.63107412 0 2917.22988096 0 -62.40977896 0 255.22234704 0 20946
0.13850000 0.13851100 11281.11707362 0 393.89038666 0 3346.43164782 0 -457.21684068 0 493.09587375 0 20955
0.13950000 0.13949800 11043.87189929 0 390.23605110 0 3670.35347994 0 -698.18604259 0 223.30451929 0 20506
0.14050000 0.14048300 10793.02553758 0 170.18457613 0 4131.25388186 0 -605.80250643 0 754.86927203 0 21447
0.14150000 0.14148400 10895.50655030 0 -112.75159529 0 4440.03455744 0 -2.71215545 0 930.96867858 0 21771
0.14250000 0.14249400 11178.70350481 0 -245.40588676 0 5037.27281208 0 216.00596477 0 1175.46856889 0 22470
0.14350000 0.14350900 11550.66787815 0 -173.93558128 0 4796.34070431 0 428.55655351 0 1362.36686860 0 22519
0.14450000 0.14449900 11469.96000590 0 0.99637465 0 5013.88101791 0 386.83463019 0 1335.81645157 0 22218
0.14550000 0.14550500 11497.04997417 0 76.69642122 0 4442.56370385 0 405.47837349 0 1761.14019393 0 23559
0.14650000 0.14650700 11353.73167734 0 157.98397383 0 4115.64061799 0 573.70595233 0 1561.28142393 0 23044
0.14750000 0.14750500 11154.40121793 0 112.75271935 0 3732.18829961 0 325.20776256 0 1402.68708277 0 23649
0.14850000 0.14849900 11108.29206863 0 96.39127777 0 3376.46666658 0 123.18629136 0 791.13161129 0 23640
0.14950000 0.14949500 10891.32502822 0 90.83648540 0 3376.21937226 0 135.68477091 0 645.26168676 0 24457
0.15050000 0.15050000 10869.67553492 0 147.83366622 0 2890.20735660 0 -40.84841235 0 361.03846083 0 24591
0.15150000 0.15149900 10758.21324227 0 120.56384755 0 3097.26014307 0 -32.46547225 0 -5.23083682 0 25020
0.15250000 0.15250500 10674.92002035 0 189.05313245 0 2808.03819976 0 -104.14271811 0 -178.06314823 0 25297
0.15350000 0.15350100 10507.13082689 0 122.70181931 0 3196.27903536 0 161.14147262 0 -212.73718354 0 25452
0.15450000 0.15450400 10410.27013954 0 156.94758583 0 2628.13158481 0 284.41881325 0 -280.65656745 0 26061
0.15550000 0.15549900 10229.75652945 0 48.00735799 0 2496.28999239 0 561.00738920 0 -191.14501755 0 26128
0.15650000 0.15649500 10243.48136399 0 96.90194054 0 2232.03353435 0 381.01309718 0 -230.64129202 0 26331
0.15750000 0.15749700 10053.23335037 0 131.63139226 0 1994.90076653 0 335.31647976 0 -437.05673359 0 27345
0.15850000 0.15849900 9871.02240202 0 249.98982413 0 2115.83892775 0 -75.78716498 0 57.55336821 0 26980
0.15950000 0.15949700 9676.95256715 0 329.35443861 0 2230.42612130 0 -346.64255944 0 -355.19444651 0 27777
0.16050000 0.16050000 9456.19742745 0 369.97815036 0 2576.96414268 0 -303.27612892 0 343.77169724 0 28224
0.16150000 0.16150500 9249.52682311 0 179.74362551 0 2813.62480317 0 -187.12423678 0 147.67067678 0 28075
0.16250000 0.16249700 9221.88606296 0 141.06791854 0 2872.64946016 0 140.07199689 0 211.98293588 0 28590
0.16350000 0.16349900 9179.92471378 0 19.78444454 0 3098.66522441 0 174.29078584 0 559.45505534 0 29163
0.16450000 0.16449100 9178.44094788 0 68.66115445 0 3125.33928859 0 94.28612871 0 530.71833174 0 28996
0.16550000 0.16550500 9106.99537184 0 53.86958216 0 3106.27514495 0 87.81938234 0 582.91991374 0 30777
0.16650000 0.16650700 9001.44566147 0 115.69889391 0 3056.79380044 0 -96.40611543 0 653.80458131 0 29211
0.16750000 0.16749900 9090.58402177 0 81.07150730 0 3265.46524061 0 218.96787624 0 832.91985445 0 30922
0.16850000 0.16850800 8911.13827350 0 78.97018005 0 3098.76639027 0 83.28681475 0 778.61964296 0 30867
0.16950000 0.16949900 8897.99795280 0 59.22159319 0 3175.80981038 0 78.31597418 0 843.38602435 0 30852
0.17050000 0.17049200 8859.20646712 0 9.41165073 0 2966.10423034 0 129.70137252 0 270.23198796 0 31257
0.17150000 0.17149500 8833.31924849 0 64.92521178 0 2851.29222377 0 176.78283811 0 375.37253864 0 32608
0.17250000 0.17250900 8820.53862861 0 131.81011860 0 2570.20851159 0 4.42682679 0 412.28795971 0 32361
0.17350000 0.17350400 8705.94019441 0 87.29242063 0 2407.12915079 0 212.62927329 0 100.48804534 0 32508
0.17450000 0.17449800 8632.13408171 0 124.46098115 0 2424.33858706 0 206.32102010 0 164.86212801 0 32791
0.17550000 0.17549800 8553.96659652 0 110.75244555 0 2050.89044782 0 229.32613589 0 -86.85583376 0 33633
0.17650000 0.17650100 8490.23210688 0 116.46438222 0 2218.37614371 0 116.28790401 0 396.58926690 0 33984
0.17750000 0.17750300 8355.81640544 0 158.42235921 0 2222.41153733 0 -34.28915543 0 115.04131584 0 34069
