### header ###
fiducial parameters:
Omega_m = 0.31
Omega_nu = 0
Omega_de = 0.69
Omega_k = 0
H_0 = 100
w_de = -1
zeff = 0
beta = 0
fgrowth = 0
b_1 = 2
gamma = 0.55
Lx = 3500 Ly = 3500 Lz = 3500
nx = 700 ny = 700 nz = 700
xoffset = 857.220397 yoffset = 15.9954215 zoffset = 262.898189
bins = 400 dk = 0.001
kx_ny = 0.628318531 ky_ny = 0.628318531 kz_ny = 0.628318531
############################
A(data) = 3.06546673 (not used)
A(ran) = 3.06907282 (used)
Ngal = 187210
weighted Ngal = 0
Nran = 9360983
weighted Nran = 0
SN(data) = 3440.26497
SN(ran) = 68.9198415
SN(data+ran) = 3509.18481
############################
13 columns: k_central k_mean P_0(k) sigma^{lin}_{P_0(k)} P^img_1(k) sigma^{lin}_{P_1(k)} P_2(k) sigma^{lin}_{P_2(k)} P^img_3(k) sigma^{lin}_{P_3(k)} P_4(k) sigma^{lin}_{P_4(k)} N_modes
### header ###
0.00050000 0 0 0 0 0 0 0 0 0 0 0 0
0.00150000 0.00179520 3998.85025690 0 -8983.21332599 0 -12091.79280434 0 21993.90684629 0 11245.70902382 0 3
0.00250000 0.00253879 13041.06575857 0 -17262.37973409 0 -16936.28845638 0 2445.57217629 0 6551.04000537 0 6
0.00350000 0.00331552 22510.63956039 0 -20834.09650386 0 -19374.83522597 0 -14319.80218573 0 -10470.71111852 0 7
0.00450000 0.00420575 38020.26462600 0 -22387.32962187 0 -30694.17051207 0 -8587.10403488 0 -9621.98578508 0 24
0.00550000 0.00557378 52066.13215341 0 -15699.92928248 0 -38603.42958592 0 -9600.21264461 0 5600.94648364 0 45
0.00650000 0.00659388 60397.81488173 0 -7596.36432010 0 -50767.72458748 0 -14136.01754628 0 -13044.10073427 0 40
0.00750000 0.00754703 59071.86772150 0 -8121.70737266 0 -48691.35158445 0 -11923.85748242 0 11035.94724053 0 57
0.00850000 0.00846663 65552.77730696 0 -9946.12118956 0 -63191.56621441 0 -1035.90015316 0 -3409.37929192 0 75
0.00950000 0.00948925 70667.72301560 0 -8764.54894732 0 -72539.06654929 0 1579.72733178 0 22059.66465306 0 112
0.01050000 0.01054430 68942.28312839 0 -5763.28396149 0 -66357.60789930 0 -14095.88842317 0 13006.78177384 0 105
0.01150000 0.01145670 74181.43802760 0 -234.06856643 0 -64402.40911116 0 -9868.47077431 0 18691.51606803 0 144
0.01250000 0.01249090 68590.11354099 0 3671.84848648 0 -59191.80546480 0 -13972.57848465 0 26379.22191597 0 169
0.01350000 0.01339930 64033.15373464 0 7127.59546266 0 -45896.92581272 0 -13750.46322621 0 47820.53837232 0 180
0.01450000 0.01448870 58951.70516519 0 160.87731733 0 -28271.02343399 0 -3885.83675445 0 35357.69168735 0 267
0.01550000 0.01550050 65061.11124399 0 -3257.72043225 0 -33146.09365602 0 -2720.29368015 0 19392.70786063 0 238
0.01650000 0.01653350 65460.82878399 0 -3750.67917006 0 -3940.78105522 0 -10358.20344535 0 29885.06847246 0 315
0.01750000 0.01747870 71550.33891099 0 -2888.51001834 0 -13098.39307730 0 -16167.87757241 0 22598.65385561 0 297
0.01850000 0.01844180 72886.73987640 0 -64.29135148 0 22378.89913382 0 -5070.00558701 0 39137.02327612 0 388
0.01950000 0.01947590 76133.03980751 0 2172.50304808 0 19622.12954205 0 -17070.72663913 0 13000.48700944 0 399
0.02050000 0.02045430 76107.41112384 0 3970.33272599 0 32110.60491069 0 -2790.23300900 0 20089.96542547 0 462
0.02150000 0.02154770 70947.16559277 0 5632.49899024 0 32175.46346540 0 4509.71535132 0 13684.93023245 0 571
0.02250000 0.02255340 68208.71826168 0 5684.19474295 0 37654.15663169 0 6130.95440625 0 16176.53287348 0 510
0.02350000 0.02348930 60957.03725560 0 3937.30769415 0 31566.33260229 0 20623.33430266 0 13159.09259125 0 555
0.02450000 0.02439640 56903.88341502 0 2593.60030576 0 19239.16057164 0 15619.78344277 0 3106.52243927 0 592
0.02550000 0.02547300 53543.94050502 0 317.71586885 0 13483.49777135 0 12208.35835242 0 11067.56719104 0 837
0.02650000 0.02652900 55233.18549687 0 -1856.07873000 0 3542.23254291 0 6789.10574720 0 260.85840932 0 723
0.02750000 0.02749970 56619.38254502 0 -1457.96860306 0 784.95262559 0 -6048.35810468 0 2871.00832515 0 826
0.02850000 0.02848090 59588.71284212 0 -1349.65369262 0 754.98505074 0 -12440.02816399 0 -8513.44405064 0 831
0.02950000 0.02946900 59967.63517826 0 -223.10106351 0 10227.93554403 0 -14696.58879823 0 -3598.97534780 0 996
0.03050000 0.03053250 60029.23394426 0 2738.55973759 0 12611.44808764 0 -9135.44545884 0 -9115.80804201 0 1041
0.03150000 0.03150510 58200.82969636 0 4588.89449507 0 15169.25816147 0 -1412.32032044 0 -11305.50928571 0 1036
0.03250000 0.03246190 54713.75502659 0 4140.42625286 0 17007.55418202 0 3405.70359913 0 -7748.64141555 0 1059
0.03350000 0.03345080 50812.46237739 0 3849.07982656 0 13077.03584091 0 10054.21128699 0 -13494.51360906 0 1302
0.03450000 0.03451200 46680.73638820 0 1641.89937097 0 13668.51888238 0 6494.80302976 0 -6424.74005376 0 1339
0.03550000 0.03553350 45330.95904842 0 1015.79962152 0 11881.14300964 0 3616.43207838 0 -6505.74018293 0 1365
0.03650000 0.03647120 43840.22394848 0 1386.74784003 0 8684.07712873 0 1939.24830476 0 -4595.58268226 0 1308
0.03750000 0.03744890 43657.00134156 0 385.49024836 0 12160.58558682 0 -2180.71996376 0 500.62148941 0 1579
0.03850000 0.03847530 42830.81351283 0 1159.81034242 0 10483.42429450 0 -4277.73080154 0 -2147.35771239 0 1662
0.03950000 0.03950240 44008.49648992 0 373.32674021 0 16920.32673235 0 -1420.35738572 0 2256.48194969 0 1683
0.04050000 0.04050350 44286.81500202 0 -189.73656401 0 15987.80234770 0 -667.19556853 0 232.81523388 0 1822
0.04150000 0.04152450 45893.10399148 0 -101.32479938 0 18124.53764516 0 2235.00106614 0 6899.38777152 0 1887
0.04250000 0.04250150 45652.66647234 0 -244.29980673 0 17682.66766492 0 4553.61009243 0 2629.52542550 0 1920
0.04350000 0.04349210 45062.41990246 0 -1148.18750957 0 13037.35634383 0 4915.60400857 0 6701.05773003 0 2005
0.04450000 0.04448520 48387.96642122 0 -747.57971004 0 15735.44973879 0 2478.11386015 0 855.59112291 0 2151
0.04550000 0.04548030 49224.60805513 0 -1617.92306297 0 12787.58908459 0 -40.24220406 0 6153.00856299 0 2274
0.04650000 0.04648670 50188.94348134 0 -28.17559031 0 16257.57796525 0 -3413.26855707 0 1459.57601612 0 2311
0.04750000 0.04749250 49672.88520628 0 694.64298948 0 16720.01833632 0 -843.93119591 0 2844.24433576 0 2568
0.04850000 0.04851840 48654.03262402 0 1615.12414093 0 19006.47910151 0 -913.10728457 0 3379.80513984 0 2493
0.04950000 0.04949480 46518.19657863 0 2449.21414712 0 17482.58408191 0 2463.28744184 0 1671.11382222 0 2644
0.05050000 0.05050630 45155.49249051 0 2094.14447183 0 20508.67966520 0 3635.76599764 0 432.12883231 0 2829
0.05150000 0.05149060 41853.21411876 0 2457.04888068 0 14317.77886860 0 2087.02913992 0 -1355.56627490 0 2784
0.05250000 0.05249300 39563.94319088 0 2849.43751640 0 17841.94768578 0 1018.34787704 0 2617.14946905 0 3055
0.05350000 0.05348950 36968.81415662 0 1123.22539649 0 12439.69094447 0 2068.66191663 0 0.33042455 0 3009
0.05450000 0.05448610 36590.22904000 0 -341.26728026 0 12689.68301672 0 2339.83137486 0 2320.74474992 0 3336
0.05550000 0.05550870 37530.39706714 0 -499.02531701 0 10505.08502846 0 4038.43982877 0 432.35252126 0 3349
0.05650000 0.05647670 37126.52048638 0 290.28868106 0 10071.13970699 0 1281.76016220 0 -1736.77046314 0 3324
0.05750000 0.05747970 35468.63691006 0 1697.76540511 0 8515.88327185 0 254.91210508 0 2334.50330642 0 3639
0.05850000 0.05849280 34236.77399645 0 2211.37321831 0 10067.21671988 0 1044.94213260 0 1738.54648596 0 3846
0.05950000 0.05951020 32469.74370154 0 1870.14078407 0 8538.48822047 0 552.33972342 0 5962.96288108 0 3787
0.06050000 0.06049470 31109.84977611 0 1000.70117946 0 8380.79313136 0 1550.15317971 0 1515.52073481 0 3930
0.06150000 0.06148310 30404.61134924 0 361.75561435 0 8605.44877687 0 39.48683233 0 3674.35515160 0 4083
0.06250000 0.06249100 30560.29436187 0 96.25459146 0 6902.13049030 0 -2000.41992604 0 -174.10868730 0 4303
0.06350000 0.06350600 31121.42764636 0 203.11069025 0 10051.71586252 0 -1889.73323829 0 1783.20559131 0 4470
0.06450000 0.06451750 30971.47736561 0 -644.83679016 0 9016.05850742 0 -2429.79030266 0 -377.48353285 0 4479
0.06550000 0.06550280 32351.71686887 0 -441.80478446 0 11472.09572954 0 -1166.08262553 0 -986.73467092 0 4636
0.06650000 0.06648880 32812.35873582 0 -636.17699284 0 11994.78598853 0 -265.75820897 0 -415.99512632 0 4653
0.06750000 0.06749660 33557.95109881 0 223.40231295 0 13811.27514666 0 -132.77231830 0 -327.80997320 0 5220
0.06850000 0.06852730 33202.63412920 0 273.78515766 0 12629.88275483 0 1103.27548957 0 -53.62195062 0 5029
0.06950000 0.06949320 31777.99405556 0 836.10657893 0 12811.53167065 0 2033.22014487 0 -2667.75487864 0 5040
0.07050000 0.07048030 31483.60141291 0 827.49511641 0 11125.14180408 0 675.65415820 0 -1935.41524286 0 5475
0.07150000 0.07148790 30030.52249292 0 1179.93110723 0 9427.56749003 0 1513.82339655 0 -4394.93706671 0 5509
0.07250000 0.07249820 28833.50559657 0 1205.58227220 0 6665.37990461 0 1112.05556186 0 -3948.24484731 0 5916
0.07350000 0.07351270 26796.36246460 0 1474.23382467 0 4532.09548693 0 626.92368915 0 -7234.95491780 0 5721
0.07450000 0.07449140 25925.77406548 0 1309.56953211 0 4914.72723781 0 87.16652535 0 -6653.00394815 0 6028
0.07550000 0.07549160 24178.07768983 0 1104.77724051 0 3405.63615522 0 810.41944388 0 -6729.77759264 0 6183
0.07650000 0.07648840 23725.41668489 0 499.53002222 0 4441.46212008 0 16.24914748 0 -5938.35709663 0 6330
0.07750000 0.07749960 23656.73630892 0 -41.95943827 0 4805.50183466 0 651.51823295 0 -4664.83633141 0 6583
0.07850000 0.07848650 23588.16833946 0 63.50416871 0 6420.00773980 0 404.10139378 0 -3633.48414554 0 6549
0.07950000 0.07947320 23757.90216550 0 481.72483147 0 7302.64611650 0 21.48886441 0 -1186.64177572 0 6828
0.08050000 0.08048110 23496.10740998 0 636.56704342 0 7949.83782299 0 -320.50579836 0 196.06505038 0 7147
0.08150000 0.08149960 23399.43781369 0 315.72739773 0 9390.28225156 0 1244.31755462 0 2640.96840794 0 7386
0.08250000 0.08250610 23092.45564223 0 122.55793899 0 7940.03597555 0 2252.61516584 0 1923.93853847 0 7227
0.08350000 0.08350160 23179.00865285 0 -21.37241127 0 7484.36247622 0 2087.87218873 0 3649.67068259 0 7798
0.08450000 0.08449610 22526.82609744 0 99.49111203 0 6560.11121051 0 1715.33454220 0 3825.06979660 0 7371
0.08550000 0.08548940 22561.22248868 0 440.86619012 0 6239.55033296 0 292.15013282 0 2409.27611508 0 8256
0.08650000 0.08650700 22001.55048878 0 340.35229129 0 5392.63474429 0 -545.49978745 0 3732.85149800 0 8037
0.08750000 0.08749060 22274.02386250 0 292.64472146 0 6573.12788406 0 -1046.51132745 0 3434.68199671 0 8155
0.08850000 0.08849210 21810.00980033 0 -80.02444068 0 6577.82647606 0 -144.93470240 0 2878.79809611 0 8718
0.08950000 0.08949900 22147.45413527 0 -45.23271576 0 6545.72317758 0 2.01110978 0 1474.89702306 0 8571
0.09050000 0.09049190 21939.95172278 0 351.33553112 0 5907.69260143 0 156.47660257 0 371.88568878 0 8932
0.09150000 0.09150830 21819.67675996 0 447.22277811 0 6212.14562648 0 414.08533976 0 203.12867529 0 9285
0.09250000 0.09250820 21026.19922486 0 604.10516817 0 4746.83687849 0 599.11431925 0 -693.05131334 0 9204
0.09350000 0.09350330 20418.08002031 0 788.40575349 0 4069.99233538 0 409.77005394 0 -287.70782765 0 9349
0.09450000 0.09448040 19678.89482824 0 522.73409753 0 4269.43520130 0 483.25131184 0 -568.91968325 0 9564
0.09550000 0.09549270 19344.82268851 0 589.76547003 0 4681.27016278 0 -124.86114832 0 1081.86991839 0 10155
0.09650000 0.09649430 19137.76990205 0 489.19874014 0 5124.80375932 0 229.32501182 0 845.81850116 0 9913
0.09750000 0.09749140 18640.59592022 0 413.62784527 0 6434.84539876 0 -640.27083783 0 3215.15208793 0 10476
0.09850000 0.09850240 18692.07810057 0 368.18301843 0 6249.25101455 0 -446.22123613 0 3071.29423988 0 10575
0.09950000 0.09950330 18248.40961621 0 276.21763448 0 8474.63008366 0 39.93702039 0 4406.50369631 0 10882
0.10050000 0.10051200 18223.68018460 0 330.39644694 0 7353.07167568 0 544.53871182 0 4417.44084947 0 10875
0.10150000 0.10150300 18003.58824329 0 162.73090063 0 7908.13500877 0 1416.60300837 0 5165.04528894 0 11118
0.10250000 0.10250800 17816.88103465 0 210.21590558 0 7215.12640991 0 1514.85753641 0 4349.01900847 0 11575
0.10350000 0.10349800 17400.86455110 0 300.08715630 0 6518.03745482 0 1363.46845237 0 4570.41486527 0 11364
0.10450000 0.10450100 16984.73566103 0 353.83432778 0 6352.41770695 0 603.72186198 0 4399.27595789 0 12093
0.10550000 0.10551000 16810.16835518 0 322.98211371 0 6130.57222413 0 143.48465845 0 4467.54042978 0 12067
0.10650000 0.10649700 16503.86062276 0 480.76375583 0 6989.39166193 0 -713.20917230 0 4820.29453102 0 12054
0.10750000 0.10749900 16108.18971703 0 442.41739993 0 6863.18163552 0 -1091.74258192 0 3558.10434174 0 12807
0.10850000 0.10850100 15954.97964757 0 385.63750089 0 7489.99404223 0 -767.91292314 0 3224.04344266 0 12736
0.10950000 0.10950300 15580.44116521 0 314.70562258 0 7151.41440156 0 -557.60147203 0 2134.00381933 0 12933
0.11050000 0.11050200 15592.46866149 0 -75.00953677 0 6484.41666849 0 441.87560056 0 1252.07360362 0 13428
0.11150000 0.11150900 15472.98054422 0 -292.46374698 0 5723.23352294 0 696.63708092 0 -150.32459442 0 13453
0.11250000 0.11250000 15630.34965446 0 -144.73237068 0 5396.83874766 0 495.87006635 0 -1263.24681045 0 13668
0.11350000 0.11349100 15522.10218792 0 -66.31073439 0 4475.99339913 0 173.53541412 0 -2383.40013709 0 13791
0.11450000 0.11448600 15494.33778061 0 190.34917948 0 4624.14517576 0 -526.59413699 0 -3446.08001655 0 14205
0.11550000 0.11549300 15425.54499814 0 400.63028083 0 4520.09047195 0 -674.49974337 0 -2813.14145519 0 14776
0.11650000 0.11649800 15150.26146174 0 316.22535856 0 4965.56870107 0 -202.85440342 0 -2750.64343713 0 14553
0.11750000 0.11747300 14898.13366584 0 223.94973264 0 5253.09330611 0 488.74574191 0 -2305.49118688 0 14568
0.11850000 0.11849100 14735.14423024 0 85.52359183 0 5219.66361084 0 1146.11922983 0 -1114.04178484 0 16015
0.11950000 0.11950300 14518.53689066 0 236.82027773 0 4729.49255441 0 908.79199875 0 -1251.69142150 0 15270
0.12050000 0.12050700 14539.78172054 0 125.14890898 0 4890.76217045 0 900.09173509 0 65.03222277 0 15999
0.12150000 0.12150000 14459.07384829 0 178.04066693 0 5067.45395929 0 30.21722970 0 608.59468407 0 15670
0.12250000 0.12250700 14468.06636887 0 80.14572731 0 5446.43249869 0 -159.40366802 0 1974.85868628 0 16887
0.12350000 0.12352200 14601.71770606 0 105.32658345 0 6215.96744773 0 -451.09181009 0 2538.38622937 0 16407
0.12450000 0.12449800 14615.31889345 0 215.51025207 0 6373.69625879 0 -303.12550420 0 2340.66318302 0 16306
0.12550000 0.12549900 14545.51445241 0 448.83581149 0 6530.79559340 0 -300.79306917 0 2309.34673008 0 17523
0.12650000 0.12650100 13783.96036539 0 512.16226552 0 7147.36776730 0 282.60344816 0 2202.71791725 0 17154
0.12750000 0.12750600 13627.15328769 0 444.41711169 0 6182.09936708 0 429.57158427 0 2145.34563591 0 18007
0.12850000 0.12850300 13025.44125406 0 247.81138602 0 6353.35068096 0 817.16720652 0 1708.11804443 0 17496
0.12950000 0.12949900 12821.08622377 0 206.03213538 0 4881.52235555 0 930.50781190 0 1305.87135802 0 18405
0.13050000 0.13049000 12637.18917781 0 -47.09540399 0 4740.22737586 0 1102.51674565 0 1115.61097968 0 18100
0.13150000 0.13148800 12509.49538551 0 21.78438112 0 3935.22817376 0 546.95095546 0 1273.44208066 0 19059
0.13250000 0.13249300 12694.29168352 0 19.50129255 0 3763.56095580 0 319.99097655 0 496.02406326 0 18957
0.13350000 0.13349100 12488.92499467 0 161.28198075 0 3902.78765575 0 -300.98078804 0 873.53007741 0 19468
0.13450000 0.13450700 12341.67247009 0 373.25817224 0 3641.99331814 0 -498.48464171 0 666.71671681 0 19953
0.13550000 0.13551000 12084.71119438 0 292.72228195 0 4153.65649877 0 -280.61385298 0 936.54966167 0 19956
0.13650000 0.13649900 11807.06712133 0 169.47753920 0 4126.62273376 0 34.22969239 0 746.58491245 0 19723
0.13750000 0.13749600 11789.30689317 0 -3.62254699 0 3507.00434351 0 485.64781857 0 -297.99302307 0 20946
0.13850000 0.13851100 11607.32075784 0 -87.73271692 0 3197.56046954 0 548.00308037 0 -539.93454128 0 20955
0.13950000 0.13949800 11683.41996328 0 -3.65945005 0 2300.48909730 0 416.18846551 0 -1138.23953367 0 20506
0.14050000 0.14048300 11564.83109807 0 171.41879958 0 2307.41333815 0 -19.07763242 0 -1374.95639741 0 21447
0.14150000 0.14148400 11331.13796938 0 258.53384275 0 2021.21512989 0 -249.39519370 0 -1573.73606494 0 21771
0.14250000 0.14249400 11121.96069992 0 247.25609787 0 2284.84211149 0 27.97528191 0 -1185.52895130 0 22470
0.14350000 0.14350900 11012.65661221 0 217.48973067 0 2483.95899853 0 66.15977245 0 -1200.62514523 0 22519
0.14450000 0.14449900 10865.57269740 0 202.01472681 0 2673.28527880 0 26.00591991 0 -755.19412684 0 22218
0.14550000 0.14550500 10827.52309468 0 74.84519845 0 3252.10010689 0 145.13478598 0 -180.35399285 0 23559
0.14650000 0.14650700 10849.73462052 0 166.44930789 0 3548.87576749 0 -28.16210153 0 327.90327060 0 23044
0.14750000 0.14750500 10841.39405768 0 192.38148913 0 3860.47784640 0 -143.49927130 0 1350.17076255 0 23649
0.14850000 0.14849900 10645.19973982 0 157.01615380 0 3865.76095224 0 238.23997192 0 1267.85547725 0 23640
0.14950000 0.14949500 10583.84826813 0 186.02152895 0 3805.23004806 0 276.56609465 0 1344.79773150 0 24457
0.15050000 0.15050000 10429.23311732 0 260.60549468 0 3682.60578923 0 203.34674392 0 1075.44363836 0 24591
0.15150000 0.15149900 10140.15730247 0 292.12652746 0 3538.41072166 0 102.96042647 0 875.25102104 0 25020
0.15250000 0.15250500 9800.82453821 0 192.03190489 0 3191.20950188 0 236.20653820 0 642.01426276 0 25297
0.15350000 0.15350100 9754.29948483 0 111.08741695 0 2728.46563323 0 -102.18167419 0 222.67167066 0 25452
0.15450000 0.15450400 9653.41464452 0 20.62738094 0 3070.06900895 0 70.82261918 0 48.29388217 0 26061
0.15550000 0.15549900 9687.01294956 0 -18.32046219 0 2843.86215364 0 -177.10994105 0 -443.22110645 0 26128
0.15650000 0.15649500 9726.36646777 0 41.76351373 0 2953.02011289 0 -39.06058685 0 -281.99757708 0 26331
0.15750000 0.15749700 9645.91713048 0 152.14557984 0 3078.28592463 0 -94.93471425 0 -754.29824698 0 27345
0.15850000 0.15849900 9583.32918721 0 99.18379264 0 2874.95379356 0 218.36987362 0 -462.06493334 0 26980
0.15950000 0.15949700 9397.46502738 0 170.77808249 0 2772.66387191 0 211.51869700 0 -731.57864372 0 27777
0.16050000 0.16050000 9280.09015244 0 170.68815729 0 2520.51359471 0 304.81834620 0 -609.72774167 0 28224
0.16150000 0.16150500 9043.10351308 0 198.13895044 0 2099.80975980 0 301.80135554 0 -784.38384866 0 28075
0.16250000 0.16249700 8841.65981133 0 236.61232569 0 2140.57960000 0 214.03323057 0 -523.13201656 0 28590
0.16350000 0.16349900 8654.91888074 0 163.43006911 0 1901.51344026 0 308.09162369 0 -483.35360176 0 29163
0.16450000 0.16449100 8527.64099251 0 113.15288652 0 1832.61949193 0 121.67554790 0 -290.64163750 0 28996
0.16550000 0.16550500 8472.47187872 0 -7.54146498 0 1745.59437397 0 239.50454513 0 -5.02199677 0 30777
0.16650000 0.16650700 8532.82293250 0 -59.82499132 0 1669.11298639 0 262.86823767 0 -148.31251794 0 29211
0.16750000 0.16749900 8465.76121024 0 9.00096231 0 1898.07380113 0 72.88527859 0 278.16114299 0 30922
0.16850000 0.16850800 8595.45583837 0 41.53116948 0 1654.11795832 0 200.73554075 0 159.59700721 0 30867
0.16950000 0.16949900 8510.39783429 0 133.46699052 0 1899.46764182 0 -46.34036948 0 656.76312058 0 30852
0.17050000 0.17049200 8375.82476374 0 168.64460698 0 1796.53700308 0 165.30950591 0 363.98913165 0 31257
0.17150000 0.17149500 8208.83365648 0 85.73075703 0 1627.54505999 0 85.65859205 0 609.92782525 0 32608
0.17250000 0.17250900 8238.49773376 0 108.52297489 0 1747.73009761 0 267.36000170 0 673.43188155 0 32361
0.17350000 0.17350400 8177.94434827 0 139.63023932 0 1692.81951879 0 -167.58573768 0 600.72847669 0 32508
0.17450000 0.17449800 7997.18344387 0 119.17113092 0 1910.84318036 0 -31.73865178 0 624.00224403 0 32791
0.17550000 0.17549800 7952.23208159 0 124.68579417 0 1873.59166384 0 -167.70938484 0 776.92118064 0 33633
0.17650000 0.17650100 7900.46888498 0 60.48717806 0 1752.09147009 0 196.95081365 0 639.19735569 0 33984
0.17750000 0.17750300 7853.60661208 0 94.35278576 0 1558.21272628 0 49.67547056 0 635.44410241 0 34069
