### header ###
fiducial parameters:
Omega_m = 0.31
Omega_nu = 0
Omega_de = 0.69
Omega_k = 0
H_0 = 100
w_de = -1
zeff = 0
beta = 0
fgrowth = 0
b_1 = 2
gamma = 0.55
Lx = 3500 Ly = 3500 Lz = 3500
nx = 700 ny = 700 nz = 700
xoffset = 857.220397 yoffset = 15.9954215 zoffset = 262.898189
bins = 400 dk = 0.001
kx_ny = 0.628318531 ky_ny = 0.628318531 kz_ny = 0.628318531
############################
A(data) = 3.06868573 (not used)
A(ran) = 3.06692901 (used)
Ngal = 187650
weighted Ngal = 0
Nran = 9360983
weighted Nran = 0
SN(data) = 3447.39912
SN(ran) = 68.8716995
SN(data+ran) = 3516.27082
############################
13 columns: k_central k_mean P_0(k) sigma^{lin}_{P_0(k)} P^img_1(k) sigma^{lin}_{P_1(k)} P_2(k) sigma^{lin}_{P_2(k)} P^img_3(k) sigma^{lin}_{P_3(k)} P_4(k) sigma^{lin}_{P_4(k)} N_modes
### header ###
0.00050000 0 0 0 0 0 0 0 0 0 0 0 0
0.00150000 0.00179520 14507.85827246 0 -32043.38581931 0 -35396.92155840 0 47499.28057443 0 25468.72920676 0 3
0.00250000 0.00253879 24334.32273499 0 -27480.80568761 0 -7880.31439821 0 -43677.45932589 0 -50150.83767536 0 6
0.00350000 0.00331552 42933.77787353 0 -24944.12803714 0 -35054.19411761 0 14036.08816128 0 33303.12554674 0 7
0.00450000 0.00420575 53208.40708070 0 -14869.02038045 0 -24307.12036022 0 -25595.97337303 0 11920.59769371 0 24
0.00550000 0.00557378 58196.78306210 0 4047.26373960 0 -31175.04555035 0 -30929.10011235 0 26080.67023255 0 45
0.00650000 0.00659388 51032.32950569 0 1775.86544639 0 -11407.01236181 0 12951.59017876 0 38165.15661392 0 40
0.00750000 0.00754703 51919.89128740 0 -5302.93435146 0 -31376.81523097 0 16911.10939875 0 29181.96576923 0 57
0.00850000 0.00846663 62325.47407559 0 -20438.53800464 0 -22125.19764682 0 17828.68371792 0 38564.08730836 0 75
0.00950000 0.00948925 76617.84907354 0 -20211.25204686 0 -33352.47200345 0 23021.52713611 0 39112.96828356 0 112
0.01050000 0.01054430 82775.47754397 0 -6830.53878580 0 -29436.11688226 0 4886.13102235 0 20997.19834597 0 105
0.01150000 0.01145670 89061.02461973 0 -510.97637686 0 -39199.63370069 0 1224.62393454 0 44106.17774477 0 144
0.01250000 0.01249090 77726.73926815 0 6783.09199906 0 -22551.66793556 0 -3473.68705475 0 31768.10228291 0 169
0.01350000 0.01339930 77279.24896255 0 8479.38487892 0 -35217.18355321 0 -9723.24156686 0 15823.35162751 0 180
0.01450000 0.01448870 68461.85771615 0 3224.94269472 0 -27046.24213035 0 -8177.86566372 0 22609.55728682 0 267
0.01550000 0.01550050 65536.14114388 0 4008.91063930 0 -26860.20936075 0 -15909.11779259 0 654.30029401 0 238
0.01650000 0.01653350 64153.31629096 0 2471.54932013 0 -17573.07132029 0 -18830.90013709 0 947.31370881 0 315
0.01750000 0.01747870 65775.79181747 0 -722.58612314 0 -18882.94434998 0 -6629.90441090 0 -9242.51265705 0 297
0.01850000 0.01844180 64981.19021729 0 650.02659860 0 -11455.68437947 0 -8209.94648090 0 -10902.79049197 0 388
0.01950000 0.01947590 65345.61211399 0 -4221.61747309 0 -14963.32944008 0 -1382.81361228 0 -16370.20928557 0 399
0.02050000 0.02045430 68000.76622316 0 -5422.56859719 0 -9596.96409655 0 2344.73229858 0 -15207.36396745 0 462
0.02150000 0.02154770 73771.15427591 0 -2159.20535827 0 -15804.13011476 0 -5880.05184129 0 -25124.09085535 0 571
0.02250000 0.02255340 74473.80735311 0 1141.90398581 0 -14516.17635400 0 -10459.09952632 0 -19611.22611084 0 510
0.02350000 0.02348930 71034.95507498 0 5982.95999873 0 -145.13928224 0 -22778.39186080 0 -6330.49843803 0 555
0.02450000 0.02439640 69857.15969138 0 5565.05508585 0 4879.33042866 0 -7108.61000358 0 -5399.90744531 0 592
0.02550000 0.02547300 66515.87626160 0 1248.88125882 0 18251.44459191 0 -1449.59431827 0 9403.35512836 0 837
0.02650000 0.02652900 67317.55947173 0 -553.70771062 0 8777.26212329 0 11285.83814693 0 4164.66109583 0 723
0.02750000 0.02749970 71115.32572770 0 -683.92952527 0 30705.29875630 0 10846.55351636 0 24203.48156048 0 826
0.02850000 0.02848090 66568.59491352 0 1578.33349109 0 10438.33804442 0 10156.87215011 0 10481.20988630 0 831
0.02950000 0.02946900 69113.81545854 0 2612.69817136 0 27518.23705454 0 6975.67806804 0 31781.36625078 0 996
0.03050000 0.03053250 61788.62059668 0 4753.45762177 0 16434.95543378 0 2017.39330864 0 26142.83103110 0 1041
0.03150000 0.03150510 59977.07732487 0 5688.38750567 0 27710.67699505 0 3141.60451020 0 26310.54154000 0 1036
0.03250000 0.03246190 54462.41407625 0 4979.61951448 0 21875.09316806 0 2278.24384951 0 24497.31217059 0 1059
0.03350000 0.03345080 51047.50438417 0 3616.45455968 0 25118.02090395 0 -1933.11090946 0 16292.87360854 0 1302
0.03450000 0.03451200 47870.44686156 0 2832.25056143 0 23902.11971438 0 1029.49747850 0 17717.73849520 0 1339
0.03550000 0.03553350 47130.02519791 0 614.61517660 0 27377.84132691 0 988.31735455 0 10519.21452643 0 1365
0.03650000 0.03647120 46097.79624129 0 40.31335738 0 25659.70786268 0 -1895.29736040 0 12448.79587156 0 1308
0.03750000 0.03744890 47395.86658770 0 197.71517790 0 28749.20071609 0 2461.47769707 0 4677.98789276 0 1579
0.03850000 0.03847530 46847.88486457 0 187.51203923 0 26115.51624982 0 3059.63768507 0 6485.63065877 0 1662
0.03950000 0.03950240 46336.77247583 0 523.99754667 0 21639.15190922 0 1977.41031399 0 2692.49555090 0 1683
0.04050000 0.04050350 46079.36157409 0 -403.67874531 0 15529.40861089 0 6958.87329519 0 2387.82895348 0 1822
0.04150000 0.04152450 46261.01048990 0 -1529.29053195 0 14098.69858585 0 8809.62395675 0 1539.85674364 0 1887
0.04250000 0.04250150 46376.67678592 0 -1234.86416735 0 1712.55810147 0 8409.64788179 0 -7467.41157491 0 1920
0.04350000 0.04349210 48152.92441443 0 -986.10519448 0 194.53744594 0 4174.77768149 0 -5401.96448440 0 2005
0.04450000 0.04448520 45351.07981323 0 1745.48196746 0 -3188.25321074 0 -1058.69731690 0 -9210.12834229 0 2151
0.04550000 0.04548030 44629.43003630 0 2075.29390056 0 -2979.66045512 0 -1831.33805774 0 -4018.07176965 0 2274
0.04650000 0.04648670 42543.27766713 0 2147.27902784 0 668.51746905 0 -6400.22419451 0 -8013.61727523 0 2311
0.04750000 0.04749250 42774.27303966 0 1001.84435364 0 2755.91530232 0 -2839.21976489 0 -7833.56453182 0 2568
0.04850000 0.04851840 42236.07068266 0 786.07893879 0 6594.70993346 0 -3777.61176921 0 -7737.68178109 0 2493
0.04950000 0.04949480 42900.95517339 0 -413.96169260 0 7452.74252571 0 -1915.48556912 0 -7349.65451786 0 2644
0.05050000 0.05050630 42530.80054482 0 -115.52129163 0 11506.04249475 0 -85.40601463 0 -4805.24329969 0 2829
0.05150000 0.05149060 43455.00684792 0 -77.32016493 0 9164.19904341 0 1891.32941070 0 -4148.84550025 0 2784
0.05250000 0.05249300 43109.24443144 0 14.95557339 0 11857.31283009 0 1374.72034375 0 -3626.42501688 0 3055
0.05350000 0.05348950 43096.43008961 0 1310.33389636 0 9580.00195460 0 -2291.37292956 0 -3698.72488238 0 3009
0.05450000 0.05448610 42607.46178281 0 1935.48268677 0 16365.71302528 0 -3800.38532759 0 -1645.63126702 0 3336
0.05550000 0.05550870 40185.66358282 0 2574.22142390 0 15469.83316202 0 -4908.89334008 0 -2926.63830562 0 3349
0.05650000 0.05647670 39046.08641171 0 2303.53531365 0 20121.55165403 0 -2467.80618343 0 -1323.85639919 0 3324
0.05750000 0.05747970 37685.63045374 0 1581.76188956 0 19062.90716818 0 68.71870659 0 -3758.48018167 0 3639
0.05850000 0.05849280 36503.67602937 0 1295.42879349 0 21010.12509431 0 2719.58551916 0 -1814.53328490 0 3846
0.05950000 0.05951020 34756.20446673 0 875.55901487 0 18231.88585964 0 4859.32207036 0 -206.30865539 0 3787
0.06050000 0.06049470 34909.75175572 0 635.51379444 0 18117.90566123 0 4474.40846738 0 566.86039604 0 3930
0.06150000 0.06148310 33431.26896507 0 868.56620605 0 13538.12733390 0 3475.56424342 0 1806.51870093 0 4083
0.06250000 0.06249100 32759.97730342 0 1164.75622875 0 15911.92795527 0 1623.46470378 0 2596.99498229 0 4303
0.06350000 0.06350600 32351.94168188 0 642.91126669 0 14775.83538589 0 562.38099672 0 4967.87303447 0 4470
0.06450000 0.06451750 31457.29829020 0 464.91668643 0 15705.32479483 0 1097.32019281 0 3979.02174901 0 4479
0.06550000 0.06550280 32508.29913355 0 -267.37236642 0 14956.02301711 0 1710.59098759 0 5359.44110268 0 4636
0.06650000 0.06648880 31475.05851836 0 -276.72346376 0 16368.29837495 0 852.87762982 0 4312.82411312 0 4653
0.06750000 0.06749660 33418.79184276 0 -132.11249211 0 15881.57819830 0 782.30432827 0 5566.34776069 0 5220
0.06850000 0.06852730 31967.96105291 0 845.04402033 0 16159.67189738 0 136.50983467 0 3920.53664326 0 5029
0.06950000 0.06949320 31937.61129594 0 1351.05877396 0 16643.69431786 0 -1495.81587407 0 4414.88922175 0 5040
0.07050000 0.07048030 30476.32670091 0 957.01214226 0 18338.78444809 0 736.29634483 0 5588.58176783 0 5475
0.07150000 0.07148790 29640.02228652 0 648.08084196 0 17207.86257805 0 1178.71711695 0 2577.08778984 0 5509
0.07250000 0.07249820 29737.36632185 0 108.97451183 0 16394.48909115 0 2310.39211060 0 2908.60830185 0 5916
0.07350000 0.07351270 29149.03066259 0 -7.99886954 0 14526.29293966 0 3239.60050327 0 1761.23011913 0 5721
0.07450000 0.07449140 28592.28123189 0 202.47896568 0 10427.22104084 0 3309.59603538 0 357.42683975 0 6028
0.07550000 0.07549160 28083.07975377 0 829.23292101 0 9520.86489110 0 3125.77767397 0 969.43081319 0 6183
0.07650000 0.07648840 26838.17768531 0 411.43142212 0 7618.95802807 0 1843.50044183 0 1752.01278554 0 6330
0.07750000 0.07749960 26573.01073457 0 610.34260526 0 5829.63752276 0 1980.17551407 0 1100.90933259 0 6583
0.07850000 0.07848650 26104.38800560 0 345.58818640 0 5513.66283071 0 229.01139767 0 1444.56974739 0 6549
0.07950000 0.07947320 25624.29981287 0 530.58007174 0 5051.13253443 0 122.14653117 0 2586.29388279 0 6828
0.08050000 0.08048110 25588.77935656 0 270.38598488 0 5657.02609013 0 -140.86558683 0 1103.74984503 0 7147
0.08150000 0.08149960 25173.99934459 0 783.11253106 0 5190.02201486 0 -321.33198619 0 1285.79555582 0 7386
0.08250000 0.08250610 24548.34472490 0 861.88363919 0 6328.48636155 0 -578.32361165 0 801.47525810 0 7227
0.08350000 0.08350160 23365.04142245 0 772.02700131 0 5760.91218419 0 -41.13504894 0 942.52069534 0 7798
0.08450000 0.08449610 23473.62610851 0 724.02492643 0 7361.96303041 0 -122.35785540 0 1395.22329068 0 7371
0.08550000 0.08548940 22437.46292413 0 508.58211826 0 6366.55844557 0 226.58454118 0 82.48659282 0 8256
0.08650000 0.08650700 22324.71919730 0 594.93616937 0 8892.93965997 0 -474.66008248 0 1783.31799782 0 8037
0.08750000 0.08749060 21876.77926567 0 408.74940286 0 8470.81950307 0 291.24975670 0 2464.24289715 0 8155
0.08850000 0.08849210 21775.83822211 0 -82.68802528 0 9557.71174420 0 1486.80087219 0 4809.52598762 0 8718
0.08950000 0.08949900 21963.21986979 0 -202.39353674 0 8881.78893444 0 2050.20476813 0 5094.89238773 0 8571
0.09050000 0.09049190 21760.66334362 0 -50.05900156 0 7957.49270613 0 2355.36595417 0 4644.43455033 0 8932
0.09150000 0.09150830 21714.46426911 0 562.40347802 0 7903.32401026 0 781.68272029 0 5473.99457428 0 9285
0.09250000 0.09250820 21012.82285049 0 701.71335879 0 5494.16030169 0 444.13159916 0 4337.27252846 0 9204
0.09350000 0.09350330 20090.19023849 0 684.87373993 0 7384.36564731 0 -411.70456993 0 5494.07037649 0 9349
0.09450000 0.09448040 19734.31123634 0 663.74693688 0 5218.66319293 0 -1297.86801470 0 2670.12665594 0 9564
0.09550000 0.09549270 19403.04925930 0 417.55757677 0 7254.01906144 0 -365.87306471 0 3317.93659822 0 10155
0.09650000 0.09649430 19349.31894881 0 537.77521227 0 6758.44125201 0 -951.19622957 0 2015.94326470 0 9913
0.09750000 0.09749140 19179.13549674 0 -14.32160069 0 7046.13446682 0 280.29124630 0 2725.84656161 0 10476
0.09850000 0.09850240 18992.42828810 0 146.28358048 0 7502.03277916 0 386.84362271 0 1966.24834782 0 10575
0.09950000 0.09950330 18995.68807681 0 -188.67544658 0 7016.21185457 0 968.87664911 0 1462.27377229 0 10882
0.10050000 0.10051200 18902.39067574 0 282.16955904 0 6517.35177513 0 960.30677699 0 1111.83187291 0 10875
0.10150000 0.10150300 18815.16322607 0 304.35635545 0 6331.39769009 0 85.40489056 0 912.35753317 0 11118
0.10250000 0.10250800 18233.00992471 0 404.38016192 0 6019.51459491 0 167.08440466 0 702.78684094 0 11575
0.10350000 0.10349800 18100.70746561 0 355.99702898 0 6456.36000426 0 -965.30774250 0 581.49684736 0 11364
0.10450000 0.10450100 17783.94592801 0 430.97554155 0 6694.53815260 0 -792.31525182 0 844.49098031 0 12093
0.10550000 0.10551000 17710.76929175 0 529.37282585 0 7625.11790467 0 -472.08822160 0 830.59303975 0 12067
0.10650000 0.10649700 17329.37401245 0 409.90943801 0 7835.19442618 0 -152.14782797 0 2189.34154288 0 12054
0.10750000 0.10749900 17191.22641496 0 169.86983791 0 8323.48829394 0 1390.35608892 0 3001.33242973 0 12807
0.10850000 0.10850100 17222.36301749 0 -114.22749273 0 7760.50030207 0 1738.60268921 0 3093.50576572 0 12736
0.10950000 0.10950300 17141.87995825 0 22.19342840 0 7179.39238123 0 1954.34449869 0 3739.32611282 0 12933
0.11050000 0.11050200 16826.80451826 0 228.03458512 0 6036.94884419 0 1315.43715179 0 3035.93115268 0 13428
0.11150000 0.11150900 16511.72907827 0 445.83568181 0 6024.87638530 0 335.71215067 0 3630.06698772 0 13453
0.11250000 0.11250000 15836.27837585 0 519.52151955 0 4913.42332232 0 -29.25896423 0 1355.83605052 0 13668
0.11350000 0.11349100 15402.16444462 0 499.15121230 0 4974.10035497 0 -547.02177156 0 1306.26478080 0 13791
0.11450000 0.11448600 14894.76147062 0 521.46390400 0 4354.59437123 0 -715.08860910 0 -115.46621244 0 14205
0.11550000 0.11549300 14435.46848175 0 477.53431687 0 4173.69857902 0 -151.50711088 0 -654.90504102 0 14776
0.11650000 0.11649800 14119.94341573 0 276.73920067 0 4161.64860144 0 -309.03696242 0 -1124.24492351 0 14553
0.11750000 0.11747300 13869.83893697 0 198.21201466 0 3795.39447867 0 381.98204127 0 -1586.75273849 0 14568
0.11850000 0.11849100 13866.69155477 0 59.61243062 0 3760.12131667 0 673.89836856 0 -1569.85804044 0 16015
0.11950000 0.11950300 13648.39811757 0 86.52423456 0 3473.01261570 0 535.34498358 0 -1409.47643581 0 15270
0.12050000 0.12050700 13699.76789141 0 98.18775857 0 3523.28080577 0 275.47799966 0 -982.18108331 0 15999
0.12150000 0.12150000 13822.51579739 0 23.59558717 0 4026.98560568 0 183.87793685 0 -543.51356447 0 15670
0.12250000 0.12250700 13615.57541743 0 3.91091465 0 3792.42694688 0 252.30315005 0 161.05042335 0 16887
0.12350000 0.12352200 13820.94210629 0 -9.48905385 0 3844.60604757 0 -203.21522831 0 663.74581282 0 16407
0.12450000 0.12449800 13663.91021558 0 150.61347914 0 3690.91263012 0 229.67572013 0 653.99342424 0 16306
0.12550000 0.12549900 13561.39548091 0 286.75012421 0 3899.44918249 0 429.43557240 0 628.39846253 0 17523
0.12650000 0.12650100 13067.25647478 0 410.76934779 0 3574.44824790 0 520.88838268 0 695.46805325 0 17154
0.12750000 0.12750600 12833.45093957 0 299.83311760 0 3346.98243971 0 438.14258045 0 1125.69496746 0 18007
0.12850000 0.12850300 12557.38055762 0 137.37986104 0 2975.01806637 0 811.80878831 0 835.96157454 0 17496
0.12950000 0.12949900 12514.44127183 0 -58.64832000 0 2865.86010712 0 702.11015376 0 1213.37204316 0 18405
0.13050000 0.13049000 12628.30906373 0 -90.96856305 0 2338.12279595 0 350.21034198 0 1107.15801033 0 18100
0.13150000 0.13148800 12660.68213784 0 -40.77804588 0 2602.27808813 0 172.82050873 0 1815.14028004 0 19059
0.13250000 0.13249300 12796.91882470 0 23.10077372 0 2679.07421392 0 -148.32600672 0 1875.06418909 0 18957
0.13350000 0.13349100 12563.33810251 0 179.01410728 0 2690.19121750 0 -320.61370860 0 1336.29979955 0 19468
0.13450000 0.13450700 12720.03277370 0 180.33038748 0 3162.97298724 0 -478.23910568 0 1486.34000551 0 19953
0.13550000 0.13551000 12346.05632388 0 324.53107538 0 3080.69142389 0 -329.26900967 0 649.80178559 0 19956
0.13650000 0.13649900 12250.73560568 0 243.63998053 0 3349.73639914 0 -268.20979490 0 853.78025408 0 19723
0.13750000 0.13749600 12043.90763223 0 256.56897700 0 3418.42801575 0 75.63103235 0 399.90301073 0 20946
0.13850000 0.13851100 11713.20768772 0 212.25383556 0 3115.60488506 0 330.25481474 0 144.89198792 0 20955
0.13950000 0.13949800 11565.61794362 0 304.61826261 0 3374.56699660 0 360.73945952 0 402.28378056 0 20506
0.14050000 0.14048300 11465.57615212 0 169.08524049 0 3313.60894769 0 296.19789115 0 646.26772500 0 21447
0.14150000 0.14148400 11374.97650723 0 265.65816718 0 3739.55092584 0 -99.94984298 0 860.54487769 0 21771
0.14250000 0.14249400 11178.60233896 0 123.12783998 0 3772.31742272 0 -131.77639665 0 1370.49385907 0 22470
0.14350000 0.14350900 11198.85799157 0 -114.57482884 0 3808.79333434 0 158.74046962 0 1637.53799849 0 22519
0.14450000 0.14449900 11366.43361267 0 -157.77602179 0 3766.68585670 0 397.87632140 0 1829.50583167 0 22218
0.14550000 0.14550500 11499.07329130 0 13.05005828 0 3308.98904024 0 656.91486937 0 1491.48822354 0 23559
0.14650000 0.14650700 11360.02644175 0 94.16855150 0 3069.95660244 0 561.37833068 0 1136.58715801 0 23044
0.14750000 0.14750500 11112.34994355 0 241.41770388 0 2731.00602030 0 221.84323470 0 1585.37013845 0 23649
0.14850000 0.14849900 10991.41178233 0 239.21453634 0 2829.83382153 0 87.64043118 0 766.31675074 0 23640
0.14950000 0.14949500 10841.64135199 0 114.32079013 0 2439.99681353 0 15.73915915 0 1114.64315966 0 24457
0.15050000 0.15050000 10761.42806838 0 32.72614294 0 2504.38326091 0 -191.89139676 0 603.58697417 0 24591
0.15150000 0.15149900 10767.57670433 0 33.66788466 0 2459.36445474 0 -285.77780792 0 398.01682954 0 25020
0.15250000 0.15250500 10774.16372566 0 76.06222371 0 2339.58408055 0 -261.04612819 0 -112.56724862 0 25297
0.15350000 0.15350100 10642.82796251 0 89.99793286 0 2550.75094518 0 -264.08897234 0 -450.34543089 0 25452
0.15450000 0.15450400 10638.56775589 0 173.48932745 0 2465.90651346 0 -243.42078784 0 -359.73679347 0 26061
0.15550000 0.15549900 10491.14662155 0 228.83941571 0 2952.94142833 0 26.34055408 0 -289.62997893 0 26128
0.15650000 0.15649500 10331.57434377 0 261.49912641 0 3051.13975312 0 36.48557858 0 164.01458295 0 26331
0.15750000 0.15749700 10107.06482672 0 242.61146099 0 3190.28776852 0 245.90721978 0 296.19676709 0 27345
0.15850000 0.15849900 9902.50746472 0 246.09943491 0 3399.56620383 0 307.54195587 0 732.40932781 0 26980
0.15950000 0.15949700 9812.20007675 0 194.19348203 0 3193.90725805 0 421.01632500 0 1026.62099598 0 27777
0.16050000 0.16050000 9498.03512947 0 314.61794550 0 3445.04587668 0 123.82588439 0 900.69423397 0 28224
0.16150000 0.16150500 9179.10414628 0 335.82680530 0 2941.65581500 0 -118.08303593 0 827.73791446 0 28075
0.16250000 0.16249700 8886.34139799 0 264.65999740 0 3086.35671186 0 -86.56998401 0 485.32633596 0 28590
0.16350000 0.16349900 8739.05515146 0 173.30722891 0 2794.75175060 0 168.79635577 0 977.26442268 0 29163
0.16450000 0.16449100 8563.18393012 0 34.85321128 0 2404.56628242 0 459.12437911 0 267.84447375 0 28996
0.16550000 0.16550500 8600.05326452 0 -82.38205477 0 2184.48558176 0 680.22685492 0 314.78880340 0 30777
0.16650000 0.16650700 8583.22601038 0 -36.16263469 0 2045.80967369 0 537.63582820 0 91.68155752 0 29211
0.16750000 0.16749900 8656.78482876 0 28.63803068 0 1734.65722081 0 256.12497130 0 568.14745055 0 30922
0.16850000 0.16850800 8699.27448852 0 -5.53760542 0 1630.49011048 0 65.10483738 0 527.09996627 0 30867
0.16950000 0.16949900 8651.74901723 0 34.06850146 0 1814.08365887 0 -205.42514024 0 701.30869537 0 30852
0.17050000 0.17049200 8760.00772442 0 29.27582520 0 1852.18946485 0 -191.33948081 0 344.86541256 0 31257
0.17150000 0.17149500 8778.31874446 0 -6.12408637 0 1826.20108036 0 -198.51663630 0 215.42032687 0 32608
0.17250000 0.17250900 8782.90492996 0 136.32323987 0 1879.24571116 0 -232.08571564 0 -32.84439459 0 32361
0.17350000 0.17350400 8658.41472312 0 130.24879222 0 1656.83819580 0 -115.65955163 0 -164.47657369 0 32508
0.17450000 0.17449800 8567.14063918 0 144.06804822 0 1811.01496122 0 65.20611564 0 -218.59581070 0 32791
0.17550000 0.17549800 8335.87549104 0 202.38004796 0 1490.53276823 0 -0.86052464 0 -386.55811018 0 33633
0.17650000 0.17650100 8202.71874248 0 181.80853305 0 1695.01144568 0 169.71022067 0 -283.31160915 0 33984
0.17750000 0.17750300 8066.26848326 0 111.18161360 0 1330.56706768 0 286.53542778 0 -290.57082140 0 34069
