### header ###
fiducial parameters:
Omega_m = 0.31
Omega_nu = 0
Omega_de = 0.69
Omega_k = 0
H_0 = 100
w_de = -1
zeff = 0
beta = 0
fgrowth = 0
b_1 = 2
gamma = 0.55
Lx = 3500 Ly = 3500 Lz = 3500
nx = 700 ny = 700 nz = 700
xoffset = 857.220397 yoffset = 15.9954215 zoffset = 262.898189
bins = 400 dk = 0.001
kx_ny = 0.628318531 ky_ny = 0.628318531 kz_ny = 0.628318531
############################
A(data) = 3.04692361 (not used)
A(ran) = 3.04516663 (used)
Ngal = 185885
weighted Ngal = 0
Nran = 9360983
weighted Nran = 0
SN(data) = 3453.42832
SN(ran) = 68.3829981
SN(data+ran) = 3521.81132
############################
13 columns: k_central k_mean P_0(k) sigma^{lin}_{P_0(k)} P^img_1(k) sigma^{lin}_{P_1(k)} P_2(k) sigma^{lin}_{P_2(k)} P^img_3(k) sigma^{lin}_{P_3(k)} P_4(k) sigma^{lin}_{P_4(k)} N_modes
### header ###
0.00050000 0 0 0 0 0 0 0 0 0 0 0 0
0.00150000 0.00179520 20947.17745022 0 -34988.21149782 0 -26427.21949459 0 41749.57531902 0 -20703.03051634 0 3
0.00250000 0.00253879 43015.16018482 0 -43222.66259731 0 -23272.64327344 0 -22186.45919331 0 5275.58584823 0 6
0.00350000 0.00331552 60204.92531519 0 -37114.60539660 0 -36140.37819775 0 -28515.39518089 0 2004.97238959 0 7
0.00450000 0.00420575 84219.78875640 0 -31834.42212223 0 -46583.27994636 0 -32227.28286527 0 9674.70443701 0 24
0.00550000 0.00557378 98526.77660030 0 -16341.99525224 0 -53618.57842587 0 -32831.24302905 0 23721.03283110 0 45
0.00650000 0.00659388 124865.64458014 0 -12051.21405520 0 -45618.71970713 0 -22964.19981739 0 29653.28625438 0 40
0.00750000 0.00754703 109127.15986565 0 760.15350194 0 -33288.06307476 0 -20156.06045177 0 36014.70772257 0 57
0.00850000 0.00846663 112075.24533287 0 10965.98543038 0 -25000.78091683 0 -11581.91688718 0 31506.08271437 0 75
0.00950000 0.00948925 92913.19562524 0 16160.23392992 0 1682.00601278 0 -13735.28834772 0 36267.62236402 0 112
0.01050000 0.01054430 84382.89059851 0 21091.28259259 0 3098.92375938 0 1396.56092812 0 53963.10437078 0 105
0.01150000 0.01145670 66568.25769400 0 13391.99887440 0 23677.19429325 0 -2381.33185736 0 18270.66610466 0 144
0.01250000 0.01249090 61308.86962348 0 5636.33205214 0 31861.39968398 0 -9717.30650328 0 21184.91721318 0 169
0.01350000 0.01339930 60271.46996752 0 3269.71420658 0 42384.33486580 0 -4984.29562518 0 -7877.42555098 0 180
0.01450000 0.01448870 60605.31729423 0 -886.40511876 0 43839.66191594 0 -16408.31509155 0 954.63137244 0 267
0.01550000 0.01550050 67933.54713179 0 -351.59406608 0 38313.87042309 0 -13900.52591347 0 -28044.63672827 0 238
0.01650000 0.01653350 62896.04950670 0 1132.67541156 0 33173.18362429 0 7172.02975500 0 -10894.46116978 0 315
0.01750000 0.01747870 63074.32622729 0 -275.45214616 0 22889.78670955 0 18763.90585874 0 -21420.29643948 0 297
0.01850000 0.01844180 61041.67935560 0 -726.05161576 0 13079.28397106 0 22122.16267113 0 -25585.96919388 0 388
0.01950000 0.01947590 61853.02952537 0 1931.41357120 0 5336.73498820 0 12926.29871461 0 -21882.17477802 0 399
0.02050000 0.02045430 57480.30398450 0 2738.30120262 0 -2550.40248501 0 2668.80025915 0 -8722.49767293 0 462
0.02150000 0.02154770 59221.36837623 0 4745.06085568 0 13036.23227876 0 -10313.04975137 0 480.11404622 0 571
0.02250000 0.02255340 58159.12688215 0 1207.13348200 0 29209.28055051 0 -12601.78112801 0 -7772.49407640 0 510
0.02350000 0.02348930 60139.27991492 0 484.68674293 0 41286.79772842 0 -9926.76478900 0 5180.95080972 0 555
0.02450000 0.02439640 64657.12225672 0 -3021.70048885 0 41369.75373082 0 1214.74340255 0 -7463.78084473 0 592
0.02550000 0.02547300 69127.07942641 0 -2253.48069595 0 49496.74420932 0 7220.10601818 0 5563.49263540 0 837
0.02650000 0.02652900 73908.17780833 0 -2526.16764203 0 39423.99708928 0 13852.30352183 0 -6743.04156051 0 723
0.02750000 0.02749970 68401.72023473 0 1760.21846057 0 37054.01828916 0 15974.20116032 0 5728.89881091 0 826
0.02850000 0.02848090 68865.05985787 0 2959.34859925 0 28123.54609640 0 8394.93386998 0 -2207.05680843 0 831
0.02950000 0.02946900 64712.76347784 0 4224.85478050 0 23904.81747055 0 8286.21429611 0 6771.52536946 0 996
0.03050000 0.03053250 59672.23087705 0 4469.66491277 0 20400.43219866 0 2116.85058631 0 8786.46821624 0 1041
0.03150000 0.03150510 54518.05529737 0 2073.78765336 0 18973.99362090 0 589.31134774 0 9512.32199655 0 1036
0.03250000 0.03246190 55721.47936463 0 579.54322226 0 24251.14191958 0 151.76227365 0 23220.14943453 0 1059
0.03350000 0.03345080 54719.71257148 0 -474.03397824 0 17084.10301350 0 -1843.37679468 0 8196.41273742 0 1302
0.03450000 0.03451200 58053.68957829 0 -1182.67382601 0 26747.46563392 0 40.01075906 0 8248.82789178 0 1339
0.03550000 0.03553350 56748.08799589 0 -541.68583466 0 21518.76453989 0 -5479.46877119 0 2052.32925112 0 1365
0.03650000 0.03647120 59515.98583189 0 1242.48532855 0 27510.36859903 0 -5775.72736185 0 -5960.74847288 0 1308
0.03750000 0.03744890 57593.49733736 0 2088.96253185 0 25440.73998644 0 -7855.29270969 0 -5271.61789852 0 1579
0.03850000 0.03847530 57088.45490002 0 2497.39157616 0 30258.14567022 0 -5739.94837057 0 -9964.28608114 0 1662
0.03950000 0.03950240 55682.36190008 0 2208.72042474 0 35737.06364952 0 -895.03793852 0 -12067.28818575 0 1683
0.04050000 0.04050350 55152.14040510 0 2482.22793832 0 36489.06318342 0 4642.83837793 0 -10857.64803863 0 1822
0.04150000 0.04152450 52892.43238865 0 3414.20153108 0 39131.85257678 0 3652.12114445 0 -10609.36454529 0 1887
0.04250000 0.04250150 49663.55546617 0 3796.64219090 0 35137.48733953 0 8771.84412964 0 -6608.71578427 0 1920
0.04350000 0.04349210 46423.88751899 0 2177.98848564 0 30919.09593320 0 7790.97370621 0 -4049.79288601 0 2005
0.04450000 0.04448520 44500.16255289 0 1509.48450536 0 26149.01338900 0 9132.38800184 0 -4587.99524301 0 2151
0.04550000 0.04548030 42424.23917589 0 1009.69819630 0 22837.06805762 0 5113.16968581 0 -7180.51644631 0 2274
0.04650000 0.04648670 40314.59384670 0 1570.73481120 0 15542.33535923 0 2702.84819022 0 -9233.99224380 0 2311
0.04750000 0.04749250 37403.04049436 0 1934.10008673 0 15044.93656439 0 1021.00516687 0 -10952.74394382 0 2568
0.04850000 0.04851840 36483.44285806 0 897.79077388 0 12857.50593214 0 1173.26540135 0 -9213.02843018 0 2493
0.04950000 0.04949480 36127.56385591 0 -648.82497304 0 13016.56113998 0 2026.21721947 0 -10799.36526459 0 2644
0.05050000 0.05050630 36105.86940000 0 -743.16775462 0 10714.56579548 0 4273.56052011 0 -8579.19061676 0 2829
0.05150000 0.05149060 37417.99055983 0 -1096.26357165 0 12612.34733969 0 3870.14480603 0 -6836.47384938 0 2784
0.05250000 0.05249300 37349.98462291 0 -351.62891210 0 9223.59464187 0 3111.05242151 0 -2636.20237203 0 3055
0.05350000 0.05348950 37589.52288999 0 -153.34495727 0 11592.59550538 0 3905.13695176 0 -949.79676856 0 3009
0.05450000 0.05448610 37745.20590261 0 -76.21880597 0 8260.05730186 0 1854.90970233 0 3355.54781556 0 3336
0.05550000 0.05550870 38142.33809294 0 -16.56422292 0 11716.57988294 0 906.76081317 0 2414.48053637 0 3349
0.05650000 0.05647670 39676.01247867 0 437.96160598 0 9376.38880726 0 -2204.68503112 0 3316.22801931 0 3324
0.05750000 0.05747970 38683.35061262 0 606.49942678 0 11009.92513409 0 -2227.53727406 0 2269.00403461 0 3639
0.05850000 0.05849280 38282.73382057 0 2047.54073390 0 12252.98373582 0 -4051.36657711 0 1237.25842596 0 3846
0.05950000 0.05951020 37144.73034056 0 1567.64363225 0 13746.97862448 0 -1215.62017330 0 -898.37079146 0 3787
0.06050000 0.06049470 35009.23151469 0 1179.65009096 0 14306.53821787 0 1393.08756704 0 -2509.47527569 0 3930
0.06150000 0.06148310 34632.66971520 0 904.86339132 0 10809.17835268 0 3261.56473480 0 -2788.33333903 0 4083
0.06250000 0.06249100 33592.45989655 0 -179.53679754 0 10354.87621274 0 2825.56237425 0 -4136.77304137 0 4303
0.06350000 0.06350600 33688.23024078 0 274.53490906 0 6337.69245450 0 3750.71289201 0 -2318.85632060 0 4470
0.06450000 0.06451750 33007.04680648 0 262.83563978 0 6443.63558764 0 2800.78798004 0 -1664.63920740 0 4479
0.06550000 0.06550280 32349.35633221 0 679.10616204 0 3227.88774521 0 910.67705588 0 1341.13327937 0 4636
0.06650000 0.06648880 32031.02110351 0 -3.91578185 0 5667.98572459 0 662.36995717 0 2075.54119487 0 4653
0.06750000 0.06749660 32330.47203898 0 -29.22029639 0 3976.38019609 0 605.69347212 0 2732.30993578 0 5220
0.06850000 0.06852730 32580.35170473 0 -305.69286882 0 6487.08070271 0 -765.34893071 0 4419.92503328 0 5029
0.06950000 0.06949320 32400.05166701 0 531.17357810 0 7164.02641168 0 -2697.67749088 0 2332.60363644 0 5040
0.07050000 0.07048030 32928.47465787 0 546.83405270 0 10587.49023897 0 -2504.38326091 0 4785.23494139 0 5475
0.07150000 0.07148790 31724.48855808 0 1380.64416668 0 11831.12211389 0 -2606.80807037 0 663.31866809 0 5509
0.07250000 0.07249820 31816.54948756 0 1481.83250457 0 13571.84928609 0 -1527.70560020 0 5289.63666164 0 5916
0.07350000 0.07351270 29092.71500243 0 1551.89548057 0 13009.02990399 0 726.64624618 0 2013.56024674 0 5721
0.07450000 0.07449140 29065.73744067 0 1493.20804310 0 13807.11610589 0 2510.05978953 0 3350.46704143 0 6028
0.07550000 0.07549160 26920.57165517 0 985.39141316 0 12135.06930966 0 2224.12011624 0 2751.26167292 0 6183
0.07650000 0.07648840 26385.85389990 0 769.15276692 0 10995.12119707 0 2673.30776010 0 2571.22017016 0 6330
0.07750000 0.07749960 25465.58182455 0 273.06800414 0 9579.81086353 0 1705.67882322 0 3495.20166025 0 6583
0.07850000 0.07848650 25267.29674566 0 374.11920608 0 8347.61073040 0 1704.93694027 0 2539.09439037 0 6549
0.07950000 0.07947320 24273.96044056 0 277.04831857 0 8432.83734425 0 909.45407308 0 4379.14395243 0 6828
0.08050000 0.08048110 24418.29039595 0 564.73029272 0 7432.97022107 0 986.10519448 0 3457.12957622 0 7147
0.08150000 0.08149960 23513.19319909 0 379.28428510 0 7164.74581333 0 845.39360457 0 3224.06592396 0 7386
0.08250000 0.08250610 24097.03259805 0 349.12337105 0 7514.57734538 0 -313.15778497 0 2666.73197942 0 7227
0.08350000 0.08350160 23565.68703800 0 141.47820230 0 8698.13918280 0 -1126.69538537 0 1301.68983595 0 7798
0.08450000 0.08449610 23680.34167546 0 247.89456683 0 8359.08743480 0 -2179.74202715 0 1186.58557246 0 7371
0.08550000 0.08548940 24057.24069447 0 531.46246282 0 10234.99467269 0 -2302.09651036 0 191.21695772 0 8256
0.08650000 0.08650700 23745.20023017 0 486.91913617 0 10658.96953696 0 -1607.60414559 0 242.25962862 0 8037
0.08750000 0.08749060 23644.37159312 0 425.99705734 0 11722.76224084 0 330.39195068 0 -611.17328935 0 8155
0.08850000 0.08849210 23418.09729390 0 24.19729920 0 12169.69051391 0 946.35038504 0 -799.72958504 0 8718
0.08950000 0.08949900 23352.90151966 0 -130.79171565 0 10701.05453330 0 2290.26010514 0 -1372.16871603 0 8571
0.09050000 0.09049190 23152.59312364 0 12.09460297 0 10641.40039987 0 2435.38814673 0 1166.58845481 0 8932
0.09150000 0.09150830 22891.36040065 0 231.86539889 0 8409.99634196 0 2387.09831119 0 167.65655378 0 9285
0.09250000 0.09250820 22437.91255016 0 677.08846524 0 8727.62340967 0 1070.28417968 0 2214.73417288 0 9204
0.09350000 0.09350330 21395.79182089 0 1165.08220762 0 7212.32748788 0 709.00067266 0 2528.88787951 0 9349
0.09450000 0.09448040 20851.29469948 0 1081.92274944 0 7968.42985930 0 113.02249497 0 2518.32166782 0 9564
0.09550000 0.09549270 19838.17484910 0 808.56361245 0 6714.01820032 0 -28.97749833 0 2463.80451177 0 10155
0.09650000 0.09649430 19061.33347708 0 453.18257113 0 7105.76611895 0 254.10502636 0 1853.18988276 0 9913
0.09750000 0.09749140 18905.76287096 0 399.18360908 0 7243.92495708 0 486.83932755 0 854.28608336 0 10476
0.09850000 0.09850240 18202.09813520 0 549.02935178 0 6516.55368893 0 394.08372585 0 -306.61685031 0 10575
0.09950000 0.09950330 17810.58627024 0 536.57583484 0 5978.46373844 0 -306.93383667 0 -234.75199800 0 10882
0.10050000 0.10051200 17361.18505402 0 408.58641342 0 6396.39113261 0 -285.71036402 0 -541.72742507 0 10875
0.10150000 0.10150300 17219.10322878 0 110.36104610 0 6583.93014941 0 429.26921077 0 -966.38234871 0 11118
0.10250000 0.10250800 17191.33882147 0 -302.28695165 0 6318.86436452 0 1010.24561599 0 -751.91860122 0 11575
0.10350000 0.10349800 17271.03503515 0 -171.41093113 0 5303.23784903 0 476.19105911 0 -1170.50020127 0 11364
0.10450000 0.10450100 17435.48575535 0 -184.10050174 0 5654.55314697 0 1383.34192286 0 -179.63459120 0 12093
0.10550000 0.10551000 17446.95121909 0 135.98939254 0 4883.12976860 0 868.05700457 0 -154.79162902 0 12067
0.10650000 0.10649700 17318.92020727 0 272.09006753 0 4381.26843542 0 581.56091906 0 987.83850283 0 12054
0.10750000 0.10749900 17044.19870340 0 246.39056776 0 4028.26703986 0 18.47187375 0 24.95604313 0 12807
0.10850000 0.10850100 16789.26074482 0 203.98184069 0 4088.58437168 0 32.58833257 0 564.02100766 0 12736
0.10950000 0.10950300 16633.57773220 0 217.87640905 0 3650.13154927 0 -380.88495376 0 -646.33741703 0 12933
0.11050000 0.11050200 16550.05969727 0 36.62372618 0 4216.90764043 0 -297.69064957 0 611.04064967 0 13428
0.11150000 0.11150900 16488.68574428 0 62.38741006 0 4187.25480380 0 -273.71546562 0 -187.30521126 0 13453
0.11250000 0.11250000 16659.76844840 0 -73.09368026 0 4059.95443427 0 594.61918302 0 339.68234850 0 13668
0.11350000 0.11349100 16418.54408371 0 -40.34719173 0 4038.94565806 0 399.32186909 0 621.72376413 0 13791
0.11450000 0.11448600 16654.82256208 0 253.59582488 0 3634.84426428 0 695.48266609 0 123.15931380 0 14205
0.11550000 0.11549300 16256.56630668 0 416.74600179 0 4248.42642508 0 392.53476418 0 1170.07305654 0 14776
0.11650000 0.11649800 15719.48801475 0 478.45942243 0 3346.02698440 0 -129.15058064 0 183.97573051 0 14553
0.11750000 0.11747300 15215.90686201 0 481.76529781 0 4240.73781998 0 168.46363251 0 815.36083394 0 14568
0.11850000 0.11849100 14922.86309745 0 397.31091667 0 2785.06230967 0 15.87089958 0 -123.62467674 0 16015
0.11950000 0.11950300 14645.89346344 0 209.83597159 0 3610.72182781 0 398.65979476 0 -170.48694964 0 15270
0.12050000 0.12050700 14364.09034961 0 456.29061106 0 2623.55663996 0 -212.19988043 0 -481.71246675 0 15999
0.12150000 0.12150000 13857.47422117 0 455.21263265 0 3250.42524993 0 -85.35970315 0 -1254.96245086 0 15670
0.12250000 0.12250700 13551.95333430 0 660.28032020 0 3073.17142855 0 -550.47489947 0 246.21184142 0 16887
0.12350000 0.12352200 13003.97161116 0 344.64621987 0 3922.21150022 0 -129.40461935 0 -643.73183419 0 16407
0.12450000 0.12449800 12780.50747463 0 156.28213931 0 3946.46882449 0 104.46465035 0 109.25462884 0 16306
0.12550000 0.12549900 12970.92409801 0 -172.99249068 0 4080.32249340 0 523.63672178 0 -87.63053941 0 17523
0.12650000 0.12650100 13167.18585978 0 -461.92330114 0 4174.45170262 0 569.60086669 0 1160.76579774 0 17154
0.12750000 0.12750600 13553.75183841 0 -233.59421097 0 4203.78980103 0 355.30235676 0 423.17340587 0 18007
0.12850000 0.12850300 13930.98807695 0 -113.65646767 0 4364.35125607 0 100.03010123 0 1168.81410366 0 17496
0.12950000 0.12949900 13982.58266380 0 293.03139984 0 4255.33942528 0 -145.53045688 0 1531.84215967 0 18405
0.13050000 0.13049000 13676.27493138 0 441.00332606 0 4551.49685009 0 -456.61771399 0 1623.76820135 0 18100
0.13150000 0.13148800 13514.74678038 0 235.25333102 0 4825.51019296 0 70.96863524 0 1968.39531211 0 19059
0.13250000 0.13249300 13328.71401078 0 209.35037547 0 5042.64584313 0 -165.93561016 0 2011.04234098 0 18957
0.13350000 0.13349100 13073.66364569 0 314.33243298 0 4942.61529227 0 461.15331656 0 1360.21990431 0 19468
0.13450000 0.13450700 12747.23514847 0 379.27641664 0 4968.72732392 0 235.62764469 0 2206.37112873 0 19953
0.13550000 0.13551000 12227.46745866 0 490.36664375 0 4609.59977372 0 462.03570765 0 1951.36572625 0 19956
0.13650000 0.13649900 11941.05567804 0 302.42858385 0 4569.47065061 0 905.21297556 0 2349.10491171 0 19723
0.13750000 0.13749600 11613.27830272 0 258.54395933 0 4294.45688982 0 845.28906652 0 1893.92600101 0 20946
0.13850000 0.13851100 11469.06075384 0 158.02106798 0 3815.48152152 0 574.50179041 0 2239.25003212 0 20955
0.13950000 0.13949800 11241.66238956 0 -37.84670898 0 3564.79252892 0 330.37508970 0 2265.15973206 0 20506
0.14050000 0.14048300 11481.42546965 0 -10.09314890 0 3194.06462716 0 211.76486725 0 2096.26895482 0 21447
0.14150000 0.14148400 11336.08385570 0 -115.10313942 0 2648.87058541 0 171.58066495 0 1576.68111543 0 21771
0.14250000 0.14249400 11393.52358093 0 86.15497919 0 2820.83006029 0 51.96552833 0 1688.67171867 0 22470
0.14350000 0.14350900 11227.19567207 0 229.70044956 0 2297.65645332 0 131.26494704 0 1281.20937032 0 22519
0.14450000 0.14449900 11009.38558285 0 326.60609951 0 2558.79925110 0 -210.12148411 0 1534.09028981 0 22218
0.14550000 0.14550500 10781.87481206 0 347.80147053 0 2500.80873398 0 -129.23600958 0 1155.89859597 0 23559
0.14650000 0.14650700 10612.41076164 0 207.19441866 0 3169.57124922 0 -233.99775033 0 1143.54512082 0 23044
0.14750000 0.14750500 10376.75051906 0 188.29888479 0 3126.03620894 0 -172.76992580 0 1216.12600259 0 23649
0.14850000 0.14849900 10471.32935431 0 72.88280565 0 3740.45017790 0 -167.90384810 0 1311.95255007 0 23640
0.14950000 0.14949500 10329.78708031 0 76.90066385 0 3107.17439701 0 221.80726461 0 1213.33832120 0 24457
0.15050000 0.15050000 10180.53371990 0 86.96621695 0 3410.16613747 0 507.81550588 0 1271.21643182 0 24591
0.15150000 0.15149900 10196.69777565 0 109.09220144 0 2864.60115424 0 702.16523295 0 1187.34993671 0 25020
0.15250000 0.15250500 9966.36560152 0 121.05056772 0 2376.41969299 0 708.99392827 0 997.35258960 0 25297
0.15350000 0.15350100 9879.10442990 0 136.95833664 0 2027.59981951 0 194.35647146 0 1432.84574868 0 25452
0.15450000 0.15450400 9650.66068509 0 144.46821539 0 2093.38010758 0 167.94993477 0 1184.06766670 0 26061
0.15550000 0.15549900 9699.73736618 0 114.35451208 0 2125.84310690 0 -204.86085957 0 1576.91716910 0 26128
0.15650000 0.15649500 9521.50560819 0 98.54611052 0 1986.58268499 0 -119.81409614 0 1356.27443590 0 26331
0.15750000 0.15749700 9591.45617769 0 142.91475746 0 2469.63840950 0 -60.54461778 0 1536.88921185 0 27345
0.15850000 0.15849900 9303.85288809 0 82.62226747 0 2316.07987987 0 76.51870653 0 1144.78159240 0 26980
0.15950000 0.15949700 9364.33882967 0 102.23079583 0 2479.59762605 0 -57.06653563 0 1217.63224978 0 27777
0.16050000 0.16050000 9285.56434935 0 80.26240526 0 2224.74959268 0 -3.31447448 0 974.00013771 0 28224
0.16150000 0.16150500 9245.59259535 0 67.13534852 0 1990.25837778 0 -73.11998338 0 715.62816033 0 28075
0.16250000 0.16249700 9134.10782140 0 100.33674618 0 2143.64829765 0 27.06849862 0 501.35213171 0 28590
0.16350000 0.16349900 9132.96127503 0 135.11374585 0 1942.65422193 0 136.53119191 0 904.86001913 0 29163
0.16450000 0.16449100 8868.14278445 0 250.14382104 0 1951.02850673 0 109.05319638 0 459.57850140 0 28996
0.16550000 0.16550500 8815.37916992 0 197.50947399 0 1883.69700885 0 128.39071265 0 634.16379229 0 30777
0.16650000 0.16650700 8646.97174067 0 109.79743987 0 2006.15265791 0 167.57449703 0 767.08561125 0 29211
0.16750000 0.16749900 8665.64246154 0 43.17286651 0 2070.29181098 0 2.17248057 0 1059.07725090 0 30922
0.16850000 0.16850800 8624.55788311 0 107.95745775 0 2451.50723987 0 -182.65495405 0 1014.03034309 0 30867
0.16950000 0.16949900 8572.00784095 0 82.71500284 0 2380.80354678 0 -194.01363162 0 1221.79129055 0 30852
0.17050000 0.17049200 8565.17352530 0 133.95033850 0 2876.97711069 0 -240.18572856 0 1083.07716427 0 31257
0.17150000 0.17149500 8509.56602614 0 150.95519493 0 2629.40177834 0 -184.91207672 0 1249.69058567 0 32608
0.17250000 0.17250900 8425.38479281 0 77.25081012 0 3116.30180541 0 104.71846424 0 1197.97235166 0 32361
0.17350000 0.17350400 8334.94251703 0 74.50235861 0 2871.97502112 0 48.00994334 0 1017.22043977 0 32508
0.17450000 0.17449800 8308.80800408 0 93.70824685 0 2752.07099977 0 334.44757746 0 1070.39433805 0 32791
0.17550000 0.17549800 8098.39426305 0 94.28657833 0 2885.87970607 0 272.95672170 0 1057.49231914 0 33633
0.17650000 0.17650100 8017.81003796 0 177.85856839 0 2454.07010824 0 272.44189990 0 1202.43489000 0 33984
0.17750000 0.17750300 7905.34732739 0 98.12728387 0 2669.33981039 0 371.93851984 0 1216.18220584 0 34069
