### header ###
fiducial parameters:
Omega_m = 0.31
Omega_nu = 0
Omega_de = 0.69
Omega_k = 0
H_0 = 100
w_de = -1
zeff = 0
beta = 0
fgrowth = 0
b_1 = 2
gamma = 0.55
Lx = 3500 Ly = 3500 Lz = 3500
nx = 700 ny = 700 nz = 700
xoffset = 857.220397 yoffset = 15.9954215 zoffset = 262.898189
bins = 400 dk = 0.001
kx_ny = 0.628318531 ky_ny = 0.628318531 kz_ny = 0.628318531
############################
A(data) = 3.05626801 (not used)
A(ran) = 3.05312935 (used)
Ngal = 186276
weighted Ngal = 0
Nran = 9360983
weighted Nran = 0
SN(data) = 3453.50479
SN(ran) = 68.5618111
SN(data+ran) = 3522.0666
############################
13 columns: k_central k_mean P_0(k) sigma^{lin}_{P_0(k)} P^img_1(k) sigma^{lin}_{P_1(k)} P_2(k) sigma^{lin}_{P_2(k)} P^img_3(k) sigma^{lin}_{P_3(k)} P_4(k) sigma^{lin}_{P_4(k)} N_modes
### header ###
0.00050000 0 0 0 0 0 0 0 0 0 0 0 0
0.00150000 0.00179520 -34.55331072 0 -2481.26124236 0 218.02366158 0 6657.45524584 0 -4024.47894057 0 3
0.00250000 0.00253879 1688.03100157 0 -2759.74836422 0 1075.66732731 0 407.59049177 0 7220.40951575 0 6
0.00350000 0.00331552 6823.85059861 0 -6402.64093442 0 896.63748312 0 8691.32734846 0 -3726.00594171 0 7
0.00450000 0.00420575 10653.05695468 0 -7558.41588323 0 -936.75648964 0 8313.34922698 0 3503.36237268 0 24
0.00550000 0.00557378 22051.90860406 0 -8098.21441264 0 -3334.64020521 0 10329.92196812 0 10497.66619897 0 45
0.00650000 0.00659388 22057.07930339 0 -6780.84386892 0 -542.12084784 0 1553.95251966 0 10650.83130583 0 40
0.00750000 0.00754703 31785.52529155 0 -3209.64416908 0 -1125.29030403 0 9687.46257559 0 27423.25355586 0 57
0.00850000 0.00846663 32827.53361431 0 -3145.54997861 0 5726.30222059 0 2356.62490705 0 19030.87131360 0 75
0.00950000 0.00948925 41826.23655700 0 -8052.07154138 0 8067.37006703 0 9377.45666908 0 27247.44977843 0 112
0.01050000 0.01054430 48285.67649957 0 -7538.76722575 0 5206.24227387 0 14361.05537391 0 17006.20530393 0 105
0.01150000 0.01145670 64448.04615312 0 -8881.78893444 0 22934.29968644 0 7577.35637971 0 21026.87366390 0 144
0.01250000 0.01249090 68257.72749887 0 -129.90033204 0 19372.58709582 0 -3620.66980371 0 11555.50135797 0 169
0.01350000 0.01339930 77508.78305048 0 5943.60648052 0 49304.64148833 0 -12701.71051301 0 16311.64549526 0 180
0.01450000 0.01448870 71799.99376373 0 10757.15662110 0 51327.05936785 0 -5188.96539369 0 21292.60264718 0 267
0.01550000 0.01550050 67887.34805728 0 4242.74989646 0 58459.36466317 0 13798.57321134 0 12767.69313280 0 238
0.01650000 0.01653350 69513.30818552 0 1256.63730782 0 68925.08493277 0 8341.41713185 0 14363.86553660 0 315
0.01750000 0.01747870 70577.01096420 0 -7253.33338174 0 48218.45740820 0 18954.32248212 0 4324.13220775 0 297
0.01850000 0.01844180 80307.70508249 0 -8054.76929756 0 58407.43285680 0 21391.29556060 0 10237.13039633 0 388
0.01950000 0.01947590 85392.97547319 0 -6893.50891119 0 48276.90879200 0 8660.25818984 0 8767.29166610 0 399
0.02050000 0.02045430 87714.95669469 0 -666.30755712 0 42084.20949128 0 14313.95704735 0 9217.53593113 0 462
0.02150000 0.02154770 86028.18464600 0 3601.03238688 0 41656.95235699 0 6274.85721691 0 14598.79513687 0 571
0.02250000 0.02255340 75812.11922914 0 10196.84390411 0 30370.10255150 0 141.41300652 0 -150.41002337 0 510
0.02350000 0.02348930 75212.43051264 0 7582.65072621 0 30401.57637355 0 3443.86560836 0 6330.37479087 0 555
0.02450000 0.02439640 66988.09599881 0 3757.49100440 0 41363.00934038 0 4133.97411934 0 -4596.57185952 0 592
0.02550000 0.02547300 64497.95464237 0 5261.06292748 0 27321.97529278 0 -1582.68362292 0 -649.00369939 0 837
0.02650000 0.02652900 60349.92970962 0 1278.35424503 0 28845.19587333 0 3325.07441143 0 -18902.72789526 0 723
0.02750000 0.02749970 57806.84488824 0 711.14651289 0 17263.39139266 0 -2270.65641026 0 -14413.54921283 0 826
0.02850000 0.02848090 59357.38025007 0 1272.32925624 0 15986.34106311 0 7278.55740198 0 -30024.34013501 0 831
0.02950000 0.02946900 57821.12051467 0 1067.68871342 0 12384.72416239 0 3927.76438168 0 -16697.19981534 0 996
0.03050000 0.03053250 54311.56454344 0 942.51619908 0 6658.84908653 0 4910.86045396 0 -20911.20736788 0 1041
0.03150000 0.03150510 56989.19995407 0 437.44228791 0 12219.71140966 0 4374.29923197 0 -20957.40644238 0 1036
0.03250000 0.03246190 54539.63734677 0 555.93335946 0 5915.54981629 0 -977.95572270 0 -12445.76089586 0 1059
0.03350000 0.03345080 55775.77170766 0 382.18437298 0 9423.07122974 0 -994.41203537 0 -17294.30318217 0 1302
0.03450000 0.03451200 55187.09882887 0 -302.78378842 0 14840.46912759 0 -1854.23526328 0 -5767.79146244 0 1339
0.03550000 0.03553350 56941.53959497 0 -652.07127297 0 18454.56315062 0 -2081.25144545 0 -10350.39119310 0 1365
0.03650000 0.03647120 57119.02947001 0 -954.18174641 0 18850.12164984 0 -2697.63252828 0 -1707.99439727 0 1308
0.03750000 0.03744890 59399.42028381 0 1129.78656432 0 28435.02452816 0 -4986.84725290 0 -1187.34993671 0 1579
0.03850000 0.03847530 58604.03183808 0 2495.04228016 0 27192.82021588 0 -3371.52078025 0 -3239.30824636 0 1662
0.03950000 0.03950240 57262.23536032 0 2312.02200495 0 31877.13659500 0 4590.02980079 0 1458.89033642 0 1683
0.04050000 0.04050350 54478.26339378 0 929.12183967 0 25202.66300396 0 4894.83128602 0 -4505.70243901 0 1822
0.04150000 0.04152450 55134.60498996 0 180.92276978 0 25764.02110146 0 7845.82808177 0 -1827.97710318 0 1887
0.04250000 0.04250150 54057.52583692 0 1532.12317594 0 16589.85160086 0 8596.13027742 0 -7932.45977696 0 1920
0.04350000 0.04349210 50520.54267790 0 1339.24485004 0 13596.57871770 0 3006.49188842 0 545.56835542 0 2005
0.04450000 0.04448520 48086.49216861 0 2286.52820910 0 10102.48988188 0 2921.37768108 0 -2933.37145541 0 2151
0.04550000 0.04548030 47024.36308104 0 2394.94428540 0 9522.92193019 0 2048.43998596 0 1477.71842640 0 2274
0.04650000 0.04648670 43735.79830318 0 3253.35905977 0 10145.92375630 0 360.81702001 0 4115.66309930 0 2311
0.04750000 0.04749250 41365.93190957 0 2350.68984347 0 13790.92956884 0 759.41723932 0 4777.41144848 0 2568
0.04850000 0.04851840 40291.32569969 0 2411.29943221 0 18470.86209418 0 -254.22530132 0 12307.38848536 0 2493
0.04950000 0.04949480 37478.91488679 0 2405.12831496 0 15282.11429481 0 281.98408830 0 6410.92529401 0 2644
0.05050000 0.05050630 36461.29877612 0 1651.88106882 0 20014.65306557 0 914.19650363 0 11907.22131934 0 2829
0.05150000 0.05149060 35240.78891974 0 920.36762088 0 14655.89764259 0 -520.05994672 0 4240.43432241 0 2784
0.05250000 0.05249300 35495.83928483 0 -259.14983041 0 16921.67561043 0 317.35504396 0 5295.02093334 0 3055
0.05350000 0.05348950 35835.08212389 0 -574.36128227 0 16250.72116830 0 -2924.16536246 0 528.09701199 0 3009
0.05450000 0.05448610 36401.38610772 0 -561.29739799 0 14144.22322131 0 -3442.51673027 0 -3802.16135041 0 3336
0.05550000 0.05550870 36777.27346816 0 1031.31733985 0 16910.65977272 0 -4190.62699902 0 -6135.22585353 0 3349
0.05650000 0.05647670 35931.97653319 0 1073.54734058 0 14938.93722799 0 -2103.53041519 0 -8966.90314178 0 3324
0.05750000 0.05747970 34695.39254628 0 926.42183536 0 18189.05898035 0 896.51720816 0 -7882.25903079 0 3639
0.05850000 0.05849280 34087.27334173 0 1297.83429275 0 14048.56528359 0 3310.36039963 0 -12011.53455812 0 3846
0.05950000 0.05951020 32842.82089930 0 655.52552494 0 15207.70118697 0 4242.57004605 0 -9647.62570940 0 3787
0.06050000 0.06049470 31191.11968089 0 764.58007020 0 11640.93030352 0 3779.55640179 0 -8475.28204141 0 3930
0.06150000 0.06148310 31162.90564756 0 687.65242879 0 11644.86453128 0 3630.87631457 0 -6247.72228605 0 4083
0.06250000 0.06249100 30666.06888525 0 -375.33881669 0 9100.80177328 0 2312.53907489 0 -4392.03697882 0 4303
0.06350000 0.06350600 30837.48880889 0 107.30280225 0 10437.13529479 0 1091.45032500 0 955.48004157 0 4470
0.06450000 0.06451750 31326.79433521 0 75.20917072 0 10563.78370657 0 604.35808281 0 602.88668163 0 4479
0.06550000 0.06550280 30813.32140982 0 370.63910062 0 10620.68388057 0 403.20776205 0 1580.26688302 0 4636
0.06650000 0.06648880 30664.60760065 0 799.52050893 0 12093.92852798 0 -278.16001892 0 763.25030122 0 4653
0.06750000 0.06749660 30735.87332629 0 162.99955219 0 11727.14609463 0 -437.42093068 0 317.14034753 0 5220
0.06850000 0.06852730 30122.80823542 0 175.75319450 0 11425.67184202 0 874.05613987 0 -187.48843387 0 5029
0.06950000 0.06949320 30744.41622084 0 -396.73989162 0 9358.10026852 0 218.28219655 0 -2536.43035615 0 5040
0.07050000 0.07048030 30480.37333517 0 -1009.37109337 0 9246.10966528 0 2234.18049864 0 -2738.96440102 0 5475
0.07150000 0.07148790 31250.80753627 0 -642.17612813 0 5957.29759311 0 1339.04251833 0 -3512.24248675 0 5509
0.07250000 0.07249820 31628.83062036 0 50.78065134 0 5444.00451813 0 1240.34960491 0 -4814.02224791 0 5916
0.07350000 0.07351270 30458.22925323 0 907.42401156 0 6776.85343791 0 -1319.32641695 0 -5588.01973529 0 5721
0.07450000 0.07449140 29734.33134615 0 1536.02368174 0 6179.70510847 0 -2605.51539554 0 -7080.42969220 0 6028
0.07550000 0.07549160 28646.12394889 0 1275.15065957 0 9423.05998909 0 -3333.11147671 0 -4930.75640575 0 6183
0.07650000 0.07648840 27641.54699306 0 1192.80165232 0 9174.59664533 0 -1903.86273626 0 -6890.53013875 0 6330
0.07750000 0.07749960 27378.40335945 0 774.57750496 0 10755.87518692 0 -794.28798602 0 -5893.57434412 0 6583
0.07850000 0.07848650 26785.79625291 0 664.79231740 0 10117.15893108 0 648.68896116 0 -7311.78476554 0 6549
0.07950000 0.07947320 26329.31342672 0 880.71734949 0 10223.19198942 0 1479.43824596 0 -4887.25508742 0 6828
0.08050000 0.08048110 25241.78046850 0 810.76902812 0 9667.92632462 0 2127.19198498 0 -5215.34720096 0 7147
0.08150000 0.08149960 24454.14807178 0 954.94835879 0 9266.94983174 0 2127.25942889 0 -1025.29909545 0 7386
0.08250000 0.08250610 24013.40215662 0 355.79132507 0 8240.25127527 0 2956.67332438 0 -1032.22446037 0 7227
0.08350000 0.08350160 23357.62259297 0 263.35720598 0 8102.51958187 0 2875.06620007 0 2759.41114470 0 7798
0.08450000 0.08449610 23379.76667491 0 -328.87221470 0 6739.38834902 0 2316.36089614 0 2876.75229768 0 7371
0.08550000 0.08548940 23498.13072711 0 -89.04674899 0 6003.65403672 0 1524.54697734 0 2904.03335700 0 8256
0.08650000 0.08650700 23340.87402338 0 105.00779859 0 5637.37743265 0 -107.42880995 0 2986.86571224 0 8037
0.08750000 0.08749060 23270.17033028 0 424.12099273 0 6086.11545049 0 -943.90104725 0 2106.66655675 0 8155
0.08850000 0.08849210 23216.66483280 0 604.20408590 0 6425.24588304 0 -1949.65714734 0 2367.96672364 0 8718
0.08950000 0.08949900 22834.14548843 0 584.73977509 0 7388.51344743 0 -2366.77521466 0 1055.37682868 0 8571
0.09050000 0.09049190 22520.30652002 0 506.45763527 0 8122.55042147 0 -891.34088849 0 -44.20790563 0 8932
0.09150000 0.09150830 22772.09709639 0 67.96648224 0 9166.05375078 0 -863.42136021 0 -779.86510707 0 9285
0.09250000 0.09250820 22184.88550221 0 267.00254901 0 9023.78083448 0 187.91557860 0 -1153.26828370 0 9204
0.09350000 0.09350330 22374.96490607 0 530.78689971 0 9482.74784447 0 805.25436487 0 -1065.31356392 0 9349
0.09450000 0.09448040 21073.18514491 0 512.35785284 0 8242.85910624 0 964.54337825 0 -1721.40449359 0 9564
0.09550000 0.09549270 20951.11167797 0 744.90443516 0 7904.36939078 0 1311.36803623 0 -648.31127530 0 10155
0.09650000 0.09649430 20559.59981301 0 555.02961114 0 7858.29396343 0 982.88025179 0 -979.35630778 0 9913
0.09750000 0.09749140 19726.44278083 0 255.19874168 0 6767.95084253 0 735.87257230 0 100.75433636 0 10476
0.09850000 0.09850240 19250.17640936 0 551.32694079 0 7072.12285131 0 100.42195031 0 -484.51251285 0 10575
0.09950000 0.09950330 18812.69028291 0 499.57723296 0 7173.32242984 0 -109.51338862 0 265.74696832 0 10882
0.10050000 0.10051200 18673.30621384 0 709.52898325 0 8673.92682112 0 -518.18050992 0 307.44416221 0 10875
0.10150000 0.10150300 17997.18107238 0 272.86117617 0 7432.23957878 0 88.33993688 0 -826.20019344 0 11118
0.10250000 0.10250800 17885.78622363 0 256.67351505 0 8413.63831280 0 596.40082616 0 943.47277846 0 11575
0.10350000 0.10349800 17473.36674831 0 259.09362715 0 7355.66826600 0 1259.18893554 0 -788.31133202 0 11364
0.10450000 0.10450100 17436.16019439 0 201.10423410 0 7185.02394725 0 1774.97743498 0 1109.94793985 0 12093
0.10550000 0.10551000 16895.03526820 0 513.27621400 0 6007.03747259 0 1562.87759634 0 -88.22415817 0 12067
0.10650000 0.10649700 16229.58874493 0 336.41356727 0 4814.92149997 0 1516.19517385 0 820.98790370 0 12054
0.10750000 0.10749900 15997.35690082 0 190.16370874 0 4667.18562741 0 853.15527390 0 620.55136426 0 12807
0.10850000 0.10850100 15716.67785207 0 -58.21319441 0 3989.22825987 0 498.92302709 0 503.93860544 0 12736
0.10950000 0.10950300 15921.14528887 0 -90.62482395 0 3948.55958553 0 90.91101092 0 50.81246238 0 12933
0.11050000 0.11050200 16175.52121491 0 -101.98563724 0 4404.39045397 0 -299.05076831 0 509.59040463 0 13428
0.11150000 0.11150900 16216.21237056 0 168.33661315 0 3936.02625996 0 -577.69638334 0 861.88251512 0 13453
0.11250000 0.11250000 15926.54080122 0 391.01165600 0 5173.61066480 0 -203.32538668 0 1001.37786663 0 13668
0.11350000 0.11349100 15700.37890851 0 593.35348575 0 4908.90458073 0 -191.30575886 0 1203.53647377 0 13791
0.11450000 0.11448600 15240.97351314 0 539.04877800 0 6149.78249623 0 -170.21267776 0 1509.20348910 0 14205
0.11550000 0.11549300 14903.07955216 0 486.01763598 0 5660.67930162 0 -83.55895090 0 1525.56987656 0 14776
0.11650000 0.11649800 14642.07164219 0 164.54176947 0 6016.22108424 0 257.87514061 0 1329.13950504 0 14553
0.11750000 0.11747300 14499.20297140 0 173.99403267 0 5939.12146088 0 -162.19809379 0 1337.97465651 0 14568
0.11850000 0.11849100 14472.45022266 0 111.03537273 0 5563.94226143 0 294.02282524 0 929.24661089 0 16015
0.11950000 0.11950300 14335.20187723 0 230.68063430 0 5308.53219552 0 675.31693868 0 1008.17508813 0 15270
0.12050000 0.12050700 13948.74830510 0 117.91555023 0 4729.07665034 0 809.45387198 0 1056.91792189 0 15999
0.12150000 0.12150000 13907.94474295 0 77.14953185 0 4098.29629392 0 928.51034827 0 974.81058863 0 15670
0.12250000 0.12250700 13896.02965317 0 -153.13925336 0 3985.32775407 0 1056.61105213 0 975.79526963 0 16887
0.12350000 0.12352200 14096.78767523 0 -232.62301875 0 3417.97838972 0 662.42503636 0 825.75393961 0 16407
0.12450000 0.12449800 14031.81671400 0 -75.58876750 0 3292.10558284 0 118.35843187 0 930.06605433 0 16306
0.12550000 0.12549900 14117.58287908 0 113.66321206 0 2797.23593441 0 -437.55919068 0 586.46296685 0 17523
0.12650000 0.12650100 13983.81913538 0 252.62800485 0 3169.16658579 0 -603.24413432 0 283.46785420 0 17154
0.12750000 0.12750600 13817.56991107 0 190.71225250 0 2667.95721035 0 -703.87605999 0 -434.68495629 0 18007
0.12850000 0.12850300 13768.33586087 0 46.55832570 0 2761.83912526 0 -215.09097580 0 -594.23250463 0 17496
0.12950000 0.12949900 13694.14756604 0 -53.03024277 0 2431.98222955 0 131.15029240 0 -1387.65833274 0 18405
0.13050000 0.13049000 13710.22169659 0 15.00851686 0 2651.79315460 0 156.65982517 0 -1771.40290805 0 18100
0.13150000 0.13148800 13709.99688358 0 315.98480863 0 2561.89043005 0 100.32314499 0 -1051.98552435 0 19059
0.13250000 0.13249300 13347.26108449 0 454.09531197 0 2722.41816314 0 54.17038197 0 -1067.95848904 0 18957
0.13350000 0.13349100 12929.44609682 0 364.38592662 0 2697.11545835 0 490.45094863 0 80.52644815 0 19468
0.13450000 0.13450700 12699.57478937 0 119.67358801 0 2759.17509103 0 970.21541061 0 147.07267416 0 19953
0.13550000 0.13551000 12673.38407316 0 42.31127064 0 2320.98080359 0 691.97333493 0 240.67919313 0 19956
0.13650000 0.13649900 12743.30092071 0 -9.74338481 0 2578.92001591 0 186.98372865 0 343.77394537 0 19723
0.13750000 0.13749600 12580.64870463 0 113.38669205 0 2716.84280038 0 -613.11005347 0 -85.99412547 0 20946
0.13850000 0.13851100 12774.43752323 0 184.41636402 0 2998.75832071 0 -590.17013346 0 834.32156360 0 20955
0.13950000 0.13949800 12484.20392136 0 227.02742281 0 3369.21644685 0 -677.63026460 0 514.36093680 0 20506
0.14050000 0.14048300 12622.46392535 0 333.49549434 0 3778.31993021 0 -271.52691093 0 878.92671383 0 21447
0.14150000 0.14148400 12270.63155747 0 362.00066053 0 4031.24581231 0 290.82373604 0 728.12888801 0 21771
0.14250000 0.14249400 11892.04644085 0 519.28546588 0 4099.08313947 0 329.73662074 0 1002.82229025 0 22470
0.14350000 0.14350900 11494.91425053 0 553.37273923 0 4025.88402191 0 250.91492968 0 1003.97333288 0 22519
0.14450000 0.14449900 10892.75259087 0 492.72830447 0 4076.43322824 0 125.61539598 0 1041.55195234 0 22218
0.14550000 0.14550500 10577.75583543 0 302.94340566 0 3808.01772944 0 186.10695789 0 887.27402106 0 23559
0.14650000 0.14650700 10164.57199586 0 228.77984026 0 3433.37808123 0 -74.06194991 0 -49.60960034 0 23044
0.14750000 0.14750500 10177.45378160 0 106.32711377 0 3475.26074585 0 -98.77901680 0 781.47589232 0 23649
0.14850000 0.14849900 9988.32983305 0 3.05701861 0 3237.57718614 0 144.08828140 0 -28.59183161 0 23640
0.14950000 0.14949500 10072.91572980 0 -0.92193344 0 3085.92956713 0 95.02733721 0 463.23171288 0 24457
0.15050000 0.15050000 10255.68871069 0 -182.07718461 0 3392.99042315 0 292.77848520 0 93.66497035 0 24591
0.15150000 0.15149900 10410.16897368 0 -129.32143853 0 3417.70861411 0 111.16924888 0 551.14371819 0 25020
0.15250000 0.15250500 10629.62019791 0 41.44967476 0 3666.85763756 0 -106.62926246 0 256.26772756 0 25297
0.15350000 0.15350100 10538.54844568 0 149.84686676 0 3652.82930545 0 -286.21506924 0 384.19757353 0 25452
0.15450000 0.15450400 10427.89547989 0 310.34200197 0 3938.19570555 0 -435.48866282 0 323.28111502 0 26061
0.15550000 0.15549900 10240.96345823 0 309.72826244 0 3982.48386944 0 -156.08542792 0 199.65643828 0 26128
0.15650000 0.15649500 9964.48841285 0 255.21447859 0 3788.87490124 0 -18.99861065 0 19.99531915 0 26331
0.15750000 0.15749700 9808.27708964 0 164.98015484 0 3733.98680373 0 512.03974242 0 -134.84621836 0 27345
0.15850000 0.15849900 9571.69511371 0 48.44911556 0 3304.36913279 0 442.68492741 0 -275.47013120 0 26980
0.15950000 0.15949700 9607.41790173 0 -42.53136258 0 3272.41196276 0 588.93366188 0 -363.02580788 0 27777
0.16050000 0.16050000 9575.25839999 0 -1.39056966 0 2915.03795407 0 444.00233168 0 -98.88377967 0 28224
0.16150000 0.16150500 9541.62637300 0 85.21739651 0 2640.96840794 0 224.66463803 0 -352.60347652 0 28075
0.16250000 0.16249700 9417.22609136 0 166.74493701 0 2628.40136043 0 -38.68481190 0 15.68767697 0 28590
0.16350000 0.16349900 9303.07728319 0 185.73826455 0 2741.85324826 0 37.85468984 0 169.21675610 0 29163
0.16450000 0.16449100 9144.52790463 0 140.50138975 0 2657.40223931 0 87.64020637 0 219.85813578 0 28996
0.16550000 0.16550500 9096.84506423 0 95.56936139 0 2528.73051040 0 199.72950251 0 209.13455498 0 30777
0.16650000 0.16650700 8998.52309228 0 135.18006569 0 2658.33521332 0 155.93480320 0 -31.73887659 0 29211
0.16750000 0.16749900 8803.44159885 0 149.52313602 0 2546.56942311 0 46.60992029 0 31.91007170 0 30922
0.16850000 0.16850800 8741.11219054 0 161.74734369 0 2684.00885959 0 34.99765364 0 -207.45295363 0 30867
0.16950000 0.16949900 8584.94582994 0 79.22118378 0 2485.04934166 0 -27.98966995 0 -355.63508002 0 30852
0.17050000 0.17049200 8511.87035954 0 152.26248261 0 2663.91057609 0 92.76504385 0 -517.49707835 0 31257
0.17150000 0.17149500 8389.84185520 0 57.34159435 0 2274.82669168 0 95.09691684 0 -692.33191169 0 32608
0.17250000 0.17250900 8360.96462347 0 25.99524129 0 2274.72552583 0 103.10936509 0 -689.19239794 0 32361
0.17350000 0.17350400 8406.24196462 0 52.05185653 0 2150.29152224 0 171.75377097 0 -796.92391861 0 32508
0.17450000 0.17449800 8245.86035999 0 99.40287292 0 1972.67800004 0 22.16858656 0 -799.57896032 0 32791
0.17550000 0.17549800 8171.67206516 0 103.00561388 0 2153.58503290 0 -28.29867543 0 -617.41971896 0 33633
0.17650000 0.17650100 8158.61042901 0 84.63760374 0 1948.26330665 0 35.29721699 0 -313.32077441 0 33984
0.17750000 0.17750300 8149.92140600 0 11.09265632 0 2242.27376717 0 131.73817844 0 -201.91468502 0 34069
0.17850000 0.17849800 8200.24579932 0 -21.71581315 0 2058.96123505 0 286.22518582 0 105.03151637 0 34536
