### header ###
fiducial parameters:
Omega_m = 0.31
Omega_nu = 0
Omega_de = 0.69
Omega_k = 0
H_0 = 100
w_de = -1
zeff = 0
beta = 0
fgrowth = 0
b_1 = 2
gamma = 0.55
Lx = 3500 Ly = 3500 Lz = 3500
nx = 700 ny = 700 nz = 700
xoffset = 857.220397 yoffset = 15.9954215 zoffset = 262.898189
bins = 400 dk = 0.001
kx_ny = 0.628318531 ky_ny = 0.628318531 kz_ny = 0.628318531
############################
A(data) = 3.0980669 (not used)
A(ran) = 3.09281688 (used)
Ngal = 188766
weighted Ngal = 0
Nran = 9360983
weighted Nran = 0
SN(data) = 3458.97769
SN(ran) = 69.4530438
SN(data+ran) = 3528.43073
############################
13 columns: k_central k_mean P_0(k) sigma^{lin}_{P_0(k)} P^img_1(k) sigma^{lin}_{P_1(k)} P_2(k) sigma^{lin}_{P_2(k)} P^img_3(k) sigma^{lin}_{P_3(k)} P_4(k) sigma^{lin}_{P_4(k)} N_modes
### header ###
0.00050000 0 0 0 0 0 0 0 0 0 0 0 0
0.00150000 0.00179520 27264.98519357 0 -40631.24297779 0 -21662.08283671 0 3771.02474788 0 -96541.34046168 0 3
0.00250000 0.00253879 51793.54637319 0 -53570.35603424 0 -49322.51412299 0 7456.09223963 0 43039.32758389 0 6
0.00350000 0.00331552 81689.63068336 0 -58883.81163478 0 -58734.64819957 0 -25384.31191977 0 -29642.60763619 0 7
0.00450000 0.00420575 111167.00075380 0 -49955.36275915 0 -89139.14714231 0 -12402.70920356 0 977.78261668 0 24
0.00550000 0.00557378 137147.17956882 0 -20857.81427691 0 -100582.01717995 0 -31460.89529843 0 2884.47462473 0 45
0.00650000 0.00659388 125927.88607422 0 5588.87402475 0 -104674.85051761 0 -54018.07115285 0 18293.03499961 0 40
0.00750000 0.00754703 119561.18150019 0 16606.03813791 0 -76648.42364353 0 -46045.63962190 0 21361.28302315 0 57
0.00850000 0.00846663 88994.70478042 0 22649.79881644 0 -68557.96527990 0 -39346.99863178 0 18308.20987810 0 75
0.00950000 0.00948925 74261.02183477 0 18040.56998420 0 -45870.62269001 0 -28742.23151264 0 13799.58486990 0 112
0.01050000 0.01054430 55949.43976145 0 7962.95566239 0 -37849.96876742 0 -24820.14365958 0 9859.14103420 0 105
0.01150000 0.01145670 53343.51970248 0 1248.28550433 0 -31786.19973059 0 -13026.22809961 0 11986.69272001 0 144
0.01250000 0.01249090 52588.93481891 0 -3871.37003696 0 -29113.84742580 0 -6465.66726307 0 4850.20590261 0 169
0.01350000 0.01339930 59019.48628910 0 -2470.30160790 0 -28769.99591994 0 207.23151281 0 9778.37695870 0 180
0.01450000 0.01448870 59968.30961730 0 -3880.43000145 0 -28191.77684634 0 751.11601876 0 17908.71715112 0 267
0.01550000 0.01550050 64789.98674836 0 -993.80391617 0 -19479.48568427 0 -2551.67267854 0 24355.56756487 0 238
0.01650000 0.01653350 69851.53936602 0 -3925.92091496 0 -6662.13135655 0 -6072.03091512 0 28444.57908128 0 315
0.01750000 0.01747870 73411.90307855 0 -4739.86767504 0 2550.45868826 0 -8802.75591915 0 23196.99369402 0 297
0.01850000 0.01844180 85451.65167001 0 -4007.88774009 0 29302.12832555 0 -14701.53468456 0 44194.19203999 0 388
0.01950000 0.01947590 96702.53139317 0 -5289.15331366 0 43174.88983171 0 -11071.14171797 0 30225.09815707 0 399
0.02050000 0.02045430 97579.63936970 0 2561.76678289 0 55036.69892209 0 -5285.92724690 0 36394.30449776 0 462
0.02150000 0.02154770 97396.97879533 0 3639.23935871 0 55369.64699675 0 3388.16818399 0 31924.12251506 0 571
0.02250000 0.02255340 97313.68557341 0 7811.97124177 0 69146.75056518 0 11731.30513540 0 16079.63846418 0 510
0.02350000 0.02348930 91781.71172266 0 6930.05226672 0 48943.70419336 0 14330.70561694 0 10891.60604449 0 555
0.02450000 0.02439640 81128.49739887 0 5428.87460225 0 47324.93808159 0 8972.16376632 0 -4221.02171860 0 592
0.02550000 0.02547300 75105.08229816 0 5480.90757448 0 35942.43033837 0 4382.87584847 0 -2949.55799246 0 837
0.02650000 0.02652900 71005.39216355 0 5526.07250912 0 34193.83471066 0 4588.66968206 0 -18088.67996933 0 723
0.02750000 0.02749970 64671.73510267 0 4851.06019207 0 26943.72739568 0 1875.05294844 0 -15644.40046787 0 826
0.02850000 0.02848090 60159.06346021 0 4617.25465686 0 26025.47863746 0 4716.91426625 0 -20177.19287514 0 831
0.02950000 0.02946900 55021.63645011 0 2542.69139860 0 23219.58740199 0 5260.57957950 0 -18305.17490240 0 996
0.03050000 0.03053250 54186.68091382 0 -20.84410068 0 23230.94045923 0 5601.80077309 0 -7809.88048073 0 1041
0.03150000 0.03150510 53940.73547582 0 -272.71954397 0 19043.79806194 0 4942.60405162 0 -15232.76783810 0 1036
0.03250000 0.03246190 56202.24199639 0 -151.03275542 0 21300.92072872 0 1854.50503890 0 -1907.34733799 0 1059
0.03350000 0.03345080 55521.62059463 0 1020.24417482 0 21572.04522435 0 -1673.85654100 0 -9758.04262153 0 1302
0.03450000 0.03451200 54587.29770587 0 3775.41984232 0 24103.21495596 0 -8184.98099563 0 -3923.32432464 0 1339
0.03550000 0.03553350 52659.97573153 0 2685.60503200 0 27885.35670741 0 -5884.78415524 0 -6040.20863290 0 1365
0.03650000 0.03647120 50768.62383954 0 2322.01494345 0 34885.80916966 0 -2338.07783335 0 -3886.45499024 0 1308
0.03750000 0.03744890 51731.27316814 0 1526.90751400 0 31571.61570813 0 -204.03129955 0 -9429.04001528 0 1579
0.03850000 0.03847530 50711.52133382 0 -671.74128768 0 35333.07466225 0 2755.67924865 0 -9524.01227331 0 1662
0.03950000 0.03950240 49602.18151318 0 91.32489168 0 27843.20426717 0 7720.14636595 0 -10079.28917877 0 1683
0.04050000 0.04050350 50666.67113741 0 -557.92745090 0 27643.68271670 0 6056.31648540 0 -11213.24602451 0 1822
0.04150000 0.04152450 49779.55898172 0 288.93980298 0 21231.22869419 0 8739.74083115 0 -8327.84966642 0 1887
0.04250000 0.04250150 49930.29610802 0 859.83671669 0 15279.64135165 0 5586.73830111 0 -12114.83613834 0 1920
0.04350000 0.04349210 46172.99619468 0 1752.38372701 0 11777.16699038 0 2613.27144454 0 -4187.23232250 0 2005
0.04450000 0.04448520 44322.44786483 0 3338.74304272 0 15060.11144287 0 2608.65153709 0 -7067.39053735 0 2151
0.04550000 0.04548030 40773.54961605 0 3496.14587491 0 11525.15160099 0 1134.76617260 0 -1859.58581303 0 2274
0.04650000 0.04648670 37662.58711974 0 2803.49697686 0 14404.33187923 0 1433.78996334 0 -2007.72634901 0 2311
0.04750000 0.04749250 37022.20724759 0 1202.91823798 0 13376.93640242 0 466.33638062 0 292.60425511 0 2568
0.04850000 0.04851840 36248.96288381 0 112.88198684 0 14037.99907191 0 2834.86963305 0 2145.31191396 0 2493
0.04950000 0.04949480 37760.26837459 0 -725.51880891 0 12908.98811248 0 -44.29648196 0 1480.28129476 0 2644
0.05050000 0.05050630 38145.59788165 0 -892.53352154 0 12479.37044155 0 1847.70444521 0 1630.45638853 0 2829
0.05150000 0.05149060 39383.75555967 0 -943.42893992 0 14493.02061350 0 177.84170741 0 956.33320696 0 2784
0.05250000 0.05249300 39239.76282380 0 -942.08680622 0 11025.13373453 0 905.39507410 0 286.56690161 0 3055
0.05350000 0.05348950 40268.05755267 0 -302.20039864 0 14318.34090114 0 669.53924421 0 -1229.24384199 0 3009
0.05450000 0.05448610 40488.71152652 0 348.69959852 0 11739.73562345 0 1006.98245509 0 -137.86545715 0 3336
0.05550000 0.05550870 39594.63016738 0 1317.16821201 0 13440.78329857 0 480.86829388 0 -1742.27838200 0 3349
0.05650000 0.05647670 38792.16011169 0 1552.43503181 0 12176.43490435 0 228.62921554 0 -163.20975235 0 3324
0.05750000 0.05747970 37069.19316765 0 2291.95744340 0 12033.79104657 0 309.58100991 0 -625.89741774 0 3639
0.05850000 0.05849280 36350.69077292 0 1891.84648063 0 13625.01756405 0 235.84908551 0 961.76019313 0 3846
0.05950000 0.05951020 34068.38904850 0 1666.53887738 0 11597.31657869 0 794.03057512 0 -70.44538294 0 3787
0.06050000 0.06049470 34299.27201452 0 641.11725883 0 13602.42385608 0 -594.40448659 0 -1438.08389192 0 3930
0.06150000 0.06148310 33253.32946400 0 -504.70521782 0 12036.15158322 0 437.15227912 0 -2935.31608799 0 4083
0.06250000 0.06249100 33588.86288832 0 -229.43292207 0 12968.00152882 0 -677.71906574 0 -3741.78781533 0 4303
0.06350000 0.06350600 33815.69922007 0 -51.45969905 0 13258.23513070 0 64.14915725 0 -4871.69802681 0 4470
0.06450000 0.06451750 33626.85628779 0 316.81099646 0 11503.90677111 0 755.84046426 0 -4123.27301984 0 4479
0.06550000 0.06550280 34046.13256006 0 249.24906524 0 10990.78230589 0 2387.60414047 0 -2657.49216452 0 4636
0.06650000 0.06648880 32776.61346650 0 414.98009556 0 10538.02013510 0 1617.29358652 0 -4200.92343509 0 4653
0.06750000 0.06749660 32976.92186252 0 472.22760566 0 10271.72911928 0 1239.30422439 0 -3055.57981016 0 5220
0.06850000 0.06852730 32180.97138426 0 1074.07565117 0 11215.12321318 0 -1819.28808016 0 -1669.57385307 0 5029
0.06950000 0.06949320 31376.25319843 0 1447.44735398 0 10487.50465071 0 -2309.59402440 0 -2195.08551540 0 5040
0.07050000 0.07048030 30570.07372800 0 1310.56995003 0 13475.96653536 0 -1416.05221649 0 -602.90241854 0 5475
0.07150000 0.07148790 29929.46904284 0 819.72445456 0 13495.75008064 0 -1996.02483160 0 -1908.72993803 0 5509
0.07250000 0.07249820 29748.49456608 0 730.54900011 0 15324.37914156 0 -489.55506877 0 -1337.61495569 0 5916
0.07350000 0.07351270 28940.40418502 0 211.95483425 0 15108.78346054 0 420.92077947 0 -2054.45373410 0 5721
0.07450000 0.07449140 29102.71918158 0 397.86170856 0 16134.83005926 0 1480.66347689 0 -2671.05962995 0 6028
0.07550000 0.07549160 28969.74228343 0 762.54888461 0 14381.85057777 0 546.35632504 0 -2052.27304786 0 6183
0.07650000 0.07648840 27671.55953051 0 842.82399181 0 15259.74539986 0 2279.19930482 0 -2017.70804686 0 6330
0.07750000 0.07749960 26845.48410829 0 809.66744435 0 12893.81323400 0 1522.25388459 0 -237.44975417 0 6583
0.07850000 0.07848650 26653.94341983 0 228.71127229 0 12874.14209522 0 2844.72768375 0 -887.02672674 0 6549
0.07950000 0.07947320 25992.99315685 0 175.77005548 0 11139.58604027 0 1784.85796697 0 -182.13001566 0 6828
0.08050000 0.08048110 25951.40274915 0 15.07315060 0 11410.27215052 0 1542.88047869 0 -437.28829100 0 7147
0.08150000 0.08149960 25870.91968991 0 324.77499751 0 11165.32713044 0 122.56018712 0 593.40182054 0 7386
0.08250000 0.08250610 25566.86008764 0 482.45547376 0 10407.62858662 0 142.02000166 0 483.14452565 0 7227
0.08350000 0.08350160 25570.68190889 0 275.16438550 0 11648.91116554 0 296.25297034 0 701.69537375 0 7798
0.08450000 0.08449610 24826.32601748 0 480.64572900 0 10975.40509569 0 453.09826625 0 1149.97477303 0 7371
0.08550000 0.08548940 25003.47867300 0 333.96198135 0 10806.66044692 0 1359.82648153 0 -332.20731577 0 8256
0.08650000 0.08650700 23934.04316246 0 633.31624723 0 9255.85530947 0 1102.58306549 0 -168.14664615 0 8037
0.08750000 0.08749060 23790.72486564 0 765.63107104 0 8678.02965864 0 1057.76996322 0 -260.77860070 0 8155
0.08850000 0.08849210 22440.04827380 0 644.07354997 0 7320.38386335 0 1786.18436376 0 -547.46465320 0 8718
0.08950000 0.08949900 21670.17610523 0 894.62877883 0 6782.94587060 0 981.14694344 0 -1277.98330356 0 8571
0.09050000 0.09049190 21209.98386431 0 536.38137158 0 5012.08251379 0 1358.35395629 0 377.07324910 0 8932
0.09150000 0.09150830 20177.97972069 0 325.65176826 0 5278.86811824 0 806.30873791 0 621.74961762 0 9285
0.09250000 0.09250820 20523.18010464 0 226.42379987 0 4100.81419968 0 1680.76954120 0 928.66884144 0 9204
0.09350000 0.09350330 19609.65241974 0 144.13211993 0 4167.03287314 0 898.79568806 0 1106.41837552 0 9349
0.09450000 0.09448040 19852.00084950 0 372.86474946 0 4250.52842677 0 138.68265246 0 1413.28701641 0 9564
0.09550000 0.09549270 19676.42188508 0 165.83107210 0 4744.95968982 0 596.21535542 0 2970.62297193 0 10155
0.09650000 0.09649430 19250.62603539 0 291.89609412 0 5325.71915049 0 353.79273737 0 3233.31697952 0 9913
0.09750000 0.09749140 19518.37833580 0 263.33135248 0 5083.80910611 0 732.86345010 0 4303.87655514 0 10476
0.09850000 0.09850240 18765.25473682 0 482.67241832 0 5656.52026085 0 266.57428022 0 3736.38106233 0 10575
0.09950000 0.09950330 18692.07810057 0 806.45037011 0 6636.78368915 0 130.74900117 0 5327.22539768 0 10882
0.10050000 0.10051200 18038.54666707 0 821.57578973 0 6581.61457536 0 -95.49371181 0 4873.94615696 0 10875
0.10150000 0.10150300 17245.06913196 0 607.28290013 0 7678.35362653 0 -308.80652908 0 5789.23862403 0 11118
0.10250000 0.10250800 17406.70968948 0 250.09998250 0 7450.03352888 0 30.12573080 0 5605.10552441 0 11575
0.10350000 0.10349800 16764.64371972 0 111.82131903 0 7571.62364784 0 377.34752097 0 4048.20795426 0 11364
0.10450000 0.10450100 16882.89536541 0 -85.68579442 0 6300.10371845 0 484.71709269 0 4194.62867068 0 12093
0.10550000 0.10551000 16570.18046208 0 29.08338526 0 6807.58537700 0 390.57214656 0 2687.51594262 0 12067
0.10650000 0.10649700 16719.90592981 0 20.65199796 0 5788.73279475 0 427.47070665 0 2201.71749933 0 12054
0.10750000 0.10749900 16266.57048583 0 174.75839691 0 6386.57804453 0 -414.59116904 0 1645.01303123 0 12807
0.10850000 0.10850100 16332.55310562 0 245.18219781 0 5543.50675840 0 -97.84694204 0 1352.05919188 0 12736
0.10950000 0.10950300 16264.09754267 0 18.48547494 0 6745.62691018 0 -477.07794645 0 1301.43130098 0 12933
0.11050000 0.11050200 16289.72622634 0 223.59902434 0 6201.17475137 0 127.13288383 0 1520.15188291 0 13428
0.11150000 0.11150900 16271.51637215 0 198.45256459 0 7195.81497195 0 308.51427216 0 1930.96394517 0 13453
0.11250000 0.11250000 16187.66111770 0 468.13038847 0 6579.31024196 0 -389.14683205 0 1141.60048824 0 13668
0.11350000 0.11349100 16019.16376324 0 390.72389534 0 7022.69771004 0 130.60062458 0 1895.91559619 0 13791
0.11450000 0.11448600 15578.53025459 0 318.89164091 0 6502.44667226 0 -56.05071802 0 1237.08981620 0 14205
0.11550000 0.11549300 15473.09295073 0 250.59119894 0 6452.27964805 0 462.04245204 0 1328.16156842 0 14776
0.11650000 0.11649800 15302.23505962 0 78.03686882 0 6063.79151813 0 198.99998428 0 1134.86733845 0 14553
0.11750000 0.11747300 15045.49859692 0 234.88463767 0 5447.81509873 0 576.83310137 0 134.06049688 0 14568
0.11850000 0.11849100 15019.75750675 0 151.49137397 0 5650.83249158 0 297.78057477 0 640.70809915 0 16015
0.11950000 0.11950300 14720.19416477 0 63.29700352 0 4862.51441516 0 312.59575244 0 -508.48432460 0 15270
0.12050000 0.12050700 14766.50564578 0 62.39808868 0 4901.23845693 0 149.56922269 0 -31.78642454 0 15999
0.12150000 0.12150000 14817.53820010 0 16.59648358 0 4704.38094068 0 314.36840306 0 -705.20695304 0 15670
0.12250000 0.12250700 14675.11915534 0 193.01096557 0 4911.97327838 0 53.65499813 0 -433.80818553 0 16887
0.12350000 0.12352200 14442.10046568 0 231.21231708 0 4262.17374092 0 0.41904247 0 -848.91192825 0 16407
0.12450000 0.12449800 14116.00918798 0 388.17901202 0 4209.52253290 0 335.83130156 0 -909.48554690 0 16306
0.12550000 0.12549900 13759.68055981 0 307.45427879 0 3857.13937313 0 232.52634915 0 -1429.24874045 0 17523
0.12650000 0.12650100 13505.97907281 0 233.73247097 0 3352.86130004 0 802.86909879 0 -926.78828057 0 17154
0.12750000 0.12750600 13060.06245831 0 67.61611116 0 3076.21764490 0 651.71044808 0 -1531.47121819 0 18007
0.12850000 0.12850300 13222.37745486 0 149.13870577 0 2835.80260707 0 269.88465186 0 -1275.18438153 0 17496
0.12950000 0.12949900 12970.58687849 0 85.92387141 0 2726.71209172 0 254.55128019 0 -1200.35536961 0 18405
0.13050000 0.13049000 12781.63153970 0 270.95026555 0 2745.56266300 0 28.57609469 0 -909.51702073 0 18100
0.13150000 0.13148800 12814.79145936 0 132.89484140 0 2734.51310333 0 -52.33950478 0 -223.28203799 0 19059
0.13250000 0.13249300 12703.05939109 0 37.30423517 0 2892.99503798 0 363.85199571 0 -13.63389768 0 18957
0.13350000 0.13349100 12928.32203174 0 -67.63679395 0 2763.66011067 0 319.86508127 0 130.63996686 0 19468
0.13450000 0.13450700 12877.17707092 0 21.70963079 0 2964.90148071 0 172.40235652 0 -91.46899682 0 19953
0.13550000 0.13551000 12935.51604821 0 121.52941944 0 2911.10372631 0 18.69679917 0 -13.12964209 0 19956
0.13650000 0.13649900 12526.01914208 0 189.71857897 0 2982.83031863 0 -115.93944383 0 132.64192676 0 19723
0.13750000 0.13749600 12719.80796068 0 166.58756790 0 2966.84611329 0 -33.01896190 0 -641.49269657 0 20946
0.13850000 0.13851100 12351.22702321 0 121.28324919 0 2843.01910483 0 36.82909287 0 -488.41189459 0 20955
0.13950000 0.13949800 12442.05148112 0 170.93207941 0 2857.29473126 0 92.83293738 0 -591.30206699 0 20506
0.14050000 0.14048300 12165.64387964 0 183.25745293 0 2723.39609976 0 15.15307162 0 -165.65122169 0 21447
0.14150000 0.14148400 12098.98682081 0 288.96003615 0 3021.13845632 0 -190.37728111 0 -463.37896541 0 21771
0.14250000 0.14249400 11890.58515626 0 224.58370534 0 2754.71255269 0 -114.02403695 0 -382.18324892 0 22470
0.14350000 0.14350900 11748.95295705 0 246.33998483 0 3199.88728424 0 -374.06412690 0 -387.99691348 0 22519
0.14450000 0.14449900 11572.92436660 0 192.39160572 0 3320.48822593 0 -168.10617981 0 -58.48802832 0 22218
0.14550000 0.14550500 11489.51873818 0 96.46602810 0 3392.61948168 0 30.02602623 0 -101.97967969 0 23559
0.14650000 0.14650700 11356.54184003 0 23.99699081 0 3737.02177942 0 210.89034462 0 103.29348695 0 23044
0.14750000 0.14750500 11310.23035902 0 264.02377656 0 3733.53717770 0 342.44530045 0 186.28006391 0 23649
0.14850000 0.14849900 11001.77566231 0 332.67492684 0 3566.81584605 0 473.04030471 0 459.50543717 0 23640
0.14950000 0.14949500 10740.48673606 0 273.71883782 0 3635.66483178 0 356.99744689 0 948.71541796 0 24457
0.15050000 0.15050000 10489.53920850 0 206.08609050 0 3277.31288648 0 386.15344676 0 852.37067648 0 24591
0.15150000 0.15149900 10445.35221047 0 82.77008203 0 3291.59975356 0 643.01130848 0 1388.01803356 0 25020
0.15250000 0.15250500 10152.16231746 0 158.14021887 0 2811.83753971 0 163.09397365 0 839.94413709 0 25297
0.15350000 0.15350100 10110.16724632 0 162.53756144 0 2748.23793787 0 -27.63671351 0 1011.70352839 0 25452
0.15450000 0.15450400 10045.12884120 0 60.50718641 0 2603.27850604 0 25.11318742 0 694.31813468 0 26061
0.15550000 0.15549900 9925.33722635 0 105.82634278 0 2380.53377116 0 -353.62525167 0 -5.53624530 0 26128
0.15650000 0.15649500 9912.80390079 0 134.75292096 0 2591.99289271 0 -163.33339951 0 -150.26951523 0 26331
0.15750000 0.15749700 9653.49332908 0 173.66692973 0 2309.44789594 0 -290.21112057 0 -817.39651579 0 27345
0.15850000 0.15849900 9633.11402930 0 231.45623920 0 2610.91090789 0 -28.40444996 0 -464.68850122 0 26980
0.15950000 0.15949700 9473.09212549 0 156.89700290 0 2508.74463340 0 230.15344778 0 -611.61392286 0 27777
0.16050000 0.16050000 9245.54763275 0 165.39156266 0 2449.84362357 0 494.96294583 0 -187.90546201 0 28224
0.16150000 0.16150500 9142.26853383 0 70.11996611 0 2299.53364199 0 412.74433013 0 -8.07225975 0 28075
0.16250000 0.16249700 9107.17522225 0 183.26307326 0 2626.26563679 0 153.22018605 0 319.98760436 0 28590
0.16350000 0.16349900 9031.23338591 0 281.93238131 0 2772.30417109 0 -206.50536677 0 716.29360686 0 29163
0.16450000 0.16449100 8887.04955898 0 199.00448054 0 3077.31922867 0 -296.93977410 0 1071.27672914 0 28996
0.16550000 0.16550500 8782.09560311 0 81.05700686 0 3065.60647061 0 -248.50718230 0 1252.20849143 0 30777
0.16650000 0.16650700 8850.40503760 0 -106.32621452 0 3559.35205397 0 149.16006301 0 1142.08383622 0 29211
0.16750000 0.16749900 8989.21583348 0 -138.95242808 0 2984.29160322 0 403.59106824 0 829.27113922 0 30922
0.16850000 0.16850800 8969.53345405 0 -28.72683182 0 2818.78426186 0 396.31162282 0 451.47062002 0 30867
0.16950000 0.16949900 8897.48088286 0 65.81412244 0 2519.02982882 0 241.55146762 0 305.17917109 0 30852
0.17050000 0.17049200 8773.14804513 0 157.10495494 0 2267.38538090 0 84.89040598 0 -219.02969982 0 31257
0.17150000 0.17149500 8622.83806355 0 169.58432538 0 2070.50538335 0 -95.60870367 0 -477.56241850 0 32608
0.17250000 0.17250900 8486.12926936 0 281.80311383 0 2308.95330730 0 -365.19300534 0 -580.27498862 0 32361
0.17350000 0.17350400 8274.09687462 0 188.58439731 0 2204.43773681 0 -383.39499107 0 -848.28020367 0 32508
0.17450000 0.17449800 8166.71493819 0 187.18381223 0 2631.58246458 0 -276.61892571 0 -298.73153383 0 32791
0.17550000 0.17549800 8108.49960805 0 82.82066496 0 2610.36011600 0 -116.18449002 0 -584.56554500 0 33633
0.17650000 0.17650100 8188.29698759 0 -24.60196263 0 2911.78940601 0 334.83987617 0 -61.02852779 0 33984
0.17750000 0.17750300 8203.70791975 0 -47.73555905 0 2790.94117000 0 538.49236579 0 -108.14045554 0 34069
