### header ###
fiducial parameters:
Omega_m = 0.31
Omega_nu = 0
Omega_de = 0.69
Omega_k = 0
H_0 = 100
w_de = -1
zeff = 0
beta = 0
fgrowth = 0
b_1 = 2
gamma = 0.55
Lx = 3500 Ly = 3500 Lz = 3500
nx = 700 ny = 700 nz = 700
xoffset = 857.220397 yoffset = 15.9954215 zoffset = 262.898189
bins = 400 dk = 0.001
kx_ny = 0.628318531 ky_ny = 0.628318531 kz_ny = 0.628318531
############################
A(data) = 3.06473403 (not used)
A(ran) = 3.06174063 (used)
Ngal = 187292
weighted Ngal = 0
Nran = 9360983
weighted Nran = 0
SN(data) = 3451.54651
SN(ran) = 68.7551879
SN(data+ran) = 3520.30169
############################
13 columns: k_central k_mean P_0(k) sigma^{lin}_{P_0(k)} P^img_1(k) sigma^{lin}_{P_1(k)} P_2(k) sigma^{lin}_{P_2(k)} P^img_3(k) sigma^{lin}_{P_3(k)} P_4(k) sigma^{lin}_{P_4(k)} N_modes
### header ###
0.00050000 0 0 0 0 0 0 0 0 0 0 0 0
0.00150000 0.00179520 11364.18548252 0 -17976.04864900 0 15079.67017515 0 43774.80336122 0 -1050.51412317 0 3
0.00250000 0.00253879 27637.27554578 0 -30687.53852814 0 872.18569558 0 10925.12566497 0 24931.87572785 0 6
0.00350000 0.00331552 40885.28168431 0 -26868.30262927 0 21870.48450126 0 -24715.94282730 0 -26607.85675184 0 7
0.00450000 0.00420575 63928.50327634 0 -27286.00521044 0 3057.20970451 0 14474.58594630 0 7462.46568859 0 24
0.00550000 0.00557378 77878.82527254 0 -9637.62153024 0 -10662.22932568 0 10476.81479187 0 13263.96786257 0 45
0.00650000 0.00659388 96524.14226606 0 -3912.39841213 0 -43013.92371324 0 268.89322646 0 -29795.14326661 0 40
0.00750000 0.00754703 72008.17061527 0 6409.01438338 0 -32174.90143287 0 -5920.60810912 0 1507.00032155 0 57
0.00850000 0.00846663 75900.47074389 0 2976.51307292 0 -61756.24752257 0 -12814.90386587 0 -994.59975424 0 75
0.00950000 0.00948925 63209.32644257 0 -3112.78348173 0 -54112.15539947 0 -24316.45010032 0 1619.28318170 0 112
0.01050000 0.01054430 70994.37632584 0 -3958.87850290 0 -52989.66401747 0 -19248.49031175 0 -14750.31910873 0 105
0.01150000 0.01145670 70919.85081149 0 -539.53999444 0 -41553.98799630 0 -32817.07980913 0 12361.11879586 0 144
0.01250000 0.01249090 76308.95599145 0 2563.77885938 0 -30817.48045059 0 -18864.28486976 0 13342.54001118 0 169
0.01350000 0.01339930 73562.41539184 0 4996.78398815 0 -2417.02092343 0 -15477.58921102 0 31499.78794996 0 180
0.01450000 0.01448870 72718.91696099 0 4051.93985030 0 -5346.43566978 0 5881.65925434 0 31197.30203879 0 267
0.01550000 0.01550050 75270.54467692 0 2879.60742296 0 -2342.27059607 0 6842.11665605 0 11270.77567495 0 238
0.01650000 0.01653350 73291.85292874 0 -246.42878598 0 -3383.87425541 0 8308.61691302 0 19728.57850447 0 315
0.01750000 0.01747870 74348.36169095 0 -1556.79640429 0 4113.10023093 0 -4086.32500089 0 10139.97745206 0 297
0.01850000 0.01844180 74410.74730251 0 -1216.62059122 0 1777.86628222 0 -12312.10955867 0 9563.88286145 0 388
0.01950000 0.01947590 78700.51684098 0 223.30339523 0 -1851.66115427 0 -7064.38928360 0 -12903.48019363 0 399
0.02050000 0.02045430 76799.72280237 0 1806.95708631 0 6906.15464326 0 -10361.75549099 0 -6569.96926120 0 462
0.02150000 0.02154770 76067.16959423 0 2242.40865498 0 15181.17325125 0 -6020.25647785 0 -16497.56585835 0 571
0.02250000 0.02255340 75970.94962397 0 2752.48690385 0 20087.60488882 0 -4738.41763109 0 -9640.52161813 0 510
0.02350000 0.02348930 69908.97909125 0 2203.77453841 0 21536.29995503 0 1021.88081356 0 -16105.37955435 0 555
0.02450000 0.02439640 74153.78602680 0 2333.17690963 0 25726.92695405 0 -7115.07337775 0 -20370.98169375 0 592
0.02550000 0.02547300 69935.61943349 0 2932.25863099 0 28919.15935514 0 -5099.24251956 0 -13514.40956086 0 837
0.02650000 0.02652900 70428.29715502 0 2147.02049287 0 30434.17426067 0 -3484.72537377 0 -21856.09646832 0 723
0.02750000 0.02749970 67831.14480363 0 668.35560368 0 21479.42226233 0 -2228.74002369 0 -10354.52775257 0 826
0.02850000 0.02848090 68438.70197564 0 549.05408122 0 25582.48459216 0 958.65440133 0 -27350.30173262 0 831
0.02950000 0.02946900 68516.71209171 0 242.06741349 0 23659.20925208 0 3477.41895079 0 -23627.28580401 0 996
0.03050000 0.03053250 66061.75397206 0 1501.51488400 0 19684.06552758 0 117.11521590 0 -30643.25036426 0 1041
0.03150000 0.03150510 66336.25066291 0 3299.42324646 0 19250.85084840 0 -6970.08022397 0 -30299.73607792 0 1036
0.03250000 0.03246190 59187.53401753 0 3835.90578390 0 28366.23174569 0 -1362.68160682 0 -27125.60112451 0 1059
0.03350000 0.03345080 60707.26999636 0 2282.63894394 0 28686.25307200 0 -276.12883334 0 -25795.60733002 0 1302
0.03450000 0.03451200 57514.02593670 0 1513.53113963 0 33392.82593957 0 1156.19085289 0 -21697.71569952 0 1339
0.03550000 0.03553350 56611.73890252 0 1494.01736996 0 30730.81503346 0 9993.24199742 0 -23259.26689907 0 1365
0.03650000 0.03647120 54118.33775737 0 2367.21360004 0 32822.92494751 0 3659.89967476 0 -17870.72375165 0 1308
0.03750000 0.03744890 52470.68317322 0 3888.47830737 0 23872.10717693 0 6135.66423891 0 -14022.14975437 0 1579
0.03850000 0.03847530 48603.78691525 0 3867.89667588 0 28654.32962392 0 1705.17299394 0 -8008.69387021 0 1662
0.03950000 0.03950240 45283.86072186 0 1985.76211749 0 19795.91000235 0 -499.55250353 0 -8488.41112146 0 1683
0.04050000 0.04050350 45586.45903953 0 545.34354241 0 22107.32501216 0 5120.54355269 0 -5057.40481754 0 1822
0.04150000 0.04152450 45807.56263941 0 -2255.87495455 0 17903.65885829 0 1394.35776058 0 -5225.25021425 0 1887
0.04250000 0.04250150 47121.14508384 0 -3190.99592951 0 16636.38789488 0 7813.66858003 0 -4929.31760246 0 1920
0.04350000 0.04349210 51141.81344380 0 -1246.41955631 0 12241.51827208 0 3344.72306891 0 -3772.76704875 0 2005
0.04450000 0.04448520 51133.60776877 0 1012.65448744 0 15495.91147172 0 3289.96985920 0 144.10963863 0 2151
0.04550000 0.04548030 48849.84475976 0 2964.35068882 0 13589.60951425 0 -997.92361466 0 -1340.93094765 0 2274
0.04650000 0.04648670 46506.73111488 0 3362.89920114 0 13930.98807695 0 1718.00981707 0 54.55582388 0 2311
0.04750000 0.04749250 42845.42635878 0 2809.27467134 0 15137.10990038 0 1058.29490161 0 1559.06701574 0 2568
0.04850000 0.04851840 41215.53200279 0 1319.96713404 0 14683.66204989 0 324.12303976 0 -354.76842585 0 2493
0.04950000 0.04949480 41204.74097809 0 118.83615953 0 14755.93943409 0 347.92062143 0 -4098.17264676 0 2644
0.05050000 0.05050630 40836.83447966 0 -199.73624690 0 14422.20451389 0 -3480.90355252 0 -6576.16285975 0 2829
0.05150000 0.05149060 40710.93919147 0 569.40865156 0 14434.00719716 0 -4089.57354895 0 -10504.60168048 0 2784
0.05250000 0.05249300 41025.22778591 0 1395.61671346 0 18082.72242444 0 -4408.51577279 0 -8147.70699780 0 3055
0.05350000 0.05348950 39004.94563003 0 2052.23932591 0 18223.45537159 0 -2791.09853911 0 -12516.23977594 0 3009
0.05450000 0.05448610 37953.60756716 0 2133.93637542 0 19559.85633700 0 736.59422208 0 -8692.56382004 0 3336
0.05550000 0.05550870 36775.69977706 0 536.39261223 0 19794.44871775 0 1915.15959024 0 -10376.03111741 0 3349
0.05650000 0.05647670 36438.59266164 0 -137.92840479 0 17460.43999997 0 3481.18456879 0 -10734.38306272 0 3324
0.05750000 0.05747970 36041.23565830 0 -125.59741094 0 15403.06369668 0 2205.13465715 0 -8799.79962801 0 3639
0.05850000 0.05849280 35506.18068350 0 590.32975070 0 16454.73897907 0 398.92282599 0 -10370.59064246 0 3846
0.05950000 0.05951020 35021.59623049 0 1475.72883122 0 15303.35912469 0 -896.16425172 0 -7892.92640834 0 3787
0.06050000 0.06049470 33561.99773307 0 956.94020210 0 15818.51814769 0 325.74394160 0 -8595.56824488 0 3930
0.06150000 0.06148310 33300.87741659 0 1059.00755886 0 15658.33887478 0 -255.60790136 0 -5986.62445087 0 4083
0.06250000 0.06249100 32904.19485229 0 305.27808881 0 16573.44025079 0 3076.81339939 0 -5706.02408667 0 4303
0.06350000 0.06350600 32780.54769425 0 539.05664646 0 16384.03528597 0 2202.06595950 0 -1256.58110457 0 4470
0.06450000 0.06451750 32433.99843222 0 119.76238915 0 14947.03049652 0 4245.58254044 0 362.60540754 0 4479
0.06550000 0.06550280 32967.03008988 0 -157.47926861 0 14969.73661100 0 3568.04107698 0 1070.53372212 0 4636
0.06650000 0.06648880 33126.08529772 0 -472.75479218 0 14085.54702450 0 2677.23074720 0 4018.58883958 0 4653
0.06750000 0.06749660 33539.96605764 0 -697.40369330 0 13024.54200200 0 1681.92732823 0 4451.54498379 0 5220
0.06850000 0.06852730 33781.41523534 0 -150.05819100 0 13057.25229563 0 -166.17278789 0 6004.31723512 0 5029
0.06950000 0.06949320 34046.02015355 0 228.13912317 0 11012.15078293 0 1313.00917124 0 3812.15428891 0 5040
0.07050000 0.07048030 33501.63543865 0 890.06395057 0 11305.95891174 0 676.73101254 0 3988.43017367 0 5475
0.07150000 0.07148790 32101.83720312 0 939.76336371 0 9384.07741236 0 419.20770430 0 713.75321979 0 5509
0.07250000 0.07249820 31534.85878024 0 1073.76765734 0 8765.23462701 0 1370.10043630 0 895.34480829 0 5916
0.07350000 0.07351270 30377.74619400 0 645.64049669 0 7160.57553191 0 383.28146050 0 -1359.59042787 0 5721
0.07450000 0.07449140 29253.79352740 0 489.74278763 0 6860.69745171 0 1578.63698866 0 -625.26007285 0 6028
0.07550000 0.07549160 29397.11182422 0 326.54315187 0 6919.77831195 0 -102.10984643 0 -893.92848629 0 6183
0.07650000 0.07648840 28703.00164159 0 645.43704091 0 7744.08895201 0 470.78880237 0 -1023.77711134 0 6330
0.07750000 0.07749960 28439.97041448 0 729.92964026 0 8821.70765628 0 -692.85010569 0 -859.71306953 0 6583
0.07850000 0.07848650 27468.77819132 0 940.26806893 0 9571.68387306 0 -143.03166023 0 -35.07892355 0 6549
0.07950000 0.07947320 27195.40556555 0 825.63366465 0 10628.61977999 0 -448.35021538 0 2121.59414092 0 6828
0.08050000 0.08048110 26308.63062938 0 662.06645960 0 9296.90616594 0 1336.68198168 0 1591.01294512 0 7147
0.08150000 0.08149960 25770.87789841 0 648.03025903 0 10018.57842417 0 1381.03758946 0 3402.14031284 0 7386
0.08250000 0.08250610 25027.64607207 0 930.31447271 0 9933.01459080 0 1345.47217055 0 2480.13717729 0 7227
0.08350000 0.08350160 24636.24661362 0 870.64572643 0 9939.42176172 0 1016.04241957 0 4913.11982476 0 7798
0.08450000 0.08449610 23790.94967865 0 708.42402728 0 10786.93310489 0 666.87408592 0 5839.61922061 0 7371
0.08550000 0.08548940 23770.60410083 0 396.36445388 0 11112.64220047 0 -156.71153217 0 6848.83856519 0 8256
0.08650000 0.08650700 23639.87533283 0 -276.93478799 0 11242.67404812 0 1008.61796977 0 7304.27601085 0 8037
0.08750000 0.08749060 23932.35706485 0 -93.19882056 0 12166.65553821 0 -274.18644889 0 7341.32519566 0 8155
0.08850000 0.08849210 24401.31701334 0 43.38553963 0 12231.06446690 0 20.25857519 0 7077.37223520 0 8718
0.08950000 0.08949900 23798.70572765 0 458.87933292 0 12217.91290554 0 844.15263673 0 7512.17184612 0 8571
0.09050000 0.09049190 22955.31970331 0 631.10071497 0 10425.68107169 0 877.75431396 0 5062.75536729 0 8932
0.09150000 0.09150830 22438.58698920 0 713.06978823 0 10647.98742120 0 1411.82573181 0 5918.13516596 0 9285
0.09250000 0.09250820 21333.85583536 0 957.78212684 0 9368.18313222 0 1259.80717133 0 3792.96649811 0 9204
0.09350000 0.09350330 20699.43350811 0 902.76138964 0 9796.76666329 0 992.38871824 0 7108.18285885 0 9349
0.09450000 0.09448040 19682.71664949 0 740.24406137 0 8895.06414296 0 -18.71107480 0 3167.06458411 0 9564
0.09550000 0.09549270 19773.20388787 0 530.86221207 0 10420.94875774 0 -226.50922882 0 7089.27608432 0 10155
0.09650000 0.09649430 18950.38825436 0 269.85430210 0 9525.99062784 0 -38.42155586 0 4974.63990621 0 9913
0.09750000 0.09749140 19099.43928306 0 391.15216414 0 9802.37574801 0 -230.12984242 0 6477.93081302 0 10476
0.09850000 0.09850240 18584.61747958 0 284.50873846 0 8967.22912065 0 764.52049475 0 4256.54217491 0 10575
0.09950000 0.09950330 18204.68348487 0 535.36072050 0 8714.57301417 0 542.83912543 0 4248.28029662 0 10882
0.10050000 0.10051200 18065.07460279 0 43.92677696 0 7465.55686754 0 1462.90324873 0 2994.09345066 0 10875
0.10150000 0.10150300 17412.21760833 0 21.05890952 0 6370.22289771 0 946.76516505 0 2018.02278508 0 11118
0.10250000 0.10250800 18111.83570983 0 80.01758389 0 6058.49717164 0 671.20735677 0 1420.85197435 0 11575
0.10350000 0.10349800 17241.80934325 0 -26.79310268 0 5407.96699189 0 259.51515156 0 330.54707166 0 11364
0.10450000 0.10450100 17376.24752600 0 584.77911737 0 5708.31717942 0 -380.51963261 0 1066.52530607 0 12093
0.10550000 0.10551000 16856.70464921 0 435.17167646 0 5557.90603199 0 -138.18244350 0 569.21194017 0 12067
0.10650000 0.10649700 16379.53902568 0 268.00071879 0 5576.17208942 0 248.19019595 0 1010.00843826 0 12054
0.10750000 0.10749900 16488.12371174 0 131.24021761 0 5693.62564891 0 663.52999233 0 585.26021722 0 12807
0.10850000 0.10850100 16250.83357481 0 -135.14409561 0 5039.84692110 0 620.04441091 0 343.56711740 0 12736
0.10950000 0.10950300 16495.09291519 0 171.40868300 0 4863.29002006 0 580.80329921 0 924.39964229 0 12933
0.11050000 0.11050200 16093.23965156 0 119.58815906 0 4498.03631521 0 105.01532983 0 60.36105795 0 13428
0.11150000 0.11150900 16007.92311251 0 359.74578599 0 4683.04618559 0 -119.88716037 0 609.10950588 0 13453
0.11250000 0.11250000 16045.80410548 0 133.09829718 0 3860.32047729 0 437.04324481 0 82.84505717 0 13668
0.11350000 0.11349100 15675.19985087 0 1.92749058 0 4381.42580453 0 30.08728778 0 485.75572882 0 13791
0.11450000 0.11448600 16050.18795926 0 169.90918019 0 3759.24454592 0 14.96771329 0 -456.29061106 0 14205
0.11550000 0.11549300 15392.49748499 0 377.95676424 0 4407.71768659 0 -331.63404258 0 -416.99666830 0 14776
0.11650000 0.11649800 15245.46977343 0 674.75603021 0 4997.95301582 0 -707.35504140 0 -703.84008991 0 14553
0.11750000 0.11747300 14624.76104006 0 467.05241007 0 5135.92076289 0 -729.26869000 0 -566.31297635 0 14568
0.11850000 0.11849100 14728.51224631 0 153.62260135 0 6242.92252818 0 -518.42780423 0 -98.07861186 0 16015
0.11950000 0.11950300 14534.72342771 0 -155.25137164 0 6459.59731167 0 279.64266076 0 -506.59926747 0 15270
0.12050000 0.12050700 14908.69987753 0 -193.39089957 0 6231.36713923 0 445.92223482 0 -26.59234465 0 15999
0.12150000 0.12150000 14947.59252906 0 -44.10044501 0 6050.56127222 0 1208.41491618 0 833.82360277 0 15670
0.12250000 0.12250700 15129.69107090 0 48.83792967 0 5564.66166308 0 1410.45437242 0 1288.05492661 0 16887
0.12350000 0.12352200 14840.69394061 0 23.53331396 0 4669.00661283 0 1612.15660914 0 1534.84341341 0 16407
0.12450000 0.12449800 14747.84616557 0 124.15186326 0 4044.99312815 0 1317.50543153 0 1582.33516275 0 16306
0.12550000 0.12549900 14361.95462597 0 197.35997334 0 3082.74846297 0 756.55424558 0 1498.54735220 0 17523
0.12650000 0.12650100 14100.49708997 0 229.95224013 0 2516.23090678 0 288.01919368 0 1618.94596218 0 17154
0.12750000 0.12750600 13849.60576565 0 360.51464650 0 2197.58093986 0 -190.54589087 0 1096.92901817 0 18007
0.12850000 0.12850300 13506.76591836 0 394.10058682 0 2154.55172886 0 -405.58628374 0 558.16800083 0 17496
0.12950000 0.12949900 13093.67200400 0 409.58570727 0 2627.11992624 0 -502.21766181 0 598.42301923 0 18405
0.13050000 0.13049000 13072.20236110 0 371.67211642 0 2773.18094184 0 -770.89506778 0 285.06177847 0 18100
0.13150000 0.13148800 12786.80223904 0 154.73767390 0 3294.74713576 0 -623.19179311 0 327.66721694 0 19059
0.13250000 0.13249300 12791.41090584 0 160.47827423 0 4220.79690558 0 -733.67502508 0 726.20673674 0 18957
0.13350000 0.13349100 12848.85063107 0 116.34073507 0 4547.33780932 0 -73.49924293 0 826.82292549 0 19468
0.13450000 0.13450700 12866.38604621 0 257.43675524 0 4827.67963855 0 -164.64967971 0 1015.20161890 0 19953
0.13550000 0.13551000 12638.76286891 0 192.14768360 0 4641.30964943 0 515.66822448 0 1088.90881387 0 19956
0.13650000 0.13649900 12439.91575748 0 139.45825736 0 4500.82399659 0 700.13179924 0 719.31621784 0 19723
0.13750000 0.13749600 12233.42500355 0 168.51758763 0 4129.02823301 0 659.86329206 0 395.54950670 0 20946
0.13850000 0.13851100 11991.86341934 0 112.96966391 0 4156.73643707 0 236.65953643 0 161.07964904 0 20955
0.13950000 0.13949800 11984.78180938 0 128.16027931 0 3635.55242527 0 -85.26280874 0 611.39360610 0 20506
0.14050000 0.14048300 11899.80248986 0 -79.09933513 0 3628.84175679 0 338.28625968 0 422.25954097 0 21447
0.14150000 0.14148400 11989.05325666 0 -132.97015376 0 3525.34908551 0 112.56724862 0 598.09591629 0 21771
0.14250000 0.14249400 12196.44326265 0 -31.97470544 0 3287.12597457 0 392.04242367 0 470.76632107 0 22470
0.14350000 0.14350900 12103.82030062 0 104.51613253 0 3502.86778405 0 167.92408127 0 521.76964970 0 22519
0.14450000 0.14449900 11878.78247299 0 405.77625074 0 3263.01477875 0 32.46097599 0 317.48880770 0 22218
0.14550000 0.14550500 11646.21340937 0 376.93274096 0 3090.23473636 0 -121.03483081 0 613.23932095 0 23559
0.14650000 0.14650700 11283.81482980 0 303.55826925 0 3169.85226549 0 156.69467119 0 543.03134055 0 23044
0.14750000 0.14750500 11093.00478364 0 141.18482131 0 2910.18199295 0 -115.19418869 0 277.04157418 0 23649
0.14850000 0.14849900 10949.76517137 0 87.00061334 0 2955.26824303 0 288.31819499 0 78.01674806 0 23640
0.14950000 0.14949500 10822.63341161 0 166.34027358 0 2812.78175437 0 -177.51685260 0 -377.82187644 0 24457
0.15050000 0.15050000 10682.28264658 0 194.50822025 0 2946.65790457 0 -18.43927587 0 -562.77104730 0 24591
0.15150000 0.15149900 10381.97742165 0 251.64669604 0 3100.82342935 0 -142.18636329 0 -346.70325895 0 25020
0.15250000 0.15250500 10331.59682507 0 226.70144394 0 3125.18191948 0 49.30565315 0 -561.27828889 0 25297
0.15350000 0.15350100 10210.89471753 0 82.73905784 0 3311.70927771 0 174.88092001 0 -352.25389228 0 25452
0.15450000 0.15450400 10034.68627667 0 117.16804696 0 3327.54735459 0 145.49448680 0 -44.57154069 0 26061
0.15550000 0.15549900 10053.23335037 0 97.09887674 0 3450.76736791 0 41.72169851 0 -248.32395969 0 26128
0.15650000 0.15649500 9987.62167206 0 156.71715249 0 3736.16748997 0 -20.97291854 0 326.61846423 0 26331
0.15750000 0.15749700 9996.24325117 0 128.24908045 0 3671.71359868 0 -268.12886221 0 33.87696077 0 27345
0.15850000 0.15849900 9994.92809503 0 25.06170524 0 3925.88719300 0 4.12528510 0 474.51282996 0 26980
0.15950000 0.15949700 10027.12131872 0 -4.26193769 0 3690.30563498 0 151.35423803 0 507.74806197 0 27777
0.16050000 0.16050000 9904.45209730 0 15.39834262 0 3584.41870510 0 339.44292264 0 365.45491250 0 28224
0.16150000 0.16150500 9949.13368395 0 137.00667143 0 3467.38104969 0 327.13328603 0 377.90056099 0 28075
0.16250000 0.16249700 9715.83397803 0 234.34508644 0 2909.41762870 0 480.88740299 0 158.44596457 0 28590
0.16350000 0.16349900 9315.45323964 0 311.10411809 0 2874.02081955 0 361.59037678 0 492.16627193 0 29163
0.16450000 0.16449100 9223.12253454 0 216.78943813 0 2530.03442588 0 246.86267509 0 299.65776345 0 28996
0.16550000 0.16550500 8896.49170560 0 119.32737596 0 2674.53299103 0 235.87831120 0 566.35569082 0 30777
0.16650000 0.16650700 9022.01605231 0 31.45718588 0 2626.40052460 0 37.07009242 0 284.25245162 0 29211
0.16750000 0.16749900 8900.47089596 0 34.10627004 0 2687.99929060 0 -134.08859850 0 519.95878086 0 30922
0.16850000 0.16850800 8994.91484340 0 16.67730386 0 2739.40278640 0 2.98254930 0 447.78368658 0 30867
0.16950000 0.16949900 9014.68714803 0 10.62220137 0 2418.16746981 0 -36.96566677 0 387.78446518 0 30852
0.17050000 0.17049200 9009.39280154 0 -15.19893348 0 2546.13103773 0 195.21975344 0 381.87750322 0 31257
0.17150000 0.17149500 9024.66884588 0 10.32287408 0 2401.44138152 0 268.75609052 0 18.96207853 0 32608
0.17250000 0.17250900 9013.22586344 0 53.67747944 0 2325.67939559 0 116.35422385 0 267.95912839 0 32361
0.17350000 0.17350400 8982.62881215 0 201.26609947 0 2184.12588094 0 -78.94072955 0 -9.13632223 0 32508
0.17450000 0.17449800 8782.92741126 0 252.58866258 0 2385.19864121 0 -200.25781310 0 219.27137381 0 32791
0.17550000 0.17549800 8607.96668263 0 243.21958019 0 2484.70088148 0 -279.22675668 0 468.08879807 0 33633
0.17650000 0.17650100 8420.52883170 0 297.94244015 0 2821.02115135 0 -244.30655112 0 442.42526838 0 33984
0.17750000 0.17750300 8254.86412122 0 193.30097436 0 2886.50918251 0 -36.32506209 0 577.35466756 0 34069
