### header ###
fiducial parameters:
Omega_m = 0.31
Omega_nu = 0
Omega_de = 0.69
Omega_k = 0
H_0 = 100
w_de = -1
zeff = 0
beta = 0
fgrowth = 0
b_1 = 2
gamma = 0.55
Lx = 3500 Ly = 3500 Lz = 3500
nx = 700 ny = 700 nz = 700
xoffset = 857.220397 yoffset = 15.9954215 zoffset = 262.898189
bins = 400 dk = 0.001
kx_ny = 0.628318531 ky_ny = 0.628318531 kz_ny = 0.628318531
############################
A(data) = 3.0736892 (not used)
A(ran) = 3.0729461 (used)
Ngal = 187516
weighted Ngal = 0
Nran = 9360983
weighted Nran = 0
SN(data) = 3447.51707
SN(ran) = 69.0068206
SN(data+ran) = 3516.52389
############################
13 columns: k_central k_mean P_0(k) sigma^{lin}_{P_0(k)} P^img_1(k) sigma^{lin}_{P_1(k)} P_2(k) sigma^{lin}_{P_2(k)} P^img_3(k) sigma^{lin}_{P_3(k)} P_4(k) sigma^{lin}_{P_4(k)} N_modes
### header ###
0.00050000 0 0 0 0 0 0 0 0 0 0 0 0
0.00150000 0.00179520 213.75558650 0 -5455.00911519 0 -5399.27796887 0 9250.38111256 0 8716.78742236 0 3
0.00250000 0.00253879 5140.20345082 0 -9805.75918388 0 -12781.06950717 0 12377.75495894 0 16697.08740883 0 6
0.00350000 0.00331552 12631.79366546 0 -14252.92031388 0 -10101.32085420 0 -493.79279409 0 -23890.20462460 0 7
0.00450000 0.00420575 24323.75652330 0 -19695.19377180 0 -28868.68883336 0 16003.20203920 0 -32.89059366 0 24
0.00550000 0.00557378 45660.98455388 0 -21933.88177138 0 -42572.05373300 0 18230.64938806 0 12098.19997526 0 45
0.00650000 0.00659388 59001.72606094 0 -17134.12390925 0 -66175.62176397 0 2608.38176148 0 -16945.73060300 0 40
0.00750000 0.00754703 71589.56878204 0 -12140.68963502 0 -43801.33129695 0 -8301.27676809 0 24366.13377655 0 57
0.00850000 0.00846663 69529.83194210 0 559.97100121 0 -39397.35674705 0 -31620.40013231 0 -11729.28181827 0 75
0.00950000 0.00948925 74235.39315110 0 5212.17733745 0 -5431.24637955 0 -39369.59233975 0 5015.24113665 0 112
0.01050000 0.01054430 79613.70730636 0 7568.88092906 0 5791.53171678 0 -47464.77177668 0 21496.95767747 0 105
0.01150000 0.01145670 74468.74906028 0 7191.56600597 0 35377.92485866 0 -24355.34275185 0 -9818.60724766 0 144
0.01250000 0.01249090 86076.51944415 0 510.65939051 0 56951.88099364 0 -15293.01772602 0 20712.02303692 0 169
0.01350000 0.01339930 81854.64343609 0 -3115.69481027 0 66201.47526065 0 16769.13998001 0 -9529.05932548 0 180
0.01450000 0.01448870 93662.94702900 0 -336.31802174 0 66439.43983663 0 25740.41573493 0 21790.00144203 0 267
0.01550000 0.01550050 84107.04502957 0 6563.71945940 0 53259.21482200 0 42135.35445211 0 -12588.51716014 0 238
0.01650000 0.01653350 87887.05105739 0 6896.19542672 0 59082.32152668 0 25854.62074635 0 32110.04287815 0 315
0.01750000 0.01747870 79819.07399522 0 2101.83307693 0 48119.98930779 0 25632.16826839 0 19390.90935651 0 297
0.01850000 0.01844180 79659.23194182 0 -2198.24413825 0 39351.94451810 0 20465.85278592 0 39189.40470853 0 388
0.01950000 0.01947590 75656.32381001 0 -6411.90323062 0 36182.64304449 0 12920.11635671 0 16784.09004549 0 399
0.02050000 0.02045430 82090.47228843 0 -4081.33415196 0 16321.08764188 0 14418.60750566 0 20360.75270158 0 462
0.02150000 0.02154770 81012.71869634 0 963.07534926 0 24635.57217458 0 8235.93486539 0 24469.21054376 0 571
0.02250000 0.02255340 74634.54865856 0 7484.27255101 0 2833.08236959 0 2857.91296705 0 23301.30693281 0 510
0.02350000 0.02348930 70005.76109405 0 6307.37641948 0 23021.07751008 0 9751.52304410 0 22654.74470276 0 555
0.02450000 0.02439640 65010.97794173 0 8085.31014560 0 14968.38773291 0 -420.37448384 0 23330.75743772 0 592
0.02550000 0.02547300 58327.17461058 0 4734.59580985 0 24167.06185211 0 -2215.52101843 0 26991.27534827 0 837
0.02650000 0.02652900 58932.37124593 0 3519.26789346 0 28382.64309575 0 -4911.00658242 0 24680.98440353 0 723
0.02750000 0.02749970 56524.06182682 0 447.39700820 0 30199.91909943 0 -2713.39192060 0 21961.08414615 0 826
0.02850000 0.02848090 61168.92352188 0 600.60482953 0 34971.35052172 0 -1350.76651704 0 18543.58910441 0 831
0.02950000 0.02946900 59553.64201183 0 -424.54588933 0 28563.16794649 0 5538.25737451 0 8982.07802026 0 996
0.03050000 0.03053250 58166.65811814 0 971.70479683 0 24323.64411679 0 7493.91702934 0 -1941.24914059 0 1041
0.03150000 0.03150510 57761.43265929 0 1011.50232074 0 18355.30820466 0 6248.86883242 0 -8198.37985130 0 1036
0.03250000 0.03246190 55520.38412305 0 128.55595022 0 14321.60068985 0 8170.70536920 0 -573.82060697 0 1059
0.03350000 0.03345080 55692.47848574 0 -545.88084551 0 6687.42282069 0 11046.09754814 0 -5126.47861628 0 1302
0.03450000 0.03451200 53461.32172214 0 -2481.49729602 0 160.38385276 0 8166.93975120 0 -2399.86769042 0 1339
0.03550000 0.03553350 56352.86671619 0 -1925.63587673 0 -4023.41107875 0 8696.61045430 0 -2591.83552360 0 1365
0.03650000 0.03647120 56445.04005218 0 473.94405303 0 -4659.74431663 0 3221.95268163 0 934.86244000 0 1308
0.03750000 0.03744890 53736.04322601 0 2110.02751132 0 -8608.04536719 0 -2502.35994378 0 1617.15869872 0 1579
0.03850000 0.03847530 51607.96322962 0 4332.86619337 0 -4799.43188326 0 -5654.77795999 0 4328.67343065 0 1662
0.03950000 0.03950240 48174.05683781 0 4898.56318206 0 -2329.87215831 0 -7062.95048031 0 -719.54665118 0 1683
0.04050000 0.04050350 45019.14339714 0 3166.90721500 0 1510.83338345 0 -6613.90896491 0 -7020.22476688 0 1822
0.04150000 0.04152450 42129.84653325 0 1060.99040965 0 4769.94765639 0 -5648.92158096 0 -8389.20113811 0 1887
0.04250000 0.04250150 42506.97036527 0 211.43326805 0 6988.94203590 0 -3086.59276552 0 -15758.60547930 0 1920
0.04350000 0.04349210 42011.48248105 0 572.71565100 0 6760.46456914 0 -2063.95208397 0 -11807.06712133 0 2005
0.04450000 0.04448520 41306.46886720 0 1318.19111122 0 8491.34493130 0 310.66798084 0 -13828.02371625 0 2151
0.04550000 0.04548030 40321.90026967 0 233.31207064 0 8784.08519829 0 3270.39988628 0 -4896.18016410 0 2274
0.04650000 0.04648670 40241.19239743 0 885.24171141 0 6316.66119698 0 4157.15234114 0 -2921.86102906 0 2311
0.04750000 0.04749250 40451.39256610 0 287.02439609 0 9490.26783981 0 945.15887606 0 2182.59715244 0 2568
0.04850000 0.04851840 40444.64817566 0 559.30555468 0 9780.51268234 0 302.39823410 0 6448.48030810 0 2493
0.04950000 0.04949480 41186.75593692 0 -105.36109224 0 15887.87296270 0 -1378.56464630 0 8513.12931242 0 2644
0.05050000 0.05050630 42653.32363779 0 -553.98760282 0 14089.03162622 0 -3775.25123256 0 12115.96020341 0 2829
0.05150000 0.05149060 42989.53150115 0 -334.82975958 0 19758.81585494 0 -600.29233944 0 9560.21840931 0 2784
0.05250000 0.05249300 43569.88629839 0 750.43371126 0 17381.98025787 0 -314.41448973 0 8969.70206381 0 3055
0.05350000 0.05348950 42651.18791415 0 629.00770580 0 17686.15226665 0 2539.35292534 0 4351.88537441 0 3009
0.05450000 0.05448610 41363.68377942 0 1023.55904272 0 15256.93523717 0 3169.27899230 0 5391.67928898 0 3336
0.05550000 0.05550870 40800.18995828 0 74.35465646 0 10590.86243418 0 3693.88016192 0 -4394.44247808 0 3349
0.05650000 0.05647670 40571.10549638 0 36.43139865 0 9475.92476948 0 286.87939170 0 -1683.06263395 0 3324
0.05750000 0.05747970 40399.68557273 0 350.60826102 0 6955.89452275 0 -851.50739450 0 -7701.88030851 0 3639
0.05850000 0.05849280 40381.25090553 0 987.42597094 0 8292.20556295 0 -1972.39698377 0 -6482.11233509 0 3846
0.05950000 0.05951020 38001.94236531 0 1140.12796299 0 6861.94516394 0 -1486.32876486 0 -9752.97308805 0 3787
0.06050000 0.06049470 38374.12031101 0 1083.58636575 0 10418.21727961 0 -296.53623474 0 -6612.60504942 0 3930
0.06150000 0.06148310 36971.39950629 0 976.41912575 0 8412.01965909 0 1201.38950948 0 -7668.95644252 0 4083
0.06250000 0.06249100 36329.89556907 0 869.15409208 0 9923.15654011 0 816.08922811 0 -4604.01317030 0 4303
0.06350000 0.06350600 35977.61357516 0 902.96821761 0 9565.35538669 0 215.26632995 0 -3060.60438103 0 4470
0.06450000 0.06451750 35121.63802200 0 798.65835102 0 11321.58341625 0 -114.66925030 0 -1860.38389923 0 4479
0.06550000 0.06550280 34174.95041743 0 1223.36498166 0 12796.69401168 0 47.55211163 0 1387.19746606 0 4636
0.06650000 0.06648880 33905.28720640 0 1092.24391494 0 12903.59260013 0 -375.75022451 0 1842.53374587 0 4653
0.06750000 0.06749660 33636.97287345 0 763.60325765 0 15230.07008193 0 452.00679906 0 3221.43561169 0 5220
0.06850000 0.06852730 32568.99864750 0 639.02986999 0 14809.55733808 0 2439.33361513 0 3190.82731975 0 5029
0.06950000 0.06949320 31754.72590854 0 547.46015694 0 13457.64427466 0 1683.79327625 0 3522.15674070 0 5040
0.07050000 0.07048030 31263.17225208 0 1019.39550569 0 13758.78130775 0 2431.38647507 0 4353.89745089 0 5475
0.07150000 0.07148790 29317.07839102 0 1381.98180412 0 12060.65620182 0 1860.15908622 0 884.87751432 0 5509
0.07250000 0.07249820 27941.89718059 0 1289.05534453 0 9554.04729206 0 1079.12944774 0 1382.81361228 0 5916
0.07350000 0.07351270 26761.62885384 0 633.83106903 0 9030.97485094 0 603.96016378 0 -1271.27263507 0 5721
0.07450000 0.07449140 26343.58905315 0 -232.62189468 0 6291.99920928 0 725.87738567 0 -2063.99704657 0 6028
0.07550000 0.07549160 26563.11896193 0 -438.32467899 0 6974.46407776 0 54.26705157 0 -2935.63082621 0 6183
0.07650000 0.07648840 27425.50168601 0 -404.70164453 0 5708.47454853 0 704.93043303 0 -3330.64977420 0 6330
0.07750000 0.07749960 27397.73727870 0 388.38021967 0 7109.09335156 0 -331.77455072 0 -2864.16276886 0 6583
0.07850000 0.07848650 26939.90557443 0 919.41328963 0 7227.06398098 0 130.22631091 0 -511.46534517 0 6549
0.07950000 0.07947320 25825.28264794 0 1368.15580372 0 8576.89752401 0 1158.16920742 0 1159.82158307 0 6828
0.08050000 0.08048110 24821.15531815 0 952.56309270 0 7863.88056685 0 1510.63105174 0 1672.48518161 0 7147
0.08150000 0.08149960 24122.32406220 0 452.03377663 0 8113.07455290 0 1339.08748093 0 2447.77534383 0 7386
0.08250000 0.08250610 23576.81528222 0 287.76627904 0 7752.33958964 0 1123.34454739 0 2228.42528547 0 7227
0.08350000 0.08350160 23156.63975790 0 483.96059690 0 6817.96049763 0 -631.76728555 0 1222.00486292 0 7798
0.08450000 0.08449610 23005.67781858 0 526.70654350 0 6755.37255436 0 -895.20992048 0 1616.34937186 0 7371
0.08550000 0.08548940 22039.76870127 0 666.40647485 0 7705.49979805 0 -606.29147474 0 -96.09070277 0 8256
0.08650000 0.08650700 22012.56632650 0 306.51568446 0 6350.45059308 0 -116.94660614 0 503.81833048 0 8037
0.08750000 0.08749060 21701.08789474 0 14.41961916 0 8472.49436003 0 1034.69965166 0 -24.99156358 0 8155
0.08850000 0.08849210 21674.89717854 0 82.02190432 0 7108.76737269 0 555.04759619 0 1429.65340387 0 8718
0.08950000 0.08949900 21762.34944123 0 396.12053176 0 7509.64269971 0 553.32665256 0 1136.93561819 0 8571
0.09050000 0.09049190 21200.65412420 0 589.77446255 0 8134.33062343 0 491.76835290 0 2863.66818023 0 8932
0.09150000 0.09150830 20604.45000943 0 597.87335141 0 6656.81452875 0 405.25018828 0 2321.10445074 0 9285
0.09250000 0.09250820 20357.94253890 0 376.60451396 0 7460.90323814 0 690.65593067 0 2943.26322805 0 9204
0.09350000 0.09350330 20090.97708404 0 295.73590041 0 6797.69360436 0 229.94999200 0 2018.31504200 0 9349
0.09450000 0.09448040 19688.44938136 0 4.01306968 0 5783.51713281 0 745.97791731 0 128.65824014 0 9564
0.09550000 0.09549270 19835.92671895 0 46.13815018 0 6340.57006108 0 -659.68456571 0 335.11864431 0 10155
0.09650000 0.09649430 19824.57366171 0 85.33778388 0 5584.10798884 0 -500.61586909 0 -2331.35592421 0 9913
0.09750000 0.09749140 19752.40868402 0 319.79426517 0 6006.81265958 0 -1027.75292951 0 -2149.02132870 0 10476
0.09850000 0.09850240 19661.80903913 0 319.29630434 0 6126.89653134 0 -849.83590974 0 -3332.66185068 0 10575
0.09950000 0.09950330 18959.60558796 0 265.85825076 0 5920.09103919 0 11.88462761 0 -2674.01592109 0 10882
0.10050000 0.10051200 19356.73777829 0 163.87969514 0 6644.98936418 0 698.57496911 0 -2965.73328886 0 10875
0.10150000 0.10150300 18875.75033351 0 203.60303076 0 5467.74477247 0 915.66453261 0 -3283.77626065 0 11118
0.10250000 0.10250800 18660.37946550 0 201.34928028 0 6163.05770474 0 1352.55378051 0 -1986.05437441 0 11575
0.10350000 0.10349800 18154.77499562 0 402.92786984 0 5054.41480444 0 463.32950655 0 -1892.79069529 0 11364
0.10450000 0.10450100 18253.01828301 0 637.93727874 0 6071.17662566 0 45.16043838 0 -29.00548755 0 12093
0.10550000 0.10551000 17342.30076079 0 624.05619915 0 6167.77877805 0 268.98090354 0 367.13651385 0 12067
0.10650000 0.10649700 17040.15206914 0 550.14330027 0 6434.06979386 0 217.76512661 0 2176.39231323 0 12054
0.10750000 0.10749900 16655.49700112 0 309.97443269 0 6612.14418274 0 433.01796778 0 2448.93313086 0 12807
0.10850000 0.10850100 16362.00361054 0 424.98764690 0 6311.00714966 0 609.51641743 0 1837.52041565 0 12736
0.10950000 0.10950300 16001.06631557 0 359.13541866 0 6165.69925766 0 202.79370390 0 1392.73910687 0 12933
0.11050000 0.11050200 15457.69325923 0 426.04988840 0 5908.37828113 0 -466.20036874 0 1005.66280269 0 13428
0.11150000 0.11150900 15303.02190517 0 136.49971809 0 5665.81627900 0 -304.27429870 0 347.56878906 0 13453
0.11250000 0.11250000 15203.76695922 0 54.33854211 0 5546.67662191 0 -486.09744460 0 -541.84320377 0 13668
0.11350000 0.11349100 15326.40245869 0 59.75867148 0 5313.81530136 0 -665.61625710 0 -1242.32795944 0 13791
0.11450000 0.11448600 15248.39234262 0 144.80655898 0 5590.82989798 0 -619.10694064 0 -2795.62852135 0 14205
0.11550000 0.11549300 14939.27444752 0 403.46404888 0 5292.35689912 0 -214.63235725 0 -2556.70849007 0 14776
0.11650000 0.11649800 14909.03709705 0 213.97140699 0 5673.79714102 0 66.61895303 0 -2882.22649458 0 14553
0.11750000 0.11747300 14622.40050341 0 15.00143525 0 4997.02004181 0 827.96385154 0 -2663.13497119 0 14568
0.11850000 0.11849100 14714.34902639 0 -87.27578447 0 4761.40476184 0 823.19219531 0 -3086.25554600 0 16015
0.11950000 0.11950300 14596.09738070 0 -22.52109337 0 4171.84387165 0 508.33145175 0 -2918.72488751 0 15270
0.12050000 0.12050700 14551.02237127 0 133.48722369 0 4031.31325621 0 438.48879250 0 -2213.27288828 0 15999
0.12150000 0.12150000 14393.65326103 0 221.74431697 0 3907.63237622 0 273.02641374 0 -2452.32780738 0 15670
0.12250000 0.12250700 14191.20914137 0 311.64591745 0 3542.25502421 0 114.81200657 0 -1940.78827391 0 16887
0.12350000 0.12352200 14064.52700763 0 378.04781351 0 3817.94322403 0 144.64581767 0 -1487.49779253 0 16407
0.12450000 0.12449800 13659.41395529 0 337.25998827 0 3937.58871042 0 465.79795345 0 -759.16432468 0 16306
0.12550000 0.12549900 13405.82487479 0 232.42068703 0 3797.49648036 0 663.78852729 0 -202.13949803 0 17523
0.12650000 0.12650100 13313.42672579 0 -16.99563909 0 3589.06109385 0 768.31196624 0 298.73940228 0 17154
0.12750000 0.12750600 13513.84752832 0 -131.57069274 0 3481.65667612 0 670.30136033 0 606.82315752 0 18007
0.12850000 0.12850300 13442.80661570 0 -144.85714191 0 3113.00829474 0 656.13926447 0 492.40120153 0 17496
0.12950000 0.12949900 13614.33894585 0 -0.02204809 0 3622.86173060 0 2.91802797 0 858.59462479 0 18405
0.13050000 0.13049000 13639.63041000 0 194.46887797 0 2926.82939668 0 -410.21405965 0 -73.33265649 0 18100
0.13150000 0.13148800 13487.99403164 0 369.08451862 0 3710.99967298 0 -386.21414627 0 797.67591815 0 19059
0.13250000 0.13249300 12986.21138301 0 391.90079148 0 3415.28063355 0 -498.58917976 0 214.82007612 0 18957
0.13350000 0.13349100 12794.55828804 0 399.25217705 0 4029.09884802 0 -169.80801433 0 592.71838898 0 19468
0.13450000 0.13450700 12554.45798843 0 231.24379090 0 3868.03156369 0 512.20048373 0 448.52332140 0 19953
0.13550000 0.13551000 12211.95536066 0 90.56131427 0 3798.04727224 0 840.75121581 0 1100.05841533 0 19956
0.13650000 0.13649900 12347.51760847 0 11.63025169 0 3426.18406476 0 916.69417622 0 705.47897679 0 19723
0.13750000 0.13749600 12137.31743980 0 -104.25714794 0 2974.44479318 0 590.59727819 0 776.88408649 0 20946
0.13850000 0.13851100 12310.19864804 0 26.30435918 0 2914.47592153 0 -18.41151146 0 984.63941363 0 20955
0.13950000 0.13949800 12154.17841590 0 44.45205257 0 2724.34031442 0 -30.47666392 0 692.98499350 0 20506
0.14050000 0.14048300 12258.26684167 0 104.31751023 0 3287.49691604 0 -389.36490067 0 892.17382071 0 21447
0.14150000 0.14148400 12043.12078668 0 281.88517058 0 3018.83412292 0 -587.06321760 0 185.41565787 0 21771
0.14250000 0.14249400 12041.20987605 0 363.98463539 0 3721.40851556 0 -479.15859091 0 602.40670585 0 22470
0.14350000 0.14350900 11575.28490325 0 313.57706125 0 3569.60352744 0 -151.98708666 0 379.19660802 0 22519
0.14450000 0.14449900 11557.41226859 0 222.61771553 0 3569.71593394 0 -21.96647966 0 576.75104462 0 22218
0.14550000 0.14550500 11433.54029753 0 80.42595673 0 3466.70661064 0 266.01674394 0 -78.19839697 0 23559
0.14650000 0.14650700 11312.14126964 0 119.75227256 0 3489.41272512 0 437.09045554 0 -210.74421616 0 23044
0.14750000 0.14750500 10996.53751907 0 191.61038049 0 2914.21738656 0 5.67720306 0 -646.54199688 0 23649
0.14850000 0.14849900 10886.72760208 0 291.03393621 0 3050.11685390 0 -49.42806383 0 -833.00191120 0 23640
0.14950000 0.14949500 10481.59206843 0 308.09836808 0 2653.38932700 0 31.38063705 0 -1162.80035552 0 24457
0.15050000 0.15050000 10356.32625668 0 316.40183678 0 2759.93945528 0 29.30269036 0 -1170.34283216 0 24591
0.15150000 0.15149900 9986.89102976 0 130.21844246 0 2342.78766600 0 320.45633949 0 -976.70126608 0 25020
0.15250000 0.15250500 9857.14019837 0 157.58942699 0 2587.69896413 0 384.07617450 0 -948.12640786 0 25297
0.15350000 0.15350100 9754.80531412 0 69.76049010 0 1922.56717908 0 597.55861318 0 -575.22456425 0 25452
0.15450000 0.15450400 9621.10901432 0 43.68892479 0 2261.11309779 0 499.03206140 0 -512.22970942 0 26061
0.15550000 0.15549900 9651.93087863 0 76.17328134 0 1755.45242466 0 156.07418727 0 -170.44311110 0 26128
0.15650000 0.15649500 9567.53607294 0 -0.46205032 0 2022.56400798 0 223.89352939 0 45.18055914 0 26331
0.15750000 0.15749700 9675.03041588 0 22.64889956 0 1863.81229771 0 37.74632997 0 139.75388647 0 27345
0.15850000 0.15849900 9665.75687902 0 7.37663208 0 1871.32105239 0 130.96819386 0 693.74598556 0 26980
0.15950000 0.15949700 9657.94462677 0 -15.28840906 0 2025.55402107 0 243.32299418 0 387.35507232 0 27777
0.16050000 0.16050000 9713.02381535 0 115.16608706 0 1766.47950303 0 222.55814008 0 648.62488946 0 28224
0.16150000 0.16150500 9628.62900966 0 196.10776485 0 1986.60516629 0 112.89097936 0 700.53533860 0 28075
0.16250000 0.16249700 9376.74850808 0 224.31955005 0 1835.54206112 0 52.09243528 0 595.15086580 0 28590
0.16350000 0.16349900 9292.83705037 0 155.04791586 0 1935.30283635 0 -40.94508195 0 1017.05295408 0 29163
0.16450000 0.16449100 9235.72330401 0 93.39688083 0 2077.08116402 0 -159.31599094 0 615.92696054 0 28996
0.16550000 0.16550500 9097.72183498 0 119.56342963 0 2111.71360893 0 -255.09195549 0 414.57093587 0 30777
0.16650000 0.16650700 9081.59150119 0 181.74333728 0 2053.58820400 0 -418.86374038 0 224.21726013 0 29211
0.16750000 0.16749900 8903.51711230 0 151.67122438 0 2263.99070438 0 -339.69246509 0 181.35553483 0 30922
0.16850000 0.16850800 8852.47331734 0 157.44217446 0 2259.52816604 0 -420.12156920 0 -177.76864318 0 30867
0.16950000 0.16949900 8802.03651751 0 80.62570309 0 2447.98891620 0 -31.67502969 0 -145.63724307 0 30852
0.17050000 0.17049200 8650.50130500 0 98.28364132 0 2312.64024074 0 92.83788327 0 -441.78567535 0 31257
0.17150000 0.17149500 8593.28639278 0 109.81879711 0 2341.51747247 0 194.25642967 0 -478.61004715 0 32608
0.17250000 0.17250900 8558.40665356 0 115.48194935 0 2341.88841395 0 131.48976006 0 -157.05662014 0 32361
0.17350000 0.17350400 8430.74658321 0 78.65701552 0 2451.70957159 0 344.43152344 0 90.70440776 0 32508
0.17450000 0.17449800 8410.11998912 0 73.08086591 0 2216.10553227 0 379.51471844 0 183.81723734 0 32791
0.17550000 0.17549800 8419.74198614 0 27.79689279 0 2293.30632149 0 271.72811858 0 359.34674289 0 33633
0.17650000 0.17650100 8257.46071154 0 128.90103819 0 2022.72137709 0 154.56906414 0 334.24974201 0 33984
0.17750000 0.17750300 8119.54916772 0 170.80393599 0 2320.07031088 0 54.82368859 0 459.13674382 0 34069
0.17850000 0.17849800 8005.70385712 0 211.57377619 0 2167.19746094 0 -103.77773418 0 385.81285504 0 34536
