### header ###
fiducial parameters:
Omega_m = 0.31
Omega_nu = 0
Omega_de = 0.69
Omega_k = 0
H_0 = 100
w_de = -1
zeff = 0
beta = 0
fgrowth = 0
b_1 = 2
gamma = 0.55
Lx = 3500 Ly = 3500 Lz = 3500
nx = 700 ny = 700 nz = 700
xoffset = 857.220397 yoffset = 15.9954215 zoffset = 262.898189
bins = 400 dk = 0.001
kx_ny = 0.628318531 ky_ny = 0.628318531 kz_ny = 0.628318531
############################
A(data) = 3.03855276 (not used)
A(ran) = 3.03859107 (used)
Ngal = 185789
weighted Ngal = 0
Nran = 9360983
weighted Nran = 0
SN(data) = 3439.76576
SN(ran) = 68.2353359
SN(data+ran) = 3508.00109
############################
13 columns: k_central k_mean P_0(k) sigma^{lin}_{P_0(k)} P^img_1(k) sigma^{lin}_{P_1(k)} P_2(k) sigma^{lin}_{P_2(k)} P^img_3(k) sigma^{lin}_{P_3(k)} P_4(k) sigma^{lin}_{P_4(k)} N_modes
### header ###
0.00050000 0 0 0 0 0 0 0 0 0 0 0 0
0.00150000 0.00179520 32401.85017113 0 -23608.06429126 0 3444.31523439 0 73156.17827442 0 -45758.89062175 0 3
0.00250000 0.00253879 62293.10100148 0 -26132.93925845 0 35556.98842481 0 -14860.92711192 0 29438.70223193 0 6
0.00350000 0.00331552 76129.55520578 0 -7477.24714430 0 35636.57223198 0 14889.59077129 0 22154.31093222 0 7
0.00450000 0.00420575 88141.76420295 0 10652.43871889 0 51597.50942444 0 15005.14466080 0 18533.58492526 0 24
0.00550000 0.00557378 81226.17865372 0 10708.57452864 0 49701.32405263 0 50351.25847789 0 16997.77481588 0 45
0.00650000 0.00659388 76441.59567008 0 7282.09820696 0 28323.51727291 0 87280.05591791 0 19678.33279570 0 40
0.00750000 0.00754703 71985.68931380 0 1020.54767239 0 11537.51631680 0 50354.63067311 0 -15395.86968021 0 57
0.00850000 0.00846663 69218.80313637 0 3475.49679952 0 4535.10798132 0 38210.45643637 0 32396.34225227 0 75
0.00950000 0.00948925 60968.50271934 0 2990.11426030 0 -2288.29299126 0 10535.29989762 0 25924.42518739 0 112
0.01050000 0.01054430 59339.84483493 0 2545.50156129 0 -10336.26169513 0 -1339.17740614 0 40412.72472758 0 105
0.01150000 0.01145670 62157.65116018 0 -3971.67036343 0 1497.43452778 0 9299.79501318 0 44181.15288515 0 144
0.01250000 0.01249090 63308.13176249 0 -8518.22132720 0 176.97842543 0 12334.81567315 0 48380.32277872 0 169
0.01350000 0.01339930 77184.49027689 0 -5288.91725999 0 9224.03302725 0 6680.43113594 0 41636.49437266 0 180
0.01450000 0.01448870 81637.92369000 0 -4162.34552178 0 696.32009457 0 14841.36837965 0 41685.16639033 0 267
0.01550000 0.01550050 84517.44118776 0 -589.83965833 0 10272.29115182 0 6020.50377217 0 22809.07883730 0 238
0.01650000 0.01653350 76525.78814405 0 8447.80989102 0 -1284.26682732 0 -7763.10813304 0 22146.66728972 0 315
0.01750000 0.01747870 75520.64915569 0 8496.65051845 0 10060.68590181 0 -9078.60148809 0 17959.97451846 0 297
0.01850000 0.01844180 61786.26006002 0 8494.21129724 0 -3344.37460874 0 -838.99542617 0 4663.29636226 0 388
0.01950000 0.01947590 57673.41836406 0 4199.67572286 0 -6436.14931425 0 -2475.85448936 0 -10814.13547965 0 399
0.02050000 0.02045430 54076.97216268 0 -571.22963698 0 -9861.43412695 0 6631.93896868 0 -13688.07761465 0 462
0.02150000 0.02154770 53009.22274974 0 -535.66534213 0 -9832.60185782 0 718.72383554 0 -9218.73868075 0 571
0.02250000 0.02255340 55168.10212914 0 -1774.86502847 0 -19914.27405455 0 720.71792698 0 181.69275435 0 510
0.02350000 0.02348930 54194.43696282 0 -3496.83155460 0 -9505.44271830 0 4952.83304379 0 2587.41794786 0 555
0.02450000 0.02439640 59629.06677824 0 -2649.16284233 0 -8692.35024767 0 3866.54779780 0 3090.57195588 0 592
0.02550000 0.02547300 62447.88476205 0 -3144.62824525 0 -8667.20491199 0 603.91182898 0 7389.65999381 0 837
0.02650000 0.02652900 63022.61923393 0 359.42992371 0 -1661.08716177 0 -1659.50223002 0 708.90063087 0 723
0.02750000 0.02749970 65461.16600351 0 2216.77997131 0 -665.32400018 0 -13544.64691132 0 7750.64225138 0 826
0.02850000 0.02848090 61430.38105788 0 1010.50527502 0 1865.29606360 0 -10434.32513210 0 -7286.83052092 0 831
0.02950000 0.02946900 63668.39461842 0 2070.15692317 0 11560.67205730 0 -13651.20828025 0 -1603.20905116 0 996
0.03050000 0.03053250 60428.27704521 0 2921.08542416 0 8732.41192688 0 -6714.59147351 0 -8496.27957697 0 1041
0.03150000 0.03150510 58871.89654500 0 2559.02406412 0 11666.89620671 0 467.59083724 0 -16424.27681559 0 1036
0.03250000 0.03246190 55839.05657127 0 3659.91091541 0 9362.72017597 0 -3884.65648612 0 -8564.22931064 0 1059
0.03350000 0.03345080 51668.88755658 0 2111.05041053 0 8978.70582504 0 4329.86493963 0 -20751.14050147 0 1302
0.03450000 0.03451200 52065.00808834 0 216.20380022 0 8961.05800340 0 4088.38203997 0 -5506.25524188 0 1339
0.03550000 0.03553350 50381.60823487 0 -269.05059557 0 5622.46108913 0 184.83226810 0 -13166.17420121 0 1365
0.03650000 0.03647120 51323.57476613 0 -76.82310336 0 9740.45100313 0 -1095.69816691 0 -5821.63417944 0 1308
0.03750000 0.03744890 50989.39021989 0 1711.83869982 0 10235.89392475 0 -4243.70535177 0 -8867.97417469 0 1579
0.03850000 0.03847530 47940.92574165 0 3785.09804260 0 11513.12410471 0 -4645.42372760 0 -7153.41523739 0 1662
0.03950000 0.03950240 45620.74302426 0 4184.52332567 0 17465.04866677 0 -3848.72012574 0 -6661.96274678 0 1683
0.04050000 0.04050350 42361.40393831 0 2106.23941202 0 15032.90906811 0 -2213.80119887 0 -11252.90304029 0 1822
0.04150000 0.04152450 42217.41120244 0 384.35269451 0 20705.39105299 0 1478.43782804 0 -9686.77689589 0 1887
0.04250000 0.04250150 42095.56254852 0 -1203.82873069 0 13903.78570218 0 1257.98618591 0 -17840.03677516 0 1920
0.04350000 0.04349210 43200.06888935 0 -1547.25309182 0 18368.45976602 0 2066.77348730 0 -9581.85666197 0 2005
0.04450000 0.04448520 42941.08429650 0 -211.35458350 0 11033.19328110 0 1750.66390745 0 -15259.18336732 0 2151
0.04550000 0.04548030 44327.16893814 0 365.87418877 0 14487.62510115 0 3719.64373339 0 -5368.28749481 0 2274
0.04650000 0.04648670 43403.52466758 0 1582.16655299 0 11455.68437947 0 1629.42224866 0 -7868.93885968 0 2311
0.04750000 0.04749250 42733.13225798 0 1157.78702529 0 13333.09786457 0 2869.67068772 0 -2085.11822930 0 2568
0.04850000 0.04851840 40720.60615110 0 1234.08856245 0 14443.11212425 0 332.35906455 0 271.37291401 0 2493
0.04950000 0.04949480 40631.01816478 0 1293.63028938 0 15861.23262047 0 602.90017041 0 -1385.63501561 0 2644
0.05050000 0.05050630 39777.74036779 0 1320.10202185 0 19068.41508704 0 555.34659749 0 170.27562540 0 2829
0.05150000 0.05149060 38357.93377396 0 1454.05685661 0 18662.85240866 0 -2118.64909043 0 2987.57387324 0 2784
0.05250000 0.05249300 37382.80732304 0 868.42682198 0 20536.78129203 0 2352.64571669 0 2001.01568053 0 3055
0.05350000 0.05348950 36732.64808476 0 -109.73516666 0 15899.45083296 0 4480.30980901 0 3657.59534136 0 3009
0.05450000 0.05448610 37342.67819993 0 120.27833502 0 13648.39811757 0 6705.74508138 0 4487.84104500 0 3336
0.05550000 0.05550870 36186.91449177 0 443.84383850 0 11460.85507881 0 4035.49477828 0 2859.05951343 0 3349
0.05650000 0.05647670 34671.78717974 0 1159.60801071 0 7252.26551992 0 2976.02972493 0 1880.15620387 0 3324
0.05750000 0.05747970 33763.31778766 0 1438.05016997 0 7818.86176067 0 -478.91579285 0 3195.04256378 0 3639
0.05850000 0.05849280 33226.46430875 0 769.86092791 0 7699.64341902 0 -1436.66756993 0 1217.47488067 0 3846
0.05950000 0.05951020 32541.12183368 0 492.57543162 0 9608.69933591 0 -1925.13004744 0 2281.05401219 0 3787
0.06050000 0.06049470 32398.47797591 0 448.17710936 0 12615.83194142 0 -2801.58606624 0 6228.88295542 0 3930
0.06150000 0.06148310 32429.05254589 0 512.23757788 0 13243.50987824 0 117.02416663 0 4881.57855880 0 4083
0.06250000 0.06249100 32597.43749385 0 875.87712528 0 14954.67413902 0 1685.85031533 0 6339.01885128 0 4303
0.06350000 0.06350600 32009.77627363 0 231.59449921 0 13208.21423494 0 2098.91050774 0 7883.39433652 0 4470
0.06450000 0.06451750 31718.41860668 0 309.91935350 0 12855.48261501 0 3788.53768172 0 6865.81194779 0 4479
0.06550000 0.06550280 32076.99536500 0 -253.80377692 0 11321.69582276 0 1591.60869960 0 6421.53646830 0 4636
0.06650000 0.06648880 31065.22439270 0 216.27124413 0 9068.18140486 0 1625.44305830 0 4590.88409025 0 4653
0.06750000 0.06749660 31844.42630138 0 604.08943126 0 11365.64676712 0 -951.65035186 0 4397.99452371 0 5220
0.06850000 0.06852730 30688.55018671 0 918.89059937 0 9328.84085466 0 -1219.65556692 0 3390.60740519 0 5029
0.06950000 0.06949320 30023.55328946 0 1173.04058833 0 12124.27828495 0 204.13696167 0 4956.27268291 0 5040
0.07050000 0.07048030 29516.15031547 0 9.84342660 0 10595.35869448 0 1087.29802862 0 4465.02252402 0 5475
0.07150000 0.07148790 30388.64962521 0 -635.65879884 0 10214.62661357 0 2766.71756767 0 3385.43670586 0 5509
0.07250000 0.07249820 29733.65690711 0 -300.88749064 0 10320.69339387 0 1693.10053505 0 2812.96160478 0 5916
0.07350000 0.07351270 29814.92681190 0 385.08446087 0 9091.75304945 0 236.80004456 0 2323.88089147 0 5721
0.07450000 0.07449140 29531.66241347 0 1061.49848707 0 9175.09123397 0 -45.86814975 0 1585.38137910 0 6028
0.07550000 0.07549160 28181.77266719 0 1219.75673277 0 9022.26334663 0 -46.29462004 0 2270.85874198 0 6183
0.07650000 0.07648840 27578.37453595 0 997.34472115 0 9107.74849544 0 486.38632933 0 2584.56282258 0 6330
0.07750000 0.07749960 26602.68605250 0 568.94666081 0 8669.01465675 0 1481.58521025 0 3271.09680662 0 6583
0.07850000 0.07848650 26633.03580947 0 496.94467256 0 8535.19470980 0 2443.11047378 0 3281.07850447 0 6549
0.07950000 0.07947320 25478.39616639 0 234.06519424 0 8100.33889562 0 1624.21782737 0 5493.76687892 0 6828
0.08050000 0.08048110 25617.55542244 0 523.14775348 0 6098.10922482 0 1585.89844903 0 3872.06695730 0 7147
0.08150000 0.08149960 25330.35679626 0 456.95605758 0 7969.37407396 0 -642.42454651 0 5743.00582757 0 7386
0.08250000 0.08250610 24426.83329050 0 645.34374351 0 5785.74278165 0 -1420.86321500 0 3333.30256777 0 7227
0.08350000 0.08350160 24542.72439954 0 507.66488116 0 9597.96451447 0 -1467.18593666 0 4297.49186552 0 7798
0.08450000 0.08449610 23668.98861822 0 398.74072745 0 7794.22225427 0 -1161.54140264 0 2006.69220915 0 7371
0.08550000 0.08548940 23547.02755779 0 485.10377108 0 9535.43277445 0 -370.03547767 0 1455.07975583 0 8256
0.08650000 0.08650700 23712.60234306 0 46.37296737 0 8784.28753000 0 1189.41821645 0 1182.43777235 0 8037
0.08750000 0.08749060 23085.71125179 0 -11.76941094 0 7386.24283599 0 1418.37903119 0 -307.90615295 0 8155
0.08850000 0.08849210 23405.28295207 0 527.01341326 0 7732.62348826 0 1019.33705430 0 210.63293372 0 8718
0.08950000 0.08949900 22320.44775002 0 653.28975951 0 6005.81224166 0 -138.41962123 0 -642.96409775 0 8571
0.09050000 0.09049190 22156.78387538 0 528.32294907 0 5767.58913072 0 40.55368249 0 -468.48559304 0 8932
0.09150000 0.09150830 21471.55380682 0 347.87228663 0 6017.46879647 0 -355.35856001 0 -1276.45457506 0 9285
0.09250000 0.09250820 21340.82503882 0 228.08629211 0 5126.35496912 0 129.41361187 0 -2808.76884206 0 9204
0.09350000 0.09350330 21204.81316497 0 93.86392986 0 5671.77382389 0 264.25083771 0 -2221.89446739 0 9349
0.09450000 0.09448040 20934.47551489 0 274.69003004 0 3823.54106810 0 237.55316816 0 -3818.70758828 0 9564
0.09550000 0.09549270 20562.97200823 0 241.20188339 0 4444.01374780 0 1087.64086847 0 -2679.92850338 0 10155
0.09650000 0.09649430 20319.27470038 0 138.56462563 0 2995.93691738 0 1090.61851685 0 -3625.80678109 0 9913
0.09750000 0.09749140 19842.10907685 0 164.19780555 0 2490.18631904 0 1385.45516520 0 -2437.64751752 0 10476
0.09850000 0.09850240 19454.86865917 0 582.81425162 0 2717.40483292 0 279.66064580 0 -2756.72462917 0 10575
0.09950000 0.09950330 18742.66102885 0 678.95216513 0 2010.30045803 0 -166.79102368 0 -2096.03290116 0 10882
0.10050000 0.10051200 18152.75167849 0 1179.87490398 0 2911.03628241 0 -455.06987639 0 -765.83452682 0 10875
0.10150000 0.10150300 17000.02294603 0 843.37927996 0 2955.34692759 0 -829.01822458 0 -778.27455499 0 11118
0.10250000 0.10250800 16792.18331401 0 650.30087048 0 4480.68075048 0 -474.26103938 0 91.93851880 0 11575
0.10350000 0.10349800 16290.51307189 0 255.06835013 0 3831.85914964 0 -18.59169909 0 -899.32737084 0 11364
0.10450000 0.10450100 16428.99788889 0 123.58308633 0 4967.97420032 0 -6.07993309 0 288.09563011 0 12093
0.10550000 0.10551000 16197.89010987 0 -88.57093225 0 4192.49294704 0 110.31698275 0 -159.11253516 0 12067
0.10650000 0.10649700 16334.23920323 0 -109.31263060 0 5472.90423116 0 476.92956987 0 1177.09846325 0 12054
0.10750000 0.10749900 16595.24711321 0 -34.50182854 0 5201.16149974 0 454.83719492 0 397.27719472 0 12807
0.10850000 0.10850100 16581.75833233 0 154.62077113 0 4998.97591504 0 328.80364673 0 1316.95463964 0 12736
0.10950000 0.10950300 16673.70685531 0 289.03422444 0 5625.88948761 0 314.86299169 0 1482.28213059 0 12933
0.11050000 0.11050200 16202.27396365 0 49.59004161 0 5292.94141296 0 531.38827453 0 1558.71855557 0 13428
0.11150000 0.11150900 16397.52406685 0 105.42179176 0 5625.83328435 0 219.33769365 0 2100.07953542 0 13453
0.11250000 0.11250000 16228.12746033 0 61.02358191 0 5306.55384099 0 230.81889431 0 928.83745120 0 13668
0.11350000 0.11349100 16183.38967042 0 199.12363144 0 5329.70958150 0 216.31620673 0 1855.16823729 0 13791
0.11450000 0.11448600 15864.26759617 0 485.26676051 0 5051.50347590 0 283.19470639 0 1835.23856355 0 14205
0.11550000 0.11549300 15437.57249442 0 523.41977722 0 5052.15543365 0 -115.41787764 0 2045.15771595 0 14776
0.11650000 0.11649800 14897.12200728 0 461.41859592 0 5400.23342418 0 187.67165647 0 1579.74981308 0 14553
0.11750000 0.11747300 14818.54985867 0 149.00044576 0 4688.00331257 0 513.64603141 0 2104.78936808 0 14568
0.11850000 0.11849100 14445.36025440 0 40.43633009 0 4290.20792385 0 587.51284363 0 1524.35588628 0 16015
0.11950000 0.11950300 14806.85958191 0 -149.76705814 0 3934.32892170 0 229.66785167 0 1011.52817424 0 15270
0.12050000 0.12050700 14663.76609810 0 86.59741120 0 3613.71184090 0 317.09988119 0 516.98675281 0 15999
0.12150000 0.12150000 14442.88731124 0 364.06669214 0 3084.11982236 0 -768.78969390 0 -585.66937691 0 15670
0.12250000 0.12250700 14061.71684495 0 294.59385029 0 3639.65526279 0 -760.68181253 0 -78.15658175 0 16887
0.12350000 0.12352200 13800.25930895 0 408.54369895 0 3615.46538242 0 -670.39465773 0 -1129.79780497 0 16407
0.12450000 0.12449800 13644.46388981 0 414.02688837 0 4069.29541503 0 -327.56155482 0 -704.23463675 0 16306
0.12550000 0.12549900 13398.51845182 0 272.07882688 0 4187.15363794 0 -134.58993153 0 -1281.54658984 0 17523
0.12650000 0.12650100 13212.37327571 0 343.94255513 0 4429.14236688 0 429.76829566 0 -366.85324945 0 17154
0.12750000 0.12750600 13003.97161116 0 232.34312654 0 4534.47850488 0 479.81279678 0 -338.38967367 0 18007
0.12850000 0.12850300 12740.60316453 0 18.54920943 0 4257.28405786 0 575.90012736 0 134.71695088 0 17496
0.12950000 0.12949900 12847.27693997 0 -24.71965224 0 3767.31533314 0 1054.64506231 0 -331.62167787 0 18405
0.13050000 0.13049000 12680.24087011 0 -62.56647363 0 3468.69620582 0 752.21647846 0 -234.74750174 0 18100
0.13150000 0.13148800 12795.68235312 0 13.85219112 0 2758.80414956 0 377.71509025 0 72.45745942 0 19059
0.13250000 0.13249300 12662.70545497 0 271.11325498 0 3142.66113137 0 5.02834774 0 -83.67338072 0 18957
0.13350000 0.13349100 12391.69336584 0 388.75565740 0 2722.22707208 0 -605.01004055 0 112.72574179 0 19468
0.13450000 0.13450700 12218.02531205 0 327.72342019 0 3092.06696243 0 -298.84169220 0 157.46128357 0 19953
0.13550000 0.13551000 12112.47560169 0 89.43309016 0 3444.66369456 0 -248.45547530 0 614.58033059 0 19956
0.13650000 0.13649900 12047.05501443 0 -64.43377053 0 3213.30862121 0 652.09937460 0 717.14902038 0 19723
0.13750000 0.13749600 12068.29984431 0 -53.95523592 0 3432.66992023 0 684.07340560 0 457.40343548 0 20946
0.13850000 0.13851100 12083.24990979 0 -24.11142063 0 3039.57312352 0 504.12969650 0 652.97951755 0 20955
0.13950000 0.13949800 12148.55809053 0 127.51731409 0 2918.35394603 0 581.18435727 0 1096.23209782 0 20506
0.14050000 0.14048300 11935.09813315 0 119.02725059 0 2914.03753615 0 -83.79309365 0 1014.82618117 0 21447
0.14150000 0.14148400 11940.38123900 0 81.04722749 0 2716.53930281 0 -334.44195713 0 1056.26933635 0 21771
0.14250000 0.14249400 11914.30292930 0 208.27014894 0 3730.49096135 0 -770.79502599 0 714.39281282 0 22470
0.14350000 0.14350900 11753.11199782 0 262.54113473 0 3688.59705607 0 -957.80910440 0 525.74321973 0 22519
0.14450000 0.14449900 11619.34825412 0 360.25161528 0 4404.40169462 0 -542.28496135 0 379.27079631 0 22218
0.14550000 0.14550500 11347.09969341 0 183.85545555 0 4500.08211364 0 -84.86781227 0 428.07994992 0 23559
0.14650000 0.14650700 11295.05548053 0 165.74339503 0 4314.84743025 0 685.55379930 0 -112.54364325 0 23044
0.14750000 0.14750500 11161.41538399 0 -7.12628031 0 4098.71219799 0 1100.12923143 0 591.18628829 0 23649
0.14850000 0.14849900 10845.01354721 0 155.13222074 0 3053.39912392 0 1118.10190789 0 14.87891215 0 23640
0.14950000 0.14949500 10803.51306471 0 86.06853858 0 2880.41674982 0 683.21012362 0 545.38513282 0 24457
0.15050000 0.15050000 10615.79419751 0 185.27402567 0 2665.50674849 0 434.93337467 0 665.23295091 0 24591
0.15150000 0.15149900 10434.62862967 0 202.56214650 0 2350.28518004 0 -225.96518132 0 609.11400214 0 25020
0.15250000 0.15250500 10286.64546280 0 207.10898972 0 2465.96271671 0 -395.94180541 0 296.16978953 0 25297
0.15350000 0.15350100 10140.61816915 0 162.54430583 0 2656.90765068 0 -300.03657338 0 10.59202022 0 25452
0.15450000 0.15450400 9890.98579772 0 231.04370732 0 2390.21197144 0 -152.94479011 0 -239.42473651 0 26061
0.15550000 0.15549900 9862.24345380 0 172.29669440 0 2820.52656272 0 -50.08766522 0 -303.57737836 0 26128
0.15650000 0.15649500 9702.59249147 0 119.53757613 0 2449.42771949 0 133.37032092 0 -204.75969372 0 26331
0.15750000 0.15749700 9647.70439395 0 42.63724951 0 2688.25782557 0 219.35005836 0 -184.08251670 0 27345
0.15850000 0.15849900 9640.34176772 0 -16.02950516 0 2886.63282967 0 34.79588396 0 239.90471229 0 26980
0.15950000 0.15949700 9746.62212038 0 131.50437290 0 2935.65330751 0 70.15818432 0 517.02047476 0 27777
0.16050000 0.16050000 9637.77889935 0 161.45621084 0 3366.82218825 0 -30.77060694 0 952.42033644 0 28224
0.16150000 0.16150500 9620.29968747 0 138.47694855 0 3343.29550627 0 -111.75331310 0 1136.04760678 0 28075
0.16250000 0.16249700 9500.46311002 0 216.84788951 0 3779.72501155 0 -252.76626486 0 986.46377124 0 28590
0.16350000 0.16349900 9495.79823997 0 213.67015755 0 3831.01610083 0 -195.36700596 0 1427.02309160 0 29163
0.16450000 0.16449100 9284.51896883 0 109.37389215 0 4107.34501775 0 -98.09637208 0 867.10042519 0 28996
0.16550000 0.16550500 9293.43280486 0 29.26020070 0 3912.39841213 0 -62.29186453 0 968.15162713 0 30777
0.16650000 0.16650700 9315.07105752 0 -36.05922070 0 3833.46656269 0 553.18502036 0 912.69250456 0 29211
0.16750000 0.16749900 9180.94761300 0 -30.54556911 0 3523.25832447 0 698.29844910 0 801.79224445 0 30922
0.16850000 0.16850800 9186.25320014 0 46.31271748 0 2988.36071879 0 850.20235495 0 879.97209435 0 30867
0.16950000 0.16949900 9083.53613376 0 89.04292717 0 2840.16397955 0 533.77354061 0 1027.57869942 0 30852
0.17050000 0.17049200 8967.06051089 0 125.00615271 0 2303.86129252 0 609.59622605 0 697.75102941 0 31257
0.17150000 0.17149500 8823.98950838 0 81.31902643 0 2235.52937673 0 107.34888892 0 1179.04309582 0 32608
0.17250000 0.17250900 8719.94604522 0 48.29444421 0 2030.51114805 0 -157.68834471 0 973.22678094 0 32361
0.17350000 0.17350400 8760.71588542 0 83.36920872 0 2062.50204003 0 21.11859737 0 926.86471700 0 32508
0.17450000 0.17449800 8642.32935192 0 129.06177950 0 2166.86024141 0 -172.45743571 0 681.61507529 0 32791
0.17550000 0.17549800 8475.39444791 0 187.54576119 0 1965.37157706 0 -74.09466020 0 712.58531618 0 33633
0.17650000 0.17650100 8326.97289566 0 239.74059879 0 2064.17689699 0 76.32705344 0 202.06306161 0 33984
0.17750000 0.17750300 8154.44014759 0 191.09218649 0 1913.05758856 0 -11.16131422 0 188.07631990 0 34069
0.17850000 0.17849800 7959.93192734 0 229.07546938 0 1880.59458925 0 -67.65073236 0 65.45723178 0 34536
