### header ###
fiducial parameters:
Omega_m = 0.31
Omega_nu = 0
Omega_de = 0.69
Omega_k = 0
H_0 = 100
w_de = -1
zeff = 0
beta = 0
fgrowth = 0
b_1 = 2
gamma = 0.55
Lx = 3500 Ly = 3500 Lz = 3500
nx = 700 ny = 700 nz = 700
xoffset = 857.220397 yoffset = 15.9954215 zoffset = 262.898189
bins = 400 dk = 0.001
kx_ny = 0.628318531 ky_ny = 0.628318531 kz_ny = 0.628318531
############################
A(data) = 3.09706112 (not used)
A(ran) = 3.10245502 (used)
Ngal = 189779
weighted Ngal = 0
Nran = 9360983
weighted Nran = 0
SN(data) = 3424.36886
SN(ran) = 69.6694803
SN(data+ran) = 3494.03834
############################
13 columns: k_central k_mean P_0(k) sigma^{lin}_{P_0(k)} P^img_1(k) sigma^{lin}_{P_1(k)} P_2(k) sigma^{lin}_{P_2(k)} P^img_3(k) sigma^{lin}_{P_3(k)} P_4(k) sigma^{lin}_{P_4(k)} N_modes
### header ###
0.00050000 0 0 0 0 0 0 0 0 0 0 0 0
0.00150000 0.00179520 20452.13919202 0 -19427.32906488 0 -9627.32509417 0 44506.79453682 0 -5220.10199622 0 3
0.00250000 0.00253879 38706.16913360 0 -24355.00553233 0 -6898.65712923 0 -3248.61550516 0 33089.89040237 0 6
0.00350000 0.00331552 40658.22053955 0 -10870.64223088 0 -5674.37041421 0 -36323.82561768 0 4673.71644549 0 7
0.00450000 0.00420575 43391.04754526 0 2155.39477767 0 -16633.57773220 0 -18707.02816604 0 11982.08405321 0 24
0.00550000 0.00557378 30780.49870969 0 5451.19853460 0 -16884.80627604 0 -12734.64561965 0 10698.28933322 0 45
0.00650000 0.00659388 29572.35356912 0 1265.86588207 0 -7156.70874806 0 -14059.69352782 0 -3977.99884979 0 40
0.00750000 0.00754703 27570.73089345 0 -7774.60731874 0 -4778.02968427 0 -8220.82743081 0 1781.18227418 0 57
0.00850000 0.00846663 41132.35118738 0 -10231.90349374 0 12244.44084127 0 -13931.55010948 0 -907.47571855 0 75
0.00950000 0.00948925 53807.42135815 0 -8723.23955588 0 14395.22695214 0 -17658.38785934 0 -3275.03103438 0 112
0.01050000 0.01054430 62499.92897493 0 -7018.57239123 0 29736.24225678 0 1997.26130318 0 9259.84574048 0 105
0.01150000 0.01145670 67516.74380268 0 -2173.28989363 0 30420.12344725 0 3442.37060181 0 6907.81825957 0 144
0.01250000 0.01249090 70911.53272995 0 -4807.99725912 0 18949.26418929 0 34402.01156220 0 12324.58668098 0 169
0.01350000 0.01339930 75224.90763495 0 -2902.63951631 0 24802.38343142 0 21886.55863181 0 4314.34160097 0 180
0.01450000 0.01448870 78888.57292771 0 -2212.58720859 0 -5451.98538015 0 14233.36158161 0 1841.12866453 0 267
0.01550000 0.01550050 71940.95152389 0 3933.28354119 0 -994.66382595 0 -18443.09768687 0 -8851.63026853 0 238
0.01650000 0.01653350 71843.60748856 0 6740.55737670 0 -3064.61729335 0 -18959.94280748 0 10486.21197588 0 315
0.01750000 0.01747870 64813.36730188 0 968.49221885 0 4534.06260080 0 -16803.64877776 0 -8107.17321127 0 297
0.01850000 0.01844180 69929.66188860 0 1740.26630552 0 8273.04025345 0 -8698.47640232 0 9405.92923738 0 388
0.01950000 0.01947590 70932.55274682 0 46.18457406 0 28412.54322670 0 96.38127360 0 -5370.72671601 0 399
0.02050000 0.02045430 70901.52855080 0 -1023.04871717 0 22956.78098790 0 9055.29961913 0 12288.84141166 0 462
0.02150000 0.02154770 74873.41248660 0 -1145.48975339 0 28935.12107918 0 12182.50485574 0 14020.01403074 0 571
0.02250000 0.02255340 76321.54552027 0 -4262.35359134 0 32792.12556451 0 18195.35374476 0 23728.22684757 0 510
0.02350000 0.02348930 76126.07060406 0 -3459.19785596 0 27484.85232187 0 12240.84383303 0 28123.32128339 0 555
0.02450000 0.02439640 81768.76486451 0 -1325.25023988 0 28515.05796136 0 15956.77815169 0 21217.40269379 0 592
0.02550000 0.02547300 81328.91820140 0 2668.51924289 0 32696.91725281 0 5688.02780485 0 30465.19845668 0 837
0.02650000 0.02652900 78090.03709978 0 3121.15776652 0 34790.15123194 0 -3761.94230209 0 18246.94833162 0 723
0.02750000 0.02749970 78619.35934270 0 4018.54387698 0 32230.99228001 0 -643.88695517 0 31909.39726260 0 826
0.02850000 0.02848090 73319.39252304 0 1164.38528727 0 29024.48425249 0 -745.71263795 0 7629.22074219 0 831
0.02950000 0.02946900 75328.32162168 0 3643.79182226 0 25473.11306054 0 4355.07771922 0 10336.34037968 0 996
0.03050000 0.03053250 70243.72567002 0 3955.61871419 0 19355.95093274 0 2598.66983924 0 -1074.29821605 0 1041
0.03150000 0.03150510 64378.69133811 0 4771.09420277 0 10241.94139484 0 7662.72912202 0 -14084.31055292 0 1036
0.03250000 0.03246190 59087.49222602 0 3318.77964702 0 8558.87876089 0 3803.64511630 0 -12164.29500156 0 1059
0.03350000 0.03345080 57111.27342101 0 2010.69388081 0 -430.00772152 0 4569.32452215 0 -21785.28036872 0 1302
0.03450000 0.03451200 53205.82173103 0 783.62622880 0 796.85984691 0 244.66175568 0 -13300.61238395 0 1339
0.03550000 0.03553350 52239.35058118 0 1632.19868939 0 796.37312673 0 -2255.70634479 0 -14928.70823583 0 1365
0.03650000 0.03647120 52465.40006738 0 2302.43372988 0 5282.39768257 0 -3875.29302406 0 -7188.39614247 0 1308
0.03750000 0.03744890 50990.28947195 0 2026.11605361 0 11662.51235293 0 -5956.12856543 0 -4237.82649144 0 1579
0.03850000 0.03847530 50580.45534630 0 3054.29837597 0 18513.57656696 0 -7556.80847018 0 917.95200504 0 1662
0.03950000 0.03950240 49514.16721796 0 2690.64084353 0 26415.07959180 0 -4538.50265784 0 1681.75871847 0 1683
0.04050000 0.04050350 48850.40679229 0 2600.08616124 0 31434.92939525 0 -2696.29489084 0 3389.86552225 0 1822
0.04150000 0.04152450 47955.31377458 0 887.44150676 0 30889.87024130 0 -854.74582598 0 4785.22370074 0 1887
0.04250000 0.04250150 47584.82192649 0 450.39938601 0 30918.87112019 0 2840.41127386 0 144.09277766 0 1920
0.04350000 0.04349210 49025.31131767 0 41.57601967 0 33055.94363716 0 5996.68483327 0 1228.34458993 0 2005
0.04450000 0.04448520 47803.78980273 0 -87.86872880 0 26123.38470533 0 6395.67173097 0 -3693.35185133 0 2151
0.04550000 0.04548030 48457.20882972 0 648.36523042 0 27640.31052148 0 3204.45098844 0 2637.32643711 0 2274
0.04650000 0.04648670 46953.99660747 0 1119.82285151 0 22661.15187368 0 2950.54716973 0 -880.11485061 0 2311
0.04750000 0.04749250 45486.97928057 0 1589.07955319 0 22833.35864288 0 -134.61466096 0 -1384.78072615 0 2568
0.04850000 0.04851840 44791.07059381 0 1261.76304455 0 25763.68388194 0 1521.38835449 0 3041.58520000 0 2493
0.04950000 0.04949480 43032.80800647 0 784.31415662 0 21685.57579674 0 -171.36821665 0 902.97046574 0 2644
0.05050000 0.05050630 43685.55259442 0 1.90071535 0 21671.18776380 0 3930.46213785 0 1506.98908090 0 2829
0.05150000 0.05149060 42359.83024720 0 715.23473756 0 19636.62998149 0 2333.90755193 0 -1091.76731135 0 2784
0.05250000 0.05249300 42324.53460391 0 525.44871468 0 16169.78848304 0 3113.87382485 0 -1758.31879060 0 3055
0.05350000 0.05348950 40377.31667778 0 1675.61008252 0 16701.58366912 0 1361.82731736 0 -1613.13454575 0 3009
0.05450000 0.05448610 40221.74607166 0 1243.44078386 0 16996.65075081 0 350.34522979 0 1250.61231903 0 3336
0.05550000 0.05550870 38435.94389003 0 682.59526003 0 16088.40617175 0 969.11157871 0 -326.90285269 0 3349
0.05650000 0.05647670 39871.71220790 0 500.00774988 0 20861.74850466 0 1130.48348467 0 6314.81773026 0 3324
0.05750000 0.05747970 38852.63481263 0 -492.36860364 0 18399.14674252 0 1834.84514077 0 3312.49612327 0 3639
0.05850000 0.05849280 40222.30810420 0 367.78285127 0 20897.49377399 0 1566.18234765 0 6100.86318425 0 3846
0.05950000 0.05951020 39497.84816459 0 1272.20560908 0 20426.28569534 0 2493.27749799 0 7959.56098587 0 3787
0.06050000 0.06049470 38053.08732613 0 1328.35265948 0 17679.07065669 0 576.68809697 0 4018.69000544 0 3930
0.06150000 0.06148310 37425.29698281 0 369.97365409 0 18133.08053971 0 3396.87968830 0 5502.46714258 0 4083
0.06250000 0.06249100 36208.15932165 0 821.74777169 0 15023.91654752 0 2556.85461852 0 854.43445995 0 4303
0.06350000 0.06350600 35382.42111896 0 924.32208180 0 12282.09702122 0 1243.29465540 0 -1339.34601590 0 4470
0.06450000 0.06451750 33846.49860307 0 1287.56033798 0 11008.99216008 0 2080.65569096 0 -760.53456000 0 4479
0.06550000 0.06550280 32314.84753447 0 1613.22447096 0 9778.78162212 0 1731.94822398 0 1727.85662711 0 4636
0.06650000 0.06648880 31161.21954995 0 1375.85564947 0 8221.72668287 0 2389.29023808 0 -1221.21801737 0 4653
0.06750000 0.06749660 30145.06472386 0 92.94556870 0 8357.00791441 0 3618.46663616 0 2068.83052639 0 5220
0.06850000 0.06852730 29610.57178161 0 35.61791275 0 5806.86396438 0 1913.01262596 0 1812.48748647 0 5029
0.06950000 0.06949320 29922.05021336 0 -377.69260895 0 5893.07975548 0 2549.25593863 0 2267.46406546 0 5040
0.07050000 0.07048030 29387.89449063 0 252.68870437 0 4652.29176519 0 -932.89757425 0 1528.94207178 0 5475
0.07150000 0.07148790 29480.85467217 0 269.09106191 0 4882.46657021 0 -949.55172237 0 -33.21960751 0 5509
0.07250000 0.07249820 29097.99810827 0 653.06157430 0 5313.77033876 0 -1800.49371214 0 1060.72400623 0 5916
0.07350000 0.07351270 28700.41629192 0 575.10766148 0 6501.15399743 0 -1703.90280041 0 -2495.64927529 0 5721
0.07450000 0.07449140 28403.66311262 0 883.53313250 0 7181.47190162 0 -2245.40990872 0 1281.19812967 0 6028
0.07550000 0.07549160 27422.01708428 0 1159.23706924 0 9503.20582880 0 42.44391031 0 323.34743486 0 6183
0.07650000 0.07648840 27139.31471840 0 1152.98726743 0 9570.46988278 0 -469.53434575 0 3194.54797514 0 6330
0.07750000 0.07749960 26178.80111343 0 555.24430757 0 9988.50968346 0 2034.71515142 0 3890.06323912 0 6583
0.07850000 0.07848650 26436.43682819 0 -319.82573899 0 10674.87505775 0 3179.13704299 0 5335.82449549 0 6549
0.07950000 0.07947320 26255.46235142 0 -186.78027287 0 9462.68328292 0 2531.37206332 0 5943.60648052 0 6828
0.08050000 0.08048110 26374.05121663 0 25.12094347 0 9845.70845658 0 1261.70684130 0 5868.64258079 0 7147
0.08150000 0.08149960 26394.73401398 0 252.99557413 0 8355.53538917 0 773.26122476 0 7758.27465323 0 7386
0.08250000 0.08250610 26226.57387904 0 310.60053693 0 9335.72013291 0 -543.69004269 0 7290.32636330 0 7227
0.08350000 0.08350160 26069.76680134 0 497.35608037 0 9335.48407925 0 -628.02639699 0 6879.40189452 0 7798
0.08450000 0.08449610 25294.72393344 0 458.29481908 0 10086.47195458 0 -568.33741754 0 7079.13701736 0 7371
0.08550000 0.08548940 25026.52200700 0 582.34439242 0 9466.72991718 0 -490.49815936 0 4299.00935337 0 8256
0.08650000 0.08650700 24618.48638547 0 547.27581027 0 10090.72092056 0 -836.78776237 0 3895.03160675 0 8037
0.08750000 0.08749060 24168.18591718 0 505.90122306 0 8822.50574249 0 954.24019779 0 2965.71080756 0 8155
0.08850000 0.08849210 23494.75853189 0 321.48148684 0 8768.85411655 0 175.73970572 0 2211.86780694 0 8718
0.08950000 0.08949900 23504.87511755 0 185.27065348 0 8822.66311160 0 475.87856902 0 2119.76191485 0 8571
0.09050000 0.09049190 23199.69145020 0 282.52701173 0 8481.35199280 0 1184.04518540 0 3385.35802130 0 8932
0.09150000 0.09150830 23090.31991859 0 178.65890272 0 8717.64171182 0 459.38741033 0 1892.02633104 0 9285
0.09250000 0.09250820 22755.23612030 0 442.10490984 0 9039.48402355 0 -309.96094391 0 3783.40070434 0 9204
0.09350000 0.09350330 22601.80123782 0 617.11172513 0 9371.99371282 0 -483.57279445 0 2894.79354210 0 9349
0.09450000 0.09448040 21682.42841453 0 1140.77992074 0 9871.08984593 0 -605.59118220 0 1720.98858952 0 9564
0.09550000 0.09549270 20571.51490279 0 1373.84357299 0 9504.43105973 0 -839.77889953 0 1300.09366355 0 10155
0.09650000 0.09649430 19237.58688054 0 1326.71152448 0 9048.48778478 0 -213.81178975 0 -1079.95226337 0 9913
0.09750000 0.09749140 18380.37485579 0 940.69071740 0 8857.43044431 0 -206.43792287 0 -1641.85440837 0 10476
0.09850000 0.09850240 17330.04845149 0 284.27268479 0 7874.90764521 0 938.79666775 0 -3936.72318031 0 10575
0.09950000 0.09950330 17347.24664711 0 78.23650278 0 7694.45023838 0 684.07340560 0 -3425.68947613 0 10882
0.10050000 0.10051200 17491.80141551 0 -176.57825827 0 6872.53385693 0 1448.43653124 0 -3764.10050703 0 10875
0.10150000 0.10150300 17336.56802891 0 139.77861590 0 7156.40525049 0 983.58728872 0 -2871.31182272 0 11118
0.10250000 0.10250800 17430.98949506 0 184.81653119 0 6923.08306327 0 1148.82822666 0 -438.92268161 0 11575
0.10350000 0.10349800 17125.80582771 0 173.80743786 0 6330.49843803 0 1221.08312956 0 120.97413130 0 11364
0.10450000 0.10450100 17166.49698336 0 312.63959098 0 7074.83184813 0 1276.06115228 0 2619.16154553 0 12093
0.10550000 0.10551000 16883.90702398 0 244.68985731 0 6636.74996719 0 987.04716101 0 1807.85633837 0 12067
0.10650000 0.10649700 16551.97060789 0 388.88604895 0 6706.94783101 0 955.94877670 0 3485.18624045 0 12054
0.10750000 0.10749900 16201.37471159 0 309.33933592 0 5580.01639197 0 -183.60816124 0 2341.53995377 0 12807
0.10850000 0.10850100 15965.77067227 0 69.21779148 0 5979.30678724 0 -116.11592205 0 2825.21391408 0 12736
0.10950000 0.10950300 16290.51307189 0 -193.78432234 0 5970.87629919 0 98.68335886 0 1783.93623361 0 12933
0.11050000 0.11050200 16216.66199659 0 -197.38807497 0 4735.38265540 0 269.80371917 0 1034.32758612 0 13428
0.11150000 0.11150900 16266.00845330 0 51.14192585 0 5083.12342641 0 317.36740867 0 613.60351804 0 13453
0.11250000 0.11250000 16284.10590097 0 267.11832771 0 4193.58329016 0 89.96185037 0 -504.31741537 0 13668
0.11350000 0.11349100 15692.39804649 0 595.40940077 0 4383.39291841 0 -514.12937939 0 -346.08727129 0 13791
0.11450000 0.11448600 15533.79246468 0 448.61099848 0 4244.76197294 0 -24.48910650 0 -936.44062736 0 14205
0.11550000 0.11549300 14843.95372932 0 274.37641589 0 4375.13104012 0 -338.17160505 0 -1087.43066830 0 14776
0.11650000 0.11649800 14921.62662587 0 92.45030563 0 4407.36922642 0 24.85195470 0 -1800.77472841 0 14553
0.11750000 0.11747300 14776.62223144 0 177.98895993 0 4444.86803725 0 -652.24325493 0 -1995.83374054 0 14568
0.11850000 0.11849100 14649.82769119 0 138.13748090 0 4335.21548937 0 -258.43380096 0 -2038.95287675 0 16015
0.11950000 0.11950300 14749.53226318 0 78.85451376 0 4812.58344462 0 -472.93239447 0 -2032.34337412 0 15270
0.12050000 0.12050700 14746.83450700 0 -51.77005341 0 4608.79044686 0 -163.49189269 0 -2552.33587693 0 15999
0.12150000 0.12150000 14969.17457846 0 120.92242430 0 4583.60014858 0 -46.18895792 0 -2631.81851825 0 15670
0.12250000 0.12250700 14721.20582334 0 74.35420683 0 4473.57665922 0 -75.58517049 0 -2284.96575864 0 16887
0.12350000 0.12352200 14832.48826557 0 170.13286914 0 4966.40050922 0 501.82086684 0 -2243.19550053 0 16407
0.12450000 0.12449800 14592.94999849 0 326.84777350 0 5029.77529804 0 232.19362589 0 -1952.33242221 0 16306
0.12550000 0.12549900 14291.36333938 0 408.69095147 0 5000.02129556 0 583.58873246 0 -1663.72871469 0 17523
0.12650000 0.12650100 13778.78966605 0 562.56084713 0 4885.78256218 0 217.25480107 0 -892.11536933 0 17154
0.12750000 0.12750600 13628.50216578 0 411.75065660 0 5178.24181290 0 71.22784464 0 -1021.26032964 0 18007
0.12850000 0.12850300 13140.32070453 0 249.09394426 0 5247.38305554 0 -78.78470931 0 -205.10702982 0 17496
0.12950000 0.12949900 13116.15330546 0 4.74672447 0 5000.04377686 0 327.93137223 0 -762.33531225 0 18405
0.13050000 0.13049000 13203.83038116 0 -307.49474514 0 4440.77644039 0 146.70173269 0 -1288.15609247 0 18100
0.13150000 0.13148800 13390.42518329 0 -197.47013172 0 4151.50953448 0 666.15918053 0 -1396.68457528 0 19059
0.13250000 0.13249300 13258.34753720 0 -47.80221611 0 4018.20665746 0 664.15946877 0 -1122.25083207 0 18957
0.13350000 0.13349100 13320.17111622 0 260.44924963 0 3444.67493521 0 386.66489637 0 -1084.73628432 0 19468
0.13450000 0.13450700 13107.72281741 0 350.05409693 0 4019.27451928 0 465.46185799 0 -647.47047463 0 19953
0.13550000 0.13551000 12719.47074116 0 551.21565835 0 3339.14770615 0 -153.70016184 0 -545.76169462 0 19956
0.13650000 0.13649900 12535.46128869 0 314.20316549 0 4319.30996859 0 483.00514159 0 781.77938988 0 19723
0.13750000 0.13749600 12133.38321205 0 122.21172694 0 3832.98321471 0 -160.22985584 0 388.83996228 0 20946
0.13850000 0.13851100 12320.31523370 0 78.91656215 0 4063.56268316 0 124.94882540 0 694.29677744 0 20955
0.13950000 0.13949800 12181.60560368 0 -6.14253228 0 3976.85230342 0 125.11743516 0 215.46753760 0 20506
0.14050000 0.14048300 12051.10164870 0 175.20914701 0 3989.21701922 0 -294.27911207 0 359.58616875 0 21447
0.14150000 0.14148400 11962.30050792 0 47.30807711 0 3919.24396842 0 -326.25539121 0 -490.84099921 0 21771
0.14250000 0.14249400 11840.00222797 0 219.99751985 0 4108.59272999 0 -100.47006030 0 -610.98781861 0 22470
0.14350000 0.14350900 11557.18745558 0 138.25325960 0 3658.35970561 0 141.94244117 0 -988.21618869 0 22519
0.14450000 0.14449900 11459.61860723 0 238.69746640 0 3636.82261881 0 609.04093791 0 -784.52772899 0 22218
0.14550000 0.14550500 11286.84980550 0 228.61460270 0 3236.56552758 0 620.36027319 0 -449.06399670 0 23559
0.14650000 0.14650700 11019.05254248 0 199.11801111 0 3165.46841170 0 586.76758848 0 -808.30507748 0 23044
0.14750000 0.14750500 10956.31847075 0 185.39654877 0 2733.08554069 0 876.20198009 0 -48.63155132 0 23649
0.14850000 0.14849900 10737.49672297 0 -16.79757883 0 2554.40415667 0 275.51059755 0 -80.42573192 0 23640
0.14950000 0.14949500 10821.65547499 0 -112.40763137 0 2236.40614749 0 537.04119778 0 198.69985891 0 24457
0.15050000 0.15050000 10902.97034238 0 -45.91951952 0 2071.91046469 0 267.50050984 0 -13.67177867 0 24591
0.15150000 0.15149900 10807.57093963 0 168.58952779 0 2103.18195502 0 -292.64134926 0 -120.06701078 0 25020
0.15250000 0.15250500 10708.20358717 0 356.54107647 0 2262.75423280 0 -624.42826469 0 -248.56001335 0 25297
0.15350000 0.15350100 10394.07236184 0 382.10344030 0 2558.56319744 0 -785.67202723 0 -388.49599837 0 25452
0.15450000 0.15450400 10097.75756792 0 461.75918764 0 3016.08016349 0 -735.24646805 0 -685.76512354 0 26061
0.15550000 0.15549900 9937.97171778 0 176.58612672 0 3488.97433974 0 -249.57167192 0 -506.35422128 0 26128
0.15650000 0.15649500 9837.68263195 0 63.45752001 0 3406.17570646 0 112.14347608 0 -411.90465352 0 26331
0.15750000 0.15749700 9946.40220582 0 9.48683944 0 3664.81183913 0 375.77270581 0 -629.45171150 0 27345
0.15850000 0.15849900 9893.15524331 0 -19.28749537 0 3189.39975711 0 443.33800922 0 -394.40183626 0 26980
0.15950000 0.15949700 9886.56822198 0 40.40912772 0 3203.54049573 0 428.91288214 0 -461.93791399 0 27777
0.16050000 0.16050000 9899.38256382 0 74.05587996 0 3084.05237846 0 292.26141527 0 146.21276438 0 28224
0.16150000 0.16150500 9744.22786178 0 116.08332416 0 2872.34596259 0 344.62261450 0 -128.02876370 0 28075
0.16250000 0.16249700 9745.88023743 0 191.91949839 0 2853.54035392 0 141.00047464 0 175.42721563 0 28590
0.16350000 0.16349900 9503.68917678 0 251.86588873 0 2763.00815293 0 242.14722211 0 256.79041782 0 29163
0.16450000 0.16449100 9343.95952990 0 129.74745919 0 2775.00192726 0 206.20411733 0 287.19975024 0 28996
0.16550000 0.16550500 9166.78439308 0 183.88130905 0 2485.43152378 0 393.43401624 0 353.12616678 0 30777
0.16650000 0.16650700 8987.63090172 0 133.38043751 0 2611.83264125 0 120.77741991 0 159.74538380 0 29211
0.16750000 0.16749900 8803.70013381 0 188.10104933 0 2347.29516695 0 15.75455885 0 20.39683519 0 30922
0.16850000 0.16850800 8625.19860021 0 182.05357924 0 2345.91256691 0 -6.48085338 0 -328.04602687 0 30867
0.16950000 0.16949900 8495.77374769 0 174.08170974 0 1848.17655254 0 -50.86551825 0 -530.05738148 0 30852
0.17050000 0.17049200 8269.11726635 0 67.82912149 0 1955.72709873 0 97.44958504 0 -735.59830042 0 31257
0.17150000 0.17149500 8304.45787225 0 44.99081696 0 1603.16408856 0 150.34595166 0 -887.30437082 0 32608
0.17250000 0.17250900 8229.28040016 0 25.69163131 0 1557.08866121 0 231.71252604 0 -689.99498041 0 32361
0.17350000 0.17350400 8257.17969527 0 8.13243095 0 1701.36241334 0 72.70790112 0 -609.86038134 0 32508
0.17450000 0.17449800 8180.82195486 0 -4.22718160 0 1534.75348821 0 331.29007867 0 -265.80541971 0 32791
0.17550000 0.17549800 8382.82768914 0 -72.56694336 0 1888.59793257 0 154.48813145 0 -10.49952091 0 33633
0.17650000 0.17650100 8358.82889983 0 22.77131025 0 1791.52367285 0 -38.73303429 0 327.77512719 0 33984
0.17750000 0.17750300 8531.50777636 0 103.44838312 0 2315.45040343 0 -192.35226344 0 454.79560451 0 34069
