### header ###
fiducial parameters:
Omega_m = 0.31
Omega_nu = 0
Omega_de = 0.69
Omega_k = 0
H_0 = 100
w_de = -1
zeff = 0
beta = 0
fgrowth = 0
b_1 = 2
gamma = 0.55
Lx = 3500 Ly = 3500 Lz = 3500
nx = 700 ny = 700 nz = 700
xoffset = 857.220397 yoffset = 15.9954215 zoffset = 262.898189
bins = 400 dk = 0.001
kx_ny = 0.628318531 ky_ny = 0.628318531 kz_ny = 0.628318531
############################
A(data) = 3.05799643 (not used)
A(ran) = 3.06024537 (used)
Ngal = 186844
weighted Ngal = 0
Nran = 9360983
weighted Nran = 0
SN(data) = 3432.01075
SN(ran) = 68.7216099
SN(data+ran) = 3500.73236
############################
13 columns: k_central k_mean P_0(k) sigma^{lin}_{P_0(k)} P^img_1(k) sigma^{lin}_{P_1(k)} P_2(k) sigma^{lin}_{P_2(k)} P^img_3(k) sigma^{lin}_{P_3(k)} P_4(k) sigma^{lin}_{P_4(k)} N_modes
### header ###
0.00050000 0 0 0 0 0 0 0 0 0 0 0 0
0.00150000 0.00179520 11860.46021230 0 -19595.03957379 0 -16901.33003261 0 38849.82464994 0 -9700.34436132 0 3
0.00250000 0.00253879 21804.16466195 0 -18699.60933655 0 -5439.29468547 0 -28160.19061779 0 -15567.06479084 0 6
0.00350000 0.00331552 29734.55615917 0 -16433.94377522 0 -27222.49553381 0 11001.49464604 0 36738.94284917 0 7
0.00450000 0.00420575 33153.51248551 0 -10039.05888980 0 -23764.19692991 0 -16989.00710831 0 -692.90518488 0 24
0.00550000 0.00557378 37339.08119170 0 -4524.49680703 0 -30677.53434899 0 -17821.37729494 0 -1543.40878927 0 45
0.00650000 0.00659388 35483.13734951 0 -4164.86342755 0 -28262.93016547 0 -7861.95841557 0 7352.41971794 0 40
0.00750000 0.00754703 38096.70105097 0 271.87649517 0 -35404.22798137 0 -16929.43165944 0 4674.60445689 0 57
0.00850000 0.00846663 37557.14981588 0 -4848.37367654 0 -29053.03550535 0 -10179.01623205 0 10478.68073989 0 75
0.00950000 0.00948925 42396.24995557 0 -10345.53523198 0 -25714.11261222 0 -5306.48639709 0 3473.61961084 0 112
0.01050000 0.01054430 52853.87695664 0 -11650.26004363 0 -28257.19743359 0 -10365.84708785 0 5112.94487280 0 105
0.01150000 0.01145670 63220.11746727 0 -8928.75237320 0 -17559.02050688 0 -7829.49541626 0 17314.87357300 0 144
0.01250000 0.01249090 69801.74328328 0 -2106.46422504 0 -10735.56333104 0 -12990.03320426 0 19330.65946859 0 169
0.01350000 0.01339930 72966.54849659 0 703.50849071 0 2841.17563811 0 -14462.22123049 0 33060.43989745 0 180
0.01450000 0.01448870 71267.52413860 0 5003.89932006 0 13301.96126204 0 -4408.95415817 0 34044.22164943 0 267
0.01550000 0.01550050 76330.31322784 0 6482.11233509 0 29041.34522859 0 1718.74045937 0 12893.70082749 0 238
0.01650000 0.01653350 66969.43651859 0 4395.57778380 0 33066.50984885 0 -3287.59808190 0 12073.92016968 0 315
0.01750000 0.01747870 71813.81976413 0 4241.19868666 0 41635.93234013 0 -2979.90774944 0 8455.92564085 0 297
0.01850000 0.01844180 63473.59414125 0 2491.22045891 0 41749.80013203 0 -6968.12435074 0 -3314.33958998 0 388
0.01950000 0.01947590 65834.58042079 0 1175.49105019 0 40804.34899905 0 1742.36830721 0 -13515.30881291 0 399
0.02050000 0.02045430 61738.26248140 0 -665.76575776 0 33789.95812990 0 6543.37388157 0 -14543.04150925 0 462
0.02150000 0.02154770 62104.48288222 0 -1483.70969324 0 27070.63434243 0 4364.93576991 0 -30573.10870370 0 571
0.02250000 0.02255340 68620.57570447 0 -3367.12568582 0 28965.02121013 0 1453.15760455 0 -27933.35428603 0 510
0.02350000 0.02348930 65638.20625252 0 -1266.43915526 0 21724.46844826 0 352.29885489 0 -28737.06081330 0 555
0.02450000 0.02439640 72054.70690929 0 -1408.40857399 0 24416.94151786 0 -4140.78595368 0 -27080.75092809 0 592
0.02550000 0.02547300 70375.24128357 0 2027.92579838 0 28134.44952761 0 -6087.39688467 0 -18495.92874531 0 837
0.02650000 0.02652900 73715.40064829 0 3489.90731375 0 37679.44809583 0 1738.24298839 0 -12882.23536375 0 723
0.02750000 0.02749970 71183.21925812 0 5940.48157962 0 45445.95090540 0 659.68456571 0 3880.53116730 0 826
0.02850000 0.02848090 68630.35507060 0 4282.63172525 0 47389.68422980 0 11544.26070724 0 5819.40853059 0 831
0.02950000 0.02946900 62747.11088451 0 3055.07398087 0 52735.06327842 0 10300.38153799 0 17118.61181124 0 996
0.03050000 0.03053250 62868.73472542 0 1907.92061117 0 49213.81703043 0 11546.05921135 0 15837.06522140 0 1041
0.03150000 0.03150510 63129.51782238 0 934.61289755 0 50102.27806420 0 9312.51942980 0 21578.67720828 0 1036
0.03250000 0.03246190 60818.55243859 0 253.83187855 0 40885.61890383 0 5062.39566646 0 18534.03455129 0 1059
0.03350000 0.03345080 61619.44880318 0 854.09162010 0 42832.38720393 0 5903.02773138 0 16162.81927958 0 1302
0.03450000 0.03451200 59671.55643800 0 963.30128634 0 40308.97352133 0 2932.59585051 0 10152.80303455 0 1339
0.03550000 0.03553350 58112.25336860 0 1783.14938806 0 31700.65837853 0 5576.47558699 0 8726.21832832 0 1365
0.03650000 0.03647120 56471.23076838 0 1691.44815940 0 28117.13892549 0 9065.20263242 0 5821.29695991 0 1308
0.03750000 0.03744890 53651.06390648 0 2551.06568340 0 22646.31421471 0 8997.34282396 0 5665.27672777 0 1579
0.03850000 0.03847530 51515.22786109 0 2654.67076119 0 21547.42819925 0 7899.04132233 0 6055.34978944 0 1662
0.03950000 0.03950240 47643.61052981 0 3878.77762579 0 14202.78701162 0 5243.65115950 0 2438.08590290 0 1683
0.04050000 0.04050350 43736.69755524 0 4334.67593814 0 14019.90162423 0 2140.52339675 0 4606.30626305 0 1822
0.04150000 0.04152450 39970.51752782 0 3403.82641045 0 14083.52370737 0 -1955.07514099 0 7367.50467122 0 1887
0.04250000 0.04250150 39481.66162753 0 965.75736853 0 17116.81330712 0 -341.43364189 0 5710.75640063 0 1920
0.04350000 0.04349210 38227.09259945 0 420.02939586 0 15859.54652286 0 1620.37352482 0 8671.56628447 0 2005
0.04450000 0.04448520 38531.37701474 0 -116.07320758 0 15065.84417475 0 944.79805118 0 4994.15367587 0 2151
0.04550000 0.04548030 39058.67594053 0 155.24013099 0 17301.38479213 0 2402.39683683 0 9681.71860306 0 2274
0.04650000 0.04648670 38336.23931805 0 495.33051511 0 16510.60501320 0 1542.66690632 0 7880.15702910 0 2311
0.04750000 0.04749250 39214.24654664 0 136.63910216 0 15581.34041727 0 2114.70362202 0 7846.92966554 0 2568
0.04850000 0.04851840 39453.33518769 0 -848.40722303 0 16286.57884413 0 553.24684394 0 9139.99792238 0 2493
0.04950000 0.04949480 39638.91833126 0 108.74834994 0 14512.01731323 0 -122.93899704 0 3797.05809498 0 2644
0.05050000 0.05050630 41087.27617795 0 86.13676933 0 17193.02491908 0 -645.51909766 0 6377.55180199 0 2829
0.05150000 0.05149060 40242.54127551 0 1484.66514855 0 16770.03923207 0 -1756.46408322 0 3159.12868469 0 2784
0.05250000 0.05249300 38804.52482750 0 1541.35175019 0 18871.36647972 0 1617.96802557 0 5346.37946653 0 3055
0.05350000 0.05348950 37180.58801639 0 936.60698899 0 15700.26650200 0 3669.00460185 0 1245.27300993 0 3009
0.05450000 0.05448610 36558.98003097 0 696.82255166 0 15977.23613602 0 5280.92515732 0 5828.00762840 0 3336
0.05550000 0.05550870 35780.22774833 0 612.65368305 0 13193.15176296 0 5169.62023379 0 4623.40329281 0 3349
0.05650000 0.05647670 34143.92622141 0 1197.12930285 0 12752.40584780 0 4193.83058448 0 6243.87798350 0 3324
0.05750000 0.05747970 33484.43724303 0 990.81053088 0 9828.58894551 0 3166.83977109 0 6014.57994923 0 3639
0.05850000 0.05849280 32036.97864840 0 1082.05201693 0 8967.15043609 0 2086.80432691 0 6049.57209496 0 3846
0.05950000 0.05951020 31271.82755314 0 325.36737980 0 7832.94629603 0 440.35136832 0 4889.14351675 0 3787
0.06050000 0.06049470 31209.89156761 0 -23.96990084 0 6873.37690573 0 560.54539846 0 4086.40368544 0 3930
0.06150000 0.06148310 31698.97228092 0 34.91289914 0 8589.22851787 0 -1661.85152602 0 4196.49461870 0 4083
0.06250000 0.06249100 31973.80619129 0 -163.23223366 0 7961.13467697 0 -1254.18684596 0 3025.39866294 0 4303
0.06350000 0.06350600 32106.55827642 0 266.05496215 0 8930.79817163 0 -1769.67184783 0 1845.78229393 0 4470
0.06450000 0.06451750 32015.62141201 0 568.39586893 0 10678.23601232 0 -961.82763703 0 2534.48572357 0 4479
0.06550000 0.06550280 31871.06664361 0 949.39322920 0 14442.32527870 0 -1641.94433358 0 4244.30110626 0 4636
0.06650000 0.06648880 30793.98749056 0 1304.29766692 0 11789.98133221 0 -11.44354448 0 3432.10788769 0 4653
0.06750000 0.06749660 30390.56053583 0 397.28955944 0 14715.47309146 0 1251.33172068 0 3754.96185799 0 5220
0.06850000 0.06852730 29678.24049901 0 250.70922577 0 12000.85593993 0 2478.87822440 0 3978.54964168 0 5029
0.06950000 0.06949320 30090.65997433 0 -577.94030546 0 13149.87525765 0 2541.97199696 0 2708.97434487 0 5040
0.07050000 0.07048030 29953.86125493 0 -625.43767513 0 10250.55173330 0 2987.05680330 0 2178.28074256 0 5475
0.07150000 0.07148790 30045.92218442 0 203.87955076 0 8912.26233857 0 -16.18518817 0 -1549.66983173 0 5509
0.07250000 0.07249820 29456.35005358 0 827.23882957 0 7256.10982247 0 -333.89228931 0 -247.37974503 0 5916
0.07350000 0.07351270 28461.77727690 0 780.43950432 0 7279.10819387 0 -1344.23569897 0 -3529.44068237 0 5721
0.07450000 0.07449140 28722.78518687 0 596.99882878 0 7680.50059082 0 -1594.17156797 0 -3384.09906842 0 6028
0.07550000 0.07549160 28150.07403213 0 296.53398661 0 7844.87262646 0 -669.11547167 0 -4650.59442693 0 6183
0.07650000 0.07648840 28467.84722829 0 427.35492795 0 9986.84606715 0 -1318.61825595 0 -3593.33254113 0 6330
0.07750000 0.07749960 27850.51069015 0 984.50902208 0 11694.54820751 0 -517.92422308 0 -2186.86859971 0 6583
0.07850000 0.07848650 27524.75663196 0 1107.67845246 0 13248.00613853 0 -769.51246774 0 -1276.02743033 0 6549
0.07950000 0.07947320 26419.23863257 0 1349.44012026 0 13473.04396617 0 1404.08092346 0 1845.93966304 0 6828
0.08050000 0.08048110 25815.05365578 0 963.35074521 0 14837.54655840 0 1578.86180168 0 2899.55957801 0 7147
0.08150000 0.08149960 24839.36517233 0 798.78199818 0 14439.17789649 0 1897.41060274 0 3261.50853155 0 7386
0.08250000 0.08250610 24117.82780191 0 717.89539959 0 12731.27342443 0 1305.69150761 0 3293.25212921 0 7227
0.08350000 0.08350160 23181.25678300 0 772.38220587 0 11882.04226170 0 1167.46522557 0 1317.03332420 0 7798
0.08450000 0.08449610 22460.05663210 0 448.25916611 0 10824.15089946 0 391.49387992 0 735.62078172 0 7371
0.08550000 0.08548940 21832.71591480 0 308.90095054 0 8742.67464100 0 106.66984121 0 -2179.95559951 0 8256
0.08650000 0.08650700 21437.49463510 0 370.00063166 0 9011.83202275 0 -169.93390962 0 -3568.45698106 0 8037
0.08750000 0.08749060 21224.14708423 0 21.34723221 0 7786.71349958 0 -201.21439248 0 -5238.55914472 0 8155
0.08850000 0.08849210 20829.71265008 0 99.20076602 0 8152.96762235 0 -246.17137507 0 -5518.14785035 0 8718
0.08950000 0.08949900 21529.89278411 0 -145.57092323 0 8686.35898083 0 165.83556836 0 -5002.42679481 0 8571
0.09050000 0.09049190 21219.08879140 0 -123.46618356 0 7517.46619262 0 1060.68691208 0 -5321.57135037 0 8932
0.09150000 0.09150830 21688.16114640 0 -32.26314054 0 7542.72393481 0 1312.88552408 0 -4207.24068080 0 9285
0.09250000 0.09250820 21244.49266205 0 202.15298681 0 6968.06814749 0 1624.02673631 0 -3407.63699105 0 9204
0.09350000 0.09350330 20849.49619536 0 517.71627104 0 6514.32804008 0 1522.81591713 0 -3335.85419548 0 9349
0.09450000 0.09448040 20375.70276705 0 677.43018102 0 5756.40468324 0 472.65137820 0 -2851.47207418 0 9564
0.09550000 0.09549270 19523.88625466 0 910.12626400 0 5407.57356911 0 -155.78080629 0 -2125.58457193 0 10155
0.09650000 0.09649430 19127.20369036 0 705.56215760 0 5723.42461400 0 -258.22922111 0 -1726.21549211 0 9913
0.09750000 0.09749140 18458.72219139 0 721.97575580 0 7199.08600131 0 -1272.29553429 0 -1577.73773660 0 10476
0.09850000 0.09850240 18113.07218141 0 552.44088928 0 7436.09512198 0 -1156.79784803 0 -1214.56355213 0 10575
0.09950000 0.09950330 17795.41139175 0 696.42238449 0 9526.86739859 0 -601.23880223 0 163.28056845 0 10882
0.10050000 0.10051200 17432.67559266 0 46.97985010 0 8984.42731627 0 872.38015884 0 102.36253626 0 10875
0.10150000 0.10150300 17659.96155045 0 -126.14820283 0 9268.86074236 0 1972.35202116 0 927.26151197 0 11118
0.10250000 0.10250800 17609.26621565 0 -80.97270198 0 8745.86698580 0 1610.88641561 0 585.71321544 0 11575
0.10350000 0.10349800 17714.59111300 0 240.97707037 0 8384.90720953 0 474.56566102 0 590.93899397 0 11364
0.10450000 0.10450100 17144.01568189 0 393.49246762 0 8381.00670373 0 90.88448298 0 1424.31409477 0 12093
0.10550000 0.10551000 17236.52623741 0 382.60589739 0 8587.68854872 0 -92.27472666 0 1988.29126390 0 12067
0.10650000 0.10649700 16931.79219609 0 15.36462067 0 8130.16034201 0 503.55305112 0 2212.28371102 0 12054
0.10750000 0.10749900 17102.98730672 0 -7.97382537 0 8560.16019508 0 415.99400225 0 1778.48451801 0 12807
0.10850000 0.10850100 16785.32651707 0 27.92222604 0 7821.61572010 0 661.19980543 0 1116.38208832 0 12736
0.10950000 0.10950300 16840.85533168 0 256.49816090 0 7503.85376458 0 962.03334094 0 1523.82757570 0 12933
0.11050000 0.11050200 16486.55002064 0 259.65678376 0 7209.66345365 0 308.72222420 0 1250.26385886 0 13428
0.11150000 0.11150900 16259.37646936 0 239.79005765 0 6524.73688266 0 471.01249132 0 1475.47029625 0 13453
0.11250000 0.11250000 15735.78695831 0 159.33622411 0 5869.29453854 0 415.45220289 0 345.29368135 0 13668
0.11350000 0.11349100 15789.40486230 0 206.94487622 0 5228.13906149 0 560.56113537 0 306.21218689 0 13791
0.11450000 0.11448600 15318.64640969 0 27.95246339 0 4656.20351165 0 304.42379936 0 -1130.26991230 0 14205
0.11550000 0.11549300 15113.16731432 0 193.53702803 0 4227.14787325 0 662.40592725 0 -418.31969289 0 14776
0.11650000 0.11649800 14875.76477089 0 228.31672545 0 3783.64799865 0 218.43394533 0 -1444.83952301 0 14553
0.11750000 0.11747300 14680.06504166 0 224.93890991 0 4533.33195851 0 419.28638885 0 -1304.07285391 0 14568
0.11850000 0.11849100 14464.69417365 0 300.18157777 0 4057.80746998 0 -300.87962218 0 -602.89904635 0 16015
0.11950000 0.11950300 14534.72342771 0 153.11452393 0 4625.07814977 0 -114.26571094 0 -723.42692381 0 15270
0.12050000 0.12050700 14470.98893806 0 104.44801419 0 4364.49738453 0 -48.39875745 0 347.89251980 0 15999
0.12150000 0.12150000 14600.70604750 0 -22.78221368 0 4664.92625661 0 305.90082086 0 -99.54135774 0 15670
0.12250000 0.12250700 14534.16139517 0 -78.86215740 0 4420.09364304 0 257.22205881 0 205.23966950 0 16887
0.12350000 0.12352200 14557.99157472 0 73.87085885 0 4087.69636028 0 557.99039855 0 -283.51394087 0 16407
0.12450000 0.12449800 14440.41436808 0 285.23600856 0 3814.71715727 0 487.52950350 0 -16.42686217 0 16306
0.12550000 0.12549900 14043.28217775 0 465.82605507 0 3415.77522218 0 292.09954990 0 -151.74653674 0 17523
0.12650000 0.12650100 13505.86666630 0 356.77150981 0 3770.71000966 0 457.51471792 0 -90.85930392 0 17154
0.12750000 0.12750600 13213.16012127 0 319.69759557 0 3373.54409739 0 422.52706846 0 69.50060625 0 18007
0.12850000 0.12850300 13044.32554729 0 155.47955685 0 3812.18801086 0 43.04438588 0 211.37594074 0 17496
0.12950000 0.12949900 13143.13086721 0 126.58096788 0 3945.78314480 0 -229.03500303 0 758.15379018 0 18405
0.13050000 0.13049000 13047.36052298 0 212.05487604 0 4502.90351698 0 -699.70015825 0 757.17697763 0 18100
0.13150000 0.13148800 13080.07081661 0 188.80021781 0 4630.21512716 0 -497.25041826 0 1331.17406282 0 19059
0.13250000 0.13249300 13059.72523879 0 150.33133881 0 5440.36254729 0 -227.50290234 0 1755.64351572 0 18957
0.13350000 0.13349100 12934.05476361 0 168.65359950 0 5436.74305776 0 310.30378375 0 1884.19159748 0 19468
0.13450000 0.13450700 12921.91486083 0 116.72853752 0 5580.69083102 0 347.69805654 0 1621.29525818 0 19953
0.13550000 0.13551000 12708.00527741 0 266.90925161 0 5295.89770410 0 779.14345729 0 1767.13146077 0 19956
0.13650000 0.13649900 12465.99406718 0 285.80703362 0 5069.03889104 0 462.91472653 0 1558.61738971 0 19723
0.13750000 0.13749600 12092.01761736 0 407.56913453 0 4494.28193787 0 477.95696534 0 1439.27540090 0 20946
0.13850000 0.13851100 11615.52643287 0 396.92311422 0 4423.55576347 0 263.89563315 0 1686.34490396 0 20955
0.13950000 0.13949800 11403.07813405 0 280.69478566 0 4055.24460162 0 433.81717805 0 1454.30415092 0 20506
0.14050000 0.14048300 11157.15517736 0 -2.45965671 0 3551.27002609 0 686.34738924 0 1650.15000861 0 21447
0.14150000 0.14148400 11019.42348395 0 13.19438823 0 3103.91460830 0 517.69266568 0 1150.63797143 0 21771
0.14250000 0.14249400 11139.22633945 0 -29.53402295 0 2929.45970896 0 419.35495682 0 1062.61917994 0 22470
0.14350000 0.14350900 11124.11890486 0 32.16219950 0 2731.01726095 0 301.03923942 0 988.53317504 0 22519
0.14450000 0.14449900 11060.37317457 0 45.84915305 0 2302.71474615 0 176.28600135 0 883.80403218 0 22218
0.14550000 0.14550500 11071.32156838 0 102.40761127 0 2545.09689786 0 -23.65527502 0 1085.25223019 0 23559
0.14650000 0.14650700 10999.51629151 0 80.86479173 0 2858.83470041 0 -31.43717753 0 911.52460095 0 23044
0.14750000 0.14750500 11095.16298858 0 110.37644579 0 2940.26197431 0 -148.41143567 0 1370.48261842 0 23649
0.14850000 0.14849900 10920.89918030 0 49.62825982 0 2866.51206486 0 6.56278649 0 1057.59573313 0 23640
0.14950000 0.14949500 10961.80390831 0 139.77187151 0 3236.45312107 0 37.72519754 0 1674.18251987 0 24457
0.15050000 0.15050000 10987.72484889 0 125.66035859 0 3174.01130626 0 30.15169671 0 1227.37789397 0 24591
0.15150000 0.15149900 10708.11366196 0 186.14405204 0 2963.66500913 0 242.52940424 0 1461.52064869 0 25020
0.15250000 0.15250500 10556.16254538 0 328.35626883 0 3009.51562346 0 105.89817054 0 1489.53235032 0 25297
0.15350000 0.15350100 10193.38178369 0 360.26173186 0 2757.69132514 0 212.59555134 0 958.22725660 0 25452
0.15450000 0.15450400 9780.14174086 0 273.34677228 0 2746.28206464 0 277.47883549 0 1314.34680867 0 26061
0.15550000 0.15549900 9782.58096207 0 221.28457436 0 2559.66478121 0 155.30307863 0 963.91614994 0 26128
0.15650000 0.15649500 9357.59443923 0 186.93539385 0 2508.60974559 0 110.16377268 0 843.04768076 0 26331
0.15750000 0.15749700 9392.72147277 0 85.06013981 0 2600.76060028 0 -158.99563239 0 592.32159401 0 27345
0.15850000 0.15849900 9231.96892666 0 139.16824857 0 2696.81196078 0 -231.71702230 0 708.72640078 0 26980
0.15950000 0.15949700 9226.58465496 0 79.83031465 0 2750.21629240 0 -158.54263417 0 820.00547083 0 27777
0.16050000 0.16050000 9220.98681090 0 12.65191443 0 2926.18867959 0 -10.81765380 0 773.64902721 0 28224
0.16150000 0.16150500 9227.36025986 0 -4.68782346 0 2979.34571690 0 123.27059624 0 438.18079867 0 28075
0.16250000 0.16249700 9293.48900812 0 -69.51229653 0 2725.90276487 0 61.34944837 0 390.60924071 0 28590
0.16350000 0.16349900 9308.65264595 0 56.47224243 0 2756.31996575 0 -28.03676827 0 322.38748329 0 29163
0.16450000 0.16449100 9332.76384177 0 237.96345191 0 2829.75513697 0 -209.23684490 0 382.82396601 0 28996
0.16550000 0.16550500 9051.66888894 0 269.99256210 0 2808.91497052 0 -160.36474365 0 236.33243349 0 30777
0.16650000 0.16650700 8963.50846526 0 267.60279976 0 3131.08326112 0 -82.83359171 0 463.69257956 0 29211
0.16750000 0.16749900 8671.09417714 0 121.35406529 0 2935.03507172 0 353.55555964 0 508.46409143 0 30922
0.16850000 0.16850800 8673.51091705 0 14.35093879 0 2840.80469664 0 324.80197507 0 550.15229279 0 30867
0.16950000 0.16949900 8696.14958762 0 -22.18803288 0 2546.87292068 0 538.53957652 0 337.13746518 0 30852
0.17050000 0.17049200 8589.17231461 0 16.56006388 0 2509.55396025 0 239.96203961 0 205.49820447 0 31257
0.17150000 0.17149500 8668.87976895 0 75.87855147 0 2283.72928706 0 93.70082802 0 166.32341261 0 32608
0.17250000 0.17250900 8465.41275006 0 105.84365338 0 2200.24497408 0 -34.45630391 0 238.47714965 0 32361
0.17350000 0.17350400 8539.26382537 0 123.02555006 0 2167.92810323 0 -142.13690443 0 350.56779467 0 32508
0.17450000 0.17449800 8360.50375679 0 115.82478920 0 2218.99437950 0 -54.13879574 0 451.90226101 0 32791
0.17550000 0.17549800 8354.36636149 0 82.69207192 0 2391.30231456 0 262.97165166 0 572.30087099 0 33633
0.17650000 0.17650100 8255.44863506 0 122.77038728 0 2196.83905691 0 250.83624513 0 732.33626358 0 33984
0.17750000 0.17750300 8177.12378077 0 177.72930090 0 2290.50739945 0 205.00136771 0 708.97819136 0 34069
