### header ###
fiducial parameters:
Omega_m = 0.31
Omega_nu = 0
Omega_de = 0.69
Omega_k = 0
H_0 = 100
w_de = -1
zeff = 0
beta = 0
fgrowth = 0
b_1 = 2
gamma = 0.55
Lx = 3500 Ly = 3500 Lz = 3500
nx = 700 ny = 700 nz = 700
xoffset = 857.220397 yoffset = 15.9954215 zoffset = 262.898189
bins = 400 dk = 0.001
kx_ny = 0.628318531 ky_ny = 0.628318531 kz_ny = 0.628318531
############################
A(data) = 3.1367386 (not used)
A(ran) = 3.13263052 (used)
Ngal = 191062
weighted Ngal = 0
Nran = 9360983
weighted Nran = 0
SN(data) = 3461.88937
SN(ran) = 70.3471084
SN(data+ran) = 3532.23647
############################
13 columns: k_central k_mean P_0(k) sigma^{lin}_{P_0(k)} P^img_1(k) sigma^{lin}_{P_1(k)} P_2(k) sigma^{lin}_{P_2(k)} P^img_3(k) sigma^{lin}_{P_3(k)} P_4(k) sigma^{lin}_{P_4(k)} N_modes
### header ###
0.00050000 0 0 0 0 0 0 0 0 0 0 0 0
0.00150000 0.00179520 17013.73653992 0 -21651.96625105 0 4858.43405895 0 42762.58276289 0 3545.62721943 0 3
0.00250000 0.00253879 28163.00078047 0 -19763.53692824 0 9987.71159726 0 -24253.39004972 0 -19203.86492835 0 6
0.00350000 0.00331552 39084.41703070 0 -9439.13411964 0 14584.51951045 0 5821.49929163 0 38362.31762774 0 7
0.00450000 0.00420575 44124.72481848 0 108.18137151 0 12515.67774341 0 1509.87792814 0 2537.32960821 0 24
0.00550000 0.00557378 44833.67266008 0 6446.79421049 0 29053.37272487 0 8447.58507801 0 26758.81869115 0 45
0.00650000 0.00659388 45021.95355982 0 -3953.03336452 0 -10236.73697356 0 14065.08904017 0 -39323.84289127 0 40
0.00750000 0.00754703 53099.14795559 0 -6855.94265645 0 35794.27856174 0 14919.49090223 0 22277.84568375 0 57
0.00850000 0.00846663 56620.50661009 0 -7987.01065495 0 3254.59553135 0 297.22303850 0 -25373.18367554 0 75
0.00950000 0.00948925 60744.47655028 0 -3267.23002277 0 22120.25176050 0 3094.12400151 0 7606.82936593 0 112
0.01050000 0.01054430 72299.75309523 0 -1446.33452956 0 4749.51215337 0 -14299.68142092 0 -7141.91605170 0 105
0.01150000 0.01145670 59828.81314173 0 2452.17043827 0 1162.10343517 0 1356.93763429 0 -6971.99113460 0 144
0.01250000 0.01249090 64188.94915377 0 82.36946524 0 -9563.77045494 0 780.58226058 0 -7808.91378477 0 169
0.01350000 0.01339930 57826.40362051 0 -772.37770961 0 -15070.11562203 0 3297.25380087 0 -23778.02293031 0 180
0.01450000 0.01448870 60080.15409207 0 -2221.27623160 0 -29691.16724735 0 6146.10680344 0 -12761.06114886 0 267
0.01550000 0.01550050 59842.86395514 0 -1917.75618056 0 -33606.39830346 0 -2622.57870335 0 -23004.10412748 0 238
0.01650000 0.01653350 61449.37775762 0 1844.70319146 0 -34957.74933434 0 -12192.50903489 0 -2549.97534028 0 315
0.01750000 0.01747870 59744.84548077 0 799.61493040 0 -12419.23296014 0 -12452.16806678 0 2643.52003566 0 297
0.01850000 0.01844180 63226.29982517 0 1507.12396871 0 -7800.29220566 0 -6264.52705889 0 10787.02303009 0 388
0.01950000 0.01947590 64770.42801609 0 -1235.59480965 0 3881.84632344 0 -8169.79487649 0 4858.02939552 0 399
0.02050000 0.02045430 70393.11391824 0 -2157.49677935 0 17705.37377940 0 -9491.52679269 0 17805.75279043 0 462
0.02150000 0.02154770 73452.59423420 0 -952.38549042 0 24852.40432718 0 2517.95072634 0 15776.02848793 0 571
0.02250000 0.02255340 73468.10633221 0 2748.05808746 0 29644.51854681 0 -3077.44287583 0 14346.77974749 0 510
0.02350000 0.02348930 73129.20071267 0 1114.51389217 0 24956.82997247 0 -1714.72754706 0 -2063.71603031 0 555
0.02450000 0.02439640 72698.90860269 0 3892.96332701 0 34528.01925689 0 -631.57619449 0 117.20064485 0 592
0.02550000 0.02547300 66182.47856091 0 4202.46340424 0 24880.39354750 0 -482.24527360 0 -4009.28158078 0 837
0.02650000 0.02652900 62204.18745420 0 3233.91273400 0 26382.14448516 0 9463.82982929 0 -13328.37679126 0 723
0.02750000 0.02749970 56432.56292987 0 2757.74752839 0 15636.30719935 0 12552.99670383 0 -6835.70948513 0 826
0.02850000 0.02848090 53756.05158431 0 1638.98804244 0 12187.56314857 0 11057.73162165 0 -15376.08613492 0 831
0.02950000 0.02946900 53301.03004272 0 3569.69345264 0 5653.66513556 0 7409.76951796 0 -4440.20316720 0 996
0.03050000 0.03053250 48285.56409306 0 3181.02547232 0 4700.33430642 0 57.08519511 0 -1184.50605208 0 1041
0.03150000 0.03150510 45393.68187950 0 1906.80778675 0 6828.57167192 0 -1960.63926310 0 -3231.02388677 0 1036
0.03250000 0.03246190 47728.14022331 0 -32.70737106 0 5987.05159559 0 -7344.20280225 0 6884.57259386 0 1059
0.03350000 0.03345080 47668.00274190 0 -1337.03044185 0 18246.94833162 0 -4958.35220330 0 -2381.17448825 0 1302
0.03450000 0.03451200 49818.22682023 0 -1231.99780142 0 16028.15628383 0 -7346.57457956 0 1176.53643071 0 1339
0.03550000 0.03553350 50621.93334750 0 -536.76917403 0 21398.82679659 0 -4461.76273530 0 -9366.17105574 0 1365
0.03650000 0.03647120 53476.72141365 0 643.77230054 0 22368.89495467 0 -2568.12899121 0 -9485.98515188 0 1308
0.03750000 0.03744890 49182.00598886 0 2240.93612973 0 25179.84448297 0 -2486.87032707 0 -16055.69587812 0 1579
0.03850000 0.03847530 47976.78341748 0 1980.78250921 0 23648.08100786 0 1752.40620831 0 -18415.89531210 0 1662
0.03950000 0.03950240 45567.79955932 0 1813.45418243 0 22105.18928852 0 -665.97258573 0 -20421.33980902 0 1683
0.04050000 0.04050350 45762.37522347 0 796.17191908 0 17696.38125881 0 3108.55699705 0 -22946.32718272 0 1822
0.04150000 0.04152450 43920.25738168 0 -235.39608728 0 18092.16457105 0 2345.60906934 0 -16777.45806156 0 1887
0.04250000 0.04250150 44368.42212632 0 1024.34251607 0 13119.07587465 0 2478.70961464 0 -15933.73481769 0 1920
0.04350000 0.04349210 42537.99456129 0 543.76310692 0 12081.45140567 0 4214.09747775 0 -12197.67973423 0 2005
0.04450000 0.04448520 43368.67865031 0 1969.72170889 0 11086.45148426 0 4129.46661839 0 -7777.43996272 0 2151
0.04550000 0.04548030 41948.42243045 0 1429.61968192 0 15377.54741952 0 3726.74782465 0 -2383.31021189 0 2274
0.04650000 0.04648670 40150.59275253 0 452.53735778 0 13448.98897360 0 3839.61519864 0 481.79452350 0 2311
0.04750000 0.04749250 40249.28566595 0 451.30650652 0 13042.41463666 0 118.29998049 0 -442.68380335 0 2568
0.04850000 0.04851840 40891.46404221 0 592.27887954 0 15141.83097369 0 -978.41996158 0 2726.76829497 0 2493
0.04950000 0.04949480 40784.67786027 0 23.38089074 0 16642.23303326 0 -1189.49690100 0 204.70461453 0 2644
0.05050000 0.05050630 41147.30125285 0 1017.05183001 0 18916.66630217 0 -2881.92299701 0 4712.65405962 0 2829
0.05150000 0.05149060 39788.19417297 0 697.41830615 0 19486.90451375 0 -1315.04372902 0 -521.00865764 0 2784
0.05250000 0.05249300 39532.13214932 0 1483.24882656 0 19152.83237403 0 980.51634294 0 -696.63146060 0 3055
0.05350000 0.05348950 38134.69445044 0 503.49684787 0 20367.27227900 0 2921.40016238 0 1560.65194749 0 3009
0.05450000 0.05448610 37852.10449106 0 1533.75307029 0 17386.25170515 0 4747.54503949 0 2700.71246658 0 3336
0.05550000 0.05550870 36597.98508900 0 775.93087931 0 17664.57021725 0 2019.23677536 0 1440.88281395 0 3349
0.05650000 0.05647670 35532.03418018 0 900.18390842 0 15986.90309564 0 670.30810472 0 645.76414384 0 3324
0.05750000 0.05747970 34955.95083022 0 603.52177840 0 14435.24366874 0 -1593.94675496 0 -1365.35688169 0 3639
0.05850000 0.05849280 35414.90659957 0 202.40028113 0 15447.23945405 0 -1947.56638630 0 611.04514593 0 3846
0.05950000 0.05951020 34917.28299171 0 363.37314399 0 13724.94694905 0 -1823.15486401 0 -2829.57528656 0 3787
0.06050000 0.06049470 35481.11403237 0 52.80992601 0 15899.22601994 0 244.13344510 0 -3363.59612149 0 3930
0.06150000 0.06148310 34849.83908732 0 -12.81096964 0 14208.18252397 0 1830.62989675 0 -6334.25281537 0 4083
0.06250000 0.06249100 34934.93081335 0 -28.71064528 0 12453.17972534 0 4212.17532647 0 -5491.93465285 0 4303
0.06350000 0.06350600 34176.41170203 0 167.99714550 0 12537.14738630 0 4488.61664990 0 -2668.94638761 0 4470
0.06450000 0.06451750 33676.42755751 0 440.30865385 0 10586.78207797 0 3908.41922177 0 -2069.26891177 0 4479
0.06550000 0.06550280 33433.51709522 0 1019.50678813 0 10777.83941844 0 3691.35101550 0 2312.80885050 0 4636
0.06650000 0.06648880 32386.11326010 0 1475.95364423 0 9846.48406148 0 1775.21348864 0 5279.56503859 0 4653
0.06750000 0.06749660 31665.13792222 0 820.08640351 0 10602.72132071 0 1301.30765383 0 9051.79253610 0 5220
0.06850000 0.06852730 31103.89223122 0 251.62309068 0 10027.41357564 0 357.21439145 0 10733.75358628 0 5029
0.06950000 0.06949320 31381.31149126 0 -61.00986831 0 10845.38448869 0 525.77132136 0 8459.63505559 0 5040
0.07050000 0.07048030 31406.94017493 0 132.40474903 0 10320.00771417 0 -847.42254202 0 9767.87819092 0 5475
0.07150000 0.07148790 31058.92962829 0 137.10221697 0 12058.63288469 0 -396.99393032 0 7782.20599863 0 5509
0.07250000 0.07249820 31033.18853812 0 550.86832224 0 10078.10891044 0 -660.20051158 0 5122.06104054 0 5916
0.07350000 0.07351270 30519.60320622 0 407.36567875 0 11545.72199183 0 -31.41975452 0 2999.88238579 0 5721
0.07450000 0.07449140 29999.16107738 0 723.02226038 0 10491.06793699 0 28.80810173 0 2530.98988119 0 6028
0.07550000 0.07549160 29353.27328637 0 884.77072814 0 12196.21844963 0 201.87646680 0 1706.16217120 0 6183
0.07650000 0.07648840 28813.27242526 0 867.66133366 0 12449.80753012 0 -559.53823615 0 1201.90657941 0 6330
0.07750000 0.07749960 28389.49989270 0 1026.61649972 0 14427.71243275 0 -1258.44705259 0 3613.88045066 0 6583
0.07850000 0.07848650 27865.68556863 0 1185.40530414 0 14313.28260831 0 -2039.16644911 0 1046.18085231 0 6549
0.07950000 0.07947320 27125.26390498 0 581.73290102 0 15056.06480861 0 -377.02379023 0 2892.96131603 0 6828
0.08050000 0.08048110 26845.03448226 0 210.87011145 0 14717.15918907 0 -88.13782998 0 -664.39215024 0 7147
0.08150000 0.08149960 26624.15569540 0 75.16173518 0 13198.43486881 0 870.38719147 0 -1732.13931504 0 7386
0.08250000 0.08250610 26028.96323919 0 512.25443885 0 12590.54047728 0 229.80835980 0 -3974.87394889 0 7227
0.08350000 0.08350160 25361.26858577 0 880.38125403 0 10823.31909130 0 948.69855698 0 -5444.80260433 0 7798
0.08450000 0.08449610 24279.35595291 0 1014.91947857 0 10533.63628131 0 1043.10203808 0 -5148.73510473 0 7371
0.08550000 0.08548940 23270.95717583 0 972.33427327 0 9763.21332086 0 836.50224984 0 -5558.72659949 0 8256
0.08650000 0.08650700 22552.79200063 0 373.06932931 0 9009.56141130 0 986.05123936 0 -2704.75910084 0 8037
0.08750000 0.08749060 22377.99988176 0 323.55538690 0 9798.73377717 0 1510.99075256 0 -3946.18780822 0 8155
0.08850000 0.08849210 22058.65299450 0 355.96667922 0 9172.73069731 0 871.87770175 0 -921.46470839 0 8718
0.08950000 0.08949900 21517.75288132 0 449.84971819 0 8923.31189824 0 763.37170025 0 -1629.99552185 0 8571
0.09050000 0.09049190 21336.32877852 0 409.84199411 0 8351.12905408 0 459.03445390 0 111.81300095 0 8932
0.09150000 0.09150830 20813.30130001 0 328.56759306 0 8175.93227179 0 1136.05884743 0 -562.57433591 0 9285
0.09250000 0.09250820 20210.57760781 0 62.37380887 0 7230.94200549 0 1595.92510948 0 -1047.64888130 0 9204
0.09350000 0.09350330 20036.57233450 0 47.02368864 0 6141.03726996 0 1127.86441305 0 25.81494125 0 9349
0.09450000 0.09448040 20188.65833889 0 -12.61223493 0 5466.49706024 0 1311.52540534 0 -1383.82527084 0 9564
0.09550000 0.09549270 20322.64689560 0 171.65934951 0 5367.11846713 0 1204.43572583 0 1295.57492195 0 10155
0.09650000 0.09649430 19921.58047752 0 269.12253574 0 5497.55497821 0 397.89767864 0 294.56012834 0 9913
0.09750000 0.09749140 19662.93310420 0 474.45550264 0 5852.46728439 0 219.78507155 0 1807.46291559 0 10476
0.09850000 0.09850240 19092.24526659 0 621.71814380 0 5351.25790895 0 -394.38272716 0 993.73647226 0 10575
0.09950000 0.09950330 19012.88627243 0 503.48785535 0 7093.92971373 0 -260.83255582 0 2515.87120596 0 10882
0.10050000 0.10051200 18217.27301369 0 479.52391205 0 5604.58845447 0 -175.06751481 0 762.21840948 0 10875
0.10150000 0.10150300 18124.98727119 0 391.70632822 0 6955.23132436 0 6.57521865 0 1015.23084459 0 11118
0.10250000 0.10250800 17735.04909733 0 264.85895691 0 5434.39376175 0 -431.22845619 0 108.17327824 0 11575
0.10350000 0.10349800 17723.47122708 0 -11.47074685 0 6091.49972219 0 0.17317796 0 -806.26265124 0 11364
0.10450000 0.10450100 17423.90788509 0 212.39546776 0 5640.41240835 0 63.80598018 0 -1015.65574119 0 12093
0.10550000 0.10551000 17300.37313356 0 266.20109061 0 5519.01338046 0 -88.49730599 0 -1980.50149294 0 12067
0.10650000 0.10649700 16952.25018042 0 266.01337174 0 5705.94540211 0 636.00051462 0 -1308.08576622 0 12054
0.10750000 0.10749900 16496.66660630 0 589.18208026 0 5537.63913872 0 682.58963970 0 -1726.09184495 0 12807
0.10850000 0.10850100 15955.54168011 0 315.72852180 0 5385.06978635 0 534.18045217 0 -1456.68716888 0 12736
0.10950000 0.10950300 15788.39320374 0 292.01524502 0 5100.02936511 0 550.01066059 0 -1386.75908068 0 12933
0.11050000 0.11050200 15593.81753958 0 292.47386356 0 4877.44199934 0 -382.50585559 0 -1585.63991407 0 13428
0.11150000 0.11150900 15551.55269283 0 186.16990554 0 5207.78224302 0 -852.41788721 0 -1213.49569031 0 13453
0.11250000 0.11250000 15573.69677477 0 122.70743964 0 5570.43935755 0 -832.47809688 0 -1949.01643025 0 13668
0.11350000 0.11349100 15543.90905034 0 -9.76938444 0 5216.05536196 0 -480.69181566 0 -2058.75890333 0 13791
0.11450000 0.11448600 15872.69808422 0 -216.21504088 0 5527.70240347 0 -77.38063963 0 -3075.00365462 0 14205
0.11550000 0.11549300 15950.48338728 0 -174.68982895 0 5017.30941638 0 473.66978115 0 -2885.62117110 0 14776
0.11650000 0.11649800 16104.59270880 0 -85.93983313 0 4693.18525255 0 1189.31705059 0 -3503.20500357 0 14553
0.11750000 0.11747300 15892.59403601 0 154.84895634 0 3776.54390739 0 702.41027914 0 -3589.62312639 0 14568
0.11850000 0.11849100 15782.66047186 0 149.69286985 0 3370.57656559 0 952.94752296 0 -2522.66055900 0 16015
0.11950000 0.11950300 15455.89475511 0 129.16631755 0 3045.08104237 0 732.75216766 0 -3202.94474124 0 15270
0.12050000 0.12050700 15528.73417185 0 144.45809880 0 2597.82679044 0 18.50413442 0 -2290.33878969 0 15999
0.12150000 0.12150000 15335.84460531 0 217.23007164 0 3386.41464247 0 -309.31011023 0 -2175.39189532 0 15670
0.12250000 0.12250700 15174.99089335 0 194.76001083 0 3438.71739032 0 -787.40870777 0 -1411.24121797 0 16887
0.12350000 0.12352200 15150.03664872 0 352.73499213 0 4496.02423873 0 -472.41869673 0 -1391.87357676 0 16407
0.12450000 0.12449800 14961.53093596 0 493.67251913 0 5048.88440428 0 -785.47081958 0 -1020.81182768 0 16306
0.12550000 0.12549900 14671.18492758 0 462.06156114 0 5631.03770564 0 -223.81821703 0 -780.88913035 0 17523
0.12650000 0.12650100 14202.00016607 0 577.05004593 0 6138.64301135 0 -295.80784057 0 -22.92238460 0 17154
0.12750000 0.12750600 13927.84069474 0 316.50749889 0 6237.39212802 0 240.67694500 0 -7.72726170 0 18007
0.12850000 0.12850300 13605.57123828 0 180.97110457 0 6650.39611718 0 303.52005104 0 221.46105257 0 17496
0.12950000 0.12949900 13542.28637467 0 114.25109809 0 6121.25372467 0 723.17176104 0 46.57451224 0 18405
0.13050000 0.13049000 13352.31937732 0 95.07915661 0 5865.97854657 0 532.43927537 0 -281.58167301 0 18100
0.13150000 0.13148800 13321.74480733 0 54.52895873 0 5617.41403696 0 724.17892334 0 505.04468547 0 19059
0.13250000 0.13249300 13078.15990599 0 163.69310034 0 4977.91093557 0 330.04349050 0 -512.11280665 0 18957
0.13350000 0.13349100 12909.10051899 0 92.21335271 0 5286.28694772 0 459.97754450 0 -29.32123743 0 19468
0.13450000 0.13450700 12865.37438765 0 156.90149916 0 4451.42133663 0 399.94684927 0 -366.31594635 0 19953
0.13550000 0.13551000 12712.05191168 0 -7.28964068 0 4414.84425915 0 497.27065143 0 -815.00000906 0 19956
0.13650000 0.13649900 12563.45050901 0 194.91175961 0 3854.77883648 0 -174.81684830 0 -980.92100637 0 19723
0.13750000 0.13749600 12476.11065283 0 313.85133313 0 4168.70773010 0 -247.77429187 0 -810.36436469 0 20946
0.13850000 0.13851100 12219.37419014 0 261.19562884 0 4174.09200180 0 -89.60945597 0 -240.62523800 0 20955
0.13950000 0.13949800 12301.76816000 0 104.21848010 0 4604.65388740 0 84.36321946 0 -72.89584480 0 20506
0.14050000 0.14048300 12155.97692002 0 84.68919833 0 4333.83288933 0 541.39245368 0 79.71768333 0 21447
0.14150000 0.14148400 12163.50815601 0 245.62283132 0 4387.02364859 0 383.50065318 0 126.90582269 0 21771
0.14250000 0.14249400 11807.06712133 0 351.78290902 0 4567.00894810 0 38.21866211 0 924.74697840 0 22470
0.14350000 0.14350900 11661.27588134 0 365.56507088 0 4497.05837860 0 305.01280946 0 1232.43618680 0 22519
0.14450000 0.14449900 11290.55922024 0 213.33293803 0 4634.48657444 0 216.17907079 0 1136.27241979 0 22218
0.14550000 0.14550500 11042.01719192 0 309.02347364 0 4239.53507035 0 152.37938537 0 929.99636229 0 23559
0.14650000 0.14650700 10931.79137086 0 277.66543029 0 4405.27846538 0 -15.83166971 0 488.12638206 0 23044
0.14750000 0.14750500 10568.92068396 0 168.10955201 0 3825.49694133 0 -313.63663670 0 507.34789481 0 23649
0.14850000 0.14849900 10541.24620186 0 -22.88113141 0 3949.71737255 0 61.95475741 0 -467.29745625 0 23640
0.14950000 0.14949500 10530.12919829 0 -103.75963674 0 3668.18403435 0 106.19053986 0 -602.42131869 0 24457
0.15050000 0.15050000 10552.93647862 0 -125.52771891 0 3436.53670408 0 386.88184092 0 -745.62271274 0 24591
0.15150000 0.15149900 10779.97514208 0 -38.18921161 0 3368.24975089 0 371.97448992 0 -767.44643614 0 25020
0.15250000 0.15250500 10637.70222578 0 45.34782002 0 2923.92930880 0 121.32821180 0 -968.23593202 0 25297
0.15350000 0.15350100 10688.57741099 0 66.22586747 0 2955.60546256 0 470.84163343 0 -808.11848268 0 25452
0.15450000 0.15450400 10552.30700218 0 75.70016235 0 2933.22532695 0 199.90710480 0 -529.10867056 0 26061
0.15550000 0.15549900 10570.80911328 0 111.15834545 0 2814.81631215 0 390.98018218 0 -309.53042698 0 26128
0.15650000 0.15649500 10322.55934189 0 99.01248512 0 2635.29187933 0 510.93591052 0 -389.19404278 0 26331
0.15750000 0.15749700 10261.52260842 0 130.97381419 0 2161.13875019 0 425.10567374 0 -469.82323047 0 27345
0.15850000 0.15849900 10171.19273914 0 128.88979754 0 2111.17405769 0 181.07339450 0 -347.93748240 0 26980
0.15950000 0.15949700 10026.96394961 0 191.95322034 0 2135.00423724 0 104.57829333 0 -232.17676491 0 27777
0.16050000 0.16050000 9839.44741412 0 185.01211851 0 2044.59568341 0 -278.47588121 0 -160.56707537 0 28224
0.16150000 0.16150500 9764.59592090 0 174.27954519 0 2421.48346177 0 -463.97584396 0 -291.51953232 0 28075
0.16250000 0.16249700 9683.44966327 0 204.82151729 0 2725.08219736 0 -288.28110084 0 11.83314543 0 28590
0.16350000 0.16349900 9506.79159639 0 173.73324957 0 2914.49840283 0 -120.50427210 0 277.78795338 0 29163
0.16450000 0.16449100 9475.58754996 0 73.63514240 0 3019.09265788 0 55.37942636 0 153.46523224 0 28996
0.16550000 0.16550500 9480.76948994 0 106.86992479 0 3006.43568516 0 176.01734980 0 176.07692525 0 30777
0.16650000 0.16650700 9328.34626603 0 60.24471722 0 2902.08872443 0 274.18532483 0 -141.37366424 0 29211
0.16750000 0.16749900 9382.09905783 0 164.30683987 0 2859.30680774 0 -13.31286469 0 445.11290797 0 30922
0.16850000 0.16850800 9190.14246529 0 216.84226919 0 2814.29924222 0 10.03152765 0 100.69262518 0 30867
0.16950000 0.16949900 9121.02370395 0 178.90732110 0 2906.11287739 0 199.02808591 0 509.52296072 0 30852
0.17050000 0.17049200 8804.54318262 0 188.00775193 0 2506.86744472 0 100.13812388 0 171.53008202 0 31257
0.17150000 0.17149500 8888.25230861 0 160.27594251 0 2924.22156572 0 237.63297678 0 622.11044251 0 32608
0.17250000 0.17250900 8633.57288500 0 193.64943453 0 2713.47060516 0 -80.71248092 0 251.13412237 0 32361
0.17350000 0.17350400 8545.37873936 0 183.20574594 0 2728.70168690 0 -147.91797110 0 135.94105775 0 32508
0.17450000 0.17449800 8428.00386443 0 21.06947573 0 2611.34929327 0 13.66492187 0 211.65021261 0 32791
0.17550000 0.17549800 8357.28893068 0 -34.64110020 0 2422.73117400 0 279.82588336 0 -15.10024057 0 33633
0.17650000 0.17650100 8404.98301173 0 -52.06186071 0 2381.24193215 0 415.17568288 0 129.20565983 0 33984
0.17750000 0.17750300 8380.62452160 0 -42.30441384 0 1949.11759610 0 589.00672611 0 -495.63513675 0 34069
