### header ###
fiducial parameters:
Omega_m = 0.31
Omega_nu = 0
Omega_de = 0.69
Omega_k = 0
H_0 = 100
w_de = -1
zeff = 0
beta = 0
fgrowth = 0
b_1 = 2
gamma = 0.55
Lx = 3500 Ly = 3500 Lz = 3500
nx = 700 ny = 700 nz = 700
xoffset = 857.220397 yoffset = 15.9954215 zoffset = 262.898189
bins = 400 dk = 0.001
kx_ny = 0.628318531 ky_ny = 0.628318531 kz_ny = 0.628318531
############################
A(data) = 3.09294498 (not used)
A(ran) = 3.09247459 (used)
Ngal = 188917
weighted Ngal = 0
Nran = 9360983
weighted Nran = 0
SN(data) = 3442.19964
SN(ran) = 69.4453573
SN(data+ran) = 3511.645
############################
13 columns: k_central k_mean P_0(k) sigma^{lin}_{P_0(k)} P^img_1(k) sigma^{lin}_{P_1(k)} P_2(k) sigma^{lin}_{P_2(k)} P^img_3(k) sigma^{lin}_{P_3(k)} P_4(k) sigma^{lin}_{P_4(k)} N_modes
### header ###
0.00050000 0 0 0 0 0 0 0 0 0 0 0 0
0.00150000 0.00179520 45624.78965853 0 -46680.28676217 0 -35964.91163984 0 100772.43380334 0 -89643.51514061 0 3
0.00250000 0.00253879 87335.92195205 0 -54896.86522700 0 -4667.74765995 0 -59096.82196613 0 97687.09999069 0 6
0.00350000 0.00331552 94664.71382214 0 -17442.34255229 0 -26188.46807306 0 -50617.88671323 0 1007.23424566 0 7
0.00450000 0.00420575 103982.98846512 0 11448.37795650 0 -13886.58750656 0 -60981.31706118 0 37334.92215093 0 24
0.00550000 0.00557378 78163.88817508 0 4978.66405917 0 -11745.24354231 0 -2919.45552981 0 48502.95827820 0 45
0.00650000 0.00659388 72193.75375883 0 6397.14425621 0 1040.52680500 0 41051.41850212 0 12063.46636450 0 40
0.00750000 0.00754703 84453.36947859 0 -30072.11290062 0 -32841.35961471 0 46874.18798728 0 -10315.27540021 0 57
0.00850000 0.00846663 102886.80020583 0 -22196.35096595 0 -24496.41291853 0 23427.42703401 0 501.89280701 0 75
0.00950000 0.00948925 127454.36644349 0 -9757.50307029 0 -51258.15417887 0 -8949.99720308 0 14966.13960276 0 112
0.01050000 0.01054430 114924.41307365 0 -3503.11507836 0 -26520.85411518 0 -27612.65852068 0 46115.21924992 0 105
0.01150000 0.01145670 119882.66411109 0 5088.00186883 0 -27702.35891351 0 -19910.45223330 0 28913.31421676 0 144
0.01250000 0.01249090 111632.02647455 0 4306.11344463 0 -2436.59089635 0 -17393.67053463 0 21292.93986670 0 169
0.01350000 0.01339930 103337.66270665 0 7228.31169321 0 14257.07935465 0 -12289.51585070 0 -7354.48799767 0 180
0.01450000 0.01448870 96259.98697389 0 8331.57032181 0 20966.06174344 0 -21752.45766858 0 9466.52758547 0 267
0.01550000 0.01550050 87745.75607770 0 5447.24182554 0 38551.94740557 0 -6156.97651269 0 -39129.37963362 0 238
0.01650000 0.01653350 88896.57389954 0 5624.93403230 0 37846.25935268 0 -15829.42157890 0 4856.68051743 0 315
0.01750000 0.01747870 86169.92925172 0 3382.60406187 0 42952.10013422 0 4609.72342088 0 -23433.83420493 0 297
0.01850000 0.01844180 86034.14219089 0 7859.23817809 0 39246.39480773 0 -12856.83149309 0 -10135.46995112 0 388
0.01950000 0.01947590 78600.81226899 0 10171.77725298 0 44467.11503974 0 -2522.76172486 0 -23391.90657770 0 399
0.02050000 0.02045430 70058.03011995 0 8845.75140820 0 36201.41493122 0 -626.98438867 0 -23133.48401739 0 462
0.02150000 0.02154770 64728.50038886 0 4317.14052300 0 35506.40549652 0 3132.85928393 0 -23479.80846642 0 571
0.02250000 0.02255340 63645.23887792 0 2151.01092388 0 28566.76495473 0 6879.16584086 0 -32062.94455159 0 510
0.02350000 0.02348930 62355.71142606 0 -523.84242569 0 26526.24962753 0 11821.23034125 0 -34277.68996511 0 555
0.02450000 0.02439640 62192.94680347 0 589.48332970 0 21829.79334561 0 5663.24216999 0 -30182.04646477 0 592
0.02550000 0.02547300 58769.71902986 0 2395.92222201 0 17908.60474462 0 2278.18764625 0 -24771.92126794 0 837
0.02650000 0.02652900 57697.69816964 0 1343.76359164 0 22037.07094509 0 1535.74266547 0 -27089.06900963 0 723
0.02750000 0.02749970 54131.03969270 0 1715.84037148 0 14096.33804920 0 1235.74093811 0 -13804.08113019 0 826
0.02850000 0.02848090 56629.04950465 0 1397.34777367 0 23992.49454626 0 2856.59781092 0 -20604.45000943 0 831
0.02950000 0.02946900 54965.65800947 0 1366.99801670 0 18094.18788818 0 2679.97346598 0 -10954.93587071 0 996
0.03050000 0.03053250 53514.93962613 0 967.82677233 0 17758.99168339 0 1213.41700576 0 -15429.92885192 0 1041
0.03150000 0.03150510 53678.04146824 0 1178.53726654 0 14614.30723488 0 -347.41254401 0 -16265.78364028 0 1036
0.03250000 0.03246190 51901.90624623 0 -159.09455012 0 13689.20167972 0 -967.12985198 0 -16192.60700402 0 1059
0.03350000 0.03345080 51975.64491503 0 1832.95671145 0 14039.01073047 0 -2716.69667192 0 -21315.08394864 0 1302
0.03450000 0.03451200 49400.18701955 0 810.28343201 0 11305.28447269 0 -1630.53507309 0 -17504.95297687 0 1339
0.03550000 0.03553350 49520.34957586 0 1176.21045184 0 12160.13596079 0 -1591.35016464 0 -22697.79639506 0 1365
0.03650000 0.03647120 48721.36412190 0 860.94279672 0 8052.03781943 0 -1843.59036704 0 -16916.28009808 0 1308
0.03750000 0.03744890 48298.49084140 0 222.79419375 0 11071.26536513 0 2394.95552605 0 -21911.17565691 0 1579
0.03850000 0.03847530 48442.93320329 0 -427.92707707 0 12056.27234803 0 -205.77922074 0 -16273.98931531 0 1662
0.03950000 0.03950240 48071.42969663 0 461.08474859 0 9998.63750977 0 -745.05955614 0 -17161.21387751 0 1683
0.04050000 0.04050350 48339.18199705 0 560.89048644 0 15177.91346254 0 -305.25673158 0 -13696.39569619 0 1822
0.04150000 0.04152450 46234.37014767 0 1556.06576199 0 11689.48991468 0 -1759.55526218 0 -11947.91247499 0 1887
0.04250000 0.04250150 48261.28428748 0 1544.51037304 0 20058.04197740 0 -2125.58457193 0 -11049.61587182 0 1920
0.04350000 0.04349210 44945.85435438 0 1963.70796075 0 14795.39411816 0 -1495.50113585 0 -8262.22674745 0 2005
0.04450000 0.04448520 45287.79494961 0 1237.79797720 0 18957.02023829 0 2005.78171644 0 -6004.35095707 0 2151
0.04550000 0.04548030 42657.37027205 0 -347.00450839 0 15951.27023283 0 1092.35632145 0 -3451.04838418 0 2274
0.04650000 0.04648670 45231.36688294 0 48.23734170 0 15728.36812883 0 4283.39608950 0 -6298.22652978 0 2311
0.04750000 0.04749250 43639.46592642 0 784.52997712 0 14993.45438404 0 668.45339735 0 -6891.49683471 0 2568
0.04850000 0.04851840 43094.18195946 0 2024.08149583 0 14674.10749677 0 -1203.27793880 0 -5760.06913538 0 2493
0.04950000 0.04949480 40758.26233105 0 2260.73091567 0 15254.79951354 0 -171.62450349 0 -6914.39404025 0 2644
0.05050000 0.05050630 38941.77317292 0 1518.85920807 0 13036.90671780 0 2146.31233188 0 -4523.91229319 0 2829
0.05150000 0.05149060 39272.13589791 0 684.32856837 0 14470.08968600 0 1273.16106439 0 -5510.09954443 0 2784
0.05250000 0.05249300 38074.89418855 0 -539.85473266 0 9775.34198300 0 4727.19946166 0 -4020.67960062 0 3055
0.05350000 0.05348950 38573.86667450 0 -530.55309418 0 9829.52191952 0 4870.68636825 0 -5143.74425580 0 3009
0.05450000 0.05448610 38025.99735787 0 -205.33746316 0 6649.85656595 0 2175.17832295 0 -5356.90071561 0 3336
0.05550000 0.05550870 39008.99226430 0 -36.10586940 0 6955.52358127 0 264.22498421 0 -5483.30183308 0 3349
0.05650000 0.05647670 38046.68015521 0 672.84511959 0 8137.08458286 0 -911.55944696 0 -3528.49646771 0 3324
0.05750000 0.05747970 37532.30797776 0 1085.22188043 0 7475.14514262 0 -2659.56044425 0 -3386.32471727 0 3639
0.05850000 0.05849280 37622.12077711 0 1488.31836004 0 12719.69555417 0 -3247.80617831 0 456.72674831 0 3846
0.05950000 0.05951020 35892.18462961 0 1065.81826914 0 13590.62117281 0 -349.97878457 0 4265.48973289 0 3787
0.06050000 0.06049470 35361.85072812 0 1132.12461967 0 15392.27267198 0 2298.93788750 0 2807.92579325 0 3930
0.06150000 0.06148310 34910.08897524 0 320.71937072 0 12806.81059734 0 3869.23431332 0 6453.90954240 0 4083
0.06250000 0.06249100 33700.70736309 0 829.25989857 0 14411.63830220 0 3417.98963038 0 5518.29397881 0 4303
0.06350000 0.06350600 33441.49795724 0 963.78800652 0 11856.07635851 0 2592.82470086 0 5066.52098528 0 4470
0.06450000 0.06451750 32033.38164016 0 1472.96363114 0 11755.92216050 0 83.23825513 0 5995.72937796 0 4479
0.06550000 0.06550280 30882.11419230 0 1282.71561752 0 10663.56696311 0 -2139.30940647 0 6622.85652289 0 4636
0.06650000 0.06648880 30324.35310302 0 608.00679804 0 11383.74421480 0 -1455.87784203 0 2514.94947260 0 4653
0.06750000 0.06749660 30751.83505032 0 -360.60569578 0 11318.21122103 0 -1507.24761587 0 3407.79436016 0 5220
0.06850000 0.06852730 32269.88493154 0 -1412.57885541 0 12878.07632297 0 81.58070878 0 1085.20389539 0 5029
0.06950000 0.06949320 32268.76086647 0 -874.15393353 0 11489.74355119 0 573.87343803 0 -1896.21909376 0 5040
0.07050000 0.07048030 33424.86179415 0 -345.26782785 0 10840.22503000 0 1638.59461966 0 -3612.82382950 0 5475
0.07150000 0.07148790 32061.03364096 0 1052.22944647 0 10296.30118178 0 188.19434673 0 -3912.97168531 0 5509
0.07250000 0.07249820 31624.44676657 0 1589.00086863 0 11713.76972026 0 1352.54253986 0 -2648.90430736 0 5916
0.07350000 0.07351270 29934.41492917 0 1658.83903163 0 10258.54383597 0 1618.14787598 0 -1469.79376763 0 5721
0.07450000 0.07449140 28968.95543788 0 1071.08563807 0 10114.51737816 0 1033.02591876 0 -988.11502283 0 6028
0.07550000 0.07549160 28394.22096601 0 355.04269773 0 9692.53210907 0 1791.20893463 0 2555.53946239 0 6183
0.07650000 0.07648840 27705.28148270 0 587.29589907 0 8802.75591915 0 1954.62551496 0 2491.44527192 0 6330
0.07750000 0.07749960 27115.03491282 0 600.65653653 0 8651.10830014 0 2405.49925643 0 3458.26488194 0 6583
0.07850000 0.07848650 25914.98304078 0 1104.64460083 0 7603.86183414 0 1586.50544417 0 2961.14710337 0 6549
0.07950000 0.07947320 25283.93290874 0 573.52160566 0 7470.95237989 0 1530.65065069 0 2882.78852712 0 6828
0.08050000 0.08048110 24750.78884457 0 223.37870759 0 5944.77550819 0 1195.34203938 0 2938.40726694 0 7147
0.08150000 0.08149960 23789.82561358 0 -11.35699147 0 5440.65480421 0 562.42371119 0 2166.90520402 0 7386
0.08250000 0.08250610 24365.90896354 0 137.83398333 0 5574.64336092 0 -213.62519495 0 980.25780797 0 7227
0.08350000 0.08350160 24053.53127973 0 614.98049775 0 5957.63481263 0 -1267.43957317 0 750.60232102 0 7798
0.08450000 0.08449610 23224.64569482 0 966.93988499 0 6364.34403738 0 -1274.00411320 0 174.11430763 0 7371
0.08550000 0.08548940 23061.99347875 0 984.37188614 0 7452.80996961 0 -1642.51760676 0 260.06594344 0 8256
0.08650000 0.08650700 22088.89034496 0 798.43691020 0 7730.62265243 0 -565.31031030 0 546.52830700 0 8037
0.08750000 0.08749060 22038.98185572 0 441.46644087 0 8315.91209534 0 -208.42414585 0 687.33544244 0 8155
0.08850000 0.08849210 21531.35406871 0 387.27076744 0 8679.65955300 0 -240.99055915 0 26.06572017 0 8718
0.08950000 0.08949900 21533.71460536 0 431.05422610 0 8902.20195617 0 -174.04124340 0 561.74252776 0 8571
0.09050000 0.09049190 21289.00563895 0 347.40355149 0 8842.78387641 0 -169.87883043 0 -272.38232445 0 8932
0.09150000 0.09150830 21139.61739073 0 72.76196865 0 8535.77922364 0 -289.67044527 0 -1476.43699221 0 9285
0.09250000 0.09250820 21026.42403787 0 139.05359393 0 10220.64036171 0 97.16598342 0 -1249.66810437 0 9204
0.09350000 0.09350330 21131.97374823 0 176.90536120 0 8409.00716470 0 93.41183089 0 -1715.35702350 0 9349
0.09450000 0.09448040 20459.67042801 0 280.27101313 0 9266.45524311 0 896.86004800 0 -3088.07653142 0 9564
0.09550000 0.09549270 20156.39767129 0 635.34630875 0 7942.72249107 0 -482.69152743 0 -2747.78831184 0 10155
0.09650000 0.09649430 19673.16209637 0 468.57102198 0 8234.23752713 0 531.60859128 0 -3296.60184313 0 9913
0.09750000 0.09749140 19288.50702835 0 423.38922637 0 8201.57219611 0 -647.24903381 0 -2954.79613570 0 10476
0.09850000 0.09850240 19404.96016992 0 220.07170814 0 8184.49764765 0 -243.66583403 0 -3753.07342867 0 10575
0.09950000 0.09950330 18988.38165383 0 148.29453290 0 8492.08681425 0 520.61523487 0 -2400.58709206 0 10882
0.10050000 0.10051200 18815.83766511 0 371.64626292 0 7877.65036399 0 950.20143198 0 -3201.21368103 0 10875
0.10150000 0.10150300 18608.22284611 0 369.92644336 0 7012.92958456 0 1508.60773461 0 -2085.56785533 0 11118
0.10250000 0.10250800 17961.88542908 0 354.62679365 0 6320.34813042 0 1687.19919342 0 -2759.71464227 0 11575
0.10350000 0.10349800 17602.29701220 0 348.49052242 0 4569.79662948 0 1349.28275115 0 -3361.94374583 0 11364
0.10450000 0.10450100 17010.81397073 0 205.37230918 0 4702.96461869 0 750.25948117 0 -2742.99979463 0 12093
0.10550000 0.10551000 16763.74446766 0 200.49386676 0 3776.12800332 0 291.16994808 0 -2272.15141681 0 12067
0.10650000 0.10649700 16820.62216036 0 27.75080612 0 4850.14969936 0 110.10397241 0 -1284.10945821 0 12054
0.10750000 0.10749900 16589.85160086 0 140.45530308 0 3871.67353453 0 638.71400771 0 -1298.16027162 0 12807
0.10850000 0.10850100 16936.51326940 0 -5.43863149 0 5131.39078065 0 568.76456227 0 -422.94634473 0 12736
0.10950000 0.10950300 16557.14130723 0 333.96647761 0 4068.66593859 0 276.00406211 0 -266.75637876 0 12933
0.11050000 0.11050200 16426.97457176 0 458.09248737 0 5046.44518308 0 -182.36606933 0 2.66072947 0 13428
0.11150000 0.11150900 15774.22998381 0 462.75173710 0 4949.12362905 0 57.61114516 0 92.14545918 0 13453
0.11250000 0.11250000 15732.52716960 0 322.55047273 0 4257.35150176 0 -127.76460840 0 -767.41159012 0 13668
0.11350000 0.11349100 15215.12001645 0 39.96995550 0 3978.50467908 0 404.27787200 0 -561.53232759 0 13791
0.11450000 0.11448600 15316.39827954 0 -86.73803174 0 3510.96105257 0 86.35697368 0 -1530.06613685 0 14205
0.11550000 0.11549300 15617.98493865 0 -79.50388615 0 3848.67516313 0 227.63891421 0 -1236.98865034 0 14776
0.11650000 0.11649800 15403.62572921 0 166.48752611 0 3970.99592439 0 -135.99613693 0 -1094.95515990 0 14553
0.11750000 0.11747300 15317.74715763 0 321.27016261 0 4442.23772498 0 -242.24951203 0 -335.25578025 0 14568
0.11850000 0.11849100 15139.47043704 0 314.94954470 0 5154.87250003 0 133.67943882 0 319.94713802 0 16015
0.11950000 0.11950300 14976.36859493 0 249.73578542 0 5340.86030702 0 686.84197788 0 1029.11866857 0 15270
0.12050000 0.12050700 14864.63652666 0 158.05141773 0 5184.87379683 0 863.64617322 0 1402.28241934 0 15999
0.12150000 0.12150000 14800.34000448 0 185.25154437 0 4916.54822323 0 749.76264441 0 1303.73563438 0 15670
0.12250000 0.12250700 14491.89654842 0 277.71826135 0 3798.50813892 0 606.96928598 0 1470.08602455 0 16887
0.12350000 0.12352200 14219.08595518 0 195.07137685 0 3762.56053788 0 231.75524051 0 515.11630853 0 16407
0.12450000 0.12449800 13981.79581825 0 279.90681605 0 3142.78477853 0 -138.28136123 0 750.18754101 0 16306
0.12550000 0.12549900 13653.90603643 0 228.42238757 0 3243.04014240 0 119.13066458 0 -543.83392302 0 17523
0.12650000 0.12650100 13601.41219751 0 290.10321033 0 3263.20586981 0 -504.65463489 0 -448.83805962 0 17154
0.12750000 0.12750600 13275.09610679 0 201.55610826 0 2863.40964526 0 -36.36047014 0 -1001.64539412 0 18007
0.12850000 0.12850300 13243.62228475 0 188.68219098 0 3587.03777672 0 112.03725193 0 -552.44538554 0 17496
0.12950000 0.12949900 13113.68036230 0 173.78383250 0 3054.21969142 0 -78.66083734 0 -511.26638565 0 18405
0.13050000 0.13049000 13008.35546495 0 110.73704586 0 3810.49067260 0 282.31119124 0 -429.76941972 0 18100
0.13150000 0.13148800 12872.11877809 0 265.29172197 0 3555.77752704 0 -144.69527653 0 -101.48093202 0 19059
0.13250000 0.13249300 12829.62911832 0 272.37895225 0 3785.53642798 0 -248.21942164 0 -286.39267152 0 18957
0.13350000 0.13349100 12618.08007157 0 325.12458174 0 4172.31597898 0 -222.06130332 0 333.90577809 0 19468
0.13450000 0.13450700 12309.74902202 0 212.30217036 0 4270.91896719 0 55.69607549 0 629.50229443 0 19953
0.13550000 0.13551000 12292.21360688 0 8.11063533 0 4216.86267783 0 566.68729002 0 432.92467038 0 19956
0.13650000 0.13649900 12197.45492121 0 -34.13380964 0 3733.35732728 0 791.50817309 0 612.53453215 0 19723
0.13750000 0.13749600 12179.46988004 0 -11.91329127 0 3333.48241818 0 545.66502502 0 -237.54754783 0 20946
0.13850000 0.13851100 12008.38717592 0 -65.75836881 0 3105.78055632 0 354.10073120 0 220.94285857 0 20955
0.13950000 0.13949800 11987.02993953 0 83.81478811 0 2846.71727892 0 -274.73386858 0 -534.60759690 0 20506
0.14050000 0.14048300 11998.38299677 0 219.20392991 0 2781.51026403 0 -216.51404219 0 -662.32162237 0 21447
0.14150000 0.14148400 11747.49167245 0 327.03661643 0 3020.34037012 0 -737.00900209 0 -733.79867224 0 21771
0.14250000 0.14249400 11523.24069037 0 275.29702518 0 3624.01951762 0 -319.07711165 0 -584.09456174 0 22470
0.14350000 0.14350900 11439.04821639 0 386.81327295 0 3824.56396732 0 -258.28092811 0 -603.02718977 0 22519
0.14450000 0.14449900 11098.72627486 0 279.49316010 0 4067.55311417 0 45.24114625 0 -464.76044138 0 22218
0.14550000 0.14550500 10966.96336699 0 257.91560696 0 4145.31593592 0 38.30060646 0 -200.81310124 0 23559
0.14650000 0.14650700 10800.19707275 0 169.37749741 0 3961.13787370 0 61.73691360 0 -236.43584748 0 23044
0.14750000 0.14750500 10689.18440613 0 139.24580906 0 4152.08280766 0 270.26683398 0 -52.03117373 0 23649
0.14850000 0.14849900 10583.03894128 0 17.65737620 0 3503.07011576 0 240.80846061 0 -253.77230310 0 23640
0.14950000 0.14949500 10395.93830986 0 51.50870828 0 3224.63919715 0 295.74601699 0 -359.68059022 0 24457
0.15050000 0.15050000 10485.85227506 0 45.89265437 0 2886.20568494 0 326.19244356 0 -338.51444489 0 24591
0.15150000 0.15149900 10407.41501425 0 104.72149922 0 2834.00410295 0 337.11835607 0 -453.78844221 0 25020
0.15250000 0.15250500 10280.36193904 0 124.30023985 0 2478.59720814 0 205.96356741 0 -368.64725731 0 25297
0.15350000 0.15350100 10166.02203981 0 169.67762278 0 2727.16171775 0 -201.60219493 0 -240.71516321 0 25452
0.15450000 0.15450400 10115.96742210 0 222.02870543 0 2856.12570359 0 -15.72634481 0 -180.66985513 0 26061
0.15550000 0.15549900 9966.33187957 0 179.28613103 0 2697.30654941 0 -56.33150948 0 -163.40084342 0 26128
0.15650000 0.15649500 9917.05286677 0 120.04228135 0 3284.87784442 0 -91.49642401 0 -29.38272379 0 26331
0.15750000 0.15749700 9848.83335748 0 81.17952995 0 3097.66480649 0 -54.48163559 0 -375.72661914 0 27345
0.15850000 0.15849900 9771.89110323 0 59.77283470 0 3392.70940688 0 167.60035053 0 -170.71401078 0 26980
0.15950000 0.15949700 9785.93067599 0 101.13370832 0 3097.29386502 0 113.50247076 0 -565.29682152 0 27777
0.16050000 0.16050000 9801.01562927 0 49.52360936 0 3226.62879233 0 385.10806624 0 -72.57874605 0 28224
0.16150000 0.16150500 9566.47945177 0 27.25925246 0 3075.47576195 0 201.03791426 0 -824.12516932 0 28075
0.16250000 0.16249700 9751.29823109 0 57.68634511 0 2976.78284853 0 171.92462887 0 -342.53859786 0 28590
0.16350000 0.16349900 9526.46273517 0 140.06300437 0 2939.46388811 0 -83.36819706 0 -350.19348100 0 29163
0.16450000 0.16449100 9417.16988811 0 174.59315935 0 2927.44763247 0 -61.66384937 0 -307.91289734 0 28996
0.16550000 0.16550500 9232.27242423 0 286.01161346 0 3080.43288892 0 -114.29943289 0 -316.91328638 0 30777
0.16650000 0.16650700 9088.93164611 0 243.82320314 0 2937.42933032 0 26.39282310 0 -403.50901149 0 29211
0.16750000 0.16749900 8834.87045829 0 228.66855782 0 3050.15057585 0 89.62080903 0 -23.31636940 0 30922
0.16850000 0.16850800 8656.97591982 0 141.96829467 0 2880.76520999 0 470.66740334 0 -14.94275905 0 30867
0.16950000 0.16949900 8566.72473510 0 100.32752885 0 2594.27474481 0 418.12635370 0 107.23940498 0 30852
0.17050000 0.17049200 8490.47940119 0 54.91440064 0 2461.78119464 0 255.86418820 0 -148.25856282 0 31257
0.17150000 0.17149500 8411.48010786 0 20.68819286 0 2389.87475192 0 185.53593284 0 -83.74936752 0 32608
0.17250000 0.17250900 8393.74236100 0 13.73911017 0 2199.37944398 0 -30.17710058 0 -68.93239136 0 32361
0.17350000 0.17350400 8391.57291541 0 30.39674289 0 2240.63263216 0 -27.92402455 0 -130.45449612 0 32508
0.17450000 0.17449800 8387.80729742 0 60.47121633 0 2278.85084465 0 -137.11120949 0 -457.46188686 0 32791
0.17550000 0.17549800 8351.58992076 0 84.26452655 0 2439.46850294 0 -264.89605106 0 -382.49124275 0 33633
0.17650000 0.17650100 8347.09366047 0 83.25893793 0 2562.46370324 0 -96.51649862 0 -242.34955383 0 33984
0.17750000 0.17750300 8336.63985529 0 100.99511109 0 2744.49480118 0 -162.86241625 0 -325.73944534 0 34069
