### header ###
fiducial parameters:
Omega_m = 0.31
Omega_nu = 0
Omega_de = 0.69
Omega_k = 0
H_0 = 100
w_de = -1
zeff = 0
beta = 0
fgrowth = 0
b_1 = 2
gamma = 0.55
Lx = 3500 Ly = 3500 Lz = 3500
nx = 700 ny = 700 nz = 700
xoffset = 857.220397 yoffset = 15.9954215 zoffset = 262.898189
bins = 400 dk = 0.001
kx_ny = 0.628318531 ky_ny = 0.628318531 kz_ny = 0.628318531
############################
A(data) = 3.07696159 (not used)
A(ran) = 3.07867493 (used)
Ngal = 188028
weighted Ngal = 0
Nran = 9360983
weighted Nran = 0
SN(data) = 3437.97399
SN(ran) = 69.1354688
SN(data+ran) = 3507.10946
############################
13 columns: k_central k_mean P_0(k) sigma^{lin}_{P_0(k)} P^img_1(k) sigma^{lin}_{P_1(k)} P_2(k) sigma^{lin}_{P_2(k)} P^img_3(k) sigma^{lin}_{P_3(k)} P_4(k) sigma^{lin}_{P_4(k)} N_modes
### header ###
0.00050000 0 0 0 0 0 0 0 0 0 0 0 0
0.00150000 0.00179520 12032.66698150 0 -19042.11196433 0 -1950.62384330 0 -11486.93338851 0 32953.42890250 0 3
0.00250000 0.00253879 24878.25782386 0 -20964.93767837 0 -13344.90054783 0 -5527.75860673 0 -15308.97945006 0 6
0.00350000 0.00331552 40376.30501921 0 -23495.43297093 0 -20777.33121767 0 -19317.39550073 0 18814.03916100 0 7
0.00450000 0.00420575 54104.39935047 0 -15740.73284464 0 -20274.76172349 0 -23020.29066453 0 -5038.08213893 0 24
0.00550000 0.00557378 74547.54602190 0 -19014.68477654 0 -38167.17993105 0 -11545.83439834 0 19561.31762159 0 45
0.00650000 0.00659388 72946.09051226 0 -7732.39867525 0 -12174.52399372 0 -24124.45978584 0 -35591.83444207 0 40
0.00750000 0.00754703 99443.90129344 0 -23036.81442111 0 -62012.53435924 0 3134.56786284 0 4691.99374358 0 57
0.00850000 0.00846663 95259.90627835 0 -15277.16840849 0 -43449.16170954 0 6209.65020202 0 -20700.44516667 0 75
0.00950000 0.00948925 105564.21080345 0 -4306.54058936 0 -72295.36924144 0 -7740.95281045 0 3842.51528653 0 112
0.01050000 0.01054430 105279.26030742 0 -4607.14931186 0 -65620.89565039 0 -7284.04283954 0 -7344.48381852 0 105
0.01150000 0.01145670 98429.32015846 0 5562.12127601 0 -53420.85537951 0 -29762.09575346 0 10761.19201471 0 144
0.01250000 0.01249090 95515.96830200 0 4746.53338092 0 -48124.14834856 0 -18467.15267944 0 13493.72676351 0 169
0.01350000 0.01339930 88234.61197799 0 8158.30693144 0 -44900.10490590 0 -12252.75892281 0 24531.70856182 0 180
0.01450000 0.01448870 88026.32271994 0 1275.22934413 0 -15288.29665271 0 -13617.14910854 0 13855.78812356 0 267
0.01550000 0.01550050 75255.93183097 0 1256.53614196 0 -1455.91156398 0 -21569.01024866 0 -16761.04671149 0 238
0.01650000 0.01653350 93191.85135686 0 -3552.72007004 0 8133.86975675 0 -9898.93293779 0 -11150.12977065 0 315
0.01750000 0.01747870 87322.09595165 0 -2137.96052838 0 8793.51610425 0 -27136.27974270 0 -31096.47340174 0 297
0.01850000 0.01844180 88057.79654199 0 6547.44299714 0 20975.39148355 0 -33881.79424637 0 -14927.92139028 0 388
0.01950000 0.01947590 95191.67552841 0 4891.77382902 0 37535.90498600 0 -19647.42100619 0 -29227.04077866 0 399
0.02050000 0.02045430 84212.03270740 0 8617.67860487 0 44213.97558528 0 -18649.36362779 0 -10583.24127299 0 462
0.02150000 0.02154770 83000.96499764 0 5064.02556082 0 55114.14700563 0 6329.92516484 0 -13191.24085234 0 571
0.02250000 0.02255340 77255.98081554 0 4872.84457319 0 56143.22858005 0 7113.22991103 0 193.73373941 0 510
0.02350000 0.02348930 76069.53013088 0 4681.21395952 0 54816.60698078 0 18412.97274291 0 7429.71043236 0 555
0.02450000 0.02439640 74075.88831723 0 4643.17559745 0 51860.42824504 0 11073.13131315 0 12766.68147423 0 592
0.02550000 0.02547300 69654.94038473 0 3154.52001789 0 49167.84276894 0 15956.66574518 0 16753.96510153 0 837
0.02650000 0.02652900 66504.07357833 0 4848.42987980 0 50516.15882412 0 8181.74368822 0 14914.88223543 0 723
0.02750000 0.02749970 64720.74433986 0 5155.19847890 0 47238.16025795 0 6407.20463862 0 17188.07903276 0 826
0.02850000 0.02848090 57957.24479502 0 4793.58674488 0 49566.99827639 0 2174.20038634 0 4613.96114620 0 831
0.02950000 0.02946900 57708.60160085 0 3210.71203090 0 47295.03795065 0 2934.73157415 0 6660.91736627 0 996
0.03050000 0.03053250 54021.78056759 0 444.46769462 0 46261.01048990 0 7867.54501898 0 6824.09789293 0 1041
0.03150000 0.03150510 54065.05707291 0 250.95314789 0 42573.85223712 0 10160.14317947 0 -2357.89510059 0 1036
0.03250000 0.03246190 53417.59559080 0 -401.56550297 0 34116.61144014 0 7388.92935151 0 -4896.58482753 0 1059
0.03350000 0.03345080 52270.59959021 0 472.92002975 0 31071.51915711 0 6379.27162155 0 -2811.15186001 0 1302
0.03450000 0.03451200 53577.55005070 0 1208.67345115 0 27271.95439702 0 2325.75808015 0 -1069.21744192 0 1339
0.03550000 0.03553350 51801.63964171 0 -342.24296874 0 26130.01668926 0 3359.17854575 0 -7621.31856472 0 1365
0.03650000 0.03647120 53407.92863117 0 2525.58312819 0 27384.02368481 0 -2615.69942510 0 -2390.80772593 0 1308
0.03750000 0.03744890 51974.74566297 0 2077.66567786 0 27782.50475322 0 -1577.65905205 0 -10835.70628841 0 1579
0.03850000 0.03847530 49094.77853918 0 2911.31729868 0 27008.24873087 0 975.36812490 0 -5412.89039691 0 1662
0.03950000 0.03950240 48954.15799854 0 2732.95065288 0 29454.77636247 0 1965.66383398 0 -4800.12880361 0 1683
0.04050000 0.04050350 46127.92118525 0 1234.83044540 0 28931.97369698 0 2757.18549585 0 -6447.74966580 0 1822
0.04150000 0.04152450 47134.63386471 0 277.19332296 0 34692.24516407 0 6129.24582734 0 6707.95948958 0 1887
0.04250000 0.04250150 45949.64446465 0 330.13791197 0 32230.87987351 0 5001.59498666 0 4777.22035742 0 1920
0.04350000 0.04349210 47395.86658770 0 -674.89766241 0 35074.20247591 0 8200.86403511 0 20715.84485817 0 2005
0.04450000 0.04448520 46499.76191143 0 -893.40579603 0 30793.20064501 0 8235.63136782 0 19124.95556022 0 2151
0.04550000 0.04548030 49945.80820603 0 -628.65025311 0 30181.14721271 0 8108.60077391 0 21915.22229117 0 2274
0.04650000 0.04648670 49005.97739841 0 -260.14687613 0 26765.67548810 0 6060.59917333 0 16550.50932330 0 2311
0.04750000 0.04749250 47916.87074908 0 1443.43444167 0 20413.80857303 0 317.12348655 0 7241.01362854 0 2568
0.04850000 0.04851840 45708.75731949 0 1191.54269944 0 15022.68007594 0 506.26204795 0 4880.33084657 0 2493
0.04950000 0.04949480 42539.00621986 0 2294.28425810 0 11909.24463647 0 1056.13332447 0 -5949.72139452 0 2644
0.05050000 0.05050630 41181.69764409 0 486.71118413 0 6607.98514197 0 2885.41883939 0 -7537.36214441 0 2829
0.05150000 0.05149060 39524.82572634 0 620.72447028 0 4945.50413951 0 3996.80445847 0 -13936.15877628 0 2784
0.05250000 0.05249300 40202.74937193 0 224.84561251 0 3079.56735882 0 295.36720706 0 -11771.43425851 0 3055
0.05350000 0.05348950 39738.62290324 0 269.69468486 0 3510.48894524 0 -1783.01450025 0 -11737.03786727 0 3009
0.05450000 0.05448610 40162.62024882 0 1202.13139243 0 9141.44796633 0 -3429.48881607 0 -4277.52846982 0 3336
0.05550000 0.05550870 38952.56419763 0 1385.71370016 0 8817.59357812 0 -3540.92862742 0 -6195.70055446 0 3349
0.05650000 0.05647670 38600.39461022 0 1613.11206445 0 13940.99225610 0 -1138.98141662 0 -2325.55574843 0 3324
0.05750000 0.05747970 36833.02709579 0 1769.90790150 0 12808.27188194 0 108.94978240 0 -5884.91904305 0 3639
0.05850000 0.05849280 35509.66528523 0 1518.84796742 0 12063.69117751 0 3343.81257620 0 -6350.22578006 0 3846
0.05950000 0.05951020 34031.07008808 0 781.64225395 0 11854.72748043 0 2487.20754660 0 -7126.04425286 0 3787
0.06050000 0.06049470 33155.98542867 0 508.72712265 0 10398.93956360 0 2778.91367372 0 -7495.29962938 0 3930
0.06150000 0.06148310 32542.69552479 0 631.65375498 0 9502.39650195 0 302.71409638 0 -4883.56815398 0 4083
0.06250000 0.06249100 31926.48305171 0 713.42386872 0 10227.35103020 0 -547.98172314 0 -4304.78704784 0 4303
0.06350000 0.06350600 31780.01737269 0 178.23625425 0 11962.07569491 0 -497.61124315 0 -2010.23301413 0 4470
0.06450000 0.06451750 31752.70259141 0 440.89991208 0 12070.66038097 0 -727.20715465 0 -433.54290617 0 4479
0.06550000 0.06550280 31573.18939924 0 358.99041427 0 13429.65505434 0 760.08268584 0 309.17971868 0 4636
0.06650000 0.06648880 30734.07482217 0 431.01151163 0 12850.19950916 0 902.20722556 0 -1869.78108324 0 4653
0.06750000 0.06749660 30842.32228871 0 84.35186640 0 11758.39510366 0 1953.27663687 0 268.23227620 0 5220
0.06850000 0.06852730 30022.54163090 0 13.50946367 0 10103.83875996 0 3216.69205708 0 -1604.65909510 0 5029
0.06950000 0.06949320 29935.31418122 0 881.22430284 0 8085.06285128 0 1768.45785755 0 -1615.93346779 0 5040
0.07050000 0.07048030 28704.80014570 0 534.06804566 0 7093.98591698 0 278.22071844 0 -1078.73714903 0 5475
0.07150000 0.07148790 28829.45896231 0 894.71533184 0 7377.71118208 0 -1297.23853826 0 -1274.20644491 0 5509
0.07250000 0.07249820 28230.10746533 0 53.88273372 0 8205.23664825 0 -1647.19371747 0 -615.46384573 0 5916
0.07350000 0.07351270 28541.47349058 0 501.65113302 0 8944.29819316 0 -3117.32470462 0 -2623.33182695 0 5721
0.07450000 0.07449140 28758.98008223 0 488.79407671 0 11252.34100775 0 -1830.64113740 0 -1898.75948083 0 6028
0.07550000 0.07549160 28116.57689295 0 852.65281681 0 12850.64913519 0 -2626.38928395 0 -2404.43139461 0 6183
0.07650000 0.07648840 28041.03972004 0 716.98940314 0 13876.47092090 0 -357.65727309 0 -2170.20995533 0 6330
0.07750000 0.07749960 27483.50344378 0 551.95866536 0 13970.21794800 0 1671.91190843 0 -2708.28866517 0 6583
0.07850000 0.07848650 27142.23728759 0 335.46260822 0 13161.22831489 0 2008.65932303 0 -823.41476019 0 6549
0.07950000 0.07947320 26730.26743830 0 367.08593092 0 12640.78618604 0 2719.28202159 0 -2303.58027625 0 6828
0.08050000 0.08048110 26424.74655143 0 -83.45857189 0 11328.88983923 0 2632.68404836 0 111.01705047 0 7147
0.08150000 0.08149960 25739.96610890 0 333.48650182 0 9213.51177816 0 2612.95670632 0 -180.60690749 0 7386
0.08250000 0.08250610 26064.59610201 0 -408.47400691 0 9031.71673389 0 2364.97671055 0 2057.14024963 0 7227
0.08350000 0.08350160 25634.64121155 0 254.95594362 0 7782.25096124 0 1499.84002704 0 886.95253845 0 7798
0.08450000 0.08449610 25113.63705017 0 658.76170828 0 8347.00373526 0 1193.98192065 0 1354.54337569 0 7371
0.08550000 0.08548940 24459.09395810 0 928.38220485 0 6938.42655151 0 286.33309607 0 1254.22056791 0 8256
0.08650000 0.08650700 23764.87136895 0 1395.72911997 0 7648.45349559 0 -254.95819175 0 2316.50702459 0 8037
0.08750000 0.08749060 22623.04606770 0 1023.13189799 0 7785.12856782 0 -407.94682039 0 1965.98981285 0 8155
0.08850000 0.08849210 21587.10769633 0 768.06129973 0 7828.58492355 0 255.94062462 0 2416.16663398 0 8718
0.08950000 0.08949900 21063.96781131 0 495.86219789 0 7253.33338174 0 -468.92510248 0 1144.71414849 0 8571
0.09050000 0.09049190 21031.36992419 0 41.07277574 0 7510.30589810 0 272.04960119 0 1418.68252876 0 8932
0.09150000 0.09150830 20511.04020185 0 224.00031557 0 7629.06337308 0 82.36935283 0 194.17886918 0 9285
0.09250000 0.09250820 20619.40007490 0 431.73540954 0 6579.91723710 0 143.89269407 0 -233.08388543 0 9204
0.09350000 0.09350330 19681.48017791 0 696.51118563 0 7547.38880486 0 -6.11124955 0 790.88881324 0 9349
0.09450000 0.09448040 19416.76285319 0 1171.16339966 0 6424.36911228 0 169.19090261 0 -397.99659637 0 9564
0.09550000 0.09549270 18290.89927598 0 648.27980148 0 7156.16919682 0 1013.09512095 0 769.04148448 0 10155
0.09650000 0.09649430 17725.83176373 0 542.98637795 0 5982.57781660 0 1221.42034908 0 -276.55710213 0 9913
0.09750000 0.09749140 17434.02447075 0 99.62476336 0 5171.16020294 0 1243.51946842 0 80.57433332 0 10476
0.09850000 0.09850240 17249.22817274 0 54.82290175 0 5485.50500063 0 932.94703311 0 -95.94210137 0 10575
0.09950000 0.09950330 17164.47366622 0 74.09544705 0 4261.57798643 0 109.74921748 0 -121.98803799 0 10882
0.10050000 0.10051200 17228.88259491 0 179.98642357 0 4884.72594101 0 -174.36497414 0 -174.27729706 0 10875
0.10150000 0.10150300 17153.23301549 0 184.87385851 0 4932.49870662 0 -549.73301652 0 319.73918598 0 11118
0.10250000 0.10250800 17082.30450938 0 208.39042390 0 5743.50041621 0 -454.56629524 0 296.81837507 0 11575
0.10350000 0.10349800 17088.37446077 0 106.43097738 0 5951.66602709 0 -582.66699910 0 -53.09217875 0 11364
0.10450000 0.10450100 17191.33882147 0 226.68795516 0 6827.36892229 0 -340.91544789 0 222.17033763 0 12093
0.10550000 0.10551000 16885.25590207 0 312.66544447 0 6338.50178135 0 135.33069041 0 493.72872238 0 12067
0.10650000 0.10649700 16815.11424150 0 507.09048391 0 7209.87702602 0 470.03343064 0 1987.84163787 0 12054
0.10750000 0.10749900 16377.62811505 0 358.75211247 0 6642.61758688 0 839.42594309 0 823.13037173 0 12807
0.10850000 0.10850100 15946.32434651 0 346.46608122 0 6054.37185282 0 864.08343454 0 1670.12464496 0 12736
0.10950000 0.10950300 15889.10943429 0 198.22213125 0 5772.99588372 0 687.38939757 0 1387.28739127 0 12933
0.11050000 0.11050200 15679.24648514 0 122.41855492 0 5421.41081016 0 921.74909685 0 2265.92409631 0 13428
0.11150000 0.11150900 15641.92752471 0 131.39871078 0 4894.37041934 0 463.12380264 0 2351.28559796 0 13453
0.11250000 0.11250000 15352.36836188 0 48.47969013 0 4353.31293705 0 570.80923664 0 776.23437688 0 13668
0.11350000 0.11349100 15268.51310743 0 198.58520427 0 4943.37965652 0 -23.29669827 0 2491.53519713 0 13791
0.11450000 0.11448600 14900.26938948 0 284.25020349 0 3907.05910303 0 8.10010284 0 -40.27615082 0 14205
0.11550000 0.11549300 14801.46406955 0 220.11779481 0 5038.57672756 0 -417.83971710 0 1483.76589649 0 14776
0.11650000 0.11649800 14445.24784789 0 236.91582326 0 4559.88237553 0 -483.70543413 0 539.69399135 0 14553
0.11750000 0.11747300 14329.01951933 0 153.33933695 0 5097.69130976 0 69.49925737 0 624.50357705 0 14568
0.11850000 0.11849100 14393.31604151 0 31.53665728 0 5195.31636136 0 302.17004889 0 1062.37750595 0 16015
0.11950000 0.11950300 14456.26368561 0 -8.10681351 0 5161.80798153 0 268.52003686 0 339.04500361 0 15270
0.12050000 0.12050700 14554.05734697 0 -52.71033385 0 5024.55963610 0 628.44904546 0 1522.73723258 0 15999
0.12150000 0.12150000 14592.94999849 0 54.55335094 0 5526.33104408 0 -102.78675841 0 1084.34510968 0 15670
0.12250000 0.12250700 14669.72364299 0 32.50031827 0 5161.94286934 0 4.58175668 0 1796.00869250 0 16887
0.12350000 0.12352200 14368.24939038 0 247.28981982 0 6109.46228205 0 -312.15062267 0 1015.64450054 0 16407
0.12450000 0.12449800 14499.87741044 0 254.68954020 0 5154.24302359 0 -517.96356536 0 1656.82695515 0 16306
0.12550000 0.12549900 14022.03734787 0 99.43637006 0 5564.33568420 0 12.89830949 0 636.09943235 0 17523
0.12650000 0.12650100 14242.69132172 0 38.36153078 0 5614.77248403 0 -169.95863905 0 988.25328284 0 17154
0.12750000 0.12750600 14055.08486102 0 33.79276829 0 5461.42752676 0 533.86683801 0 -0.44229038 0 18007
0.12850000 0.12850300 13956.72916712 0 288.55424865 0 5108.08891168 0 122.38932922 0 -535.40680716 0 17496
0.12950000 0.12949900 13729.55561585 0 291.57685964 0 5277.53048080 0 -41.41494115 0 14.44491063 0 18405
0.13050000 0.13049000 13303.53495314 0 243.61075484 0 4937.01744821 0 68.89349870 0 -1068.94092191 0 18100
0.13150000 0.13148800 13552.06574080 0 19.46689616 0 4887.00779311 0 432.46155557 0 539.99411673 0 19059
0.13250000 0.13249300 13182.92277080 0 4.08986581 0 4919.09985094 0 564.84382330 0 -812.11453401 0 18957
0.13350000 0.13349100 13470.57102301 0 156.58900907 0 4521.05716791 0 130.28813449 0 -355.27425513 0 19468
0.13450000 0.13450700 13281.05365168 0 109.08017395 0 4464.74150775 0 198.17042426 0 -686.96000471 0 19953
0.13550000 0.13551000 13045.44961236 0 193.22903420 0 4148.72185310 0 -212.10883116 0 -359.96947494 0 19956
0.13650000 0.13649900 12888.30531514 0 207.24500159 0 4533.06218289 0 -181.76919078 0 -99.79112499 0 19723
0.13750000 0.13749600 12842.33105365 0 175.09674050 0 4323.66010042 0 305.96601664 0 -754.54666536 0 20946
0.13850000 0.13851100 12629.88275483 0 250.16630234 0 4545.02223527 0 226.46651434 0 116.60713849 0 20955
0.13950000 0.13949800 12252.75892281 0 382.54182568 0 4166.92046663 0 694.86780250 0 -185.84729886 0 20506
0.14050000 0.14048300 12004.67776118 0 319.93252517 0 4266.18665323 0 580.13560455 0 145.65297998 0 21447
0.14150000 0.14148400 11585.06426939 0 338.02884878 0 3773.85739187 0 292.21308047 0 -118.23366065 0 21771
0.14250000 0.14249400 11559.43558572 0 169.96875564 0 3823.83332502 0 148.91951308 0 163.39971935 0 22470
0.14350000 0.14350900 11217.91089456 0 136.51208280 0 3506.00392560 0 -97.29390203 0 -373.71454266 0 22519
0.14450000 0.14449900 11196.73350859 0 147.00185806 0 3534.91487928 0 -80.80060762 0 100.25289093 0 22218
0.14550000 0.14550500 11099.55808302 0 37.32873979 0 3192.76071168 0 9.59888625 0 -280.96793348 0 23559
0.14650000 0.14650700 11088.93566807 0 158.81465792 0 3444.31523439 0 119.70393776 0 -329.42075845 0 23044
0.14750000 0.14750500 11079.20126454 0 99.08509972 0 3195.95305649 0 99.03788899 0 -224.62079949 0 23649
0.14850000 0.14849900 10835.40279084 0 197.68707628 0 3000.05099555 0 541.17326099 0 -948.63673340 0 23640
0.14950000 0.14949500 10747.23112650 0 179.87176893 0 2861.73478830 0 173.78720469 0 -465.72488922 0 24457
0.15050000 0.15050000 10407.76347443 0 171.74815065 0 2623.65780582 0 128.18276061 0 -1138.75660360 0 24591
0.15150000 0.15149900 10423.12944398 0 218.18327882 0 2852.87715553 0 127.10478221 0 -569.12988342 0 25020
0.15250000 0.15250500 10055.60512768 0 194.28790349 0 2515.16304496 0 -19.80748787 0 -1452.17966794 0 25297
0.15350000 0.15350100 10094.56522311 0 121.54403229 0 2632.72901096 0 217.68194580 0 -759.68589087 0 25452
0.15450000 0.15450400 10016.55510704 0 63.37411438 0 2577.52617522 0 103.68859582 0 -936.52268411 0 26061
0.15550000 0.15549900 9853.34085842 0 104.35404235 0 2672.70076496 0 300.97179552 0 -839.28543496 0 26128
0.15650000 0.15649500 9974.26777899 0 160.10058836 0 2776.91283789 0 -37.85120524 0 -537.61559503 0 26331
0.15750000 0.15749700 9651.12155177 0 162.73652096 0 2609.88800867 0 -177.76414692 0 -805.26110926 0 27345
0.15850000 0.15849900 9723.20784491 0 104.06437078 0 2828.00159546 0 -85.89981641 0 -33.25411631 0 26980
0.15950000 0.15949700 9589.78132073 0 77.09647598 0 2998.83700527 0 73.90177064 0 -332.66031399 0 27777
0.16050000 0.16050000 9747.49889114 0 84.55745790 0 2809.10606158 0 154.90291146 0 -132.75658139 0 28224
0.16150000 0.16150500 9443.97884010 0 96.88575400 0 2902.03252117 0 260.97418802 0 -410.85140454 0 28075
0.16250000 0.16249700 9611.77927421 0 107.79491794 0 2715.04429626 0 230.30856876 0 257.26364922 0 28590
0.16350000 0.16349900 9363.48454022 0 33.24006550 0 2696.92436728 0 238.44567583 0 160.11744934 0 29163
0.16450000 0.16449100 9466.97721150 0 -6.42508851 0 2600.70439703 0 306.74386967 0 262.59284173 0 28996
0.16550000 0.16550500 9449.72281263 0 -57.86001317 0 2643.94718039 0 166.25709277 0 132.21815422 0 30777
0.16650000 0.16650700 9451.34146633 0 1.48304649 0 2535.25008782 0 203.09944960 0 427.86412942 0 29211
0.16750000 0.16749900 9375.17481698 0 93.35517801 0 2226.72794721 0 184.31632223 0 170.31047142 0 30922
0.16850000 0.16850800 9285.04727942 0 155.37501879 0 2105.50876972 0 234.10341245 0 71.56911080 0 30867
0.16950000 0.16949900 9057.36789886 0 214.25354732 0 1817.86051752 0 169.40897123 0 369.14409407 0 30852
0.17050000 0.17049200 8948.80569410 0 210.43397420 0 1908.01053638 0 157.40845251 0 -10.26425409 0 31257
0.17150000 0.17149500 8762.72796190 0 201.72022176 0 1915.90147319 0 -80.15101041 0 196.89236227 0 32608
0.17250000 0.17250900 8697.47598441 0 186.38010571 0 1955.08638164 0 -109.07477843 0 109.08916647 0 32361
0.17350000 0.17350400 8537.15058303 0 66.41133821 0 2004.87122373 0 -249.09731646 0 237.39355092 0 32508
0.17450000 0.17449800 8553.06734446 0 86.49736941 0 2016.42661268 0 87.25240392 0 292.32773511 0 32791
0.17550000 0.17549800 8592.45458463 0 11.15373802 0 1938.70875353 0 193.04581159 0 248.49594164 0 33633
0.17650000 0.17650100 8445.61796413 0 28.96614528 0 1676.93647930 0 381.58861850 0 348.10047184 0 33984
0.17750000 0.17750300 8394.07958053 0 152.54125074 0 1695.59595952 0 437.76377052 0 303.65606291 0 34069
