### header ###
fiducial parameters:
Omega_m = 0.31
Omega_nu = 0
Omega_de = 0.69
Omega_k = 0
H_0 = 100
w_de = -1
zeff = 0
beta = 0
fgrowth = 0
b_1 = 2
gamma = 0.55
Lx = 3500 Ly = 3500 Lz = 3500
nx = 700 ny = 700 nz = 700
xoffset = 857.220397 yoffset = 15.9954215 zoffset = 262.898189
bins = 400 dk = 0.001
kx_ny = 0.628318531 ky_ny = 0.628318531 kz_ny = 0.628318531
############################
A(data) = 3.02726023 (not used)
A(ran) = 3.02861064 (used)
Ngal = 184889
weighted Ngal = 0
Nran = 9360983
weighted Nran = 0
SN(data) = 3444.44545
SN(ran) = 68.0112129
SN(data+ran) = 3512.45666
############################
13 columns: k_central k_mean P_0(k) sigma^{lin}_{P_0(k)} P^img_1(k) sigma^{lin}_{P_1(k)} P_2(k) sigma^{lin}_{P_2(k)} P^img_3(k) sigma^{lin}_{P_3(k)} P_4(k) sigma^{lin}_{P_4(k)} N_modes
### header ###
0.00050000 0 0 0 0 0 0 0 0 0 0 0 0
0.00150000 0.00179520 18391.50310002 0 -25749.97028805 0 32199.40605146 0 -73895.58827951 0 105032.97764990 0 3
0.00250000 0.00253879 33229.94891048 0 -21845.75506965 0 -31374.11747479 0 20466.63963147 0 -79640.12283558 0 6
0.00350000 0.00331552 68208.26863565 0 -38951.66494557 0 -1213.21467405 0 10279.27159592 0 44779.49272356 0 7
0.00450000 0.00420575 94454.06402745 0 -35531.92177368 0 -21282.59846803 0 18315.74111409 0 -13933.34861360 0 24
0.00550000 0.00557378 137294.43209340 0 -17643.21298086 0 7757.28547596 0 8823.62980756 0 26690.58794122 0 45
0.00650000 0.00659388 119364.47011239 0 3739.34859412 0 -33332.01401912 0 9256.42858266 0 -66288.02827128 0 40
0.00750000 0.00754703 125808.73517647 0 16359.41826087 0 31582.29432633 0 -7263.95579668 0 39002.13546735 0 57
0.00850000 0.00846663 112495.30845069 0 10773.55673052 0 -4650.39209522 0 18902.72789526 0 1032.98882462 0 75
0.00950000 0.00948925 98203.72029829 0 14997.83823782 0 25711.07763652 0 -5097.97232603 0 30227.34628722 0 112
0.01050000 0.01054430 89598.77735070 0 5408.23676750 0 14547.20055002 0 -14942.42182972 0 -14460.19791336 0 105
0.01150000 0.01145670 83572.43968080 0 10352.07729071 0 27551.28456769 0 -26942.04129807 0 11259.08539819 0 144
0.01250000 0.01249090 80530.38237347 0 9697.91638077 0 36518.17646881 0 -21512.80699500 0 -11182.35671630 0 169
0.01350000 0.01339930 70832.62336182 0 6598.23949779 0 35738.74974713 0 -3479.46474922 0 -5731.59656708 0 180
0.01450000 0.01448870 69431.70106122 0 2775.24922158 0 37318.96042689 0 2850.64026603 0 -24459.43117762 0 267
0.01550000 0.01550050 69603.12098486 0 1912.10213325 0 38117.15903530 0 15398.67984289 0 -54949.69628544 0 238
0.01650000 0.01653350 65888.53554430 0 -2604.07659225 0 19113.93972250 0 13608.49380747 0 -46376.00234688 0 315
0.01750000 0.01747870 67064.30761076 0 1425.10094033 0 3769.58594459 0 8642.17198281 0 -45619.05692665 0 297
0.01850000 0.01844180 59838.48010136 0 4068.35120037 0 -6085.07006997 0 474.69043224 0 -44563.11019699 0 388
0.01950000 0.01947590 59260.48584077 0 5092.49812912 0 1885.77652923 0 -5027.10002317 0 -37208.57723671 0 399
0.02050000 0.02045430 52886.25003075 0 4789.54011062 0 -3437.96426672 0 1291.79806331 0 -20740.12466375 0 462
0.02150000 0.02154770 48622.10917595 0 189.58369116 0 2076.73270385 0 9624.18895262 0 -7323.58744881 0 571
0.02250000 0.02255340 49191.67294849 0 -3078.10607422 0 -12239.83217447 0 11162.83170598 0 -6602.42101986 0 510
0.02350000 0.02348930 54950.82035051 0 -2947.42226882 0 10899.20472439 0 3201.79819487 0 -6028.20361792 0 555
0.02450000 0.02439640 52024.65415222 0 -555.33310871 0 -5088.47397616 0 -2983.26870401 0 -549.65995229 0 592
0.02550000 0.02547300 57692.19025078 0 1102.06262336 0 16182.71523138 0 -11995.79764710 0 11134.64015395 0 837
0.02650000 0.02652900 53903.52892190 0 395.20217060 0 9607.35045783 0 -10390.81257313 0 2220.84908687 0 723
0.02750000 0.02749970 59831.73571092 0 154.42968007 0 22596.40572547 0 -3871.28011175 0 3829.91451706 0 826
0.02850000 0.02848090 56214.49430569 0 -46.86036199 0 17777.76357011 0 1383.28571961 0 -9829.81417644 0 831
0.02950000 0.02946900 56533.27916042 0 869.89035470 0 19457.22919582 0 1357.83688635 0 -2872.31224064 0 996
0.03050000 0.03053250 56717.85064542 0 615.51780086 0 13395.14625660 0 1549.89464474 0 -6272.82265913 0 1041
0.03150000 0.03150510 57107.00197373 0 -347.47773979 0 20857.58946389 0 4248.02176165 0 -6637.28951843 0 1036
0.03250000 0.03246190 58892.35452933 0 2320.18271738 0 15707.34811197 0 -3178.46260395 0 -2992.71085062 0 1059
0.03350000 0.03345080 56260.13134765 0 1380.37439107 0 20932.45219776 0 2499.19008027 0 -3660.33806014 0 1302
0.03450000 0.03451200 55131.45760776 0 2804.94702081 0 22196.35096595 0 -4137.71725603 0 7469.56977985 0 1339
0.03550000 0.03553350 53484.70227567 0 2374.09287829 0 19783.32047353 0 4089.56230830 0 757.56702821 0 1365
0.03650000 0.03647120 51852.67219603 0 1432.40736330 0 22789.29529201 0 4546.37111336 0 1555.40256360 0 1308
0.03750000 0.03744890 50063.72263220 0 1879.23447051 0 20790.81999855 0 2150.69618566 0 1755.82336613 0 1579
0.03850000 0.03847530 49675.47055595 0 140.97462114 0 19489.48986342 0 3997.25408450 0 2946.65790457 0 1662
0.03950000 0.03950240 49092.41800253 0 -335.27151716 0 18377.67709962 0 824.63886706 0 -1794.92959003 0 1683
0.04050000 0.04050350 51516.91395870 0 -864.53530870 0 15054.94074354 0 -942.50383436 0 -7203.77335267 0 1822
0.04150000 0.04152450 49885.22109859 0 459.03332984 0 17617.47189068 0 -860.35940695 0 -5131.49194651 0 1887
0.04250000 0.04250150 48959.77832390 0 2163.11710472 0 13839.48918000 0 -2969.26285319 0 -11162.33711735 0 1920
0.04350000 0.04349210 47102.48560362 0 3166.87349305 0 19908.65372918 0 -64.57585235 0 -5093.79080395 0 2005
0.04450000 0.04448520 43790.65267875 0 3465.70619273 0 18224.69184317 0 1529.43666041 0 -8062.63775307 0 2151
0.04550000 0.04548030 40428.01201258 0 3241.78118952 0 19051.89133046 0 2906.29272780 0 501.29368032 0 2274
0.04650000 0.04648670 37049.97165490 0 1881.24654699 0 17733.58781273 0 4425.89381882 0 -3576.31419592 0 2311
0.04750000 0.04749250 37851.31764551 0 1069.60524437 0 18054.62079761 0 1255.18726388 0 4972.26812890 0 2568
0.04850000 0.04851840 35767.18859348 0 604.27490200 0 17403.89952679 0 1650.23993382 0 1535.01202317 0 2493
0.04950000 0.04949480 37396.07129091 0 139.92699249 0 17230.34387951 0 -507.37150017 0 1593.20487201 0 2644
0.05050000 0.05050630 35350.27285786 0 646.63192208 0 15855.27507558 0 -867.36008423 0 1511.64271030 0 2829
0.05150000 0.05149060 37250.50486394 0 164.43273515 0 17107.70838003 0 -849.30197883 0 1886.09126745 0 2784
0.05250000 0.05249300 35842.61335988 0 150.49882451 0 16085.14638303 0 1930.70541021 0 -3113.82886225 0 3055
0.05350000 0.05348950 35948.94991580 0 461.51863771 0 15282.56392084 0 2254.30126345 0 -2289.91164497 0 3009
0.05450000 0.05448610 35348.47435375 0 186.87919060 0 12639.66212097 0 3734.73992732 0 -862.56032636 0 3336
0.05550000 0.05550870 35070.49306117 0 193.56850185 0 12503.42543411 0 2839.18604294 0 447.29247015 0 3349
0.05650000 0.05647670 35080.38483381 0 -650.50657439 0 11299.66414733 0 1492.14018129 0 781.60628386 0 3324
0.05750000 0.05747970 35761.45586160 0 149.71422709 0 10943.41420371 0 1315.86429652 0 398.68002793 0 3639
0.05850000 0.05849280 35462.56695867 0 370.18722646 0 11647.00025492 0 -914.63039274 0 1579.32266835 0 3846
0.05950000 0.05951020 34495.30896327 0 1443.27707256 0 12809.84557304 0 -1754.14850917 0 4512.14333188 0 3787
0.06050000 0.06049470 33616.73970213 0 1838.38594575 0 14423.21617246 0 -549.87352465 0 2883.19319055 0 3930
0.06150000 0.06148310 32211.54595425 0 1287.66150384 0 12516.01496293 0 1335.08580927 0 4428.61405630 0 4083
0.06250000 0.06249100 31212.02729125 0 875.30834836 0 12905.84073028 0 1895.07254739 0 2573.64815072 0 4303
0.06350000 0.06350600 30666.85573080 0 562.94302926 0 13108.28484995 0 1227.87248260 0 3510.65755500 0 4470
0.06450000 0.06451750 30112.24202373 0 441.53276071 0 11244.36014573 0 1147.74912419 0 1999.08228860 0 4479
0.06550000 0.06550280 29563.47345504 0 283.78708868 0 14137.81605040 0 -492.69907878 0 4643.47909502 0 4636
0.06650000 0.06648880 30002.08364657 0 502.57399044 0 14324.86047856 0 -22.56594356 0 2594.25226351 0 4653
0.06750000 0.06749660 28934.22182712 0 283.31835354 0 13586.34972553 0 -410.93121316 0 1906.29071682 0 5220
0.06850000 0.06852730 29095.86238463 0 700.97822024 0 16261.62459951 0 858.07755485 0 3778.19628305 0 5029
0.06950000 0.06949320 28879.25504505 0 192.00717546 0 15032.57184858 0 288.04617124 0 1297.54203583 0 5040
0.07050000 0.07048030 28301.37319097 0 582.13756445 0 16612.22049581 0 1239.43911220 0 3622.46830782 0 5475
0.07150000 0.07148790 27431.00960487 0 899.44989393 0 13626.25403563 0 884.93259351 0 364.15886547 0 5509
0.07250000 0.07249820 26787.59475702 0 1262.30259579 0 13831.73313099 0 1614.83188401 0 2855.57491170 0 5916
0.07350000 0.07351270 25670.04926135 0 953.12624930 0 12617.29322602 0 1156.50559111 0 882.79799394 0 5721
0.07450000 0.07449140 24739.54819384 0 599.99671033 0 11196.95832160 0 2506.33913414 0 1996.51942024 0 6028
0.07550000 0.07549160 24237.54073219 0 51.39146830 0 10161.75059253 0 1776.30383176 0 1266.84381868 0 6183
0.07650000 0.07648840 24027.00334400 0 53.07970163 0 8668.98093480 0 1388.56882545 0 508.20330833 0 6330
0.07750000 0.07749960 23947.64434984 0 36.67813093 0 7809.92544334 0 257.69641427 0 528.77257510 0 6583
0.07850000 0.07848650 24319.37266951 0 140.20576063 0 7437.32035291 0 -16.68135050 0 421.73797478 0 6549
0.07950000 0.07947320 23317.83068938 0 595.65557102 0 7048.69733518 0 -289.02073566 0 755.42118799 0 6828
0.08050000 0.08048110 23412.81418806 0 409.82288500 0 6730.93537967 0 -215.03589661 0 -1470.82790750 0 7147
0.08150000 0.08149960 22511.87603197 0 488.40065394 0 6861.74283223 0 64.45501536 0 -816.33427430 0 7386
0.08250000 0.08250610 23209.92044237 0 557.05742454 0 7011.02991458 0 126.85186756 0 -1083.85726543 0 7227
0.08350000 0.08350160 21245.84154014 0 587.83769843 0 7717.67342279 0 -86.10743123 0 -1653.73577619 0 7798
0.08450000 0.08449610 22180.61405493 0 852.71014413 0 8182.51929312 0 164.99926395 0 1412.01682287 0 7371
0.08550000 0.08548940 20792.05647013 0 513.61455759 0 8436.80529395 0 1074.79055655 0 320.41699722 0 8256
0.08650000 0.08650700 20769.46276216 0 327.42779108 0 8445.44935437 0 824.59278039 0 3725.10668965 0 8037
0.08750000 0.08749060 20285.88996771 0 -5.95307111 0 8600.37924339 0 1942.37320566 0 2673.86979263 0 8155
0.08850000 0.08849210 20601.41503373 0 -217.47736595 0 9264.10594710 0 1670.24829212 0 5383.27128223 0 8718
0.08950000 0.08949900 21005.51642751 0 -192.35900783 0 8184.67749806 0 419.41678040 0 4757.44805278 0 8571
0.09050000 0.09049190 20802.06064928 0 102.22259015 0 7910.77656170 0 475.30979209 0 4778.34442249 0 8932
0.09150000 0.09150830 20402.45551579 0 514.97804852 0 7647.74533459 0 -344.38318864 0 3674.07413533 0 9285
0.09250000 0.09250820 20210.91482734 0 457.87329468 0 6815.95966180 0 283.38916964 0 3353.40085128 0 9204
0.09350000 0.09350330 19570.53495519 0 671.40294410 0 6590.30359837 0 266.43377208 0 2045.15771595 0 9349
0.09450000 0.09448040 19086.06290869 0 665.28128571 0 5539.71865910 0 358.92409443 0 1515.11607138 0 9564
0.09550000 0.09549270 18567.75650348 0 192.48602718 0 6044.70489319 0 196.48432665 0 168.08931884 0 10155
0.09650000 0.09649430 18362.38981463 0 318.80283977 0 5159.81838635 0 -159.20583256 0 -258.12131087 0 9913
0.09750000 0.09749140 18198.50112697 0 382.58341608 0 5455.96457051 0 -21.51370625 0 455.02154159 0 10476
0.09850000 0.09850240 17595.88984128 0 428.85555482 0 5026.80776625 0 -8.40870367 0 -933.73050647 0 10575
0.09950000 0.09950330 17336.56802891 0 521.83709360 0 6054.56294388 0 334.68925145 0 759.67914648 0 10882
0.10050000 0.10051200 16916.72972411 0 550.19051100 0 5203.01620711 0 862.09833562 0 1190.50855957 0 10875
0.10150000 0.10150300 16285.67959207 0 183.73180839 0 5051.75077022 0 1138.03720196 0 406.64402897 0 11118
0.10250000 0.10250800 16373.91870031 0 129.36190487 0 4590.01856014 0 718.55747391 0 1789.66896548 0 11575
0.10350000 0.10349800 16310.52143019 0 23.82017537 0 4830.80453945 0 491.78971013 0 1059.57858392 0 11364
0.10450000 0.10450100 16331.20422754 0 -128.07822256 0 4194.32517311 0 211.07806349 0 2105.94715510 0 12093
0.10550000 0.10551000 16435.62987283 0 -148.22708899 0 4722.00628103 0 -77.02633432 0 2178.33694581 0 12067
0.10650000 0.10649700 16682.24974986 0 6.84324072 0 4075.83747376 0 561.95272793 0 2602.71647351 0 12054
0.10750000 0.10749900 16784.53967152 0 90.36763786 0 5001.19032323 0 561.56380141 0 2229.56059119 0 12807
0.10850000 0.10850100 16441.25019819 0 371.37311511 0 4240.77154193 0 589.16746741 0 3138.88427272 0 12736
0.10950000 0.10950300 16195.64197972 0 490.59595302 0 4651.90958307 0 371.29105836 0 2800.83294264 0 12933
0.11050000 0.11050200 15707.34811197 0 599.64038170 0 4555.74581606 0 -464.07700982 0 2755.24086328 0 13428
0.11150000 0.11150900 15327.18930424 0 616.62950122 0 5450.97372158 0 -529.06708015 0 4335.24921133 0 13453
0.11250000 0.11250000 14739.97771006 0 516.86985004 0 5659.51027394 0 -585.94140065 0 3067.44993733 0 13668
0.11350000 0.11349100 14528.54106981 0 402.26579551 0 5977.46332052 0 -191.66208748 0 4069.10432397 0 13791
0.11450000 0.11448600 14381.51335824 0 184.90758046 0 6518.45335890 0 15.18758042 0 3282.89948989 0 14205
0.11550000 0.11549300 14036.20056779 0 178.25873555 0 6148.07391732 0 645.11106204 0 3225.48224596 0 14776
0.11650000 0.11649800 13963.36115105 0 182.29750136 0 6093.30946695 0 797.76809148 0 2819.27885049 0 14553
0.11750000 0.11747300 13666.83278477 0 43.47872462 0 5259.90514046 0 975.57944914 0 2439.22120863 0 14568
0.11850000 0.11849100 13591.18320535 0 18.07181899 0 4678.58364725 0 999.00271713 0 2340.38216675 0 16015
0.11950000 0.11950300 13717.52811957 0 -132.28447406 0 3965.63413399 0 802.99724220 0 2711.00890265 0 15270
0.12050000 0.12050700 13509.12645501 0 -138.72424287 0 4105.56899494 0 186.52735823 0 2286.97783512 0 15999
0.12150000 0.12150000 14119.83100923 0 -140.44968275 0 3945.77190415 0 184.49729671 0 2740.50437017 0 15670
0.12250000 0.12250700 13906.93308438 0 -30.55377478 0 4294.78286869 0 -110.71478937 0 2992.66588802 0 16887
0.12350000 0.12352200 14251.45902929 0 183.81723734 0 4791.20372693 0 -245.61945912 0 3663.13698217 0 16407
0.12450000 0.12449800 13989.43946075 0 238.99084739 0 5331.72165798 0 -284.36485813 0 3809.79375225 0 16306
0.12550000 0.12549900 13861.40844892 0 249.47949858 0 5161.79674088 0 147.06817790 0 3562.73548984 0 17523
0.12650000 0.12650100 13652.10753231 0 235.90866096 0 5563.51511670 0 202.50594324 0 3812.78376535 0 17154
0.12750000 0.12750600 13374.01383323 0 167.84539672 0 5020.05213516 0 412.49253955 0 2900.51503332 0 18007
0.12850000 0.12850300 13242.16100015 0 207.59908209 0 4846.81122609 0 237.10129400 0 2750.04768264 0 17496
0.12950000 0.12949900 12961.03232537 0 241.06924371 0 4565.06431552 0 -241.87969462 0 1823.90798761 0 18405
0.13050000 0.13049000 12852.56004582 0 295.67182870 0 4119.42871729 0 -149.59844838 0 1306.34346535 0 18100
0.13150000 0.13148800 12567.72195629 0 226.07758783 0 4186.34431109 0 -408.89553132 0 1432.80078608 0 19059
0.13250000 0.13249300 12396.07721963 0 222.61434334 0 4006.66250916 0 -277.26863532 0 404.36554907 0 18957
0.13350000 0.13349100 12317.05544499 0 214.33110781 0 4113.28008134 0 58.53063039 0 705.41715321 0 19468
0.13450000 0.13450700 12166.76794472 0 167.99377330 0 3925.69610194 0 351.69748007 0 324.06234025 0 19953
0.13550000 0.13551000 11790.20614523 0 196.04144501 0 3968.52298123 0 630.69492747 0 719.81080647 0 19956
0.13650000 0.13649900 11787.62079556 0 101.52600703 0 3558.57644907 0 704.22002391 0 273.06013569 0 19723
0.13750000 0.13749600 11591.13422078 0 140.52049885 0 3618.96122479 0 673.51618643 0 204.55736200 0 20946
0.13850000 0.13851100 11397.34540218 0 162.05533752 0 3344.31840548 0 -72.81536174 0 551.10100371 0 20955
0.13950000 0.13949800 11471.30888399 0 153.57314248 0 3608.24888465 0 0.87827813 0 794.23178276 0 20506
0.14050000 0.14048300 11293.93141546 0 208.62198131 0 3456.30900872 0 -313.72206564 0 1111.63628559 0 21447
0.14150000 0.14148400 11257.96133312 0 130.89175744 0 3897.02120193 0 22.36372426 0 1267.94540246 0 21771
0.14250000 0.14249400 11122.94987719 0 131.41557176 0 3760.17751993 0 82.51840386 0 1099.07485839 0 22470
0.14350000 0.14350900 11008.35144298 0 189.76354158 0 4033.99977174 0 -76.91628835 0 770.30830581 0 22519
0.14450000 0.14449900 10958.38675049 0 170.81292851 0 3852.17100551 0 -156.67668615 0 686.54410063 0 22218
0.14550000 0.14550500 10691.70231189 0 173.12513036 0 4327.43695907 0 -393.74763039 0 684.44884334 0 23559
0.14650000 0.14650700 10761.65288139 0 22.75152671 0 4102.39913143 0 -381.28849312 0 289.19496575 0 23044
0.14750000 0.14750500 10774.99553381 0 -116.15638839 0 4316.55600916 0 -46.16647662 0 179.26814599 0 23649
0.14850000 0.14849900 10930.95956270 0 -113.77112231 0 4124.16103125 0 -75.68150287 0 -211.43326805 0 23640
0.14950000 0.14949500 11008.58749665 0 -69.08346570 0 4082.14347882 0 326.85002163 0 -299.28682197 0 24457
0.15050000 0.15050000 11050.09921980 0 17.55205130 0 3935.65531849 0 292.04334664 0 -572.11764839 0 24591
0.15150000 0.15149900 10898.63145120 0 183.87793685 0 3876.60818020 0 234.84529540 0 -130.56240637 0 25020
0.15250000 0.15250500 10871.99110897 0 285.38663328 0 3735.77406719 0 474.51058183 0 -154.23184461 0 25297
0.15350000 0.15350100 10548.75495655 0 347.40130336 0 3917.26561389 0 281.16239673 0 337.03180306 0 25452
0.15450000 0.15450400 10217.86392098 0 367.01623889 0 3640.92545632 0 115.62245748 0 524.25046131 0 26061
0.15550000 0.15549900 9938.72484138 0 288.28896930 0 3964.48758761 0 202.56214650 0 905.04773800 0 26128
0.15650000 0.15649500 9796.12594620 0 239.02119714 0 3582.00196519 0 289.06682233 0 1168.43192153 0 26331
0.15750000 0.15749700 9567.22133472 0 120.59194917 0 3666.88011886 0 261.28218185 0 1179.23418689 0 27345
0.15850000 0.15849900 9537.66966394 0 48.95708057 0 3650.51373140 0 240.69942630 0 1691.20086508 0 26980
0.15950000 0.15949700 9414.39344738 0 -19.55401120 0 3458.55713886 0 471.85329200 0 1327.79062695 0 27777
0.16050000 0.16050000 9530.81286700 0 -43.93340894 0 3575.81960729 0 251.09253196 0 1558.98833118 0 28224
0.16150000 0.16150500 9492.63961712 0 32.08003034 0 3177.78816490 0 133.29500856 0 1016.53138788 0 28075
0.16250000 0.16249700 9514.82866166 0 13.40773579 0 3417.62992955 0 -82.59382863 0 978.61892110 0 28590
0.16350000 0.16349900 9484.04051931 0 142.54718818 0 3386.23479206 0 -205.33071877 0 1046.04371638 0 29163
0.16450000 0.16449100 9415.79852872 0 163.85721384 0 3399.02665259 0 -84.15706593 0 317.05829078 0 28996
0.16550000 0.16550500 9176.00172667 0 242.76096164 0 3146.21317700 0 29.78041801 0 410.30510892 0 30777
0.16650000 0.16650700 8937.05921409 0 209.38072523 0 2831.69976955 0 273.30855407 0 2.12697841 0 29211
0.16750000 0.16749900 8822.11231971 0 133.57377670 0 2430.21744739 0 405.46488471 0 251.88949410 0 30922
0.16850000 0.16850800 8626.07537096 0 77.56060245 0 2320.68854667 0 517.15761070 0 -172.29781847 0 30867
0.16950000 0.16949900 8599.50247263 0 38.21922414 0 1965.94485025 0 387.47871948 0 0.97681367 0 30852
0.17050000 0.17049200 8424.47430010 0 -23.20666065 0 1713.80581370 0 228.47072237 0 -144.68740808 0 31257
0.17150000 0.17149500 8549.13311671 0 57.64171973 0 1723.92239936 0 74.92478226 0 127.25091067 0 32608
0.17250000 0.17250900 8522.44781187 0 74.16974775 0 1895.55589537 0 -238.60416900 0 297.97728616 0 32361
0.17350000 0.17350400 8484.97148234 0 150.13462742 0 2247.64679822 0 -158.46956994 0 267.07673730 0 32508
0.17450000 0.17449800 8389.88681780 0 196.68665836 0 2318.94624580 0 -273.40634773 0 402.51871016 0 32791
0.17550000 0.17549800 8369.69860909 0 134.68772519 0 2554.82006074 0 -200.87829702 0 288.07427287 0 33633
0.17650000 0.17650100 8228.96566194 0 131.46390656 0 2764.94154486 0 -100.56740433 0 494.09179540 0 33984
0.17750000 0.17750300 8247.28792263 0 139.61000614 0 2985.57303740 0 -248.02383431 0 333.48537776 0 34069
0.17850000 0.17849800 8206.22582551 0 62.97709460 0 3235.50890641 0 -49.40524531 0 479.77345450 0 34536
