### header ###
fiducial parameters:
Omega_m = 0.31
Omega_nu = 0
Omega_de = 0.69
Omega_k = 0
H_0 = 100
w_de = -1
zeff = 0
beta = 0
fgrowth = 0
b_1 = 2
gamma = 0.55
Lx = 3500 Ly = 3500 Lz = 3500
nx = 700 ny = 700 nz = 700
xoffset = 857.220397 yoffset = 15.9954215 zoffset = 262.898189
bins = 400 dk = 0.001
kx_ny = 0.628318531 ky_ny = 0.628318531 kz_ny = 0.628318531
############################
A(data) = 3.0747425 (not used)
A(ran) = 3.07092839 (used)
Ngal = 187211
weighted Ngal = 0
Nran = 9360983
weighted Nran = 0
SN(data) = 3463.33028
SN(ran) = 68.9615105
SN(data+ran) = 3532.29179
############################
13 columns: k_central k_mean P_0(k) sigma^{lin}_{P_0(k)} P^img_1(k) sigma^{lin}_{P_1(k)} P_2(k) sigma^{lin}_{P_2(k)} P^img_3(k) sigma^{lin}_{P_3(k)} P_4(k) sigma^{lin}_{P_4(k)} N_modes
### header ###
0.00050000 0 0 0 0 0 0 0 0 0 0 0 0
0.00150000 0.00179520 5235.54665032 0 -10687.21729225 0 -10985.10577727 0 8885.18361096 0 -13954.25622396 0 3
0.00250000 0.00253879 11054.22453862 0 -12513.09239374 0 -1705.67882322 0 -1922.66834493 0 8127.97965577 0 6
0.00350000 0.00331552 20680.09958885 0 -16428.88548239 0 -11759.18194921 0 7681.14130791 0 -8199.76245134 0 7
0.00450000 0.00420575 32584.39833900 0 -20666.27358845 0 -15062.24716651 0 8444.78615597 0 13042.18982365 0 24
0.00550000 0.00557378 56740.10713387 0 -28799.44642486 0 -47690.59644987 0 29675.76755585 0 15890.34590587 0 45
0.00650000 0.00659388 69846.36866668 0 -26573.46036060 0 -51818.16339829 0 20384.69528764 0 10566.77371967 0 40
0.00750000 0.00754703 94822.98218444 0 -31093.32601953 0 -92576.20091633 0 18272.35220227 0 4163.67191857 0 57
0.00850000 0.00846663 102895.23069388 0 -21289.68007799 0 -88947.71886036 0 -8128.64285416 0 19599.64824059 0 75
0.00950000 0.00948925 119004.76928900 0 -8713.62879951 0 -116583.53312155 0 -19776.68848960 0 22996.68529800 0 112
0.01050000 0.01054430 115867.50366998 0 1175.00770221 0 -79060.21766437 0 -61427.23367568 0 11022.51466291 0 105
0.01150000 0.01145670 110016.52015149 0 8576.88628336 0 -80225.98555168 0 -46091.05185085 0 17237.98752200 0 144
0.01250000 0.01249090 102728.86906306 0 7658.53635929 0 -51334.59060384 0 -39027.87655752 0 -3746.04802196 0 169
0.01350000 0.01339930 94436.07898628 0 6485.65314007 0 -46029.11586532 0 -43611.13948658 0 -20397.06000344 0 180
0.01450000 0.01448870 91415.37891534 0 6650.95814972 0 -24703.91533102 0 -25125.32732693 0 -16332.32829261 0 267
0.01550000 0.01550050 87891.21009816 0 6167.68885284 0 -25130.83524578 0 -15209.05006506 0 -56041.72550395 0 238
0.01650000 0.01653350 80245.76909697 0 5829.34526584 0 -7243.84627252 0 -21647.35758425 0 -21011.02434637 0 315
0.01750000 0.01747870 79721.16792735 0 3930.14739963 0 -6779.96709816 0 -10558.95022676 0 -32467.04594537 0 297
0.01850000 0.01844180 74775.84363825 0 4948.10072983 0 5254.14992728 0 -11349.90985610 0 -20539.36664170 0 388
0.01950000 0.01947590 74845.76048580 0 2787.96239755 0 9815.35869960 0 -4388.76594946 0 -23605.70375460 0 399
0.02050000 0.02045430 71650.71792202 0 5086.23708666 0 11721.75058228 0 -5474.27559055 0 -20140.21113424 0 462
0.02150000 0.02154770 70734.94210697 0 2679.52383995 0 24167.73629115 0 937.02626526 0 -7284.24517125 0 571
0.02250000 0.02255340 64693.42955858 0 1707.74710296 0 12409.22878098 0 -1151.06511615 0 -5881.46816328 0 510
0.02350000 0.02348930 68946.66698217 0 -2515.07311976 0 19132.03717018 0 8400.47551079 0 6056.26028214 0 555
0.02450000 0.02439640 68872.81590687 0 -5287.29860629 0 4669.04033478 0 11074.58135709 0 -10093.94698732 0 592
0.02550000 0.02547300 70493.71774228 0 -2015.14517850 0 3831.21843255 0 13635.47136923 0 25.00280423 0 837
0.02650000 0.02652900 69580.07765086 0 1202.40116804 0 -6073.46971841 0 1472.79502138 0 -19621.23028999 0 723
0.02750000 0.02749970 66996.75129987 0 2828.39501823 0 -9097.28344961 0 -456.08153495 0 -6651.23916599 0 826
0.02850000 0.02848090 63147.27805053 0 4533.48932762 0 -9505.28534919 0 -8438.91853629 0 -19679.00723475 0 831
0.02950000 0.02946900 58327.84904962 0 3815.62764998 0 -8967.24036130 0 -10472.43093808 0 -15482.53509735 0 996
0.03050000 0.03053250 54457.24337691 0 3480.16166957 0 -2521.49153133 0 -10553.83573068 0 -16808.93188360 0 1041
0.03150000 0.03150510 52806.89103659 0 4309.95774718 0 4162.43544699 0 -5048.20996524 0 -11777.27939689 0 1036
0.03250000 0.03246190 51075.94323052 0 2891.58995664 0 9234.55427633 0 -1974.97109278 0 1422.98769799 0 1059
0.03350000 0.03345080 48303.99876026 0 1592.42926711 0 14515.16469544 0 4033.72999612 0 -2942.35273534 0 1302
0.03450000 0.03451200 50570.11394763 0 -1900.59170690 0 15320.33250730 0 10756.39225685 0 7145.62546644 0 1339
0.03550000 0.03553350 49807.88542156 0 -2162.86981040 0 16183.27726392 0 4201.67655869 0 6071.92974926 0 1365
0.03650000 0.03647120 53444.79796557 0 -218.37099769 0 13517.10731703 0 2013.02069551 0 8992.63299130 0 1308
0.03750000 0.03744890 52105.69924399 0 -377.88482408 0 11315.51346486 0 -3949.81853841 0 5535.86311590 0 1579
0.03850000 0.03847530 54302.45961635 0 16.64897742 0 12409.67840701 0 -2338.43753417 0 4655.18061243 0 1662
0.03950000 0.03950240 51634.82838487 0 336.38883784 0 11838.76575639 0 -8544.92911334 0 -6477.30133658 0 1683
0.04050000 0.04050350 54161.72666919 0 1279.97289874 0 13045.67442537 0 -3906.81180871 0 -9190.38975961 0 1822
0.04150000 0.04152450 49948.16874268 0 2189.94853801 0 16405.05530284 0 -3972.95179762 0 -10657.20475480 0 1887
0.04250000 0.04250150 49493.59682712 0 2841.52409829 0 18345.86605805 0 -2165.42143812 0 -11932.62518999 0 1920
0.04350000 0.04349210 47845.82983646 0 2572.76013931 0 24511.70020352 0 -945.98506389 0 -2139.57918209 0 2005
0.04450000 0.04448520 46007.64622242 0 2516.38827589 0 23592.32738023 0 4764.84440096 0 -4752.65953557 0 2151
0.04550000 0.04548030 43671.72659402 0 2005.71427253 0 27960.89388033 0 2906.73111318 0 4772.37563695 0 2274
0.04650000 0.04648670 41973.15186206 0 978.53686435 0 24601.17578334 0 5471.21813355 0 2832.68894681 0 2311
0.04750000 0.04749250 41908.96774638 0 1431.71044296 0 24810.02707392 0 3079.47743361 0 3051.70178566 0 2568
0.04850000 0.04851840 40253.55711323 0 1939.09093565 0 21573.73132196 0 1126.72910732 0 6050.56127222 0 2493
0.04950000 0.04949480 39206.15327812 0 1202.25503958 0 21334.08064838 0 4261.06091650 0 6622.65419118 0 2644
0.05050000 0.05050630 37288.72307642 0 1040.03558856 0 19420.24745492 0 4751.96261523 0 6771.94127354 0 2829
0.05150000 0.05149060 36259.30428248 0 686.30242664 0 14519.77336224 0 6226.82591634 0 7980.50231818 0 2784
0.05250000 0.05249300 34747.66157218 0 225.15697853 0 12299.07040382 0 6201.05110421 0 7280.25474024 0 3055
0.05350000 0.05348950 34728.77727895 0 1086.80681219 0 11833.59505705 0 3460.87271291 0 7681.26495507 0 3009
0.05450000 0.05448610 32757.05473423 0 630.13739120 0 6624.12671642 0 2245.71340629 0 8648.05084314 0 3336
0.05550000 0.05550870 32957.70034977 0 1059.48865871 0 6228.52325460 0 1607.93012447 0 6316.29025550 0 3349
0.05650000 0.05647670 31184.82491648 0 427.54939120 0 3164.76025071 0 -1554.87425302 0 1950.14049532 0 3324
0.05750000 0.05747970 30690.79831685 0 323.57562007 0 3975.72823835 0 -1029.54131704 0 -388.99508326 0 3639
0.05850000 0.05849280 30983.16764237 0 114.48827583 0 2997.03850115 0 -2752.26209083 0 -5313.48932249 0 3846
0.05950000 0.05951020 30338.85354247 0 -398.57886207 0 3103.83592375 0 -2003.51110499 0 -6325.23781349 0 3787
0.06050000 0.06049470 30322.21737939 0 -326.42624910 0 2246.45528924 0 -1289.76350552 0 -6851.65996852 0 3930
0.06150000 0.06148310 31529.23845488 0 -138.70288563 0 3884.55532027 0 -1068.36427653 0 -8190.39898928 0 4083
0.06250000 0.06249100 31279.35878913 0 342.10358467 0 4001.27823746 0 -375.02183034 0 -6624.46393595 0 4303
0.06350000 0.06350600 30956.86451966 0 1493.29796831 0 7588.85556541 0 -1090.05423618 0 -959.38841583 0 4470
0.06450000 0.06451750 30396.63048722 0 940.62102536 0 7153.21290568 0 54.99623258 0 -45.71909872 0 4479
0.06550000 0.06550280 29718.03240259 0 429.53786232 0 12353.25034034 0 1560.95544506 0 7560.48416297 0 4636
0.06650000 0.06648880 30100.55174697 0 425.86441766 0 10613.60227061 0 795.87179371 0 4158.70355094 0 4653
0.06750000 0.06749660 30119.21122718 0 94.20766896 0 13071.64032856 0 1209.15679913 0 7326.02667002 0 5220
0.06850000 0.06852730 29845.27656887 0 619.22271934 0 13634.34730416 0 -1056.59194302 0 7349.90181217 0 5029
0.06950000 0.06949320 29868.31990287 0 250.25622755 0 11562.13334190 0 -1517.81382756 0 5479.53621509 0 5040
0.07050000 0.07048030 29296.84521970 0 103.16972738 0 13882.87809182 0 -1212.54023500 0 3267.91570247 0 5475
0.07150000 0.07148790 30323.79107049 0 99.49617032 0 11657.34165359 0 -807.48900624 0 -447.81291228 0 5509
0.07250000 0.07249820 29368.78538438 0 916.63909703 0 13234.51735765 0 -797.38028903 0 -1271.32883833 0 5916
0.07350000 0.07351270 28505.95303427 0 1576.20900810 0 11141.31710048 0 -452.07649110 0 -3726.96139702 0 5721
0.07450000 0.07449140 27143.13653965 0 1623.27361271 0 11871.92567604 0 1129.46058545 0 -2286.48324649 0 6028
0.07550000 0.07549160 25619.57873957 0 986.99320589 0 10164.78556823 0 2949.82776808 0 -2157.58670456 0 6183
0.07650000 0.07648840 25136.68038416 0 165.54780771 0 9964.12871203 0 2799.20304829 0 -1839.11658805 0 6330
0.07750000 0.07749960 24558.46131056 0 -35.65197192 0 8507.17176753 0 2786.88329508 0 -1756.81254340 0 6583
0.07850000 0.07848650 24885.00221430 0 -385.98371293 0 7794.08736646 0 1538.73267857 0 -2023.71055435 0 6549
0.07950000 0.07947320 25139.94017288 0 -227.60968852 0 7182.44983823 0 -560.91409180 0 -301.69569342 0 6828
0.08050000 0.08048110 25796.50658207 0 74.10342791 0 7867.17407751 0 -882.27305555 0 -1311.05329801 0 7147
0.08150000 0.08149960 25378.69159440 0 491.01073304 0 9885.69145123 0 -1041.09783005 0 169.27295936 0 7386
0.08250000 0.08250610 24978.74924139 0 816.44780487 0 8649.74818140 0 -706.99758870 0 -456.49294277 0 7227
0.08350000 0.08350160 24243.94790311 0 900.07487411 0 10091.57521002 0 571.80291016 0 -274.94744095 0 7798
0.08450000 0.08449610 23654.26336576 0 1037.29849011 0 9411.38095298 0 471.55991101 0 -206.17601571 0 7371
0.08550000 0.08548940 22671.38086584 0 590.26680306 0 9261.80161370 0 1838.94797829 0 -293.02240732 0 8256
0.08650000 0.08650700 21812.25793047 0 494.61898192 0 8030.55693589 0 460.16863556 0 -317.86986576 0 8037
0.08750000 0.08749060 21787.19127934 0 -208.63996635 0 6759.82385205 0 1610.68408389 0 -1969.77791215 0 8155
0.08850000 0.08849210 21941.07578785 0 -403.25497278 0 5513.04459492 0 883.86585576 0 -2976.33322250 0 8718
0.08950000 0.08949900 21622.85296566 0 22.18083887 0 5418.89290440 0 -253.32155300 0 -4056.42486994 0 8571
0.09050000 0.09049190 21704.23527695 0 538.10006708 0 4372.68057826 0 -391.71756887 0 -4785.03260968 0 8932
0.09150000 0.09150830 20748.33033879 0 1046.16399134 0 5107.72921086 0 -608.55983806 0 -5513.16824208 0 9285
0.09250000 0.09250820 19927.87524193 0 1102.40883540 0 4647.95287401 0 -849.19631671 0 -4992.26524655 0 9204
0.09350000 0.09350330 19144.40188598 0 640.31355231 0 5444.22933114 0 285.36752417 0 -4672.44625195 0 9349
0.09450000 0.09448040 18665.99979087 0 442.09816545 0 5971.04490895 0 -280.04170386 0 -4113.84211388 0 9564
0.09550000 0.09549270 18585.17951211 0 243.31849792 0 5840.36110355 0 148.29116070 0 -3813.82914587 0 10155
0.09650000 0.09649430 18386.21999417 0 102.53283211 0 7064.95131614 0 127.63084466 0 -2918.10665172 0 9913
0.09750000 0.09749140 18543.13947838 0 157.29492194 0 6350.07965160 0 -143.74206935 0 -1634.68287321 0 10476
0.09850000 0.09850240 18675.32953098 0 -75.10081085 0 7039.64861135 0 914.26282347 0 -1656.14127545 0 10575
0.09950000 0.09950330 18701.52024718 0 -32.52920674 0 6782.10282180 0 971.91612106 0 -675.01006892 0 10882
0.10050000 0.10051200 18575.96217851 0 34.12965059 0 6566.88932290 0 1008.42013431 0 -1323.24940405 0 10875
0.10150000 0.10150300 18433.20591423 0 286.51519461 0 6057.86769520 0 568.50377918 0 -907.11039741 0 11118
0.10250000 0.10250800 18138.13883254 0 354.13445315 0 5395.88329235 0 154.69158723 0 -780.92847262 0 11575
0.10350000 0.10349800 18051.02378938 0 335.27376529 0 6073.50344037 0 -795.70430801 0 -1448.95360118 0 11364
0.10450000 0.10450100 17691.99740503 0 438.38313038 0 5728.13444666 0 -443.96074127 0 -537.38291356 0 12093
0.10550000 0.10551000 17397.26754286 0 205.52967829 0 6232.43500105 0 61.24996861 0 -1405.87942758 0 12067
0.10650000 0.10649700 17487.19274871 0 30.41405350 0 6128.76247936 0 372.37353303 0 -679.72552190 0 12054
0.10750000 0.10749900 17713.46704793 0 19.11023031 0 6255.10739358 0 647.87401399 0 -645.49549229 0 12807
0.10850000 0.10850100 17240.91009119 0 213.27898290 0 6188.13559652 0 324.53107538 0 -1153.47061541 0 12736
0.10950000 0.10950300 17513.72068444 0 354.29744259 0 6949.92573721 0 71.51391920 0 302.00368725 0 12933
0.11050000 0.11050200 16444.95961293 0 657.15092304 0 6461.89040442 0 329.47021732 0 539.63891216 0 13428
0.11150000 0.11150900 16453.16528797 0 464.46930853 0 7088.46675747 0 586.12012700 0 2364.54956582 0 13453
0.11250000 0.11250000 15807.72712299 0 274.21117832 0 6346.32527426 0 486.75277454 0 948.63336121 0 13668
0.11350000 0.11349100 15926.09117519 0 244.92366284 0 6871.82569593 0 846.37041712 0 2198.48019192 0 13791
0.11450000 0.11448600 15447.91389309 0 188.11004185 0 5911.33457227 0 556.10421735 0 689.24972526 0 14205
0.11550000 0.11549300 15148.91258365 0 287.50999220 0 5162.54986448 0 335.59637196 0 1327.44216677 0 14776
0.11650000 0.11649800 14781.00608522 0 158.79667288 0 4763.85522370 0 305.48828898 0 389.60882279 0 14553
0.11750000 0.11747300 14787.97528868 0 207.17980582 0 4442.83347947 0 547.76140638 0 -522.30020841 0 14568
0.11850000 0.11849100 14343.29514576 0 41.78903000 0 3937.91468929 0 698.81776716 0 14.52426962 0 16015
0.11950000 0.11950300 14489.19879225 0 -19.79366187 0 3761.29034435 0 688.25492767 0 -911.99558421 0 15270
0.12050000 0.12050700 14593.28721802 0 3.75806428 0 3722.06047330 0 47.92001813 0 399.90750699 0 15999
0.12150000 0.12150000 14437.04217286 0 244.72357926 0 3909.29599253 0 -111.13597656 0 -165.61637568 0 15670
0.12250000 0.12250700 14644.31977234 0 263.51457509 0 4786.94352030 0 -751.89049959 0 1294.97916746 0 16887
0.12350000 0.12352200 14321.93790937 0 321.70405173 0 4570.84201000 0 -334.50378071 0 787.09846581 0 16407
0.12450000 0.12449800 14238.64468745 0 224.57920908 0 5223.51915404 0 4.96781683 0 1396.34735576 0 16306
0.12550000 0.12549900 14075.43043884 0 177.60565374 0 5260.65826406 0 128.21873069 0 1168.63425325 0 17523
0.12650000 0.12650100 14068.79845491 0 -69.10212518 0 4455.11951072 0 893.44738644 0 815.73402355 0 17154
0.12750000 0.12750600 13878.49423803 0 -45.51654219 0 4470.54168352 0 1326.43050821 0 1195.60057435 0 18007
0.12850000 0.12850300 13761.36665742 0 95.07499757 0 3354.58111960 0 851.14207335 0 709.68972455 0 17496
0.12950000 0.12949900 13531.94497600 0 267.84222562 0 3636.77765620 0 344.53381336 0 1376.93475194 0 18405
0.13050000 0.13049000 13330.28770188 0 515.89078936 0 3550.05603581 0 -107.21377630 0 1062.35052839 0 18100
0.13150000 0.13148800 12933.94235711 0 500.36857477 0 3884.66772677 0 -534.39177640 0 2034.99616769 0 19059
0.13250000 0.13249300 12549.51210211 0 433.00897526 0 4265.60213940 0 -832.60624030 0 1538.27181189 0 18957
0.13350000 0.13349100 12449.13309108 0 211.12527422 0 4940.14234911 0 -422.19097300 0 2196.99642602 0 19468
0.13450000 0.13450700 12119.10758562 0 220.70006052 0 4816.41650652 0 27.04612972 0 1333.48963687 0 19953
0.13550000 0.13551000 12234.43666212 0 64.11757102 0 5282.70118014 0 -185.91361870 0 1360.68077099 0 19956
0.13650000 0.13649900 12204.08690514 0 -31.33185263 0 4892.38082416 0 -95.08949801 0 731.89900227 0 19723
0.13750000 0.13749600 12128.77454525 0 65.04964578 0 4957.55411709 0 10.97973275 0 215.13706247 0 20946
0.13850000 0.13851100 12263.77476053 0 55.62121276 0 5011.61040646 0 -234.89025800 0 153.20220101 0 20955
0.13950000 0.13949800 12015.46878588 0 160.73456106 0 4775.33192809 0 -146.82987611 0 -453.90084871 0 20506
0.14050000 0.14048300 12001.30556596 0 179.88975397 0 4839.90946654 0 -118.57537643 0 -499.08376839 0 21447
0.14150000 0.14148400 11700.39334589 0 248.39814798 0 4365.55400570 0 465.53492222 0 -1092.88463204 0 21771
0.14250000 0.14249400 11599.56470883 0 210.47556461 0 4183.73648012 0 656.88114742 0 -1161.71001240 0 22470
0.14350000 0.14350900 11136.07895724 0 175.93416898 0 3480.49888909 0 1019.46294959 0 -1288.14485182 0 22519
0.14450000 0.14449900 11064.26243972 0 163.50538147 0 2984.99976422 0 713.23839799 0 -1424.58387039 0 22218
0.14550000 0.14550500 10912.31132314 0 91.03229754 0 2664.41640537 0 682.38168767 0 -773.71534705 0 23559
0.14650000 0.14650700 10677.40420416 0 118.12462634 0 2265.50819223 0 342.94101315 0 -600.62169051 0 23044
0.14750000 0.14750500 10776.98512899 0 -15.62315564 0 2372.57539044 0 81.19863906 0 145.92612779 0 23649
0.14850000 0.14849900 10583.17382908 0 35.70997368 0 2327.83760053 0 138.42748969 0 -246.25005963 0 23640
0.14950000 0.14949500 10746.41055900 0 64.58754263 0 2443.21163963 0 0.26827274 0 -38.06871183 0 24457
0.15050000 0.15050000 10544.47226862 0 102.32960115 0 2295.99283701 0 -245.92857702 0 -388.72643171 0 24591
0.15150000 0.15149900 10583.67965837 0 131.88093470 0 2588.15983081 0 -229.95336420 0 -78.53438002 0 25020
0.15250000 0.15250500 10480.14202448 0 74.36623433 0 2498.47067863 0 -387.68217526 0 -1047.83660017 0 25297
0.15350000 0.15350100 10467.63118022 0 140.31816714 0 2504.22589180 0 -284.18163552 0 -1200.96236475 0 25452
0.15450000 0.15450400 10269.17749157 0 114.34551956 0 2755.09473482 0 -230.77393170 0 -1207.98777146 0 26061
0.15550000 0.15549900 10290.30991494 0 172.83287344 0 2896.49088036 0 -110.05428874 0 -1421.90859552 0 26128
0.15650000 0.15649500 10190.58286165 0 145.08532712 0 3142.45879966 0 33.62022430 0 -933.21793279 0 26331
0.15750000 0.15749700 10064.22670679 0 241.08835281 0 3106.15149780 0 226.74078622 0 -672.00544298 0 27345
0.15850000 0.15849900 9932.54248347 0 165.88165503 0 3044.62017569 0 400.18739919 0 -68.88911485 0 26980
0.15950000 0.15949700 9793.67548434 0 274.42924695 0 3298.84997328 0 400.94839125 0 -138.39376773 0 27777
0.16050000 0.16050000 9677.45839644 0 188.93060936 0 2967.05968565 0 262.62656368 0 720.02662696 0 28224
0.16150000 0.16150500 9389.78766293 0 156.58563688 0 2877.78643755 0 195.55472483 0 474.19921580 0 28075
0.16250000 0.16249700 9418.92342962 0 138.93669117 0 2797.94409540 0 102.88106747 0 815.53506403 0 28590
0.16350000 0.16349900 9191.76111900 0 61.99398729 0 2897.79479585 0 174.39419983 0 646.74545265 0 29163
0.16450000 0.16449100 9210.31943336 0 57.12037835 0 2525.63933144 0 -16.20643300 0 642.15701903 0 28996
0.16550000 0.16550500 9101.66730339 0 30.42945319 0 2541.42120507 0 182.24242217 0 84.02465106 0 30777
0.16650000 0.16650700 9115.08864036 0 65.80614157 0 2361.72816249 0 -32.12341925 0 -123.67076341 0 29211
0.16750000 0.16749900 9009.58389260 0 91.50002102 0 2379.79188821 0 44.01939992 0 -339.30466264 0 30922
0.16850000 0.16850800 8879.23730673 0 132.81503278 0 2332.65983970 0 -21.64814443 0 -255.87992511 0 30867
0.16950000 0.16949900 8843.35714959 0 116.26991897 0 2472.51601609 0 -73.87029682 0 -308.67051720 0 30852
0.17050000 0.17049200 8832.35255253 0 78.04417524 0 2466.83948747 0 164.73510866 0 -165.71416934 0 31257
0.17150000 0.17149500 8772.63097519 0 -18.63744854 0 2546.87292068 0 309.31235836 0 -94.96349032 0 32608
0.17250000 0.17250900 8737.32409125 0 38.65581102 0 2545.82754016 0 170.49032183 0 324.85143393 0 32361
0.17350000 0.17350400 8756.91654547 0 97.97171327 0 2544.50114337 0 350.57903532 0 186.66899043 0 32508
0.17450000 0.17449800 8581.05656478 0 218.17428630 0 2337.84177968 0 241.47053494 0 437.81098126 0 32791
0.17550000 0.17549800 8369.68736844 0 292.12090713 0 2181.69790038 0 260.04233808 0 414.13592269 0 33633
0.17650000 0.17650100 8098.04580287 0 247.30668080 0 2168.14167560 0 195.41309263 0 470.40662025 0 33984
0.17750000 0.17750300 7965.23751449 0 153.79233517 0 1972.21713336 0 77.84544054 0 265.48393709 0 34069
