### header ###
fiducial parameters:
Omega_m = 0.31
Omega_nu = 0
Omega_de = 0.69
Omega_k = 0
H_0 = 100
w_de = -1
zeff = 0
beta = 0
fgrowth = 0
b_1 = 2
gamma = 0.55
Lx = 3500 Ly = 3500 Lz = 3500
nx = 700 ny = 700 nz = 700
xoffset = 857.220397 yoffset = 15.9954215 zoffset = 262.898189
bins = 400 dk = 0.001
kx_ny = 0.628318531 ky_ny = 0.628318531 kz_ny = 0.628318531
############################
A(data) = 3.10828516 (not used)
A(ran) = 3.11241744 (used)
Ngal = 189860
weighted Ngal = 0
Nran = 9360983
weighted Nran = 0
SN(data) = 3434.44635
SN(ran) = 69.8931987
SN(data+ran) = 3504.33955
############################
13 columns: k_central k_mean P_0(k) sigma^{lin}_{P_0(k)} P^img_1(k) sigma^{lin}_{P_1(k)} P_2(k) sigma^{lin}_{P_2(k)} P^img_3(k) sigma^{lin}_{P_3(k)} P_4(k) sigma^{lin}_{P_4(k)} N_modes
### header ###
0.00050000 0 0 0 0 0 0 0 0 0 0 0 0
0.00150000 0.00179520 5708.64315829 0 -5090.71086565 0 3134.79267586 0 14169.73949847 0 -10623.85374408 0 3
0.00250000 0.00253879 10460.96547434 0 -4101.18514115 0 2481.82327490 0 2050.19352748 0 11906.32206728 0 6
0.00350000 0.00331552 11553.70285385 0 -121.77334156 0 12429.46195230 0 -5591.80783459 0 -4590.67051789 0 7
0.00450000 0.00420575 14062.61609701 0 -1212.97862038 0 7387.60295472 0 7501.63935639 0 -2654.45718882 0 24
0.00550000 0.00557378 19585.03539464 0 -4763.24822856 0 12523.09657289 0 10813.92190729 0 277.48895208 0 45
0.00650000 0.00659388 34305.00474639 0 -9392.69899147 0 3843.26841013 0 -4085.53815534 0 -27532.51268097 0 40
0.00750000 0.00754703 35496.28891086 0 -3594.92871353 0 18337.54797651 0 -5296.97680657 0 -1233.17806974 0 57
0.00850000 0.00846663 47137.10680787 0 -2429.16082622 0 18027.30601633 0 -17400.97695760 0 -14022.26216088 0 75
0.00950000 0.00948925 46316.65171102 0 -870.21408545 0 24334.88476752 0 -15615.96162152 0 6050.85352914 0 112
0.01050000 0.01054430 49546.65269857 0 2423.18080003 0 34693.93126168 0 -7449.41529309 0 -29550.20948718 0 105
0.01150000 0.01145670 53651.51353251 0 -1169.67963377 0 34631.77046314 0 -11860.23539928 0 -25454.90320636 0 144
0.01250000 0.01249090 57050.34909404 0 -2986.11258864 0 44817.71093604 0 -7097.31314960 0 -41310.85272099 0 169
0.01350000 0.01339930 63742.58291325 0 -4993.76025310 0 52833.64378533 0 -16067.38615488 0 -20929.52962857 0 180
0.01450000 0.01448870 70650.30000696 0 -7276.11818077 0 52796.66204442 0 -13578.48127002 0 -33435.76522536 0 267
0.01550000 0.01550050 82048.20744168 0 -1266.66396827 0 68280.43361335 0 -10244.29069085 0 -52769.23485664 0 238
0.01650000 0.01653350 88782.14407509 0 -5747.10866509 0 65802.20734669 0 -3455.51092252 0 -17635.34452534 0 315
0.01750000 0.01747870 92683.77394382 0 -2711.86319211 0 79274.12724778 0 11879.34450553 0 -20785.64929921 0 297
0.01850000 0.01844180 99881.61223290 0 -2889.40927040 0 66412.79949439 0 15423.97130704 0 2363.68403571 0 388
0.01950000 0.01947590 97985.76408062 0 -2545.92870601 0 66882.43388193 0 27129.42294575 0 -12665.40321114 0 399
0.02050000 0.02045430 102074.32597100 0 -972.15779506 0 54981.05770097 0 21430.18821213 0 17072.41273674 0 462
0.02150000 0.02154770 98953.58410855 0 2660.33604915 0 34998.66530300 0 27616.81756145 0 5118.47527296 0 571
0.02250000 0.02255340 87747.21736229 0 5609.17463997 0 30606.15621685 0 17649.73255828 0 3470.38230343 0 510
0.02350000 0.02348930 87925.49408289 0 8335.09988614 0 23124.26668379 0 -1871.04003613 0 10638.33170222 0 555
0.02450000 0.02439640 74895.66897504 0 6777.76393061 0 16128.64770136 0 3869.18935072 0 -13286.44916403 0 592
0.02550000 0.02547300 69981.03166244 0 8978.87443481 0 15845.83292897 0 -6302.64410552 0 1917.18290738 0 837
0.02650000 0.02652900 61970.94395153 0 5511.78564204 0 9580.30545217 0 2093.99834337 0 -19612.79980194 0 723
0.02750000 0.02749970 62791.39904839 0 2819.86336433 0 15950.37098077 0 -1829.04496499 0 -5899.56561095 0 826
0.02850000 0.02848090 59518.68358806 0 1361.01799051 0 9852.20555270 0 6579.49009237 0 -19199.48107456 0 831
0.02950000 0.02946900 58771.40512747 0 1608.26734399 0 15475.00386136 0 -868.03789546 0 -6696.52774778 0 996
0.03050000 0.03053250 56847.34294184 0 3066.34835356 0 18710.84998729 0 1889.04755860 0 -5324.89858298 0 1041
0.03150000 0.03150510 56384.56535125 0 3240.07261061 0 22347.98734431 0 3076.22888555 0 983.45127684 0 1036
0.03250000 0.03246190 55024.33420629 0 2059.17480741 0 27044.78084575 0 2151.93265724 0 11580.79282211 0 1059
0.03350000 0.03345080 53575.41432706 0 507.57495595 0 28743.13076470 0 5213.96460092 0 14090.94253685 0 1302
0.03450000 0.03451200 54010.53991686 0 -385.25307063 0 35029.68949902 0 5419.83711906 0 25678.59215591 0 1339
0.03550000 0.03553350 54417.11425380 0 -68.36428887 0 28673.88835619 0 4399.71434327 0 20679.20033679 0 1365
0.03650000 0.03647120 56669.62825378 0 1116.99920005 0 37108.87266473 0 1980.42280839 0 28541.02386455 0 1308
0.03750000 0.03744890 54388.78781396 0 2813.84961619 0 34962.02078162 0 808.07801634 0 23717.43582287 0 1579
0.03850000 0.03847530 51789.27492591 0 3732.41311262 0 32396.79187830 0 -2021.73219983 0 17103.66174577 0 1662
0.03950000 0.03950240 50014.48858199 0 3046.16014484 0 35914.89074408 0 -675.97226862 0 20742.26038739 0 1683
0.04050000 0.04050350 46902.06480109 0 2324.03826058 0 27533.97396556 0 2035.87293844 0 2301.64688433 0 1822
0.04150000 0.04152450 47291.44094241 0 766.45950700 0 36924.30117973 0 7374.78861289 0 14811.01862268 0 1887
0.04250000 0.04250150 44436.76528277 0 885.42943028 0 20060.06529453 0 6186.23592655 0 -4453.23108140 0 1920
0.04350000 0.04349210 44408.32643642 0 845.82636962 0 27137.17899476 0 6649.93525050 0 7745.15681383 0 2005
0.04450000 0.04448520 42641.29614151 0 130.93447191 0 18741.98658981 0 7091.51297382 0 -215.42145093 0 2151
0.04550000 0.04548030 41865.91605408 0 -111.32695521 0 15813.34744836 0 5463.16982763 0 2104.32850140 0 2274
0.04650000 0.04648670 42370.84608492 0 28.35690201 0 14138.94011547 0 1178.24500962 0 1274.62234899 0 2311
0.04750000 0.04749250 41173.04234303 0 2173.66083511 0 14883.40841338 0 -3302.76171973 0 -100.65170921 0 2568
0.04850000 0.04851840 40293.46142333 0 1790.80427121 0 14639.37388601 0 -4296.41276305 0 4793.60922618 0 2493
0.04950000 0.04949480 39513.58507561 0 1698.43984415 0 19985.31496717 0 -1324.06997156 0 3077.94870511 0 2644
0.05050000 0.05050630 39486.49510735 0 1072.85716463 0 20409.42471925 0 198.64140752 0 4366.03735368 0 2829
0.05150000 0.05149060 38206.40980210 0 205.24304170 0 21796.07139342 0 1701.08139707 0 -991.50745122 0 2784
0.05250000 0.05249300 38316.11855324 0 810.55433169 0 22175.78057511 0 2987.72000169 0 1477.22383777 0 3055
0.05350000 0.05348950 36983.87662860 0 1176.82868763 0 19434.63548785 0 1812.61113363 0 -1127.94309760 0 3009
0.05450000 0.05448610 36134.64546587 0 404.32171053 0 19564.57741030 0 2626.79394737 0 2013.15558332 0 3336
0.05550000 0.05550870 35839.69079069 0 311.89096364 0 14598.68273037 0 1858.87765203 0 -2409.00633946 0 3349
0.05650000 0.05647670 34731.81225465 0 -786.24080416 0 14341.04701561 0 3484.75909572 0 -4301.89820061 0 3324
0.05750000 0.05747970 34850.51352636 0 556.85284469 0 10811.78618365 0 740.93985765 0 -5351.62885042 0 3639
0.05850000 0.05849280 33982.28566390 0 717.06246737 0 10022.58009583 0 1241.97949927 0 -5102.36742046 0 3846
0.05950000 0.05951020 33245.68582150 0 1371.75281196 0 7991.01232661 0 708.95795819 0 -3097.29386502 0 3787
0.06050000 0.06049470 32489.63965333 0 448.09730074 0 7980.47983688 0 3159.51086682 0 -2918.64620295 0 3930
0.06150000 0.06148310 32307.31629848 0 8.80096866 0 5247.90012548 0 2527.83125834 0 -2221.32119420 0 4083
0.06250000 0.06249100 32007.75295650 0 -782.06827461 0 3827.26172349 0 2898.52543814 0 -2576.71684837 0 4303
0.06350000 0.06350600 33624.38334463 0 -850.67783448 0 4829.81536219 0 530.59805678 0 -930.74611370 0 4470
0.06450000 0.06451750 33319.64930331 0 -143.09460787 0 3627.41419414 0 -1608.50339765 0 -2707.15335945 0 4479
0.06550000 0.06550280 34071.08680468 0 609.42424410 0 6202.31005709 0 -3523.50561879 0 23.78577898 0 4636
0.06650000 0.06648880 32553.14932996 0 701.22326642 0 7678.03888831 0 -4192.65031615 0 -1081.54056732 0 4653
0.06750000 0.06749660 33488.48387729 0 1043.79671029 0 11376.32538531 0 -1493.02819269 0 -301.48212106 0 5220
0.06850000 0.06852730 32547.30419158 0 592.65206914 0 11726.80887511 0 -1081.22920129 0 -236.93942863 0 5029
0.06950000 0.06949320 32019.33082675 0 1116.73167256 0 11456.69603804 0 1448.12179302 0 -1668.09008718 0 5040
0.07050000 0.07048030 30959.67468234 0 1227.88372325 0 11140.28296061 0 1957.60428741 0 785.18755519 0 5475
0.07150000 0.07148790 29210.74183510 0 1710.24252742 0 9369.66689812 0 2192.94979176 0 -1474.52608159 0 5509
0.07250000 0.07249820 27746.08504486 0 1581.25606028 0 8397.86767982 0 2147.34647174 0 1120.31294389 0 5916
0.07350000 0.07351270 26105.73688368 0 1279.33218165 0 6553.35557942 0 1483.38371437 0 -225.21430585 0 5721
0.07450000 0.07449140 25066.31391059 0 719.71076468 0 6147.69173519 0 1568.19442413 0 1309.51332886 0 6028
0.07550000 0.07549160 24846.10956277 0 212.61241232 0 5738.95919331 0 440.09845368 0 1688.80660647 0 6183
0.07650000 0.07648840 24771.58404842 0 -9.43593053 0 6603.85982316 0 109.45549927 0 2836.96039409 0 6330
0.07750000 0.07749960 24893.09548282 0 -97.11450124 0 6330.40851282 0 762.27686087 0 2711.68334169 0 6583
0.07850000 0.07848650 25062.60449585 0 -573.74754274 0 6744.35671664 0 811.13884553 0 3936.00377866 0 6549
0.07950000 0.07947320 25001.00572984 0 -185.27514974 0 6151.97442312 0 1524.91791882 0 4004.31321315 0 6828
0.08050000 0.08048110 25563.26307941 0 -112.97303611 0 4770.86938975 0 1101.39380464 0 1977.05061317 0 7147
0.08150000 0.08149960 25308.21271432 0 177.62925911 0 5205.87133239 0 235.64787786 0 3680.49254690 0 7386
0.08250000 0.08250610 25182.99186518 0 825.17279797 0 5761.41801347 0 -1152.63880726 0 3059.00820863 0 7227
0.08350000 0.08350160 24474.49364960 0 764.87794745 0 6003.82264648 0 -605.86882627 0 3193.54755723 0 7798
0.08450000 0.08449610 23686.86125288 0 1008.76409823 0 6123.22083855 0 -364.87152273 0 3442.78650589 0 7371
0.08550000 0.08548940 23295.23698141 0 867.61187480 0 7449.52769960 0 -128.13442581 0 2298.69059319 0 8256
0.08650000 0.08650700 22597.41738403 0 354.29969072 0 7140.52221101 0 657.16328775 0 3192.87311819 0 8037
0.08750000 0.08749060 22633.05024685 0 236.30545593 0 7767.01987950 0 289.85366788 0 1426.73083468 0 8155
0.08850000 0.08849210 22370.01901975 0 15.81053729 0 6685.75920438 0 101.96821423 0 1802.92169270 0 8718
0.08950000 0.08949900 22444.20731457 0 239.96203961 0 6728.39499260 0 78.11634022 0 -522.32381378 0 8571
0.09050000 0.09049190 21767.40773406 0 659.80596474 0 5927.09396460 0 -702.14387572 0 -1381.35232768 0 8932
0.09150000 0.09150830 21264.05139432 0 713.15971343 0 6174.64681564 0 -551.68102129 0 -1428.04599082 0 9285
0.09250000 0.09250820 20507.21838061 0 606.61857767 0 5279.45263208 0 -47.73050076 0 -3022.70090677 0 9204
0.09350000 0.09350330 20250.14469839 0 494.71565152 0 5673.23510849 0 335.35469797 0 -1729.95862880 0 9349
0.09450000 0.09448040 19523.32422212 0 630.50158828 0 5661.19637155 0 297.07241378 0 -3242.83781069 0 9564
0.09550000 0.09549270 18911.94522886 0 525.99838250 0 6287.05332295 0 187.06353727 0 -1596.36349486 0 10155
0.09650000 0.09649430 18659.59261995 0 399.89626634 0 6213.10108179 0 171.03324526 0 -1755.75592223 0 9913
0.09750000 0.09749140 18485.36253362 0 104.19903377 0 5802.81733011 0 437.92226370 0 -529.95171936 0 10476
0.09850000 0.09850240 18438.93864610 0 -136.49971809 0 6461.81171987 0 316.69634183 0 -465.38429750 0 10575
0.09950000 0.09950330 18602.49011424 0 232.47239403 0 6905.45772292 0 68.25042108 0 -29.40172049 0 10882
0.10050000 0.10051200 18301.80270719 0 426.25784043 0 6633.79367605 0 433.18657755 0 414.87892970 0 10875
0.10150000 0.10150300 17884.99937808 0 473.63381107 0 6154.43612563 0 13.87197466 0 225.37954342 0 11118
0.10250000 0.10250800 17778.32560264 0 225.75160896 0 6802.07745815 0 439.22055886 0 1375.40602344 0 11575
0.10350000 0.10349800 17732.12652814 0 188.77324025 0 5993.91963319 0 445.46698847 0 -134.17852371 0 11364
0.10450000 0.10450100 17613.31284991 0 167.93644599 0 6567.26026438 0 314.81690502 0 439.48134195 0 12093
0.10550000 0.10551000 17304.98180036 0 409.67675654 0 5791.08209075 0 -184.18817881 0 -260.77073224 0 12067
0.10650000 0.10649700 17193.36213860 0 383.56472489 0 6573.35269707 0 -11.53987685 0 945.16224826 0 12054
0.10750000 0.10749900 16620.20135783 0 356.10269109 0 5929.21844758 0 89.84550963 0 -439.17109999 0 12807
0.10850000 0.10850100 16258.47721731 0 326.58586634 0 6405.02395238 0 572.56053002 0 607.89214340 0 12736
0.10950000 0.10950300 16247.01175356 0 286.25328745 0 5999.37134880 0 766.43814977 0 581.54967841 0 12933
0.11050000 0.11050200 16013.65584438 0 66.79498162 0 6323.69784434 0 1243.12604564 0 1780.54155709 0 13428
0.11150000 0.11150900 15891.13275142 0 151.67234844 0 5728.94377351 0 294.01720491 0 2406.65704346 0 13453
0.11250000 0.11250000 15871.91123867 0 83.28400458 0 5632.92613497 0 843.27474190 0 1999.74548700 0 13668
0.11350000 0.11349100 15682.61868036 0 358.37442661 0 5628.33994947 0 96.93555008 0 3025.96069548 0 13791
0.11450000 0.11448600 15334.83294674 0 322.67524395 0 5669.19971487 0 82.48468191 0 2661.50507683 0 14205
0.11550000 0.11549300 14936.80150436 0 296.22374465 0 5223.80017031 0 318.58252302 0 2423.69786997 0 14776
0.11650000 0.11649800 14998.73748988 0 134.87881625 0 5272.66327904 0 -75.82605764 0 2426.21577573 0 14553
0.11750000 0.11747300 14792.69636198 0 38.15908666 0 5068.79159673 0 95.31105124 0 1266.82133738 0 14568
0.11850000 0.11849100 14910.83560117 0 -54.50805112 0 5183.88461956 0 -134.86982373 0 1716.16635035 0 16015
0.11950000 0.11950300 14764.25751563 0 -9.00542485 0 5268.75153258 0 -43.12396968 0 692.09473396 0 15270
0.12050000 0.12050700 14758.52478376 0 214.37494635 0 5197.78930452 0 -23.93123300 0 927.70102141 0 15999
0.12150000 0.12150000 14582.04656729 0 458.80177243 0 5270.66244321 0 -175.12709026 0 -155.14233732 0 15670
0.12250000 0.12250700 13957.06638664 0 530.22374311 0 5147.47615185 0 69.09122175 0 517.67243250 0 16887
0.12350000 0.12352200 13740.57145356 0 537.62683568 0 5171.53114441 0 69.49521074 0 -193.54602055 0 16407
0.12450000 0.12449800 13196.74877120 0 326.39589934 0 4671.13109582 0 367.94584070 0 117.27033688 0 16306
0.12550000 0.12549900 12965.19136614 0 202.93421204 0 4500.29568601 0 328.99698592 0 -791.94655847 0 17523
0.12650000 0.12650100 13040.27891302 0 4.89015518 0 4409.48246875 0 31.22776420 0 -231.40453221 0 17154
0.12750000 0.12750600 13014.08819682 0 -91.81970512 0 4573.03393689 0 283.43525631 0 -388.70282634 0 18007
0.12850000 0.12850300 13216.41990998 0 -94.48654951 0 4239.73740206 0 125.03762654 0 -165.78835763 0 17496
0.12950000 0.12949900 13272.28594411 0 -27.33377798 0 4391.90209101 0 5.54455214 0 3.15543051 0 18405
0.13050000 0.13049000 13284.65065991 0 91.65514200 0 4390.60941618 0 406.79914995 0 -237.57340133 0 18100
0.13150000 0.13148800 13165.94938820 0 297.46920875 0 4551.36196228 0 -111.92304692 0 126.08075892 0 19059
0.13250000 0.13249300 12837.38516733 0 158.82927076 0 4121.75553199 0 526.60987390 0 -538.50023424 0 18957
0.13350000 0.13349100 12580.31148511 0 217.83032239 0 3842.26799222 0 438.30107363 0 -37.78466059 0 19468
0.13450000 0.13450700 12421.36868377 0 73.41819784 0 3381.96334478 0 547.30503596 0 -683.73393795 0 19953
0.13550000 0.13551000 12340.66081153 0 -33.51310090 0 2962.90064488 0 376.65172469 0 -386.42659457 0 19956
0.13650000 0.13649900 12328.97053477 0 24.14233242 0 2870.53621782 0 233.32780755 0 -746.24319666 0 19723
0.13750000 0.13749600 12439.46613145 0 6.15054686 0 2749.22711514 0 35.73189295 0 -553.99659534 0 20946
0.13850000 0.13851100 12308.84976996 0 114.96825161 0 2965.45227260 0 -183.23497163 0 13.81622103 0 20955
0.13950000 0.13949800 12378.09217846 0 262.90195962 0 3906.59823635 0 -430.99015439 0 239.90471229 0 20506
0.14050000 0.14048300 12183.40410780 0 228.27625911 0 3645.25310685 0 -148.84532478 0 205.01148429 0 21447
0.14150000 0.14148400 11996.80930566 0 339.54970883 0 4368.47657489 0 -36.80987136 0 624.03709005 0 21771
0.14250000 0.14249400 11822.35440632 0 321.92661661 0 3732.78405410 0 114.22074834 0 539.15781231 0 22470
0.14350000 0.14350900 11529.87267430 0 312.42939081 0 4009.68624420 0 213.62631901 0 102.61196630 0 22519
0.14450000 0.14449900 11337.54514029 0 246.88740453 0 3554.23755789 0 303.42450551 0 53.14152521 0 22218
0.14550000 0.14550500 11075.15463028 0 192.25671791 0 3328.40164405 0 274.04369263 0 -263.82144485 0 23559
0.14650000 0.14650700 10899.10355853 0 154.28130348 0 2962.27116844 0 250.46755178 0 -413.29512201 0 23044
0.14750000 0.14750500 10734.11328710 0 106.00686763 0 2886.22816624 0 173.53766225 0 -220.91925321 0 23649
0.14850000 0.14849900 10715.09410606 0 173.49719590 0 2737.31202536 0 366.91057677 0 -164.54851386 0 23640
0.14950000 0.14949500 10516.58421415 0 236.08064291 0 3146.83141279 0 -10.15477015 0 371.99135090 0 24457
0.15050000 0.15050000 10406.89794432 0 225.65718749 0 3001.06265411 0 22.85010721 0 816.63439967 0 24591
0.15150000 0.15149900 10257.98180344 0 166.09747553 0 3575.12268694 0 160.68173000 0 1309.74938252 0 25020
0.15250000 0.15250500 10322.42445408 0 -70.29768079 0 3184.21781712 0 206.28954628 0 1310.64863458 0 25297
0.15350000 0.15350100 10391.88043494 0 -81.26585815 0 3883.21768283 0 87.23127149 0 1300.49832697 0 25452
0.15450000 0.15450400 10509.58128875 0 -1.88960959 0 3657.68526656 0 -89.38250723 0 1522.28760655 0 26061
0.15550000 0.15549900 10382.67434200 0 148.42604851 0 3657.70774786 0 -34.96752870 0 1191.44153358 0 26128
0.15650000 0.15649500 10324.27916145 0 205.23067698 0 3770.50767795 0 -341.10878708 0 1314.18943956 0 26331
0.15750000 0.15749700 10142.28178546 0 292.03547819 0 3819.73048750 0 103.39307911 0 793.57757689 0 27345
0.15850000 0.15849900 9867.08817427 0 201.91805721 0 3576.59521219 0 161.03356237 0 1206.49276491 0 26980
0.15950000 0.15949700 9744.29530568 0 110.69287011 0 3407.37845609 0 312.77223065 0 596.49412356 0 27777
0.16050000 0.16050000 9701.63703616 0 -47.44746117 0 3170.90888666 0 451.84718182 0 476.58223376 0 28224
0.16150000 0.16150500 9646.20938740 0 -14.31924015 0 2825.60733685 0 336.01789637 0 -19.55457323 0 28075
0.16250000 0.16249700 9548.16843173 0 32.95567703 0 2410.20908909 0 384.82817404 0 -399.10492453 0 28590
0.16350000 0.16349900 9447.81190200 0 125.26805988 0 2141.09666994 0 218.83074030 0 -213.63418747 0 29163
0.16450000 0.16449100 9291.39824708 0 181.27010588 0 1895.64582058 0 168.59402405 0 -584.36321329 0 28996
0.16550000 0.16550500 9200.04547859 0 164.29897141 0 2035.90666040 0 125.65586233 0 -202.25190454 0 30777
0.16650000 0.16650700 9064.21345516 0 259.48030554 0 2004.45531965 0 -79.35955619 0 -350.26766930 0 29211
0.16750000 0.16749900 8869.49166254 0 256.52851066 0 2163.72409986 0 -169.04477415 0 96.83505867 0 30922
0.16850000 0.16850800 8809.50030959 0 236.57410748 0 2742.96607268 0 -344.60125726 0 490.24861692 0 30867
0.16950000 0.16949900 8550.84169562 0 204.92155909 0 3209.92518534 0 -388.21835430 0 582.58606641 0 30852
0.17050000 0.17049200 8536.06023991 0 194.39806187 0 3541.55810386 0 -215.34951077 0 558.15676018 0 31257
0.17150000 0.17149500 8405.87102314 0 161.13023197 0 3722.91476275 0 -109.64760199 0 708.50833216 0 32608
0.17250000 0.17250900 8221.26581619 0 173.46347395 0 3682.42593882 0 192.61529467 0 755.81573483 0 32361
0.17350000 0.17350400 8153.60833944 0 102.93772035 0 3788.42527522 0 358.14848953 0 871.22349588 0 32508
0.17450000 0.17449800 8063.18854496 0 24.36647100 0 3184.39766753 0 433.15510372 0 541.76564328 0 32791
0.17550000 0.17549800 8019.86707704 0 64.05810798 0 3184.62248055 0 341.13801277 0 590.62313168 0 33633
0.17650000 0.17650100 8047.90125996 0 85.63015320 0 2787.51277152 0 185.66744845 0 915.36665537 0 33984
0.17750000 0.17750300 7868.14077347 0 2.51841159 0 2711.91939536 0 217.28290270 0 649.22851240 0 34069
0.17850000 0.17849800 8027.70181060 0 5.66256773 0 2544.02903604 0 192.62765938 0 992.90691224 0 34536
