### header ###
fiducial parameters:
Omega_m = 0.31
Omega_nu = 0
Omega_de = 0.69
Omega_k = 0
H_0 = 100
w_de = -1
zeff = 0
beta = 0
fgrowth = 0
b_1 = 2
gamma = 0.55
Lx = 3500 Ly = 3500 Lz = 3500
nx = 700 ny = 700 nz = 700
xoffset = 857.220397 yoffset = 15.9954215 zoffset = 262.898189
bins = 400 dk = 0.001
kx_ny = 0.628318531 ky_ny = 0.628318531 kz_ny = 0.628318531
############################
A(data) = 3.08686706 (not used)
A(ran) = 3.08665568 (used)
Ngal = 188527
weighted Ngal = 0
Nran = 9360983
weighted Nran = 0
SN(data) = 3439.47024
SN(ran) = 69.3146863
SN(data+ran) = 3508.78493
############################
13 columns: k_central k_mean P_0(k) sigma^{lin}_{P_0(k)} P^img_1(k) sigma^{lin}_{P_1(k)} P_2(k) sigma^{lin}_{P_2(k)} P^img_3(k) sigma^{lin}_{P_3(k)} P_4(k) sigma^{lin}_{P_4(k)} N_modes
### header ###
0.00050000 0 0 0 0 0 0 0 0 0 0 0 0
0.00150000 0.00179520 4119.19266363 0 -12198.35417327 0 -9254.68628179 0 13564.76767613 0 19458.80288693 0 3
0.00250000 0.00253879 10013.64377850 0 -14400.73487099 0 -9804.94985703 0 -9508.21915903 0 -20474.62049349 0 6
0.00350000 0.00331552 25805.04947663 0 -19187.56598479 0 -13308.93046549 0 -175.22488392 0 12050.76442917 0 7
0.00450000 0.00420575 41061.64749428 0 -19346.62119263 0 -17783.72111499 0 -9578.70927976 0 -17255.74775016 0 24
0.00550000 0.00557378 69178.22438723 0 -14241.11763061 0 -12787.36427158 0 -25174.33656411 0 6397.69504810 0 45
0.00650000 0.00659388 75883.16014176 0 -5097.21920243 0 6155.04312077 0 -49824.52158464 0 -54031.44752722 0 40
0.00750000 0.00754703 96699.49641747 0 -3572.12143320 0 26021.31959669 0 -26898.09035371 0 22860.67342415 0 57
0.00850000 0.00846663 95628.82443534 0 2235.19215721 0 50682.85767446 0 -28906.23260680 0 -47643.49812331 0 75
0.00950000 0.00948925 99045.75744455 0 15243.78367582 0 73825.33421244 0 -18366.09922937 0 4352.29003783 0 112
0.01050000 0.01054430 90595.14863150 0 12536.13572774 0 80958.76357283 0 10105.52485757 0 -37942.14210342 0 105
0.01150000 0.01145670 86457.68991043 0 9966.91639341 0 89848.76942296 0 18956.45820576 0 -19888.42055786 0 144
0.01250000 0.01249090 81762.80731962 0 4262.84817997 0 73199.79199926 0 39256.84861291 0 -35698.05859148 0 169
0.01350000 0.01339930 71760.98870569 0 289.14887908 0 69569.51143918 0 36672.06097732 0 -18050.34935033 0 180
0.01450000 0.01448870 74327.00445456 0 3422.10370854 0 33038.29581551 0 31022.39751342 0 -22301.33864378 0 267
0.01550000 0.01550050 68283.58099555 0 3355.13191149 0 25259.87791618 0 21047.66886775 0 -36514.80427360 0 238
0.01650000 0.01653350 63851.95444486 0 -2040.13314507 0 1585.34765715 0 10146.93541487 0 -18497.61484292 0 315
0.01750000 0.01747870 62457.10209565 0 -4509.34440985 0 -1538.55282815 0 6532.51541297 0 -29757.03746063 0 297
0.01850000 0.01844180 69074.58558749 0 -9874.41707854 0 -14055.08486102 0 -9314.64391279 0 -25167.03014114 0 388
0.01950000 0.01947590 75049.77829656 0 -6448.18805118 0 -7724.24920347 0 -14828.77885083 0 -48755.76051314 0 399
0.02050000 0.02045430 81151.09110684 0 -3005.16549163 0 -11852.47935028 0 -14918.47924366 0 -32667.91637393 0 462
0.02150000 0.02154770 78899.58876542 0 -1118.98317490 0 -7223.89411748 0 -13156.61964809 0 -38042.40870794 0 571
0.02250000 0.02255340 81503.37310075 0 4306.85532758 0 -3799.54227879 0 -5100.59139765 0 -37398.43182756 0 510
0.02350000 0.02348930 75114.18722525 0 3874.62982567 0 -7009.51242674 0 362.54021177 0 -35608.24579214 0 555
0.02450000 0.02439640 71452.54524963 0 3782.64758074 0 -1362.05213038 0 -1956.95232966 0 -36453.99235314 0 592
0.02550000 0.02547300 67360.83597704 0 2255.12183095 0 -6214.19142492 0 261.83409780 0 -15875.05862087 0 837
0.02650000 0.02652900 67533.49237227 0 1269.40668705 0 4395.07195452 0 -3797.73253402 0 -12783.09282430 0 723
0.02750000 0.02749970 66447.98273118 0 2501.20215676 0 4084.86371629 0 -10815.92274312 0 4785.23494139 0 826
0.02850000 0.02848090 69855.24878076 0 1379.63250812 0 20070.51909971 0 -7754.44159133 0 5571.78823564 0 831
0.02950000 0.02946900 68662.16611217 0 2673.68994222 0 27381.88796117 0 -1925.78200519 0 17089.16130633 0 996
0.03050000 0.03053250 65712.73176687 0 1012.95910908 0 27799.92776186 0 6701.60852191 0 10205.00461654 0 1041
0.03150000 0.03150510 67440.75700374 0 -839.81824180 0 25319.11614553 0 8450.74370086 0 9478.53260045 0 1036
0.03250000 0.03246190 64194.79429215 0 1578.38969434 0 28783.48470082 0 11367.22045822 0 9249.24580684 0 1059
0.03350000 0.03345080 64863.38819763 0 2095.53831253 0 18826.17906379 0 7847.78395500 0 5328.50683187 0 1302
0.03450000 0.03451200 59267.67985724 0 2753.04893638 0 18608.11043960 0 3272.82786684 0 6047.23403961 0 1339
0.03550000 0.03553350 56710.88144197 0 5037.47514379 0 16785.43892357 0 -2722.00225906 0 -183.41482204 0 1365
0.03650000 0.03647120 55600.86718228 0 4132.15313392 0 23538.14744371 0 -1486.47489332 0 7054.47502966 0 1308
0.03750000 0.03744890 50141.28312224 0 2322.99288007 0 20030.27757009 0 -3400.76895346 0 -1747.65141305 0 1579
0.03850000 0.03847530 49720.20834586 0 1915.47432847 0 23086.38569083 0 -2244.09475259 0 5737.47542741 0 1662
0.03950000 0.03950240 48838.60410902 0 481.72483147 0 21074.08439697 0 1089.80244561 0 502.89884525 0 1683
0.04050000 0.04050350 49099.27479948 0 1421.03182476 0 20006.22257753 0 3220.32278727 0 2643.98090234 0 1822
0.04150000 0.04152450 47540.98338864 0 598.38367695 0 16516.78737110 0 4318.96150842 0 3483.36525503 0 1887
0.04250000 0.04250150 47124.62968556 0 961.82876110 0 13714.83036339 0 4113.20139679 0 -2473.21293644 0 1920
0.04350000 0.04349210 44177.10625088 0 1244.09274160 0 12961.48195140 0 278.93112756 0 -2825.60733685 0 2005
0.04450000 0.04448520 44022.88452285 0 755.32564245 0 13188.88031569 0 633.83668935 0 -4731.25733658 0 2151
0.04550000 0.04548030 41968.20597574 0 983.89753068 0 10151.08321499 0 -78.84102498 0 -1365.50301015 0 2274
0.04650000 0.04648670 42076.34103577 0 1221.71260600 0 10454.20984325 0 -1668.49475060 0 -4136.45830315 0 2311
0.04750000 0.04749250 39957.92799901 0 1714.23295843 0 11132.08852623 0 256.77805310 0 -3169.68365573 0 2568
0.04850000 0.04851840 38005.08974751 0 2422.77613661 0 11431.74179342 0 -4.16140131 0 -2407.76986788 0 2493
0.04950000 0.04949480 37559.73516555 0 1839.18403195 0 13601.63701053 0 -1324.73316995 0 -2773.13597924 0 2644
0.05050000 0.05050630 36087.65954582 0 976.36517062 0 13493.05232447 0 -785.96653228 0 1556.99873600 0 2829
0.05150000 0.05149060 37643.02838747 0 49.04003657 0 18799.76353457 0 1852.93134780 0 4528.94810472 0 2784
0.05250000 0.05249300 36381.60256243 0 -46.84057844 0 18227.83922538 0 955.79028353 0 4810.34655512 0 3055
0.05350000 0.05348950 37776.56731815 0 678.53626105 0 21091.84462512 0 2902.18989028 0 7397.64085583 0 3009
0.05450000 0.05448610 36682.06515647 0 1108.67212599 0 18376.66544105 0 2400.17118799 0 9369.35215990 0 3336
0.05550000 0.05550870 36159.26249097 0 889.51203462 0 18392.62716509 0 4911.65854016 0 10663.62316637 0 3349
0.05650000 0.05647670 34558.48142037 0 -88.68367597 0 14256.62972862 0 3796.85576326 0 6971.88996874 0 3324
0.05750000 0.05747970 34890.19302345 0 -406.64627710 0 11596.08010711 0 4611.24090872 0 6130.10011680 0 3639
0.05850000 0.05849280 34896.48778785 0 -880.24861435 0 8435.15291830 0 2772.55146540 0 2586.63110231 0 3846
0.05950000 0.05951020 34857.48272982 0 235.68946827 0 8194.50182680 0 752.28841863 0 4843.67508454 0 3787
0.06050000 0.06049470 34911.21304031 0 -272.12603761 0 4962.75853838 0 -626.74833500 0 824.01388688 0 3930
0.06150000 0.06148310 34996.64198587 0 -56.14401543 0 7705.93818343 0 -1707.20755172 0 375.40850872 0 4083
0.06250000 0.06249100 36205.01193945 0 -57.09969555 0 9428.26441038 0 -4159.79389407 0 -1925.80448649 0 4303
0.06350000 0.06350600 35757.18441433 0 525.37565045 0 11838.76575639 0 -3712.43847627 0 -3592.69182404 0 4470
0.06450000 0.06451750 35164.01527525 0 1093.41743888 0 12549.73691512 0 -3577.40453904 0 -5091.18297298 0 4479
0.06550000 0.06550280 35034.63538534 0 1278.97248082 0 14292.93703048 0 -1307.80474995 0 -4060.30289445 0 4636
0.06650000 0.06648880 33702.28105419 0 1170.79245819 0 13493.83917002 0 1166.48728896 0 -6192.91287308 0 4653
0.06750000 0.06749660 32604.96872983 0 1133.25992540 0 13204.05519417 0 3348.75846252 0 -5366.46650939 0 5220
0.06850000 0.06852730 31379.17576762 0 1263.01075678 0 10751.89599656 0 3631.43834711 0 -3806.25294727 0 5029
0.06950000 0.06949320 30649.76994169 0 1259.06528838 0 8932.87769201 0 2793.52651967 0 -3543.82871531 0 5040
0.07050000 0.07048030 29098.22292129 0 930.88212557 0 8575.15522315 0 1952.72584499 0 442.58151343 0 5475
0.07150000 0.07148790 28852.72710932 0 330.64149312 0 8612.33929577 0 1960.87531677 0 1228.04109236 0 5509
0.07250000 0.07249820 28862.39406895 0 -440.71556541 0 8108.99419669 0 1386.77032133 0 2373.55332705 0 5916
0.07350000 0.07351270 29020.77483775 0 83.92089985 0 8844.78471224 0 1122.88255664 0 2489.45567674 0 5721
0.07450000 0.07449140 29488.72312768 0 251.59274092 0 7772.96618373 0 -0.94704056 0 2542.83752706 0 6028
0.07550000 0.07549160 28476.95215539 0 785.24151031 0 7753.16015715 0 357.17167698 0 2374.56498562 0 6183
0.07650000 0.07648840 27916.83052946 0 1072.70429178 0 6419.15345034 0 -127.70278482 0 466.88380031 0 6330
0.07750000 0.07749960 26357.86467958 0 949.37299602 0 6770.32261983 0 249.58516070 0 -138.14422529 0 6583
0.07850000 0.07848650 25627.89682111 0 957.99345107 0 5885.30122518 0 792.61762532 0 -1292.27017064 0 6549
0.07950000 0.07947320 24616.80028786 0 699.03133953 0 5564.17831509 0 184.80416647 0 -1407.32947152 0 6828
0.08050000 0.08048110 24055.77940987 0 918.60958310 0 5186.16647166 0 412.74095793 0 -2355.39967612 0 7147
0.08150000 0.08149960 23279.94969642 0 760.42440163 0 6221.67769830 0 142.07732898 0 -349.63706879 0 7386
0.08250000 0.08250610 22659.12855655 0 696.61010336 0 6227.35422692 0 322.58082248 0 -245.98927653 0 7227
0.08350000 0.08350160 22569.20335070 0 239.12573520 0 7036.65859825 0 -83.74037500 0 -16.25015914 0 7798
0.08450000 0.08449610 22404.41541098 0 230.36364795 0 6976.82461441 0 -0.20124474 0 1627.24156242 0 7371
0.08550000 0.08548940 22442.85843648 0 285.49341946 0 7975.74752292 0 105.45899831 0 1348.22612998 0 8256
0.08650000 0.08650700 22038.86944921 0 344.87328101 0 8114.77189116 0 720.30089884 0 2979.26703234 0 8037
0.08750000 0.08749060 21894.76430684 0 207.11910630 0 8185.75660053 0 543.65856886 0 2133.59915590 0 8155
0.08850000 0.08849210 21917.02079529 0 423.06099937 0 8547.26716869 0 695.29607129 0 3641.58865472 0 8718
0.08950000 0.08949900 21311.03731438 0 235.36236533 0 8126.45092727 0 351.88182674 0 3363.69728734 0 8571
0.09050000 0.09049190 21126.57823588 0 388.63088618 0 7902.04257608 0 431.00589130 0 4196.15739918 0 8932
0.09150000 0.09150830 20772.94736389 0 414.13929488 0 8520.68302971 0 577.55025488 0 4169.71938866 0 9285
0.09250000 0.09250820 20792.05647013 0 459.15023260 0 7795.89711123 0 896.95109727 0 3671.10660354 0 9204
0.09350000 0.09350330 19975.53560103 0 333.21335401 0 7418.24496862 0 1236.43785846 0 4228.20449441 0 9349
0.09450000 0.09448040 19739.48193568 0 178.90956923 0 7299.28516193 0 641.62870844 0 2543.16350593 0 9564
0.09550000 0.09549270 19904.15746889 0 -89.44421840 0 5869.85657107 0 247.53149381 0 2280.57066421 0 10155
0.09650000 0.09649430 19687.32531629 0 -87.72349959 0 6934.45860181 0 -86.39125766 0 1666.77493104 0 9913
0.09750000 0.09749140 20031.96366770 0 380.73208091 0 7019.94375061 0 -1358.84854492 0 2017.60688101 0 10476
0.09850000 0.09850240 19631.23446914 0 590.87604633 0 7637.38145462 0 -735.35662643 0 975.76042361 0 10575
0.09950000 0.09950330 19534.90209237 0 679.70641279 0 9074.81338879 0 -823.27087986 0 3117.99914367 0 10882
0.10050000 0.10051200 19137.54508903 0 447.87361179 0 9132.23063273 0 163.49526488 0 2596.30930259 0 10875
0.10150000 0.10150300 18785.37550163 0 274.41013784 0 9386.55035552 0 1502.56026451 0 2481.28372366 0 11118
0.10250000 0.10250800 18618.11461876 0 308.21751898 0 8511.97152539 0 1336.32228085 0 1569.61074612 0 11575
0.10350000 0.10349800 18121.39026295 0 296.04501830 0 7779.75553678 0 977.21608788 0 1220.90327915 0 11364
0.10450000 0.10450100 17495.28601724 0 564.39869353 0 6518.10489873 0 787.63239672 0 1196.94945244 0 12093
0.10550000 0.10551000 17124.56935613 0 193.46958412 0 5233.53457384 0 1242.95743588 0 791.54077098 0 12067
0.10650000 0.10649700 16663.36545664 0 -21.03373046 0 4426.84927413 0 887.84841831 0 706.35462348 0 12054
0.10750000 0.10749900 17073.08717578 0 -163.04788698 0 3594.53529076 0 1149.40149985 0 73.70910588 0 12807
0.10850000 0.10850100 16816.68793261 0 -28.20987429 0 3817.15637848 0 -37.43732448 0 -91.08333009 0 12736
0.10950000 0.10950300 16859.17759237 0 504.10721520 0 4161.43502907 0 -738.60629856 0 371.85084277 0 12933
0.11050000 0.11050200 16406.96621346 0 794.28124163 0 5690.33213825 0 -1027.79901617 0 1248.01572871 0 13428
0.11150000 0.11150900 15990.72491689 0 747.64265768 0 6017.58120298 0 -1065.05278083 0 2121.45925311 0 13453
0.11250000 0.11250000 15362.14772802 0 466.45665558 0 6384.62217130 0 103.22435695 0 1593.37348177 0 13668
0.11350000 0.11349100 15206.91434142 0 134.73943218 0 6687.79376216 0 287.38409691 0 2002.98279441 0 13791
0.11450000 0.11448600 15024.25376704 0 76.87717089 0 6116.12798794 0 1307.31016132 0 456.11750504 0 14205
0.11550000 0.11549300 14968.61254592 0 129.95316310 0 5512.34767457 0 687.80080538 0 968.81370146 0 14776
0.11650000 0.11649800 14464.01973461 0 95.05555125 0 4374.97367101 0 464.05677665 0 -85.72277617 0 14553
0.11750000 0.11747300 14602.95417765 0 81.65523429 0 4419.13818773 0 426.94689232 0 -326.83316065 0 14568
0.11850000 0.11849100 14552.70846888 0 -42.91860300 0 4126.11690448 0 -314.06827768 0 -816.20051055 0 16015
0.11950000 0.11950300 14615.20648694 0 -14.88756745 0 4214.82812004 0 -362.38733892 0 -1271.07030336 0 15270
0.12050000 0.12050700 14653.98673196 0 -101.37099845 0 4046.24084038 0 -53.91038572 0 -1016.42909796 0 15999
0.12150000 0.12150000 14676.46803343 0 48.92616878 0 3970.65870487 0 252.39419932 0 -1765.96243309 0 15670
0.12250000 0.12250700 14588.22892519 0 166.95176498 0 4075.77002985 0 585.15455510 0 -800.81880409 0 16887
0.12350000 0.12352200 14250.33496421 0 298.70343220 0 3379.67025203 0 843.62320208 0 -1766.40081847 0 16407
0.12450000 0.12449800 13903.44848266 0 448.33560254 0 3294.47736014 0 432.56609363 0 -1340.64993138 0 16306
0.12550000 0.12549900 13480.80001517 0 497.70903681 0 2893.27605425 0 -151.84095820 0 -1589.29312555 0 17523
0.12650000 0.12650100 13267.90209033 0 268.54139409 0 3247.59260594 0 -22.14835339 0 -292.35134047 0 17154
0.12750000 0.12750600 13135.71203773 0 118.86426115 0 3146.42674937 0 -261.38784397 0 -709.66274699 0 18007
0.12850000 0.12850300 13255.53737452 0 -63.19100418 0 3227.60672894 0 -105.45382761 0 -475.24459632 0 17496
0.12950000 0.12949900 13439.99645302 0 -114.28931631 0 3519.97605446 0 307.56893343 0 -0.17489104 0 18405
0.13050000 0.13049000 13657.05341863 0 -13.16482532 0 3417.54000435 0 87.37773717 0 -475.42894299 0 18100
0.13150000 0.13148800 13583.87678237 0 114.61866737 0 3411.42509035 0 95.73246324 0 -30.72362102 0 19059
0.13250000 0.13249300 13533.74348011 0 124.59924116 0 3357.41376359 0 328.37537793 0 -297.91433852 0 18957
0.13350000 0.13349100 13209.45070652 0 249.42666753 0 3362.02243039 0 128.94038047 0 -364.05320335 0 19468
0.13450000 0.13450700 13027.68938420 0 377.26996048 0 2837.90460875 0 217.42003863 0 -510.42221278 0 19953
0.13550000 0.13551000 12537.70941884 0 365.43805152 0 3211.79113337 0 -45.67481055 0 -789.55679613 0 19956
0.13650000 0.13649900 12443.62517222 0 348.36013087 0 3152.75523573 0 -239.48656008 0 -315.94771449 0 19723
0.13750000 0.13749600 12034.57789212 0 191.33273642 0 3753.95019942 0 -31.00711023 0 -471.31149263 0 20946
0.13850000 0.13851100 12114.38651231 0 143.91742350 0 3953.26941819 0 -181.60620134 0 603.12947969 0 20955
0.13950000 0.13949800 11887.43777405 0 71.31293637 0 4047.88197539 0 198.87184086 0 564.15139921 0 20506
0.14050000 0.14048300 12235.11110116 0 224.56572030 0 5206.96167551 0 -134.67648454 0 2066.27889867 0 21447
0.14150000 0.14148400 11779.41512053 0 213.73535332 0 4432.35719299 0 90.32649708 0 1519.82590404 0 21771
0.14250000 0.14249400 11789.53170619 0 210.45870364 0 5210.73853416 0 287.64263188 0 2367.94424234 0 22470
0.14350000 0.14350900 11642.72880764 0 178.47343198 0 4400.01784084 0 261.53284836 0 1992.94489330 0 22519
0.14450000 0.14449900 11580.23078957 0 95.06802837 0 4466.03418258 0 549.44300773 0 1741.86247793 0 22218
0.14550000 0.14550500 11297.07879766 0 127.03733830 0 4134.09776649 0 332.96493563 0 1551.73811146 0 23559
0.14650000 0.14650700 11219.07992224 0 81.32048771 0 3668.07162784 0 35.00406082 0 840.25887531 0 23044
0.14750000 0.14750500 11106.98815315 0 256.32505488 0 3915.51207238 0 -131.10982606 0 1054.74847630 0 23649
0.14850000 0.14849900 10913.41290691 0 273.52662269 0 3963.29607864 0 -250.39898381 0 583.99676808 0 23640
0.14950000 0.14949500 10650.88750909 0 180.53946359 0 3772.32866337 0 16.85299523 0 897.29393712 0 24457
0.15050000 0.15050000 10652.53988475 0 48.97169341 0 3934.11534934 0 336.25844629 0 872.21267315 0 24591
0.15150000 0.15149900 10643.19890399 0 -122.52871329 0 3592.08482890 0 771.59873252 0 893.72840271 0 25020
0.15250000 0.15250500 10659.88002967 0 -93.53064457 0 3530.13760272 0 735.98947507 0 770.11384256 0 25297
0.15350000 0.15350100 10726.82934543 0 -20.92818075 0 2935.84439857 0 531.72099779 0 710.52378084 0 25452
0.15450000 0.15450400 10658.03656295 0 141.68727840 0 2619.09410162 0 134.09759103 0 742.18981801 0 26061
0.15550000 0.15549900 10464.92218339 0 150.23916548 0 2692.02344357 0 -5.25543136 0 332.04432633 0 26128
0.15650000 0.15649500 10341.84829854 0 292.78747772 0 2311.44873177 0 -387.43375688 0 455.36438144 0 26331
0.15750000 0.15749700 10177.06035882 0 206.61889735 0 2771.39367838 0 -251.60285751 0 96.89238598 0 27345
0.15850000 0.15849900 9904.39589404 0 276.14569431 0 2495.80664440 0 3.37692753 0 -86.96037181 0 26980
0.15950000 0.15949700 9718.35188379 0 249.17712508 0 2595.84843591 0 118.36742439 0 15.33932921 0 27777
0.16050000 0.16050000 9406.87345204 0 278.57817113 0 2351.13946950 0 441.11685664 0 -16.73148380 0 28224
0.16150000 0.16150500 9204.41809172 0 231.02797041 0 2414.70534938 0 451.50209385 0 147.06930197 0 28075
0.16250000 0.16249700 8982.46020239 0 255.32800916 0 2064.12069373 0 265.81666036 0 268.92020402 0 28590
0.16350000 0.16349900 8927.25736665 0 78.17389235 0 2255.18927486 0 207.12135443 0 717.44802169 0 29163
0.16450000 0.16449100 8799.83334996 0 26.64573774 0 2008.17597504 0 -19.08538847 0 928.73853348 0 28996
0.16550000 0.16550500 8823.84337992 0 19.11079234 0 2271.06107369 0 -104.52366377 0 522.06527881 0 30777
0.16650000 0.16650700 8912.95925892 0 -7.77474221 0 2195.78243574 0 -302.67250597 0 339.05624426 0 29211
0.16750000 0.16749900 8886.82474597 0 -39.96916865 0 2233.79831652 0 -132.57111066 0 547.29042312 0 30922
0.16850000 0.16850800 9052.33208733 0 -92.69715032 0 2084.69108457 0 -45.94728393 0 -182.24804250 0 30867
0.16950000 0.16949900 9118.67440795 0 -72.52130632 0 2252.61516584 0 -158.43584799 0 -200.11393277 0 30852
0.17050000 0.17049200 9125.31763253 0 44.72497557 0 2031.29799360 0 2.20351600 0 -818.48348672 0 31257
0.17150000 0.17149500 9074.62229773 0 96.10745134 0 2174.79614083 0 -125.32089093 0 -785.59446674 0 32608
0.17250000 0.17250900 8977.31198435 0 233.10861486 0 2351.35304186 0 -259.18018016 0 -524.33813839 0 32361
0.17350000 0.17350400 8884.17195240 0 231.03696293 0 2424.08005209 0 162.90175852 0 -729.87568513 0 32508
0.17450000 0.17449800 8760.85077323 0 91.36985428 0 2255.57145698 0 304.10568894 0 -263.32910435 0 32791
0.17550000 0.17549800 8667.95803559 0 157.42868568 0 2313.06738547 0 89.35811502 0 -409.94878029 0 33633
0.17650000 0.17650100 8604.11113943 0 90.21555186 0 2094.23439704 0 406.70360442 0 -342.42281915 0 33984
0.17750000 0.17750300 8466.69418425 0 109.62174850 0 2088.36677736 0 236.90570668 0 -146.03178991 0 34069
