### header ###
fiducial parameters:
Omega_m = 0.31
Omega_nu = 0
Omega_de = 0.69
Omega_k = 0
H_0 = 100
w_de = -1
zeff = 0
beta = 0
fgrowth = 0
b_1 = 2
gamma = 0.55
Lx = 3500 Ly = 3500 Lz = 3500
nx = 700 ny = 700 nz = 700
xoffset = 857.220397 yoffset = 15.9954215 zoffset = 262.898189
bins = 400 dk = 0.001
kx_ny = 0.628318531 ky_ny = 0.628318531 kz_ny = 0.628318531
############################
A(data) = 3.09959947 (not used)
A(ran) = 3.10200464 (used)
Ngal = 189798
weighted Ngal = 0
Nran = 9360983
weighted Nran = 0
SN(data) = 3441.8466
SN(ran) = 69.6593664
SN(data+ran) = 3511.50597
############################
13 columns: k_central k_mean P_0(k) sigma^{lin}_{P_0(k)} P^img_1(k) sigma^{lin}_{P_1(k)} P_2(k) sigma^{lin}_{P_2(k)} P^img_3(k) sigma^{lin}_{P_3(k)} P_4(k) sigma^{lin}_{P_4(k)} N_modes
### header ###
0.00050000 0 0 0 0 0 0 0 0 0 0 0 0
0.00150000 0.00179520 1526.60401643 0 -9420.37347357 0 -10810.43730556 0 7697.23791976 0 58296.71244710 0 3
0.00250000 0.00253879 8138.45594225 0 -15297.17676679 0 -10062.40572137 0 899.44202548 0 -15435.43677078 0 6
0.00350000 0.00331552 20772.49773786 0 -23654.26336576 0 -27186.75026448 0 16573.66506380 0 4118.00115465 0 7
0.00450000 0.00420575 37430.91730817 0 -26856.49994601 0 -29571.45431706 0 5210.92962522 0 -1434.68921540 0 24
0.00550000 0.00557378 63009.46767257 0 -20309.04570822 0 -52110.75753682 0 3593.72596390 0 21593.62727376 0 45
0.00650000 0.00659388 68640.58406277 0 -6011.97211826 0 -21064.97946988 0 -17294.86521470 0 -16150.00493775 0 40
0.00750000 0.00754703 72411.93478952 0 2641.55292178 0 -51403.49579282 0 -9854.67849586 0 28442.44335764 0 57
0.00850000 0.00846663 64831.23993654 0 5778.24526762 0 -26460.82904028 0 -12055.14828296 0 14202.67460511 0 75
0.00950000 0.00948925 59205.40665219 0 7792.81717292 0 -30783.30887237 0 -21876.77926567 0 23933.48112992 0 112
0.01050000 0.01054430 54199.38284914 0 3168.73944107 0 -5094.79122187 0 -18644.86736749 0 4615.23133973 0 105
0.01150000 0.01145670 54900.79945476 0 3684.01087058 0 1861.91262773 0 -17841.38565324 0 5461.64109913 0 144
0.01250000 0.01249090 52933.79798334 0 2238.08100444 0 15244.45811486 0 -24937.04642718 0 -4579.49731106 0 169
0.01350000 0.01339930 53567.77068457 0 1767.09773882 0 22036.95853859 0 -25294.16190091 0 -12141.47648057 0 180
0.01450000 0.01448870 50506.37945798 0 3684.58414376 0 34153.03114851 0 -8824.39417181 0 -17599.93647554 0 267
0.01550000 0.01550050 54306.95587664 0 -235.72656241 0 31276.09900042 0 1182.08931217 0 -29549.19782861 0 238
0.01650000 0.01653350 53565.41014791 0 -2888.97088502 0 35644.66550051 0 -73.21766463 0 -26187.45641450 0 315
0.01750000 0.01747870 63854.65220103 0 -6757.23850238 0 33150.92713584 0 -1212.65264151 0 -36402.95979882 0 297
0.01850000 0.01844180 64298.09587237 0 -5328.87777334 0 29123.28957242 0 5181.85006178 0 -31782.15309633 0 388
0.01950000 0.01947590 69558.38319495 0 -4399.28719854 0 20086.03119772 0 -684.43085829 0 -32884.07408749 0 399
0.02050000 0.02045430 71265.50082147 0 -2148.23448315 0 23577.71453428 0 -659.10567220 0 -30141.01808960 0 462
0.02150000 0.02154770 73902.33266995 0 141.18032505 0 21388.93502394 0 -702.93072127 0 -28926.01615209 0 571
0.02250000 0.02255340 72904.27529154 0 3263.98147471 0 22713.19608656 0 6326.86770784 0 -16806.57134695 0 510
0.02350000 0.02348930 70978.07738228 0 2040.87502802 0 14510.33121562 0 9277.08889870 0 -9427.83726565 0 555
0.02450000 0.02439640 67291.81838156 0 1559.44919786 0 14255.84288307 0 13814.08530934 0 -16836.02185186 0 592
0.02550000 0.02547300 66976.63053506 0 -1438.72460901 0 9722.76945953 0 14756.50146663 0 1869.92721170 0 837
0.02650000 0.02652900 67339.14152113 0 -2895.64783156 0 2074.00122572 0 11584.16501733 0 2284.10022854 0 723
0.02750000 0.02749970 70418.40538238 0 -2800.75425809 0 4257.29529851 0 24.17391865 0 7849.41384936 0 826
0.02850000 0.02848090 72052.45877915 0 453.07241275 0 2098.91050774 0 -7948.78120182 0 297.15222240 0 831
0.02950000 0.02946900 71324.28942479 0 2835.22933388 0 13666.60797175 0 -13121.66122432 0 12187.56314857 0 996
0.03050000 0.03053250 70158.63394399 0 5267.48133905 0 17987.96373878 0 -14452.77908388 0 7556.22395634 0 1041
0.03150000 0.03150510 69082.56644951 0 6316.30149616 0 26745.32991028 0 -6479.21224720 0 7631.89601706 0 1036
0.03250000 0.03246190 61008.51943595 0 2918.78109076 0 28363.64639602 0 -799.02704437 0 7407.35277806 0 1059
0.03350000 0.03345080 62828.04356977 0 3521.52726426 0 29207.48204639 0 7057.67861512 0 2789.00777807 0 1302
0.03450000 0.03451200 56692.67158778 0 1213.45072771 0 24281.26686354 0 11544.93514628 0 8888.44339967 0 1339
0.03550000 0.03553350 56423.90762881 0 1048.13222928 0 18814.03916100 0 10173.19357497 0 -3903.02370942 0 1365
0.03650000 0.03647120 56027.11265800 0 -95.02756203 0 16028.38109684 0 2766.39158880 0 -2779.26213389 0 1308
0.03750000 0.03744890 54068.99130066 0 531.64231323 0 13232.04441449 0 3.30228961 0 -8745.99063296 0 1579
0.03850000 0.03847530 53190.19722651 0 104.75218619 0 10437.98958424 0 -3913.11781377 0 -11465.01411958 0 1662
0.03950000 0.03950240 54746.24050720 0 783.19683594 0 11157.98698552 0 -5392.76963210 0 -19422.27077205 0 1683
0.04050000 0.04050350 52885.35077869 0 1365.33440039 0 11439.61024893 0 -6511.55159935 0 -26741.50808903 0 1822
0.04150000 0.04152450 51344.03275046 0 2373.53084575 0 9609.09275869 0 -3361.02201247 0 -24310.49255544 0 1887
0.04250000 0.04250150 50066.75760789 0 1786.74639629 0 13050.39549868 0 -2089.16486356 0 -29378.67715703 0 1920
0.04350000 0.04349210 49168.85442750 0 922.63598419 0 8962.93519207 0 1483.31627046 0 -25824.15858287 0 2005
0.04450000 0.04448520 49141.76445924 0 324.83457295 0 16007.81070600 0 929.14544503 0 -19783.09566052 0 2151
0.04550000 0.04548030 49303.51742326 0 1249.90415803 0 14854.51994100 0 -1461.05978201 0 -13393.34775248 0 2274
0.04650000 0.04648670 48065.13493223 0 2505.92323006 0 18389.36737638 0 -1933.27951922 0 -8781.07270389 0 2311
0.04750000 0.04749250 48204.96862732 0 2318.71019214 0 23520.83684158 0 -457.42254459 0 151.86568764 0 2568
0.04850000 0.04851840 44966.53715172 0 2346.84554092 0 23879.07638038 0 1793.01867940 0 4232.13872217 0 2493
0.04950000 0.04949480 44432.60624200 0 2365.42633658 0 25811.34424104 0 6782.49624457 0 9056.19887118 0 2644
0.05050000 0.05050630 41651.89406417 0 -157.80412342 0 20911.99421343 0 6385.76871767 0 7281.83967200 0 2829
0.05150000 0.05149060 41397.06851209 0 85.78077792 0 16311.08346273 0 8803.27298909 0 7756.01528243 0 2784
0.05250000 0.05249300 41689.10061809 0 -246.50634647 0 15048.64597913 0 3693.90264322 0 3916.84970982 0 3055
0.05350000 0.05348950 37942.70413595 0 825.57408920 0 6400.50521078 0 1074.86024859 0 640.98124696 0 3009
0.05450000 0.05448610 38652.88844914 0 1445.54768401 0 11027.48303053 0 -1022.71374578 0 1591.12535162 0 3336
0.05550000 0.05550870 36582.92261703 0 852.15935224 0 10734.31561881 0 -2721.17045091 0 441.99812365 0 3349
0.05650000 0.05647670 36102.38479828 0 1565.26061429 0 9322.64725611 0 562.37650046 0 -199.82842024 0 3324
0.05750000 0.05747970 35730.09444606 0 572.20644953 0 12512.19314168 0 2340.80931148 0 3350.45580078 0 3639
0.05850000 0.05849280 34264.20118424 0 992.93501387 0 10050.59179745 0 2305.40126167 0 -2417.24573645 0 3846
0.05950000 0.05951020 34579.95106327 0 653.39879382 0 12366.06468218 0 2214.83533873 0 5105.36867421 0 3787
0.06050000 0.06049470 33414.29558247 0 838.92685820 0 8939.47595399 0 162.93885267 0 -946.59655529 0 3930
0.06150000 0.06148310 32755.81826264 0 921.91545848 0 10389.69974870 0 -641.68603576 0 5633.07226342 0 4083
0.06250000 0.06249100 31955.59633711 0 463.48125533 0 9356.47037416 0 -1820.55827369 0 530.21137840 0 4303
0.06350000 0.06350600 32888.23312826 0 143.32166902 0 9686.14741945 0 -1119.85882160 0 1072.06694688 0 4470
0.06450000 0.06451750 32310.68849370 0 -176.53441973 0 9351.43456263 0 -407.94007600 0 -2742.21294908 0 4479
0.06550000 0.06550280 32950.73114632 0 -158.77981190 0 9296.79375943 0 1608.12121553 0 -2664.31523951 0 4636
0.06650000 0.06648880 31923.78529554 0 -470.50441391 0 7016.30177978 0 1359.57918721 0 -5614.72752143 0 4653
0.06750000 0.06749660 33300.76501008 0 -91.48372207 0 7560.74269793 0 1267.82175530 0 -4796.05968804 0 5220
0.06850000 0.06852730 33022.55890449 0 120.43682819 0 6850.55838475 0 149.42309423 0 -4691.25186063 0 5029
0.06950000 0.06949320 33127.99620835 0 859.90753279 0 7950.09635795 0 -388.71181886 0 -4263.54510031 0 5040
0.07050000 0.07048030 31379.73780016 0 949.60567749 0 7779.32839205 0 -388.04749641 0 -2129.86725986 0 5475
0.07150000 0.07148790 32055.18850258 0 763.19859423 0 8889.00543221 0 -308.80765314 0 -2089.96294976 0 5509
0.07250000 0.07249820 30990.47406534 0 789.39605482 0 9395.56535740 0 283.20257484 0 -2770.70799868 0 5916
0.07350000 0.07351270 30282.98750833 0 926.96925505 0 9850.82295266 0 978.87745606 0 -2845.50328865 0 5721
0.07450000 0.07449140 29334.61380616 0 1224.09562395 0 10118.67641893 0 -142.70680542 0 -1461.92531212 0 6028
0.07550000 0.07549160 27784.07844433 0 1424.03307851 0 8633.73025411 0 106.20807528 0 -2389.42512589 0 6183
0.07650000 0.07648840 28040.02806147 0 1174.92901766 0 11341.14214853 0 -816.13419071 0 -1592.65408012 0 6330
0.07750000 0.07749960 25924.87481342 0 1018.50749428 0 9379.59239271 0 1177.30079496 0 -2419.50510724 0 6583
0.07850000 0.07848650 25561.91420132 0 389.87410215 0 10477.72528458 0 1164.10427100 0 -920.18664640 0 6549
0.07950000 0.07947320 24983.13309518 0 428.61050863 0 8513.32040348 0 1456.94570385 0 -815.11691182 0 6828
0.08050000 0.08048110 25071.48460992 0 281.94249790 0 9826.49818448 0 1687.54765359 0 -1118.57176709 0 7147
0.08150000 0.08149960 24420.98815212 0 38.74494938 0 8744.28205405 0 1811.63319701 0 810.10695379 0 7386
0.08250000 0.08250610 24335.33439355 0 -220.04023432 0 8085.38883015 0 1631.45680645 0 818.60151355 0 7227
0.08350000 0.08350160 24348.03632888 0 14.83990710 0 6988.98699850 0 772.32937482 0 525.68252022 0 7798
0.08450000 0.08449610 24008.23145728 0 488.36355979 0 7168.50019067 0 30.11055593 0 948.12415973 0 7371
0.08550000 0.08548940 23284.89558274 0 861.62285609 0 6918.99146640 0 5.63199316 0 205.11714641 0 8256
0.08650000 0.08650700 22651.14769453 0 961.35215751 0 7268.95788626 0 -1299.21689279 0 1109.64669041 0 8037
0.08750000 0.08749060 22364.17388137 0 555.67594856 0 8454.35194975 0 -415.81415184 0 1303.40965551 0 8155
0.08850000 0.08849210 21930.17235664 0 541.06422668 0 8955.62876909 0 -45.48090933 0 2150.87603607 0 8718
0.08950000 0.08949900 21877.56611122 0 537.01084802 0 10551.84613550 0 1095.62397862 0 3658.76436903 0 8571
0.09050000 0.09049190 21376.23308862 0 605.11457861 0 9933.45297618 0 682.01411839 0 3541.16468109 0 8932
0.09150000 0.09150830 21138.83054518 0 493.98388515 0 9711.96719418 0 1515.98160149 0 4570.43734657 0 9285
0.09250000 0.09250820 20257.11390184 0 546.93184636 0 8181.30530284 0 1015.96148689 0 3586.98157347 0 9204
0.09350000 0.09350330 20208.32947767 0 283.15199191 0 8256.52773753 0 604.81894949 0 3248.68294907 0 9349
0.09450000 0.09448040 19313.79849250 0 362.21086070 0 7381.82526025 0 -309.89237594 0 816.87832179 0 9564
0.09550000 0.09549270 19452.17090299 0 409.55535751 0 7280.74932887 0 -766.05147138 0 782.68089007 0 10155
0.09650000 0.09649430 18791.78267255 0 272.08557127 0 7151.29075441 0 -294.27124362 0 60.79674558 0 9913
0.09750000 0.09749140 18902.39067574 0 254.92559386 0 7643.44016536 0 17.04633443 0 227.30057063 0 10476
0.09850000 0.09850240 18653.63507507 0 -190.32669818 0 7990.72006969 0 1309.78310448 0 321.12403415 0 10575
0.09950000 0.09950330 19102.47425875 0 90.22802898 0 8245.54562177 0 976.00209761 0 803.70427914 0 10882
0.10050000 0.10051200 18626.88232633 0 182.06481989 0 8278.98655769 0 1185.61887650 0 1810.76766691 0 10875
0.10150000 0.10150300 18577.76068263 0 606.32294856 0 7882.66369422 0 976.43036640 0 2796.31420105 0 11118
0.10250000 0.10250800 17621.51852495 0 684.09588690 0 7529.40376369 0 425.90938026 0 3205.15914943 0 11575
0.10350000 0.10349800 17088.71168030 0 777.78221448 0 7219.93740842 0 882.84183248 0 3188.74779937 0 11364
0.10450000 0.10450100 16641.55859422 0 514.43624916 0 6217.42873233 0 984.47305200 0 2524.32417531 0 12093
0.10550000 0.10551000 15865.84128727 0 507.40634619 0 5187.13316762 0 772.93636995 0 2146.60458880 0 12067
0.10650000 0.10649700 15516.14464303 0 265.83464540 0 5099.11887240 0 494.86515217 0 2439.50222489 0 12054
0.10750000 0.10749900 15241.42313917 0 196.62708291 0 4672.72726822 0 -38.63861282 0 1536.70936143 0 12807
0.10850000 0.10850100 15185.55710503 0 154.83771569 0 4863.30126072 0 131.92027698 0 1405.54220805 0 12736
0.10950000 0.10950300 15292.23088047 0 -70.94177008 0 4418.17149177 0 -232.15990394 0 1567.93588916 0 12933
0.11050000 0.11050200 15153.85846997 0 32.29618805 0 4727.31186817 0 -94.70990124 0 454.34260629 0 13428
0.11150000 0.11150900 15233.89190318 0 109.46055757 0 4605.24964188 0 327.06921432 0 1354.89183586 0 13453
0.11250000 0.11250000 15067.41786585 0 80.82466261 0 4087.16804969 0 651.49575165 0 -290.53372725 0 13668
0.11350000 0.11349100 14881.04787673 0 86.00862591 0 3547.74046176 0 356.28366557 0 269.02586614 0 13791
0.11450000 0.11448600 14969.39939148 0 25.73299691 0 3845.95492566 0 135.86686945 0 -655.55587470 0 14205
0.11550000 0.11549300 14794.83208562 0 49.69109506 0 3727.95057428 0 -207.41361135 0 -435.76855502 0 14776
0.11650000 0.11649800 15043.25046678 0 89.73827383 0 4474.94801861 0 -522.12035800 0 -267.04076722 0 14553
0.11750000 0.11747300 15156.55622615 0 126.48092609 0 4627.42744578 0 -901.78907335 0 -311.45033013 0 14568
0.11850000 0.11849100 15058.42534526 0 233.53351146 0 5532.33355157 0 -434.42979352 0 358.59586742 0 16015
0.11950000 0.11950300 14938.93722799 0 221.65663989 0 5865.48395794 0 74.14535554 0 122.12742206 0 15270
0.12050000 0.12050700 14754.92777553 0 210.29121794 0 5511.21236885 0 456.61096960 0 901.47208700 0 15999
0.12150000 0.12150000 14645.55624392 0 228.40440253 0 5533.21032233 0 468.05282798 0 388.38583999 0 15670
0.12250000 0.12250700 14108.25313897 0 345.47240770 0 4899.81089429 0 820.18981750 0 985.14973917 0 16887
0.12350000 0.12352200 13864.66823763 0 518.91002815 0 4706.86512449 0 522.01244775 0 746.60289749 0 16407
0.12450000 0.12449800 13161.90275393 0 559.87995193 0 3926.14572797 0 623.97301834 0 1253.60233212 0 16306
0.12550000 0.12549900 12676.98108140 0 443.23347117 0 4135.91875191 0 508.55514070 0 1280.78222559 0 17523
0.12650000 0.12650100 12440.92741605 0 154.03063697 0 3294.39867559 0 539.79628127 0 1572.74688768 0 17154
0.12750000 0.12750600 12220.04862918 0 -34.32119128 0 3044.09186511 0 775.61501702 0 1704.82453377 0 18007
0.12850000 0.12850300 12409.79081352 0 3.34851117 0 2742.80870357 0 482.49256791 0 1605.51338456 0 17496
0.12950000 0.12949900 12337.96305535 0 -52.70943459 0 2481.58722123 0 429.50526443 0 1718.51564636 0 18405
0.13050000 0.13049000 12404.84492720 0 -0.14005738 0 2194.52348286 0 112.95729920 0 1175.31119978 0 18100
0.13150000 0.13148800 12577.50132243 0 -56.11411529 0 2491.33286541 0 -49.38310123 0 1931.07635168 0 19059
0.13250000 0.13249300 12487.57611658 0 -66.67504388 0 2208.86655319 0 -296.10459375 0 1033.96001684 0 18957
0.13350000 0.13349100 12811.98129668 0 10.54728243 0 2720.03514519 0 -371.16741120 0 1386.23077010 0 19468
0.13450000 0.13450700 12752.06862828 0 84.97605974 0 2902.06624312 0 -381.41214028 0 1168.98271342 0 19953
0.13550000 0.13551000 12690.24504926 0 326.11488307 0 3574.21219423 0 -352.77770661 0 1480.05648175 0 19956
0.13650000 0.13649900 12524.44545098 0 244.18964835 0 3709.34729732 0 -140.59243902 0 1446.42445476 0 19723
0.13750000 0.13749600 12376.85570688 0 180.61590001 0 3903.21480048 0 9.83694075 0 935.21652049 0 20946
0.13850000 0.13851100 12352.91312082 0 25.97646940 0 4135.98619582 0 -20.58949994 0 1321.61950970 0 20955
0.13950000 0.13949800 12108.09174790 0 84.21158308 0 3782.81619050 0 13.79576305 0 403.25834497 0 20506
0.14050000 0.14048300 12141.47648057 0 114.33877517 0 4185.57994684 0 -526.90550302 0 393.10354110 0 21447
0.14150000 0.14148400 11926.89245812 0 190.58523314 0 3986.86772322 0 -208.96931741 0 -366.53064278 0 21771
0.14250000 0.14249400 11894.96901004 0 212.22123767 0 3895.73976774 0 -118.91934034 0 -194.35085114 0 22470
0.14350000 0.14350900 11596.41732663 0 188.14376381 0 3894.77307178 0 337.48255316 0 -633.73552350 0 22519
0.14450000 0.14449900 11586.18833446 0 192.67711824 0 3568.36705585 0 444.82627138 0 -629.42698207 0 22218
0.14550000 0.14550500 11384.75587336 0 77.47652238 0 3663.03581631 0 463.56106395 0 102.06904287 0 23559
0.14650000 0.14650700 11223.09283455 0 149.95590108 0 3281.01106057 0 555.92211881 0 -240.38019182 0 23044
0.14750000 0.14750500 11212.11071879 0 136.35246556 0 3517.23333568 0 241.19064273 0 471.41041036 0 23649
0.14850000 0.14849900 11043.65832693 0 299.51275905 0 3445.69783443 0 3.17214536 0 580.07715317 0 23640
0.14950000 0.14949500 10839.41570315 0 301.63611798 0 3316.07065020 0 289.95370967 0 1181.61720484 0 24457
0.15050000 0.15050000 10647.29050085 0 225.83816197 0 3741.60796492 0 57.97208245 0 1506.01114429 0 24591
0.15150000 0.15149900 10525.52053149 0 44.39618653 0 3185.13955048 0 488.18483344 0 1467.84913506 0 25020
0.15250000 0.15250500 10586.13012023 0 -13.26644081 0 3416.67447424 0 91.82150363 0 1456.29374610 0 25297
0.15350000 0.15350100 10583.94943399 0 -83.12247643 0 2868.01831206 0 -32.81752944 0 826.36655507 0 25452
0.15450000 0.15450400 10726.63825436 0 96.62755625 0 3339.63105413 0 -284.22772219 0 786.52631669 0 26061
0.15550000 0.15549900 10573.50686946 0 167.79256566 0 3169.24527035 0 -481.71921114 0 143.57907992 0 26128
0.15650000 0.15649500 10495.83397290 0 276.99885970 0 3723.34190748 0 -330.74265898 0 385.29466104 0 26331
0.15750000 0.15749700 10147.13774658 0 392.27510515 0 3492.57134798 0 -47.49647041 0 -124.31372863 0 27345
0.15850000 0.15849900 9961.62204691 0 248.95118800 0 3570.51402014 0 442.47472724 0 231.26627220 0 26980
0.15950000 0.15949700 9558.16137023 0 176.59399518 0 3321.32003409 0 770.52187818 0 -66.78486503 0 27777
0.16050000 0.16050000 9561.06145812 0 87.30242481 0 3100.68854154 0 816.71420829 0 88.94097447 0 28224
0.16150000 0.16150500 9303.44822466 0 170.29248638 0 2677.81526104 0 232.05761402 0 70.01913747 0 28075
0.16250000 0.16249700 9119.85467627 0 161.44946645 0 2443.44769330 0 78.68624121 0 0.99566986 0 28590
0.16350000 0.16349900 9105.78138156 0 160.05000543 0 2601.80598080 0 -305.98400168 0 354.56946633 0 29163
0.16450000 0.16449100 8932.86645136 0 126.71023537 0 2542.41038234 0 -189.11945229 0 -51.24713834 0 28996
0.16550000 0.16550500 9000.42276226 0 -35.32374492 0 2603.25602474 0 -38.60815066 0 271.76633679 0 30777
0.16650000 0.16650700 8971.53428988 0 -11.93734626 0 2512.98235872 0 37.10628732 0 -75.96611614 0 29211
0.16750000 0.16749900 9078.69141330 0 -22.85494069 0 2575.95248412 0 288.60258345 0 509.21833909 0 30922
0.16850000 0.16850800 9045.40784648 0 104.44250627 0 2543.11854333 0 156.20008256 0 294.05767125 0 30867
0.16950000 0.16949900 9061.93160306 0 136.59526362 0 2472.98812342 0 91.82858524 0 684.16670300 0 30852
0.17050000 0.17049200 8825.87793771 0 141.42312311 0 2467.43524196 0 -1.50904612 0 544.57805409 0 31257
0.17150000 0.17149500 8763.57101070 0 206.28392595 0 2548.10939226 0 42.43165801 0 654.63076914 0 32608
0.17250000 0.17250900 8658.93179305 0 157.90304114 0 2667.39517781 0 180.33488374 0 753.08650483 0 32361
0.17350000 0.17350400 8462.42273697 0 200.04086854 0 2525.15598346 0 72.06695922 0 520.90299552 0 32508
0.17450000 0.17449800 8396.36143262 0 146.36114097 0 2439.81696311 0 166.28069813 0 588.23898966 0 32791
0.17550000 0.17549800 8194.50182680 0 127.61398368 0 2604.49249632 0 61.18938151 0 467.60994634 0 33633
0.17650000 0.17650100 8178.28156779 0 129.11461056 0 2559.32756169 0 129.86548603 0 811.50641481 0 33984
0.17750000 0.17750300 8020.73260715 0 67.11837514 0 2469.37987454 0 107.82369401 0 519.95878086 0 34069
0.17850000 0.17849800 8074.45167699 0 55.63290304 0 2433.60088326 0 7.72798110 0 967.60757964 0 34536
