### header ###
fiducial parameters:
Omega_m = 0.31
Omega_nu = 0
Omega_de = 0.69
Omega_k = 0
H_0 = 100
w_de = -1
zeff = 0
beta = 0
fgrowth = 0
b_1 = 2
gamma = 0.55
Lx = 3500 Ly = 3500 Lz = 3500
nx = 700 ny = 700 nz = 700
xoffset = 857.220397 yoffset = 15.9954215 zoffset = 262.898189
bins = 400 dk = 0.001
kx_ny = 0.628318531 ky_ny = 0.628318531 kz_ny = 0.628318531
############################
A(data) = 3.13009857 (not used)
A(ran) = 3.1264513 (used)
Ngal = 190599
weighted Ngal = 0
Nran = 9360983
weighted Nran = 0
SN(data) = 3463.26787
SN(ran) = 70.2083464
SN(data+ran) = 3533.47622
############################
13 columns: k_central k_mean P_0(k) sigma^{lin}_{P_0(k)} P^img_1(k) sigma^{lin}_{P_1(k)} P_2(k) sigma^{lin}_{P_2(k)} P^img_3(k) sigma^{lin}_{P_3(k)} P_4(k) sigma^{lin}_{P_4(k)} N_modes
### header ###
0.00050000 0 0 0 0 0 0 0 0 0 0 0 0
0.00150000 0.00179520 13647.27405250 0 -11230.16320386 0 11422.29964680 0 15667.21898886 0 20720.45352497 0 3
0.00250000 0.00253879 25360.59414673 0 -9535.36533054 0 8428.50969371 0 -9706.36935012 0 -13747.42825051 0 6
0.00350000 0.00331552 32640.26437313 0 -3546.16677066 0 18122.85154755 0 -3093.67437548 0 29525.25524256 0 7
0.00450000 0.00420575 37931.12626570 0 5703.80967847 0 29401.83289753 0 -4506.17454634 0 5800.95138209 0 24
0.00550000 0.00557378 42803.83595108 0 2476.51768775 0 55447.54470631 0 13253.73887040 0 30796.23562071 0 45
0.00650000 0.00659388 45687.06286358 0 3265.51020321 0 70708.52657775 0 17825.87355523 0 -34162.69810814 0 40
0.00750000 0.00754703 58110.90449051 0 -6505.41420405 0 76487.68233807 0 36413.07638448 0 16452.60325543 0 57
0.00850000 0.00846663 70533.95927190 0 -8076.87965755 0 90738.24211530 0 31141.21119165 0 3104.09445871 0 75
0.00950000 0.00948925 81517.98594670 0 -2767.39200672 0 84668.85275310 0 18585.29191862 0 9790.93276556 0 112
0.01050000 0.01054430 88169.97823628 0 -2120.73985146 0 80032.98357863 0 40106.07977564 0 657.70621118 0 105
0.01150000 0.01145670 91044.43744121 0 4488.71781576 0 66158.98560089 0 21225.04633629 0 8136.70240074 0 144
0.01250000 0.01249090 89870.80109839 0 -545.65940469 0 48427.75832481 0 34515.20491506 0 -5362.61096619 0 169
0.01350000 0.01339930 90306.93834675 0 -4871.93408048 0 41961.79880482 0 15885.51242605 0 -19949.79451086 0 180
0.01450000 0.01448870 93163.18769750 0 -3378.32137395 0 27445.17282479 0 2540.79172863 0 -31986.73293963 0 267
0.01550000 0.01550050 101453.84205065 0 3565.01734194 0 30254.09903596 0 -8569.99576447 0 -39940.61739688 0 238
0.01650000 0.01653350 86246.70289621 0 9651.27892088 0 28518.31775008 0 -14288.44077019 0 -29085.40857945 0 315
0.01750000 0.01747870 84915.58503665 0 7689.74040572 0 29009.87140654 0 -178.53637963 0 -29379.23918956 0 297
0.01850000 0.01844180 78411.29489767 0 3297.87203666 0 26479.71333350 0 4075.24171927 0 -20888.72606642 0 388
0.01950000 0.01947590 75411.05281106 0 2034.00699042 0 34307.14047003 0 13560.94585488 0 -25121.61791218 0 399
0.02050000 0.02045430 76586.37525149 0 2313.13482938 0 32879.12820116 0 12175.98527832 0 -24405.13883459 0 462
0.02150000 0.02154770 69391.90915763 0 7636.63957167 0 24702.22923341 0 -85.21143896 0 -17194.37379717 0 571
0.02250000 0.02255340 60507.52363287 0 8581.28137780 0 28962.99789299 0 -4487.21156856 0 -5174.06029082 0 510
0.02350000 0.02348930 56522.60054222 0 3241.00558462 0 25351.82643916 0 -5134.89786368 0 -20007.12182958 0 555
0.02450000 0.02439640 57353.28463124 0 781.87156322 0 24101.86607787 0 -2709.32280504 0 -26834.69308359 0 592
0.02550000 0.02547300 57543.02681558 0 -2323.25141503 0 19069.65155862 0 -1540.72227374 0 -29567.63249581 0 837
0.02650000 0.02652900 60651.62877524 0 -1874.74945087 0 16243.52715183 0 -1995.22674540 0 -38484.16628167 0 723
0.02750000 0.02749970 59697.63474770 0 -1573.38760477 0 13947.39942701 0 -6040.57957438 0 -36460.62433707 0 826
0.02850000 0.02848090 62649.20481664 0 997.11653594 0 18375.99100201 0 -6584.70575431 0 -39351.83211159 0 831
0.02950000 0.02946900 58740.83055748 0 1612.98841729 0 16635.60104933 0 -3224.34694023 0 -36574.04250295 0 996
0.03050000 0.03053250 57613.84291519 0 746.17350463 0 15368.66730544 0 203.93912621 0 -32089.24767430 0 1041
0.03150000 0.03150510 59184.16182231 0 -481.61692122 0 12921.01560877 0 2082.74645199 0 -40812.44226758 0 1036
0.03250000 0.03246190 60014.95831783 0 551.49330242 0 16958.09531880 0 301.28540967 0 -28065.65674514 0 1059
0.03350000 0.03345080 56052.85374818 0 2412.94056722 0 6386.09469654 0 3783.38946369 0 -33628.20516588 0 1302
0.03450000 0.03451200 55089.52998053 0 1231.34584368 0 7676.61132567 0 3793.79830626 0 -18653.41026205 0 1339
0.03550000 0.03553350 51131.02241910 0 2902.98797648 0 5445.49952468 0 2755.66800800 0 -23782.74400362 0 1365
0.03650000 0.03647120 52112.55604093 0 1484.19304122 0 4912.92873369 0 4559.15173324 0 -16971.92131920 0 1308
0.03750000 0.03744890 49366.91469338 0 833.55832341 0 7505.42745569 0 195.76717313 0 -15255.36154607 0 1579
0.03850000 0.03847530 49517.65181968 0 -419.53368317 0 5555.03966605 0 238.89754999 0 -11407.68680085 0 1662
0.03950000 0.03950240 50103.85175531 0 -203.79636995 0 13572.41131863 0 -1424.42650128 0 -6927.29830729 0 1683
0.04050000 0.04050350 51847.72630971 0 619.76676683 0 14493.69505254 0 -5676.15767768 0 -9638.41961645 0 1822
0.04150000 0.04152450 51695.64030532 0 1766.05235830 0 17828.79612443 0 -2241.62180942 0 -791.12037064 0 1887
0.04250000 0.04250150 50853.26593954 0 1136.71080517 0 18583.15619498 0 -640.27645816 0 -4640.42163802 0 1920
0.04350000 0.04349210 50391.38760100 0 1038.94299731 0 21801.12968625 0 4459.70569622 0 4331.30374292 0 2005
0.04450000 0.04448520 48570.40218258 0 1011.88899913 0 17990.88630797 0 5790.28400455 0 2562.86836667 0 2151
0.04550000 0.04548030 48556.80099520 0 1714.45777144 0 17582.51346691 0 3879.69935915 0 4932.39754076 0 2274
0.04650000 0.04648670 47153.63056445 0 2469.11009892 0 16015.79156802 0 3701.29899140 0 5984.51120853 0 2311
0.04750000 0.04749250 44097.85966323 0 2997.82534670 0 15776.59052047 0 -2267.64391587 0 7844.87262646 0 2568
0.04850000 0.04851840 41951.12018662 0 2958.01096181 0 17272.60872626 0 -899.87816273 0 12224.43248297 0 2493
0.04950000 0.04949480 39060.24963163 0 2120.96466448 0 19531.19267763 0 -1483.60852738 0 6296.15825005 0 2644
0.05050000 0.05050630 39152.98500016 0 1780.60900099 0 19345.94675359 0 -355.74523840 0 7022.55158158 0 2829
0.05150000 0.05149060 36236.82298102 0 1328.77980421 0 19139.00637363 0 1100.94642674 0 -2326.20770618 0 2784
0.05250000 0.05249300 35579.35731976 0 1523.93998220 0 17997.96791793 0 -1222.46572960 0 -2841.46789503 0 3055
0.05350000 0.05348950 32113.30266686 0 1468.28752043 0 15040.21549108 0 350.56554654 0 -6171.22965782 0 3009
0.05450000 0.05448610 31589.93796883 0 1340.22278666 0 15381.93127330 0 759.21378354 0 -5618.70671179 0 3336
0.05550000 0.05550870 30948.65884462 0 269.95659202 0 12582.10998923 0 2348.83513610 0 -7057.94839074 0 3349
0.05650000 0.05647670 30189.69010727 0 -134.71020649 0 11694.77302052 0 4986.13909190 0 -2616.72232432 0 3324
0.05750000 0.05747970 30625.04051008 0 -1317.64031934 0 11511.43800710 0 5223.57535729 0 311.90670055 0 3639
0.05850000 0.05849280 31927.04508425 0 -540.45273528 0 10895.18057142 0 4045.28538507 0 3512.30993066 0 3846
0.05950000 0.05951020 32667.57915441 0 -1308.83888982 0 12403.04642308 0 2950.46848517 0 8503.46235279 0 3787
0.06050000 0.06049470 33293.23377409 0 -353.39481833 0 12944.73338181 0 1418.15421817 0 12074.36979571 0 3930
0.06150000 0.06148310 34305.00474639 0 424.46832884 0 14529.10310234 0 568.73421252 0 13122.56047637 0 4083
0.06250000 0.06249100 33650.23684131 0 750.64391143 0 13983.70672887 0 379.49336120 0 12889.65419323 0 4303
0.06350000 0.06350600 32772.45442573 0 1143.45519561 0 15632.03575207 0 72.48556105 0 11606.87113181 0 4470
0.06450000 0.06451750 31875.78771692 0 1550.18690166 0 13137.39813534 0 1416.97394985 0 8799.56357434 0 4479
0.06550000 0.06550280 31241.92742219 0 -61.97060673 0 12098.53719478 0 2574.92958490 0 7832.30557894 0 4636
0.06650000 0.06648880 30480.48574168 0 -327.86730052 0 9727.77154911 0 1632.23241135 0 5942.45993414 0 4653
0.06750000 0.06749660 31369.84602751 0 -354.73695203 0 8122.39305236 0 1817.93920207 0 2437.62503622 0 5220
0.06850000 0.06852730 31002.16434210 0 271.72474638 0 8383.37848103 0 -797.63545181 0 2748.12553136 0 5029
0.06950000 0.06949320 30502.96704314 0 1164.11551165 0 8729.16337882 0 -2293.32880279 0 1265.79843817 0 5040
0.07050000 0.07048030 30738.23386294 0 727.39262539 0 11067.07260240 0 -2313.79802777 0 6303.58832018 0 5475
0.07150000 0.07148790 30460.02775735 0 640.35401865 0 13191.01603933 0 -1717.38034063 0 4264.96142230 0 5509
0.07250000 0.07249820 29723.65272796 0 604.53231290 0 13396.60754120 0 -469.55345486 0 3992.37564208 0 5916
0.07350000 0.07351270 30025.01457406 0 780.88575815 0 15420.14948579 0 -103.31506900 0 4924.12442182 0 5721
0.07450000 0.07449140 29372.38239262 0 337.02505867 0 13929.18957283 0 1340.09913950 0 4080.82832268 0 6028
0.07550000 0.07549160 29121.94069433 0 315.15187641 0 13843.76062727 0 2335.98707231 0 4488.86394422 0 6183
0.07650000 0.07648840 28166.14816267 0 587.16887971 0 12861.77737941 0 1574.97253652 0 1843.24190687 0 6330
0.07750000 0.07749960 27582.53357672 0 791.37216122 0 9650.78433225 0 2021.79964373 0 784.09721207 0 6583
0.07850000 0.07848650 26091.79847678 0 1265.21392433 0 11340.69252250 0 645.87879848 0 -721.08886846 0 6549
0.07950000 0.07947320 25095.65200900 0 1320.47296332 0 6138.93526827 0 -516.02904937 0 -768.29510527 0 6828
0.08050000 0.08048110 23949.21804094 0 830.27492933 0 8665.95719976 0 -845.57457904 0 -2905.14618142 0 7147
0.08150000 0.08149960 23344.80825114 0 583.70451116 0 7592.96964358 0 -93.45218483 0 -1790.87171511 0 7386
0.08250000 0.08250610 22954.87007728 0 172.13707716 0 8831.88044520 0 765.41075429 0 -3704.18783864 0 7227
0.08350000 0.08350160 23082.90108910 0 -47.35764838 0 6977.98240144 0 282.58658718 0 -2011.42452311 0 7798
0.08450000 0.08449610 23082.11424355 0 -116.54419084 0 8026.07191624 0 1752.35000506 0 -2297.94871024 0 7371
0.08550000 0.08548940 23296.92307902 0 220.09643757 0 7560.88882639 0 1114.10360842 0 -1429.60844127 0 8256
0.08650000 0.08650700 22948.80012588 0 30.74587751 0 6669.28041041 0 1607.67158950 0 -1304.25270432 0 8037
0.08750000 0.08749060 23174.06276653 0 247.14256730 0 7084.12786629 0 -313.96935996 0 310.42630685 0 8155
0.08850000 0.08849210 22574.03683051 0 450.78156813 0 7774.95577891 0 -1033.71384659 0 1387.65833274 0 8718
0.08950000 0.08949900 22438.69939571 0 566.66031246 0 7823.08824534 0 -917.71707544 0 -62.07739291 0 8571
0.09050000 0.09049190 22068.31995413 0 488.35681540 0 9699.40014666 0 -2014.31337034 0 751.75448772 0 8932
0.09150000 0.09150830 21753.35692064 0 527.93177443 0 9530.36324097 0 -717.05347485 0 -452.15742378 0 9285
0.09250000 0.09250820 21163.89719631 0 660.91766510 0 10636.19597858 0 161.53601946 0 -880.85898169 0 9204
0.09350000 0.09350330 21052.61475407 0 358.30136238 0 10409.51701594 0 161.67765166 0 -880.12159500 0 9349
0.09450000 0.09448040 20517.22255976 0 453.19493585 0 9584.45325229 0 1472.86246528 0 -2595.58990094 0 9564
0.09550000 0.09549270 20214.06220954 0 428.25755220 0 9741.94600968 0 865.12094660 0 -632.23602069 0 10155
0.09650000 0.09649430 19389.44807192 0 341.50558205 0 7136.86899952 0 1971.75626668 0 -1671.66461411 0 9913
0.09750000 0.09749140 19199.81829408 0 368.54721552 0 8297.71348181 0 2174.54884651 0 1227.78255739 0 10476
0.09850000 0.09850240 18632.27783868 0 384.16497564 0 5827.90646254 0 1584.66197745 0 118.89123872 0 10575
0.09950000 0.09950330 18138.58845857 0 334.91856073 0 5190.32551243 0 1952.69212304 0 1022.79355440 0 10882
0.10050000 0.10051200 18052.93470000 0 206.13554937 0 4952.19232670 0 870.99531067 0 1176.66007787 0 10875
0.10150000 0.10150300 17558.00884832 0 98.50811712 0 4039.48520929 0 194.61163424 0 1063.48246192 0 11118
0.10250000 0.10250800 17541.93471777 0 134.94626016 0 4513.97555795 0 135.73535384 0 1759.80255649 0 11575
0.10350000 0.10349800 17328.69957340 0 72.00131382 0 4343.21883269 0 -546.02697397 0 453.84801765 0 11364
0.10450000 0.10450100 17497.64655389 0 223.16850742 0 4681.52869774 0 -807.79587600 0 468.14387725 0 12093
0.10550000 0.10551000 17381.30581882 0 442.09029699 0 5279.09293125 0 -1086.73599609 0 -377.96126050 0 12067
0.10650000 0.10649700 17065.44353328 0 602.62814666 0 5244.41552375 0 -913.61311385 0 -642.32338066 0 12054
0.10750000 0.10749900 16557.02890072 0 544.56793751 0 6082.65333006 0 -521.49987408 0 -1062.61243555 0 12807
0.10850000 0.10850100 16109.42618861 0 520.11277778 0 5886.85243498 0 -39.58766096 0 -1868.02754173 0 12736
0.10950000 0.10950300 15911.02870321 0 278.08807876 0 5535.33480532 0 658.39413901 0 -1816.07325405 0 12933
0.11050000 0.11050200 15600.56193002 0 169.51575741 0 5718.34383987 0 576.01703012 0 -1937.52848520 0 13428
0.11150000 0.11150900 15524.12550505 0 30.89065709 0 4629.18098729 0 678.44970804 0 -1587.69695315 0 13453
0.11250000 0.11250000 15480.28696720 0 -10.94101995 0 4431.59282874 0 870.37257862 0 -1903.03092811 0 13668
0.11350000 0.11349100 15522.21459443 0 -42.96581373 0 4075.92739896 0 278.05660494 0 -1195.21839223 0 13791
0.11450000 0.11448600 15660.69941143 0 73.65009247 0 4384.75303715 0 -181.70961533 0 -1478.47155000 0 14205
0.11550000 0.11549300 15602.81006017 0 191.22595024 0 4966.46795312 0 -591.19640487 0 -614.54998083 0 14776
0.11650000 0.11649800 15615.84921501 0 304.48225074 0 5158.71680258 0 -583.95180547 0 -991.17247983 0 14553
0.11750000 0.11747300 15350.34504475 0 302.40273036 0 5567.59547292 0 -719.03857376 0 -670.47109415 0 14568
0.11850000 0.11849100 15287.06018113 0 277.87900266 0 6596.02508960 0 -127.14637261 0 -530.73744085 0 16015
0.11950000 0.11950300 14918.70405668 0 213.43635201 0 5543.64164621 0 670.18108536 0 -975.50301271 0 15270
0.12050000 0.12050700 14751.78039332 0 123.29082941 0 5488.22523810 0 913.14887498 0 -647.67168227 0 15999
0.12150000 0.12150000 14528.20385028 0 108.26882378 0 4498.10375912 0 803.60423734 0 -1720.46027893 0 15670
0.12250000 0.12250700 14551.35959079 0 122.87717347 0 4434.47043533 0 980.63999010 0 -639.66159456 0 16887
0.12350000 0.12352200 14157.03756315 0 68.89732053 0 3636.27182692 0 411.65960733 0 -1010.48054559 0 16407
0.12450000 0.12449800 14294.28590857 0 80.90964193 0 3759.50308088 0 -136.09730279 0 -464.03879161 0 16306
0.12550000 0.12549900 14257.64138719 0 74.05936456 0 4061.10098065 0 -157.00266502 0 -671.24557499 0 17523
0.12650000 0.12650100 14114.09827735 0 397.39859375 0 3924.89801574 0 -340.85474838 0 -550.56257654 0 17154
0.12750000 0.12750600 13908.50677548 0 369.33406107 0 4863.20009486 0 -18.78279015 0 181.03405222 0 18007
0.12850000 0.12850300 13334.78396217 0 334.00469582 0 3928.56246788 0 158.67977011 0 -488.56364337 0 17496
0.12950000 0.12949900 13375.02549179 0 263.38643167 0 4628.05692222 0 279.73258596 0 433.52941739 0 18405
0.13050000 0.13049000 12980.47865113 0 392.59883589 0 4284.99226191 0 68.96420240 0 -635.57112176 0 18100
0.13150000 0.13148800 12874.36690823 0 227.47929697 0 4634.23928012 0 144.94481898 0 588.72233765 0 19059
0.13250000 0.13249300 12183.85373383 0 348.24997249 0 4475.42012594 0 111.95418352 0 -221.78478331 0 18957
0.13350000 0.13349100 12328.85812826 0 297.93007543 0 4699.80599583 0 84.98460263 0 628.93576564 0 19468
0.13450000 0.13450700 12070.09834843 0 88.00271735 0 4603.94572640 0 355.24502944 0 572.50095458 0 19953
0.13550000 0.13551000 12004.11572864 0 135.90845986 0 5049.54760268 0 576.40370851 0 950.92420582 0 19956
0.13650000 0.13649900 11908.57019743 0 198.45144053 0 4312.36324644 0 205.93546578 0 507.94589743 0 19723
0.13750000 0.13749600 11713.76972026 0 157.36911023 0 4824.91443847 0 97.44508878 0 921.62207750 0 20946
0.13850000 0.13851100 11661.16347484 0 218.45979883 0 4303.29204130 0 -60.30699042 0 1349.08041943 0 20955
0.13950000 0.13949800 11630.02687231 0 -28.84126165 0 4612.61226811 0 354.45256357 0 1118.22330691 0 20506
0.14050000 0.14048300 11309.55591997 0 5.19307947 0 4066.73254666 0 289.15449940 0 630.79496927 0 21447
0.14150000 0.14148400 11391.05063777 0 107.47680753 0 4039.08054587 0 566.11514090 0 692.62079642 0 21771
0.14250000 0.14249400 11098.54642445 0 255.31452038 0 3677.54749640 0 -30.61267579 0 195.93241070 0 22470
0.14350000 0.14350900 10874.41908952 0 264.95000618 0 3969.41099263 0 -101.70507059 0 10.73338264 0 22519
0.14450000 0.14449900 10763.23781314 0 163.58294196 0 3873.11233782 0 -33.47836729 0 -18.57292720 0 22218
0.14550000 0.14550500 10742.45384994 0 -37.58761198 0 3838.63726203 0 0.00832055 0 -12.32863332 0 23559
0.14650000 0.14650700 10766.56504576 0 -39.65162027 0 3909.64445270 0 10.52082194 0 -99.31069958 0 23044
0.14750000 0.14750500 10961.17443187 0 -94.75104202 0 3881.66647303 0 102.40783608 0 -79.11821942 0 23649
0.14850000 0.14849900 11150.27589911 0 -2.59091379 0 4067.78916783 0 -44.92775691 0 -323.66217308 0 23640
0.14950000 0.14949500 11159.07732864 0 67.73706056 0 4077.48984941 0 -121.10789504 0 -80.92268108 0 24457
0.15050000 0.15050000 10970.00958334 0 274.23590775 0 4239.82732727 0 -246.25118369 0 6.47679551 0 24591
0.15150000 0.15149900 10863.41449246 0 296.37099717 0 4400.84964899 0 -81.45964697 0 135.32394602 0 25020
0.15250000 0.15250500 10480.49048466 0 311.55149599 0 4412.91086723 0 179.33109363 0 74.75178865 0 25297
0.15350000 0.15350100 10284.22872289 0 143.45768089 0 3935.04832335 0 610.07620184 0 175.67900621 0 25452
0.15450000 0.15450400 10135.62732023 0 54.10170159 0 3541.47941931 0 763.29526382 0 -1.57380351 0 26061
0.15550000 0.15549900 10090.83332707 0 -48.88412874 0 3207.46348283 0 859.95923978 0 -125.65361420 0 26128
0.15650000 0.15649500 10025.13172354 0 -17.30925325 0 2522.43574599 0 701.12547276 0 -126.62930268 0 26331
0.15750000 0.15749700 10002.67290338 0 24.28992216 0 2100.93382488 0 414.78563230 0 -574.33655284 0 27345
0.15850000 0.15849900 9856.43203737 0 66.89221325 0 2141.74862768 0 34.83275330 0 -112.07299720 0 26980
0.15950000 0.15949700 9841.02110522 0 175.45194506 0 2154.39435975 0 -147.28961872 0 -245.03719342 0 27777
0.16050000 0.16050000 9720.43140418 0 254.43662556 0 2577.45873131 0 -342.63863965 0 38.13986515 0 28224
0.16150000 0.16150500 9498.06885142 0 375.63219767 0 2825.12398887 0 -297.51304729 0 -159.39467550 0 28075
0.16250000 0.16249700 9178.56459504 0 336.57543264 0 2680.00718793 0 -206.05349261 0 56.11254160 0 28590
0.16350000 0.16349900 8994.13923850 0 285.40799052 0 3037.72965680 0 3.79212345 0 -94.83984316 0 29163
0.16450000 0.16449100 8890.46671681 0 175.89482670 0 2883.13698729 0 -51.56850855 0 110.13870602 0 28996
0.16550000 0.16550500 8574.05363938 0 116.02487278 0 2874.59409274 0 36.70960475 0 -390.54629306 0 30777
0.16650000 0.16650700 8705.65917814 0 70.97571685 0 2628.74982060 0 95.69019839 0 40.14092579 0 29211
0.16750000 0.16749900 8596.73727255 0 43.59304204 0 2568.42124813 0 80.70056583 0 -156.40578647 0 30922
0.16850000 0.16850800 8690.76531592 0 6.31878568 0 2460.24122549 0 277.37092524 0 -61.57909487 0 30867
0.16950000 0.16949900 8656.05418646 0 -52.45179888 0 2589.35133979 0 119.99057436 0 -81.83238695 0 30852
0.17050000 0.17049200 8740.44899215 0 7.17210844 0 2353.29767444 0 230.37151641 0 -48.52307904 0 31257
0.17150000 0.17149500 8689.28155002 0 100.32292018 0 2370.03500338 0 1.00986119 0 -51.96316779 0 32608
0.17250000 0.17250900 8523.32458263 0 177.66522919 0 2353.61241266 0 -34.65593786 0 94.52499253 0 32361
0.17350000 0.17350400 8399.52005548 0 203.33550327 0 2392.72987720 0 78.43377620 0 -220.01325676 0 32508
0.17450000 0.17449800 8296.72430454 0 173.24090907 0 2460.28618809 0 10.49300133 0 86.81930164 0 32791
0.17550000 0.17549800 8136.08416495 0 117.04664793 0 2576.60444186 0 75.90519182 0 158.09638034 0 33633
0.17650000 0.17650100 8068.77514837 0 50.92711701 0 2657.04253849 0 169.85747320 0 392.00308140 0 33984
0.17750000 0.17750300 8145.29025790 0 -44.20071162 0 2597.73686523 0 197.09919024 0 187.11749239 0 34069
