### header ###
fiducial parameters:
Omega_m = 0.31
Omega_nu = 0
Omega_de = 0.69
Omega_k = 0
H_0 = 100
w_de = -1
zeff = 0
beta = 0
fgrowth = 0
b_1 = 2
gamma = 0.55
Lx = 3500 Ly = 3500 Lz = 3500
nx = 700 ny = 700 nz = 700
xoffset = 857.220397 yoffset = 15.9954215 zoffset = 262.898189
bins = 400 dk = 0.001
kx_ny = 0.628318531 ky_ny = 0.628318531 kz_ny = 0.628318531
############################
A(data) = 3.09245017 (not used)
A(ran) = 3.09429413 (used)
Ngal = 188760
weighted Ngal = 0
Nran = 9360983
weighted Nran = 0
SN(data) = 3438.15861
SN(ran) = 69.4862172
SN(data+ran) = 3507.64483
############################
13 columns: k_central k_mean P_0(k) sigma^{lin}_{P_0(k)} P^img_1(k) sigma^{lin}_{P_1(k)} P_2(k) sigma^{lin}_{P_2(k)} P^img_3(k) sigma^{lin}_{P_3(k)} P_4(k) sigma^{lin}_{P_4(k)} N_modes
### header ###
0.00050000 0 0 0 0 0 0 0 0 0 0 0 0
0.00150000 0.00179520 1868.61205557 0 -6073.36855256 0 7063.57995675 0 -19855.48545122 0 13423.36028993 0 3
0.00250000 0.00253879 7178.21211291 0 -8371.74440752 0 -8720.18209888 0 6697.87662587 0 -8537.88122533 0 6
0.00350000 0.00331552 13191.46566535 0 -9512.02973963 0 989.70782304 0 -15692.06082697 0 4242.26654848 0 7
0.00450000 0.00420575 21583.84790762 0 -8884.10450849 0 -5306.61004424 0 -12703.50901712 0 -4935.94958639 0 24
0.00550000 0.00557378 31051.39839230 0 -4780.69371849 0 7778.38417739 0 -24337.80733671 0 -6422.69425532 0 45
0.00650000 0.00659388 43329.11155974 0 -1859.51836913 0 7532.19144508 0 -31978.75207761 0 -16497.67826486 0 40
0.00750000 0.00754703 43562.46746891 0 -209.40995092 0 29073.38108317 0 -23846.47849326 0 -9968.72613818 0 57
0.00850000 0.00846663 46632.62640307 0 3875.09069235 0 38355.91045682 0 -16718.21983220 0 -12043.90763223 0 75
0.00950000 0.00948925 45407.84509942 0 4511.53633674 0 47289.75484480 0 -13774.06859274 0 -23529.26732963 0 112
0.01050000 0.01054430 46779.87892764 0 3763.36986474 0 56934.79520453 0 5482.22273061 0 -21117.47330879 0 105
0.01150000 0.01145670 47088.20997719 0 -2388.52587383 0 52040.16625023 0 10221.20239425 0 -23038.61292522 0 144
0.01250000 0.01249090 51065.71423836 0 -7970.41945447 0 47293.35185304 0 22114.40662212 0 -25515.82753332 0 169
0.01350000 0.01339930 60502.35293353 0 -11568.42810631 0 37264.21845783 0 20659.07957198 0 -24628.49056462 0 180
0.01450000 0.01448870 62470.70328303 0 -2832.00326712 0 27171.12575997 0 14080.93835770 0 -28098.59185178 0 267
0.01550000 0.01550050 66204.17301683 0 329.05768543 0 19301.43377669 0 9586.44284747 0 -19312.78683393 0 238
0.01650000 0.01653350 57854.28043432 0 6743.69351825 0 14166.92933579 0 -2243.61140460 0 -13955.60510205 0 315
0.01750000 0.01747870 54670.59092779 0 8726.01599661 0 20314.21640755 0 -11057.83278750 0 -5478.44587197 0 297
0.01850000 0.01844180 50118.80182078 0 5168.84462889 0 25484.80333730 0 -8310.91000577 0 1548.80430162 0 388
0.01950000 0.01947590 51358.42078339 0 3549.19050571 0 29271.44134905 0 -3634.23726914 0 -716.41950214 0 399
0.02050000 0.02045430 50319.44743633 0 -352.17071147 0 32191.53759595 0 -1836.01416845 0 12558.50462269 0 462
0.02150000 0.02154770 53729.18642906 0 -2365.42633658 0 37563.66939330 0 12045.25651032 0 5261.91721694 0 571
0.02250000 0.02255340 61279.75633809 0 -3101.80136596 0 45286.78329105 0 5423.15311102 0 18113.40940093 0 510
0.02350000 0.02348930 59765.19105859 0 -3771.08095114 0 28773.81774119 0 19509.04859569 0 9083.47993051 0 555
0.02450000 0.02439640 64226.04330119 0 -2990.01309444 0 30238.81175096 0 4433.87468084 0 7439.46731720 0 592
0.02550000 0.02547300 66380.87604632 0 -2016.43785333 0 13745.06771386 0 8338.34843420 0 -2076.38424368 0 837
0.02650000 0.02652900 66593.21193863 0 223.46526060 0 10705.61823750 0 4122.74470926 0 -12665.51561765 0 723
0.02750000 0.02749970 63471.23360460 0 2606.20107523 0 6208.53737760 0 -5059.77659484 0 -11584.16501733 0 826
0.02850000 0.02848090 60798.99370632 0 2990.27162941 0 4066.63138081 0 -3709.90932986 0 -22781.53924301 0 831
0.02950000 0.02946900 57699.83389328 0 2184.84528258 0 1389.33318970 0 -21.22055008 0 -15222.65125244 0 996
0.03050000 0.03053250 56617.92126042 0 1430.76622829 0 1736.02858020 0 5289.98512181 0 -11728.38256621 0 1041
0.03150000 0.03150510 55008.26007574 0 -1056.22662187 0 379.01563354 0 8221.99645848 0 -7956.88571099 0 1036
0.03250000 0.03246190 54883.60125914 0 1063.77471884 0 4175.40715793 0 6159.37077130 0 -1526.39044406 0 1059
0.03350000 0.03345080 54718.70091291 0 1334.59122064 0 1563.48459148 0 959.47946510 0 -1899.64749224 0 1302
0.03450000 0.03451200 53878.91189680 0 1442.95109369 0 8131.97008678 0 -2317.57488641 0 10240.54755415 0 1339
0.03550000 0.03553350 53460.08525056 0 1058.81309561 0 6235.98704668 0 -9298.58102290 0 1653.98307051 0 1365
0.03650000 0.03647120 53955.79794780 0 777.32359594 0 13645.92517441 0 -4695.10740383 0 4211.33227767 0 1308
0.03750000 0.03744890 51627.52196189 0 1969.38448937 0 9717.61000085 0 -5070.98352362 0 -6732.80132769 0 1579
0.03850000 0.03847530 51835.92362644 0 2918.91597857 0 15796.14925274 0 -5543.12457628 0 -8597.37798965 0 1662
0.03950000 0.03950240 48218.45740820 0 2366.66280816 0 15346.29841049 0 209.06261482 0 -15160.37804740 0 1683
0.04050000 0.04050350 46727.72230825 0 2321.28430116 0 16956.40922119 0 531.22191290 0 -15165.32393372 0 1822
0.04150000 0.04152450 44289.96238422 0 1557.87550676 0 15244.90774089 0 179.53679754 0 -14796.74299625 0 1887
0.04250000 0.04250150 42853.40722080 0 1624.79110056 0 17249.56539226 0 1960.70670701 0 -14403.99465971 0 1920
0.04350000 0.04349210 41408.08434981 0 700.71856120 0 16347.50317110 0 460.37883573 0 -5491.85596829 0 2005
0.04450000 0.04448520 42498.09025119 0 -553.23897548 0 16467.32850789 0 5997.61780728 0 -3584.60979616 0 2151
0.04550000 0.04548030 42651.97475970 0 -686.55084502 0 17528.78315641 0 4204.89138480 0 -2139.33188777 0 2274
0.04650000 0.04648670 43054.72727539 0 -676.13863025 0 11569.21495186 0 4735.19156433 0 -3140.51416708 0 2311
0.04750000 0.04749250 42764.60608003 0 366.19904358 0 14550.68515175 0 3098.74390896 0 -1100.86886625 0 2568
0.04850000 0.04851840 42257.42791904 0 1541.65524776 0 8485.84825309 0 549.30699586 0 1317.46046893 0 2493
0.04950000 0.04949480 41356.71457597 0 1209.73007232 0 9383.88632129 0 37.99070171 0 360.87434733 0 2644
0.05050000 0.05050630 40064.03974191 0 1120.16007104 0 9270.86157819 0 -564.62912687 0 1406.93604874 0 2829
0.05150000 0.05149060 40284.46890274 0 1134.55260023 0 9359.35922140 0 -146.56122456 0 -2364.45964061 0 2784
0.05250000 0.05249300 38754.39152524 0 958.31718181 0 10723.71568517 0 -1411.57843750 0 1078.78660789 0 3055
0.05350000 0.05348950 37116.06668120 0 2261.51776122 0 10846.01396513 0 -1270.59819603 0 191.64522651 0 3009
0.05450000 0.05448610 35734.02867382 0 1977.52272050 0 12427.66344818 0 -33.34460355 0 685.73477378 0 3336
0.05550000 0.05550870 34485.86681665 0 1073.62265294 0 12943.94653626 0 414.73055311 0 1600.87099581 0 3349
0.05650000 0.05647670 33649.56240227 0 162.18685314 0 13583.53956285 0 2688.59504509 0 -849.35256175 0 3324
0.05750000 0.05747970 33626.06944224 0 -409.32155198 0 9659.60824307 0 3041.54023739 0 1853.39221448 0 3639
0.05850000 0.05849280 33507.36817052 0 -114.77491242 0 10577.01395248 0 1846.25440126 0 -2189.26285832 0 3846
0.05950000 0.05951020 33822.21879749 0 344.28427091 0 8160.57754289 0 494.44699996 0 216.39713942 0 3787
0.06050000 0.06049470 32980.63127726 0 928.02587622 0 9891.81760588 0 -355.65531319 0 -767.78253159 0 3930
0.06150000 0.06148310 32899.47377899 0 926.84785602 0 7173.85074042 0 -781.51973085 0 -996.68489495 0 4083
0.06250000 0.06249100 31980.10095570 0 734.60799909 0 8534.96989679 0 -344.43826783 0 -504.06787293 0 4303
0.06350000 0.06350600 30927.30160823 0 608.53623269 0 9755.10881168 0 322.29418589 0 -880.70610884 0 4470
0.06450000 0.06451750 30344.02424180 0 486.72579698 0 8589.81303170 0 1579.64864723 0 -223.91825882 0 4479
0.06550000 0.06550280 30602.44680211 0 34.42595415 0 9666.26270831 0 1179.18922428 0 -609.04543417 0 4636
0.06650000 0.06648880 30021.08034630 0 105.18079221 0 6452.40329521 0 1335.05208732 0 -1079.89830825 0 4653
0.06750000 0.06749660 30726.31877316 0 388.21947836 0 9371.11694206 0 -75.57089486 0 -785.44721422 0 5220
0.06850000 0.06852730 29752.65360685 0 406.96101533 0 8828.83422885 0 -715.06949999 0 -484.40797480 0 5029
0.06950000 0.06949320 29999.16107738 0 1058.77600146 0 10037.06929462 0 364.52081443 0 -1102.15816889 0 5040
0.07050000 0.07048030 28717.27726801 0 793.51013299 0 9960.63286965 0 619.78137968 0 1066.64895323 0 5475
0.07150000 0.07148790 27552.85825879 0 799.56659560 0 8303.16519741 0 1076.55758685 0 339.03825922 0 5509
0.07250000 0.07249820 27386.27181496 0 419.38980284 0 9748.61171556 0 1514.65520470 0 1844.08495567 0 5916
0.07350000 0.07351270 26657.87764759 0 241.13443948 0 8452.50848303 0 636.15563560 0 1292.92212838 0 5721
0.07450000 0.07449140 27047.81582145 0 -171.41093113 0 8377.44341744 0 812.02573287 0 2282.66142524 0 6028
0.07550000 0.07549160 26935.85894017 0 -55.91257043 0 7766.27799655 0 -938.45944823 0 1701.16008163 0 6183
0.07650000 0.07648840 26859.64732821 0 148.13941192 0 8231.34867989 0 269.25854761 0 2151.82025074 0 6330
0.07750000 0.07749960 26673.61455861 0 759.92981299 0 7425.65255745 0 637.61579613 0 2095.38094341 0 6583
0.07850000 0.07848650 26093.93420042 0 85.10566444 0 7174.92984289 0 1162.54182055 0 2893.35473881 0 6549
0.07950000 0.07947320 26338.19354080 0 325.31567281 0 7563.19315979 0 1642.33775635 0 3643.09490191 0 6828
0.08050000 0.08048110 25991.41946575 0 59.53228478 0 6865.28363721 0 1817.57950125 0 2704.83778540 0 7147
0.08150000 0.08149960 25360.25692720 0 552.56341237 0 6681.95986443 0 136.14338946 0 5057.77575901 0 7386
0.08250000 0.08250610 25649.81609003 0 716.07104197 0 7339.42552569 0 480.89302331 0 5253.86891101 0 7227
0.08350000 0.08350160 24637.14586568 0 712.33240154 0 6862.66456559 0 -1286.26766315 0 4172.65319850 0 7798
0.08450000 0.08449610 24638.38233726 0 869.43173616 0 8755.65759259 0 -438.73383868 0 5964.01950225 0 7371
0.08550000 0.08548940 23619.97938103 0 605.77440480 0 7167.58969797 0 -876.15027310 0 1622.05962243 0 8256
0.08650000 0.08650700 22817.62173185 0 862.90316621 0 8894.77188604 0 -32.41207916 0 3143.36929237 0 8037
0.08750000 0.08749060 22166.33842850 0 1050.82661326 0 7789.71475332 0 -169.80913840 0 372.89734735 0 8155
0.08850000 0.08849210 20934.58792140 0 1165.57679625 0 8176.17956611 0 790.67861307 0 1746.19012846 0 8718
0.08950000 0.08949900 19973.96190993 0 815.25741996 0 7299.17275542 0 1081.09318942 0 925.86429908 0 8571
0.09050000 0.09049190 19281.87504442 0 584.80946713 0 6789.19567241 0 1371.85397781 0 1410.99392366 0 8932
0.09150000 0.09150830 19005.91706897 0 202.59137219 0 6161.88867706 0 863.40112704 0 648.31689563 0 9285
0.09250000 0.09250820 18777.28223311 0 205.65332545 0 6888.43937771 0 435.80677323 0 1218.36289208 0 9204
0.09350000 0.09350330 18657.45689631 0 268.83814727 0 6099.24453054 0 -368.47864755 0 767.38686069 0 9349
0.09450000 0.09448040 18365.08757080 0 153.19995288 0 6772.76184104 0 -892.64030772 0 -192.12070603 0 9564
0.09550000 0.09549270 18506.94458303 0 157.20612080 0 7066.85098611 0 -711.06782833 0 -133.53893068 0 10155
0.09650000 0.09649430 18337.54797651 0 84.59331558 0 7351.26193091 0 -92.27191650 0 -590.54444713 0 9913
0.09750000 0.09749140 18090.36606694 0 120.86846918 0 6911.57263692 0 690.11075911 0 389.53351043 0 10476
0.09850000 0.09850240 17932.65973718 0 357.23912088 0 6272.92382498 0 855.75074015 0 -959.60873258 0 10575
0.09950000 0.09950330 17417.38830767 0 258.06735574 0 6095.60255970 0 1430.86739415 0 -53.98120182 0 10882
0.10050000 0.10051200 17228.65778190 0 298.85742912 0 5702.43831909 0 698.49853268 0 163.95613156 0 10875
0.10150000 0.10150300 17060.83486648 0 146.01942519 0 4951.19190878 0 736.41886793 0 -54.73241451 0 11118
0.10250000 0.10250800 16912.79549636 0 51.81996190 0 4738.53003760 0 379.45626705 0 655.46370136 0 11575
0.10350000 0.10349800 16752.27900392 0 26.72374786 0 4454.38886842 0 102.30835632 0 -280.32946452 0 11364
0.10450000 0.10450100 16845.01437245 0 277.64632119 0 4262.97182713 0 1.02820818 0 135.21153951 0 12093
0.10550000 0.10551000 16714.39801095 0 188.40454690 0 4921.87629167 0 229.77576192 0 438.78104941 0 12067
0.10650000 0.10649700 16285.79199858 0 201.41335199 0 3974.73906108 0 1248.28550433 0 1082.15880311 0 12054
0.10750000 0.10749900 16197.89010987 0 24.17751566 0 3791.68506393 0 1158.82116516 0 410.55015510 0 12807
0.10850000 0.10850100 16281.74536432 0 57.86585830 0 3700.80440277 0 504.47253635 0 1285.41337369 0 12736
0.10950000 0.10950300 15808.96359457 0 429.11971011 0 3815.25670851 0 136.74364021 0 1362.27694339 0 12933
0.11050000 0.11050200 15726.45721821 0 696.21443246 0 4269.68249561 0 -807.27655794 0 2522.97529722 0 13428
0.11150000 0.11150900 15194.77443863 0 303.74261592 0 5089.29454366 0 -1197.90490775 0 2520.59227927 0 13453
0.11250000 0.11250000 15273.79621327 0 285.02468433 0 6131.95482417 0 -1506.59565813 0 1942.33948371 0 13668
0.11350000 0.11349100 15305.15762881 0 131.78988543 0 6535.16820654 0 -1434.71169670 0 1127.66208133 0 13791
0.11450000 0.11448600 15241.08591964 0 31.84779850 0 7392.40271259 0 -735.96362157 0 412.54312248 0 14205
0.11550000 0.11549300 15445.55335644 0 -13.84971817 0 6952.05022020 0 -360.93841904 0 -66.03028015 0 14776
0.11650000 0.11649800 15085.62772003 0 91.19787232 0 6394.86240411 0 679.91324077 0 -1640.40436443 0 14553
0.11750000 0.11747300 15292.90531951 0 85.63745963 0 5853.00683563 0 1576.28769266 0 -2268.13850450 0 14568
0.11850000 0.11849100 14639.82351204 0 265.83801759 0 4716.45339957 0 1116.38658458 0 -2902.25733419 0 16015
0.11950000 0.11950300 14411.75070871 0 282.24037514 0 4199.67572286 0 990.90270421 0 -2742.61761251 0 15270
0.12050000 0.12050700 14135.23070073 0 214.88527189 0 3877.86713308 0 278.63999471 0 -2013.21178657 0 15999
0.12150000 0.12150000 14066.32551175 0 34.52509669 0 3646.02871176 0 526.38730902 0 -1836.00292780 0 15670
0.12250000 0.12250700 14071.15899156 0 -57.22806378 0 3808.14137660 0 69.01973121 0 -506.56329739 0 16887
0.12350000 0.12352200 14346.55493447 0 -82.09249561 0 3802.81330815 0 388.75902960 0 -604.10516817 0 16407
0.12450000 0.12449800 14206.15920684 0 37.03502159 0 4483.53587577 0 212.62590110 0 499.09163685 0 16306
0.12550000 0.12549900 14457.94978322 0 91.12806788 0 4093.49653605 0 348.81088096 0 67.11916199 0 17523
0.12650000 0.12650100 14281.92119277 0 282.79116703 0 4295.37862318 0 35.56755464 0 134.73381186 0 17154
0.12750000 0.12750600 14098.92339887 0 257.43563117 0 3590.17391827 0 -292.57278129 0 -464.91219017 0 18007
0.12850000 0.12850300 13721.68716034 0 243.79285338 0 3824.90118684 0 -230.55698714 0 -702.91386029 0 17496
0.12950000 0.12949900 13512.49865023 0 308.92680404 0 3272.01853998 0 -414.10107667 0 -1669.10174574 0 18405
0.13050000 0.13049000 13314.32597784 0 227.29270217 0 3489.92979505 0 -153.20669727 0 -2426.56423590 0 18100
0.13150000 0.13148800 13157.85611967 0 383.79515823 0 3585.17182870 0 -356.55119306 0 -2247.81540798 0 19059
0.13250000 0.13249300 12906.96479535 0 277.68116720 0 3697.64577991 0 -169.60343449 0 -2373.30603274 0 18957
0.13350000 0.13349100 12730.14935935 0 185.64721528 0 3747.68915697 0 338.78309645 0 -1866.74610755 0 19468
0.13450000 0.13450700 12747.01033545 0 48.21868222 0 3855.19474056 0 339.98022575 0 -1906.96515586 0 19953
0.13550000 0.13551000 12707.21843186 0 76.23296919 0 3864.69309042 0 824.07233826 0 -525.01145337 0 19956
0.13650000 0.13649900 12502.97580808 0 90.56603535 0 3454.65663306 0 720.48974177 0 -956.56139217 0 19723
0.13750000 0.13749600 12418.33370808 0 134.24821575 0 3372.43127296 0 935.26035903 0 -627.12040054 0 20946
0.13850000 0.13851100 12107.19249584 0 156.43276403 0 2979.95271204 0 840.87823517 0 -225.51443123 0 20955
0.13950000 0.13949800 12074.48220222 0 156.04046532 0 2715.50516294 0 423.93664606 0 -29.87101766 0 20506
0.14050000 0.14048300 11697.69558971 0 118.97779173 0 2485.21795142 0 22.68576890 0 -17.95221847 0 21447
0.14150000 0.14148400 11846.40939888 0 -46.62880458 0 2617.26187555 0 -61.95194725 0 590.28029184 0 21771
0.14250000 0.14249400 11817.52092651 0 -42.91657968 0 2592.95958867 0 -441.23937973 0 426.01616644 0 22470
0.14350000 0.14350900 12024.91093249 0 53.74615981 0 3116.86383794 0 -261.16640315 0 424.06141728 0 22519
0.14450000 0.14449900 11988.26641111 0 142.66633908 0 3051.54441655 0 -758.81586451 0 -93.16408695 0 22218
0.14550000 0.14550500 11906.77169331 0 313.72768597 0 3331.58274821 0 -331.01355866 0 87.76306668 0 23559
0.14650000 0.14650700 11455.00994043 0 274.78669964 0 3315.17139814 0 -366.02256536 0 -477.43202695 0 23044
0.14750000 0.14750500 11559.43558572 0 264.33739072 0 3654.54912501 0 187.41536964 0 -375.26350433 0 23649
0.14850000 0.14849900 11112.34994355 0 236.40549772 0 3407.41217804 0 358.31934742 0 -1011.16397716 0 23640
0.14950000 0.14949500 11017.87227415 0 190.47057851 0 3134.14071812 0 352.85526710 0 -615.42000720 0 24457
0.15050000 0.15050000 10841.94484956 0 106.03373278 0 3010.87574220 0 594.30107260 0 -512.07683657 0 24591
0.15150000 0.15149900 10744.20739146 0 -5.66136498 0 2609.35969809 0 644.52317600 0 -91.20989982 0 25020
0.15250000 0.15250500 10686.45292800 0 -34.54521745 0 2455.50891153 0 483.64473461 0 -410.92222064 0 25297
0.15350000 0.15350100 10811.19042916 0 31.48629917 0 2691.13543216 0 82.33338275 0 -447.76570154 0 25452
0.15450000 0.15450400 10536.83986677 0 96.57348872 0 2011.19971009 0 -226.93300135 0 -746.07795910 0 26061
0.15550000 0.15549900 10629.75508571 0 264.20362698 0 2444.66168358 0 -461.66364211 0 -547.22635141 0 26128
0.15650000 0.15649500 10267.50263461 0 275.22845721 0 2274.37706566 0 -311.16369354 0 -649.24312525 0 26331
0.15750000 0.15749700 10114.70846922 0 185.02111103 0 2313.83174972 0 399.56354308 0 -450.61408244 0 27345
0.15850000 0.15849900 9981.00092877 0 135.19130634 0 2220.78164297 0 408.30202496 0 -89.45422258 0 26980
0.15950000 0.15949700 9857.33128943 0 200.57367538 0 1998.05938939 0 637.55622068 0 -209.25820214 0 27777
0.16050000 0.16050000 9705.94220539 0 268.13448254 0 2194.00641293 0 331.57671526 0 543.07293096 0 28224
0.16150000 0.16150500 9471.84441326 0 349.08178065 0 2057.09528703 0 -37.20745317 0 744.21538327 0 28075
0.16250000 0.16249700 9173.73111523 0 282.52813580 0 2690.85441589 0 -107.46714057 0 1053.73007335 0 28590
0.16350000 0.16349900 9115.26849078 0 133.79971378 0 2396.10207242 0 -126.71922789 0 1526.77262619 0 29163
0.16450000 0.16449100 9042.39535209 0 2.41920161 0 2733.60261062 0 260.08730068 0 1674.99184673 0 28996
0.16550000 0.16550500 8999.39986304 0 17.56565249 0 2356.43381599 0 259.12734911 0 1204.18843151 0 30777
0.16650000 0.16650700 9034.65054373 0 35.39602231 0 2361.64947793 0 440.78300931 0 937.14091990 0 29211
0.16750000 0.16749900 8858.92545086 0 195.51313442 0 2173.40230014 0 -80.17259246 0 802.81064740 0 30922
0.16850000 0.16850800 8693.75532901 0 234.73064076 0 2057.70228216 0 -236.93043611 0 666.12545858 0 30867
0.16950000 0.16949900 8557.97950883 0 135.97253157 0 2263.74341006 0 -378.97853940 0 691.37758045 0 30852
0.17050000 0.17049200 8498.69631688 0 32.11678727 0 2160.97014043 0 -39.94410200 0 581.80034493 0 31257
0.17150000 0.17149500 8605.60614598 0 -170.64881501 0 2474.37072346 0 199.22704543 0 738.29156034 0 32608
0.17250000 0.17250900 8804.02611268 0 -173.09365654 0 2220.87156818 0 351.18603046 0 695.06226576 0 32361
0.17350000 0.17350400 9047.53232947 0 -87.33457307 0 2227.27873909 0 430.68665682 0 663.54685330 0 32508
0.17450000 0.17449800 8958.97848301 0 163.56158472 0 2187.09341273 0 152.14557984 0 893.19559587 0 32791
0.17550000 0.17549800 8915.17366711 0 159.63972168 0 1951.33200430 0 93.89158186 0 1127.67332198 0 33633
0.17650000 0.17650100 8696.97015512 0 167.34631182 0 2190.52181120 0 8.13745552 0 1290.96625515 0 33984
0.17750000 0.17750300 8588.34050646 0 164.00446636 0 1822.69399733 0 157.83110098 0 893.54630417 0 34069
0.17850000 0.17849800 8487.30953769 0 139.80222127 0 1835.27228550 0 77.96133165 0 961.90294939 0 34536
