### header ###
fiducial parameters:
Omega_m = 0.31
Omega_nu = 0
Omega_de = 0.69
Omega_k = 0
H_0 = 100
w_de = -1
zeff = 0
beta = 0
fgrowth = 0
b_1 = 2
gamma = 0.55
Lx = 3500 Ly = 3500 Lz = 3500
nx = 700 ny = 700 nz = 700
xoffset = 857.220397 yoffset = 15.9954215 zoffset = 262.898189
bins = 400 dk = 0.001
kx_ny = 0.628318531 ky_ny = 0.628318531 kz_ny = 0.628318531
############################
A(data) = 3.07475809 (not used)
A(ran) = 3.07656715 (used)
Ngal = 187736
weighted Ngal = 0
Nran = 9360983
weighted Nran = 0
SN(data) = 3437.5204
SN(ran) = 69.088136
SN(data+ran) = 3506.60854
############################
13 columns: k_central k_mean P_0(k) sigma^{lin}_{P_0(k)} P^img_1(k) sigma^{lin}_{P_1(k)} P_2(k) sigma^{lin}_{P_2(k)} P^img_3(k) sigma^{lin}_{P_3(k)} P_4(k) sigma^{lin}_{P_4(k)} N_modes
### header ###
0.00050000 0 0 0 0 0 0 0 0 0 0 0 0
0.00150000 0.00179520 15902.26099564 0 -27567.92073077 0 -23268.37182617 0 59523.62947438 0 -508.87325111 0 3
0.00250000 0.00253879 31070.39509204 0 -32642.06287725 0 -7423.59551836 0 -33400.24476905 0 -161.96878451 0 6
0.00350000 0.00331552 49736.17006989 0 -28254.05005139 0 -22610.68135190 0 -14355.77226807 0 -14176.03426288 0 7
0.00450000 0.00420575 67610.04120375 0 -21588.34416791 0 -19639.44014417 0 -31038.47164396 0 -9951.50546126 0 24
0.00550000 0.00557378 80172.48005420 0 3075.74553757 0 -5687.03862758 0 -61064.27306357 0 -8657.77400602 0 45
0.00650000 0.00659388 85590.92333257 0 5418.87042309 0 10721.14157616 0 -56075.33504964 0 -25727.03936056 0 40
0.00750000 0.00754703 73971.01304591 0 16524.31860709 0 45833.07891657 0 -56884.43708925 0 -802.21152072 0 57
0.00850000 0.00846663 69361.78421367 0 15290.54478286 0 42219.32211307 0 -28770.33313946 0 -34232.83976870 0 75
0.00950000 0.00948925 58196.44584258 0 8187.28532903 0 70313.64251757 0 -1054.44048247 0 -21931.40882822 0 112
0.01050000 0.01054430 63232.70699609 0 5984.87090935 0 55690.11794909 0 17630.62345204 0 -29617.42857855 0 105
0.01150000 0.01145670 52901.53731574 0 1805.59696757 0 42565.64656209 0 39610.14226539 0 -25929.93310625 0 144
0.01250000 0.01249090 55521.73300114 0 1.47588620 0 27401.78391297 0 33619.99949084 0 -26745.66712980 0 169
0.01350000 0.01339930 53800.78937422 0 -2488.93860681 0 11706.46329728 0 29845.27656887 0 -22207.59161668 0 180
0.01450000 0.01448870 50151.62452091 0 -208.94009172 0 4.90497035 0 17405.24840488 0 -1557.67317505 0 267
0.01550000 0.01550050 50521.10471044 0 -559.85859470 0 -5412.50821478 0 6767.53493845 0 -17278.11664511 0 238
0.01650000 0.01653350 55089.41757402 0 -6038.73610766 0 -6154.97567686 0 964.38376101 0 7199.60307125 0 315
0.01750000 0.01747870 61301.78801352 0 -7479.28170209 0 -14153.21574190 0 6024.08953975 0 -6759.32926342 0 297
0.01850000 0.01844180 70008.90847625 0 -2922.97385348 0 -225.96293319 0 -14640.49795109 0 3790.43735170 0 388
0.01950000 0.01947590 64489.07452829 0 710.12473774 0 -356.00826963 0 -10581.62261928 0 -8885.62199634 0 399
0.02050000 0.02045430 67374.09994491 0 5796.45512180 0 7124.99887235 0 -11345.30118930 0 -2572.85006452 0 462
0.02150000 0.02154770 62869.97119700 0 4927.91252112 0 4848.23878874 0 -1577.26562927 0 -5493.84556347 0 571
0.02250000 0.02255340 60842.15780513 0 1631.78278532 0 9015.82245376 0 6542.38470431 0 -8189.29740551 0 510
0.02350000 0.02348930 55491.72046368 0 336.81823070 0 5526.42096929 0 10256.54300014 0 -9627.08904051 0 555
0.02450000 0.02439640 57172.42256098 0 -560.54989472 0 -1458.53063560 0 2079.57658849 0 -5959.41083545 0 592
0.02550000 0.02547300 55698.43603063 0 -424.66166803 0 2313.69686191 0 -1700.89030601 0 -5093.17256816 0 837
0.02650000 0.02652900 56994.93268594 0 6.31259208 0 49.84104534 0 -1488.80170802 0 -1462.85828613 0 723
0.02750000 0.02749970 59118.40401553 0 584.20022386 0 7085.54418828 0 -5361.67799218 0 -1335.43426944 0 826
0.02850000 0.02848090 57330.69092327 0 -144.36255327 0 1555.78474572 0 -1294.01247150 0 -2735.41235539 0 831
0.02950000 0.02946900 57938.58531481 0 221.47229322 0 2516.80417997 0 418.28484687 0 -3159.31977575 0 996
0.03050000 0.03053250 57807.96895331 0 546.16860617 0 1644.28238893 0 1064.87967481 0 -3120.04494210 0 1041
0.03150000 0.03150510 56926.25230997 0 33.06617263 0 300.18045371 0 4090.55148556 0 -11104.47024739 0 1036
0.03250000 0.03246190 59259.81140173 0 404.11488256 0 623.07826254 0 759.58022876 0 85.92285975 0 1059
0.03350000 0.03345080 57943.41879462 0 229.89491282 0 4246.63916161 0 -4630.97949141 0 -10526.54343070 0 1302
0.03450000 0.03451200 57518.74701000 0 1864.22820178 0 3407.07495852 0 -7064.95131614 0 3444.95595148 0 1339
0.03550000 0.03553350 56559.69468964 0 2035.05237094 0 13484.62183642 0 -4314.02686275 0 -1760.73553050 0 1365
0.03650000 0.03647120 56015.08516172 0 2835.00452086 0 14677.14247247 0 -6666.32411927 0 1416.37819536 0 1308
0.03750000 0.03744890 53160.74672160 0 3491.60465201 0 19327.39967988 0 -1483.14766070 0 -2094.86387348 0 1579
0.03850000 0.03847530 49472.35199724 0 3613.73432220 0 18246.49870559 0 2548.80631260 0 -2498.87534205 0 1662
0.03950000 0.03950240 46861.03642592 0 2421.75323739 0 20114.58245057 0 1080.58173981 0 -1697.63051730 0 1683
0.04050000 0.04050350 45507.99929743 0 978.27832938 0 19713.17881297 0 3905.76642820 0 -801.72255241 0 1822
0.04150000 0.04152450 46692.53907146 0 -592.90385972 0 21398.71439008 0 16.40280717 0 2391.48216497 0 1887
0.04250000 0.04250150 46917.91411862 0 -1003.50122555 0 22580.89362746 0 4475.38640399 0 2222.36657472 0 1920
0.04350000 0.04349210 47602.35734163 0 -197.85006571 0 21972.32479688 0 -377.09685446 0 4500.11583560 0 2005
0.04450000 0.04448520 48242.39999425 0 1186.59681312 0 23673.03525248 0 2992.53100021 0 7575.89509512 0 2151
0.04550000 0.04548030 47616.97018758 0 2244.71298838 0 25434.55762854 0 954.81796724 0 8926.02089507 0 2274
0.04650000 0.04648670 45658.84883024 0 2162.75740390 0 23525.10828886 0 33.76579073 0 5788.37309392 0 2311
0.04750000 0.04749250 43658.91225218 0 1904.18871513 0 22543.57466703 0 1753.99114006 0 4708.00043022 0 2568
0.04850000 0.04851840 41630.08720175 0 556.05251036 0 19755.33125321 0 -291.06428596 0 -1394.78490530 0 2493
0.04950000 0.04949480 40674.63188961 0 931.73416690 0 17156.60521071 0 -1391.27782228 0 -6830.57250775 0 2644
0.05050000 0.05050630 40842.45480503 0 851.41746929 0 18123.75079961 0 -708.14076288 0 -8941.92641585 0 2829
0.05150000 0.05149060 38551.27296653 0 890.24267692 0 18635.98725342 0 -1600.78107060 0 -11295.05548053 0 2784
0.05250000 0.05249300 39159.61698409 0 783.18784342 0 18008.98375564 0 1452.70797852 0 -12070.32316145 0 3055
0.05350000 0.05348950 37101.56624175 0 403.64165116 0 17237.31308296 0 796.93515927 0 -11719.16523261 0 3009
0.05450000 0.05448610 37704.85196649 0 844.62024780 0 17306.55549146 0 3144.32474768 0 -8207.69835076 0 3336
0.05550000 0.05550870 36208.60894768 0 654.42731336 0 17298.79944246 0 2294.18309224 0 -8138.16368533 0 3349
0.05650000 0.05647670 36003.35466534 0 1390.46849542 0 15495.01221966 0 999.16907876 0 -6731.68850327 0 3324
0.05750000 0.05747970 33895.95746629 0 1395.11088418 0 15319.32084873 0 1054.69227305 0 -7778.54154650 0 3639
0.05850000 0.05849280 33509.95352019 0 615.53690996 0 12381.91399971 0 700.64324884 0 -6451.33543339 0 3846
0.05950000 0.05951020 32873.95750183 0 -169.14481594 0 11426.45868757 0 2276.88373077 0 -7057.63365252 0 3787
0.06050000 0.06049470 33269.62840756 0 204.37189127 0 9642.25267835 0 100.94464057 0 -8944.61293138 0 3930
0.06150000 0.06148310 32489.86446635 0 161.33481181 0 8534.29545774 0 852.94956999 0 -7748.51776839 0 4083
0.06250000 0.06249100 32237.39945093 0 872.69489706 0 8647.94967729 0 -800.75698051 0 -7240.23802364 0 4303
0.06350000 0.06350600 31742.13637972 0 868.82249289 0 10159.26640872 0 513.74157694 0 -4110.02029263 0 4470
0.06450000 0.06451750 31322.52288794 0 416.12102161 0 11491.20483578 0 1243.29465540 0 -2993.37404901 0 4479
0.06550000 0.06550280 31427.96019179 0 302.84111573 0 12229.04114977 0 -662.14064789 0 548.31557046 0 4636
0.06650000 0.06648880 31451.45315182 0 717.15913696 0 13940.65503658 0 -1218.34041078 0 -1589.69778898 0 4653
0.06750000 0.06749660 31273.85087027 0 1098.45212634 0 15456.56919416 0 -1545.60071616 0 523.00949347 0 5220
0.06850000 0.06852730 30238.69934445 0 700.17676184 0 16562.87403910 0 -1616.92264505 0 -356.35785386 0 5029
0.06950000 0.06949320 29828.19077976 0 862.87843678 0 16643.80672436 0 -622.86693831 0 -3813.27835398 0 5040
0.07050000 0.07048030 29509.85555106 0 39.87688291 0 16926.28427723 0 663.24110760 0 -2727.97104460 0 5475
0.07150000 0.07148790 29164.76757361 0 412.10136490 0 14641.17239013 0 2267.57647196 0 -6044.09789805 0 5509
0.07250000 0.07249820 28928.60150176 0 241.86170958 0 14269.89369649 0 2249.88368771 0 -4761.01133906 0 5916
0.07350000 0.07351270 28592.73085791 0 446.12681467 0 14191.43395438 0 2064.96374254 0 -4228.14829116 0 5721
0.07450000 0.07449140 28304.97019920 0 313.22185668 0 12248.82469505 0 1548.28723169 0 -4021.80366569 0 6028
0.07550000 0.07549160 27725.40224751 0 250.13258039 0 12639.32490145 0 1817.77059231 0 -2476.01185847 0 6183
0.07650000 0.07648840 27732.48385747 0 13.83375645 0 11502.89511255 0 1107.55030905 0 -1805.79929928 0 6330
0.07750000 0.07749960 27069.95990339 0 339.34512898 0 10787.83235694 0 1419.30076455 0 -2626.95131648 0 6583
0.07850000 0.07848650 27627.72099266 0 537.38291356 0 11225.77935007 0 419.01661323 0 -2361.69444053 0 6549
0.07950000 0.07947320 25898.12206468 0 1005.42562496 0 10228.27276356 0 646.66789216 0 -1689.26747315 0 6828
0.08050000 0.08048110 25333.05455243 0 1095.07655893 0 10419.89213657 0 731.26053330 0 -798.14690141 0 7147
0.08150000 0.08149960 24667.49562265 0 914.74392332 0 9393.90174110 0 744.08274359 0 606.72986012 0 7386
0.08250000 0.08250610 23938.65182926 0 917.92165528 0 9788.48230371 0 1757.76799871 0 225.08054211 0 7227
0.08350000 0.08350160 23187.66395392 0 714.57153916 0 9961.39723390 0 1405.37359829 0 2934.46179853 0 7798
0.08450000 0.08449610 22215.90969822 0 397.95275783 0 9408.71691876 0 979.06629899 0 3871.83090364 0 7371
0.08550000 0.08548940 22269.64000872 0 439.54878586 0 9008.36990232 0 1350.08083735 0 1925.62463608 0 8256
0.08650000 0.08650700 21661.74561719 0 151.36323055 0 7821.84053311 0 404.50156095 0 3303.49236203 0 8037
0.08750000 0.08749060 21535.73792249 0 341.41340872 0 7538.39628428 0 1761.16267523 0 1494.55692119 0 8155
0.08850000 0.08849210 21397.70273151 0 180.31240244 0 7444.85158890 0 514.43175290 0 2269.76839886 0 8718
0.08950000 0.08949900 21240.89565382 0 -37.13517579 0 5568.34859652 0 457.47312751 0 139.10305280 0 8571
0.09050000 0.09049190 21549.22670337 0 -239.23589357 0 6181.05398656 0 -256.32055862 0 341.06045228 0 8932
0.09150000 0.09150830 21288.10638689 0 171.89540317 0 5754.15655310 0 -694.95772770 0 -1264.58444789 0 9285
0.09250000 0.09250820 21451.65785502 0 493.55112010 0 7641.76530840 0 -952.66088636 0 -828.93279564 0 9204
0.09350000 0.09350330 20372.33057183 0 532.73153229 0 6396.37989196 0 83.40832618 0 -1149.44646245 0 9349
0.09450000 0.09448040 20759.45858301 0 450.22515592 0 7033.63486320 0 57.81842276 0 -1330.13992295 0 9564
0.09550000 0.09549270 19747.46279770 0 128.44017151 0 5964.51409088 0 1328.34141883 0 -1387.09630020 0 10155
0.09650000 0.09649430 20038.03361909 0 61.49254186 0 5796.94971043 0 1774.22431138 0 -1323.35056991 0 9913
0.09750000 0.09749140 19616.39681017 0 -56.73920788 0 4539.62672292 0 898.07628641 0 -493.37239375 0 10476
0.09850000 0.09850240 19739.48193568 0 5.09003643 0 4261.43185798 0 889.28384941 0 -1313.49251922 0 10575
0.09950000 0.09950330 19423.61965014 0 17.00856584 0 3545.44736901 0 198.58408020 0 -298.10205739 0 10882
0.10050000 0.10051200 19287.72018280 0 271.21554490 0 3150.18112671 0 -86.01087404 0 413.25690380 0 10875
0.10150000 0.10150300 19155.86734973 0 255.97771877 0 3831.42076426 0 601.74575558 0 274.48545020 0 11118
0.10250000 0.10250800 18909.02265967 0 494.05582532 0 2766.65012377 0 238.16241143 0 1164.91359786 0 11575
0.10350000 0.10349800 18248.97164875 0 550.46927914 0 3106.52243927 0 380.06551032 0 -148.97571633 0 11364
0.10450000 0.10450100 17876.11926400 0 528.81641364 0 2678.30984967 0 -411.34599318 0 402.44452186 0 12093
0.10550000 0.10551000 17312.06341032 0 828.40448505 0 2860.55451997 0 -1173.68130543 0 -778.04074945 0 12067
0.10650000 0.10649700 16713.27394588 0 752.87068433 0 3710.03297702 0 -952.71596555 0 -380.55110643 0 12054
0.10750000 0.10749900 16115.72095302 0 696.13237571 0 3960.84561678 0 -765.74797381 0 -1334.84975561 0 12807
0.10850000 0.10850100 15820.76627784 0 352.69677392 0 4504.08378531 0 -366.67452311 0 -1203.69384288 0 12736
0.10950000 0.10950300 15721.28651887 0 59.98595744 0 5418.61188813 0 726.51248244 0 -386.98075865 0 12933
0.11050000 0.11050200 15671.26562312 0 108.53207982 0 5074.36695949 0 597.23263431 0 -769.27416595 0 13428
0.11150000 0.11150900 15949.92135474 0 -89.63980573 0 5317.47975350 0 1164.31784337 0 1244.35127657 0 13453
0.11250000 0.11250000 15710.72030718 0 139.48860712 0 5000.40347768 0 366.21702862 0 784.27593841 0 13668
0.11350000 0.11349100 15979.14704664 0 4.59187327 0 5145.48655667 0 869.83190332 0 3075.08233918 0 13791
0.11450000 0.11448600 15820.99109086 0 139.23906467 0 5684.95910720 0 40.10506812 0 2397.57459767 0 14205
0.11550000 0.11549300 15916.64902858 0 254.51643418 0 5291.61501617 0 -136.46936833 0 3031.34496718 0 14776
0.11650000 0.11649800 15717.12747810 0 316.11070392 0 6178.56980275 0 -430.74510821 0 2420.65165362 0 14553
0.11750000 0.11747300 15364.05863864 0 304.88803823 0 5877.70254528 0 -586.08190879 0 2371.56373188 0 14568
0.11850000 0.11849100 15447.01464104 0 243.22520052 0 6703.66556100 0 -561.89427655 0 2257.08894483 0 16015
0.11950000 0.11950300 14871.26851059 0 129.41023967 0 5524.28524565 0 -64.91768054 0 370.11191410 0 15270
0.12050000 0.12050700 14890.04039731 0 143.38798885 0 6138.94650892 0 734.77098853 0 1063.28013021 0 15999
0.12150000 0.12150000 14503.92404471 0 153.96656526 0 5318.16543320 0 441.58671584 0 -261.89142512 0 15670
0.12250000 0.12250700 14456.26368561 0 123.01655753 0 5060.05761111 0 668.65123280 0 76.48554661 0 16887
0.12350000 0.12352200 14113.76105783 0 228.52130530 0 4923.84340555 0 453.22191341 0 -704.27959936 0 16407
0.12450000 0.12449800 14050.02656819 0 234.62835084 0 4624.40371073 0 183.20799407 0 119.32737596 0 16306
0.12550000 0.12549900 13595.56705913 0 227.88958072 0 4294.89527520 0 278.85356707 0 -433.27987495 0 17523
0.12650000 0.12650100 13598.48962832 0 222.25913877 0 4509.13083748 0 162.24980078 0 -18.06608626 0 17154
0.12750000 0.12750600 13254.97534198 0 165.77262072 0 4114.97741960 0 109.92131184 0 -181.72085598 0 18007
0.12850000 0.12850300 13438.42276191 0 104.23140685 0 4206.92594258 0 125.95486364 0 -204.61131713 0 17496
0.12950000 0.12949900 13186.29496602 0 137.70021958 0 4247.71826408 0 116.32387409 0 -670.92184425 0 18405
0.13050000 0.13049000 13150.32488368 0 163.30192569 0 4376.91830359 0 -233.92468610 0 -506.74539593 0 18100
0.13150000 0.13148800 12975.75757783 0 243.86704167 0 4508.59128625 0 -328.10447825 0 -410.49957218 0 19059
0.13250000 0.13249300 12924.94983652 0 277.08091645 0 4439.80974443 0 -245.61046660 0 -976.46858461 0 18957
0.13350000 0.13349100 12627.18499866 0 188.75975147 0 4350.78379064 0 196.97554308 0 -484.48890748 0 19468
0.13450000 0.13450700 12623.47558392 0 130.22631091 0 4288.45438233 0 445.20395724 0 -352.00210171 0 19953
0.13550000 0.13551000 12469.02904287 0 -52.34591195 0 4153.17315079 0 900.60543283 0 -775.47563295 0 19956
0.13650000 0.13649900 12402.59679705 0 24.43065511 0 3757.99683369 0 126.69562252 0 -639.95047929 0 19723
0.13750000 0.13749600 12450.70678218 0 90.56120187 0 3826.45239664 0 135.16095658 0 -640.78003931 0 20946
0.13850000 0.13851100 12260.06534578 0 228.36843245 0 3766.35987783 0 -249.41430281 0 -280.77459428 0 20955
0.13950000 0.13949800 12244.89046730 0 113.46200441 0 3738.53926727 0 15.38238090 0 -521.95736856 0 20506
0.14050000 0.14048300 12216.67643396 0 -33.48882110 0 4122.56485884 0 291.82190582 0 -120.02879257 0 21447
0.14150000 0.14148400 12279.17445203 0 -28.57058678 0 3660.09076582 0 132.22265048 0 -855.67205560 0 21771
0.14250000 0.14249400 12307.50089187 0 18.69972174 0 3878.95747620 0 141.40513807 0 -648.68334084 0 22470
0.14350000 0.14350900 12065.04005560 0 290.39546724 0 3337.59649635 0 -81.09747320 0 -740.91288009 0 22519
0.14450000 0.14449900 11854.05304138 0 337.52189543 0 3789.16715816 0 -288.50591386 0 -697.03162776 0 22218
0.14550000 0.14550500 11606.42150578 0 388.61290114 0 3597.75011687 0 -77.59263830 0 -732.21823675 0 23559
0.14650000 0.14650700 11350.35948213 0 353.38020549 0 4092.34998968 0 -28.71975021 0 -704.44371286 0 23044
0.14750000 0.14750500 11158.59398065 0 306.97093081 0 4097.10478494 0 -11.68195868 0 33.77163587 0 23649
0.14850000 0.14849900 10872.66554801 0 283.94333373 0 4288.83656446 0 113.67557678 0 -271.65955061 0 23640
0.14950000 0.14949500 10832.92984768 0 247.73719772 0 4310.33992931 0 136.64022622 0 225.09627902 0 24457
0.15050000 0.15050000 10560.41151135 0 225.23229089 0 4602.82166133 0 423.26782734 0 445.74013628 0 24591
0.15150000 0.15149900 10417.90254139 0 106.30339600 0 3976.29027088 0 375.74235605 0 545.25811346 0 25020
0.15250000 0.15250500 10432.35801823 0 60.12286856 0 4069.89116952 0 375.95255622 0 411.78887481 0 25297
0.15350000 0.15350100 10288.81490839 0 25.37048592 0 3575.52735037 0 124.26876603 0 232.07335093 0 25452
0.15450000 0.15450400 10243.06545992 0 109.33432506 0 3494.87568138 0 180.26519171 0 97.92866157 0 26061
0.15550000 0.15549900 10015.04885984 0 85.36431181 0 3212.43185046 0 225.65943562 0 198.03328832 0 26128
0.15650000 0.15649500 10062.29331486 0 62.74104093 0 2964.80031485 0 500.47873315 0 124.89824247 0 26331
0.15750000 0.15749700 9852.81254784 0 88.65445028 0 2399.08084486 0 735.31728415 0 -124.30361204 0 27345
0.15850000 0.15849900 9767.31615838 0 87.47294548 0 2213.30661023 0 498.04400820 0 170.91184623 0 26980
0.15950000 0.15949700 9660.96836181 0 135.02044845 0 2085.93879680 0 204.14145793 0 -63.35309437 0 27777
0.16050000 0.16050000 9629.26972675 0 174.22783820 0 2307.00867473 0 -219.26013316 0 446.19201044 0 28224
0.16150000 0.16150500 9554.78917501 0 115.62020935 0 2516.43323850 0 -407.88387275 0 128.68521770 0 28075
0.16250000 0.16249700 9528.01394497 0 73.52520884 0 2846.22269029 0 -325.92491608 0 402.88965163 0 28590
0.16350000 0.16349900 9516.14381779 0 96.40465415 0 2850.75267254 0 -164.77557500 0 429.89643908 0 29163
0.16450000 0.16449100 9554.41823353 0 58.99352039 0 3291.79084462 0 145.68445380 0 585.51537999 0 28996
0.16550000 0.16550500 9331.38124173 0 143.60493341 0 2869.69316902 0 183.69921051 0 44.46981280 0 30777
0.16650000 0.16650700 9346.03905028 0 122.51859671 0 2791.46948058 0 313.43093279 0 -179.30748827 0 29211
0.16750000 0.16749900 9120.09072994 0 167.00796824 0 2374.22776610 0 -4.60457520 0 -301.61026448 0 30922
0.16850000 0.16850800 8950.50303236 0 117.19839672 0 2549.95285898 0 -117.97737381 0 -599.86069845 0 30867
0.16950000 0.16949900 8783.84914462 0 112.75496748 0 2348.09325315 0 -190.88760665 0 -878.58499805 0 30852
0.17050000 0.17049200 8848.78638390 0 43.17039357 0 2345.47418153 0 55.63256582 0 -861.66781870 0 31257
0.17150000 0.17149500 8747.91278424 0 113.25180424 0 2327.06199563 0 -67.39489515 0 -1010.62330186 0 32608
0.17250000 0.17250900 8748.42985417 0 98.77126075 0 2356.15279972 0 239.63156448 0 -679.13763587 0 32361
0.17350000 0.17350400 8527.14640388 0 177.42355520 0 2418.69578039 0 291.15983149 0 -797.58711701 0 32508
0.17450000 0.17449800 8538.85916194 0 130.83780231 0 2180.23661578 0 256.53188285 0 -349.95293108 0 32791
0.17550000 0.17549800 8376.26314912 0 107.41903058 0 2004.23050664 0 225.87300798 0 -688.74726817 0 33633
0.17650000 0.17650100 8409.52423463 0 78.25089081 0 2289.27092787 0 6.24332719 0 -54.96363469 0 33984
0.17750000 0.17750300 8260.36079943 0 39.87834419 0 2042.10025895 0 91.90850626 0 -224.69161559 0 34069
0.17850000 0.17849800 8301.50158111 0 55.05962985 0 2239.19382887 0 156.26640240 0 336.57543264 0 34536
