### header ###
fiducial parameters:
Omega_m = 0.31
Omega_nu = 0
Omega_de = 0.69
Omega_k = 0
H_0 = 100
w_de = -1
zeff = 0
beta = 0
fgrowth = 0
b_1 = 2
gamma = 0.55
Lx = 3500 Ly = 3500 Lz = 3500
nx = 700 ny = 700 nz = 700
xoffset = 857.220397 yoffset = 15.9954215 zoffset = 262.898189
bins = 400 dk = 0.001
kx_ny = 0.628318531 ky_ny = 0.628318531 kz_ny = 0.628318531
############################
A(data) = 3.09134699 (not used)
A(ran) = 3.08784468 (used)
Ngal = 188397
weighted Ngal = 0
Nran = 9360983
weighted Nran = 0
SN(data) = 3460.56851
SN(ran) = 69.3413869
SN(data+ran) = 3529.9099
############################
13 columns: k_central k_mean P_0(k) sigma^{lin}_{P_0(k)} P^img_1(k) sigma^{lin}_{P_1(k)} P_2(k) sigma^{lin}_{P_2(k)} P^img_3(k) sigma^{lin}_{P_3(k)} P_4(k) sigma^{lin}_{P_4(k)} N_modes
### header ###
0.00050000 0 0 0 0 0 0 0 0 0 0 0 0
0.00150000 0.00179520 15594.04235260 0 -24102.09089088 0 -3094.71975600 0 -1211.67470490 0 -35047.22491416 0 3
0.00250000 0.00253879 30017.70815108 0 -28513.37186375 0 -26686.76611997 0 -1602.70322188 0 8516.73756130 0 6
0.00350000 0.00331552 44291.08644930 0 -26712.61961665 0 -30204.07814020 0 -13978.42362303 0 8888.76937855 0 7
0.00450000 0.00420575 57678.13943737 0 -19668.32861655 0 -39491.32858716 0 -18435.34163787 0 -1750.86623916 0 24
0.00550000 0.00557378 66061.07953302 0 -3914.12947234 0 -34446.63694560 0 -27538.80744538 0 6448.19929183 0 45
0.00650000 0.00659388 62481.71912075 0 6397.15549686 0 -15983.08127440 0 -47105.29576631 0 1486.01402664 0 40
0.00750000 0.00754703 56633.65817145 0 9517.30160482 0 -5925.57647675 0 -31249.00903216 0 19507.92453062 0 57
0.00850000 0.00846663 51313.23336745 0 7252.61398009 0 16777.23324854 0 -19506.35083952 0 7835.30683269 0 75
0.00950000 0.00948925 51852.44738302 0 -549.83418238 0 18926.44566831 0 -6150.55810113 0 973.93269381 0 112
0.01050000 0.01054430 57289.99976763 0 -8442.11088110 0 28966.37008821 0 2606.86427363 0 -9708.28026074 0 105
0.01150000 0.01145670 63829.69795641 0 -6461.77799792 0 18917.67796074 0 3889.54616919 0 -21157.26521238 0 144
0.01250000 0.01249090 68800.65092918 0 -3917.11948543 0 13955.38028903 0 -1600.41012913 0 -26703.06506353 0 169
0.01350000 0.01339930 70610.28329036 0 918.71861742 0 -8513.71382626 0 -1132.81029937 0 -37218.46900936 0 180
0.01450000 0.01448870 66052.08701244 0 5417.03819703 0 4999.41430042 0 -14781.23089824 0 -21045.98277014 0 267
0.01550000 0.01550050 57195.01626895 0 5786.96801258 0 -13474.05562473 0 -15501.98142311 0 -40359.66885613 0 238
0.01650000 0.01653350 58732.73728895 0 1039.14195683 0 15210.17413013 0 -5061.41772985 0 -4361.41744623 0 315
0.01750000 0.01747870 55796.79172452 0 1141.16210286 0 -1929.23288496 0 -10720.07371434 0 -20512.83870597 0 297
0.01850000 0.01844180 60187.27749354 0 -96.89384727 0 37691.92521814 0 1460.95861616 0 13356.59082459 0 388
0.01950000 0.01947590 65976.99946555 0 -806.02547351 0 37931.23867221 0 -5319.52555193 0 1416.07469779 0 399
0.02050000 0.02045430 62146.74772897 0 2239.07018171 0 40434.98121603 0 -815.06408076 0 13788.11940616 0 462
0.02150000 0.02154770 69447.21315922 0 -146.92429757 0 64191.30969043 0 3288.94695998 0 26217.58135846 0 571
0.02250000 0.02255340 66753.95324408 0 -2602.42421659 0 41022.08040371 0 127.98155296 0 -435.56509924 0 510
0.02350000 0.02348930 76554.78902294 0 251.04307310 0 64398.25007038 0 5346.31202263 0 13489.00569020 0 555
0.02450000 0.02439640 71307.76566822 0 1061.21971893 0 49682.55216591 0 -1858.85517073 0 -6341.35690663 0 592
0.02550000 0.02547300 76659.21466823 0 1320.15822510 0 66103.56919278 0 1300.54328958 0 3606.67519355 0 837
0.02650000 0.02652900 73596.69937657 0 3325.68140657 0 62011.63510718 0 6427.40408798 0 -4918.58278101 0 723
0.02750000 0.02749970 72529.62440268 0 2561.13730645 0 53596.54675044 0 8981.79700400 0 1040.49982743 0 826
0.02850000 0.02848090 70941.43286089 0 2694.37273957 0 60613.29815625 0 17185.49368309 0 1148.63713560 0 831
0.02950000 0.02946900 67250.90241290 0 2110.02751132 0 52808.12750817 0 11716.35506993 0 8027.16225936 0 996
0.03050000 0.03053250 65202.96825622 0 3258.72085017 0 45465.17241815 0 16792.18331401 0 11439.61024893 0 1041
0.03150000 0.03150510 64793.92097612 0 2285.90997331 0 47876.40440645 0 5134.31334984 0 13472.48193363 0 1036
0.03250000 0.03246190 59324.22033042 0 1646.03593044 0 38528.90407157 0 1442.71504002 0 12956.08643905 0 1059
0.03350000 0.03345080 60829.23105679 0 1452.48316551 0 42926.58385706 0 7474.53814748 0 11602.03765199 0 1302
0.03450000 0.03451200 55808.25718827 0 943.24346918 0 29477.93210298 0 8679.43473998 0 9595.54777456 0 1339
0.03550000 0.03553350 55247.34871679 0 2001.18429029 0 29101.93233603 0 10856.92863699 0 3554.17011398 0 1365
0.03650000 0.03647120 52961.00035811 0 1647.20495812 0 22634.62393795 0 8372.82350999 0 -352.26625700 0 1308
0.03750000 0.03744890 49586.66941517 0 3058.71595171 0 17836.32736041 0 6110.09175850 0 -1224.21927111 0 1579
0.03850000 0.03847530 47837.73656794 0 3226.03303784 0 15597.30214131 0 -1782.68852138 0 -3301.49152620 0 1662
0.03950000 0.03950240 45851.06395774 0 1043.35270459 0 14537.19637087 0 -3805.24128871 0 -3133.55620428 0 1683
0.04050000 0.04050350 46289.56174276 0 -396.78373015 0 12894.71248606 0 -25.30585218 0 -7889.00342123 0 1822
0.04150000 0.04152450 45815.43109492 0 -1081.96658798 0 14206.27161335 0 -650.54029634 0 -5325.53930008 0 1887
0.04250000 0.04250150 47678.23173406 0 -490.78704409 0 11711.29677710 0 5525.36434812 0 -6289.79604173 0 1920
0.04350000 0.04349210 48373.69079479 0 1189.81163922 0 14113.98587085 0 4682.66400347 0 -1965.30413316 0 2005
0.04450000 0.04448520 45698.52832732 0 2164.54466736 0 11121.82581211 0 3098.86755612 0 -2657.69449623 0 2151
0.04550000 0.04548030 44102.91795606 0 2410.87228748 0 14139.16492848 0 3317.57689740 0 404.16209329 0 2274
0.04650000 0.04648670 42713.34871269 0 1446.44693606 0 13906.48345835 0 -792.65471947 0 2083.62322275 0 2311
0.04750000 0.04749250 40279.52301642 0 1241.04652526 0 14894.98628364 0 1176.59263397 0 1833.11408056 0 2568
0.04850000 0.04851840 40809.63210489 0 1040.41215036 0 17121.30956742 0 -1481.48404439 0 2799.46158325 0 2493
0.04950000 0.04949480 39267.63963762 0 751.07667648 0 14152.87852238 0 1680.49976558 0 -305.35115304 0 2644
0.05050000 0.05050630 38947.39349829 0 1739.70427298 0 17230.68109903 0 -2764.63804729 0 413.06806087 0 2829
0.05150000 0.05149060 37095.94591639 0 1688.26705524 0 13106.93597186 0 -272.81621357 0 -2499.42613394 0 2784
0.05250000 0.05249300 36284.48334012 0 1424.95481187 0 18796.61615236 0 746.96709457 0 3837.22094004 0 3055
0.05350000 0.05348950 34570.62132316 0 1728.83456373 0 18218.73429828 0 650.94158757 0 2023.65435110 0 3009
0.05450000 0.05448610 34375.59603298 0 1448.47025320 0 23160.57398566 0 1873.47925733 0 7834.81224406 0 3336
0.05550000 0.05550870 31683.79740243 0 1334.45633283 0 21770.77992928 0 1868.55585231 0 6688.89534594 0 3349
0.05650000 0.05647670 32266.84995585 0 1045.93805426 0 21476.61209965 0 805.39037675 0 9142.18984928 0 3324
0.05750000 0.05747970 32034.05607921 0 -831.95990288 0 21348.91830734 0 4060.81996438 0 9141.78518585 0 3639
0.05850000 0.05849280 32553.93617552 0 -1025.46545708 0 17764.83682177 0 1895.15123194 0 5075.21000830 0 3846
0.05950000 0.05951020 34313.54764095 0 -1003.34835270 0 16050.07555275 0 3213.66832204 0 6687.70383696 0 3787
0.06050000 0.06049470 33615.27841754 0 -376.79897722 0 14564.51115215 0 2727.00434864 0 2941.70077760 0 3930
0.06150000 0.06148310 33245.91063452 0 273.25122675 0 9757.21081337 0 2594.82553669 0 3238.31906909 0 4083
0.06250000 0.06249100 33422.38885099 0 399.68719024 0 7814.56783209 0 1932.81865254 0 -554.33718706 0 4303
0.06350000 0.06350600 32679.71905720 0 266.12353012 0 9268.06265616 0 1226.91702729 0 2217.08346888 0 4470
0.06450000 0.06451750 32742.55429478 0 750.39998930 0 7364.51465812 0 -329.40614561 0 573.58904957 0 4479
0.06550000 0.06550280 31908.38560404 0 767.12045727 0 10345.86121085 0 -228.83604352 0 3206.48554622 0 4636
0.06650000 0.06648880 32045.97116898 0 807.13155354 0 8911.43053042 0 -1357.49966683 0 1725.08018638 0 4653
0.06750000 0.06749660 30932.35990106 0 826.23841166 0 10263.99555158 0 12.57851298 0 4007.53927991 0 5220
0.06850000 0.06852730 30439.00774048 0 554.84751260 0 11082.18003699 0 -277.71264102 0 2976.88401439 0 5029
0.06950000 0.06949320 29851.00930074 0 570.06510556 0 8742.55099384 0 2583.37131360 0 2384.68157128 0 5040
0.07050000 0.07048030 29463.76888306 0 281.90427968 0 9328.54859775 0 1657.49015354 0 2326.96082977 0 5475
0.07150000 0.07148790 28795.28738409 0 282.44720311 0 5675.85418011 0 1904.26739969 0 1418.97478568 0 5509
0.07250000 0.07249820 28439.52078845 0 285.02918059 0 5183.47995614 0 2082.38675117 0 75.48670239 0 5916
0.07350000 0.07351270 27551.84660023 0 399.40504990 0 3562.01608819 0 1117.24087404 0 -743.59489935 0 5721
0.07450000 0.07449140 27379.52742452 0 391.03975763 0 3667.57703921 0 -193.18631972 0 387.44724566 0 6028
0.07550000 0.07549160 27037.47442277 0 310.60166100 0 3918.92923020 0 -27.17584683 0 773.15106638 0 6183
0.07650000 0.07648840 27073.10728559 0 68.14318527 0 4806.06386719 0 -1432.36240070 0 -432.71109802 0 6330
0.07750000 0.07749960 27544.76499026 0 142.68882038 0 6585.08793644 0 -1019.13247446 0 1692.31368950 0 6583
0.07850000 0.07848650 26952.27029023 0 396.02948249 0 7199.79416231 0 -680.73268420 0 -177.29765991 0 6549
0.07950000 0.07947320 27417.97045002 0 1006.91501118 0 9798.50896416 0 -972.08922709 0 4032.74081885 0 6828
0.08050000 0.08048110 26500.73335037 0 1183.87657564 0 9574.95490242 0 293.78227531 0 1513.94704370 0 7147
0.08150000 0.08149960 25291.57655124 0 1170.27538825 0 10337.16094719 0 650.66281943 0 3617.56738410 0 7386
0.08250000 0.08250610 24049.14742594 0 1137.31780031 0 9118.52827949 0 2212.35115492 0 1631.59169425 0 7227
0.08350000 0.08350160 23577.26490825 0 534.36479884 0 7919.02719933 0 1636.44765537 0 2331.33344291 0 7798
0.08450000 0.08449610 22717.13031432 0 119.37233857 0 6745.95288905 0 1680.37611843 0 2445.12255026 0 7371
0.08550000 0.08548940 22648.44993835 0 114.49052396 0 5574.28366010 0 583.35942318 0 -130.63209841 0 8256
0.08650000 0.08650700 22691.27681764 0 376.21446338 0 6336.41102031 0 -26.71273202 0 967.41424045 0 8037
0.08750000 0.08749060 22307.29618867 0 623.85049524 0 5705.78803300 0 -810.55433169 0 218.43956566 0 8155
0.08850000 0.08849210 21934.66861693 0 807.29229485 0 7184.91154074 0 -832.75012062 0 1702.10429629 0 8718
0.08950000 0.08949900 21416.81183776 0 500.63048193 0 7727.95861821 0 -675.36190128 0 772.62387986 0 8571
0.09050000 0.09049190 21540.45899580 0 260.23455320 0 9214.92810016 0 -43.22491073 0 2067.20063203 0 8932
0.09150000 0.09150830 20671.10706826 0 91.59073307 0 8309.75221874 0 -165.07457631 0 1420.49227353 0 9285
0.09250000 0.09250820 21326.54941239 0 34.33276915 0 10102.00653389 0 159.48235257 0 2138.45511702 0 9204
0.09350000 0.09350330 20891.42382259 0 -1.84836764 0 9706.78525419 0 -4.88524301 0 2331.08614859 0 9349
0.09450000 0.09448040 21513.36902754 0 229.10581913 0 10551.81241355 0 787.02202939 0 2685.03175881 0 9564
0.09550000 0.09549270 20823.30547916 0 422.22244682 0 9988.95930949 0 1059.36950782 0 3350.87170486 0 10155
0.09650000 0.09649430 20304.54944793 0 542.52101501 0 10188.44713802 0 767.30817613 0 3443.29233517 0 9913
0.09750000 0.09749140 19965.41901537 0 561.32212742 0 10096.79087195 0 727.21839530 0 3791.20171595 0 10476
0.09850000 0.09850240 19555.58488972 0 521.31440334 0 9642.51121331 0 290.70908140 0 2700.29656250 0 10575
0.09950000 0.09950330 19123.04464959 0 499.57835702 0 9653.14486890 0 -102.56554241 0 3191.76029376 0 10882
0.10050000 0.10051200 18612.71910640 0 621.62934266 0 8444.95476573 0 -332.96043937 0 1757.68931415 0 10875
0.10150000 0.10150300 18118.91731979 0 328.41921647 0 8580.58445745 0 -9.98278819 0 1258.48077454 0 11118
0.10250000 0.10250800 17897.36409388 0 376.93723722 0 8005.10810263 0 427.88436260 0 1208.81957961 0 11575
0.10350000 0.10349800 17299.69869452 0 299.55210133 0 7226.83916797 0 1053.53336196 0 -175.05065383 0 11364
0.10450000 0.10450100 16998.89888096 0 230.15119965 0 6791.38759930 0 1000.97657540 0 674.00178255 0 12093
0.10550000 0.10551000 16700.00997802 0 366.31931854 0 6720.27924278 0 959.15910655 0 223.83957427 0 12067
0.10650000 0.10649700 16518.02384268 0 382.52946096 0 6648.04682118 0 928.09219606 0 1408.49849920 0 12054
0.10750000 0.10749900 15904.73393880 0 378.23778051 0 6253.61238703 0 249.73803355 0 1259.39126725 0 12807
0.10850000 0.10850100 15912.26517479 0 184.85924566 0 6376.52890277 0 502.21878588 0 2164.42102020 0 12736
0.10950000 0.10950300 15348.88376015 0 68.22557924 0 6277.49876983 0 575.19196636 0 1865.29606360 0 12933
0.11050000 0.11050200 15852.80213242 0 57.95544629 0 6034.32977257 0 901.41026342 0 2387.39056810 0 13428
0.11150000 0.11150900 15394.40839561 0 235.59954306 0 5168.04654268 0 183.24171602 0 1657.99598282 0 13453
0.11250000 0.11250000 15309.65388910 0 303.77633787 0 5582.42189123 0 322.96750087 0 2234.56268077 0 13668
0.11350000 0.11349100 14913.30854433 0 343.76495285 0 4995.92969869 0 -213.20367054 0 1813.42046048 0 13791
0.11450000 0.11448600 14778.53314206 0 389.44808149 0 5323.01015366 0 -84.39379403 0 1861.62037081 0 14205
0.11550000 0.11549300 14450.08132770 0 243.28365190 0 5398.12018185 0 -214.15125740 0 1319.97837469 0 14776
0.11650000 0.11649800 14465.70583222 0 200.03524821 0 5332.89068565 0 -162.19359753 0 1222.56689545 0 14553
0.11750000 0.11747300 14277.08771295 0 45.32309059 0 5470.26267824 0 179.98867170 0 1673.15962066 0 14568
0.11850000 0.11849100 14395.78898467 0 -181.70511907 0 5204.49997300 0 829.71402086 0 1537.92335171 0 16015
0.11950000 0.11950300 14403.76984669 0 -148.85768950 0 4536.86152284 0 730.71311361 0 1798.36922915 0 15270
0.12050000 0.12050700 14804.49904525 0 -147.21880262 0 4610.90368920 0 742.12687037 0 1326.77896838 0 15999
0.12150000 0.12150000 14584.06988442 0 -30.62740105 0 4125.84712886 0 261.61153292 0 1960.60554115 0 15670
0.12250000 0.12250700 14802.02610209 0 363.15957162 0 4790.90022936 0 -556.85172063 0 2324.03826058 0 16887
0.12350000 0.12352200 14327.89545426 0 394.46703204 0 4485.39058314 0 -198.59307272 0 1997.99194548 0 16407
0.12450000 0.12449800 14074.53118678 0 499.49180401 0 5189.23516931 0 -509.38132853 0 2771.27003122 0 16306
0.12550000 0.12549900 13863.54417256 0 316.10957986 0 5316.95144292 0 -89.49277801 0 1712.35576976 0 17523
0.12650000 0.12650100 13672.56551664 0 105.52801591 0 5979.49787830 0 -153.74849663 0 2549.01988497 0 17154
0.12750000 0.12750600 13582.19068476 0 88.36365465 0 5671.83002714 0 4.25863294 0 2426.91269607 0 18007
0.12850000 0.12850300 13614.11413284 0 34.28005050 0 5819.46473385 0 404.85788957 0 2053.11609667 0 17496
0.12950000 0.12949900 13759.11852727 0 13.63041308 0 5400.81793802 0 496.62094182 0 2579.49328910 0 18405
0.13050000 0.13049000 13581.96587175 0 100.03931856 0 5622.48357044 0 787.85945787 0 2224.91820244 0 18100
0.13150000 0.13148800 13614.33894585 0 107.72387703 0 4868.94406738 0 628.62327555 0 2275.37748357 0 19059
0.13250000 0.13249300 13093.78441050 0 279.02892123 0 4495.29359643 0 643.50702118 0 1100.88235503 0 18957
0.13350000 0.13349100 13127.95598872 0 346.26712170 0 3921.68318963 0 -14.90240511 0 1405.74453977 0 19468
0.13450000 0.13450700 12588.85437967 0 315.37106910 0 4038.34990357 0 -159.18559939 0 572.49870645 0 19953
0.13550000 0.13551000 12382.36362574 0 318.37457098 0 3860.12938623 0 -162.72977657 0 1029.29851898 0 19956
0.13650000 0.13649900 12202.28840103 0 79.92754627 0 3629.29138282 0 324.07245683 0 212.93839119 0 19723
0.13750000 0.13749600 12084.26156835 0 30.36954052 0 3816.40325488 0 256.72072578 0 564.95735387 0 20946
0.13850000 0.13851100 12140.35241550 0 128.45815655 0 3560.61100685 0 453.38490284 0 603.72073792 0 20955
0.13950000 0.13949800 11948.24969451 0 242.46533253 0 3726.62417750 0 461.27696372 0 702.69354354 0 20506
0.14050000 0.14048300 11797.28775519 0 220.15264083 0 3694.79065463 0 23.07109841 0 1541.36299084 0 21447
0.14150000 0.14148400 11577.64543991 0 213.24188876 0 3649.53579478 0 25.19423252 0 1242.86751067 0 21771
0.14250000 0.14249400 11543.92348771 0 153.57089435 0 3756.02971981 0 30.37055218 0 1426.87696314 0 22470
0.14350000 0.14350900 11314.38939979 0 86.30470465 0 3283.47276308 0 143.57345959 0 665.75002084 0 22519
0.14450000 0.14449900 11444.55613525 0 190.67403428 0 3884.26306335 0 -182.24691843 0 684.83102546 0 22218
0.14550000 0.14550500 11218.64153686 0 205.00136771 0 3155.54291711 0 -131.10757793 0 186.76566003 0 23559
0.14650000 0.14650700 10938.26598568 0 288.63742947 0 3608.57486352 0 -215.81712184 0 17.61140194 0 23044
0.14750000 0.14750500 10811.58385194 0 208.87264782 0 3554.75462782 0 -19.17913550 0 279.07388383 0 23649
0.14850000 0.14849900 10675.71810655 0 246.57041817 0 3720.86896432 0 -54.26840044 0 288.78580606 0 23640
0.14950000 0.14949500 10572.04558486 0 118.09877284 0 4019.84779246 0 54.96453394 0 761.78227223 0 24457
0.15050000 0.15050000 10411.58529568 0 152.74583059 0 4161.95209901 0 329.49494675 0 683.73731014 0 24591
0.15150000 0.15149900 10312.31910907 0 157.32077544 0 4265.33236378 0 126.87322480 0 1434.61053084 0 25020
0.15250000 0.15250500 10140.33715289 0 204.34154151 0 4230.53130912 0 261.15628656 0 1369.25738749 0 25297
0.15350000 0.15350100 10111.05525773 0 100.94924924 0 4352.42492564 0 285.72272874 0 1595.16074523 0 25452
0.15450000 0.15450400 10019.79241445 0 100.87607260 0 4074.16261680 0 438.71472958 0 1790.69186470 0 26061
0.15550000 0.15549900 9873.31549477 0 58.91135123 0 3859.43246588 0 436.58462626 0 1857.06790727 0 26128
0.15650000 0.15649500 9746.98182121 0 105.25824029 0 3793.13510787 0 110.17433889 0 1473.45821977 0 26331
0.15750000 0.15749700 9762.55012247 0 76.91538910 0 3450.94721832 0 314.31332387 0 1155.59509840 0 27345
0.15850000 0.15849900 9547.33662357 0 151.42055787 0 3289.61015838 0 27.90525266 0 1184.61845859 0 26980
0.15950000 0.15949700 9468.80943757 0 207.29446046 0 2961.24826922 0 -9.70248008 0 823.60922345 0 27777
0.16050000 0.16050000 9168.76274760 0 185.29650698 0 2817.03072034 0 121.22367374 0 435.82588234 0 28224
0.16150000 0.16150500 9089.78593557 0 163.77178489 0 2322.54325404 0 178.91518956 0 41.46316354 0 28075
0.16250000 0.16249700 8865.69232260 0 96.29865481 0 2369.79894971 0 255.10994054 0 -179.20182615 0 28590
0.16350000 0.16349900 8907.11412054 0 34.89727463 0 1950.08429207 0 302.49265556 0 -305.56584947 0 29163
0.16450000 0.16449100 8794.53900347 0 49.45785156 0 1969.29456417 0 215.11120897 0 -266.28989175 0 28996
0.16550000 0.16550500 8770.22547594 0 68.06011686 0 2007.59146121 0 -37.55625056 0 -150.74724289 0 30777
0.16650000 0.16650700 8834.66812658 0 72.11765455 0 2054.39753085 0 37.09617073 0 210.31369924 0 29211
0.16750000 0.16749900 8681.86272054 0 150.86077346 0 2227.31246104 0 37.69181281 0 695.59394854 0 30922
0.16850000 0.16850800 8827.29425970 0 48.37459005 0 2100.10201672 0 87.12223718 0 944.86212289 0 30867
0.16950000 0.16949900 8624.45671726 0 93.10024005 0 2257.63973672 0 130.52081596 0 1336.26607760 0 30852
0.17050000 0.17049200 8676.84939031 0 210.39688006 0 2318.37297262 0 51.25129738 0 1112.08478755 0 31257
0.17150000 0.17149500 8483.03809041 0 119.10368702 0 2224.96316504 0 78.37554963 0 1081.44164959 0 32608
0.17250000 0.17250900 8243.56726724 0 225.54140879 0 2370.43966680 0 -44.88493003 0 1298.07034641 0 32361
0.17350000 0.17350400 8310.28052933 0 62.50847187 0 2423.97888623 0 -5.37026585 0 996.96366309 0 32508
0.17450000 0.17449800 8114.19861797 0 -18.30955876 0 2529.30378358 0 206.45141165 0 1018.86269884 0 32791
0.17550000 0.17549800 8344.04744412 0 -44.87031718 0 2354.90508749 0 28.41299285 0 783.59812717 0 33633
0.17650000 0.17650100 8264.16013938 0 -105.36884829 0 2301.79301279 0 44.25702728 0 754.25890470 0 33984
0.17750000 0.17750300 8415.07711609 0 49.64343470 0 2508.18260086 0 26.17385523 0 733.06240962 0 34069
0.17850000 0.17849800 8311.44955700 0 134.24371949 0 2187.81281438 0 -168.49960259 0 593.82671714 0 34536
