### header ###
fiducial parameters:
Omega_m = 0.31
Omega_nu = 0
Omega_de = 0.69
Omega_k = 0
H_0 = 100
w_de = -1
zeff = 0
beta = 0
fgrowth = 0
b_1 = 2
gamma = 0.55
Lx = 3500 Ly = 3500 Lz = 3500
nx = 700 ny = 700 nz = 700
xoffset = 857.220397 yoffset = 15.9954215 zoffset = 262.898189
bins = 400 dk = 0.001
kx_ny = 0.628318531 ky_ny = 0.628318531 kz_ny = 0.628318531
############################
A(data) = 3.05086948 (not used)
A(ran) = 3.04689609 (used)
Ngal = 186562
weighted Ngal = 0
Nran = 9360983
weighted Nran = 0
SN(data) = 3456.13281
SN(ran) = 68.4218353
SN(data+ran) = 3524.55464
############################
13 columns: k_central k_mean P_0(k) sigma^{lin}_{P_0(k)} P^img_1(k) sigma^{lin}_{P_1(k)} P_2(k) sigma^{lin}_{P_2(k)} P^img_3(k) sigma^{lin}_{P_3(k)} P_4(k) sigma^{lin}_{P_4(k)} N_modes
### header ###
0.00050000 0 0 0 0 0 0 0 0 0 0 0 0
0.00150000 0.00179520 10905.19599123 0 -16121.67849791 0 -17540.47343318 0 27247.22496542 0 4370.11770989 0 3
0.00250000 0.00253879 18956.57061227 0 -14988.50849772 0 -3361.57280436 0 -12053.57459186 0 -7426.13590543 0 6
0.00350000 0.00331552 39994.23530087 0 -25741.20258048 0 -28462.78893546 0 23029.62040464 0 6108.38317958 0 7
0.00450000 0.00420575 55237.56935066 0 -25273.59151007 0 -25001.11813635 0 -11236.01958289 0 -17547.89226266 0 24
0.00550000 0.00557378 83071.55628423 0 -6720.45909319 0 -31988.08181772 0 -35266.64241643 0 -18841.46634878 0 45
0.00650000 0.00659388 67904.88347242 0 7800.02243004 0 -7066.24399098 0 -33903.60110879 0 -19827.27141789 0 40
0.00750000 0.00754703 72303.01288394 0 13579.49292859 0 -20856.12817930 0 -30031.87137100 0 4572.20212874 0 57
0.00850000 0.00846663 46401.51862404 0 13460.67925036 0 5454.17730704 0 -18584.50507307 0 -27803.97439612 0 75
0.00950000 0.00948925 53379.26497181 0 -308.53113313 0 4800.80324265 0 -5153.10771786 0 -20041.18100130 0 112
0.01050000 0.01054430 45360.40955333 0 -5278.91308084 0 2518.86121905 0 -2724.12674205 0 -25958.93398514 0 105
0.01150000 0.01145670 55359.64281759 0 -6988.43620662 0 10911.31090522 0 -5860.15588949 0 -23170.12853878 0 144
0.01250000 0.01249090 66456.07599971 0 -15165.32393372 0 -5698.87503280 0 6446.99654220 0 -10094.22800359 0 169
0.01350000 0.01339930 77077.36687542 0 -22352.03397858 0 4708.95588553 0 5148.08314699 0 -5118.32914450 0 180
0.01450000 0.01448870 96881.59495931 0 -11514.92260883 0 -6634.14213623 0 -1235.13394297 0 -14866.88465681 0 267
0.01550000 0.01550050 111064.26120612 0 -4602.13598163 0 -4443.08077379 0 -4635.39706714 0 -21773.47768545 0 238
0.01650000 0.01653350 102483.48565761 0 9609.55362537 0 9473.38438241 0 -18371.26992870 0 -720.85393886 0 315
0.01750000 0.01747870 99002.03131320 0 13807.45332541 0 23238.35928871 0 -8872.71772930 0 6940.32622149 0 297
0.01850000 0.01844180 87468.11200464 0 12578.73779401 0 40005.81317112 0 384.06268572 0 3986.24948743 0 388
0.01950000 0.01947590 71167.25753408 0 11785.03544589 0 34323.10219407 0 11257.28689407 0 624.54067120 0 399
0.02050000 0.02045430 67749.53767932 0 7745.15681383 0 44291.31126231 0 8610.96793638 0 7080.44093285 0 462
0.02150000 0.02154770 61798.28755631 0 2900.32394226 0 30059.41096529 0 14172.88688068 0 1213.07978624 0 571
0.02250000 0.02255340 60073.29729513 0 -1000.66408531 0 26940.58001347 0 9932.80101844 0 11407.34958133 0 510
0.02350000 0.02348930 60047.21898543 0 -4465.46090939 0 7326.47629605 0 15116.20229002 0 -6439.30793710 0 555
0.02450000 0.02439640 63982.45839985 0 -5879.90571283 0 -4647.99783661 0 10184.61407612 0 -12172.05105056 0 592
0.02550000 0.02547300 64884.40821450 0 -1110.93824118 0 -9493.06676184 0 5719.41170169 0 -11525.48882051 0 837
0.02650000 0.02652900 64251.89679787 0 1627.33148763 0 -11341.14214853 0 -5660.69054227 0 -15158.35473026 0 723
0.02750000 0.02749970 61005.70927326 0 1909.57298683 0 -11782.78731575 0 -5174.18393798 0 -6664.95275988 0 826
0.02850000 0.02848090 60126.69038610 0 4775.57922241 0 2904.22444806 0 -11907.44613235 0 -3270.37740498 0 831
0.02950000 0.02946900 58214.76810327 0 1875.04170779 0 5187.00952047 0 -1964.98939494 0 5204.56741691 0 996
0.03050000 0.03053250 56886.23559337 0 2493.55851426 0 20431.45639468 0 -2197.64838377 0 8627.08702953 0 1041
0.03150000 0.03150510 57280.67002752 0 1344.66284369 0 18060.69074901 0 2417.11084864 0 6408.42986955 0 1036
0.03250000 0.03246190 55266.12060351 0 2833.55447692 0 29222.43211186 0 1106.56225585 0 17277.44220607 0 1059
0.03350000 0.03345080 53943.77045152 0 1965.57390877 0 23281.63579403 0 3632.82094715 0 14423.32857896 0 1302
0.03450000 0.03451200 51399.67397157 0 1845.79353458 0 27559.71505574 0 5631.85827315 0 17823.73783160 0 1339
0.03550000 0.03553350 51235.22325138 0 261.43505470 0 21432.54874878 0 7661.91979516 0 14626.55954418 0 1365
0.03650000 0.03647120 53025.97131933 0 -733.49405060 0 24038.24399473 0 5508.90803545 0 13002.84754609 0 1308
0.03750000 0.03744890 51295.47313930 0 1172.84949727 0 16617.39119515 0 2259.25839042 0 10061.97857664 0 1579
0.03850000 0.03847530 50203.44392078 0 1458.21589738 0 13963.58596407 0 491.86839469 0 9871.29217764 0 1662
0.03950000 0.03950240 49104.10827929 0 1788.58986301 0 22245.58501615 0 -1986.42531588 0 11875.63509078 0 1683
0.04050000 0.04050350 47908.10304151 0 1387.65833274 0 15916.64902858 0 2512.21799447 0 10717.51084597 0 1822
0.04150000 0.04152450 48197.66220434 0 1227.63642893 0 18759.74681797 0 3286.90116155 0 10242.23365176 0 1887
0.04250000 0.04250150 44814.78836685 0 1511.37293469 0 11775.81811229 0 5058.76493628 0 6493.67896469 0 1920
0.04350000 0.04349210 44835.02153817 0 895.86300228 0 15110.91918418 0 3318.12768928 0 5787.10290039 0 2005
0.04450000 0.04448520 41077.27199880 0 1217.91326605 0 9194.26778411 0 1773.26885607 0 3029.34413135 0 2151
0.04550000 0.04548030 40856.73043146 0 1583.05456440 0 7984.60515570 0 -729.80262090 0 -527.13256416 0 2274
0.04650000 0.04648670 39628.12730656 0 1030.16067689 0 8150.53964179 0 -4688.07075647 0 -3030.65928749 0 2311
0.04750000 0.04749250 38040.72261033 0 952.49564880 0 6376.76495644 0 -3923.36928724 0 -7191.55476532 0 2568
0.04850000 0.04851840 37836.36758004 0 277.28212410 0 10022.53513323 0 -1733.70176549 0 -4955.74437233 0 2493
0.04950000 0.04949480 37956.30532334 0 404.81405104 0 6840.91390642 0 -851.46692816 0 -9297.82789930 0 2644
0.05050000 0.05050630 37397.86979502 0 494.91798323 0 9792.36032821 0 1989.92115826 0 -5986.77057933 0 2829
0.05150000 0.05149060 37574.34801150 0 731.24704452 0 11041.00553336 0 1220.02650839 0 -6886.83196466 0 2784
0.05250000 0.05249300 36949.14301784 0 293.66424848 0 12129.89861032 0 1096.91215719 0 -1233.62769577 0 3055
0.05350000 0.05348950 36460.17471104 0 55.43506758 0 13798.01117880 0 1789.71392809 0 368.59330219 0 3009
0.05450000 0.05448610 36630.58297612 0 1.94238445 0 12919.66673068 0 865.89317930 0 1517.37544218 0 3336
0.05550000 0.05550870 36460.06230454 0 250.35964154 0 14106.56704136 0 2155.20368661 0 1656.57966083 0 3349
0.05650000 0.05647670 36911.03721186 0 183.63401473 0 13379.52175208 0 2581.76390054 0 2638.45050218 0 3324
0.05750000 0.05747970 35996.61027490 0 629.92943916 0 13914.57672688 0 2525.83042251 0 3904.74352898 0 3639
0.05850000 0.05849280 36524.92085925 0 119.23969889 0 12103.93270713 0 2494.15426875 0 6624.37401074 0 3846
0.05950000 0.05951020 36063.04252072 0 287.48975903 0 11970.28136994 0 3090.62815914 0 8320.46455889 0 3787
0.06050000 0.06049470 36178.93362975 0 695.41859438 0 10590.54769596 0 399.46687348 0 7939.86736579 0 3930
0.06150000 0.06148310 35477.74183715 0 473.49217887 0 11639.91864496 0 1428.31576643 0 9144.15696315 0 4083
0.06250000 0.06249100 34617.49483671 0 1407.49808128 0 11298.54008226 0 -1978.37700996 0 7247.58940922 0 4303
0.06350000 0.06350600 34225.87056524 0 1280.46748737 0 15139.24562402 0 -2298.98285011 0 9291.26335927 0 4470
0.06450000 0.06451750 33336.17305989 0 1167.57763208 0 14732.55888057 0 33.75792228 0 10299.07762251 0 4479
0.06550000 0.06550280 31384.57127997 0 1024.95400747 0 13606.80770986 0 1417.77203605 0 6900.84905612 0 4636
0.06650000 0.06648880 32073.62316978 0 714.05109704 0 13717.30330655 0 2624.86055545 0 6232.74973927 0 4653
0.06750000 0.06749660 30197.89578230 0 295.92923960 0 13156.05761555 0 1860.20404882 0 5107.20090028 0 5220
0.06850000 0.06852730 30964.95778818 0 631.97860979 0 11011.57750974 0 1946.12758301 0 5393.92741912 0 5029
0.06950000 0.06949320 29433.19431307 0 -425.66995440 0 8704.16417159 0 581.28215093 0 2440.43519890 0 5040
0.07050000 0.07048030 29685.65932849 0 5.64621258 0 8870.91922519 0 731.27851835 0 3123.07991780 0 5475
0.07150000 0.07148790 29704.31880870 0 -346.48968659 0 6292.74109222 0 1393.45850852 0 774.87313408 0 5509
0.07250000 0.07249820 29853.81946342 0 -158.79554881 0 5831.68332119 0 1220.30752466 0 1818.42255005 0 5916
0.07350000 0.07351270 29460.62150085 0 305.34216052 0 4884.50112799 0 -18.97961395 0 -1578.37845369 0 5721
0.07450000 0.07449140 29013.80563430 0 1005.92246172 0 4687.82346215 0 -425.43052854 0 -1005.44698220 0 6028
0.07550000 0.07549160 28149.06237356 0 1466.68010738 0 5242.81935135 0 -696.62359214 0 -1725.85579128 0 6183
0.07650000 0.07648840 27086.14644044 0 1558.22396693 0 5333.28410843 0 -1450.42612642 0 -690.94706352 0 6330
0.07750000 0.07749960 25476.03562973 0 1025.40138537 0 6599.06006529 0 -454.06271408 0 -306.02221989 0 6583
0.07850000 0.07848650 25029.10735667 0 692.71296975 0 6833.76485256 0 1088.08599824 0 638.43411550 0 6549
0.07950000 0.07947320 24780.91378853 0 260.01086425 0 6925.34243406 0 1436.49896017 0 1570.19525996 0 6828
0.08050000 0.08048110 24497.64939011 0 98.10188000 0 7333.06331738 0 1718.69549677 0 2179.48349218 0 7147
0.08150000 0.08149960 24038.91843378 0 -95.32555168 0 7010.67021376 0 1119.14166808 0 2318.20436286 0 7386
0.08250000 0.08250610 24565.20570100 0 369.32282042 0 6740.84963361 0 -22.35158435 0 1292.07907958 0 7227
0.08350000 0.08350160 24353.99387377 0 345.06774427 0 7750.85582375 0 -647.51431316 0 2041.49326381 0 7798
0.08450000 0.08449610 23625.71211290 0 728.85615811 0 8120.09995961 0 -1581.23357898 0 1273.04865789 0 7371
0.08550000 0.08548940 23583.78448568 0 645.46401847 0 8063.07613845 0 -852.80344153 0 1141.91522646 0 8256
0.08650000 0.08650700 22489.61954352 0 783.98930182 0 8159.21742415 0 -98.29229663 0 307.60602758 0 8037
0.08750000 0.08749060 22196.23855944 0 956.37704549 0 9065.15766982 0 410.47821494 0 463.58129712 0 8155
0.08850000 0.08849210 21171.54083881 0 775.41493344 0 8420.94473577 0 1406.68875443 0 1133.78823598 0 8718
0.08950000 0.08949900 20955.38312525 0 477.13527377 0 9175.40597219 0 460.78799542 0 687.93119693 0 8571
0.09050000 0.09049190 20251.60598298 0 257.50419914 0 8375.66739463 0 632.43722834 0 3000.06223620 0 8932
0.09150000 0.09150830 20591.18604157 0 -172.78566271 0 8819.98783672 0 728.63921355 0 3474.60878811 0 9285
0.09250000 0.09250820 20872.65193587 0 -255.82934218 0 7830.87801630 0 874.66987940 0 3238.28534714 0 9204
0.09350000 0.09350330 20965.83693043 0 -49.68895934 0 7980.51355883 0 1086.93945186 0 3750.66792941 0 9349
0.09450000 0.09448040 20956.28237731 0 -45.47281606 0 7089.28732497 0 307.22946578 0 1692.68463098 0 9564
0.09550000 0.09549270 20772.61014436 0 291.31607654 0 6406.03561094 0 736.64143281 0 1884.36020724 0 10155
0.09650000 0.09649430 20361.87676665 0 383.37925416 0 5674.04443534 0 -112.88985529 0 391.22410430 0 9913
0.09750000 0.09749140 19460.60139104 0 692.01604941 0 5784.02296209 0 9.88687172 0 367.75812184 0 10476
0.09850000 0.09850240 19317.62031374 0 330.93712224 0 4998.26775404 0 -178.97251687 0 -845.10809204 0 10575
0.09950000 0.09950330 18843.60207242 0 252.84719754 0 5313.87150462 0 -154.50499243 0 -872.45659527 0 10882
0.10050000 0.10051200 18926.78288783 0 385.95336317 0 5133.71759535 0 142.12004345 0 -31.66884734 0 10875
0.10150000 0.10150300 18246.38629908 0 341.11103521 0 5375.68384299 0 -38.77293860 0 -1092.40690438 0 11118
0.10250000 0.10250800 17895.11596374 0 682.05233660 0 6118.49976524 0 237.99829793 0 1630.26529747 0 11575
0.10350000 0.10349800 17429.41580395 0 695.94240871 0 6103.51597782 0 457.23257759 0 856.82984262 0 11364
0.10450000 0.10450100 16838.49479502 0 435.23687224 0 6169.64472607 0 1163.41859131 0 2568.38752617 0 12093
0.10550000 0.10551000 16417.64483166 0 281.08146405 0 5666.01861072 0 1060.08328914 0 1952.80452954 0 12067
0.10650000 0.10649700 16103.58105023 0 233.21202885 0 4909.91623930 0 459.47059115 0 2286.77550341 0 12054
0.10750000 0.10749900 16140.33797812 0 131.62802006 0 5306.03677106 0 49.07038633 0 1361.65870760 0 12807
0.10850000 0.10850100 15747.36482857 0 230.55136682 0 3787.21128494 0 -273.73907099 0 1222.42076700 0 12736
0.10950000 0.10950300 16012.98140534 0 63.04352684 0 4354.12226390 0 149.26347699 0 884.22780471 0 12933
0.11050000 0.11050200 15581.56523029 0 43.20906141 0 3027.82664350 0 363.21689894 0 -101.42248064 0 13428
0.11150000 0.11150900 15805.81621237 0 174.40544048 0 3802.08266585 0 334.60831876 0 698.57272098 0 13453
0.11250000 0.11250000 15387.21437915 0 254.32309498 0 3053.82626864 0 531.61758380 0 90.03963567 0 13668
0.11350000 0.11349100 15363.94623213 0 355.18320586 0 3563.15139392 0 392.73934402 0 1210.65180568 0 13791
0.11450000 0.11448600 14930.61914645 0 190.05130223 0 2258.14556600 0 543.60011748 0 821.85006161 0 14205
0.11550000 0.11549300 14792.24673596 0 92.07498030 0 3446.55212388 0 810.96911170 0 1409.84737728 0 14776
0.11650000 0.11649800 14646.34308947 0 -94.79870238 0 1790.66938340 0 551.31232795 0 863.81028672 0 14553
0.11750000 0.11747300 14509.99399610 0 43.64924529 0 1900.70411340 0 609.23764929 0 809.78996744 0 14568
0.11850000 0.11849100 14623.41216198 0 67.19155178 0 1118.78309132 0 75.94532094 0 -88.41064057 0 16015
0.11950000 0.11950300 14412.08792823 0 343.82902456 0 1451.06684351 0 -637.76529678 0 -400.69322848 0 15270
0.12050000 0.12050700 14160.40975837 0 392.60333215 0 1803.51744718 0 -1088.46256004 0 -688.47974069 0 15999
0.12150000 0.12150000 13967.63259833 0 268.49755556 0 2555.38209328 0 -764.28893735 0 -582.99972236 0 15670
0.12250000 0.12250700 13827.68649673 0 189.94226792 0 3154.38513008 0 -722.42987809 0 -69.09864058 0 16887
0.12350000 0.12352200 13738.54813643 0 79.25490574 0 3691.02503663 0 -181.28809092 0 -69.75801715 0 16407
0.12450000 0.12449800 13982.47025729 0 -145.14715069 0 3867.49201246 0 477.44888793 0 487.01468170 0 16306
0.12550000 0.12549900 14082.51204880 0 -19.84222148 0 3692.49756188 0 595.84104175 0 412.33741857 0 17523
0.12650000 0.12650100 14240.44319157 0 -75.33742655 0 3592.18599475 0 51.10584336 0 290.33476773 0 17154
0.12750000 0.12750600 14105.44297629 0 41.80645301 0 3455.22990625 0 -238.56370266 0 -172.93853556 0 18007
0.12850000 0.12850300 14121.17988731 0 222.42662447 0 3536.36492322 0 -577.45246122 0 -461.08924486 0 17496
0.12950000 0.12949900 14002.70342861 0 270.69847497 0 3377.77058206 0 -488.18258531 0 -936.66881257 0 18405
0.13050000 0.13049000 13708.42319247 0 295.52794837 0 3212.13959354 0 71.49132549 0 -686.32265981 0 18100
0.13150000 0.13148800 13461.01646988 0 396.33298006 0 3243.23123346 0 334.90057568 0 -859.54895603 0 19059
0.13250000 0.13249300 13182.24833176 0 253.55198634 0 3474.42893770 0 782.58646861 0 -826.79145167 0 18957
0.13350000 0.13349100 13010.60359509 0 258.46190258 0 3375.92711534 0 501.27457122 0 -103.21334111 0 19468
0.13450000 0.13450700 12854.69576945 0 97.08684924 0 3064.44868358 0 623.50653133 0 312.07081405 0 19953
0.13550000 0.13551000 12687.21007356 0 82.78469488 0 3272.83910749 0 240.88602110 0 899.79835410 0 19956
0.13650000 0.13649900 12663.60470703 0 80.18259664 0 2818.82922446 0 256.68587977 0 339.22822622 0 19723
0.13750000 0.13749600 12534.11241061 0 163.45479854 0 3043.49611062 0 178.07101669 0 507.14219090 0 20946
0.13850000 0.13851100 12276.47669585 0 367.31074394 0 2764.26710581 0 111.16643872 0 46.86159846 0 20955
0.13950000 0.13949800 12023.22483488 0 365.61115755 0 2587.63152023 0 -35.93905814 0 14.42332858 0 20506
0.14050000 0.14048300 11503.34473857 0 366.11923496 0 2512.70134245 0 0.99273156 0 312.96332172 0 21447
0.14150000 0.14148400 11441.85837908 0 280.54191281 0 2613.09159413 0 17.44931176 0 -247.15830421 0 21771
0.14250000 0.14249400 11033.27196566 0 78.28101576 0 2602.61530765 0 150.02784124 0 286.77035738 0 22470
0.14350000 0.14350900 11289.32274866 0 90.20689656 0 2808.47658514 0 85.78010348 0 302.51850906 0 22519
0.14450000 0.14449900 11215.06700993 0 -225.18395609 0 2747.02394759 0 157.50849430 0 89.23795246 0 22218
0.14550000 0.14550500 11363.39863697 0 -79.86324975 0 2756.64594462 0 114.11283809 0 107.88709128 0 23559
0.14650000 0.14650700 11372.16634454 0 -81.34791490 0 2605.33554513 0 -141.11850147 0 -364.66694288 0 23044
0.14750000 0.14750500 11518.06999103 0 66.08052586 0 2790.00819599 0 -4.43634762 0 328.70585307 0 23649
0.14850000 0.14849900 11302.02468398 0 207.17418549 0 2364.69569428 0 26.62853955 0 -223.47762531 0 23640
0.14950000 0.14949500 11245.48421081 0 212.22460987 0 2532.11394627 0 410.75136275 0 383.94016263 0 24457
0.15050000 0.15050000 10894.96699906 0 283.98717226 0 2277.54692916 0 47.63461801 0 -351.81887910 0 24591
0.15150000 0.15149900 10735.30479608 0 202.24066389 0 2068.48206622 0 349.43136488 0 281.11293787 0 25020
0.15250000 0.15250500 10492.12455816 0 156.48222289 0 2072.66358829 0 82.89035699 0 -7.94437487 0 25297
0.15350000 0.15350100 10560.61384307 0 86.33022093 0 1831.31557644 0 -20.67470408 0 160.07810706 0 25452
0.15450000 0.15450400 10408.51659803 0 113.55754994 0 2206.58470110 0 -73.26543740 0 111.05481906 0 26061
0.15550000 0.15549900 10350.34623049 0 260.45262183 0 2175.69539289 0 -395.89909094 0 -295.28515031 0 26128
0.15650000 0.15649500 10232.52172953 0 235.20049996 0 2330.90629818 0 -201.39536695 0 187.82115713 0 26331
0.15750000 0.15749700 9927.09076787 0 311.24237809 0 2454.64338143 0 -96.29865481 0 103.80088992 0 27345
0.15850000 0.15849900 9884.61234876 0 168.15451461 0 2586.02410717 0 288.98364151 0 56.15255832 0 26980
0.15950000 0.15949700 9730.71659960 0 117.63453396 0 2616.10408853 0 172.68000059 0 -175.44295254 0 27777
0.16050000 0.16050000 9549.60723502 0 221.44981192 0 2604.55994023 0 126.10998462 0 135.13622715 0 28224
0.16150000 0.16150500 9402.00625027 0 178.51727052 0 2225.07557155 0 67.73155264 0 -89.55977229 0 28075
0.16250000 0.16249700 9116.72977537 0 150.51456142 0 2180.63003856 0 119.55893337 0 -171.32550218 0 28590
0.16350000 0.16349900 9110.01910688 0 126.33030137 0 2120.59372300 0 221.91854706 0 157.05437201 0 29163
0.16450000 0.16449100 8960.88939364 0 104.68035844 0 2135.39766002 0 184.90196013 0 -256.58134172 0 28996
0.16550000 0.16550500 8791.67263753 0 155.51665099 0 1880.99925267 0 89.98264557 0 -205.82755554 0 30777
0.16650000 0.16650700 8656.05418646 0 182.15474510 0 1966.01229415 0 69.52207589 0 -231.47422424 0 29211
0.16750000 0.16749900 8488.19754910 0 205.88825505 0 2088.47918387 0 -135.71849286 0 151.98259040 0 30922
0.16850000 0.16850800 8399.46385223 0 98.51025284 0 2167.77073412 0 59.61389190 0 294.24876232 0 30867
0.16950000 0.16949900 8365.15738619 0 25.18220502 0 2424.72076918 0 -24.24338587 0 533.51612971 0 30852
0.17050000 0.17049200 8406.59042479 0 -42.76528052 0 2228.40280417 0 166.39872497 0 236.99675595 0 31257
0.17150000 0.17149500 8519.69385244 0 -9.10695041 0 2557.67518603 0 26.86807782 0 739.38864785 0 32608
0.17250000 0.17250900 8546.77258006 0 -23.13123589 0 2415.76197055 0 -18.09789730 0 507.06125821 0 32361
0.17350000 0.17350400 8568.06237254 0 10.71666780 0 2486.60055146 0 78.94466377 0 724.67351198 0 32508
0.17450000 0.17449800 8607.78683222 0 30.05412786 0 2225.28914391 0 137.48889535 0 379.74852397 0 32791
0.17550000 0.17549800 8582.64149654 0 37.64302839 0 2245.85953475 0 297.20168126 0 198.56384703 0 33633
0.17650000 0.17650100 8432.50012472 0 169.25722245 0 2105.14906890 0 31.51024176 0 361.56677141 0 33984
0.17750000 0.17750300 8329.28846971 0 238.30516769 0 1676.29576221 0 101.72462933 0 36.04022400 0 34069
0.17850000 0.17849800 8041.74138336 0 189.80513198 0 1893.71242865 0 -23.97507154 0 92.50886942 0 34536
