### header ###
fiducial parameters:
Omega_m = 0.31
Omega_nu = 0
Omega_de = 0.69
Omega_k = 0
H_0 = 100
w_de = -1
zeff = 0
beta = 0
fgrowth = 0
b_1 = 2
gamma = 0.55
Lx = 3500 Ly = 3500 Lz = 3500
nx = 700 ny = 700 nz = 700
xoffset = 857.220397 yoffset = 15.9954215 zoffset = 262.898189
bins = 400 dk = 0.001
kx_ny = 0.628318531 ky_ny = 0.628318531 kz_ny = 0.628318531
############################
A(data) = 3.07631077 (not used)
A(ran) = 3.0733064 (used)
Ngal = 187411
weighted Ngal = 0
Nran = 9360983
weighted Nran = 0
SN(data) = 3451.77729
SN(ran) = 69.0149117
SN(data+ran) = 3520.7922
############################
13 columns: k_central k_mean P_0(k) sigma^{lin}_{P_0(k)} P^img_1(k) sigma^{lin}_{P_1(k)} P_2(k) sigma^{lin}_{P_2(k)} P^img_3(k) sigma^{lin}_{P_3(k)} P_4(k) sigma^{lin}_{P_4(k)} N_modes
### header ###
0.00050000 0 0 0 0 0 0 0 0 0 0 0 0
0.00150000 0.00179520 30918.19668114 0 -50938.80729160 0 -38801.15263228 0 113466.50067384 0 -8957.00012848 0 3
0.00250000 0.00253879 59460.45701727 0 -61052.02075428 0 -13745.40493338 0 -44884.81762091 0 9371.91502827 0 6
0.00350000 0.00331552 85974.34192900 0 -52004.19616789 0 -44012.65553069 0 -11507.05415332 0 17946.82295710 0 7
0.00450000 0.00420575 109242.15172263 0 -30868.96263094 0 -40353.14927871 0 -32518.19090619 0 14139.61455451 0 24
0.00550000 0.00557378 116148.51993826 0 4658.94623043 0 -52843.64796448 0 -39933.08616089 0 28116.01486041 0 45
0.00650000 0.00659388 93499.28315436 0 24699.86869676 0 -5588.95270931 0 -22900.80254726 0 40361.91698628 0 40
0.00750000 0.00754703 86268.95938466 0 22403.06653289 0 -19076.28354255 0 -15819.86702578 0 43419.93601764 0 57
0.00850000 0.00846663 66063.21525666 0 11228.67943796 0 -2785.05106901 0 4319.81579787 0 47405.42114082 0 75
0.00950000 0.00948925 71187.94033143 0 -1155.19043497 0 9856.11729915 0 3567.58021030 0 43846.74352590 0 112
0.01050000 0.01054430 86347.64393978 0 -21514.94271864 0 5443.12774737 0 30363.35816106 0 60448.84743605 0 105
0.01150000 0.01145670 97705.42225138 0 -22690.48997209 0 -7166.62300200 0 28148.38793452 0 27714.49881630 0 144
0.01250000 0.01249090 124447.49237295 0 -20947.73948275 0 -10515.55007429 0 24727.18347803 0 45118.39834310 0 169
0.01350000 0.01339930 123425.71722150 0 -9204.93516166 0 -16681.68771733 0 18801.11241266 0 17280.02755574 0 180
0.01450000 0.01448870 130699.54230953 0 3045.73300012 0 -28723.23481290 0 16367.73634241 0 22160.15607060 0 267
0.01550000 0.01550050 108859.40756524 0 9505.91482563 0 -39676.46210470 0 -726.50911024 0 5368.00647854 0 238
0.01650000 0.01653350 99926.23761631 0 17189.54031735 0 -38483.04221659 0 -15298.86286440 0 7409.66835211 0 315
0.01750000 0.01747870 84257.55734286 0 9296.64763097 0 -30833.66698765 0 -10788.19205777 0 -2193.29825193 0 297
0.01850000 0.01844180 74744.81944223 0 6930.98524073 0 -29503.67319315 0 -28800.90770945 0 5884.86283980 0 388
0.01950000 0.01947590 80604.23344878 0 -683.43943290 0 -16139.55113257 0 -28416.92708048 0 4416.13693399 0 399
0.02050000 0.02045430 79780.40615670 0 1530.27970922 0 -6643.38195113 0 -27060.74256979 0 6273.18235995 0 462
0.02150000 0.02154770 86068.65098863 0 5007.14786812 0 20952.12333654 0 -21997.84107404 0 16649.53945624 0 571
0.02250000 0.02255340 77395.70210412 0 9506.08343539 0 27569.38201537 0 -14262.36246050 0 3467.27988383 0 510
0.02350000 0.02348930 80261.39360148 0 13529.47203284 0 61152.51217181 0 -8567.98368798 0 23639.98773933 0 555
0.02450000 0.02439640 67071.61403374 0 9639.94834495 0 53623.07468616 0 -905.95036225 0 -1721.28084644 0 592
0.02550000 0.02547300 62185.75278700 0 4989.27523346 0 64065.41440224 0 16289.61381983 0 13928.40272728 0 837
0.02650000 0.02652900 57487.27318796 0 -459.41213977 0 42691.99147630 0 20147.74237023 0 -1519.34255605 0 723
0.02750000 0.02749970 57796.05386354 0 -2257.28003589 0 33115.18186651 0 28230.33227835 0 -4790.01221795 0 826
0.02850000 0.02848090 57456.24899194 0 -1016.67751634 0 14504.48607724 0 17942.88872934 0 -5385.60933758 0 831
0.02950000 0.02946900 55568.60651468 0 1198.30957118 0 684.23639504 0 11623.39488838 0 -2540.49947171 0 996
0.03050000 0.03053250 53514.15278058 0 -283.91410803 0 -2324.39796141 0 7391.89688330 0 1474.51484094 0 1041
0.03150000 0.03150510 51291.31409853 0 -801.46738964 0 -5570.07965673 0 3418.96756699 0 2927.90849915 0 1036
0.03250000 0.03246190 54768.94662168 0 862.22985123 0 -4664.91501596 0 -953.11388459 0 6876.11962451 0 1059
0.03350000 0.03345080 53730.76012017 0 -212.39546776 0 3618.73641178 0 -7610.42637416 0 5627.35077220 0 1302
0.03450000 0.03451200 56373.77432654 0 -1061.42767097 0 10975.29268918 0 -9226.51721106 0 11121.16261372 0 1339
0.03550000 0.03553350 58572.22079651 0 -3232.74370633 0 17643.66260689 0 -8793.62851076 0 6478.89750898 0 1365
0.03650000 0.03647120 62397.30183376 0 -663.83686209 0 23760.59992168 0 -5333.61008730 0 8422.27113256 0 1308
0.03750000 0.03744890 63329.60140539 0 1629.54589582 0 28654.55443694 0 -3539.18632656 0 -2676.64623337 0 1579
0.03850000 0.03847530 61489.95650676 0 4067.78916783 0 34204.06370283 0 -3914.26436015 0 4607.93615741 0 1662
0.03950000 0.03950240 58458.69022413 0 5154.15309838 0 34369.86330111 0 520.06219485 0 3927.48336541 0 1683
0.04050000 0.04050350 54219.72842696 0 3765.75288269 0 36644.97100906 0 3666.53165869 0 993.66678023 0 1822
0.04150000 0.04152450 49933.21867721 0 2569.91625467 0 32241.55849170 0 8266.74548905 0 7265.97911381 0 1887
0.04250000 0.04250150 49410.30360520 0 808.52427017 0 27289.37740566 0 5348.35782106 0 -1987.02107037 0 1920
0.04350000 0.04349210 47942.61183926 0 1186.25959359 0 22255.25197578 0 5276.22656532 0 -5861.13382611 0 2005
0.04450000 0.04448520 45008.12755943 0 1411.97186027 0 19551.53825546 0 3466.70661064 0 -5143.20470457 0 2151
0.04550000 0.04548030 43362.04666638 0 2217.20711604 0 15571.22383161 0 739.72699144 0 -6371.25703758 0 2274
0.04650000 0.04648670 41348.17168141 0 2000.55481385 0 14843.27929027 0 2782.69053236 0 -5744.44463087 0 2311
0.04750000 0.04749250 39533.36862090 0 1464.90408456 0 12970.81169151 0 3500.05762136 0 -4229.51965055 0 2568
0.04850000 0.04851840 38419.42013345 0 1006.05959766 0 10699.49208285 0 2951.94101042 0 -329.20381389 0 2493
0.04950000 0.04949480 39182.09828555 0 553.39746866 0 15733.87604769 0 456.19956179 0 -2736.85115868 0 2644
0.05050000 0.05050630 38010.03563383 0 942.98043795 0 15387.43919216 0 -2552.53820864 0 1243.98033510 0 2829
0.05150000 0.05149060 40217.92425041 0 283.63196770 0 18764.35548477 0 -87.69528556 0 5522.98133017 0 2784
0.05250000 0.05249300 38843.86710506 0 320.58335885 0 17196.84674033 0 -1027.94626870 0 3184.12789192 0 3055
0.05350000 0.05348950 39326.87786697 0 172.11909212 0 17117.26293315 0 2013.93118822 0 1181.80829590 0 3009
0.05450000 0.05448610 38005.31456052 0 -89.41207014 0 16758.68617483 0 2578.99870046 0 1694.70794811 0 3336
0.05550000 0.05550870 38982.46432857 0 624.08542484 0 15013.46274234 0 3318.57731531 0 2881.10242951 0 3349
0.05650000 0.05647670 38009.69841431 0 472.88855593 0 12666.30246320 0 2022.60897058 0 1570.76853315 0 3324
0.05750000 0.05747970 37739.81039026 0 371.41020926 0 13839.82639952 0 971.60138284 0 2621.49960088 0 3639
0.05850000 0.05849280 36315.73234915 0 281.30740113 0 11702.41666302 0 -160.01628348 0 -1011.77546856 0 3846
0.05950000 0.05951020 37367.52003805 0 144.55589247 0 14702.32153011 0 -545.57509981 0 3360.72975555 0 3787
0.06050000 0.06049470 35871.16461274 0 889.62106893 0 11585.17667590 0 -860.60332907 0 -2035.63688478 0 3930
0.06150000 0.06148310 36177.47234516 0 340.93118480 0 13274.64648076 0 555.66133572 0 824.34436201 0 4083
0.06250000 0.06249100 35619.71125589 0 531.31183810 0 11437.47452529 0 1188.40655788 0 -3659.19151376 0 4303
0.06350000 0.06350600 34693.59404216 0 863.38876232 0 11386.10475145 0 387.15723687 0 -4388.50741449 0 4470
0.06450000 0.06451750 33344.49114143 0 2149.38102953 0 10408.48287607 0 -1143.39899236 0 -7498.08731076 0 4479
0.06550000 0.06550280 30320.75609479 0 2366.83141792 0 9715.08085443 0 -835.07581126 0 -7374.04672994 0 4636
0.06650000 0.06648880 29746.35884244 0 1993.27087217 0 10873.62100332 0 -1382.57755861 0 -6280.83724310 0 4653
0.06750000 0.06749660 28572.04806057 0 369.28909847 0 12124.16587845 0 540.30323462 0 -6920.64384206 0 5220
0.06850000 0.06852730 28425.24516202 0 -580.66503920 0 11541.78776407 0 1945.52058787 0 -5013.92598051 0 5029
0.06950000 0.06949320 29430.72136991 0 -248.23965481 0 10998.92053702 0 1783.54281084 0 -5316.28824452 0 5040
0.07050000 0.07048030 29132.28209300 0 77.27497752 0 11193.66481094 0 1197.48900367 0 -1653.96058921 0 5475
0.07150000 0.07148790 28947.82301451 0 741.04664383 0 9904.83427942 0 1304.98334661 0 -816.45005300 0 5509
0.07250000 0.07249820 28460.54080532 0 653.65620472 0 11254.92635742 0 1320.40551942 0 516.64840922 0 5916
0.07350000 0.07351270 27361.54238335 0 820.22803571 0 9565.18677693 0 781.39158743 0 -565.48791258 0 5721
0.07450000 0.07449140 27238.23244483 0 815.92848681 0 9860.89457571 0 27.86636001 0 25.44029036 0 6028
0.07550000 0.07549160 26193.41395938 0 665.26442473 0 9097.28344961 0 204.52588818 0 -192.85134833 0 6183
0.07650000 0.07648840 25859.90385220 0 355.97229954 0 8676.46720819 0 -45.48135896 0 -1812.70105883 0 6330
0.07750000 0.07749960 25373.07126904 0 246.12191621 0 7997.44197883 0 404.78370128 0 -1165.41942714 0 6583
0.07850000 0.07848650 25090.59371617 0 433.17533689 0 7336.84017602 0 1051.71799686 0 -3856.91456012 0 6549
0.07950000 0.07947320 24761.57986927 0 314.11548842 0 6983.72637396 0 1094.03455061 0 -1751.88913838 0 6828
0.08050000 0.08048110 24355.34275185 0 225.49082586 0 5769.00545271 0 1080.20967427 0 -3861.62439278 0 7147
0.08150000 0.08149960 23526.00754092 0 47.18173219 0 5218.78684008 0 968.14713087 0 -3082.09650523 0 7386
0.08250000 0.08250610 23834.22618396 0 -22.49782522 0 5199.82386230 0 364.24879068 0 -3292.57769017 0 7227
0.08350000 0.08350160 23927.41117852 0 18.45692369 0 5335.55471988 0 -26.16531233 0 -1905.98721925 0 7798
0.08450000 0.08449610 24259.01037509 0 243.49947240 0 5046.74868065 0 -588.98087261 0 -1092.59012699 0 7371
0.08550000 0.08548940 23890.54184413 0 371.23935137 0 6472.53530067 0 -432.75493656 0 -1280.17523045 0 8256
0.08650000 0.08650700 23910.43779592 0 613.00101916 0 5590.07677438 0 -121.24165878 0 501.59605383 0 8037
0.08750000 0.08749060 23532.52711834 0 672.71472804 0 7445.08764256 0 400.43694164 0 587.93099583 0 8155
0.08850000 0.08849210 22847.97148883 0 672.61918251 0 5457.43709575 0 1519.96079184 0 1605.14244308 0 8718
0.08950000 0.08949900 22246.14704869 0 571.61519130 0 6522.27518015 0 867.30163284 0 267.46116756 0 8571
0.09050000 0.09049190 21485.49221372 0 953.56126249 0 5287.04007132 0 531.94356267 0 249.32550167 0 8932
0.09150000 0.09150830 20525.99026733 0 1180.35825196 0 4886.98531181 0 -96.39970826 0 -569.73463043 0 9285
0.09250000 0.09250820 19321.89176102 0 1069.11852420 0 5411.20429930 0 -266.60013371 0 -494.58975623 0 9204
0.09350000 0.09350330 18445.34581702 0 761.13930701 0 5676.93328258 0 -690.05230772 0 -164.23152751 0 9349
0.09450000 0.09448040 18014.60408101 0 200.25219277 0 5580.37609280 0 522.76669542 0 -1456.26002415 0 9564
0.09550000 0.09549270 18201.64850917 0 97.84244578 0 7396.39314360 0 74.84025257 0 -498.96349343 0 10155
0.09650000 0.09649430 18160.95735353 0 137.84972024 0 6392.90653089 0 -227.19828070 0 -679.10166578 0 9913
0.09750000 0.09749140 18403.86781582 0 57.94611655 0 8745.73209799 0 -167.82403948 0 1348.42846169 0 10476
0.09850000 0.09850240 17919.39576932 0 303.57175803 0 7448.01021175 0 388.10707185 0 1504.32504668 0 10575
0.09950000 0.09950330 18314.05501648 0 170.33744898 0 8823.38251324 0 280.38229557 0 2134.02630063 0 10882
0.10050000 0.10051200 18011.45669880 0 255.04249663 0 8391.15701134 0 1081.95085107 0 2670.99218605 0 10875
0.10150000 0.10150300 17860.15753996 0 161.27973262 0 7877.49299488 0 840.28023255 0 2590.79014308 0 11118
0.10250000 0.10250800 17582.62587342 0 192.85584459 0 6822.97382786 0 613.43940454 0 2739.63884006 0 11575
0.10350000 0.10349800 17526.87224579 0 226.91951257 0 6622.18208385 0 5.55047596 0 1366.87436954 0 11364
0.10450000 0.10450100 17301.04757261 0 301.50909862 0 5769.03917467 0 -203.96273158 0 974.90388603 0 12093
0.10550000 0.10551000 16688.09488824 0 381.02208970 0 5518.57499508 0 45.08906024 0 134.29093022 0 12067
0.10650000 0.10649700 16754.52713406 0 195.94477541 0 5661.76964474 0 -119.07558539 0 687.43885643 0 12054
0.10750000 0.10749900 16116.17057905 0 31.87882269 0 4923.61859254 0 518.91227628 0 -1424.19044762 0 12807
0.10850000 0.10850100 16664.93914774 0 -141.98515564 0 4909.47785392 0 822.80439286 0 99.94905614 0 12736
0.10950000 0.10950300 16230.82521651 0 111.60898314 0 4606.25005980 0 338.80108149 0 -1191.45277423 0 12933
0.11050000 0.11050200 16430.00954746 0 418.11398898 0 4960.93755296 0 -357.35939584 0 -195.92566631 0 13428
0.11150000 0.11150900 15757.14419470 0 604.43339517 0 5829.60380081 0 -386.09611944 0 631.53123189 0 13453
0.11250000 0.11250000 15445.89057596 0 434.42417319 0 5659.08312922 0 -2.66656337 0 637.34489645 0 13668
0.11350000 0.11349100 15169.82019401 0 -54.49860897 0 5964.37920307 0 541.87580166 0 1174.80537050 0 13791
0.11450000 0.11448600 15567.62682338 0 -285.42597556 0 5947.68683673 0 1154.17877641 0 559.91254982 0 14205
0.11550000 0.11549300 15369.22933798 0 -181.83326248 0 5028.51634516 0 1100.01008053 0 117.08599021 0 14776
0.11650000 0.11649800 15327.41411726 0 199.10789453 0 4308.39529673 0 455.58245006 0 -214.28951741 0 14553
0.11750000 0.11747300 15157.68029122 0 404.25201850 0 3972.67078135 0 370.20745963 0 -98.26160965 0 14568
0.11850000 0.11849100 14658.82021178 0 467.40199431 0 3883.57738365 0 179.04445704 0 -616.95210789 0 16015
0.11950000 0.11950300 14315.08111242 0 522.06752694 0 3647.20898008 0 -175.49353547 0 -747.00531278 0 15270
0.12050000 0.12050700 13929.07716632 0 401.49918313 0 3800.59889996 0 85.31159316 0 -1119.47326728 0 15999
0.12150000 0.12150000 13681.44563072 0 282.08188196 0 3819.40450863 0 -143.92866415 0 35.53765451 0 15670
0.12250000 0.12250700 13636.48302779 0 -27.03230372 0 3640.64444005 0 19.97969464 0 -439.75786196 0 16887
0.12350000 0.12352200 13866.46674175 0 -162.26553769 0 3790.15633543 0 353.33636695 0 -349.70451270 0 16407
0.12450000 0.12449800 13790.03031678 0 -53.77774604 0 3651.13196719 0 533.13394759 0 -281.38720975 0 16306
0.12550000 0.12549900 13879.84311612 0 -16.10965100 0 3484.82653962 0 50.63384844 0 -428.28228163 0 17523
0.12650000 0.12650100 13742.14514467 0 324.84019328 0 3536.80330860 0 -122.15664775 0 -408.22109227 0 17154
0.12750000 0.12750600 13492.71510495 0 154.21498364 0 3209.32943086 0 166.64377115 0 -213.30258827 0 18007
0.12850000 0.12850300 13288.92210719 0 276.67850116 0 3546.21173326 0 -11.93161353 0 -29.13464263 0 17496
0.12950000 0.12949900 13133.46390758 0 91.33264773 0 3610.06987007 0 103.82022384 0 477.77823900 0 18405
0.13050000 0.13049000 13037.35634383 0 236.68651399 0 3694.38599120 0 589.25289636 0 215.07748702 0 18100
0.13150000 0.13148800 13041.74019762 0 215.16291597 0 3296.83789680 0 363.53950562 0 1170.54516387 0 19059
0.13250000 0.13249300 12798.38010929 0 228.59324546 0 3038.96612838 0 306.24703291 0 933.39328694 0 18957
0.13350000 0.13349100 12670.57391048 0 16.50172490 0 3652.76186154 0 395.46407776 0 1696.06806685 0 19468
0.13450000 0.13450700 12695.41574860 0 102.62107122 0 3159.46590421 0 -67.23898732 0 947.59809727 0 19953
0.13550000 0.13551000 12584.13330636 0 103.00145484 0 3579.00071145 0 -113.97907435 0 1278.99496212 0 19956
0.13650000 0.13649900 12594.02507900 0 160.48389455 0 3472.43934252 0 -339.06186458 0 715.21900065 0 19723
0.13750000 0.13749600 12407.43027687 0 250.54511227 0 3732.66040694 0 -506.33736031 0 580.81341579 0 20946
0.13850000 0.13851100 12270.96877699 0 40.83053972 0 3833.91618872 0 -77.83858374 0 326.86688261 0 20955
0.13950000 0.13949800 12274.56578523 0 57.16241838 0 3698.85977019 0 -14.04418143 0 -393.75212665 0 20506
0.14050000 0.14048300 12289.40344419 0 -19.52366144 0 3308.08978818 0 232.68709046 0 -276.04902472 0 21447
0.14150000 0.14148400 12183.40410780 0 147.29186685 0 3436.24444716 0 222.19057080 0 -629.03917962 0 21771
0.14250000 0.14249400 12014.56953382 0 152.94029385 0 2906.60746602 0 171.56942430 0 -218.66213054 0 22470
0.14350000 0.14350900 11866.75497671 0 227.35340169 0 2972.03929392 0 210.05628834 0 -723.49998804 0 22519
0.14450000 0.14449900 11884.17798534 0 156.94533770 0 2542.91621162 0 440.00515628 0 -524.46178555 0 22218
0.14550000 0.14550500 11457.48288359 0 61.24187535 0 2304.17603074 0 180.28205268 0 -736.83926826 0 23559
0.14650000 0.14650700 11531.67117842 0 47.73207445 0 1942.56429673 0 478.38635820 0 -811.96840555 0 23044
0.14750000 0.14750500 11317.08715596 0 105.69100534 0 1265.88836337 0 212.08410173 0 -1300.46460502 0 23649
0.14850000 0.14849900 11240.87554401 0 227.61643291 0 1158.10176351 0 117.12420842 0 -1682.46687946 0 23640
0.14950000 0.14949500 10949.98998439 0 203.10619399 0 957.94848847 0 -90.24702568 0 -1421.03182476 0 24457
0.15050000 0.15050000 10700.32389100 0 148.31589014 0 717.27491567 0 225.29411447 0 -1744.22301458 0 24591
0.15150000 0.15149900 10686.12694913 0 152.74021026 0 1085.81988305 0 161.47531995 0 -1295.26018373 0 25020
0.15250000 0.15250500 10444.47543972 0 116.56892028 0 797.24427716 0 325.13582239 0 -1355.48759035 0 25297
0.15350000 0.15350100 10463.66323051 0 173.66692973 0 1181.14509751 0 140.14618518 0 -574.72210716 0 25452
0.15450000 0.15450400 10225.11414070 0 271.41450442 0 1255.49076145 0 14.18255384 0 -615.43012378 0 26061
0.15550000 0.15549900 10174.99207909 0 259.38138781 0 1510.01281595 0 35.38871588 0 -17.67479921 0 26128
0.15650000 0.15649500 9799.95900810 0 241.12319883 0 1450.35868252 0 -160.65812464 0 -80.34322554 0 26331
0.15750000 0.15749700 9668.26354414 0 304.85094408 0 1962.56141438 0 -126.16731193 0 52.18910487 0 27345
0.15850000 0.15849900 9499.53013601 0 147.09740360 0 1532.38171090 0 14.75605184 0 75.63609064 0 26980
0.15950000 0.15949700 9388.21397183 0 116.85780500 0 1896.57879459 0 68.58078380 0 99.30092022 0 27777
0.16050000 0.16050000 9319.24133894 0 109.81317678 0 1993.66429495 0 -187.93356364 0 368.72481780 0 28224
0.16150000 0.16150500 9224.89855735 0 128.75828193 0 2263.81085397 0 -45.25755760 0 195.57383394 0 28075
0.16250000 0.16249700 9290.60016088 0 74.00439778 0 2346.80057831 0 -93.14700116 0 893.02361391 0 28590
0.16350000 0.16349900 9128.37508953 0 114.33652704 0 2586.01286652 0 -45.90715480 0 1092.82168439 0 29163
0.16450000 0.16449100 9328.96450182 0 50.93644675 0 2874.04330085 0 34.69370645 0 1308.29933858 0 28996
0.16550000 0.16550500 9168.58289719 0 79.13687890 0 2861.20647772 0 255.35273859 0 1158.70875865 0 30777
0.16650000 0.16650700 9136.41215480 0 114.23873338 0 2958.80904801 0 199.41364023 0 1522.55738216 0 29211
0.16750000 0.16749900 9111.44666953 0 53.87025660 0 2472.13383397 0 411.09083040 0 1471.30001483 0 30922
0.16850000 0.16850800 9009.35907959 0 42.26507156 0 2453.29450334 0 433.45635316 0 1571.13947462 0 30867
0.16950000 0.16949900 9026.38866545 0 36.00009488 0 2323.00412072 0 214.85379807 0 1704.97066223 0 30852
0.17050000 0.17049200 8913.45384755 0 103.40802918 0 2307.03115603 0 48.35357003 0 1372.09003148 0 31257
0.17150000 0.17149500 8917.48924116 0 135.66903400 0 2270.70137287 0 -238.12644135 0 1371.58420220 0 32608
0.17250000 0.17250900 8722.35154447 0 137.05388217 0 2458.39775877 0 -82.96994080 0 1576.47878372 0 32361
0.17350000 0.17350400 8670.89184543 0 165.24655827 0 2193.19708608 0 175.77904800 0 1199.70341187 0 32508
0.17450000 0.17449800 8482.48729852 0 167.15297263 0 2326.33135333 0 204.35615435 0 1322.03541377 0 32791
0.17550000 0.17549800 8358.03081363 0 194.25867780 0 2141.10791059 0 172.54736092 0 916.34571605 0 33633
0.17650000 0.17650100 8209.58678008 0 157.40845251 0 2248.70341939 0 183.17652025 0 1319.24773239 0 33984
0.17750000 0.17750300 8050.96995761 0 83.76027095 0 1942.17087395 0 113.93748394 0 1171.60178504 0 34069
