### header ###
fiducial parameters:
Omega_m = 0.31
Omega_nu = 0
Omega_de = 0.69
Omega_k = 0
H_0 = 100
w_de = -1
zeff = 0
beta = 0
fgrowth = 0
b_1 = 2
gamma = 0.55
Lx = 3500 Ly = 3500 Lz = 3500
nx = 700 ny = 700 nz = 700
xoffset = 857.220397 yoffset = 15.9954215 zoffset = 262.898189
bins = 400 dk = 0.001
kx_ny = 0.628318531 ky_ny = 0.628318531 kz_ny = 0.628318531
############################
A(data) = 3.0670438 (not used)
A(ran) = 3.06296566 (used)
Ngal = 186907
weighted Ngal = 0
Nran = 9360983
weighted Nran = 0
SN(data) = 3460.54287
SN(ran) = 68.7826976
SN(data+ran) = 3529.32557
############################
13 columns: k_central k_mean P_0(k) sigma^{lin}_{P_0(k)} P^img_1(k) sigma^{lin}_{P_1(k)} P_2(k) sigma^{lin}_{P_2(k)} P^img_3(k) sigma^{lin}_{P_3(k)} P_4(k) sigma^{lin}_{P_4(k)} N_modes
### header ###
0.00050000 0 0 0 0 0 0 0 0 0 0 0 0
0.00150000 0.00179520 6546.27396946 0 -11343.83990470 0 -542.17367890 0 8076.57615998 0 -1648.85733378 0 3
0.00250000 0.00253879 17087.36280221 0 -19192.84909063 0 -8499.22462746 0 591.32005203 0 35061.83776011 0 6
0.00350000 0.00331552 25500.65265483 0 -20252.05560901 0 -8958.43893178 0 -11804.36936515 0 -34656.94952078 0 7
0.00450000 0.00420575 39450.18780549 0 -19434.18586183 0 -17583.74993849 0 -5962.50201440 0 13572.63613164 0 24
0.00550000 0.00557378 53216.50034922 0 -16340.87118716 0 -23278.82563135 0 -3144.50459809 0 20206.64338006 0 45
0.00650000 0.00659388 61435.77657023 0 -8056.27554476 0 -33705.09121688 0 4324.21089231 0 23313.10961608 0 40
0.00750000 0.00754703 62285.79457851 0 -9306.93282639 0 -30952.25585286 0 1968.27166495 0 -470.68538838 0 57
0.00850000 0.00846663 65514.78390749 0 -4903.38542122 0 -37135.96263299 0 7437.78121959 0 33589.20010784 0 75
0.00950000 0.00948925 70502.93507588 0 -7630.88435849 0 -34059.17171490 0 -4554.44190058 0 17320.38149186 0 112
0.01050000 0.01054430 72755.78629538 0 -5351.20170569 0 -45342.31210566 0 -7449.07807357 0 20957.06922286 0 105
0.01150000 0.01145670 79836.94662988 0 -3437.24486508 0 -22398.57027260 0 -27776.77202135 0 27586.35539797 0 144
0.01250000 0.01249090 83397.64756194 0 2500.57268031 0 -22323.48272572 0 -27173.14907710 0 18822.13242952 0 169
0.01350000 0.01339930 94907.96150396 0 4623.63934648 0 19562.44168667 0 -37880.65574392 0 26655.51711094 0 180
0.01450000 0.01448870 88005.75232911 0 9009.24667308 0 25683.65044873 0 -28314.52475232 0 22538.74118722 0 267
0.01550000 0.01550050 80149.88634623 0 7324.93632690 0 49279.91205672 0 -12864.13791607 0 -10287.98310024 0 238
0.01650000 0.01653350 86467.01965054 0 7578.39051958 0 61571.00159853 0 6981.32087470 0 8128.20446879 0 315
0.01750000 0.01747870 80542.52227626 0 7744.83083495 0 67530.45739658 0 15065.39454872 0 -9354.17728141 0 297
0.01850000 0.01844180 77925.69878609 0 5217.66277501 0 59423.70008938 0 19828.05826344 0 2877.15696110 0 388
0.01950000 0.01947590 71414.55185016 0 2317.81094008 0 44938.09830537 0 27498.00388322 0 -23952.02820363 0 399
0.02050000 0.02045430 74605.54777968 0 -1873.01839065 0 34895.25131627 0 15788.61801675 0 -16057.94400826 0 462
0.02150000 0.02154770 71473.22804698 0 -4025.02973245 0 16610.30958519 0 16276.46225848 0 -20611.41921288 0 571
0.02250000 0.02255340 77338.37478539 0 -2899.34600565 0 15835.49153030 0 -4032.94315057 0 -15155.76938060 0 510
0.02350000 0.02348930 73042.19807601 0 -837.38239279 0 9279.69672967 0 -5142.88996635 0 -7981.00814746 0 555
0.02450000 0.02439640 78957.14089716 0 1136.92437754 0 17161.66350354 0 -3608.83339849 0 -11391.05063777 0 592
0.02550000 0.02547300 75591.69006831 0 3358.16688719 0 26527.37369260 0 -4043.27330859 0 760.59638358 0 837
0.02650000 0.02652900 73915.82145082 0 2297.43164030 0 32192.32444150 0 -2464.01808414 0 -506.88028374 0 723
0.02750000 0.02749970 74612.62938964 0 1259.73972742 0 49499.44196550 0 1181.53852029 0 14273.37829821 0 826
0.02850000 0.02848090 72105.96427663 0 1643.82152225 0 40379.78962094 0 1168.58929064 0 3143.09951675 0 831
0.02950000 0.02946900 71650.15588948 0 1239.67516587 0 41562.75570387 0 9475.34025564 0 8402.54379053 0 996
0.03050000 0.03053250 70380.18716990 0 2348.90258000 0 38153.91596319 0 5380.11265937 0 595.37118255 0 1041
0.03150000 0.03150510 67166.37271940 0 5008.37309905 0 33916.86507665 0 3172.46009646 0 -5078.36863115 0 1036
0.03250000 0.03246190 61009.64350102 0 4576.90072074 0 31614.89221345 0 5685.73471210 0 -5923.99154499 0 1059
0.03350000 0.03345080 60476.04981082 0 3986.81151997 0 24608.25739330 0 1270.66563993 0 -12688.67135816 0 1302
0.03450000 0.03451200 56149.52334446 0 1534.00036461 0 25473.78749959 0 3331.32421324 0 -12153.84119638 0 1339
0.03550000 0.03553350 56647.93379787 0 209.58193288 0 25104.98174910 0 3674.43383615 0 -14222.34574389 0 1365
0.03650000 0.03647120 56491.68875271 0 -1741.64890556 0 19653.49095759 0 5790.07043218 0 -14269.89369649 0 1308
0.03750000 0.03744890 56431.32645829 0 1028.75334742 0 17179.87335772 0 -211.23880480 0 -12992.50614742 0 1579
0.03850000 0.03847530 56329.37375616 0 1194.92613531 0 17649.50774527 0 -1541.28430628 0 -16451.81640988 0 1662
0.03950000 0.03950240 55106.95298916 0 1276.51077831 0 16731.37139356 0 -288.80603923 0 -15791.42817943 0 1683
0.04050000 0.04050350 53091.50431310 0 3014.78748865 0 17617.24707767 0 -5381.47277811 0 -19512.08357139 0 1822
0.04150000 0.04152450 51459.81145298 0 1578.08619677 0 15849.54234371 0 -3719.48636428 0 -18407.01519803 0 1887
0.04250000 0.04250150 49930.40851453 0 1348.02379826 0 21495.94601890 0 -2688.31402882 0 -23575.35399763 0 1920
0.04350000 0.04349210 50482.99890446 0 548.15370509 0 14020.12643724 0 1216.35081560 0 -18347.21493614 0 2005
0.04450000 0.04448520 48532.74600263 0 -1197.12930285 0 18043.04292736 0 4153.58905486 0 -18171.18634569 0 2151
0.04550000 0.04548030 50379.02288520 0 566.29611537 0 12426.53938311 0 5202.87007865 0 -12601.44390848 0 2274
0.04650000 0.04648670 48764.30340769 0 1510.19266636 0 13725.95860761 0 5394.43324841 0 -10167.88798783 0 2311
0.04750000 0.04749250 46876.77333695 0 1871.60206866 0 10623.88746603 0 3842.68389629 0 -4076.21965588 0 2568
0.04850000 0.04851840 45903.10817063 0 2148.32440836 0 12981.49030970 0 2813.91706009 0 3028.25378823 0 2493
0.04950000 0.04949480 43092.83308137 0 1801.92127478 0 12750.83215670 0 2717.78701504 0 4685.46292550 0 2644
0.05050000 0.05050630 41362.22249483 0 1689.58221138 0 14625.66029212 0 1655.70289007 0 6786.74521055 0 2829
0.05150000 0.05149060 40812.10504805 0 2508.59850494 0 15480.51178021 0 856.70507140 0 7127.73035047 0 2784
0.05250000 0.05249300 38516.98898180 0 2552.52696799 0 18186.58603719 0 -3712.94430556 0 6336.61335203 0 3055
0.05350000 0.05348950 37789.38165998 0 2085.57909598 0 19769.38206662 0 -2938.12625067 0 4637.60023469 0 3009
0.05450000 0.05448610 35842.05132735 0 1203.76128678 0 19581.55079291 0 -1662.17750489 0 4359.28172259 0 3336
0.05550000 0.05550870 35409.51108722 0 257.35694662 0 20532.06021872 0 -1348.68699666 0 722.25564800 0 3349
0.05650000 0.05647670 35268.55332705 0 242.96666555 0 18532.23604717 0 1538.04699887 0 -1814.65693206 0 3324
0.05750000 0.05747970 35542.82520489 0 136.68181663 0 16541.29198970 0 5276.21532467 0 -3271.63635786 0 3639
0.05850000 0.05849280 33406.53953346 0 214.58851871 0 14360.60574789 0 4100.48822081 0 -2601.14278241 0 3846
0.05950000 0.05951020 34162.92292115 0 583.42237083 0 11253.24025981 0 5846.19500128 0 -1628.73656897 0 3787
0.06050000 0.06049470 32523.24919902 0 985.24865690 0 11857.98726914 0 4195.94382682 0 -1890.52008384 0 3930
0.06150000 0.06148310 31857.57786273 0 1505.78633127 0 8704.83861063 0 364.36344531 0 -1337.09788575 0 4083
0.06250000 0.06249100 30141.46771563 0 1107.87516385 0 10285.99350506 0 -1785.75721903 0 -894.24772077 0 4303
0.06350000 0.06350600 28931.74888396 0 1074.58035639 0 9042.22674233 0 -1681.85988432 0 -1831.04580082 0 4470
0.06450000 0.06451750 28905.67057427 0 405.00401803 0 11075.55929371 0 -756.86448754 0 -1391.96350197 0 4479
0.06550000 0.06550280 28607.11889085 0 -130.91199061 0 9624.41376564 0 -426.23873133 0 -3028.08517847 0 4636
0.06650000 0.06648880 28589.35866270 0 358.59024710 0 11822.57921933 0 -24.37512630 0 -388.70282634 0 4653
0.06750000 0.06749660 27929.75727780 0 604.60088087 0 10942.39130450 0 306.02334396 0 -2139.20824061 0 5220
0.06850000 0.06852730 27997.42599520 0 818.54755843 0 12627.85943770 0 100.00166238 0 2119.41345468 0 5029
0.06950000 0.06949320 27336.81295174 0 492.02126754 0 12666.30246320 0 656.47985619 0 854.53562581 0 5040
0.07050000 0.07048030 27170.00169489 0 687.91658409 0 14260.78876939 0 1216.32833430 0 3889.15274642 0 5475
0.07150000 0.07148790 26625.05494745 0 208.74338033 0 12629.77034833 0 1428.06847212 0 2145.52548633 0 5509
0.07250000 0.07249820 26765.11345556 0 102.01351405 0 12829.17949229 0 1029.57953525 0 3397.62157125 0 5916
0.07350000 0.07351270 26742.96937362 0 -390.32372818 0 11365.19714109 0 979.81380227 0 1292.28141129 0 5721
0.07450000 0.07449140 27377.84132691 0 -404.64881347 0 11341.36696154 0 966.42731131 0 -102.85161697 0 6028
0.07550000 0.07549160 27740.46471949 0 -202.40477739 0 10510.58170666 0 -746.63999163 0 -2056.04990651 0 6183
0.07650000 0.07648840 27703.37057208 0 405.65485171 0 10515.79736860 0 -591.43807886 0 -1932.52639562 0 6330
0.07750000 0.07749960 27055.57187045 0 816.46803804 0 9601.37043164 0 -1374.06838601 0 -3451.37436305 0 6583
0.07850000 0.07848650 26890.22189820 0 696.82479979 0 11282.91557774 0 201.54936387 0 -3152.37305360 0 6549
0.07950000 0.07947320 26167.78527572 0 643.33054296 0 10796.47641736 0 1052.31487542 0 -2204.05555468 0 6828
0.08050000 0.08048110 25394.42850543 0 596.71219218 0 10529.28614948 0 1503.59440438 0 -2333.55909175 0 7147
0.08150000 0.08149960 24903.54928800 0 754.21956242 0 10022.32156086 0 1416.78285878 0 -2190.85903072 0 7386
0.08250000 0.08250610 23489.92505207 0 928.59802534 0 9002.40111679 0 1092.73850358 0 -1850.97547457 0 7227
0.08350000 0.08350160 23250.72400452 0 771.34694194 0 9113.21145169 0 294.34768004 0 -1137.96975805 0 7798
0.08450000 0.08449610 22338.99482373 0 442.17010561 0 9048.64515389 0 -625.94013222 0 -1850.73942091 0 7371
0.08550000 0.08548940 22272.00054537 0 145.89690210 0 9043.49693586 0 -189.39260010 0 -2193.47810234 0 8256
0.08650000 0.08650700 22483.88681165 0 -23.15349238 0 9013.82161793 0 272.97695487 0 -1917.67749601 0 8037
0.08750000 0.08749060 22395.53529690 0 206.17938790 0 9081.16435646 0 28.58958348 0 -2022.22678846 0 8155
0.08850000 0.08849210 22179.82720938 0 419.61349179 0 8648.89389195 0 881.89649375 0 -1706.37574357 0 8718
0.08950000 0.08949900 21835.52607749 0 553.59642818 0 9654.12280552 0 367.66370037 0 -2223.41195524 0 8571
0.09050000 0.09049190 21373.19811292 0 568.59482845 0 8794.43783761 0 825.78428937 0 -1527.07612376 0 8932
0.09150000 0.09150830 21010.12509431 0 208.12851674 0 9363.79927844 0 584.47786793 0 -507.61542230 0 9285
0.09250000 0.09250820 21061.94449418 0 -29.19635380 0 7366.14455248 0 682.43339466 0 -561.43565800 0 9204
0.09350000 0.09350330 20732.59342776 0 8.42091101 0 7884.41723573 0 1464.06103576 0 256.13958414 0 9349
0.09450000 0.09448040 20709.32528075 0 29.83886940 0 6734.65603506 0 1307.11907025 0 -416.54367007 0 9564
0.09550000 0.09549270 20666.16118194 0 22.57887031 0 5853.31033320 0 1804.50662445 0 24.66018920 0 10155
0.09650000 0.09649430 20344.34135151 0 295.31550007 0 5209.89548535 0 1083.94381844 0 -339.07198117 0 9913
0.09750000 0.09749140 19932.48390873 0 258.08421672 0 4915.31175165 0 704.65278896 0 -702.00561571 0 10476
0.09850000 0.09850240 19541.87129583 0 581.28327499 0 5090.72210630 0 -355.99365678 0 -422.71253919 0 10575
0.09950000 0.09950330 18842.25319433 0 598.86477680 0 4855.15178894 0 -634.20088644 0 -1000.44826482 0 10882
0.10050000 0.10051200 18583.15619498 0 644.13087729 0 4437.65153949 0 -606.12736124 0 -825.02217325 0 10875
0.10150000 0.10150300 18065.74904183 0 505.44148044 0 4850.93654491 0 99.06475414 0 -1033.26534462 0 11118
0.10250000 0.10250800 17584.08715801 0 447.40375259 0 4128.66853219 0 863.95866331 0 -225.19182455 0 11575
0.10350000 0.10349800 16833.66131521 0 570.99021112 0 4632.08107518 0 716.69939435 0 -958.17554961 0 11364
0.10450000 0.10450100 16704.05661228 0 650.90112123 0 4375.40081574 0 -126.45170040 0 67.20537778 0 12093
0.10550000 0.10551000 15985.32940454 0 242.10787983 0 5114.65345171 0 129.46307073 0 551.15833103 0 12067
0.10650000 0.10649700 16020.84986085 0 180.99133775 0 5328.88901399 0 -588.03890608 0 1890.11542042 0 12054
0.10750000 0.10749900 16231.72446857 0 -120.43458006 0 6393.01893739 0 -1036.33291821 0 1252.78176462 0 12807
0.10850000 0.10850100 16546.57509554 0 17.92074465 0 6981.19722754 0 -977.51846139 0 1426.39361516 0 12736
0.10950000 0.10950300 16771.72532968 0 350.32387255 0 7424.33740131 0 -814.75159067 0 1248.95994337 0 12933
0.11050000 0.11050200 16249.70950974 0 430.08977827 0 7726.29500190 0 73.90064657 0 1520.28677072 0 13428
0.11150000 0.11150900 15636.08238633 0 450.83552326 0 7162.66629295 0 881.68741765 0 829.42738427 0 13453
0.11250000 0.11250000 15205.34065032 0 433.27425462 0 6237.94291991 0 1637.72908955 0 562.78453608 0 13668
0.11350000 0.11349100 14649.60287818 0 123.16605819 0 5474.86010439 0 1939.15837956 0 325.21450695 0 13791
0.11450000 0.11448600 14524.71924856 0 136.40866882 0 4456.16489124 0 1363.47969302 0 458.70735097 0 14205
0.11550000 0.11549300 14381.17613872 0 -75.41790961 0 4027.95230164 0 889.34904519 0 650.78983879 0 14776
0.11650000 0.11649800 14490.43526383 0 160.60978984 0 3817.95446469 0 -31.36624902 0 1129.41562285 0 14553
0.11750000 0.11747300 14453.90314895 0 207.42260387 0 4352.35748174 0 -360.92830245 0 1489.30753730 0 14568
0.11850000 0.11849100 14374.65656130 0 280.85440290 0 4473.18323645 0 -291.55662647 0 2512.22923512 0 16015
0.11950000 0.11950300 14283.04525784 0 255.56631095 0 4739.11455144 0 86.30234412 0 2212.18254516 0 15270
0.12050000 0.12050700 14006.97487589 0 -42.28901415 0 4343.17387009 0 723.45052918 0 2011.10978488 0 15999
0.12150000 0.12150000 14190.98432835 0 -30.61267579 0 4136.26721209 0 558.43552832 0 1789.81509394 0 15670
0.12250000 0.12250700 14126.46299316 0 87.23217075 0 3641.83594903 0 593.02188655 0 1548.35467559 0 16887
0.12350000 0.12352200 13850.84223723 0 160.29392755 0 3281.89907198 0 91.01509934 0 1085.16792531 0 16407
0.12450000 0.12449800 13834.20607415 0 188.89239114 0 2889.44299235 0 97.36067149 0 312.28213828 0 16306
0.12550000 0.12549900 13457.30705514 0 193.02895061 0 3417.93342712 0 -241.61891153 0 644.48383373 0 17523
0.12650000 0.12650100 13439.65923349 0 104.61089121 0 3320.45450398 0 -23.90695319 0 1008.36730326 0 17154
0.12750000 0.12750600 13494.17638954 0 93.88258934 0 4087.02192123 0 -32.36756619 0 1338.40180124 0 18007
0.12850000 0.12850300 13352.31937732 0 -67.01147655 0 3729.58046864 0 187.83127371 0 1098.17673040 0 17496
0.12950000 0.12949900 13725.95860761 0 11.28954756 0 4561.50102924 0 127.02384952 0 2196.61424390 0 18405
0.13050000 0.13049000 13546.55782195 0 64.39521509 0 4195.03333411 0 318.93997571 0 1824.98709008 0 18100
0.13150000 0.13148800 13772.49490164 0 101.25004905 0 4463.98838415 0 70.08467046 0 3115.05409318 0 19059
0.13250000 0.13249300 13496.08730016 0 164.01458295 0 4012.94603292 0 354.38511966 0 1709.25335015 0 18957
0.13350000 0.13349100 13529.24721982 0 77.66525291 0 4371.01696195 0 -138.78494238 0 1945.61051308 0 19468
0.13450000 0.13450700 13337.93134438 0 316.79076329 0 3854.68891127 0 -150.45723410 0 1456.60848432 0 19953
0.13550000 0.13551000 13192.36491741 0 339.68010037 0 4101.93826475 0 -66.41639650 0 1469.78252698 0 19956
0.13650000 0.13649900 12825.24526454 0 245.71388059 0 4097.29587600 0 -111.01221699 0 1613.85394740 0 19723
0.13750000 0.13749600 12666.41486971 0 264.58243691 0 4141.41543012 0 295.71229504 0 1572.21857709 0 20946
0.13850000 0.13851100 12578.62538750 0 -10.28183446 0 4495.06878342 0 566.47034546 0 1923.64628155 0 20955
0.13950000 0.13949800 12557.38055762 0 -7.51545412 0 3957.49590286 0 578.16511848 0 1649.34068176 0 20506
0.14050000 0.14048300 12613.92103080 0 180.43492553 0 4175.44087988 0 551.76645024 0 2487.63469132 0 21447
0.14150000 0.14148400 12236.68479226 0 264.48464324 0 3585.55401082 0 119.08907417 0 1913.10255116 0 21771
0.14250000 0.14249400 11859.67336675 0 393.57452437 0 3886.62360000 0 -59.31297968 0 1856.19113651 0 22470
0.14350000 0.14350900 11726.80887511 0 357.74607423 0 3761.72872973 0 -477.11504060 0 1180.21212350 0 22519
0.14450000 0.14449900 11295.50510656 0 232.08009532 0 3485.84943884 0 -478.89893187 0 206.64587491 0 22218
0.14550000 0.14550500 11260.65908929 0 362.58405030 0 3869.68393935 0 -615.75048233 0 -43.68577741 0 23559
0.14650000 0.14650700 10850.63387258 0 291.12835767 0 3422.62077848 0 -492.23708803 0 -1237.73053329 0 23044
0.14750000 0.14750500 10667.68104128 0 378.94818964 0 3928.80976219 0 -16.72934808 0 -438.17630241 0 23649
0.14850000 0.14849900 10417.14941779 0 237.43963759 0 3645.41047596 0 292.92686179 0 -775.92188679 0 23640
0.14950000 0.14949500 10301.11218029 0 6.30741014 0 3740.75367547 0 854.05452596 0 -326.31159446 0 24457
0.15050000 0.15050000 10258.15041320 0 15.90079971 0 3415.24691160 0 609.76146362 0 -300.32658217 0 24591
0.15150000 0.15149900 10253.36189599 0 -51.88965394 0 3055.04025892 0 731.11890111 0 -292.93473024 0 25020
0.15250000 0.15250500 10218.03253074 0 112.25902997 0 3029.74879478 0 -74.02384410 0 -127.01036074 0 25297
0.15350000 0.15350100 10162.33510637 0 161.90358874 0 2681.32234407 0 -91.82734876 0 -121.27762887 0 25452
0.15450000 0.15450400 9870.80882966 0 140.19339592 0 2648.29731222 0 -289.70978755 0 -456.87624896 0 26061
0.15550000 0.15549900 9962.09415425 0 41.05737605 0 2683.59295552 0 162.38918485 0 -158.78093597 0 26128
0.15650000 0.15649500 9845.46116226 0 38.99786402 0 2700.85859504 0 267.18239942 0 -536.98949079 0 26331
0.15750000 0.15749700 9882.30801536 0 164.86325208 0 2650.73653343 0 245.35193164 0 -448.50646043 0 27345
0.15850000 0.15849900 9668.97170513 0 285.47206222 0 2789.07522198 0 77.77900829 0 -18.43725255 0 26980
0.15950000 0.15949700 9427.42136157 0 245.44635310 0 2924.34521287 0 -56.72212209 0 502.17719547 0 27777
0.16050000 0.16050000 9375.73684951 0 76.45620852 0 3003.59180053 0 209.93151712 0 681.66003789 0 28224
0.16150000 0.16150500 9238.44354149 0 13.30274811 0 2877.94380666 0 183.70707896 0 563.98391352 0 28075
0.16250000 0.16249700 9346.91582104 0 58.13653317 0 2711.17751241 0 165.78723357 0 348.89181365 0 28590
0.16350000 0.16349900 9100.99286435 0 94.56309834 0 2546.11979708 0 314.66852843 0 631.71333043 0 29163
0.16450000 0.16449100 9032.89700222 0 187.83914217 0 2291.15935720 0 165.45451030 0 597.37201838 0 28996
0.16550000 0.16550500 8969.39856624 0 86.08393827 0 2172.98639606 0 338.39529400 0 589.90148191 0 30777
0.16650000 0.16650700 8898.60494794 0 75.83538738 0 2220.86032752 0 217.48298628 0 644.46135242 0 29211
0.16750000 0.16749900 8779.72382580 0 143.49814723 0 2157.26072569 0 56.29767512 0 842.79701425 0 30922
0.16850000 0.16850800 8683.18911733 0 125.18263093 0 2136.47676249 0 38.01644280 0 794.52516375 0 30867
0.16950000 0.16949900 8660.96635083 0 24.61904842 0 2327.64650947 0 84.29881053 0 991.13201349 0 30852
0.17050000 0.17049200 8599.23269702 0 3.55919468 0 1991.39368350 0 -1.87254628 0 334.21377192 0 31257
0.17150000 0.17149500 8604.02121423 0 -4.39113773 0 1895.42100756 0 119.85456248 0 43.89507832 0 32608
0.17250000 0.17250900 8483.30786603 0 184.52427427 0 1594.40762164 0 -215.42369906 0 -244.23798315 0 32361
0.17350000 0.17350400 8318.60985152 0 200.54444969 0 1643.39437752 0 -173.96031071 0 -539.99748892 0 32508
0.17450000 0.17449800 8177.84318241 0 223.59565215 0 1726.88993115 0 -260.07830816 0 -775.01701441 0 32791
0.17550000 0.17549800 8088.54745301 0 147.74036882 0 1694.95524242 0 -141.98740377 0 -984.49890549 0 33633
0.17650000 0.17650100 7995.26129259 0 88.49528267 0 1913.30488287 0 29.00278980 0 -783.08667756 0 33984
0.17750000 0.17750300 7995.74464057 0 158.42910360 0 1988.29126390 0 112.34828074 0 -793.38536176 0 34069
