### header ###
fiducial parameters:
Omega_m = 0.31
Omega_nu = 0
Omega_de = 0.69
Omega_k = 0
H_0 = 100
w_de = -1
zeff = 0
beta = 0
fgrowth = 0
b_1 = 2
gamma = 0.55
Lx = 3500 Ly = 3500 Lz = 3500
nx = 700 ny = 700 nz = 700
xoffset = 857.220397 yoffset = 15.9954215 zoffset = 262.898189
bins = 400 dk = 0.001
kx_ny = 0.628318531 ky_ny = 0.628318531 kz_ny = 0.628318531
############################
A(data) = 3.09754657 (not used)
A(ran) = 3.0940239 (used)
Ngal = 188197
weighted Ngal = 0
Nran = 9360983
weighted Nran = 0
SN(data) = 3448.85324
SN(ran) = 69.4801489
SN(data+ran) = 3518.33338
############################
13 columns: k_central k_mean P_0(k) sigma^{lin}_{P_0(k)} P^img_1(k) sigma^{lin}_{P_1(k)} P_2(k) sigma^{lin}_{P_2(k)} P^img_3(k) sigma^{lin}_{P_3(k)} P_4(k) sigma^{lin}_{P_4(k)} N_modes
### header ###
0.00050000 0 0 0 0 0 0 0 0 0 0 0 0
0.00150000 0.00179520 6886.71955815 0 -6958.90701714 0 1375.55215190 0 7065.78312430 0 -50724.44808216 0 3
0.00250000 0.00253879 16641.33378120 0 -10530.47765846 0 2547.19889955 0 1295.70980976 0 43777.95074343 0 6
0.00350000 0.00331552 18593.83481318 0 -3993.06132177 0 7278.05157270 0 -18585.29191862 0 -20248.90822681 0 7
0.00450000 0.00420575 23102.68463439 0 2703.44394471 0 7259.80799656 0 -7395.70746390 0 16669.99744057 0 24
0.00550000 0.00557378 22273.79904949 0 -2936.05797093 0 6250.08282270 0 9476.07089794 0 19099.77650258 0 45
0.00650000 0.00659388 28833.39319007 0 -5055.62879472 0 15835.26671728 0 6367.09799681 0 8561.90249594 0 40
0.00750000 0.00754703 37866.26771098 0 -14994.24122959 0 5288.41143071 0 21966.47965850 0 -8884.49793127 0 57
0.00850000 0.00846663 50207.15333552 0 -13341.64075912 0 9997.23242843 0 14227.17922371 0 8611.74354128 0 75
0.00950000 0.00948925 59222.94206733 0 -5629.82371536 0 2259.50568474 0 977.87479002 0 13022.29387185 0 112
0.01050000 0.01054430 65561.32020152 0 -1209.58394386 0 1311.85138421 0 -102.77293241 0 -2066.51495234 0 105
0.01150000 0.01145670 68353.27303008 0 4062.89948476 0 8706.70455866 0 -9954.34934589 0 26825.81296951 0 144
0.01250000 0.01249090 62643.35967826 0 6679.56560583 0 9104.45498477 0 -3485.41105346 0 4689.55452237 0 169
0.01350000 0.01339930 64356.65966268 0 916.01861311 0 24951.43446012 0 -2662.35936629 0 23318.61753493 0 180
0.01450000 0.01448870 60850.02626064 0 -1250.89333530 0 17317.00929664 0 9601.01073081 0 2350.38634590 0 267
0.01550000 0.01550050 61041.79176211 0 -2297.21806794 0 23538.37225672 0 7753.30628561 0 -7004.07195178 0 238
0.01650000 0.01653350 60709.96775253 0 313.21174010 0 20356.25644129 0 -2511.22881721 0 -3649.89549561 0 315
0.01750000 0.01747870 60298.33512276 0 4933.74641885 0 32335.75514483 0 -5145.73385098 0 -2140.95054148 0 297
0.01850000 0.01844180 56478.08756533 0 6603.84858251 0 27658.29556265 0 -13495.75008064 0 1494.96158462 0 388
0.01950000 0.01947590 53181.65433196 0 4590.26585446 0 31560.93708994 0 -9567.27753797 0 -2685.64999460 0 399
0.02050000 0.02045430 56222.81238723 0 -253.70036293 0 39400.27931624 0 3046.86830584 0 -5763.71110622 0 462
0.02150000 0.02154770 58805.23948617 0 -3394.99125898 0 29563.58586155 0 -507.21637919 0 -13404.25118369 0 571
0.02250000 0.02255340 63866.90451033 0 -6868.65583243 0 34246.66576910 0 9447.78942070 0 -25867.43508819 0 510
0.02350000 0.02348930 68211.19120484 0 -2441.33445096 0 27583.77004830 0 -70.79148258 0 -13560.27141584 0 555
0.02450000 0.02439640 69279.83986984 0 -1205.86328847 0 34546.00429806 0 9286.51980466 0 -13587.36138410 0 592
0.02550000 0.02547300 69478.46216826 0 499.43560076 0 22210.06455984 0 13220.69135726 0 1094.00644898 0 837
0.02650000 0.02652900 66641.54673677 0 1391.83985481 0 27661.89257088 0 16170.46292208 0 -2604.58242153 0 723
0.02750000 0.02749970 67052.39252099 0 -602.05712161 0 11018.53547255 0 13033.53452258 0 5776.40180090 0 826
0.02850000 0.02848090 64931.73135408 0 168.65359950 0 15927.88967931 0 12794.67069455 0 2471.56056078 0 831
0.02950000 0.02946900 64719.62027478 0 2773.31582965 0 8990.22749204 0 -351.06800363 0 5763.48629321 0 996
0.03050000 0.03053250 61956.89313812 0 4551.58677529 0 16378.97699314 0 -14180.64292968 0 3285.31622980 0 1041
0.03150000 0.03150510 59188.09605006 0 6728.11397634 0 18988.26924733 0 -15368.55489893 0 2640.78855753 0 1036
0.03250000 0.03246190 54017.62152682 0 4256.41852775 0 24342.19119050 0 -12733.97118060 0 6606.24284111 0 1059
0.03350000 0.03345080 53387.47064684 0 2379.69072235 0 30552.31349985 0 -4308.47398128 0 827.95823122 0 1302
0.03450000 0.03451200 55347.84013433 0 -2480.94650414 0 33024.35740861 0 2957.92103661 0 -3340.26053057 0 1339
0.03550000 0.03553350 55892.78688177 0 -2127.52920451 0 37660.56380261 0 1498.28881724 0 -7346.46217305 0 1365
0.03650000 0.03647120 58734.19857355 0 1331.21902542 0 35594.98182428 0 1790.03990696 0 -7013.26680408 0 1308
0.03750000 0.03744890 57810.77911599 0 -341.17847912 0 39058.90075354 0 801.17962898 0 -613.72716520 0 1579
0.03850000 0.03847530 56568.68721022 0 1274.82468070 0 30955.74045458 0 4970.52582804 0 -3319.93743405 0 1662
0.03950000 0.03950240 57140.27429989 0 894.06112597 0 33577.95945711 0 6255.99540498 0 -396.54767649 0 1683
0.04050000 0.04050350 53936.68884156 0 2018.24759810 0 22896.08147396 0 5624.29331520 0 -12189.69887221 0 1822
0.04150000 0.04152450 53148.71922532 0 4215.13161761 0 28843.28496271 0 3339.73221999 0 2869.04121128 0 1887
0.04250000 0.04250150 48346.82563954 0 3240.56719924 0 17001.59663713 0 445.06906943 0 -11266.05460164 0 1920
0.04350000 0.04349210 49095.79019775 0 2216.71252741 0 25933.75492750 0 1390.27740436 0 5580.54470256 0 2005
0.04450000 0.04448520 45482.48302027 0 1574.56787310 0 21395.79182089 0 1816.57908333 0 -4783.34651207 0 2151
0.04550000 0.04548030 45722.24610036 0 942.15312606 0 21499.09340111 0 1119.04387442 0 3057.09729801 0 2274
0.04650000 0.04648670 44599.30509234 0 1497.11978956 0 24811.93798455 0 4778.68164201 0 3955.31521662 0 2311
0.04750000 0.04749250 42780.79261708 0 523.70191756 0 22241.98800792 0 4859.00733214 0 2340.56201716 0 2568
0.04850000 0.04851840 42442.44903008 0 1070.24596146 0 21032.04436324 0 5275.01257504 0 5048.98557014 0 2493
0.04950000 0.04949480 41297.92597265 0 517.62634584 0 20724.83737876 0 3338.94537444 0 3790.86449642 0 2644
0.05050000 0.05050630 40538.84482878 0 1063.87700876 0 17463.69978868 0 3775.29619516 0 5443.53241080 0 2829
0.05150000 0.05149060 40192.97000579 0 450.33081804 0 19158.22788638 0 1646.36190931 0 6439.88121029 0 2784
0.05250000 0.05249300 39556.74917442 0 274.34156987 0 12846.71490744 0 4178.00374825 0 6769.62569949 0 3055
0.05350000 0.05348950 39081.71927452 0 405.63124634 0 14802.47572812 0 2504.15844790 0 1334.84975561 0 3009
0.05450000 0.05448610 39000.56177625 0 190.67291022 0 13446.96565647 0 1450.78582725 0 3774.03724228 0 3336
0.05550000 0.05550870 39129.15482061 0 613.99694081 0 13028.25141674 0 -1028.32058237 0 -2813.01780803 0 3349
0.05650000 0.05647670 38030.15639864 0 406.80589435 0 14156.81275013 0 -2566.18435863 0 -4204.37431486 0 3324
0.05750000 0.05747970 38025.21051232 0 1181.45983573 0 12258.60406119 0 -4469.36141520 0 -6217.20391931 0 3639
0.05850000 0.05849280 36662.39401769 0 440.28504848 0 13978.19881002 0 -1142.51098095 0 -9414.26980022 0 3846
0.05950000 0.05951020 34745.18862902 0 1183.59555937 0 12439.35372494 0 -175.96676687 0 -10667.44498761 0 3787
0.06050000 0.06049470 33676.76477703 0 1805.54076432 0 13656.49138610 0 1421.09926867 0 -11370.59265344 0 3930
0.06150000 0.06148310 32700.62666756 0 1030.15280844 0 11360.36366128 0 2772.95612883 0 -9420.59828658 0 4083
0.06250000 0.06249100 31135.36605327 0 1302.94878883 0 10812.24705033 0 2034.31048799 0 -8898.53750403 0 4303
0.06350000 0.06350600 30290.18152480 0 681.49817252 0 9935.73482828 0 1343.83103554 0 -5500.98337668 0 4470
0.06450000 0.06451750 29827.62874722 0 -282.79004296 0 10655.74347020 0 869.18556590 0 -3234.84570802 0 4479
0.06550000 0.06550280 30833.55458114 0 119.22845824 0 10662.38669479 0 185.80458439 0 -1778.38335215 0 4636
0.06650000 0.06648880 30596.03963119 0 -132.41711374 0 9953.84351661 0 -573.27318728 0 -3457.87145917 0 4653
0.06750000 0.06749660 30786.34384807 0 939.39916663 0 12775.67399482 0 -1644.05757591 0 -2220.19712913 0 5220
0.06850000 0.06852730 30042.43758269 0 942.59263550 0 11976.12650832 0 -536.78715907 0 -3184.37518623 0 5029
0.06950000 0.06949320 29753.10323288 0 987.13258996 0 13136.61128979 0 437.00165440 0 -2045.12399400 0 5040
0.07050000 0.07048030 29102.15714904 0 795.31425743 0 13541.72434213 0 772.80373028 0 -1555.43628555 0 5475
0.07150000 0.07148790 28136.36043824 0 483.35809802 0 13823.41504945 0 1437.35324962 0 -1691.15590248 0 5509
0.07250000 0.07249820 28226.06083107 0 581.10679677 0 13573.42297719 0 1976.14012046 0 1632.41226176 0 5916
0.07350000 0.07351270 27887.49243105 0 575.19758669 0 14059.69352782 0 807.17876428 0 929.57483789 0 5721
0.07450000 0.07449140 27614.34461829 0 403.23586367 0 14285.96782703 0 2353.53372810 0 3652.27851356 0 6028
0.07550000 0.07549160 27481.59253316 0 233.62456073 0 14633.07912160 0 1172.73709076 0 5883.28914870 0 6183
0.07650000 0.07648840 27229.12751774 0 156.09329638 0 12849.41266361 0 1597.15034041 0 5768.15116326 0 6330
0.07750000 0.07749960 27379.07779849 0 256.07663650 0 13522.95245541 0 1561.34886784 0 7177.44774866 0 6583
0.07850000 0.07848650 26530.85829433 0 497.34483972 0 12149.56974910 0 1168.03849876 0 5795.30857542 0 6549
0.07950000 0.07947320 25716.13592935 0 422.66757659 0 10987.81477410 0 2304.31091855 0 6064.75821410 0 6828
0.08050000 0.08048110 25291.46414473 0 782.55049853 0 11016.69200583 0 498.67123651 0 5485.74105429 0 7147
0.08150000 0.08149960 24592.29566926 0 784.27706248 0 10940.59280038 0 671.74803207 0 6370.26786032 0 7386
0.08250000 0.08250610 24112.76950908 0 968.91599138 0 12000.63112691 0 -281.47825902 0 5085.89986714 0 7227
0.08350000 0.08350160 23216.77723931 0 781.64000582 0 10567.95398799 0 -68.61248244 0 4799.62297432 0 7798
0.08450000 0.08449610 22877.08477422 0 456.99877205 0 12773.65067768 0 -832.29599834 0 5413.12645057 0 7371
0.08550000 0.08548940 22585.16507474 0 399.16787217 0 10833.25582655 0 492.55632251 0 3493.18958377 0 8256
0.08650000 0.08650700 22585.50229426 0 70.41784335 0 12573.11746864 0 607.40991949 0 4472.55376000 0 8037
0.08750000 0.08749060 22245.02298362 0 468.39229564 0 10441.54162987 0 1153.52681867 0 2375.76773525 0 8155
0.08850000 0.08849210 21779.77244986 0 392.14583766 0 10498.07086240 0 1298.16027162 0 3644.76975887 0 8718
0.08950000 0.08949900 21288.21879339 0 605.04825877 0 10359.60852670 0 801.84170331 0 1893.76863190 0 8571
0.09050000 0.09049190 20908.17239218 0 323.99714447 0 9383.20064160 0 593.75814917 0 2115.61411473 0 8932
0.09150000 0.09150830 20647.38929522 0 349.00422016 0 9798.18298529 0 56.02227918 0 1480.07896305 0 9285
0.09250000 0.09250820 20468.10091606 0 295.68082122 0 8829.96953457 0 -718.13145325 0 624.52943055 0 9204
0.09350000 0.09350330 20182.25116797 0 307.37559424 0 9491.45934879 0 -139.49197931 0 922.95072242 0 9349
0.09450000 0.09448040 19926.97598987 0 285.65303670 0 9072.89123752 0 109.05544451 0 -654.11032701 0 9564
0.09550000 0.09549270 19846.83015016 0 114.69510380 0 8873.40340900 0 765.19605786 0 -136.58851923 0 10155
0.09650000 0.09649430 19630.44762359 0 94.71406028 0 8174.38106199 0 331.33616534 0 -1629.90559664 0 9913
0.09750000 0.09749140 19735.66011443 0 134.82148893 0 8270.90452982 0 562.86434470 0 -928.36084761 0 10476
0.09850000 0.09850240 19583.23689052 0 12.73228508 0 8023.56525113 0 55.60165403 0 -1644.81069951 0 10575
0.09950000 0.09950330 19730.37700859 0 313.50849328 0 8434.09629713 0 157.67373187 0 -812.20445922 0 10882
0.10050000 0.10051200 19127.09128385 0 362.02988622 0 8502.54061943 0 683.75417112 0 -738.61866327 0 10875
0.10150000 0.10150300 18843.60207242 0 506.60488780 0 8235.94610604 0 753.46306663 0 -305.64790622 0 11118
0.10250000 0.10250800 18561.68655209 0 494.09629166 0 8715.86568900 0 403.46966921 0 95.97852108 0 11575
0.10350000 0.10349800 18039.22110611 0 563.70402131 0 8611.03538028 0 560.68253440 0 -105.19540505 0 11364
0.10450000 0.10450100 17591.16876797 0 546.79246229 0 7997.94780811 0 44.79264428 0 344.76761890 0 12093
0.10550000 0.10551000 17132.66262465 0 490.83088262 0 7766.57025347 0 266.22132378 0 543.17184869 0 12067
0.10650000 0.10649700 16620.20135783 0 291.90283851 0 7927.34528087 0 717.40193502 0 695.22525519 0 12054
0.10750000 0.10749900 16729.57288944 0 -28.32104433 0 6915.12468255 0 648.42368181 0 293.96212572 0 12807
0.10850000 0.10850100 16686.40879063 0 -157.38821934 0 7082.63285974 0 1047.95575106 0 26.17497929 0 12736
0.10950000 0.10950300 16600.75503206 0 -58.05492605 0 6166.55354712 0 1008.65393985 0 138.49156140 0 12933
0.11050000 0.11050200 16698.66109993 0 221.01142654 0 6492.37504921 0 524.76528312 0 560.54427439 0 13428
0.11150000 0.11150900 16420.23018132 0 349.35155626 0 6148.33245228 0 273.27932838 0 1339.44718176 0 13453
0.11250000 0.11250000 16059.85491889 0 336.34612337 0 6110.76619754 0 480.30850947 0 280.06643329 0 13668
0.11350000 0.11349100 15787.04432565 0 413.73687959 0 6033.49796441 0 238.36474314 0 1605.77191953 0 13791
0.11450000 0.11448600 15408.90883506 0 233.21877324 0 6074.63874609 0 222.46034642 0 582.39497535 0 14205
0.11550000 0.11549300 15244.79533438 0 360.82713659 0 5469.08240991 0 164.72836427 0 437.85481979 0 14776
0.11650000 0.11649800 14987.60924566 0 248.72525092 0 5270.49383345 0 259.99287921 0 464.12422055 0 14553
0.11750000 0.11747300 14556.53029013 0 143.07662283 0 5055.98849555 0 240.64884337 0 -41.34940815 0 14568
0.11850000 0.11849100 14598.23310434 0 50.54886912 0 4282.01348946 0 343.61208000 0 183.63289067 0 16015
0.11950000 0.11950300 14735.59385627 0 -35.53990264 0 4733.20196916 0 599.73592723 0 -251.96593053 0 15270
0.12050000 0.12050700 14476.38445041 0 92.95073940 0 3873.05613457 0 14.73244647 0 -61.61933640 0 15999
0.12150000 0.12150000 14604.30305573 0 226.84307614 0 4650.70683344 0 93.40295078 0 -194.02712040 0 15670
0.12250000 0.12250700 14126.01336713 0 406.52487808 0 4756.60500398 0 -281.53446227 0 440.76502427 0 16887
0.12350000 0.12352200 14128.03668426 0 338.89100669 0 4651.99950827 0 242.05392471 0 404.97816454 0 16407
0.12450000 0.12449800 13582.97753032 0 163.24572244 0 5031.04549157 0 26.46273995 0 1140.53262642 0 16306
0.12550000 0.12549900 13811.16274015 0 -40.14564687 0 4866.25755186 0 752.87068433 0 782.64379593 0 17523
0.12650000 0.12650100 13847.47004202 0 50.64992257 0 5117.16011682 0 189.89056093 0 891.74555192 0 17154
0.12750000 0.12750600 13981.57100524 0 -84.73539741 0 4610.80252335 0 622.96023571 0 1297.26101956 0 18007
0.12850000 0.12850300 13717.64052607 0 82.44252947 0 5248.63076777 0 -79.50624669 0 1033.73520382 0 17496
0.12950000 0.12949900 13931.32529647 0 188.39443032 0 4730.43676908 0 -359.75365445 0 1203.98609980 0 18405
0.13050000 0.13049000 13601.86182354 0 161.37640222 0 5458.19021935 0 -180.94525108 0 801.29653175 0 18100
0.13150000 0.13148800 13697.29494825 0 57.70073315 0 5539.04422006 0 -98.56746776 0 1719.63971143 0 19059
0.13250000 0.13249300 13379.74656510 0 34.32568754 0 5595.30367697 0 193.18069940 0 1273.50952457 0 18957
0.13350000 0.13349100 13640.08003603 0 -49.94861837 0 5024.52591415 0 803.65032401 0 1245.31797253 0 19468
0.13450000 0.13450700 13580.50458715 0 215.79801273 0 5188.57197092 0 425.46987082 0 969.78152149 0 19953
0.13550000 0.13551000 13240.02527651 0 329.12962560 0 4832.11969559 0 449.98348193 0 1233.98739660 0 19956
0.13650000 0.13649900 12917.08138101 0 391.99071668 0 4478.87100572 0 417.45416278 0 1654.35401198 0 19723
0.13750000 0.13749600 12520.17400370 0 270.73669318 0 3909.20606732 0 334.52963421 0 1300.27351396 0 20946
0.13850000 0.13851100 12280.74814313 0 149.83337798 0 3889.83842611 0 555.79959572 0 1494.21970167 0 20955
0.13950000 0.13949800 12193.07106743 0 161.80467101 0 3324.74843256 0 430.69564934 0 546.23380195 0 20506
0.14050000 0.14048300 12120.56887021 0 146.49940098 0 3425.40845986 0 -289.82106999 0 866.15283834 0 21447
0.14150000 0.14148400 11796.38850313 0 337.04866404 0 3393.76602805 0 -513.85285939 0 350.18336442 0 21771
0.14250000 0.14249400 11724.33593195 0 362.66273486 0 3709.60583229 0 -570.94300038 0 620.98974963 0 22470
0.14350000 0.14350900 11293.59419593 0 362.72680657 0 3832.48862608 0 -44.97305673 0 509.83320268 0 22519
0.14450000 0.14449900 11200.56657048 0 194.48798708 0 3891.22102615 0 475.03214802 0 575.17510538 0 22218
0.14550000 0.14550500 11034.15997706 0 25.01584339 0 3559.35205397 0 692.02729006 0 863.02344117 0 23559
0.14650000 0.14650700 11129.33456680 0 -141.67266555 0 3263.61053324 0 892.16145600 0 864.71965537 0 23044
0.14750000 0.14750500 11070.86070170 0 -42.01519190 0 3065.76383972 0 402.90763667 0 1158.49518629 0 23649
0.14850000 0.14849900 11234.76063001 0 64.04248347 0 2832.61026226 0 -288.55762085 0 837.64879621 0 23640
0.14950000 0.14949500 11061.49723964 0 164.07303433 0 3284.60806880 0 -348.33315331 0 955.74981718 0 24457
0.15050000 0.15050000 10997.67282479 0 260.87864249 0 3363.46123368 0 -531.82778397 0 1077.27586443 0 24591
0.15150000 0.15149900 10822.13882297 0 155.00407732 0 3358.31301564 0 -72.12451135 0 743.24306698 0 25020
0.15250000 0.15250500 10687.37466136 0 216.37803031 0 3528.67631812 0 326.96917253 0 600.02930822 0 25297
0.15350000 0.15350100 10448.98294066 0 187.32094817 0 3361.89878323 0 494.13113768 0 297.18369622 0 25452
0.15450000 0.15450400 10350.79585652 0 99.21706496 0 3135.24230189 0 608.70259432 0 799.77567171 0 26061
0.15550000 0.15549900 10168.58490817 0 143.59594089 0 2971.06135731 0 476.54851181 0 514.80719063 0 26128
0.15650000 0.15649500 10113.11229682 0 130.40728539 0 2777.29502001 0 159.24292671 0 888.34637914 0 26331
0.15750000 0.15749700 9902.68731513 0 209.34250702 0 2666.30483469 0 49.59217733 0 717.83807227 0 27345
0.15850000 0.15849900 9878.89085753 0 176.47147209 0 2622.91592287 0 103.03315348 0 1039.31618691 0 26980
0.15950000 0.15949700 9599.20098605 0 236.89109383 0 2369.85515296 0 -85.72929574 0 464.81214838 0 27777
0.16050000 0.16050000 9550.20298951 0 178.53075930 0 2499.05519247 0 153.59562378 0 863.96877990 0 28224
0.16150000 0.16150500 9268.25374722 0 137.40571454 0 2344.68733598 0 116.15189213 0 541.34636701 0 28075
0.16250000 0.16249700 9271.63718309 0 39.89498035 0 2065.64942223 0 369.43522692 0 731.01211492 0 28590
0.16350000 0.16349900 9260.93608360 0 -46.41467019 0 2043.70767200 0 258.00103590 0 611.01816837 0 29163
0.16450000 0.16449100 9344.74637545 0 34.35232789 0 2210.62009471 0 -75.85033744 0 308.69749476 0 28996
0.16550000 0.16550500 9313.18262820 0 80.04107685 0 2090.07535627 0 -207.06852338 0 683.72157323 0 30777
0.16650000 0.16650700 9210.61169028 0 221.66226022 0 2571.08528235 0 -381.24353052 0 408.20647943 0 29211
0.16750000 0.16749900 9153.72275693 0 193.83940153 0 2696.11504043 0 -358.95219605 0 703.00828176 0 30922
0.16850000 0.16850800 8943.14040613 0 184.56586468 0 2956.21245770 0 -209.01990034 0 320.13598095 0 30867
0.16950000 0.16949900 8860.94876799 0 175.54524247 0 3299.41200581 0 -73.73653307 0 565.31255843 0 30852
0.17050000 0.17049200 8706.55843020 0 138.67928026 0 2990.50768308 0 79.83784588 0 141.88623792 0 31257
0.17150000 0.17149500 8682.72825065 0 75.89642411 0 3082.66977842 0 253.62505057 0 272.90613877 0 32608
0.17250000 0.17250900 8605.94336550 0 62.70181106 0 2812.46701615 0 362.40757209 0 249.56380346 0 32361
0.17350000 0.17350400 8609.31556072 0 30.68326708 0 2741.36990027 0 261.60591259 0 232.02051987 0 32508
0.17450000 0.17449800 8552.25801761 0 -39.42916779 0 2539.42036924 0 309.56414894 0 425.59239391 0 32791
0.17550000 0.17549800 8663.52921920 0 41.85209005 0 2500.85369658 0 249.20410264 0 171.66609390 0 33633
0.17650000 0.17650100 8545.73844019 0 68.11980471 0 2232.49440103 0 116.38120141 0 567.69220419 0 33984
0.17750000 0.17750300 8417.93224138 0 145.11680094 0 2452.97976512 0 -111.24118905 0 375.01845814 0 34069
0.17850000 0.17849800 8394.42804070 0 167.59473020 0 2468.04223710 0 -100.29796594 0 471.44750450 0 34536
