### header ###
fiducial parameters:
Omega_m = 0.31
Omega_nu = 0
Omega_de = 0.69
Omega_k = 0
H_0 = 100
w_de = -1
zeff = 0
beta = 0
fgrowth = 0
b_1 = 2
gamma = 0.55
Lx = 3500 Ly = 3500 Lz = 3500
nx = 700 ny = 700 nz = 700
xoffset = 857.220397 yoffset = 15.9954215 zoffset = 262.898189
bins = 400 dk = 0.001
kx_ny = 0.628318531 ky_ny = 0.628318531 kz_ny = 0.628318531
############################
A(data) = 3.07056562 (not used)
A(ran) = 3.06647863 (used)
Ngal = 187660
weighted Ngal = 0
Nran = 9360983
weighted Nran = 0
SN(data) = 3453.43895
SN(ran) = 68.8615857
SN(data+ran) = 3522.30053
############################
13 columns: k_central k_mean P_0(k) sigma^{lin}_{P_0(k)} P^img_1(k) sigma^{lin}_{P_1(k)} P_2(k) sigma^{lin}_{P_2(k)} P^img_3(k) sigma^{lin}_{P_3(k)} P_4(k) sigma^{lin}_{P_4(k)} N_modes
### header ###
0.00050000 0 0 0 0 0 0 0 0 0 0 0 0
0.00150000 0.00179520 38962.00634424 0 -37276.80798665 0 -29980.16437764 0 87023.31945522 0 -1276.42085311 0 3
0.00250000 0.00253879 64371.49732164 0 -31297.34383030 0 8485.55599617 0 -66452.25417846 0 -2935.06879367 0 6
0.00350000 0.00331552 82346.30949907 0 -9156.48795701 0 -10963.05162054 0 -16640.54693565 0 8499.39323722 0 7
0.00450000 0.00420575 93450.94835621 0 5824.93893075 0 13973.02811068 0 -41722.71016377 0 8982.59509020 0 24
0.00550000 0.00557378 85950.17452993 0 18891.03761850 0 40388.33251549 0 -38691.66869416 0 21442.10330190 0 45
0.00650000 0.00659388 88378.26749433 0 8141.55836185 0 83000.40296510 0 -9066.81004547 0 -14598.79513687 0 40
0.00750000 0.00754703 75369.01277732 0 3334.99990603 0 73108.85513484 0 22904.17474248 0 28752.57291131 0 57
0.00850000 0.00846663 78333.73440762 0 2330.29930304 0 92239.88064645 0 17844.08340942 0 -17025.65162970 0 75
0.00950000 0.00948925 78176.36529739 0 -3162.80437748 0 70066.79782752 0 43242.55854911 0 8555.03445834 0 112
0.01050000 0.01054430 83368.30946353 0 1118.33009310 0 56305.88079613 0 35764.26602429 0 11517.84517802 0 105
0.01150000 0.01145670 80392.23477599 0 -2048.42874531 0 40550.98473157 0 21829.11890657 0 -6000.54037647 0 144
0.01250000 0.01249090 80642.11444174 0 -4070.54312726 0 23942.69846352 0 16834.56056727 0 -4342.90409447 0 169
0.01350000 0.01339930 75932.39419196 0 -2792.85208062 0 9584.26216122 0 5290.36730394 0 -33082.47157289 0 180
0.01450000 0.01448870 81525.74199570 0 -3302.67179453 0 -3581.32752615 0 3797.18174213 0 -20860.39962657 0 267
0.01550000 0.01550050 80749.01303019 0 -1317.95505756 0 -4966.90633850 0 -6347.14584176 0 -39870.92536235 0 238
0.01650000 0.01653350 75464.78312155 0 3958.10289800 0 -19453.85700060 0 -3290.66677955 0 -28916.91122500 0 315
0.01750000 0.01747870 68882.70767951 0 5587.35653690 0 -5220.54038160 0 -5504.18696214 0 -41526.89802804 0 297
0.01850000 0.01844180 64239.64448857 0 6210.12230935 0 -23610.64964092 0 -5682.16018517 0 -20082.99622202 0 388
0.01950000 0.01947590 58955.52698644 0 4341.15055296 0 -9260.74499254 0 -8817.30132120 0 -20901.20318873 0 399
0.02050000 0.02045430 57941.62029050 0 2472.16755592 0 -8738.43691567 0 -3797.74377467 0 -12701.82291951 0 462
0.02150000 0.02154770 57181.75230109 0 -1547.44418288 0 -5167.21473453 0 2027.53237560 0 -2358.74939004 0 571
0.02250000 0.02255340 56852.96326721 0 -1570.55496078 0 2401.46386282 0 -6917.05807447 0 -5389.44239948 0 510
0.02350000 0.02348930 64643.40866283 0 -1389.72661248 0 -1864.40805219 0 -2260.37121484 0 -4424.75851310 0 555
0.02450000 0.02439640 62186.87685208 0 -16.80016418 0 8903.37098385 0 -4451.02791385 0 -2998.35365729 0 592
0.02550000 0.02547300 64369.81122404 0 2752.79040142 0 9700.71530280 0 -13027.57697770 0 -861.57789349 0 837
0.02650000 0.02652900 63841.61304619 0 701.34354138 0 22712.85886704 0 -9512.82782583 0 -4512.62667986 0 723
0.02750000 0.02749970 61861.23520040 0 955.96451361 0 29503.56078665 0 -10860.62681108 0 -4306.79912433 0 826
0.02850000 0.02848090 65483.87211798 0 -609.53889873 0 30737.67183040 0 -6435.94698254 0 -20158.75820794 0 831
0.02950000 0.02946900 65384.05513949 0 -759.28797184 0 30574.34517528 0 -9674.15364512 0 -21663.99374733 0 996
0.03050000 0.03053250 68217.59837576 0 1415.72623762 0 37472.95734191 0 -2525.60560949 0 -22207.47921018 0 1041
0.03150000 0.03150510 63564.30619265 0 3338.41706385 0 27272.17921004 0 -5319.55927389 0 -29233.89757561 0 1036
0.03250000 0.03246190 63831.04683450 0 2054.66730647 0 39460.64161067 0 3183.53213743 0 -6675.83370979 0 1059
0.03350000 0.03345080 59711.79796762 0 2522.41326469 0 20987.53138634 0 8294.21763943 0 -27897.04698417 0 1302
0.03450000 0.03451200 59393.79995844 0 1564.97959802 0 19659.67331549 0 14036.20056779 0 -16550.95894933 0 1339
0.03550000 0.03553350 57633.85127349 0 744.16255221 0 13064.10909257 0 9584.34084578 0 -19230.50527058 0 1365
0.03650000 0.03647120 52932.78632477 0 349.43810927 0 6533.99917886 0 7525.58194245 0 -17118.04977870 0 1308
0.03750000 0.03744890 54579.31684385 0 1666.26910176 0 5563.33526629 0 2620.47670166 0 -13414.81739538 0 1579
0.03850000 0.03847530 48956.06890916 0 2988.88902937 0 2832.43041185 0 -9.72372491 0 -10579.83535582 0 1662
0.03950000 0.03950240 47574.25571480 0 4112.17849757 0 5000.30231182 0 -1172.88321922 0 -4564.90694641 0 1683
0.04050000 0.04050350 45624.00281298 0 1697.56307339 0 3157.94841636 0 4323.23295569 0 -3187.80358471 0 1822
0.04150000 0.04152450 44791.29540682 0 682.24342766 0 4369.26342044 0 4754.69409335 0 5641.41282627 0 1887
0.04250000 0.04250150 45533.62798110 0 -1083.27949599 0 6954.63556987 0 5103.33411643 0 5370.53562495 0 1920
0.04350000 0.04349210 45793.73663901 0 -1036.32954601 0 7031.65650868 0 2715.64005075 0 9888.28804155 0 2005
0.04450000 0.04448520 46879.92071915 0 267.28131715 0 7467.76003509 0 -1799.53825683 0 9926.36012557 0 2151
0.04550000 0.04548030 46774.48341529 0 1356.13954809 0 7825.04411857 0 -755.24808196 0 14173.33650671 0 2274
0.04650000 0.04648670 46497.62618779 0 1956.35657517 0 12152.26750527 0 -824.47250543 0 13175.16672179 0 2311
0.04750000 0.04749250 42993.57813542 0 2349.43089059 0 10513.47055390 0 -1887.91225287 0 11616.08846541 0 2568
0.04850000 0.04851840 42018.56409101 0 2430.35233520 0 12861.77737941 0 -5.29720162 0 11076.67211813 0 2493
0.04950000 0.04949480 38896.13613096 0 2248.92823240 0 11625.41820551 0 498.30816349 0 7954.74998736 0 2644
0.05050000 0.05050630 37480.15135837 0 1710.06267701 0 13305.67067678 0 1456.34994936 0 12410.12803304 0 2829
0.05150000 0.05149060 35664.22423278 0 701.54474903 0 11779.41512053 0 -743.45888748 0 6942.59683293 0 2784
0.05250000 0.05249300 35722.56321008 0 202.61947382 0 14767.51730435 0 101.40730576 0 8940.42016865 0 3055
0.05350000 0.05348950 35684.56981060 0 -370.02985735 0 11263.13203245 0 -389.96627548 0 2125.70821909 0 3009
0.05450000 0.05448610 37331.21273619 0 -1167.71251989 0 11979.72351655 0 1436.62260733 0 4742.81272553 0 3336
0.05550000 0.05550870 36871.80734081 0 -340.59958560 0 12700.58644793 0 372.51628929 0 -556.93827364 0 3349
0.05650000 0.05647670 37820.74307552 0 195.41084450 0 9525.42859530 0 -636.68844244 0 -1863.77857575 0 3324
0.05750000 0.05747970 35838.79153863 0 1854.35891044 0 13245.75800839 0 -1258.53697779 0 0.65676986 0 3639
0.05850000 0.05849280 34903.11977179 0 1976.23004567 0 12606.50220131 0 -1649.25075655 0 -1202.24379893 0 3846
0.05950000 0.05951020 33026.49313225 0 836.35162512 0 14692.31735096 0 530.60255304 0 2009.27755882 0 3787
0.06050000 0.06049470 34682.12857841 0 112.46608276 0 14765.83120674 0 -1174.29954122 0 -570.74853713 0 3930
0.06150000 0.06148310 33054.36994606 0 131.89217535 0 14700.97265202 0 1894.22949858 0 737.25404827 0 4083
0.06250000 0.06249100 34230.47923204 0 751.86352203 0 16328.28165835 0 -130.30162327 0 833.55607528 0 4303
0.06350000 0.06350600 33317.06395364 0 1253.75970123 0 14922.41347142 0 121.87338336 0 1063.48583411 0 4470
0.06450000 0.06451750 32530.10599597 0 1483.59728673 0 15596.74010877 0 253.39124504 0 -155.23338659 0 4479
0.06550000 0.06550280 31299.02992791 0 805.47243350 0 15151.83515284 0 202.53854113 0 -565.40585583 0 4636
0.06650000 0.06648880 30277.25477646 0 636.48273854 0 14389.94384629 0 1492.12894063 0 -2215.21752086 0 4653
0.06750000 0.06749660 30352.34232334 0 531.39389485 0 15104.51201326 0 288.83638899 0 -277.90373209 0 5220
0.06850000 0.06852730 29657.33288865 0 338.77972425 0 15351.58151633 0 492.98121911 0 -1280.20895240 0 5029
0.06950000 0.06949320 29962.06692996 0 86.85695782 0 15072.92578471 0 1099.17490019 0 2468.58178833 0 5040
0.07050000 0.07048030 29934.52733567 0 -686.19564046 0 14605.98915334 0 1963.06724366 0 1191.94736286 0 5475
0.07150000 0.07148790 30503.75388869 0 -471.20133425 0 14801.35166305 0 3282.56227037 0 2474.39320476 0 5509
0.07250000 0.07249820 30813.88344236 0 104.74948844 0 12170.02773343 0 3225.71829962 0 3178.51880720 0 5916
0.07350000 0.07351270 30324.24069652 0 497.79558982 0 11507.50377934 0 2739.97605958 0 2691.45017038 0 5721
0.07450000 0.07449140 29346.97852196 0 945.14875948 0 9033.66136647 0 1623.76820135 0 2829.89002478 0 6028
0.07550000 0.07549160 28285.52387344 0 1093.46464961 0 9296.89492529 0 1113.16389002 0 4743.47592392 0 6183
0.07650000 0.07648840 27166.17987364 0 1196.62347357 0 7324.38553501 0 1806.77723590 0 3917.73772122 0 6330
0.07750000 0.07749960 26615.38798783 0 608.60704879 0 8719.77743546 0 719.36455264 0 5867.75456939 0 6583
0.07850000 0.07848650 25810.33258247 0 499.97065573 0 7541.44250063 0 1246.09357743 0 4724.70403720 0 6549
0.07950000 0.07947320 25986.69839244 0 120.64478023 0 9041.18136181 0 472.53222730 0 6649.51934643 0 6828
0.08050000 0.08048110 25271.00616040 0 286.27689282 0 7867.38764987 0 -468.57664231 0 5552.79153590 0 7147
0.08150000 0.08149960 25634.19158552 0 204.10436378 0 9804.57891555 0 -537.08953258 0 5262.10830800 0 7386
0.08250000 0.08250610 24623.88189782 0 417.01577740 0 8333.07656901 0 -342.63301932 0 3225.87566873 0 7227
0.08350000 0.08350160 24959.41532214 0 477.48710614 0 8777.13847614 0 -107.51176595 0 3298.86121393 0 7798
0.08450000 0.08449610 24105.46308610 0 556.65838144 0 8061.10902457 0 -160.03314446 0 2344.90090834 0 7371
0.08550000 0.08548940 23739.46749830 0 630.86803350 0 7434.03808289 0 78.11566578 0 491.24116638 0 8256
0.08650000 0.08650700 23356.04890187 0 518.50424066 0 7040.54786340 0 -304.35410732 0 756.78130672 0 8037
0.08750000 0.08749060 22613.60392109 0 616.67446382 0 7028.71145818 0 332.86039758 0 270.05326162 0 8155
0.08850000 0.08849210 22543.91188655 0 420.02265147 0 7104.96803274 0 255.72705226 0 955.57221490 0 8718
0.08950000 0.08949900 22147.90376130 0 564.72579646 0 7161.24997095 0 674.83696290 0 262.48605554 0 8571
0.09050000 0.09049190 21678.94381280 0 760.25354374 0 7765.22137538 0 138.04755569 0 1719.74087729 0 8932
0.09150000 0.09150830 20992.58967917 0 559.88669633 0 6935.42529777 0 736.53352256 0 630.18122974 0 9285
0.09250000 0.09250820 20513.96277104 0 458.73095633 0 7223.44449145 0 320.80817186 0 992.50224881 0 9204
0.09350000 0.09350330 19897.18826543 0 286.49046518 0 6583.78402095 0 429.84360802 0 1177.75042099 0 9349
0.09450000 0.09448040 19833.22896278 0 174.89216066 0 7064.36680230 0 401.21704280 0 -165.99968187 0 9564
0.09550000 0.09549270 19409.23161720 0 116.40031051 0 6292.52751986 0 188.26066657 0 91.42291015 0 10155
0.09650000 0.09649430 19623.70323315 0 235.36798566 0 7025.03576540 0 69.14090543 0 839.15279528 0 9913
0.09750000 0.09749140 19081.56664839 0 266.50121599 0 6350.37190852 0 238.62665030 0 523.22868616 0 10476
0.09850000 0.09850240 19352.35392450 0 270.23760829 0 7267.45163906 0 873.10855301 0 705.30025044 0 10575
0.09950000 0.09950330 18955.10932767 0 77.87061960 0 6790.73564156 0 -140.70821772 0 1686.91817715 0 10882
0.10050000 0.10051200 18897.78200894 0 290.25495911 0 7190.62179131 0 652.32755981 0 708.97257104 0 10875
0.10150000 0.10150300 18944.20589646 0 233.04229502 0 7187.14843024 0 -102.32960115 0 1806.27140661 0 11118
0.10250000 0.10250800 18315.40389457 0 422.50571122 0 6695.21259165 0 -77.99707692 0 1265.91084467 0 11575
0.10350000 0.10349800 18423.76376762 0 373.86179518 0 7901.78404111 0 417.77452133 0 2193.96145033 0 11364
0.10450000 0.10450100 17787.88015576 0 324.23319814 0 6600.31901818 0 650.82243667 0 1583.54915303 0 12093
0.10550000 0.10551000 17447.40084512 0 422.54617756 0 7183.56266265 0 909.55636300 0 2228.02062204 0 12067
0.10650000 0.10649700 17148.84916171 0 397.28618724 0 6615.52761861 0 731.84504714 0 2638.19196721 0 12054
0.10750000 0.10749900 16749.69365425 0 362.10519858 0 6594.95722778 0 1338.73902076 0 2120.20030023 0 12807
0.10850000 0.10850100 16594.46026765 0 263.45724777 0 5406.01111866 0 271.71575386 0 2654.86185225 0 12736
0.10950000 0.10950300 16082.67343987 0 -16.05063759 0 5548.71117969 0 718.28320204 0 2151.37062471 0 12933
0.11050000 0.11050200 16047.04057706 0 6.34304300 0 4644.55819749 0 449.15392191 0 1928.24370770 0 13428
0.11150000 0.11150900 15780.29993521 0 143.15980364 0 4427.15277170 0 568.95677740 0 2183.91230857 0 13453
0.11250000 0.11250000 15773.21832525 0 472.48501657 0 4133.65938112 0 242.55750586 0 931.05635566 0 13668
0.11350000 0.11349100 15404.74979429 0 352.65293538 0 3687.33810319 0 -81.58306931 0 1874.87309802 0 13791
0.11450000 0.11448600 15175.77773890 0 444.97015171 0 3638.17149689 0 -48.47137205 0 1071.52289939 0 14205
0.11550000 0.11549300 15094.95746014 0 208.29487837 0 3730.64833046 0 -144.35018856 0 1462.24005034 0 14776
0.11650000 0.11649800 14809.33252507 0 238.26807354 0 4270.85152329 0 -91.06646912 0 1260.65022013 0 14553
0.11750000 0.11747300 14597.33385228 0 38.13120985 0 3794.05684123 0 24.99156358 0 337.56685804 0 14568
0.11850000 0.11849100 14601.04326702 0 168.37033510 0 3737.02177942 0 -7.31801209 0 592.14399173 0 16015
0.11950000 0.11950300 14420.63082279 0 110.77560130 0 3103.40877902 0 572.57963913 0 -456.86163612 0 15270
0.12050000 0.12050700 14106.34222835 0 144.03994660 0 3258.40611195 0 317.35054770 0 -291.41949053 0 15999
0.12150000 0.12150000 14120.95507430 0 79.17329861 0 2565.54364154 0 154.01490006 0 -1003.80584719 0 15670
0.12250000 0.12250700 14051.37544628 0 -32.06901450 0 3018.71047576 0 116.86117719 0 -716.64319109 0 16887
0.12350000 0.12352200 14065.65107270 0 59.35479490 0 2471.25706321 0 64.74592340 0 -1087.51609725 0 16407
0.12450000 0.12449800 14019.45199820 0 97.00850191 0 2822.77469287 0 31.08905457 0 -748.94657316 0 16306
0.12550000 0.12549900 13972.69089116 0 300.23440883 0 3052.79212878 0 25.82764318 0 -272.17437241 0 17523
0.12650000 0.12650100 13618.04836060 0 391.08472023 0 2662.38184759 0 226.66772199 0 -32.66431937 0 17154
0.12750000 0.12750600 13331.29936045 0 266.05945841 0 2709.89607823 0 412.26547841 0 120.08274769 0 18007
0.12850000 0.12850300 13212.14846270 0 314.56736258 0 2927.78485200 0 23.68247740 0 413.48396494 0 17496
0.12950000 0.12949900 12971.14891103 0 11.02108710 0 2522.33458013 0 233.16931437 0 297.69964209 0 18405
0.13050000 0.13049000 12949.56686162 0 1.28180512 0 2849.78597657 0 -358.35531750 0 -124.15186326 0 18100
0.13150000 0.13148800 13207.53979590 0 -73.78104605 0 2872.35720324 0 -722.19944475 0 337.39824828 0 19059
0.13250000 0.13249300 13229.00943880 0 26.75567131 0 3286.71007049 0 -555.82882141 0 -142.59889517 0 18957
0.13350000 0.13349100 13353.66825540 0 183.42606269 0 3833.63517246 0 -676.17010407 0 -146.61293155 0 19468
0.13450000 0.13450700 13196.18673866 0 261.16190689 0 4078.44530473 0 -435.63366721 0 -101.27106907 0 19953
0.13550000 0.13551000 12876.72744489 0 347.42603279 0 4116.06776272 0 369.43859912 0 20.80104899 0 19956
0.13650000 0.13649900 12759.48745776 0 329.50843553 0 3763.89817532 0 519.69574964 0 -174.08170974 0 19723
0.13750000 0.13749600 12189.36165269 0 256.24299813 0 3120.51704943 0 813.92765098 0 -665.57354263 0 20946
0.13850000 0.13851100 12048.17907951 0 260.97756022 0 3214.83734971 0 607.36495688 0 -23.51757705 0 20955
0.13950000 0.13949800 11517.73277151 0 233.21315291 0 2445.31364132 0 329.23191552 0 -885.45191158 0 20506
0.14050000 0.14048300 11401.95406898 0 259.10261967 0 2411.86146475 0 -102.82553866 0 -391.54783504 0 21447
0.14150000 0.14148400 11105.67299701 0 258.66198617 0 2403.46469865 0 -230.23662860 0 -899.44202548 0 21771
0.14250000 0.14249400 10988.11827167 0 222.56488447 0 2475.56223244 0 -279.81014645 0 -566.85365165 0 22470
0.14350000 0.14350900 10890.59438593 0 142.68882038 0 2797.40454417 0 163.23672992 0 -222.56488447 0 22519
0.14450000 0.14449900 10843.32744960 0 159.56328526 0 2865.43296239 0 289.45799697 0 -237.51944621 0 22218
0.14550000 0.14550500 10735.32727738 0 113.34959791 0 2906.58498472 0 370.33447898 0 156.80820176 0 23559
0.14650000 0.14650700 10670.46872266 0 148.45864640 0 3125.49665770 0 163.15017690 0 88.35837154 0 23044
0.14750000 0.14750500 10728.43675848 0 190.80667396 0 3325.97366349 0 -99.24516659 0 1022.20229617 0 23649
0.14850000 0.14849900 10575.83368416 0 84.19168713 0 3436.71655449 0 -206.65486743 0 727.23638034 0 23640
0.14950000 0.14949500 10559.32116823 0 48.06547215 0 3707.56003386 0 -281.40631886 0 1003.77549743 0 24457
0.15050000 0.15050000 10512.80735551 0 60.82304870 0 3626.60486729 0 79.71217541 0 920.53285844 0 24591
0.15150000 0.15149900 10566.94232943 0 -23.83647431 0 3520.14466422 0 291.88372940 0 522.97464745 0 25020
0.15250000 0.15250500 10285.73497009 0 149.72209554 0 2916.12829719 0 305.71647419 0 95.82969486 0 25297
0.15350000 0.15350100 10385.96785266 0 178.36327360 0 2984.90983901 0 144.65930645 0 -66.98562306 0 25452
0.15450000 0.15450400 9932.02541354 0 165.43315307 0 2377.71236783 0 166.11770870 0 -445.35233383 0 26061
0.15550000 0.15549900 9985.27237605 0 116.68694711 0 2459.13964172 0 196.22241949 0 -642.73029221 0 26128
0.15650000 0.15649500 9725.42225310 0 24.42795736 0 1940.73207066 0 181.72535224 0 -1102.87419834 0 26331
0.15750000 0.15749700 9783.74998975 0 63.38546744 0 1997.18261863 0 301.67995651 0 -956.03420565 0 27345
0.15850000 0.15849900 9677.79561596 0 153.61585695 0 1880.81940226 0 200.39270091 0 -693.02883204 0 26980
0.15950000 0.15949700 9535.70255007 0 218.14393654 0 1716.32371946 0 73.88839426 0 -851.28820181 0 27777
0.16050000 0.16050000 9332.79756372 0 286.66806746 0 1993.69801690 0 -64.70815481 0 -262.36690465 0 28224
0.16150000 0.16150500 9172.75317861 0 194.15301569 0 2169.13085286 0 -42.10950096 0 -382.93749658 0 28075
0.16250000 0.16249700 9003.36781275 0 54.40958302 0 2292.84545481 0 51.98272652 0 -5.26513204 0 28590
0.16350000 0.16349900 9050.61226777 0 40.16194581 0 2395.95594396 0 -65.84503423 0 194.71280009 0 29163
0.16450000 0.16449100 8989.90151317 0 79.03672470 0 2328.90546235 0 136.41204101 0 -0.39325417 0 28996
0.16550000 0.16550500 8988.32782207 0 124.76110653 0 2345.14820266 0 18.36059131 0 -20.06669728 0 30777
0.16650000 0.16650700 8750.54309651 0 150.59099784 0 2237.84495078 0 188.95421472 0 -204.70124233 0 29211
0.16750000 0.16749900 8667.98051689 0 157.73330732 0 2168.05175039 0 41.31051550 0 7.13311462 0 30922
0.16850000 0.16850800 8496.50438999 0 164.70813110 0 2101.31600700 0 -71.20581297 0 -310.33413351 0 30867
0.16950000 0.16949900 8442.47058192 0 195.19052775 0 2055.49911462 0 -44.85885172 0 -171.17038120 0 30852
0.17050000 0.17049200 8350.56702155 0 59.31904963 0 1962.20171355 0 68.98421076 0 -79.01772800 0 31257
0.17150000 0.17149500 8297.63479725 0 -5.12319635 0 2179.22495722 0 192.18814994 0 1.49262353 0 32608
0.17250000 0.17250900 8461.48976296 0 -78.49076630 0 2022.59772993 0 72.68058634 0 198.92017566 0 32361
0.17350000 0.17350400 8626.33390593 0 -115.10651162 0 1999.54315528 0 242.15396650 0 47.31751925 0 32508
0.17450000 0.17449800 8670.00383402 0 -5.45490795 0 2029.96035616 0 -9.23610549 0 401.25638508 0 32791
0.17550000 0.17549800 8696.22827217 0 97.95372823 0 1998.23923980 0 110.02034197 0 127.98267703 0 33633
0.17650000 0.17650100 8554.88832988 0 128.85045526 0 2277.20970964 0 40.07123376 0 601.33996809 0 33984
0.17750000 0.17750300 8415.14456000 0 226.36310036 0 2123.05542551 0 117.59069543 0 171.06696721 0 34069
0.17850000 0.17849800 8217.72501121 0 238.19613338 0 2264.11435154 0 154.06323485 0 458.82650186 0 34536
