### header ###
fiducial parameters:
Omega_m = 0.31
Omega_nu = 0
Omega_de = 0.69
Omega_k = 0
H_0 = 100
w_de = -1
zeff = 0
beta = 0
fgrowth = 0
b_1 = 2
gamma = 0.55
Lx = 3500 Ly = 3500 Lz = 3500
nx = 700 ny = 700 nz = 700
xoffset = 857.220397 yoffset = 15.9954215 zoffset = 262.898189
bins = 400 dk = 0.001
kx_ny = 0.628318531 ky_ny = 0.628318531 kz_ny = 0.628318531
############################
A(data) = 3.0562373 (not used)
A(ran) = 3.05219256 (used)
Ngal = 186637
weighted Ngal = 0
Nran = 9360983
weighted Nran = 0
SN(data) = 3459.68909
SN(ran) = 68.5407742
SN(data+ran) = 3528.22986
############################
13 columns: k_central k_mean P_0(k) sigma^{lin}_{P_0(k)} P^img_1(k) sigma^{lin}_{P_1(k)} P_2(k) sigma^{lin}_{P_2(k)} P^img_3(k) sigma^{lin}_{P_3(k)} P_4(k) sigma^{lin}_{P_4(k)} N_modes
### header ###
0.00050000 0 0 0 0 0 0 0 0 0 0 0 0
0.00150000 0.00179520 34896.71260087 0 -36801.32846073 0 -4131.79343309 0 41797.91011716 0 -117764.92551337 0 3
0.00250000 0.00253879 66151.90399093 0 -43703.65004209 0 1984.00857597 0 -20978.98849179 0 88647.03145331 0 6
0.00350000 0.00331552 78692.31116594 0 -26547.83167693 0 -13164.60051011 0 -14448.73244962 0 3804.51064641 0 7
0.00450000 0.00420575 91425.83272052 0 -8097.37136383 0 -17904.10848432 0 -25921.61502471 0 21142.53995992 0 24
0.00550000 0.00557378 95704.92364079 0 -4804.90608017 0 -25922.73908978 0 -10206.09495966 0 5222.85595565 0 45
0.00650000 0.00659388 83737.90205956 0 5859.48145045 0 -15963.52254212 0 1793.32217697 0 29947.90371004 0 40
0.00750000 0.00754703 86934.51831444 0 -211.40291830 0 -17744.26643093 0 -865.18052205 0 -8929.14579597 0 57
0.00850000 0.00846663 80903.00994521 0 1670.81032465 0 -27104.69351415 0 14566.53446928 0 10566.85240422 0 75
0.00950000 0.00948925 83634.48807284 0 -2145.34563591 0 -27112.22475014 0 7250.45577515 0 8573.31175643 0 112
0.01050000 0.01054430 74749.42810903 0 -5367.39948340 0 -30380.66876319 0 2962.23744649 0 6079.75324217 0 105
0.01150000 0.01145670 78776.95326595 0 -3275.97524904 0 -32582.26261536 0 -11086.66505663 0 1764.14144767 0 144
0.01250000 0.01249090 81867.12055840 0 -3939.51086169 0 -27465.18118309 0 -12791.86053187 0 9537.43361028 0 169
0.01350000 0.01339930 82547.96677318 0 -3102.50952696 0 -24031.27479128 0 -10260.42102465 0 7346.02378767 0 180
0.01450000 0.01448870 91032.29753842 0 -4896.16892345 0 -21121.40753655 0 -11949.59857259 0 18111.61089682 0 267
0.01550000 0.01550050 94210.25431309 0 -2882.01292222 0 -3020.65510834 0 -15082.92996386 0 917.33826551 0 238
0.01650000 0.01653350 103665.44008197 0 1098.88151920 0 -757.47710300 0 -5609.09595542 0 15624.61692258 0 315
0.01750000 0.01747870 101866.03671295 0 4873.06938620 0 34746.98713313 0 -17681.88081937 0 38028.80752055 0 297
0.01850000 0.01844180 102453.36071365 0 10254.30611065 0 39879.24344389 0 -2362.89719016 0 35240.11448070 0 388
0.01950000 0.01947590 93158.01699816 0 8233.18090596 0 57838.20630378 0 -1525.59235786 0 39115.89085275 0 399
0.02050000 0.02045430 90339.31142086 0 5236.51334629 0 72561.43544425 0 13265.09192764 0 54496.92287399 0 462
0.02150000 0.02154770 91280.82832609 0 2835.95997618 0 78604.07205770 0 15291.10681540 0 52651.09561746 0 571
0.02250000 0.02255340 89676.89987328 0 1407.41939673 0 67045.76053706 0 19473.30332637 0 46900.60351649 0 510
0.02350000 0.02348930 86457.12787790 0 3350.30967232 0 50795.37658828 0 14032.26634003 0 34465.07161280 0 555
0.02450000 0.02439640 85584.17894213 0 2867.57992668 0 42905.33902718 0 14044.51864933 0 9650.18857776 0 592
0.02550000 0.02547300 80089.86127133 0 4584.09473721 0 29498.27768080 0 7466.86078303 0 6750.12317047 0 837
0.02650000 0.02652900 75844.94192927 0 3212.40936916 0 17839.81196214 0 724.47792465 0 -15412.16862377 0 723
0.02750000 0.02749970 65497.02367934 0 4063.85494008 0 8068.28055974 0 -2311.77471064 0 -15933.84722419 0 826
0.02850000 0.02848090 67043.96203294 0 1731.29626624 0 12130.46064286 0 -5808.20160181 0 -33488.14665777 0 831
0.02950000 0.02946900 64247.73775710 0 792.76038158 0 11435.78842768 0 -5306.53135969 0 -29109.23875900 0 996
0.03050000 0.03053250 64592.71332803 0 522.77006761 0 17948.39664820 0 -5536.30150128 0 -22677.22600422 0 1041
0.03150000 0.03150510 63622.30795042 0 253.40923008 0 23218.46333692 0 -2735.14257977 0 -23784.65491424 0 1036
0.03250000 0.03246190 62038.72507544 0 1269.30552119 0 22312.57929451 0 -1561.59616215 0 -9788.59471021 0 1059
0.03350000 0.03345080 65250.29139579 0 1374.83275026 0 25382.62582216 0 3494.06635452 0 -16086.15804160 0 1302
0.03450000 0.03451200 63510.35106914 0 1656.36608847 0 29512.89052675 0 7307.08617354 0 -6949.73464615 0 1339
0.03550000 0.03553350 60913.64834378 0 2235.46193282 0 22973.19233797 0 8019.09147214 0 -8880.75479457 0 1365
0.03650000 0.03647120 58478.36136291 0 1688.31201784 0 22647.21346677 0 8160.84731851 0 -4941.07532312 0 1308
0.03750000 0.03744890 56880.50286150 0 965.36057356 0 17303.18329624 0 6978.69056243 0 -4087.41534401 0 1579
0.03850000 0.03847530 55846.36299425 0 809.66519622 0 18298.31810546 0 3217.42269938 0 -1879.40308027 0 1662
0.03950000 0.03950240 55381.44968001 0 786.60050498 0 15797.04850480 0 -1534.48371259 0 -5264.10914383 0 1683
0.04050000 0.04050350 53203.12397485 0 2967.80156860 0 17493.71232613 0 -2714.75203934 0 -6383.76788184 0 1822
0.04150000 0.04152450 51391.58070305 0 4261.12836041 0 19954.06595813 0 -7018.30261561 0 -3758.44645972 0 1887
0.04250000 0.04250150 46410.06151859 0 3468.48263346 0 22191.74229915 0 -2394.32604961 0 -9475.64375321 0 1920
0.04350000 0.04349210 46234.48255418 0 1663.06551630 0 20358.27975842 0 -2727.52141857 0 -6766.37715142 0 2005
0.04450000 0.04448520 43349.56954407 0 1065.46756084 0 18722.87748357 0 5452.60361594 0 -6090.53302622 0 2151
0.04550000 0.04548030 44124.94963149 0 -724.45656742 0 15990.38769737 0 5600.92400233 0 -1471.23257093 0 2274
0.04650000 0.04648670 43293.25388391 0 -904.04282382 0 12234.88628815 0 8059.73766518 0 -3840.66057916 0 2311
0.04750000 0.04749250 43553.13772881 0 13.87388557 0 6009.74646942 0 7324.07079679 0 -4283.58718057 0 2568
0.04850000 0.04851840 42776.63357631 0 664.18757039 0 10813.24746825 0 2773.77669633 0 3343.93622336 0 2493
0.04950000 0.04949480 41178.55026188 0 1528.09902297 0 2460.57844501 0 -612.17370727 0 -3567.28795338 0 2644
0.05050000 0.05050630 41966.51987813 0 2547.88457924 0 16209.80519964 0 -3096.77679509 0 10034.00059697 0 2829
0.05150000 0.05149060 38711.33983294 0 2494.60389478 0 8667.23863394 0 -6325.29401674 0 -594.14033130 0 2784
0.05250000 0.05249300 40072.91985598 0 1229.94076233 0 20754.51269669 0 15.48275991 0 14283.38247736 0 3055
0.05350000 0.05348950 37374.93886753 0 932.70760725 0 16053.33534146 0 234.78009962 0 6118.75830021 0 3009
0.05450000 0.05448610 38192.80861472 0 719.75685135 0 17628.60013491 0 6169.68968867 0 8476.03516501 0 3336
0.05550000 0.05550870 36434.54602738 0 281.38383755 0 14355.21023553 0 2746.99022564 0 4794.30614653 0 3349
0.05650000 0.05647670 36072.03504130 0 676.86927255 0 12126.18919558 0 1455.73171357 0 -86.16026229 0 3324
0.05750000 0.05747970 36302.13116177 0 476.20229976 0 10644.57026338 0 -815.41366500 0 -1453.77584034 0 3639
0.05850000 0.05849280 34102.56062672 0 358.81393605 0 11424.88499647 0 -2886.86888334 0 -5771.08497310 0 3846
0.05950000 0.05951020 35554.51548165 0 205.25653048 0 13203.71797465 0 -4689.22854350 0 -3637.71063021 0 3787
0.06050000 0.06049470 35144.56894949 0 354.91118212 0 14157.14996965 0 -3121.59615190 0 -6780.47292744 0 3930
0.06150000 0.06148310 36357.21035035 0 222.53453472 0 17095.90569676 0 -1111.09561029 0 -3067.38249343 0 4083
0.06250000 0.06249100 36014.37050305 0 607.71791332 0 18949.93862833 0 949.70009896 0 -3523.35949033 0 4303
0.06350000 0.06350600 35786.07288671 0 855.28312908 0 19360.44719303 0 3608.47369766 0 2030.61231390 0 4470
0.06450000 0.06451750 34492.38639408 0 1014.31922782 0 19418.22413779 0 3957.28233050 0 3389.55078403 0 4479
0.06550000 0.06550280 33666.64819138 0 766.11779122 0 17392.43406305 0 4209.92719633 0 5754.03290594 0 4636
0.06650000 0.06648880 32810.22301218 0 645.04586626 0 16810.28076169 0 3379.74893659 0 3740.97848848 0 4653
0.06750000 0.06749660 31342.53124624 0 850.24844162 0 13218.10600759 0 1155.61757970 0 2597.44460831 0 5220
0.06850000 0.06852730 30702.03896759 0 898.37191553 0 13157.85611967 0 189.76016938 0 340.17918527 0 5029
0.06950000 0.06949320 29155.21302049 0 1307.11907025 0 10898.18182517 0 -2598.56867339 0 -2028.63395937 0 5040
0.07050000 0.07048030 28619.03398063 0 919.31774410 0 13003.97161116 0 -1471.14264572 0 -1572.11741124 0 5475
0.07150000 0.07148790 27903.56656160 0 652.61981673 0 10629.03568407 0 310.48475823 0 -5339.33157852 0 5509
0.07250000 0.07249820 27184.38972783 0 165.23981388 0 10417.39671210 0 928.05172972 0 -6154.63845734 0 5916
0.07350000 0.07351270 27246.88774589 0 445.09267480 0 9859.30964396 0 1816.45543618 0 -7074.75316358 0 5721
0.07450000 0.07449140 26357.30264704 0 379.70131324 0 8927.33605120 0 1774.99991628 0 -7063.37762504 0 6028
0.07550000 0.07549160 25996.70257159 0 727.86360865 0 6936.70673195 0 1221.27422062 0 -6462.40747436 0 6183
0.07650000 0.07648840 25857.20609602 0 246.18261572 0 6575.74695568 0 1316.42632906 0 -6462.76717518 0 6330
0.07750000 0.07749960 25432.98393743 0 -154.52972186 0 5360.96983118 0 636.04210503 0 -5242.40344727 0 6583
0.07850000 0.07848650 25902.95554450 0 -340.96153456 0 4972.08827849 0 805.63205074 0 -5782.71904661 0 6549
0.07950000 0.07947320 26014.01317372 0 -440.00515628 0 5581.16293835 0 85.88261822 0 -4500.22824210 0 6828
0.08050000 0.08048110 26410.24611199 0 204.46069241 0 6127.54848908 0 -1184.16883256 0 -5312.63503304 0 7147
0.08150000 0.08149960 26315.03780029 0 424.98202658 0 6088.11628632 0 -670.59249318 0 -3213.94933831 0 7386
0.08250000 0.08250610 26262.09433535 0 595.47234841 0 8292.73387354 0 -1122.56669436 0 -2782.60060716 0 7227
0.08350000 0.08350160 25675.66958672 0 570.46639679 0 7995.09268283 0 543.37080821 0 -1950.87113762 0 7798
0.08450000 0.08449610 25275.05279466 0 821.84668942 0 9002.10885987 0 1173.31036395 0 -603.60945547 0 7371
0.08550000 0.08548940 24226.18767495 0 1128.38148298 0 8463.33322968 0 771.41438585 0 -1483.67597128 0 8256
0.08650000 0.08650700 23314.79571369 0 1142.57842485 0 8962.84526686 0 1245.41913839 0 -397.24909309 0 8037
0.08750000 0.08749060 22252.21700008 0 1149.90732913 0 8789.77296756 0 636.78623611 0 26.41395553 0 8155
0.08850000 0.08849210 21457.39058690 0 643.66214216 0 8896.62659341 0 448.85267247 0 1347.16950881 0 8718
0.08950000 0.08949900 20936.16161250 0 154.11156965 0 9196.35854515 0 -101.94224832 0 -447.44309487 0 8571
0.09050000 0.09049190 21566.64971200 0 76.92055980 0 9093.61899747 0 -599.38634299 0 1122.72406347 0 8932
0.09150000 0.09150830 21076.89455965 0 -74.41513116 0 8558.19308120 0 -381.87075883 0 -1116.77775923 0 9285
0.09250000 0.09250820 21539.78455675 0 21.94276189 0 9004.69420953 0 -8.11162451 0 -1442.53518961 0 9204
0.09350000 0.09350330 21016.64467173 0 340.85137618 0 7313.04371842 0 679.67269084 0 -2830.08111584 0 9349
0.09450000 0.09448040 20617.15194475 0 434.63886962 0 6279.22983004 0 1239.69764717 0 -4661.25056383 0 9564
0.09550000 0.09549270 19804.45289690 0 579.54547039 0 5122.69051698 0 1304.25270432 0 -4197.36014881 0 10155
0.09650000 0.09649430 19265.46369435 0 290.62927278 0 4146.58612946 0 1295.85593822 0 -5307.86899713 0 9913
0.09750000 0.09749140 18899.35570004 0 203.06460359 0 3725.05048639 0 1081.34498000 0 -3897.78556618 0 10476
0.09850000 0.09850240 18810.55455927 0 167.67341476 0 3723.62292375 0 314.01881882 0 -4689.86926059 0 10575
0.09950000 0.09950330 18666.78663642 0 291.62069817 0 4871.52941705 0 -1051.43023621 0 -2949.36690140 0 10882
0.10050000 0.10051200 18652.62341650 0 346.34805439 0 5493.92424803 0 -1268.33882523 0 -2256.48194969 0 10875
0.10150000 0.10150300 18469.85043561 0 478.07161998 0 6959.25547732 0 -925.69568932 0 -1860.08040166 0 11118
0.10250000 0.10250800 18088.90478234 0 343.73572716 0 7170.47854520 0 -80.47934982 0 -1220.20635880 0 11575
0.10350000 0.10349800 18264.37134025 0 386.98300678 0 7640.29278316 0 601.47485590 0 -2477.69795608 0 11364
0.10450000 0.10450100 17427.28008031 0 490.33067367 0 6830.35893539 0 593.86156316 0 -1821.04162167 0 12093
0.10550000 0.10551000 17078.70750115 0 380.55110643 0 6384.92566887 0 519.81939679 0 -2824.95537911 0 12067
0.10650000 0.10649700 16447.32014959 0 330.94386663 0 5535.69450614 0 462.27400944 0 -1873.76027360 0 12054
0.10750000 0.10749900 16099.75922898 0 270.28032276 0 4864.91991442 0 336.55969573 0 -3009.79663973 0 12807
0.10850000 0.10850100 16021.07467387 0 78.72232370 0 4455.04082617 0 539.26797069 0 -2501.37076652 0 12736
0.10950000 0.10950300 15507.93896800 0 162.86578844 0 3704.58126141 0 374.22262007 0 -3438.69490902 0 12933
0.11050000 0.11050200 15533.45524516 0 209.01877628 0 3509.16254845 0 393.99942097 0 -2973.75911349 0 13428
0.11150000 0.11150900 15276.49396945 0 18.79931391 0 3101.13816757 0 107.31291884 0 -3147.30352012 0 13453
0.11250000 0.11250000 15449.26277118 0 25.54291750 0 3053.46656782 0 127.78596564 0 -3042.51817401 0 13668
0.11350000 0.11349100 15458.59251129 0 -39.44445507 0 2965.17125633 0 367.10504003 0 -2635.97755902 0 13791
0.11450000 0.11448600 15355.96537011 0 143.03615649 0 2430.84692383 0 162.80958519 0 -3060.14351435 0 14205
0.11550000 0.11549300 15187.69282867 0 262.22077619 0 3060.30088346 0 -351.57832917 0 -2619.11658292 0 14776
0.11650000 0.11649800 15126.20646917 0 298.87991042 0 3085.42373785 0 -119.53195581 0 -2302.77094940 0 14553
0.11750000 0.11747300 14952.20119586 0 236.47406569 0 3538.86034769 0 -259.58933985 0 -1164.13799296 0 14568
0.11850000 0.11849100 14858.45416876 0 112.17000402 0 3155.66656427 0 336.54845508 0 -1702.22794345 0 16015
0.11950000 0.11950300 14871.83054313 0 45.58881958 0 3713.88852022 0 750.01893124 0 -898.19768544 0 15270
0.12050000 0.12050700 14764.36992214 0 124.07767496 0 3196.56005163 0 935.26260716 0 -15.15768029 0 15999
0.12150000 0.12150000 14647.80437406 0 222.81442692 0 3051.61186045 0 891.92877453 0 258.26294307 0 15670
0.12250000 0.12250700 14607.11321842 0 116.33286661 0 2960.28157326 0 799.07987542 0 1112.38154073 0 16887
0.12350000 0.12352200 14424.34023753 0 110.80921084 0 2483.62177901 0 391.03188917 0 1171.64674764 0 16407
0.12450000 0.12449800 14225.60553261 0 189.40608888 0 2971.80324026 0 54.11856257 0 1345.20239493 0 16306
0.12550000 0.12549900 14144.67284734 0 277.86551387 0 3119.62903802 0 -693.83253857 0 834.20241270 0 17523
0.12650000 0.12650100 14019.56440471 0 386.25686074 0 3021.01480916 0 -906.75406878 0 164.31695645 0 17154
0.12750000 0.12750600 13570.38800150 0 474.60949955 0 3612.84631080 0 -973.76071185 0 134.39322014 0 18007
0.12850000 0.12850300 13284.76306642 0 371.56308211 0 3801.32954225 0 -696.24927847 0 -481.00093356 0 17496
0.12950000 0.12949900 12922.13967384 0 331.90494226 0 3996.14126007 0 -28.45537011 0 -561.40755637 0 18405
0.13050000 0.13049000 12852.44763931 0 109.74101180 0 3759.07593616 0 66.20709559 0 -1059.21551090 0 18100
0.13150000 0.13148800 12611.33568113 0 120.85610446 0 3820.07894767 0 496.64117499 0 -923.87133171 0 19059
0.13250000 0.13249300 12680.46568312 0 113.44626750 0 3973.30025779 0 176.82892478 0 -554.63394024 0 18957
0.13350000 0.13349100 12343.92060024 0 129.65078960 0 3652.53704853 0 154.57356040 0 -771.73924065 0 19468
0.13450000 0.13450700 12477.68434394 0 223.63836662 0 4161.85093315 0 -153.89462509 0 -777.18308780 0 19953
0.13550000 0.13551000 12183.40410780 0 172.09885895 0 3528.08056363 0 -301.10668333 0 -1066.97942836 0 19956
0.13650000 0.13649900 12244.77806079 0 90.46082286 0 3638.62112292 0 312.87452058 0 -942.95346039 0 19723
0.13750000 0.13749600 12104.04511364 0 -50.97803716 0 3543.14303561 0 207.43721672 0 -1282.87298663 0 20946
0.13850000 0.13851100 12328.07128271 0 -85.52527793 0 3050.60020188 0 582.17803079 0 -1398.95518673 0 20955
0.13950000 0.13949800 12252.08448377 0 73.69179528 0 3351.90584473 0 358.72288678 0 -1179.82994138 0 20506
0.14050000 0.14048300 12048.62870553 0 354.05689266 0 3375.21895434 0 -260.11315418 0 -618.88662388 0 21447
0.14150000 0.14148400 11909.91907551 0 304.56655562 0 3868.77344664 0 -39.58957187 0 -16.33985953 0 21771
0.14250000 0.14249400 11723.66149290 0 299.64315060 0 4079.65929500 0 -146.83100017 0 364.84791736 0 22470
0.14350000 0.14350900 11508.29062490 0 165.46575096 0 4373.24261080 0 427.57074844 0 792.27028921 0 22519
0.14450000 0.14449900 11510.42634853 0 3.21764751 0 4256.45224970 0 572.03671570 0 1105.91816656 0 22218
0.14550000 0.14550500 11494.80184402 0 46.81360088 0 3880.25015104 0 508.96205225 0 1058.53432747 0 23559
0.14650000 0.14650700 11313.15292821 0 210.62056901 0 3641.19523194 0 569.55815221 0 676.24204424 0 23044
0.14750000 0.14750500 11185.78511477 0 245.05967472 0 3466.29070657 0 -19.26018059 0 870.02861471 0 23649
0.14850000 0.14849900 10867.64097713 0 219.96941822 0 3260.68796405 0 48.04220400 0 923.14518567 0 23640
0.14950000 0.14949500 10815.65296750 0 79.74387404 0 3413.24607577 0 -28.67669852 0 879.45277628 0 24457
0.15050000 0.15050000 10723.53583476 0 64.50402459 0 3155.21693824 0 11.79099299 0 477.53993720 0 24591
0.15150000 0.15149900 10729.68447071 0 86.01941694 0 3396.62115334 0 116.28228368 0 885.56993841 0 25020
0.15250000 0.15250500 10705.11240821 0 92.90869936 0 3357.08778471 0 31.74629542 0 694.52833485 0 25297
0.15350000 0.15350100 10482.35643268 0 107.33405126 0 3138.90675403 0 -19.35898591 0 339.54746070 0 25452
0.15450000 0.15450400 10443.07035837 0 122.93899704 0 3022.18383684 0 214.45812717 0 99.00338019 0 26061
0.15550000 0.15549900 10261.63501492 0 40.61696735 0 2877.82015950 0 41.07412462 0 -509.58928056 0 26128
0.15650000 0.15649500 10297.14423058 0 66.02690795 0 2822.12273513 0 100.65227125 0 -420.56669897 0 26331
0.15750000 0.15749700 10163.84135357 0 -5.72505451 0 2681.34482537 0 84.93559339 0 -827.72667381 0 27345
0.15850000 0.15849900 10245.62832828 0 129.54063122 0 2447.42688366 0 -8.90402294 0 -532.97995067 0 26980
0.15950000 0.15949700 10129.33255582 0 194.61275830 0 2560.13688854 0 -111.89606936 0 -672.59332901 0 27777
0.16050000 0.16050000 9991.56714046 0 331.95327706 0 2885.04789792 0 123.34928080 0 -240.57577914 0 28224
0.16150000 0.16150500 9651.04286722 0 349.96079953 0 2784.37662997 0 -89.64059257 0 -317.76757584 0 28075
0.16250000 0.16249700 9424.34142327 0 325.66525704 0 3209.63292843 0 354.84036602 0 225.28961821 0 28590
0.16350000 0.16349900 9146.11283638 0 193.86862722 0 3042.58561791 0 146.14756861 0 477.00937849 0 29163
0.16450000 0.16449100 9019.45318394 0 83.32638184 0 2891.02792411 0 390.20345322 0 521.59879181 0 28996
0.16550000 0.16550500 9172.04501762 0 -23.40247279 0 3210.50969918 0 73.00285580 0 779.74145991 0 30777
0.16650000 0.16650700 9111.94125816 0 -2.54179215 0 2873.70608133 0 -285.47768255 0 316.17140344 0 29211
0.16750000 0.16749900 9259.93566568 0 37.16687442 0 3390.64112715 0 -58.43036378 0 1255.47952080 0 30922
0.16850000 0.16850800 9128.65610580 0 94.06131569 0 3481.60047286 0 -196.64281982 0 819.89081619 0 30867
0.16950000 0.16949900 9178.40722593 0 79.53288703 0 3567.06314037 0 239.75296351 0 1018.29617005 0 30852
0.17050000 0.17049200 9020.52104576 0 -21.52179952 0 3420.87847761 0 406.48778393 0 861.81956748 0 31257
0.17150000 0.17149500 9112.21103378 0 -79.86190087 0 2945.38771104 0 735.71745132 0 866.92507104 0 32608
0.17250000 0.17250900 9149.37262509 0 -61.10563866 0 2824.73056610 0 499.94030598 0 939.50932501 0 32361
0.17350000 0.17350400 9177.13703240 0 16.30254057 0 2580.01035903 0 319.75829508 0 727.82876264 0 32508
0.17450000 0.17449800 9041.04647400 0 156.87114941 0 2351.60033618 0 112.59422618 0 1071.03280702 0 32791
0.17550000 0.17549800 8897.21110724 0 235.82323201 0 2247.74796407 0 101.49408358 0 980.96709303 0 33633
0.17650000 0.17650100 8717.57426791 0 270.53885773 0 2106.27313397 0 155.27385294 0 1447.05393120 0 33984
0.17750000 0.17750300 8528.14682179 0 224.17454566 0 1969.01354790 0 240.94447248 0 1328.09412452 0 34069
