### header ###
fiducial parameters:
Omega_m = 0.31
Omega_nu = 0
Omega_de = 0.69
Omega_k = 0
H_0 = 100
w_de = -1
zeff = 0
beta = 0
fgrowth = 0
b_1 = 2
gamma = 0.55
Lx = 3500 Ly = 3500 Lz = 3500
nx = 700 ny = 700 nz = 700
xoffset = 857.220397 yoffset = 15.9954215 zoffset = 262.898189
bins = 400 dk = 0.001
kx_ny = 0.628318531 ky_ny = 0.628318531 kz_ny = 0.628318531
############################
A(data) = 3.0852346 (not used)
A(ran) = 3.08314271 (used)
Ngal = 188659
weighted Ngal = 0
Nran = 9360983
weighted Nran = 0
SN(data) = 3446.7164
SN(ran) = 69.2357982
SN(data+ran) = 3515.9522
############################
13 columns: k_central k_mean P_0(k) sigma^{lin}_{P_0(k)} P^img_1(k) sigma^{lin}_{P_1(k)} P_2(k) sigma^{lin}_{P_2(k)} P^img_3(k) sigma^{lin}_{P_3(k)} P_4(k) sigma^{lin}_{P_4(k)} N_modes
### header ###
0.00050000 0 0 0 0 0 0 0 0 0 0 0 0
0.00150000 0.00179520 19463.74877325 0 -26769.04768332 0 1446.21088240 0 2481.20503911 0 -12933.71754409 0 3
0.00250000 0.00253879 39656.45374640 0 -31456.28663163 0 -15176.67699095 0 -2353.79226307 0 31103.10538567 0 6
0.00350000 0.00331552 55391.11663964 0 -24538.56535877 0 -4898.95660483 0 -19616.05959065 0 -31413.68456536 0 7
0.00450000 0.00420575 73862.65317286 0 -14649.82769119 0 -13444.15549379 0 -16657.18309873 0 6486.94581490 0 24
0.00550000 0.00557378 77592.18867890 0 864.25766462 0 -11650.37245014 0 -10079.34538202 0 20899.51709112 0 45
0.00650000 0.00659388 79645.96797396 0 11343.50268518 0 -22487.93344591 0 -3441.80856927 0 4989.75858144 0 40
0.00750000 0.00754703 61790.64391381 0 6581.45720625 0 -16866.14679582 0 10815.60800490 0 9012.10179837 0 57
0.00850000 0.00846663 58788.60332308 0 2643.56499826 0 -19500.05607511 0 3147.25855752 0 -8231.86574983 0 75
0.00950000 0.00948925 52543.74740297 0 -1812.35259866 0 -20022.18430156 0 1725.17011159 0 -7719.10098543 0 112
0.01050000 0.01054430 56089.49826956 0 -6855.95389710 0 -26456.55759300 0 -16593.44860909 0 -14430.63500194 0 105
0.01150000 0.01145670 62412.13949273 0 -6273.20484125 0 -13747.65306352 0 -25882.27274715 0 -12185.20261192 0 144
0.01250000 0.01249090 67954.22992913 0 -4582.65593391 0 -6869.90354466 0 -24988.75342054 0 -14868.79556743 0 169
0.01350000 0.01339930 78046.76059446 0 -784.54908623 0 21617.34504680 0 -18114.42105950 0 -7710.82786649 0 180
0.01450000 0.01448870 81079.37575518 0 1937.94438928 0 29164.20554108 0 -16378.75218013 0 -2154.48428496 0 267
0.01550000 0.01550050 76095.15881455 0 5758.20318736 0 39515.94561226 0 2908.36100753 0 -5447.16314098 0 238
0.01650000 0.01653350 75940.03783446 0 8542.51237343 0 55142.69825849 0 -1655.29822665 0 7982.16593449 0 315
0.01750000 0.01747870 66800.93916413 0 8128.14826553 0 51327.17177436 0 28246.40640889 0 12636.96436479 0 297
0.01850000 0.01844180 67248.99150227 0 5819.82443467 0 57781.77823711 0 4303.79787058 0 18928.80620496 0 388
0.01950000 0.01947590 63993.13701804 0 237.47560767 0 43159.04051418 0 12292.88804592 0 14085.77183751 0 399
0.02050000 0.02045430 64816.96431011 0 536.47579305 0 42573.17779808 0 11156.73927328 0 15452.29774688 0 462
0.02150000 0.02154770 66811.50537582 0 -1403.58633483 0 36144.87445804 0 10102.37747537 0 14504.48607724 0 571
0.02250000 0.02255340 60220.66222621 0 1664.04345291 0 34125.15433469 0 7803.75432609 0 -3160.79230100 0 510
0.02350000 0.02348930 70040.83192433 0 -1583.08828635 0 29254.46796645 0 6265.26894184 0 10111.51612441 0 555
0.02450000 0.02439640 62248.25080507 0 685.34359913 0 39608.79338730 0 11141.10352812 0 -3410.79561391 0 592
0.02550000 0.02547300 67242.02229882 0 1601.42178769 0 34064.45482075 0 358.57338612 0 3577.15724473 0 837
0.02650000 0.02652900 63825.65132215 0 1171.48937853 0 40347.97857937 0 1961.50479321 0 -9414.38220673 0 723
0.02750000 0.02749970 61627.20485218 0 5355.24833996 0 40801.42642986 0 -3108.15233363 0 11423.87333791 0 826
0.02850000 0.02848090 62158.43800573 0 2333.01954052 0 44022.99692936 0 -1329.66781562 0 -3984.41726136 0 831
0.02950000 0.02946900 58106.18341721 0 995.48776565 0 44532.42322049 0 -828.54274506 0 -2281.99822685 0 996
0.03050000 0.03053250 60879.70157857 0 385.64312121 0 38034.54025243 0 4805.06344928 0 -13923.23202794 0 1041
0.03150000 0.03150510 56662.65905033 0 -621.40677778 0 34789.02716687 0 12441.82666810 0 -13348.83477559 0 1036
0.03250000 0.03246190 54879.55462487 0 4169.69690736 0 27130.99663686 0 3931.13657690 0 -10166.62903495 0 1059
0.03350000 0.03345080 54630.57421118 0 805.57584748 0 24716.50485984 0 11058.09132247 0 -12692.60558591 0 1302
0.03450000 0.03451200 50799.19840952 0 821.95909592 0 20981.79865447 0 11051.79655806 0 -1345.92179658 0 1339
0.03550000 0.03553350 51578.96235073 0 -433.18095722 0 10230.91431648 0 11253.80229235 0 -708.01037133 0 1365
0.03650000 0.03647120 52776.09165358 0 -2009.00778320 0 10099.44366553 0 7755.19471493 0 985.08791559 0 1308
0.03750000 0.03744890 53385.33492320 0 1209.87620078 0 12413.05060223 0 -386.31531213 0 6582.58127132 0 1579
0.03850000 0.03847530 51847.83871622 0 2688.13417841 0 11522.56625132 0 -4576.12511584 0 7318.94506006 0 1662
0.03950000 0.03950240 49048.12983865 0 2785.09603162 0 16025.79574717 0 -4023.62465111 0 7444.93027345 0 1683
0.04050000 0.04050350 48190.24337486 0 3716.51883249 0 17711.21891778 0 -4640.07317785 0 5975.86714812 0 1822
0.04150000 0.04152450 44834.45950563 0 1768.68267057 0 21405.23396750 0 -697.79824014 0 2523.32375739 0 1887
0.04250000 0.04250150 44635.38758119 0 2710.46935141 0 22148.91541987 0 -887.85291457 0 3929.83266141 0 1920
0.04350000 0.04349210 42105.34191465 0 1636.34648951 0 20652.78480757 0 1420.30118246 0 1233.09938519 0 2005
0.04450000 0.04448520 40934.62814102 0 925.87216754 0 21695.01794335 0 2131.83437374 0 -848.94452613 0 2151
0.04550000 0.04548030 40644.73175867 0 -166.63477863 0 20699.43350811 0 1059.28969920 0 -997.79659531 0 2274
0.04650000 0.04648670 41982.36919566 0 444.50366470 0 20941.89434437 0 -697.52509233 0 -2781.38661688 0 2311
0.04750000 0.04749250 40148.56943540 0 1926.73746050 0 21098.36420255 0 -709.95163171 0 -3618.52283942 0 2568
0.04850000 0.04851840 39138.03493469 0 1655.39939250 0 26078.64691542 0 -119.92987484 0 -1485.17097783 0 2493
0.04950000 0.04949480 38163.80773583 0 1701.50854180 0 23662.91866682 0 1418.43523444 0 -172.20564513 0 2644
0.05050000 0.05050630 37589.86010951 0 532.34035764 0 24679.86033846 0 6549.60120208 0 -657.33189751 0 2829
0.05150000 0.05149060 37473.96900047 0 -507.77054328 0 22925.30716586 0 4515.05466042 0 -2565.77969521 0 2784
0.05250000 0.05249300 37346.16280166 0 -645.78437702 0 18969.94698664 0 5494.11533909 0 -599.21548510 0 3055
0.05350000 0.05348950 37493.52773274 0 -509.40605796 0 17536.65161193 0 2831.40751263 0 -3906.24977618 0 3009
0.05450000 0.05448610 37333.68567935 0 58.30795310 0 14745.82284844 0 1699.09180189 0 -1817.46709474 0 3336
0.05550000 0.05550870 37189.58053698 0 138.29822220 0 13425.04638754 0 -462.92259499 0 -928.58004030 0 3349
0.05650000 0.05647670 37546.02157166 0 261.40245681 0 12482.74263677 0 706.26020201 0 -1939.93398446 0 3324
0.05750000 0.05747970 37259.16016500 0 -505.72586891 0 12594.47470503 0 2427.07006518 0 1446.06475394 0 3639
0.05850000 0.05849280 37106.28731506 0 82.53807500 0 11056.22537445 0 3102.65565542 0 927.68865670 0 3846
0.05950000 0.05951020 37844.12362904 0 74.80900356 0 12350.77739718 0 3737.68497782 0 7417.64921413 0 3787
0.06050000 0.06049470 36692.40655515 0 858.73738105 0 9518.51559510 0 3130.27393426 0 5287.14123718 0 3930
0.06150000 0.06148310 36202.87621581 0 1338.95259312 0 9904.55326315 0 2883.56413202 0 11718.37838706 0 4083
0.06250000 0.06249100 34704.60987988 0 1526.86255139 0 9565.58019971 0 2256.03232366 0 9759.71747848 0 4303
0.06350000 0.06350600 31925.35898664 0 1732.54397847 0 6109.99059264 0 660.57032899 0 9550.70881879 0 4470
0.06450000 0.06451750 31874.32643232 0 1223.73592313 0 7285.32427372 0 1179.98731049 0 8465.98602325 0 4479
0.06550000 0.06550280 29824.36895851 0 924.49518783 0 4810.94230961 0 -969.60953953 0 6380.67670289 0 4636
0.06650000 0.06648880 29728.93583380 0 310.64887173 0 6433.90118410 0 -243.57028849 0 5791.61040133 0 4653
0.06750000 0.06749660 29734.21893965 0 -392.03567928 0 7098.27984556 0 -745.88012365 0 3249.77329219 0 5220
0.06850000 0.06852730 31182.91400586 0 -438.17068208 0 7998.11641788 0 159.01024524 0 6026.12409754 0 5029
0.06950000 0.06949320 30617.28446107 0 -84.91963167 0 8158.17204363 0 -1152.56012270 0 2881.02374496 0 5040
0.07050000 0.07048030 31760.79585994 0 51.99902547 0 10407.50493946 0 -120.66838560 0 7638.79777661 0 5475
0.07150000 0.07148790 31023.40917198 0 386.65702791 0 10416.20520313 0 -585.85484764 0 5263.70448040 0 5509
0.07250000 0.07249820 31814.86338995 0 502.61782898 0 11713.43250074 0 1649.84651104 0 8684.49303281 0 5916
0.07350000 0.07351270 30678.43360105 0 787.69871656 0 11785.37266541 0 828.19653301 0 6900.32074553 0 5721
0.07450000 0.07449140 29819.64788520 0 1225.87164677 0 11223.65486709 0 853.12942040 0 5088.45149486 0 6028
0.07550000 0.07549160 28671.41541303 0 1659.19873245 0 12299.18281033 0 -405.98532684 0 6452.39205456 0 6183
0.07650000 0.07648840 27000.60508838 0 1802.24725365 0 12195.99363662 0 -1000.36171180 0 3305.63932632 0 6330
0.07750000 0.07749960 26391.36181876 0 1107.16925099 0 12127.08844764 0 -1375.49594865 0 3900.20230608 0 6583
0.07850000 0.07848650 25175.57303569 0 298.73378196 0 12189.92368522 0 214.76499693 0 1814.58948815 0 6549
0.07950000 0.07947320 25600.91925935 0 -130.33197303 0 11908.34538441 0 -283.16098443 0 2470.52642091 0 6828
0.08050000 0.08048110 25426.68917302 0 -163.62790456 0 11861.13465134 0 901.02246097 0 -754.85578325 0 7147
0.08150000 0.08149960 25834.16276202 0 54.11631444 0 11446.35463937 0 832.44774712 0 1533.65190443 0 7386
0.08250000 0.08250610 24872.97471802 0 399.23194388 0 10628.92327756 0 2042.11149960 0 6.77952871 0 7227
0.08350000 0.08350160 25182.54223915 0 372.61745515 0 8893.61409901 0 2592.83594151 0 2715.08925887 0 7798
0.08450000 0.08449610 24431.10473778 0 24.51720812 0 9035.13389171 0 2481.14883585 0 1625.78027783 0 7371
0.08550000 0.08548940 24699.98110327 0 570.76090184 0 7192.18424177 0 1417.32241002 0 2567.90417819 0 8256
0.08650000 0.08650700 23712.93956258 0 700.04861842 0 7732.56728501 0 1156.38194395 0 3761.17793784 0 8037
0.08750000 0.08749060 23186.09026282 0 1156.74164477 0 7804.00162040 0 -1070.76527953 0 3683.74109496 0 8155
0.08850000 0.08849210 22307.63340819 0 1029.76050973 0 8118.32393679 0 -1057.23603231 0 4528.29614698 0 8718
0.08950000 0.08949900 21510.44645835 0 780.12813829 0 8230.28081807 0 680.62140176 0 3360.62858970 0 8571
0.09050000 0.09049190 21029.23420055 0 13.33186139 0 8095.75271013 0 770.17454207 0 2869.89550073 0 8932
0.09150000 0.09150830 20968.19746708 0 -53.57237935 0 7374.37270881 0 1376.11418444 0 1691.09969922 0 9285
0.09250000 0.09250820 21196.15786391 0 377.57458212 0 7398.04551925 0 910.12289180 0 870.67607619 0 9204
0.09350000 0.09350330 20197.87567249 0 540.62246910 0 6414.17384207 0 -54.82065362 0 1358.43264084 0 9349
0.09450000 0.09448040 19892.57959864 0 738.33539887 0 6906.95272947 0 -536.68374509 0 565.53062706 0 9564
0.09550000 0.09549270 19459.14010645 0 689.04514542 0 6445.78255193 0 -944.38889149 0 1504.30256538 0 10155
0.09650000 0.09649430 18940.38407521 0 221.96912998 0 8203.52806933 0 119.18686783 0 941.92269272 0 9913
0.09750000 0.09749140 18643.06886338 0 171.55930772 0 7289.31470473 0 365.74042503 0 1112.31746902 0 10476
0.09850000 0.09850240 18436.12848342 0 189.73993621 0 7589.68737357 0 532.68319749 0 -194.62512302 0 10575
0.09950000 0.09950330 18209.29215167 0 541.40032213 0 7076.37181728 0 393.77235982 0 327.05572554 0 10882
0.10050000 0.10051200 17633.99564726 0 544.20486449 0 7009.98453407 0 5.10780790 0 485.67254800 0 10875
0.10150000 0.10150300 17144.57771443 0 615.41213874 0 7138.36400607 0 -29.06629947 0 658.76845268 0 11118
0.10250000 0.10250800 16795.21828971 0 424.32782070 0 6351.76574921 0 75.24053214 0 1565.09200453 0 11575
0.10350000 0.10349800 16750.48049980 0 212.84172159 0 7468.17593916 0 387.54953558 0 765.95817398 0 11364
0.10450000 0.10450100 16453.16528797 0 -44.28130708 0 6517.81264181 0 868.26832880 0 1984.39075810 0 12093
0.10550000 0.10551000 16454.73897907 0 -162.41279022 0 6420.26627477 0 1571.89259822 0 1012.65898370 0 12067
0.10650000 0.10649700 16855.46817763 0 -362.28842119 0 5683.25052829 0 1199.89450293 0 1968.48523731 0 12054
0.10750000 0.10749900 16733.16989768 0 -251.00597895 0 4849.66635138 0 667.97117343 0 -218.90043234 0 12807
0.10850000 0.10850100 17047.68330513 0 -23.59243979 0 4615.51235600 0 151.04174794 0 110.46637099 0 12736
0.10950000 0.10950300 16664.82674123 0 307.68358807 0 4834.24417858 0 -867.90525579 0 -1007.71084925 0 12933
0.11050000 0.11050200 16369.98447256 0 390.38330363 0 4921.50535020 0 -959.98529438 0 -1147.00724124 0 13428
0.11150000 0.11150900 16279.60964068 0 647.25015787 0 5553.15123673 0 -865.83585199 0 -547.90865891 0 13453
0.11250000 0.11250000 15748.93851967 0 677.00640849 0 5736.17151193 0 -164.98127891 0 -1043.94059062 0 13668
0.11350000 0.11349100 15289.19590477 0 438.93055007 0 6235.70603041 0 323.53515373 0 440.14678848 0 13791
0.11450000 0.11448600 15225.46141513 0 351.55809600 0 6541.72150591 0 760.77061367 0 509.27791454 0 14205
0.11550000 0.11549300 14871.15610409 0 244.71683487 0 6352.63127932 0 860.88996566 0 1403.64253808 0 14776
0.11650000 0.11649800 14644.43217884 0 260.21656816 0 5712.04907546 0 1092.75536455 0 1497.43452778 0 14553
0.11750000 0.11747300 14691.98013143 0 120.03553696 0 5885.26750323 0 393.75100259 0 1840.33057833 0 14568
0.11850000 0.11849100 14360.83056090 0 124.19907399 0 5492.99127401 0 575.21444766 0 2112.54541708 0 16015
0.11950000 0.11950300 14284.95616847 0 60.33295633 0 5128.67054317 0 201.02554954 0 1090.86918336 0 15270
0.12050000 0.12050700 14318.34090114 0 -19.81490670 0 5037.74491941 0 -27.47754590 0 1318.29227708 0 15999
0.12150000 0.12150000 14256.29250910 0 14.71052721 0 4745.07209633 0 165.10267794 0 201.13683199 0 15670
0.12250000 0.12250700 14236.62137032 0 9.96217284 0 4110.84086013 0 135.71512067 0 938.83713409 0 16887
0.12350000 0.12352200 14119.83100923 0 95.57835391 0 3697.91555553 0 354.25697624 0 -305.47817240 0 16407
0.12450000 0.12449800 13835.10532621 0 306.16272803 0 3542.62596568 0 185.34708990 0 49.51394240 0 16306
0.12550000 0.12549900 13667.61963032 0 419.54042756 0 3594.26551514 0 139.26042191 0 -669.73258340 0 17523
0.12650000 0.12650100 13420.32531424 0 481.42470609 0 3617.47745890 0 -477.38931248 0 -547.97610281 0 17154
0.12750000 0.12750600 13062.98502750 0 388.45215983 0 3743.60880075 0 -475.49975909 0 -811.02643902 0 18007
0.12850000 0.12850300 12812.99295524 0 212.30554255 0 4006.04427337 0 -310.88042914 0 -1017.65545295 0 17496
0.12950000 0.12949900 12691.48152084 0 78.69871834 0 4119.69849291 0 -551.94292845 0 -1242.20431228 0 18405
0.13050000 0.13049000 12765.66981566 0 130.40728539 0 4317.72503684 0 -48.60210082 0 -1546.91587230 0 18100
0.13150000 0.13148800 12607.51385988 0 89.19726131 0 4546.38235401 0 31.45988364 0 -1200.78251434 0 19059
0.13250000 0.13249300 12645.28244634 0 78.52505028 0 4489.08875723 0 -33.93136552 0 -1691.31327159 0 18957
0.13350000 0.13349100 12437.33040781 0 -26.09798083 0 4295.64839880 0 378.36479987 0 -1217.28378961 0 19468
0.13450000 0.13450700 12458.68764420 0 -7.10793556 0 3982.95597677 0 501.41732748 0 -1533.17979710 0 19953
0.13550000 0.13551000 12525.34470304 0 -22.75501131 0 3769.69835110 0 640.03703230 0 -815.72165883 0 19956
0.13650000 0.13649900 12310.98549360 0 132.40812122 0 3857.09441053 0 457.45514247 0 -921.17919586 0 19723
0.13750000 0.13749600 12303.56666411 0 240.21383019 0 3713.34896898 0 456.96617417 0 -376.80122535 0 20946
0.13850000 0.13851100 11950.49782465 0 326.11488307 0 3671.88220844 0 189.79613946 0 -130.71303109 0 20955
0.13950000 0.13949800 11960.61441031 0 287.21548715 0 4014.72205573 0 -154.48026300 0 194.14402317 0 20506
0.14050000 0.14048300 11472.54535557 0 322.53023955 0 4089.06771967 0 -192.80076540 0 646.27109719 0 21447
0.14150000 0.14148400 11607.43316434 0 172.31243132 0 4662.85797688 0 -278.27017730 0 663.12757703 0 21771
0.14250000 0.14249400 11339.34364441 0 69.21104709 0 4756.66120723 0 -15.94441344 0 1330.36473596 0 22470
0.14350000 0.14350900 11393.74839395 0 13.33219861 0 4731.02128291 0 303.92134227 0 991.11740064 0 22519
0.14450000 0.14449900 11430.73013485 0 84.99494403 0 4670.24308441 0 495.82622781 0 763.92474026 0 22218
0.14550000 0.14550500 11220.30515317 0 219.39277284 0 3898.26891416 0 519.78679891 0 819.55696886 0 23559
0.14650000 0.14650700 10975.70859326 0 274.63607492 0 3916.92839437 0 496.06452960 0 669.73483153 0 23044
0.14750000 0.14750500 10667.44498761 0 302.22287994 0 3571.70552912 0 470.65503863 0 743.03061869 0 23649
0.14850000 0.14849900 10444.02581369 0 226.59240963 0 2972.71373297 0 389.47843124 0 584.66671086 0 23640
0.14950000 0.14949500 10158.15358430 0 74.62847871 0 2704.74786019 0 524.10096066 0 519.99362688 0 24457
0.15050000 0.15050000 10167.23603009 0 -38.41402462 0 2422.43891708 0 557.90834180 0 684.99401490 0 24591
0.15150000 0.15149900 10190.72899011 0 -121.27875293 0 1951.43317015 0 597.22026960 0 447.35766592 0 25020
0.15250000 0.15250500 10322.73919230 0 20.25992406 0 1935.22415180 0 83.39348852 0 456.69302635 0 25297
0.15350000 0.15350100 10174.86843193 0 157.10495494 0 2029.36460167 0 -221.59481632 0 488.83117086 0 25452
0.15450000 0.15450400 10118.58649372 0 249.49635956 0 2499.90948192 0 -553.29405467 0 815.53169183 0 26061
0.15550000 0.15549900 9911.24145034 0 236.87648098 0 2866.77059983 0 -330.08957717 0 728.94383519 0 26128
0.15650000 0.15649500 9830.17387727 0 117.03653135 0 3035.23423233 0 -229.78475444 0 1022.71486985 0 26331
0.15750000 0.15749700 9760.59424924 0 77.66502810 0 3012.44943330 0 139.56391948 0 644.68504137 0 27345
0.15850000 0.15849900 9647.67067200 0 38.56847116 0 2782.87038277 0 297.43548680 0 383.75244376 0 26980
0.15950000 0.15949700 9593.70430784 0 115.76521375 0 2424.55215942 0 170.68703322 0 -330.70331670 0 27777
0.16050000 0.16050000 9398.51040789 0 146.43757740 0 2130.19323873 0 84.60938971 0 -274.39552499 0 28224
0.16150000 0.16150500 9289.27376409 0 168.56704649 0 1831.40550165 0 -122.36010353 0 -835.39279761 0 28075
0.16250000 0.16249700 9203.49635836 0 149.54561733 0 1970.08140972 0 -240.65333963 0 -599.72805878 0 28590
0.16350000 0.16349900 9127.38591226 0 156.16860874 0 2140.98426343 0 -290.65512628 0 -508.01334133 0 29163
0.16450000 0.16449100 9228.86650706 0 68.22198223 0 2531.18097226 0 -272.97245861 0 -236.31782064 0 28996
0.16550000 0.16550500 9136.14237918 0 99.01653175 0 2742.67381576 0 54.96981705 0 102.01980881 0 30777
0.16650000 0.16650700 9205.31734378 0 71.54404415 0 3292.65637472 0 172.74182417 0 545.69537478 0 29211
0.16750000 0.16749900 9144.64031114 0 102.14739020 0 2909.09164983 0 353.56567622 0 751.76123211 0 30922
0.16850000 0.16850800 9106.95040923 0 93.54739314 0 3235.39649990 0 429.02866084 0 743.27903707 0 30867
0.16950000 0.16949900 8880.20400269 0 152.68625514 0 2620.64531142 0 428.99943515 0 903.35489600 0 30852
0.17050000 0.17049200 8827.54155401 0 145.78786779 0 2542.35417908 0 179.74362551 0 529.96408408 0 31257
0.17150000 0.17149500 8635.39387042 0 167.42949264 0 2419.39270074 0 -61.54807067 0 840.46120703 0 32608
0.17250000 0.17250900 8606.20190047 0 163.09509772 0 2532.06898366 0 -71.21997619 0 804.95423950 0 32361
0.17350000 0.17350400 8461.47852231 0 96.60889677 0 2689.43809390 0 -162.57465559 0 761.93964134 0 32508
0.17450000 0.17449800 8472.10093725 0 41.89750228 0 2692.49555090 0 -27.59815808 0 898.32695292 0 32791
0.17550000 0.17549800 8536.19512772 0 7.06217488 0 2945.55632080 0 150.38304580 0 829.21606003 0 33633
0.17650000 0.17650100 8530.78837472 0 17.35815008 0 3091.25763558 0 91.53520425 0 1131.93352861 0 33984
0.17750000 0.17750300 8563.48742769 0 103.71703467 0 3055.57981016 0 157.46353170 0 1294.84427966 0 34069
