### header ###
fiducial parameters:
Omega_m = 0.31
Omega_nu = 0
Omega_de = 0.69
Omega_k = 0
H_0 = 100
w_de = -1
zeff = 0
beta = 0
fgrowth = 0
b_1 = 2
gamma = 0.55
Lx = 3500 Ly = 3500 Lz = 3500
nx = 700 ny = 700 nz = 700
xoffset = 857.220397 yoffset = 15.9954215 zoffset = 262.898189
bins = 400 dk = 0.001
kx_ny = 0.628318531 ky_ny = 0.628318531 kz_ny = 0.628318531
############################
A(data) = 3.07930872 (not used)
A(ran) = 3.07856684 (used)
Ngal = 187847
weighted Ngal = 0
Nran = 9360983
weighted Nran = 0
SN(data) = 3448.01606
SN(ran) = 69.1330415
SN(data+ran) = 3517.1491
############################
13 columns: k_central k_mean P_0(k) sigma^{lin}_{P_0(k)} P^img_1(k) sigma^{lin}_{P_1(k)} P_2(k) sigma^{lin}_{P_2(k)} P^img_3(k) sigma^{lin}_{P_3(k)} P_4(k) sigma^{lin}_{P_4(k)} N_modes
### header ###
0.00050000 0 0 0 0 0 0 0 0 0 0 0 0
0.00150000 0.00179520 30805.56536082 0 -48514.76096147 0 -42222.58190178 0 111885.84036805 0 -21224.25949074 0 3
0.00250000 0.00253879 57180.06620348 0 -53576.65079864 0 -14111.28811467 0 -46772.12287864 0 19897.63789146 0 6
0.00350000 0.00331552 79268.39451591 0 -42672.88237006 0 -35505.16902494 0 -30026.02623262 0 -4533.84902844 0 7
0.00450000 0.00420575 97877.17939455 0 -25570.11987635 0 -38284.19510516 0 -42583.18197723 0 -2855.83344667 0 24
0.00550000 0.00557378 109329.04195278 0 653.49433935 0 -42147.71916791 0 -59133.12926799 0 583.94618515 0 45
0.00650000 0.00659388 97297.38662985 0 15463.42599110 0 -6954.60184791 0 -68081.02446938 0 -32000.67134654 0 40
0.00750000 0.00754703 92622.84961686 0 25575.62779521 0 6171.69052450 0 -68377.44042916 0 -16750.70531282 0 57
0.00850000 0.00846663 83013.89174598 0 20469.22498113 0 29945.09354736 0 -43498.50816625 0 -37703.39068189 0 75
0.00950000 0.00948925 76131.24130339 0 19492.74965213 0 67974.23828743 0 -35252.81641603 0 -18104.19206733 0 112
0.01050000 0.01054430 67946.02425410 0 1802.91045205 0 65259.73354241 0 19892.12997261 0 -51826.03185380 0 105
0.01150000 0.01145670 80847.59353710 0 -6880.95310433 0 92370.94663398 0 20820.49531648 0 -43355.30227594 0 144
0.01250000 0.01249090 89070.12954682 0 -9020.45360186 0 74438.39930331 0 43264.25300502 0 -56107.25849771 0 169
0.01350000 0.01339930 100251.09242243 0 -3515.01892749 0 87140.78425536 0 36198.82958155 0 -32077.22017801 0 180
0.01450000 0.01448870 96191.19419141 0 6862.04632980 0 71782.79556811 0 26284.91285634 0 -18590.57502446 0 267
0.01550000 0.01550050 92225.38020701 0 9046.26213594 0 66706.18047847 0 19368.09083553 0 -29950.37665320 0 238
0.01650000 0.01653350 80822.75169899 0 8239.79040859 0 59179.55315551 0 23836.58672062 0 1416.20958560 0 315
0.01750000 0.01747870 77140.31451951 0 4811.61674865 0 47453.41871944 0 27962.57997794 0 -10365.02652035 0 297
0.01850000 0.01844180 70476.18232714 0 4019.69042335 0 37982.38363303 0 18448.71801224 0 -14181.76699475 0 388
0.01950000 0.01947590 66374.80609492 0 -534.93020357 0 25875.30354370 0 14992.55513198 0 -14171.76281560 0 399
0.02050000 0.02045430 66252.50781497 0 -3834.25340825 0 15766.58634132 0 4647.77302360 0 -10817.00184559 0 462
0.02150000 0.02154770 74030.70090129 0 -7163.92524583 0 5631.03770564 0 -3605.49492522 0 -30251.73849930 0 571
0.02250000 0.02255340 75535.03718862 0 -3025.10640603 0 8366.29269192 0 -9677.44715578 0 -28611.95237066 0 510
0.02350000 0.02348930 78398.36814933 0 -383.92330165 0 8307.21183168 0 -11715.79303739 0 -33452.17657543 0 555
0.02450000 0.02439640 83056.26899924 0 3111.73810121 0 5181.80509918 0 -9980.39393364 0 -32822.25050846 0 592
0.02550000 0.02547300 76730.25558085 0 5078.06513358 0 15379.34592363 0 -3286.77751439 0 -17974.13773838 0 837
0.02650000 0.02652900 74688.16656255 0 6197.15059841 0 22486.13494180 0 7984.30165813 0 -7003.03781191 0 723
0.02750000 0.02749970 67097.35512391 0 3103.90336765 0 26402.71487600 0 18671.39530322 0 8932.66411965 0 826
0.02850000 0.02848090 65950.69634284 0 6708.04941478 0 25869.68321833 0 16380.55068424 0 20843.98827651 0 831
0.02950000 0.02946900 58788.49091658 0 3582.11437170 0 23469.24225473 0 17045.99720752 0 29081.36194519 0 996
0.03050000 0.03053250 57068.55894823 0 2364.69569428 0 24294.98045743 0 12857.50593214 0 45071.86204907 0 1041
0.03150000 0.03150510 56313.29962561 0 179.81781381 0 20310.84421234 0 7411.65794729 0 40852.57139068 0 1036
0.03250000 0.03246190 55085.93297230 0 709.99884245 0 18787.73603829 0 6492.08279229 0 49405.02049936 0 1059
0.03350000 0.03345080 55325.13401985 0 743.90176912 0 12711.82709866 0 1922.45477257 0 36887.54425184 0 1302
0.03450000 0.03451200 54191.17717411 0 835.84017551 0 13615.80023045 0 715.81925140 0 36442.07726337 0 1339
0.03550000 0.03553350 53759.64859255 0 2307.98661134 0 8880.96836694 0 1512.85670058 0 21740.99220484 0 1365
0.03650000 0.03647120 49823.73473909 0 1723.24796031 0 3437.51464070 0 -677.17839044 0 17259.90679093 0 1308
0.03750000 0.03744890 47545.70446195 0 2399.36186113 0 6268.27019558 0 890.64846441 0 12913.03474675 0 1579
0.03850000 0.03847530 45905.01908125 0 2135.47634457 0 2959.95559439 0 -651.38896547 0 9537.45609158 0 1662
0.03950000 0.03950240 43431.96351393 0 2398.12538955 0 7881.25861288 0 -651.02701652 0 4887.49114109 0 1683
0.04050000 0.04050350 42593.41096939 0 1403.33904051 0 3865.96328396 0 -4897.49532024 0 2867.28766976 0 1822
0.04150000 0.04152450 39909.25598134 0 877.39686126 0 9528.99188158 0 -3563.06146871 0 4565.79495782 0 1887
0.04250000 0.04250150 41369.52891780 0 128.18051248 0 8104.97004372 0 -5531.63663123 0 2857.62071013 0 1920
0.04350000 0.04349210 42626.90810857 0 -413.89424870 0 14140.51380657 0 56.60982799 0 3315.89079979 0 2005
0.04450000 0.04448520 42932.31658893 0 618.95181966 0 14192.33320644 0 940.95936895 0 1714.82871292 0 2151
0.04550000 0.04548030 41954.94200787 0 1669.54013112 0 15359.22515883 0 821.10705460 0 2772.28168978 0 2274
0.04650000 0.04648670 39506.27865263 0 1858.86641138 0 17247.76688814 0 -337.14533363 0 1495.09647243 0 2311
0.04750000 0.04749250 39650.15898199 0 1999.45323008 0 18473.11022433 0 -296.63627653 0 4183.19692889 0 2568
0.04850000 0.04851840 37781.17598495 0 511.45185639 0 17671.20220118 0 1351.08125526 0 1497.08606761 0 2493
0.04950000 0.04949480 37900.88891523 0 8.46861634 0 17760.90259401 0 -491.09728605 0 1619.09209064 0 2644
0.05050000 0.05050630 37774.76881403 0 -793.72595348 0 16066.82412234 0 409.47779702 0 -1492.76965773 0 2829
0.05150000 0.05149060 38255.86866532 0 311.42560070 0 15004.35781525 0 110.13083757 0 -2245.69092499 0 2784
0.05250000 0.05249300 37471.38365080 0 957.50111057 0 12103.82030062 0 -387.45399005 0 -5148.13935024 0 3055
0.05350000 0.05348950 36071.47300877 0 1494.23094232 0 13176.06597385 0 -938.54375311 0 -6146.59015142 0 3009
0.05450000 0.05448610 35034.52297883 0 992.85183305 0 12480.15728710 0 552.12727513 0 -5000.83062241 0 3336
0.05550000 0.05550870 34506.09998797 0 862.03089171 0 15070.11562203 0 594.48092301 0 -2284.32504155 0 3349
0.05650000 0.05647670 34963.48206621 0 369.32956481 0 14490.32285732 0 1291.94419177 0 -1974.75752042 0 3324
0.05750000 0.05747970 34051.64047891 0 23.51634058 0 15404.74979429 0 1152.24538448 0 79.67384479 0 3639
0.05850000 0.05849280 34603.66883631 0 309.89799626 0 14913.98298337 0 1062.62480027 0 -913.10278831 0 3846
0.05950000 0.05951020 34423.25639208 0 399.99181187 0 14834.84880223 0 657.25208889 0 1452.68549722 0 3787
0.06050000 0.06049470 33730.04546150 0 605.31353812 0 12081.78862519 0 327.37383595 0 -1963.70796075 0 3930
0.06150000 0.06148310 32431.75030207 0 735.01378658 0 11702.64147603 0 1394.11046626 0 -2558.00116490 0 4083
0.06250000 0.06249100 32031.13351002 0 482.61958727 0 10567.24582700 0 2356.44505664 0 -5538.90933225 0 4303
0.06350000 0.06350600 31557.00286218 0 98.58466595 0 8554.32629735 0 1221.26297997 0 -4733.53918868 0 4470
0.06450000 0.06451750 31404.01760574 0 219.78956781 0 8407.68076791 0 2109.99378937 0 -7426.43940300 0 4479
0.06550000 0.06550280 31434.92939525 0 -85.29124758 0 8754.48856491 0 460.23270727 0 -4799.20707025 0 4636
0.06650000 0.06648880 31300.26639949 0 535.53157839 0 9176.14785513 0 214.46149936 0 -3725.52259372 0 4653
0.06750000 0.06749660 31412.89771981 0 563.40164781 0 9705.81855823 0 -38.53666012 0 -963.46652391 0 5220
0.06850000 0.06852730 31203.48439669 0 612.34231703 0 11136.62974913 0 -357.94615781 0 326.12612372 0 5029
0.06950000 0.06949320 30507.46330343 0 981.26272215 0 10993.42385881 0 -1076.68797840 0 -594.51239684 0 5040
0.07050000 0.07048030 29863.48642305 0 1075.29863397 0 11914.19052279 0 270.67262147 0 658.37053364 0 5475
0.07150000 0.07148790 28517.86812405 0 948.69068852 0 11884.74001788 0 -1110.02212814 0 -861.46998324 0 5509
0.07250000 0.07249820 28020.35692269 0 951.61213365 0 11715.23100485 0 -92.47975613 0 -126.71248350 0 5916
0.07350000 0.07351270 27892.10109785 0 601.55354045 0 12786.57742602 0 985.03958079 0 -237.12040311 0 5721
0.07450000 0.07449140 26655.17989141 0 307.35086481 0 11891.93403434 0 1922.71330754 0 -280.74536859 0 6028
0.07550000 0.07549160 27010.49686102 0 68.89451036 0 10865.17927462 0 1165.89153447 0 1474.89702306 0 6183
0.07650000 0.07648840 26880.10531254 0 253.21926308 0 12267.25936225 0 1462.45362270 0 131.16940151 0 6330
0.07750000 0.07749960 26314.70058077 0 924.46146587 0 12096.51387765 0 493.18242676 0 2241.28458990 0 6583
0.07850000 0.07848650 25682.30157065 0 756.92181486 0 12300.86890794 0 668.67708629 0 3353.53573908 0 6549
0.07950000 0.07947320 24675.13926515 0 484.73732586 0 10920.15729735 0 259.05878114 0 3219.80571734 0 6828
0.08050000 0.08048110 24738.31172226 0 -172.22138204 0 11706.12607776 0 1567.78976070 0 1987.98776633 0 7147
0.08150000 0.08149960 25060.69358522 0 -190.64143640 0 10612.50068684 0 1801.13442923 0 2358.07495100 0 7386
0.08250000 0.08250610 24796.08866702 0 -67.05003198 0 9192.34563284 0 2139.89392031 0 1227.87248260 0 7227
0.08350000 0.08350160 24474.60605611 0 313.40845149 0 7483.28337375 0 717.92125308 0 1461.28459503 0 7798
0.08450000 0.08449610 23711.14105846 0 676.35332668 0 6969.05732475 0 1289.25767624 0 2077.81180632 0 7371
0.08550000 0.08548940 23592.77700626 0 523.60974422 0 6090.24076930 0 1417.00767180 0 3051.65682305 0 8256
0.08650000 0.08650700 22687.56740290 0 464.95153245 0 5622.13511026 0 1334.25400112 0 4207.02710844 0 8037
0.08750000 0.08749060 22597.30497753 0 196.89685853 0 5206.21979257 0 385.84208073 0 2939.84607023 0 8155
0.08850000 0.08849210 22186.57159982 0 286.66244714 0 5619.95442402 0 -0.90893026 0 3247.03057341 0 8718
0.08950000 0.08949900 21922.30390113 0 714.05446923 0 6537.27020823 0 -1618.76611177 0 2377.61120197 0 8571
0.09050000 0.09049190 21455.70448929 0 659.11803691 0 6353.14834925 0 -1188.17050422 0 2234.49523686 0 8932
0.09150000 0.09150830 20981.79865447 0 707.57648221 0 7466.77085782 0 -1295.28266503 0 134.86645154 0 9285
0.09250000 0.09250820 20312.19309042 0 610.81583666 0 6983.90622437 0 -358.29349392 0 -983.53895392 0 9204
0.09350000 0.09350330 19675.74744603 0 310.30940408 0 7227.43492246 0 274.43936353 0 -1094.35041289 0 9349
0.09450000 0.09448040 19480.27252982 0 282.92717890 0 6234.96414747 0 952.26521546 0 -2635.50545169 0 9564
0.09550000 0.09549270 19310.42629728 0 238.57494331 0 6460.69889545 0 811.87960441 0 -1481.58521025 0 10155
0.09650000 0.09649430 19220.27627841 0 -76.35661635 0 6787.00374552 0 876.05247944 0 -1121.25715855 0 9913
0.09750000 0.09749140 19522.76218959 0 140.24622698 0 7411.90524160 0 -108.75767968 0 1212.83249192 0 10476
0.09850000 0.09850240 19514.44410804 0 403.51350775 0 7475.80834101 0 -415.18017914 0 1305.69150761 0 10575
0.09950000 0.09950330 19337.96589157 0 604.19059712 0 8932.57419444 0 -938.17955603 0 2683.63791812 0 10882
0.10050000 0.10051200 18929.81786353 0 742.70351575 0 9022.60056615 0 -574.87722814 0 2506.91240733 0 10875
0.10150000 0.10150300 18662.85240866 0 521.96186482 0 10430.70564257 0 -274.70351882 0 2484.04892374 0 11118
0.10250000 0.10250800 18009.09616215 0 228.04694984 0 8920.14203474 0 284.62226903 0 1419.36820845 0 11575
0.10350000 0.10349800 18084.74574157 0 197.67808376 0 9562.66887117 0 697.78362730 0 466.17114305 0 11364
0.10450000 0.10450100 17313.97432095 0 181.97826688 0 7468.79417495 0 781.02514222 0 -212.17852320 0 12093
0.10550000 0.10551000 17456.95539824 0 392.39762824 0 7791.92916152 0 1002.20855072 0 -175.00119497 0 12067
0.10650000 0.10649700 16769.70201255 0 227.20390103 0 6337.89478621 0 1404.93521291 0 -345.90966901 0 12054
0.10750000 0.10749900 16786.00095611 0 386.88184092 0 6498.08529978 0 1025.09563967 0 882.82384744 0 12807
0.10850000 0.10850100 16112.91079034 0 58.84986487 0 4961.83680502 0 1552.95210174 0 168.93461577 0 12736
0.10950000 0.10950300 15985.66662406 0 146.73657871 0 5898.32913937 0 998.80937794 0 1713.89573891 0 12933
0.11050000 0.11050200 16039.95896710 0 87.40471473 0 4239.59127361 0 521.46615213 0 767.30592800 0 13428
0.11150000 0.11150900 15682.84349337 0 62.81747736 0 5727.08906614 0 462.09191090 0 3030.07477365 0 13453
0.11250000 0.11250000 15587.85999469 0 355.29336424 0 4331.41614943 0 -303.42450551 0 1187.18132695 0 13668
0.11350000 0.11349100 15470.50760106 0 168.11629640 0 5640.35620510 0 75.31966632 0 2898.36806903 0 13791
0.11450000 0.11448600 15261.65631048 0 312.41477796 0 4495.95679483 0 -162.83431462 0 1729.18302390 0 14205
0.11550000 0.11549300 15216.46889454 0 146.82313172 0 5248.23734500 0 294.43310899 0 1991.40492415 0 14776
0.11650000 0.11649800 15121.37298936 0 30.46868306 0 4447.85805035 0 231.88450799 0 1527.84048801 0 14553
0.11750000 0.11747300 15036.61848285 0 -15.08360440 0 4782.93060799 0 175.71947255 0 1610.70656520 0 14568
0.11850000 0.11849100 15120.92336333 0 108.86457826 0 4599.94405474 0 -56.03970219 0 1599.70196813 0 16015
0.11950000 0.11950300 14975.46934287 0 215.74068541 0 4664.54407449 0 113.01350245 0 1751.02360827 0 15270
0.12050000 0.12050700 14674.66952931 0 543.25390544 0 5349.39196093 0 -291.11486889 0 2441.70539244 0 15999
0.12150000 0.12150000 14736.49310833 0 485.01496994 0 5512.84226321 0 245.90721978 0 2739.02060427 0 15670
0.12250000 0.12250700 14006.86246938 0 447.11486787 0 5848.10591191 0 240.25542059 0 3071.62021875 0 16887
0.12350000 0.12352200 14092.74104097 0 181.03405222 0 6031.40720338 0 307.70382124 0 3030.78293464 0 16407
0.12450000 0.12449800 13652.78197135 0 -86.46331024 0 5828.73827070 0 818.99044006 0 2900.60495853 0 16306
0.12550000 0.12549900 13943.57760577 0 -14.69063125 0 5383.29376353 0 448.57952466 0 2600.11988319 0 17523
0.12650000 0.12650100 13876.24610789 0 59.05725488 0 4999.97633295 0 219.00384632 0 2252.79501625 0 17154
0.12750000 0.12750600 13740.45904706 0 131.13567956 0 4151.64442229 0 350.99044314 0 1816.60156464 0 18007
0.12850000 0.12850300 13404.58840321 0 172.82050873 0 3744.84527233 0 23.23453747 0 1217.95822866 0 17496
0.12950000 0.12949900 13266.44080573 0 140.46766779 0 3254.15714597 0 305.06114425 0 570.99021112 0 18405
0.13050000 0.13049000 12900.33281142 0 239.55850025 0 3149.10202424 0 6.17398362 0 -247.05938648 0 18100
0.13150000 0.13148800 12839.85811049 0 298.17624568 0 3125.09199428 0 -194.37333244 0 -137.65300885 0 19059
0.13250000 0.13249300 12441.26463557 0 252.97534096 0 3386.94295306 0 -135.35766797 0 48.82961159 0 18957
0.13350000 0.13349100 12340.09877899 0 242.78344294 0 3419.88930035 0 -179.90886308 0 -10.46983435 0 19468
0.13450000 0.13450700 12112.81282121 0 140.49239723 0 3706.44720943 0 -173.20718711 0 58.54737896 0 19953
0.13550000 0.13551000 12245.22768682 0 182.44250575 0 3898.30263611 0 -120.02766851 0 229.03275490 0 19956
0.13650000 0.13649900 12016.59285095 0 99.42164480 0 3970.06295038 0 205.75561537 0 -80.13842088 0 19723
0.13750000 0.13749600 12095.83943860 0 104.20386725 0 3569.25506726 0 33.79557846 0 267.57357407 0 20946
0.13850000 0.13851100 11978.26223196 0 11.80717953 0 3814.85204508 0 374.19564251 0 9.23746560 0 20955
0.13950000 0.13949800 11929.59021429 0 33.12215107 0 3647.75977197 0 421.09613362 0 -85.58901242 0 20506
0.14050000 0.14048300 11822.24199981 0 167.98590485 0 3104.60028800 0 190.64705672 0 -75.64294744 0 21447
0.14150000 0.14148400 11594.05678997 0 260.99104900 0 2950.52468843 0 244.28744201 0 -272.53744543 0 21771
0.14250000 0.14249400 11416.56691493 0 250.10897502 0 2807.66725829 0 98.46686393 0 -205.15424056 0 22470
0.14350000 0.14350900 11111.09099067 0 164.80929695 0 2879.14655628 0 96.71096188 0 -46.90116555 0 22519
0.14450000 0.14449900 11079.27994910 0 91.18427114 0 2633.56081911 0 172.82725312 0 -261.57443877 0 22218
0.14550000 0.14550500 11002.94468998 0 124.77796750 0 3061.02028511 0 84.59320317 0 96.30832177 0 23559
0.14650000 0.14650700 11056.23661510 0 6.94526087 0 2522.42450534 0 73.10964198 0 45.17954748 0 23044
0.14750000 0.14750500 10781.70620230 0 71.59889852 0 2733.91734884 0 394.25121154 0 341.79109458 0 23649
0.14850000 0.14849900 11141.19345332 0 -24.30734517 0 2684.21119131 0 244.42907421 0 392.98776240 0 23640
0.14950000 0.14949500 10848.00356031 0 39.16984598 0 2381.59039233 0 363.40574187 0 299.57008637 0 24457
0.15050000 0.15050000 10840.24751130 0 212.79675899 0 2370.68696112 0 39.19210246 0 46.93859692 0 24591
0.15150000 0.15149900 10636.46575420 0 326.90959708 0 2292.51947593 0 -325.18640532 0 167.85438924 0 25020
0.15250000 0.15250500 10376.43578084 0 328.46193095 0 2765.86327822 0 -595.94557980 0 -91.24182327 0 25297
0.15350000 0.15350100 10232.52172953 0 301.88790855 0 2851.30346442 0 -729.46877358 0 -129.50466114 0 25452
0.15450000 0.15450400 10004.98847743 0 129.03030568 0 3455.28610950 0 -399.43877186 0 -373.47174460 0 26061
0.15550000 0.15549900 9998.52510326 0 71.39386905 0 3587.16142388 0 -190.05130223 0 -473.67540148 0 26128
0.15650000 0.15649500 10091.85622628 0 -1.81093628 0 3638.53119772 0 119.54656865 0 -563.86813481 0 26331
0.15750000 0.15749700 10035.68669458 0 140.79477073 0 3761.66128582 0 216.20492429 0 -878.76597252 0 27345
0.15850000 0.15849900 9889.26597816 0 182.03559420 0 3641.73478318 0 -9.71968952 0 -339.88243209 0 26980
0.15950000 0.15949700 9750.50014489 0 167.44298142 0 3768.60800798 0 320.05392420 0 -310.27680619 0 27777
0.16050000 0.16050000 9660.42881058 0 176.14774135 0 3653.47002254 0 185.51794779 0 224.55335559 0 28224
0.16150000 0.16150500 9465.99927488 0 84.27599201 0 3453.03797935 0 516.16730937 0 49.03587753 0 28075
0.16250000 0.16249700 9405.72690566 0 8.19982990 0 3185.67910172 0 646.25311215 0 259.79167156 0 28590
0.16350000 0.16349900 9443.23695715 0 -2.59256617 0 2776.65430292 0 582.34776462 0 569.03771009 0 29163
0.16450000 0.16449100 9461.71658696 0 -2.41454798 0 2413.24406479 0 718.08311845 0 451.88764817 0 28996
0.16550000 0.16550500 9396.27351840 0 57.42567442 0 2350.33014264 0 376.03573703 0 732.47002732 0 30777
0.16650000 0.16650700 9269.41153425 0 129.81040684 0 1823.50332418 0 -65.89887694 0 268.71225198 0 29211
0.16750000 0.16749900 9270.99646600 0 83.67259388 0 2114.47880901 0 -36.71544989 0 686.26645656 0 30922
0.16850000 0.16850800 9078.81506045 0 110.75829069 0 2060.99579283 0 -195.20289246 0 368.69221991 0 30867
0.16950000 0.16949900 9149.54123485 0 33.97115742 0 2175.90896525 0 -63.07308976 0 572.54254498 0 30852
0.17050000 0.17049200 9056.12018663 0 64.51088139 0 2205.25830431 0 -133.42202792 0 43.10227523 0 31257
0.17150000 0.17149500 9013.87782118 0 168.31975218 0 2228.77374564 0 77.53542339 0 311.44920606 0 32608
0.17250000 0.17250900 8831.01491509 0 291.76457850 0 2336.58282680 0 9.18162205 0 88.76168609 0 32361
0.17350000 0.17350400 8576.80759881 0 292.53905934 0 2318.11443765 0 221.52287615 0 356.40394053 0 32508
0.17450000 0.17449800 8311.15730008 0 216.76133650 0 2360.94131693 0 53.55844094 0 244.82024886 0 32791
0.17550000 0.17549800 8205.45022061 0 171.42779210 0 2366.14573822 0 93.66856735 0 545.69537478 0 33633
0.17650000 0.17650100 8090.59325144 0 143.44306804 0 2181.29323695 0 105.74619694 0 635.35417720 0 33984
0.17750000 0.17750300 7981.80623367 0 54.63979154 0 2404.89226129 0 -16.32670797 0 632.88460624 0 34069
0.17850000 0.17849800 8067.51619549 0 48.96674753 0 2380.26399554 0 121.37205033 0 894.75467412 0 34536
