### header ###
fiducial parameters:
Omega_m = 0.31
Omega_nu = 0
Omega_de = 0.69
Omega_k = 0
H_0 = 100
w_de = -1
zeff = 0
beta = 0
fgrowth = 0
b_1 = 2
gamma = 0.55
Lx = 3500 Ly = 3500 Lz = 3500
nx = 700 ny = 700 nz = 700
xoffset = 857.220397 yoffset = 15.9954215 zoffset = 262.898189
bins = 400 dk = 0.001
kx_ny = 0.628318531 ky_ny = 0.628318531 kz_ny = 0.628318531
############################
A(data) = 3.05695023 (not used)
A(ran) = 3.04956234 (used)
Ngal = 186451
weighted Ngal = 0
Nran = 9360983
weighted Nran = 0
SN(data) = 3465.72211
SN(ran) = 68.4817093
SN(data+ran) = 3534.20382
############################
13 columns: k_central k_mean P_0(k) sigma^{lin}_{P_0(k)} P^img_1(k) sigma^{lin}_{P_1(k)} P_2(k) sigma^{lin}_{P_2(k)} P^img_3(k) sigma^{lin}_{P_3(k)} P_4(k) sigma^{lin}_{P_4(k)} N_modes
### header ###
0.00050000 0 0 0 0 0 0 0 0 0 0 0 0
0.00150000 0.00179520 22388.79090647 0 -11379.80998704 0 40498.15367314 0 -81906.12561644 0 -80610.97783922 0 3
0.00250000 0.00253879 34512.84437841 0 -8903.05624562 0 -25336.76396718 0 48578.83267063 0 14270.34332252 0 6
0.00350000 0.00331552 50208.05258758 0 -10811.20166981 0 25234.24923251 0 -31633.55169366 0 8258.15763189 0 7
0.00450000 0.00420575 59231.70977490 0 -7900.31151587 0 -8818.30173911 0 24904.56094657 0 -9359.57279376 0 24
0.00550000 0.00557378 78964.67213315 0 -12477.68434394 0 19595.48919981 0 22398.12064657 0 -9147.29310471 0 45
0.00650000 0.00659388 75422.74308782 0 -12894.71248606 0 -46956.35714412 0 -1054.52591142 0 -33366.74762987 0 40
0.00750000 0.00754703 99358.24753487 0 -15172.29313717 0 28551.59007624 0 -11383.51940178 0 14279.56065611 0 57
0.00850000 0.00846663 97857.28344276 0 -8609.28183877 0 -25495.70676851 0 11537.51631680 0 -21837.21217510 0 75
0.00950000 0.00948925 114079.11613868 0 -6852.09835390 0 -756.95104055 0 -2980.36861612 0 3256.16922245 0 112
0.01050000 0.01054430 110885.08523347 0 2545.76009625 0 473.00770683 0 -30504.54073424 0 -16722.71609250 0 105
0.01150000 0.01145670 110851.58809429 0 11955.21889796 0 25407.80487980 0 -35540.35226173 0 -2186.27284523 0 144
0.01250000 0.01249090 98282.96688594 0 17926.36497277 0 34970.90089569 0 -20955.94515779 0 2915.18408253 0 169
0.01350000 0.01339930 92914.09487730 0 17335.33155733 0 66591.41343451 0 3561.53274021 0 23415.06231821 0 180
0.01450000 0.01448870 81339.70922611 0 4023.06261857 0 69252.52508856 0 19019.06863033 0 36429.26292153 0 267
0.01550000 0.01550050 79958.79528380 0 -1271.46372613 0 55697.53677857 0 45479.67285759 0 30778.13817303 0 238
0.01650000 0.01653350 85861.37338915 0 -6024.94382921 0 51035.70170090 0 28282.26408472 0 21556.42071984 0 315
0.01750000 0.01747870 91436.84855823 0 -2743.23584830 0 43195.79744207 0 26640.22982594 0 19454.64384616 0 297
0.01850000 0.01844180 87247.45803079 0 1140.01555649 0 28322.39320783 0 1557.31347422 0 20072.54241684 0 388
0.01950000 0.01947590 80908.85508359 0 2368.69736594 0 22274.36108202 0 -2202.43690098 0 5405.87623085 0 399
0.02050000 0.02045430 80179.11203813 0 -2.77979044 0 11849.66918760 0 8121.60620681 0 17465.83551232 0 462
0.02150000 0.02154770 82765.02373880 0 358.05069586 0 17493.59991963 0 5449.16397681 0 6296.54043217 0 571
0.02250000 0.02255340 79463.08258657 0 3370.18314282 0 7617.64287193 0 -4054.45775607 0 10107.00862347 0 510
0.02350000 0.02348930 78381.84439275 0 4591.12014392 0 27638.17479784 0 598.33196996 0 8380.11869232 0 555
0.02450000 0.02439640 72327.29268952 0 6916.31619153 0 28379.04608752 0 -13394.47181756 0 -2063.96332462 0 592
0.02550000 0.02547300 70777.20695371 0 3192.35604825 0 40458.92380209 0 -8913.88099228 0 18899.35570004 0 837
0.02650000 0.02652900 67893.19319566 0 2333.27807549 0 42889.26489663 0 -8660.92138823 0 -760.84929822 0 723
0.02750000 0.02749970 67140.29440970 0 1969.92404061 0 48184.62304950 0 -1409.30782605 0 12215.43996238 0 826
0.02850000 0.02848090 65674.40114787 0 1160.32741236 0 38250.13593345 0 927.86401085 0 -17631.85992362 0 831
0.02950000 0.02946900 65109.44604213 0 1488.91411453 0 35815.29857861 0 8400.00340346 0 -5270.78609036 0 996
0.03050000 0.03053250 61514.12390583 0 2020.20347133 0 26542.88579061 0 6876.50180664 0 -21846.65432171 0 1041
0.03150000 0.03150510 59068.60793279 0 955.83637019 0 17720.88587741 0 8433.51178329 0 -25194.34492241 0 1036
0.03250000 0.03246190 56565.53982802 0 1059.14132261 0 16732.38305212 0 8974.04095499 0 -18109.81239270 0 1059
0.03350000 0.03345080 55452.82781215 0 2575.57030199 0 12566.59789122 0 822.00518259 0 -24002.38631890 0 1302
0.03450000 0.03451200 54239.84919177 0 1794.67105506 0 15112.83009480 0 3525.27040095 0 -8185.29573385 0 1339
0.03550000 0.03553350 51834.68715486 0 2164.63459257 0 15884.72558050 0 1597.77981686 0 -12670.91113000 0 1365
0.03650000 0.03647120 51698.56287451 0 2430.89188643 0 15858.87208382 0 2216.71252741 0 5558.06340110 0 1308
0.03750000 0.03744890 49713.91358145 0 3074.93621072 0 19680.01889331 0 2593.39797405 0 784.90204266 0 1579
0.03850000 0.03847530 48556.91340171 0 2142.29941957 0 22594.60722135 0 -742.68777884 0 8868.14278445 0 1662
0.03950000 0.03950240 47987.79925520 0 1436.69005123 0 22183.98625015 0 952.18540684 0 14024.84751055 0 1683
0.04050000 0.04050350 47352.14045636 0 1001.68361233 0 27731.69701192 0 -596.81897837 0 14785.05271949 0 1822
0.04150000 0.04152450 48247.79550660 0 1080.68290567 0 28998.85556883 0 4142.79803016 0 18217.49782670 0 1887
0.04250000 0.04250150 47036.84020335 0 802.98375342 0 30920.78203081 0 2543.44452220 0 14580.13565666 0 1920
0.04350000 0.04349210 46907.46031344 0 1276.63442547 0 28687.26473056 0 3162.50087991 0 14282.59563181 0 2005
0.04450000 0.04448520 46118.47903863 0 123.53250340 0 30412.25499174 0 4070.75669963 0 9067.77674144 0 2151
0.04550000 0.04548030 44907.63614189 0 1459.59849742 0 28979.52164957 0 3423.07040451 0 9431.32186738 0 2274
0.04650000 0.04648670 42582.39513168 0 1560.96668571 0 24084.66788225 0 4387.18101770 0 6491.40835324 0 2311
0.04750000 0.04749250 41166.97239163 0 1343.65118513 0 22220.96799105 0 4213.32187285 0 5654.60935023 0 2568
0.04850000 0.04851840 39494.58837587 0 1438.78081227 0 18108.23870160 0 2421.86564390 0 3269.87157569 0 2493
0.04950000 0.04949480 39489.41767654 0 753.11685459 0 16310.29661718 0 3699.92763201 0 -1474.24506532 0 2644
0.05050000 0.05050630 37381.79566448 0 937.04087811 0 13490.46697480 0 -1365.57045405 0 -3610.20475788 0 2829
0.05150000 0.05149060 37885.60163024 0 935.05353106 0 14016.97905504 0 -765.04768127 0 -1485.20469978 0 2784
0.05250000 0.05249300 36662.73123722 0 1681.33157374 0 13514.85918689 0 -1867.47674984 0 -6168.36329189 0 3055
0.05350000 0.05348950 36255.25764822 0 1238.13519672 0 13564.09323709 0 -429.99648087 0 -5777.37973751 0 3009
0.05450000 0.05448610 34519.36395583 0 802.57346967 0 14277.53733898 0 381.16259783 0 -1865.90305874 0 3336
0.05550000 0.05550870 34630.53399156 0 598.81644200 0 12568.28398883 0 1197.68009474 0 -6054.92264471 0 3349
0.05650000 0.05647670 33502.98431673 0 812.46299419 0 13825.66317960 0 2237.72130362 0 -1916.77824395 0 3324
0.05750000 0.05747970 32552.58729743 0 686.94763999 0 10734.87765135 0 2421.87688455 0 -2779.75672252 0 3639
0.05850000 0.05849280 32163.99800166 0 672.29095550 0 9589.06191909 0 1788.32008740 0 -2462.59052149 0 3846
0.05950000 0.05951020 31101.75650758 0 -126.43708755 0 7895.72533037 0 1650.65583789 0 -4404.89628325 0 3787
0.06050000 0.06049470 31500.68720202 0 -93.01368704 0 7535.54115899 0 769.92050336 0 -4214.67075093 0 3930
0.06150000 0.06148310 31484.38825846 0 -537.76509569 0 6507.15650492 0 -667.32933227 0 -7663.33611715 0 4083
0.06250000 0.06249100 31767.65265688 0 -49.35297629 0 6647.09136587 0 -1520.25304876 0 -5836.31446929 0 4303
0.06350000 0.06350600 32382.74106488 0 -247.61579869 0 9151.00251945 0 -186.59929839 0 -4648.09900247 0 4470
0.06450000 0.06451750 32419.61039928 0 158.52127693 0 8682.55964089 0 405.88865725 0 -3525.04558794 0 4479
0.06550000 0.06550280 32532.01690659 0 148.32600672 0 9936.55539578 0 -417.59579498 0 -1584.74066201 0 4636
0.06650000 0.06648880 33285.02809906 0 567.52471850 0 11704.32757364 0 897.88519535 0 1052.35983802 0 4653
0.06750000 0.06749660 32129.15198439 0 535.46188635 0 11980.73517512 0 1908.11170224 0 2986.97811875 0 5220
0.06850000 0.06852730 32424.21906608 0 1022.31695081 0 11178.14147228 0 822.02429170 0 3016.61971472 0 5029
0.06950000 0.06949320 30152.25874033 0 1761.52237605 0 12166.88035122 0 -514.08554086 0 982.85215016 0 5040
0.07050000 0.07048030 29726.12567112 0 2458.54388723 0 14092.96585398 0 -1889.31733421 0 1944.21667238 0 5475
0.07150000 0.07148790 27266.44647817 0 1335.29938164 0 14033.95243764 0 -1916.58715289 0 1772.53821377 0 5509
0.07250000 0.07249820 26399.23027427 0 794.03394731 0 13156.17002206 0 895.38415056 0 3418.95632634 0 5916
0.07350000 0.07351270 26875.72145876 0 -504.42082936 0 13127.73117571 0 2472.84199496 0 130.79508784 0 5721
0.07450000 0.07449140 26630.11324028 0 -341.67868807 0 11315.40105835 0 3345.86961529 0 1617.61956540 0 6028
0.07550000 0.07549160 26522.42780628 0 220.61238344 0 9629.60694627 0 2770.93281170 0 397.10633683 0 6183
0.07650000 0.07648840 26360.78724877 0 737.56316617 0 8590.85841222 0 2261.50652057 0 320.02357444 0 6330
0.07750000 0.07749960 25146.68456331 0 836.21448918 0 8839.42292184 0 141.20393042 0 1232.03152337 0 6583
0.07850000 0.07848650 24778.89047140 0 625.80749254 0 7850.83017135 0 -257.24678824 0 -2001.93741389 0 6549
0.07950000 0.07947320 24623.99430432 0 489.76077267 0 10849.15010668 0 -1465.55604231 0 1388.60254740 0 6828
0.08050000 0.08048110 24313.07790510 0 377.96800489 0 10262.68039544 0 -2691.37148582 0 -1093.82997076 0 7147
0.08150000 0.08149960 24625.45558892 0 234.81044938 0 13313.20191277 0 -1385.85982862 0 -1026.41079581 0 7386
0.08250000 0.08250610 24349.83483299 0 64.15118057 0 12621.78948631 0 -466.25657200 0 -275.99956585 0 7227
0.08350000 0.08350160 24338.25696274 0 83.27838426 0 12749.93290464 0 1525.19893509 0 -2351.48792967 0 7798
0.08450000 0.08449610 23828.49345209 0 207.54400290 0 12583.68368033 0 2381.83768664 0 -693.72687645 0 7371
0.08550000 0.08548940 23218.91296295 0 578.12127994 0 10269.85193061 0 2594.48831717 0 -3813.99775563 0 8256
0.08650000 0.08650700 22861.68508272 0 518.09058471 0 8742.49479058 0 2087.18650903 0 -1461.23963243 0 8037
0.08750000 0.08749060 21942.31225943 0 575.21332360 0 6734.10524318 0 1909.21328601 0 -2264.93491904 0 8155
0.08850000 0.08849210 21346.78258370 0 313.35899262 0 6556.50296163 0 1682.39943556 0 684.85687896 0 8718
0.08950000 0.08949900 20998.77203707 0 407.81755291 0 5528.61289618 0 1748.20220494 0 527.72494645 0 8571
0.09050000 0.09049190 20954.59627970 0 480.80871843 0 5938.00863645 0 628.70420823 0 1233.49280797 0 8932
0.09150000 0.09150830 20326.58112336 0 602.96424212 0 6133.79829089 0 -131.38747013 0 1536.94541510 0 9285
0.09250000 0.09250820 19941.47642931 0 765.58498438 0 6545.10494178 0 -258.78001300 0 2904.78648060 0 9204
0.09350000 0.09350330 19304.69356540 0 366.60932733 0 6880.62712545 0 -245.48681944 0 2865.73645996 0 9349
0.09450000 0.09448040 19247.81587271 0 -54.41666463 0 6643.67420804 0 450.46345772 0 2406.10625157 0 9564
0.09550000 0.09549270 19348.75691627 0 -82.84157257 0 6574.25194913 0 117.15455818 0 703.10607542 0 10155
0.09650000 0.09649430 19088.19863233 0 72.65832985 0 6203.72637908 0 -26.11090758 0 -13.39885567 0 9913
0.09750000 0.09749140 19105.50923445 0 355.98578833 0 6027.57414148 0 -986.74928377 0 -94.30343931 0 10476
0.09850000 0.09850240 19128.21534893 0 202.71052309 0 6625.43063191 0 -622.78712969 0 -294.53202671 0 10575
0.09950000 0.09950330 18861.13748756 0 119.04748376 0 7213.55271880 0 -477.48260988 0 -143.84098708 0 10882
0.10050000 0.10051200 19113.82731599 0 -3.76877662 0 6813.62160645 0 349.42237236 0 -334.05415468 0 10875
0.10150000 0.10150300 18965.78794586 0 355.40689481 0 7813.72478328 0 904.10015114 0 325.43257557 0 11118
0.10250000 0.10250800 18788.18566432 0 396.80958365 0 6853.15497507 0 1152.82989832 0 1232.44742745 0 11575
0.10350000 0.10349800 17795.07417223 0 738.69959596 0 6943.47360369 0 1530.78553850 0 1352.07043253 0 11364
0.10450000 0.10450100 17436.49741391 0 527.34164026 0 6028.84433501 0 1497.11978956 0 1917.93603098 0 12093
0.10550000 0.10551000 16562.08719355 0 441.25399258 0 5601.55347877 0 1330.16240425 0 1655.10713558 0 12067
0.10650000 0.10649700 16245.66287547 0 391.00041535 0 4845.03520328 0 446.07285954 0 1720.35911308 0 12054
0.10750000 0.10749900 16072.33204120 0 288.80154297 0 4779.16498999 0 -256.11035845 0 1475.72883122 0 12807
0.10850000 0.10850100 15922.38176045 0 149.54786546 0 4902.91331389 0 -154.17901356 0 1511.10315907 0 12736
0.10950000 0.10950300 15590.44534436 0 195.83236891 0 4327.22338670 0 -455.16429785 0 1207.44822022 0 12933
0.11050000 0.11050200 15727.01925074 0 -9.45811958 0 4887.72719475 0 140.60592780 0 1575.87178858 0 13428
0.11150000 0.11150900 15755.23328408 0 -75.65890916 0 4436.78600938 0 506.59814340 0 1442.40030180 0 13453
0.11250000 0.11250000 15965.20863973 0 -96.37722696 0 4190.27853885 0 475.03439615 0 889.93355902 0 13668
0.11350000 0.11349100 15917.09865461 0 12.43688078 0 3984.74324023 0 456.51992033 0 1679.82532654 0 13791
0.11450000 0.11448600 15857.07357970 0 95.47123051 0 3771.63174302 0 261.87793634 0 1078.84618334 0 14205
0.11550000 0.11549300 15738.14749497 0 140.98024147 0 4200.96839769 0 -358.11139538 0 1234.47074458 0 14776
0.11650000 0.11649800 15677.11076150 0 177.12792609 0 3668.84723274 0 -144.41988059 0 1039.30045000 0 14553
0.11750000 0.11747300 15273.34658724 0 215.62715484 0 4115.58441474 0 -49.39198134 0 831.87110174 0 14568
0.11850000 0.11849100 15379.00870411 0 330.38408222 0 3882.46455923 0 0.94180242 0 624.02360127 0 16015
0.11950000 0.11950300 14934.21615469 0 383.90194442 0 4363.10354384 0 171.88978285 0 259.26111285 0 15270
0.12050000 0.12050700 14705.46891231 0 316.85371094 0 4050.52352831 0 370.76387184 0 562.08199541 0 15999
0.12150000 0.12150000 14510.66843514 0 134.51124697 0 3770.41775274 0 569.21306424 0 417.08996570 0 15670
0.12250000 0.12250700 14361.28018693 0 245.83190742 0 3618.83757764 0 150.98779281 0 346.44247585 0 16887
0.12350000 0.12352200 14172.32484814 0 372.20492326 0 3687.65284141 0 177.64387196 0 472.34900469 0 16407
0.12450000 0.12449800 13517.44453655 0 533.13844385 0 3292.60017147 0 212.28755751 0 661.35829860 0 16306
0.12550000 0.12549900 13500.69596696 0 406.46417856 0 3170.94260861 0 313.48151572 0 682.02423497 0 17523
0.12650000 0.12650100 13004.42123719 0 199.99815407 0 3052.48863121 0 357.04802982 0 714.03648419 0 17154
0.12750000 0.12750600 12849.86228964 0 173.63095965 0 2841.18687877 0 482.26887896 0 672.96764268 0 18007
0.12850000 0.12850300 12756.22766905 0 33.97925069 0 3026.79250364 0 373.57740672 0 674.31314857 0 17496
0.12950000 0.12949900 12536.02332123 0 141.51080018 0 2763.51398221 0 171.71555276 0 741.91779426 0 18405
0.13050000 0.13049000 12721.38165178 0 81.81946020 0 3079.17393604 0 25.13578113 0 1047.27906389 0 18100
0.13150000 0.13148800 12409.79081352 0 240.05983327 0 3232.88983479 0 -83.65460884 0 1515.48701285 0 19059
0.13250000 0.13249300 12238.93292241 0 316.58281125 0 3348.29759584 0 -339.50249809 0 768.19618754 0 18957
0.13350000 0.13349100 12179.02025401 0 277.48895208 0 3586.54318809 0 -355.29111611 0 1362.83897593 0 19468
0.13450000 0.13450700 11972.97912612 0 163.36824553 0 3886.03908616 0 -65.21881757 0 1491.65683330 0 19953
0.13550000 0.13551000 12010.63530606 0 -23.05356299 0 3709.42598188 0 323.21029892 0 2028.21805530 0 19956
0.13650000 0.13649900 11935.99738521 0 -115.22678658 0 3970.40016990 0 643.88920330 0 1690.32409432 0 19723
0.13750000 0.13749600 12197.00529518 0 145.65522811 0 3716.06920646 0 145.10893248 0 1410.88151715 0 20946
0.13850000 0.13851100 11939.81920646 0 157.58268260 0 3792.73044445 0 128.83134616 0 1781.83423192 0 20955
0.13950000 0.13949800 11844.83570778 0 290.10995472 0 3520.32451463 0 -104.30930456 0 1175.62593800 0 20506
0.14050000 0.14048300 11561.00927682 0 169.05264260 0 3554.52981480 0 -48.65931573 0 1220.16139620 0 21447
0.14150000 0.14148400 11438.26137084 0 165.88053097 0 3555.66512053 0 -149.06114528 0 364.73775898 0 21771
0.14250000 0.14249400 11310.11795251 0 156.18546971 0 3374.18481448 0 -242.71712310 0 392.41673734 0 22470
0.14350000 0.14350900 11158.51529610 0 135.93094116 0 3455.84814204 0 -42.60948510 0 252.97309283 0 22519
0.14450000 0.14449900 11123.39950322 0 125.73567095 0 3334.88749952 0 1.84215156 0 205.67018642 0 22218
0.14550000 0.14550500 11010.14994710 0 17.20066856 0 3473.60837019 0 338.74150604 0 444.97352390 0 23559
0.14650000 0.14650700 11010.63329508 0 -29.37069630 0 3634.91170818 0 402.60076691 0 36.13947895 0 23044
0.14750000 0.14750500 11080.40401417 0 35.98312149 0 3393.54121504 0 232.74104558 0 445.44225904 0 23649
0.14850000 0.14849900 10994.66033039 0 -17.02463997 0 3398.77935828 0 144.84702532 0 330.32113458 0 23640
0.14950000 0.14949500 11131.45904979 0 55.73732868 0 3121.86592752 0 -178.92305801 0 196.68441023 0 24457
0.15050000 0.15050000 11050.44767997 0 31.40536648 0 3082.81590688 0 7.78226220 0 -390.94196397 0 24591
0.15150000 0.15149900 11042.61294641 0 47.39519215 0 2908.45093274 0 119.21721759 0 -354.22999868 0 25020
0.15250000 0.15250500 11008.80106901 0 25.28809195 0 2666.79942332 0 50.36980555 0 -740.93198919 0 25297
0.15350000 0.15350100 11023.36895236 0 101.92111590 0 2478.83326180 0 378.13211840 0 -881.91672692 0 25452
0.15450000 0.15450400 10819.81200827 0 167.64980939 0 2327.95000704 0 290.40895603 0 -651.77227166 0 26061
0.15550000 0.15549900 10715.19527192 0 232.61065403 0 2265.91285565 0 272.23844412 0 -275.87029837 0 26128
0.15650000 0.15649500 10425.60238714 0 255.56743502 0 2419.75240156 0 389.21764815 0 135.81066620 0 26331
0.15750000 0.15749700 10353.15639318 0 239.53714301 0 2436.68082156 0 115.34481341 0 596.41993527 0 27345
0.15850000 0.15849900 10090.06896282 0 185.83268601 0 2418.48220803 0 13.53273182 0 966.11594529 0 26980
0.15950000 0.15949700 9967.23113163 0 178.36889393 0 2647.71279838 0 -5.06694813 0 982.21368120 0 27777
0.16050000 0.16050000 9967.44470399 0 148.65760592 0 2512.34164163 0 -26.46150348 0 1042.54562587 0 28224
0.16150000 0.16150500 9753.53512058 0 175.11922180 0 2609.25853223 0 -43.60810451 0 802.28233682 0 28075
0.16250000 0.16249700 9572.66180967 0 195.12308384 0 2327.37673385 0 -31.77102485 0 558.94810199 0 28590
0.16350000 0.16349900 9460.54755928 0 182.48971649 0 2586.90087793 0 230.02867656 0 675.08313315 0 29163
0.16450000 0.16449100 9261.28454377 0 109.89602038 0 2031.63521312 0 227.78729080 0 480.40630314 0 28996
0.16550000 0.16550500 9077.87084579 0 101.23993247 0 2192.66877549 0 498.41382561 0 781.27918093 0 30777
0.16650000 0.16650700 9109.51327760 0 89.73141703 0 2102.90093875 0 76.23454288 0 655.24788087 0 29211
0.16750000 0.16749900 8970.71372237 0 89.54560907 0 1914.87857398 0 202.14849055 0 1038.90365503 0 30922
0.16850000 0.16850800 9012.41653659 0 104.65394291 0 2115.35557976 0 7.47372882 0 986.12542765 0 30867
0.16950000 0.16949900 8803.70013381 0 104.85312724 0 2017.05608912 0 63.81868212 0 1127.04384554 0 30852
0.17050000 0.17049200 8854.50787512 0 163.43568943 0 2066.71728405 0 29.88821585 0 1101.32186448 0 31257
0.17150000 0.17149500 8677.78236433 0 171.80997423 0 2025.20556090 0 148.05623110 0 982.03158266 0 32608
0.17250000 0.17250900 8513.65762300 0 142.46850362 0 1781.38460590 0 143.04290088 0 1160.32741236 0 32361
0.17350000 0.17350400 8392.78690569 0 125.53446330 0 1641.95557423 0 223.04598432 0 720.57292259 0 32508
0.17450000 0.17449800 8339.89964400 0 131.76628006 0 1695.07888958 0 -39.70557539 0 1022.57323765 0 32791
0.17550000 0.17549800 8193.68125929 0 89.66127537 0 1719.74087729 0 -63.47921447 0 941.31344945 0 33633
0.17650000 0.17650100 8243.37617618 0 84.09996342 0 1705.47649151 0 -80.80825126 0 1202.77210952 0 33984
0.17750000 0.17750300 8199.90857980 0 -2.34194462 0 1964.78706322 0 91.06984131 0 1421.24539713 0 34069
