### header ###
fiducial parameters:
Omega_m = 0.31
Omega_nu = 0
Omega_de = 0.69
Omega_k = 0
H_0 = 100
w_de = -1
zeff = 0
beta = 0
fgrowth = 0
b_1 = 2
gamma = 0.55
Lx = 3500 Ly = 3500 Lz = 3500
nx = 700 ny = 700 nz = 700
xoffset = 857.220397 yoffset = 15.9954215 zoffset = 262.898189
bins = 400 dk = 0.001
kx_ny = 0.628318531 ky_ny = 0.628318531 kz_ny = 0.628318531
############################
A(data) = 3.07366592 (not used)
A(ran) = 3.07260381 (used)
Ngal = 187309
weighted Ngal = 0
Nran = 9360983
weighted Nran = 0
SN(data) = 3444.62925
SN(ran) = 68.9991341
SN(data+ran) = 3513.62838
############################
13 columns: k_central k_mean P_0(k) sigma^{lin}_{P_0(k)} P^img_1(k) sigma^{lin}_{P_1(k)} P_2(k) sigma^{lin}_{P_2(k)} P^img_3(k) sigma^{lin}_{P_3(k)} P_4(k) sigma^{lin}_{P_4(k)} N_modes
### header ###
0.00050000 0 0 0 0 0 0 0 0 0 0 0 0
0.00150000 0.00179520 -1047.67923106 0 -2362.93091211 0 5734.73270864 0 -6562.65159758 0 10567.36947416 0 3
0.00250000 0.00253879 769.63836303 0 -2296.89208907 0 -2460.01641248 0 10458.13283035 0 -5503.26522878 0 6
0.00350000 0.00331552 5492.90134881 0 -5096.93818616 0 4864.58269490 0 2181.09090524 0 -1504.39249058 0 7
0.00450000 0.00420575 10624.83168069 0 -7857.99046586 0 -3229.55136152 0 12443.51276571 0 -2878.17986032 0 24
0.00550000 0.00557378 23541.74445194 0 -12462.73427846 0 -6033.41927986 0 12364.71580409 0 -2068.50454752 0 45
0.00650000 0.00659388 33596.84375034 0 -15370.12859004 0 -21860.48032211 0 -1869.29773526 0 -22414.75680965 0 40
0.00750000 0.00754703 50785.59722214 0 -23647.40656882 0 -20300.16559414 0 5542.11291771 0 -10298.58303388 0 57
0.00850000 0.00846663 62742.83943723 0 -23123.47983824 0 -34085.81205714 0 -8262.74381738 0 -13197.98524278 0 75
0.00950000 0.00948925 83784.43835359 0 -17610.39028072 0 -43255.82251697 0 -14298.33254284 0 -14237.40821587 0 112
0.01050000 0.01054430 97318.74386624 0 -9366.72184763 0 -53643.98229652 0 -25476.48525576 0 -25994.56684795 0 105
0.01150000 0.01145670 93028.18748222 0 5038.02593568 0 -42965.02688256 0 -41057.60086002 0 -33552.89280598 0 144
0.01250000 0.01249090 94966.97492030 0 9185.65744565 0 -52701.79095225 0 -36796.49498091 0 -25373.40848856 0 169
0.01350000 0.01339930 74117.70353795 0 13849.83057867 0 -33627.64313334 0 -37873.57413396 0 -22717.91715987 0 180
0.01450000 0.01448870 71032.03250579 0 8258.98944004 0 -29232.32388451 0 -22933.85006041 0 -27214.06504576 0 267
0.01550000 0.01550050 59030.05250079 0 2245.79209085 0 -6772.95293210 0 -6735.89250664 0 -47964.41870168 0 238
0.01650000 0.01653350 66089.74319238 0 -2558.32714377 0 -14001.46695703 0 -7130.73160422 0 -27054.22299236 0 315
0.01750000 0.01747870 58050.31738307 0 -2972.37651345 0 2164.90436819 0 -4114.67392203 0 -34231.49089061 0 297
0.01850000 0.01844180 65316.94845463 0 -1640.11210751 0 -947.34630670 0 -4405.66064750 0 -20776.54437212 0 388
0.01950000 0.01947590 69290.18126851 0 1003.88228361 0 829.83541989 0 -12587.05587555 0 -18349.68787930 0 399
0.02050000 0.02045430 65947.66136714 0 -1817.09615327 0 7358.84937015 0 -51.78556551 0 -9044.87953590 0 462
0.02150000 0.02154770 72109.56128486 0 -2914.31855242 0 -2876.39259685 0 3539.36617697 0 -25066.65113011 0 571
0.02250000 0.02255340 69240.49759228 0 52.99460990 0 -8944.53424682 0 2792.23384483 0 -26203.30573203 0 510
0.02350000 0.02348930 68782.55348150 0 4857.26503127 0 -6334.97221702 0 -7380.55506672 0 -29219.95916870 0 555
0.02450000 0.02439640 64558.65415632 0 3772.29494142 0 -8931.55129523 0 -3682.43717947 0 -35386.13053370 0 592
0.02550000 0.02547300 61153.18661085 0 2903.10038299 0 -8640.57581041 0 -7972.65634397 0 -24128.50642010 0 837
0.02650000 0.02652900 58505.67614418 0 2209.08012556 0 -5542.71991285 0 -3596.76093960 0 -30426.19339865 0 723
0.02750000 0.02749970 56886.57281289 0 4170.34886510 0 -2657.27859216 0 -5769.26398768 0 -22866.29374952 0 826
0.02850000 0.02848090 51017.82906624 0 5496.12741557 0 5655.54232424 0 -6185.68513466 0 -22821.66836612 0 831
0.02950000 0.02946900 48813.76227091 0 3874.50617851 0 220.80797076 0 -6321.23614183 0 -15463.31358460 0 996
0.03050000 0.03053250 46241.45175763 0 1327.98171801 0 11237.64947725 0 -4821.58720585 0 -17821.71451446 0 1041
0.03150000 0.03150510 45660.98455388 0 -241.78190096 0 8256.39284972 0 -4075.88243636 0 -26020.53275114 0 1036
0.03250000 0.03246190 48359.19035535 0 -3035.23423233 0 13007.34380638 0 -274.37753995 0 -18067.09791992 0 1059
0.03350000 0.03345080 48802.63402669 0 -2093.08785067 0 9525.96814653 0 -3710.87602582 0 -20555.44077224 0 1302
0.03450000 0.03451200 53056.99551535 0 -1499.15434734 0 13921.32111732 0 701.21090171 0 -15745.00429191 0 1339
0.03550000 0.03553350 55375.26732211 0 -702.63958841 0 16046.25373150 0 -1230.06440949 0 -17719.08737329 0 1365
0.03650000 0.03647120 54207.02649164 0 -264.80724992 0 16841.30495771 0 5276.05795556 0 -9530.90279220 0 1308
0.03750000 0.03744890 55140.33772183 0 3305.42575396 0 21316.65763974 0 892.69763504 0 -4594.71715215 0 1579
0.03850000 0.03847530 51048.17882322 0 4173.00165867 0 20827.12730041 0 1286.04285013 0 1786.19560441 0 1662
0.03950000 0.03950240 48252.17936039 0 4925.16980234 0 22380.81004445 0 6395.55932446 0 5100.73752611 0 1683
0.04050000 0.04050350 43809.87419150 0 1659.50223002 0 20259.47443849 0 4376.40123365 0 7673.92481014 0 1822
0.04150000 0.04152450 43981.74374118 0 352.85077084 0 15461.17786096 0 9301.57103599 0 5767.47672421 0 1887
0.04250000 0.04250150 43018.53238004 0 -816.76479122 0 13709.77207056 0 4224.83229920 0 1826.15611776 0 1920
0.04350000 0.04349210 42020.92462766 0 1107.58852726 0 10647.78508949 0 -163.25808715 0 1519.60109102 0 2005
0.04450000 0.04448520 42101.74490642 0 1603.28773571 0 10594.68425543 0 -2569.35422214 0 4216.72779002 0 2151
0.04550000 0.04548030 41424.04607385 0 879.25943709 0 10843.15883984 0 -1399.91064204 0 3108.74808812 0 2274
0.04650000 0.04648670 40284.13168322 0 381.40651995 0 13285.66231848 0 39.55090404 0 5013.45387318 0 2311
0.04750000 0.04749250 41639.07972233 0 171.60314625 0 14051.82507230 0 1865.00380668 0 2156.33899233 0 2568
0.04850000 0.04851840 40742.52542003 0 201.79216192 0 14985.81074154 0 2574.31134911 0 1313.27894685 0 2493
0.04950000 0.04949480 40401.25926384 0 2019.37166317 0 13203.26834862 0 -601.64683786 0 -916.36932141 0 2644
0.05050000 0.05050630 38222.25911963 0 1605.09748048 0 15594.82919815 0 438.49666095 0 1619.96886140 0 2829
0.05150000 0.05149060 37292.76971069 0 1340.88598505 0 14406.46760287 0 -414.98571588 0 524.33139400 0 2784
0.05250000 0.05249300 36266.94792498 0 549.71840367 0 14746.27247447 0 -78.24515808 0 237.44188572 0 3055
0.05350000 0.05348950 36655.20000123 0 -57.89204902 0 16219.58456578 0 127.58813019 0 -2489.97274668 0 3009
0.05450000 0.05448610 35999.30803107 0 730.22639344 0 17330.27326451 0 -1338.77274271 0 -1621.12664842 0 3336
0.05550000 0.05550870 36771.76554931 0 566.75360986 0 18532.01123416 0 -400.71683384 0 -1439.21919764 0 3349
0.05650000 0.05647670 35696.93452641 0 612.96729721 0 20047.70057872 0 -1191.31788642 0 -133.10166937 0 3324
0.05750000 0.05747970 35203.24514630 0 333.94736850 0 19835.36468641 0 -313.53547084 0 -2526.44865830 0 3639
0.05850000 0.05849280 34658.29839886 0 84.68987277 0 17820.25322987 0 2034.77135467 0 -7089.92804207 0 3846
0.05950000 0.05951020 35463.46621073 0 409.69024532 0 17008.90306011 0 1129.83152692 0 -4248.53883159 0 3787
0.06050000 0.06049470 34692.02035106 0 -160.37373617 0 12867.17289177 0 1343.17907780 0 -10014.22829234 0 3930
0.06150000 0.06148310 35841.37688830 0 -464.02979909 0 14632.96671510 0 2563.55404636 0 -6415.68008927 0 4083
0.06250000 0.06249100 35480.88921936 0 220.94173451 0 10468.39554447 0 2072.71979154 0 -9979.21366531 0 4303
0.06350000 0.06350600 35710.19849427 0 356.15777028 0 12909.99977105 0 1940.58594220 0 -4156.55658666 0 4470
0.06450000 0.06451750 34722.37010803 0 1337.82852805 0 11812.91225971 0 280.37892338 0 -3521.93192768 0 4479
0.06550000 0.06550280 33824.12970812 0 1705.66758257 0 13875.23444932 0 2216.13925422 0 1115.67167920 0 4636
0.06650000 0.06648880 32416.68783009 0 919.04010003 0 13061.07411688 0 3358.63899452 0 5118.31790385 0 4653
0.06750000 0.06749660 32015.84622502 0 314.56961071 0 14183.11587284 0 2708.91814161 0 4971.60493051 0 5220
0.06850000 0.06852730 32119.93465079 0 392.35266564 0 13063.88427956 0 1388.50138155 0 7802.07946913 0 5029
0.06950000 0.06949320 31154.92478554 0 776.04553395 0 13379.29693907 0 -156.29000776 0 5759.54082480 0 5040
0.07050000 0.07048030 29683.63601136 0 1335.96258003 0 11831.00970738 0 -490.55998294 0 7770.48199992 0 5475
0.07150000 0.07148790 28683.78012884 0 1490.51028693 0 12035.25233116 0 -985.90286277 0 4161.06408760 0 5509
0.07250000 0.07249820 27520.82240421 0 906.24711543 0 12000.40631390 0 -814.09176448 0 3116.00954849 0 5916
0.07350000 0.07351270 26869.42669435 0 1003.64847808 0 12965.75339868 0 594.72934140 0 1794.99703393 0 5721
0.07450000 0.07449140 26452.96058476 0 576.91853031 0 12269.39508589 0 329.04194852 0 1229.36748915 0 6028
0.07550000 0.07549160 25947.01889536 0 262.24550562 0 11943.97824723 0 1288.57199655 0 1193.97068000 0 6183
0.07650000 0.07648840 25635.54046361 0 211.88514221 0 12035.92677021 0 1880.14496322 0 2774.90076140 0 6330
0.07750000 0.07749960 25226.60559001 0 247.47079430 0 10984.39761628 0 2053.93666417 0 3074.79008226 0 6583
0.07850000 0.07848650 25672.74701753 0 121.01010138 0 10476.74734796 0 2075.17025340 0 3528.66507747 0 6549
0.07950000 0.07947320 25106.89265973 0 354.44019885 0 10161.27848520 0 820.96542240 0 3823.03523882 0 6828
0.08050000 0.08048110 24876.79653926 0 346.51216789 0 9687.91220161 0 238.93689226 0 3661.87802929 0 7147
0.08150000 0.08149960 24368.60671972 0 191.32374390 0 10115.23677980 0 30.18845364 0 4286.90317253 0 7386
0.08250000 0.08250610 24528.44877311 0 403.17741229 0 10041.99269964 0 -1002.64581203 0 3855.59940398 0 7227
0.08350000 0.08350160 24108.83528132 0 576.35200152 0 10371.89455795 0 -52.97179138 0 3056.33293376 0 7798
0.08450000 0.08449610 22939.02075975 0 625.79625189 0 10317.55725231 0 -210.33618054 0 3573.56023649 0 7371
0.08550000 0.08548940 23020.62788406 0 726.50573805 0 10189.58244374 0 931.18674721 0 1227.08563705 0 8256
0.08650000 0.08650700 21835.41367098 0 539.05889459 0 8720.32822734 0 2005.61310668 0 1533.05614995 0 8037
0.08750000 0.08749060 21265.84989844 0 108.29557652 0 6724.64061526 0 2085.79266834 0 825.86072579 0 8155
0.08850000 0.08849210 21063.29337227 0 -110.86597613 0 5429.21182177 0 2353.36511834 0 972.87270044 0 8718
0.08950000 0.08949900 21334.08064838 0 -353.75451916 0 4009.65252225 0 1558.08907912 0 996.40163055 0 8571
0.09050000 0.09049190 21291.36617560 0 -314.41673786 0 2822.34754814 0 504.62990546 0 342.62177867 0 8932
0.09150000 0.09150830 21554.95943524 0 2.42567622 0 3665.13781800 0 170.97029762 0 566.09378366 0 9285
0.09250000 0.09250820 21567.88618358 0 314.88884519 0 3815.91990690 0 -904.91060206 0 1693.33658872 0 9204
0.09350000 0.09350330 21293.83911876 0 375.91208988 0 5134.16722138 0 -510.93928272 0 2234.55144012 0 9349
0.09450000 0.09448040 21348.46868131 0 632.26299825 0 5985.16316627 0 -906.51801511 0 2848.12236027 0 9564
0.09550000 0.09549270 20744.95814357 0 506.41379673 0 7247.06109863 0 -207.39675038 0 2576.81801422 0 10155
0.09650000 0.09649430 20687.29360532 0 686.36425022 0 7877.98758351 0 -1299.13820823 0 3724.97180184 0 9913
0.09750000 0.09749140 20133.35433729 0 652.84238161 0 8895.16530881 0 -1027.39210462 0 3099.06988784 0 10476
0.09850000 0.09850240 19739.03230965 0 762.18918379 0 9427.42136157 0 -1048.01645058 0 2267.02568008 0 10575
0.09950000 0.09950330 18979.61394626 0 509.25880543 0 9462.82941138 0 -97.94855753 0 2345.78891975 0 10882
0.10050000 0.10051200 18608.78487865 0 541.34636701 0 8500.03395432 0 611.80501392 0 393.27664713 0 10875
0.10150000 0.10150300 18367.67292047 0 66.18652520 0 8311.96662694 0 1543.99330311 0 903.04915030 0 11118
0.10250000 0.10250800 17931.98529814 0 -35.96389998 0 6505.14442844 0 2026.45327313 0 -660.65913013 0 11575
0.10350000 0.10349800 17950.86959136 0 8.42163042 0 5542.09043641 0 1344.79773150 0 -770.53649102 0 11364
0.10450000 0.10450100 17489.44087886 0 392.63480597 0 4911.29883934 0 310.60615726 0 -394.01290975 0 12093
0.10550000 0.10551000 17228.65778190 0 650.87189554 0 4377.37917027 0 -172.01567814 0 -664.29885284 0 12067
0.10650000 0.10649700 16714.28560445 0 698.42546845 0 5161.62813112 0 -918.85575335 0 943.59305342 0 12054
0.10750000 0.10749900 16177.09490601 0 481.43145048 0 5129.90701475 0 -284.34574902 0 99.80787356 0 12807
0.10850000 0.10850100 15700.82853454 0 426.67824077 0 5729.88798817 0 151.30590323 0 558.21858376 0 12736
0.10950000 0.10950300 15784.57138249 0 233.27272836 0 5854.47936087 0 577.03318495 0 341.93272678 0 12933
0.11050000 0.11050200 15369.67896401 0 11.88575168 0 5955.66769875 0 938.84050629 0 963.88467612 0 13428
0.11150000 0.11150900 15518.50517968 0 -124.90723499 0 5402.93118036 0 905.99307672 0 1287.68398514 0 13453
0.11250000 0.11250000 15489.27948778 0 16.78465208 0 5369.35535662 0 662.97582824 0 1631.77154467 0 13668
0.11350000 0.11349100 15329.10021487 0 417.49350506 0 5153.50114064 0 297.46696062 0 2075.38382576 0 13791
0.11450000 0.11448600 15082.48033783 0 455.90280861 0 5605.76872280 0 83.53298500 0 2048.43998596 0 14205
0.11550000 0.11549300 14588.00411217 0 207.43272046 0 5538.59459403 0 110.34530919 0 2603.52580036 0 14776
0.11650000 0.11649800 14776.95945096 0 8.56001407 0 5318.13171124 0 114.50288867 0 1633.01925690 0 14553
0.11750000 0.11747300 14462.55845002 0 -177.03912495 0 5105.41363681 0 49.63848882 0 1050.15667048 0 14568
0.11850000 0.11849100 14831.02698098 0 52.20124478 0 4939.86133284 0 -357.50777243 0 616.23158218 0 16015
0.11950000 0.11950300 14634.42799969 0 287.16265609 0 4262.81445802 0 -447.28010543 0 -425.97345197 0 15270
0.12050000 0.12050700 14389.94384629 0 580.60209156 0 4532.17417148 0 -580.48631285 0 -751.77247276 0 15999
0.12150000 0.12150000 13839.71399301 0 466.08346597 0 4483.00756518 0 -295.14126998 0 -1431.82284946 0 15670
0.12250000 0.12250700 13613.66450681 0 190.72461721 0 4176.22772543 0 935.20190765 0 -1025.34967838 0 16887
0.12350000 0.12352200 13640.52966206 0 -272.26204949 0 3792.57307533 0 1063.68479363 0 -1435.04891622 0 16407
0.12450000 0.12449800 13941.10466260 0 -280.58350322 0 3533.40863208 0 1091.57622029 0 -1282.80554272 0 16306
0.12550000 0.12549900 14151.52964429 0 -94.58288188 0 3241.66878301 0 660.49614069 0 -1050.74792871 0 17523
0.12650000 0.12650100 13979.09806208 0 327.16813205 0 3064.56109009 0 11.62260804 0 -539.28370760 0 17154
0.12750000 0.12750600 13552.17814731 0 399.74114536 0 3282.95569314 0 189.52748791 0 401.33169744 0 18007
0.12850000 0.12850300 13346.02461291 0 334.00244769 0 3359.99911325 0 294.85575745 0 848.32179408 0 17496
0.12950000 0.12949900 13139.08423295 0 125.17026621 0 3044.88995131 0 454.18411311 0 663.73119997 0 18405
0.13050000 0.13049000 13019.70852219 0 125.57380558 0 3821.82124854 0 40.43981470 0 890.53718197 0 18100
0.13150000 0.13148800 12903.70500664 0 102.63961830 0 3443.43846363 0 -323.24964120 0 1215.18178792 0 19059
0.13250000 0.13249300 13049.49624662 0 132.71161879 0 4276.49432995 0 -443.03226352 0 1747.42660004 0 18957
0.13350000 0.13349100 12960.13307331 0 191.58227886 0 4226.64204396 0 -511.29898354 0 1767.30007053 0 19468
0.13450000 0.13450700 12934.05476361 0 46.42714731 0 4509.01843098 0 65.48870560 0 1613.29191486 0 19953
0.13550000 0.13551000 12831.87724847 0 31.40536648 0 4384.61814934 0 306.83154674 0 1589.85515809 0 19956
0.13650000 0.13649900 13000.59941594 0 38.58420807 0 3769.50726003 0 443.05362076 0 1039.82538839 0 19723
0.13750000 0.13749600 12674.95776427 0 154.49712397 0 3899.71895810 0 316.66599207 0 1103.07877818 0 20946
0.13850000 0.13851100 12606.50220131 0 100.82762540 0 3498.82114978 0 349.50218098 0 1129.57299196 0 20955
0.13950000 0.13949800 12393.04224393 0 182.68867601 0 3513.56888354 0 106.98480424 0 619.29128731 0 20506
0.14050000 0.14048300 12327.84646969 0 127.81069507 0 3337.32672073 0 38.25463219 0 936.50919533 0 21447
0.14150000 0.14148400 12211.84295415 0 202.33283722 0 3329.13228635 0 -29.18207818 0 882.36073263 0 21771
0.14250000 0.14249400 11938.02070234 0 184.70300062 0 3603.49408939 0 174.21210129 0 1119.13492369 0 22470
0.14350000 0.14350900 11912.61683169 0 173.35331557 0 3222.63836132 0 558.70980019 0 1165.83533122 0 22519
0.14450000 0.14449900 11570.45142344 0 113.82282930 0 2778.86871111 0 717.75489145 0 618.08628955 0 22218
0.14550000 0.14550500 11435.90083419 0 292.36145706 0 2656.25569294 0 342.82523445 0 1051.70225995 0 23559
0.14650000 0.14650700 11115.25003144 0 358.60148775 0 2626.00710182 0 257.84029460 0 411.48874944 0 23044
0.14750000 0.14750500 10845.85659602 0 329.00035812 0 2248.99567630 0 33.77231031 0 1345.12371037 0 23649
0.14850000 0.14849900 10688.89214921 0 136.50871061 0 2567.79177169 0 358.14961359 0 1051.36166824 0 23640
0.14950000 0.14949500 10601.57477433 0 12.58919160 0 2073.10197367 0 -179.41427445 0 1013.15244827 0 24457
0.15050000 0.15050000 10609.18469488 0 110.63172097 0 2748.09180941 0 -50.05360605 0 586.37191758 0 24591
0.15150000 0.15149900 10520.85566143 0 243.51296118 0 2583.23642579 0 -468.82168849 0 792.77049817 0 25020
0.15250000 0.15250500 10332.64220559 0 286.88950828 0 3128.68900251 0 -726.74066765 0 892.44247227 0 25297
0.15350000 0.15350100 10311.81327979 0 84.36400631 0 2865.89382907 0 -72.58695172 0 826.06980190 0 25452
0.15450000 0.15450400 10195.60743253 0 -117.75480893 0 3104.58904734 0 235.77714534 0 488.64457606 0 26061
0.15550000 0.15549900 10535.18749111 0 -154.85682480 0 2964.20456037 0 526.50421178 0 743.10368291 0 26128
0.15650000 0.15649500 10479.64743585 0 -30.67146440 0 3008.40279904 0 654.89942069 0 619.34299430 0 26331
0.15750000 0.15749700 10469.29479653 0 207.25849037 0 2622.41009359 0 287.23684439 0 818.50821615 0 27345
0.15850000 0.15849900 10231.35270186 0 293.14043415 0 2647.36433821 0 78.69838112 0 1437.43193418 0 26980
0.15950000 0.15949700 9983.51883454 0 195.10959506 0 2614.12573400 0 61.01773677 0 1216.21592779 0 27777
0.16050000 0.16050000 9841.02110522 0 247.02678859 0 2526.19012333 0 -113.97907435 0 1277.73600924 0 28224
0.16150000 0.16150500 9580.84500340 0 235.63888534 0 2531.15849095 0 -158.59434116 0 678.06302966 0 28075
0.16250000 0.16249700 9327.91912130 0 280.58462729 0 2485.72378070 0 -138.63768986 0 480.37370525 0 28590
0.16350000 0.16349900 9120.45043076 0 271.18294702 0 2527.30294775 0 -101.47823426 0 166.73594449 0 29163
0.16450000 0.16449100 8981.43730317 0 133.11740628 0 2649.33145209 0 -19.32301583 0 -132.48230952 0 28996
0.16550000 0.16550500 8950.27821935 0 -36.25053657 0 2512.71258310 0 -7.16702767 0 -127.71852174 0 30777
0.16650000 0.16650700 9030.63763142 0 -2.05218312 0 2909.10289048 0 -164.39676507 0 -362.08046915 0 29211
0.16750000 0.16749900 9094.41708367 0 54.36945389 0 2806.22845499 0 -120.09511241 0 -122.18137719 0 30922
0.16850000 0.16850800 8916.99465253 0 244.71009048 0 2879.98960509 0 -45.21326944 0 -167.18781865 0 30867
0.16950000 0.16949900 8690.74283462 0 326.64431772 0 2711.21123436 0 -4.76276488 0 -158.63255938 0 30852
0.17050000 0.17049200 8515.13014825 0 288.01357335 0 2677.51176347 0 304.69020278 0 -46.69523683 0 31257
0.17150000 0.17149500 8198.06511308 0 92.83822048 0 2236.09140927 0 398.45633898 0 -546.79808261 0 32608
0.17250000 0.17250900 8143.62664159 0 11.33765755 0 2264.77754993 0 397.68185815 0 -56.03374464 0 32361
0.17350000 0.17350400 8191.71414542 0 -37.69788276 0 1877.60457615 0 138.41175278 0 -480.64010867 0 32508
0.17450000 0.17449800 8226.16673991 0 3.13877187 0 1990.89909487 0 174.20535690 0 -32.66791637 0 32791
0.17550000 0.17549800 8082.47750161 0 105.31343189 0 2006.25382377 0 -11.75075146 0 -145.64173933 0 33633
0.17650000 0.17650100 8143.24445946 0 61.67621409 0 2064.50287586 0 20.17056089 0 355.50468847 0 33984
0.17750000 0.17750300 8155.80026633 0 50.40723692 0 2273.02818757 0 55.40483023 0 67.04463647 0 34069
