### header ###
fiducial parameters:
Omega_m = 0.31
Omega_nu = 0
Omega_de = 0.69
Omega_k = 0
H_0 = 100
w_de = -1
zeff = 0
beta = 0
fgrowth = 0
b_1 = 2
gamma = 0.55
Lx = 3500 Ly = 3500 Lz = 3500
nx = 700 ny = 700 nz = 700
xoffset = 857.220397 yoffset = 15.9954215 zoffset = 262.898189
bins = 400 dk = 0.001
kx_ny = 0.628318531 ky_ny = 0.628318531 kz_ny = 0.628318531
############################
A(data) = 3.0754939 (not used)
A(ran) = 3.07112656 (used)
Ngal = 187842
weighted Ngal = 0
Nran = 9360983
weighted Nran = 0
SN(data) = 3453.15477
SN(ran) = 68.9659606
SN(data+ran) = 3522.12073
############################
13 columns: k_central k_mean P_0(k) sigma^{lin}_{P_0(k)} P^img_1(k) sigma^{lin}_{P_1(k)} P_2(k) sigma^{lin}_{P_2(k)} P^img_3(k) sigma^{lin}_{P_3(k)} P_4(k) sigma^{lin}_{P_4(k)} N_modes
### header ###
0.00050000 0 0 0 0 0 0 0 0 0 0 0 0
0.00150000 0.00179520 9586.01570274 0 -11752.88718480 0 -20481.81450995 0 29595.62171613 0 2184.05843703 0 3
0.00250000 0.00253879 19636.74238800 0 -14185.81362902 0 -35.77348336 0 -6828.52670932 0 5621.84285334 0 6
0.00350000 0.00331552 29758.72355824 0 -15784.90860201 0 -9226.04510373 0 -13473.71840521 0 12976.76923639 0 7
0.00450000 0.00420575 43086.53831696 0 -14854.29512799 0 192.88057402 0 -21659.94711307 0 10253.26073013 0 24
0.00550000 0.00557378 60894.31442452 0 -12335.26529918 0 -6643.39319178 0 -9649.18815985 0 22643.95367806 0 45
0.00650000 0.00659388 66079.62660673 0 -560.03844511 0 7904.06589321 0 16649.87667576 0 15362.26013452 0 40
0.00750000 0.00754703 71025.40052186 0 -2910.71030354 0 -13111.09501263 0 12919.44191766 0 21565.18842741 0 57
0.00850000 0.00846663 69508.24989269 0 -2099.85472241 0 -2945.89354032 0 32829.89415096 0 34795.77155730 0 75
0.00950000 0.00948925 76085.49185492 0 -7766.34544045 0 -6125.87363212 0 18254.81678713 0 27447.64576795 0 112
0.01050000 0.01054430 73279.60061945 0 -5292.78404385 0 -20427.40976042 0 16794.54385067 0 -323.51829275 0 105
0.01150000 0.01145670 83680.23752131 0 607.77748876 0 8337.66275451 0 -14624.19900753 0 27812.62969718 0 144
0.01250000 0.01249090 76343.91441522 0 6582.90725019 0 5262.29939906 0 -26822.10355477 0 10984.00419350 0 169
0.01350000 0.01339930 78339.57954600 0 11404.76423166 0 34157.41500229 0 -22465.67695747 0 30467.67139984 0 180
0.01450000 0.01448870 74226.06341100 0 5462.18065036 0 45698.07870129 0 -16573.88987682 0 25230.42741126 0 267
0.01550000 0.01550050 70628.38073804 0 -1568.25062738 0 56794.28707039 0 -2318.55282303 0 6505.11070648 0 238
0.01650000 0.01653350 81818.44854074 0 -2984.85363576 0 60192.33578637 0 6903.20959277 0 9851.56483561 0 315
0.01750000 0.01747870 80256.78493468 0 -2432.85900031 0 51940.01205221 0 13556.44959459 0 -3667.85805547 0 297
0.01850000 0.01844180 87157.64523145 0 -1573.23023566 0 65433.96362874 0 8684.27946045 0 8791.93117250 0 388
0.01950000 0.01947590 87998.33349962 0 -93.03740482 0 50919.81059187 0 6152.40156785 0 -9203.41767381 0 399
0.02050000 0.02045430 88260.57788118 0 2856.85634588 0 55185.52513777 0 8060.33341967 0 -144.98303719 0 462
0.02150000 0.02154770 87168.21144314 0 2454.94687900 0 47351.35361081 0 -751.12501128 0 -11420.27632967 0 571
0.02250000 0.02255340 85858.56322647 0 4283.17127649 0 50316.63727364 0 2012.63851338 0 -2771.85454506 0 510
0.02350000 0.02348930 83987.66931880 0 3114.43585738 0 42193.91824241 0 2425.10295131 0 -11101.75000991 0 555
0.02450000 0.02439640 79704.75657728 0 2428.13792700 0 37124.83438877 0 5865.57388314 0 -19862.00502865 0 592
0.02550000 0.02547300 77138.62842190 0 2991.62050750 0 38769.45399722 0 9908.79098848 0 -11764.57746156 0 837
0.02650000 0.02652900 75067.42611821 0 3443.67451730 0 32859.23224937 0 6337.82734231 0 -14735.03182373 0 723
0.02750000 0.02749970 69529.26990956 0 2047.81050952 0 28095.55687608 0 8624.60284572 0 -6496.36548022 0 826
0.02850000 0.02848090 68867.08317500 0 3336.12397110 0 24029.58869367 0 4896.85460315 0 -14148.83188811 0 831
0.02950000 0.02946900 66106.94138800 0 3556.99151731 0 28993.68486949 0 1269.68770332 0 -10291.90608734 0 996
0.03050000 0.03053250 61427.90811472 0 1853.22360472 0 24547.33306634 0 1384.42102533 0 -11763.79061601 0 1041
0.03150000 0.03150510 61171.73368456 0 2906.30396845 0 25092.39222028 0 2473.12301123 0 -17656.81416824 0 1036
0.03250000 0.03246190 58104.38491309 0 3116.32428671 0 28131.41455191 0 -1541.27306563 0 -14955.34857806 0 1059
0.03350000 0.03345080 56385.68941632 0 3897.80804748 0 28386.80213652 0 646.33516890 0 -19199.93070059 0 1302
0.03450000 0.03451200 49957.72329580 0 4781.50304535 0 29063.60171704 0 -436.12600771 0 -12871.89396507 0 1339
0.03550000 0.03553350 48907.28448499 0 3977.93140589 0 26739.93439793 0 571.62418382 0 -15510.07469164 0 1365
0.03650000 0.03647120 47124.18005953 0 715.40447138 0 28771.11998502 0 6485.21475469 0 -12220.16103569 0 1308
0.03750000 0.03744890 45685.60157898 0 283.27563907 0 23649.65469896 0 6818.98339685 0 -12589.19159919 0 1579
0.03850000 0.03847530 47058.98428529 0 -338.53467807 0 22325.16882333 0 6901.64714232 0 -9867.89750112 0 1662
0.03950000 0.03950240 45276.21707936 0 816.61529057 0 19306.15485000 0 6502.72768853 0 -2308.82966015 0 1683
0.04050000 0.04050350 45250.58839569 0 1182.29164389 0 18621.59922048 0 9058.67181434 0 1048.29297059 0 1822
0.04150000 0.04152450 44170.02464092 0 252.77413331 0 9812.55977757 0 9672.92841419 0 9563.30958826 0 1887
0.04250000 0.04250150 42638.59838533 0 -403.31005197 0 11824.26531694 0 5855.83947961 0 6850.31109043 0 1920
0.04350000 0.04349210 43106.20945574 0 -10.28226161 0 9931.95796964 0 5296.75199355 0 11324.16876592 0 2005
0.04450000 0.04448520 42545.63820379 0 592.45535775 0 9727.42308893 0 -903.60443844 0 8654.81771488 0 2151
0.04550000 0.04548030 42721.89160725 0 1817.24228173 0 14263.48652557 0 -3412.85265299 0 13878.15701851 0 2274
0.04650000 0.04648670 41265.21567902 0 1758.46491905 0 15687.56456668 0 -4962.17402455 0 10541.71830919 0 2311
0.04750000 0.04749250 39996.82065053 0 2012.87456705 0 19819.51536888 0 -1485.03609002 0 9769.32823486 0 2568
0.04850000 0.04851840 39913.63983513 0 1518.73556091 0 20475.96937157 0 -2004.78129852 0 7503.24676944 0 2493
0.04950000 0.04949480 38785.52812776 0 646.84774258 0 22432.06741178 0 2475.32617877 0 3256.13550050 0 2644
0.05050000 0.05050630 38747.98435432 0 554.71599699 0 23235.43671952 0 1301.39757903 0 5753.01000672 0 2829
0.05150000 0.05149060 39055.30374531 0 634.82024629 0 21362.96912076 0 1462.17260644 0 1056.57957831 0 2784
0.05250000 0.05249300 38288.01692641 0 672.31905713 0 22968.58367117 0 1184.13511061 0 6982.68099344 0 3055
0.05350000 0.05348950 37896.61746796 0 400.86071417 0 20730.34529762 0 2534.27215121 0 2763.83996109 0 3009
0.05450000 0.05448610 38880.28681343 0 -70.15402528 0 25023.37462480 0 1892.70077008 0 8663.69782896 0 3336
0.05550000 0.05550870 38744.05012657 0 -401.41375419 0 19714.07806503 0 2578.63899964 0 3944.24317565 0 3349
0.05650000 0.05647670 38737.98017517 0 266.17298898 0 25634.41639853 0 2343.56327090 0 7208.58435118 0 3324
0.05750000 0.05747970 39090.48698209 0 220.21558847 0 17538.56252255 0 1895.37604496 0 4126.30799554 0 3639
0.05850000 0.05849280 37871.21359730 0 614.68936490 0 21230.77906816 0 2333.18815028 0 6859.98929071 0 3846
0.05950000 0.05951020 37930.78904618 0 964.41973109 0 17354.77788310 0 3441.62871886 0 6931.70464238 0 3787
0.06050000 0.06049470 36236.03613547 0 556.38748175 0 17360.51061497 0 4949.46084857 0 8830.64397362 0 3930
0.06150000 0.06148310 35220.66815494 0 1337.31145812 0 16560.51350245 0 3248.64922711 0 6650.67713345 0 4083
0.06250000 0.06249100 34855.90903872 0 996.56799218 0 16419.44333577 0 3619.33216627 0 10651.69683594 0 4303
0.06350000 0.06350600 32680.84312227 0 784.49400704 0 15202.98011367 0 2764.03105215 0 11283.70242329 0 4470
0.06450000 0.06451750 32905.20651086 0 -5.98206075 0 14732.10925454 0 836.04363129 0 10907.92746935 0 4479
0.06550000 0.06550280 33418.00499721 0 257.43113491 0 13221.14098328 0 -28.83597854 0 9344.49908113 0 4636
0.06650000 0.06648880 32717.82486317 0 -18.23896747 0 12439.91575748 0 -57.30247689 0 5216.66235709 0 4653
0.06750000 0.06749660 32775.82662095 0 387.14262402 0 10261.14042629 0 -734.40229518 0 3721.37479360 0 5220
0.06850000 0.06852730 31928.84358837 0 483.05572451 0 9151.17112921 0 -1169.20752643 0 -95.49270015 0 5029
0.06950000 0.06949320 31485.39991703 0 682.08605855 0 8734.18794969 0 -404.58586583 0 -2046.78761030 0 5040
0.07050000 0.07048030 30711.03148817 0 896.87241272 0 8070.18022971 0 35.99998247 0 -3007.07640225 0 5475
0.07150000 0.07148790 29797.72861628 0 945.41965916 0 9339.54195416 0 -151.60040828 0 -2738.58221889 0 5509
0.07250000 0.07249820 29202.98578610 0 945.85916861 0 9332.93245153 0 203.29278880 0 -1590.10245241 0 5916
0.07350000 0.07351270 28974.01373071 0 812.38430963 0 11373.51522263 0 -60.92747434 0 -1382.68996512 0 5721
0.07450000 0.07449140 28539.89979948 0 314.56623851 0 12021.20151775 0 -216.37578218 0 256.08113276 0 6028
0.07550000 0.07549160 28949.84633164 0 53.97254652 0 13924.24368651 0 15.99353508 0 1473.27836936 0 6183
0.07650000 0.07648840 28882.62724027 0 261.13380526 0 14566.30965626 0 -1159.61925136 0 292.60650324 0 6330
0.07750000 0.07749960 28744.36723628 0 504.56695782 0 14465.14379968 0 3.64072312 0 738.52536587 0 6583
0.07850000 0.07848650 28086.33954248 0 892.22440364 0 14917.13036558 0 -1141.48808173 0 -8.26601485 0 6549
0.07950000 0.07947320 27273.86530765 0 892.56724349 0 14437.94142491 0 99.92016766 0 446.36736459 0 6828
0.08050000 0.08048110 26586.61192195 0 723.06609892 0 15008.85407554 0 1629.47845192 0 -997.49871806 0 7147
0.08150000 0.08149960 25316.30598285 0 469.30054021 0 12720.93202576 0 2507.62056832 0 789.58040149 0 7386
0.08250000 0.08250610 26089.66275314 0 263.76074534 0 11858.77411469 0 3285.83329973 0 -47.86269081 0 7227
0.08350000 0.08350160 24945.13969571 0 348.65800811 0 10988.84891397 0 2418.13374785 0 43.87967863 0 7798
0.08450000 0.08449610 24324.43096234 0 562.78903234 0 8736.02017576 0 1297.66568299 0 699.63159028 0 7371
0.08550000 0.08548940 24082.53215861 0 614.01380179 0 9656.24728851 0 277.91834493 0 1416.61424902 0 8256
0.08650000 0.08650700 23335.36610452 0 659.38668847 0 8933.02382047 0 -149.28820642 0 2104.77812743 0 8037
0.08750000 0.08749060 22902.82586439 0 536.31167955 0 10499.30733398 0 104.90348535 0 1647.46349309 0 8155
0.08850000 0.08849210 22165.43917644 0 803.44237197 0 9009.83118692 0 -0.74944004 0 2033.07401641 0 8718
0.08950000 0.08949900 21367.46538105 0 814.40987489 0 9558.71216211 0 577.50866448 0 1421.33532233 0 8571
0.09050000 0.09049190 21010.57472034 0 663.39398045 0 9531.72335971 0 725.60086566 0 2067.57157351 0 8932
0.09150000 0.09150830 20363.11323823 0 186.28006391 0 7898.72658411 0 828.28308602 0 931.40256770 0 9285
0.09250000 0.09250820 20141.89723185 0 323.29460380 0 7776.37210091 0 478.06937185 0 724.44757490 0 9204
0.09350000 0.09350330 20210.46520131 0 234.15736757 0 6972.77798015 0 642.58303969 0 543.30561243 0 9349
0.09450000 0.09448040 19579.63988228 0 197.21384488 0 6586.94264381 0 620.08038099 0 557.25413592 0 9564
0.09550000 0.09549270 19591.10534603 0 353.05197848 0 6114.09343016 0 879.56743092 0 499.26024661 0 10155
0.09650000 0.09649430 19134.84733286 0 305.23200214 0 5956.37585975 0 1111.16755045 0 73.03826385 0 9913
0.09750000 0.09749140 18688.81831185 0 556.08623231 0 5576.95893498 0 686.34064485 0 706.95824642 0 10476
0.09850000 0.09850240 18428.48484092 0 390.93859177 0 5019.89476605 0 328.95089925 0 702.99366891 0 10575
0.09950000 0.09950330 17969.52907158 0 231.78783840 0 5195.92335650 0 45.42155869 0 1120.52764031 0 10882
0.10050000 0.10051200 18068.89642404 0 142.30663825 0 5480.86261188 0 275.70056454 0 1365.66037926 0 10875
0.10150000 0.10150300 17747.52621964 0 30.34188852 0 5339.46646633 0 178.19241571 0 643.18441450 0 11118
0.10250000 0.10250800 18172.76003679 0 -176.83791730 0 4975.70776803 0 363.00220251 0 1723.21423836 0 11575
0.10350000 0.10349800 17903.88367131 0 161.54613605 0 5409.45075778 0 1090.04074740 0 1493.93868540 0 11364
0.10450000 0.10450100 17757.64280530 0 345.12507159 0 5517.73194627 0 602.72818846 0 2656.27817424 0 12093
0.10550000 0.10551000 17411.09354326 0 587.79273583 0 5821.12835015 0 725.31085687 0 2890.98296150 0 12067
0.10650000 0.10649700 16685.39713207 0 693.97979109 0 5379.61807074 0 44.21959591 0 3627.65024781 0 12054
0.10750000 0.10749900 16437.87800297 0 476.63618888 0 5919.88870748 0 278.33424901 0 3842.94243126 0 12807
0.10850000 0.10850100 15970.60415208 0 437.20511018 0 6103.26868350 0 -983.23995261 0 3625.57072742 0 12736
0.10950000 0.10950300 15800.98273255 0 313.76702824 0 6295.57373621 0 -22.62327088 0 2885.49752395 0 12933
0.11050000 0.11050200 15387.43919216 0 236.64829577 0 6609.31153876 0 -490.29245545 0 2669.17120063 0 13428
0.11150000 0.11150900 15197.92182084 0 362.33563192 0 6334.83732921 0 -385.83646041 0 2074.02370703 0 13453
0.11250000 0.11250000 15019.19547421 0 324.58053425 0 6685.88285154 0 71.10374786 0 1180.93152515 0 13668
0.11350000 0.11349100 14891.83890143 0 92.69512700 0 6664.88531597 0 -216.10151030 0 1739.27712826 0 13791
0.11450000 0.11448600 14718.05844113 0 -20.63918362 0 6107.34903972 0 569.45586229 0 865.41994791 0 14205
0.11550000 0.11549300 14970.74826956 0 -387.18309036 0 5507.07580938 0 953.61184541 0 1259.72848677 0 14776
0.11650000 0.11649800 14692.54216397 0 -180.70919741 0 4300.47063796 0 1187.73211884 0 -219.04880892 0 14553
0.11750000 0.11747300 15168.47131592 0 102.06510864 0 3807.15219933 0 648.22247416 0 -638.43973583 0 14568
0.11850000 0.11849100 14664.77775667 0 373.82807323 0 3591.17433619 0 -25.33766322 0 -260.76398785 0 16015
0.11950000 0.11950300 14525.28128109 0 449.25171557 0 3711.97760959 0 -228.79220498 0 -426.57370272 0 15270
0.12050000 0.12050700 14167.04174230 0 184.63668078 0 3960.68824767 0 -361.85453207 0 107.73095864 0 15999
0.12150000 0.12150000 14227.96606926 0 184.97502436 0 4794.54220019 0 -37.45587155 0 409.19565669 0 15670
0.12250000 0.12250700 14037.09981985 0 155.83476141 0 4993.53544008 0 11.41420638 0 1322.04665442 0 16887
0.12350000 0.12352200 14095.77601666 0 334.33966721 0 5888.83078951 0 58.01299842 0 1836.41883187 0 16407
0.12450000 0.12449800 14005.51359129 0 245.28898399 0 5855.82823896 0 428.79035904 0 2697.53136242 0 16306
0.12550000 0.12549900 13602.87348211 0 183.19900155 0 6200.28673996 0 394.27931317 0 2429.10462297 0 17523
0.12650000 0.12650100 13619.06001916 0 206.81336060 0 5774.59205613 0 301.57092220 0 2266.94699552 0 17154
0.12750000 0.12750600 13466.97401477 0 108.29827428 0 5904.92740135 0 141.02970033 0 2069.02161745 0 18007
0.12850000 0.12850300 13424.82157453 0 21.97097592 0 5091.84617138 0 -83.11809258 0 1257.57028183 0 17496
0.12950000 0.12949900 13357.82729617 0 19.61448590 0 5777.26733100 0 -128.32888907 0 1387.59088884 0 18405
0.13050000 0.13049000 13589.27229472 0 -147.73699662 0 4705.40383990 0 243.70742443 0 268.80105313 0 18100
0.13150000 0.13148800 13296.79056270 0 143.79714854 0 5285.01675419 0 -75.68757282 0 324.65921880 0 19059
0.13250000 0.13249300 13475.96653536 0 275.95460325 0 4812.65088852 0 -158.94729760 0 -241.79651381 0 18957
0.13350000 0.13349100 12954.06312192 0 236.92256765 0 5511.41470056 0 -103.56494866 0 126.95640562 0 19468
0.13450000 0.13450700 13061.97336893 0 175.98137971 0 5432.77510805 0 -48.81376227 0 102.36343551 0 19953
0.13550000 0.13551000 12791.86053187 0 88.77225230 0 5041.61170326 0 241.93477381 0 137.88456626 0 19956
0.13650000 0.13649900 12719.24592815 0 169.14481594 0 5049.07549535 0 276.55035774 0 -575.78884491 0 19723
0.13750000 0.13749600 12452.61769281 0 400.00305252 0 4632.66558902 0 174.75390065 0 -935.16593756 0 20946
0.13850000 0.13851100 12024.34889996 0 490.53750164 0 4315.64551645 0 449.81149998 0 -348.00605037 0 20955
0.13950000 0.13949800 11491.09242928 0 455.29693753 0 4089.07896032 0 688.75513663 0 -565.57783779 0 20506
0.14050000 0.14048300 11297.07879766 0 283.85228445 0 3463.48054388 0 927.73923963 0 -441.87110430 0 21447
0.14150000 0.14148400 10993.86224419 0 49.62960870 0 3203.14707295 0 802.93204643 0 -653.42127512 0 21771
0.14250000 0.14249400 11096.92777074 0 -40.61303312 0 2913.84644509 0 383.15444114 0 -148.56768071 0 22470
0.14350000 0.14350900 11047.04176280 0 -22.87056520 0 3110.22061336 0 11.81527280 0 -62.23611090 0 22519
0.14450000 0.14449900 11177.74804950 0 38.95604880 0 3222.95309954 0 -197.65897465 0 78.34295174 0 22218
0.14550000 0.14550500 11266.27941466 0 117.99985511 0 3281.40448334 0 -421.91108080 0 -258.00440810 0 23559
0.14650000 0.14650700 11253.80229235 0 133.31973799 0 3769.54098199 0 -493.07788871 0 -340.86036870 0 23044
0.14750000 0.14750500 11107.49398243 0 86.02559930 0 4178.63322469 0 -309.68442390 0 -127.02160139 0 23649
0.14850000 0.14849900 11192.23724829 0 45.30791571 0 4229.91307333 0 -155.38176318 0 -269.96446048 0 23640
0.14950000 0.14949500 11087.50810543 0 105.94313314 0 4268.41230208 0 158.68539043 0 -268.15134351 0 24457
0.15050000 0.15050000 11059.00181518 0 194.81846221 0 4130.56820217 0 189.94339199 0 -298.44714536 0 24591
0.15150000 0.15149900 10863.98776565 0 258.99920569 0 4094.93533935 0 301.11904804 0 -120.06476265 0 25020
0.15250000 0.15250500 10541.49349617 0 300.36929664 0 3916.77102526 0 150.77084825 0 -350.44976784 0 25297
0.15350000 0.15350100 10303.41651369 0 198.29519548 0 3842.79630280 0 444.44184112 0 -198.36601158 0 25452
0.15450000 0.15450400 10053.95275202 0 227.52425958 0 3763.59467775 0 176.42650948 0 -108.03366936 0 26061
0.15550000 0.15549900 9946.32352127 0 75.24446637 0 3417.70861411 0 324.63786157 0 -126.22351519 0 26128
0.15650000 0.15649500 9824.19385108 0 115.54152480 0 3444.56252870 0 396.11153924 0 137.16291648 0 26331
0.15750000 0.15749700 9747.53261309 0 145.48999054 0 3115.22270294 0 249.92912461 0 205.46223439 0 27345
0.15850000 0.15849900 9621.10901432 0 117.47828892 0 3390.91090276 0 72.96081576 0 720.52683592 0 26980
0.15950000 0.15949700 9562.71383377 0 206.88305264 0 3423.02544190 0 171.25805828 0 923.65888341 0 27777
0.16050000 0.16050000 9418.13658407 0 202.50706731 0 3283.20298746 0 -48.45833289 0 964.45457711 0 28224
0.16150000 0.16150500 9227.24785336 0 144.01409310 0 3478.86899473 0 192.55459515 0 1298.68858221 0 28075
0.16250000 0.16249700 9129.17317573 0 116.03049311 0 3351.47870000 0 168.27928583 0 1008.86076782 0 28590
0.16350000 0.16349900 9035.48235189 0 8.10165405 0 3238.11673738 0 312.43950739 0 975.42432816 0 29163
0.16450000 0.16449100 8987.88943669 0 75.78345557 0 3176.48424942 0 167.10688596 0 726.39108341 0 28996
0.16550000 0.16550500 8915.60081184 0 146.04190649 0 2941.57713044 0 1.44658182 0 716.53078459 0 30777
0.16650000 0.16650700 8760.78332932 0 208.42864211 0 2786.05148693 0 -105.33287821 0 489.13579249 0 29211
0.16750000 0.16749900 8650.25401068 0 201.55273606 0 3166.35642311 0 -15.89495457 0 884.64820505 0 30922
0.16850000 0.16850800 8516.10808486 0 126.07963486 0 2893.32101686 0 111.08393234 0 115.91021814 0 30867
0.16950000 0.16949900 8470.95439087 0 46.29259672 0 2930.66245858 0 0.73913461 0 221.70609876 0 30852
0.17050000 0.17049200 8366.30393257 0 61.80559398 0 2857.41837842 0 -74.14265778 0 -191.24393528 0 31257
0.17150000 0.17149500 8375.36389706 0 89.97432749 0 2883.62033527 0 -56.88252618 0 -79.15362747 0 32608
0.17250000 0.17250900 8395.74319683 0 10.31261137 0 2792.36873264 0 120.01867598 0 -48.46676338 0 32361
0.17350000 0.17350400 8243.76959895 0 52.14447949 0 2604.07659225 0 40.79007337 0 -459.04457049 0 32508
0.17450000 0.17449800 8316.81134740 0 21.14602456 0 2485.83618721 0 361.22842783 0 -120.25248152 0 32791
0.17550000 0.17549800 8192.55719422 0 52.08220628 0 2340.94419928 0 259.42522635 0 -397.83810319 0 33633
0.17650000 0.17650100 8167.70411545 0 160.78064773 0 2174.50388391 0 84.60545548 0 -200.74453327 0 33984
0.17750000 0.17750300 8126.83310940 0 89.50323182 0 2521.91867605 0 46.65904193 0 -53.74627222 0 34069
0.17850000 0.17849800 8058.24265864 0 94.42360186 0 2386.69364776 0 -29.68925634 0 261.42493812 0 34536
