### header ###
fiducial parameters:
Omega_m = 0.31
Omega_nu = 0
Omega_de = 0.69
Omega_k = 0
H_0 = 100
w_de = -1
zeff = 0
beta = 0
fgrowth = 0
b_1 = 2
gamma = 0.55
Lx = 3500 Ly = 3500 Lz = 3500
nx = 700 ny = 700 nz = 700
xoffset = 857.220397 yoffset = 15.9954215 zoffset = 262.898189
bins = 400 dk = 0.001
kx_ny = 0.628318531 ky_ny = 0.628318531 kz_ny = 0.628318531
############################
A(data) = 3.08927646 (not used)
A(ran) = 3.08530454 (used)
Ngal = 188202
weighted Ngal = 0
Nran = 9360983
weighted Nran = 0
SN(data) = 3453.87542
SN(ran) = 69.2843447
SN(data+ran) = 3523.15977
############################
13 columns: k_central k_mean P_0(k) sigma^{lin}_{P_0(k)} P^img_1(k) sigma^{lin}_{P_1(k)} P_2(k) sigma^{lin}_{P_2(k)} P^img_3(k) sigma^{lin}_{P_3(k)} P_4(k) sigma^{lin}_{P_4(k)} N_modes
### header ###
0.00050000 0 0 0 0 0 0 0 0 0 0 0 0
0.00150000 0.00179520 11121.11765112 0 -23253.87138672 0 -30331.32230648 0 33182.62577090 0 47722.18267842 0 3
0.00250000 0.00253879 23600.30824225 0 -27828.02938869 0 4783.05425515 0 -35372.86656583 0 -16938.76139955 0 6
0.00350000 0.00331552 44220.71997572 0 -26414.96718529 0 -7827.05619505 0 -11669.81877590 0 -37606.94589862 0 7
0.00450000 0.00420575 69151.47163849 0 -22539.75284578 0 14275.28920884 0 -36064.61621182 0 13058.03914118 0 24
0.00550000 0.00557378 78239.87497402 0 4220.59457387 0 25248.63726544 0 -34092.21922805 0 23200.81551527 0 45
0.00650000 0.00659388 89536.72895867 0 11120.37576817 0 61972.51764264 0 19720.59764245 0 69807.47601515 0 40
0.00750000 0.00754703 76462.72809345 0 -7135.31778972 0 11236.08702679 0 81773.14871829 0 31863.42300111 0 57
0.00850000 0.00846663 82074.39815788 0 -15975.10041238 0 12516.68940197 0 65816.70778613 0 29125.20048304 0 75
0.00950000 0.00948925 113194.47692615 0 -31874.66365184 0 -57679.93794149 0 87099.19384765 0 10119.11480431 0 112
0.01050000 0.01054430 106487.63026100 0 -10568.20128231 0 -68383.17316103 0 21744.70161958 0 24821.26772465 0 105
0.01150000 0.01145670 120643.65616558 0 -1121.08630066 0 -90267.14644317 0 -16678.42792862 0 28423.10943838 0 144
0.01250000 0.01249090 107046.06578932 0 10420.40920650 0 -68355.18394071 0 -34975.39715599 0 55359.64281759 0 169
0.01350000 0.01339930 98919.18771732 0 15103.50035470 0 -67211.11050931 0 -37768.58645613 0 40707.79180927 0 180
0.01450000 0.01448870 89644.07717315 0 7818.37841269 0 -42276.19980576 0 -13982.35785079 0 70008.34644372 0 267
0.01550000 0.01550050 68567.07020699 0 2019.09064690 0 -23939.66348782 0 10138.42624226 0 30343.91183530 0 238
0.01650000 0.01653350 82631.25999510 0 566.11401683 0 -24446.95405531 0 6221.26179423 0 70358.60512049 0 315
0.01750000 0.01747870 77838.58374292 0 -2050.92416977 0 -21032.49398926 0 8696.52052909 0 40242.76608853 0 297
0.01850000 0.01844180 81519.33482479 0 75.92070392 0 -15999.26781145 0 -548.25037469 0 65004.90799034 0 388
0.01950000 0.01947590 83560.97421706 0 822.19290146 0 -3327.31130093 0 -18232.89751820 0 41893.45564837 0 399
0.02050000 0.02045430 81889.71426637 0 4775.02843053 0 10534.41188621 0 -23196.99369402 0 20162.13040316 0 462
0.02150000 0.02154770 81637.81128349 0 6401.12344657 0 19963.73291776 0 -25908.57586986 0 13048.70940107 0 571
0.02250000 0.02255340 75575.61593776 0 4882.11811004 0 23594.12588435 0 -15920.58325633 0 155.08388594 0 510
0.02350000 0.02348930 76740.70938603 0 2525.98779162 0 24728.19513660 0 -3027.80416220 0 -9719.62207733 0 555
0.02450000 0.02439640 72722.17674970 0 -586.15160082 0 25767.16848367 0 10758.85395936 0 -22227.48756848 0 592
0.02550000 0.02547300 70759.10950604 0 3059.28922490 0 10501.98260885 0 9068.43993983 0 -23249.48753294 0 837
0.02650000 0.02652900 69016.80864273 0 3060.61562168 0 2045.91083955 0 8883.02540602 0 -27488.78654962 0 723
0.02750000 0.02749970 60353.86393737 0 3356.12108875 0 -1535.30428009 0 1667.08966926 0 -11459.95582675 0 826
0.02850000 0.02848090 62438.55502194 0 1331.26398802 0 -326.27112812 0 -5294.59378861 0 -23112.57640703 0 831
0.02950000 0.02946900 61667.22156878 0 -235.48151623 0 4618.58105365 0 -11085.19253138 0 -17487.64237474 0 996
0.03050000 0.03053250 62624.81260456 0 1066.35782038 0 9823.31708032 0 -10740.49797672 0 -15623.26804450 0 1041
0.03150000 0.03150510 61086.30473901 0 1981.62555802 0 15928.22689883 0 -8692.21535986 0 -21094.87960082 0 1036
0.03250000 0.03246190 61615.06494939 0 2660.34728981 0 23957.42371598 0 -2365.16780161 0 -8615.94754465 0 1059
0.03350000 0.03345080 58945.74762030 0 3901.82095979 0 20997.87278501 0 2142.41182607 0 -21932.75770631 0 1302
0.03450000 0.03451200 58360.55934325 0 1731.04897192 0 24505.74265863 0 6425.00982938 0 -6834.79899242 0 1339
0.03550000 0.03553350 56756.96810996 0 1184.31496102 0 19025.13858172 0 3680.88596967 0 -16234.98425728 0 1365
0.03650000 0.03647120 54300.88592524 0 924.34681124 0 22155.54740380 0 6432.50734341 0 -12776.57324687 0 1308
0.03750000 0.03744890 54645.52427665 0 764.11470726 0 18470.30006164 0 689.08111550 0 -11505.14324269 0 1579
0.03850000 0.03847530 52861.52059914 0 774.81805489 0 16205.87097188 0 5074.79410422 0 -9700.80522800 0 1662
0.03950000 0.03950240 52464.83803484 0 1618.60874266 0 16746.54627205 0 3434.80564387 0 -11246.83308889 0 1683
0.04050000 0.04050350 50017.18633817 0 1625.03839488 0 11290.22200071 0 4969.08702474 0 -10268.48057122 0 1822
0.04150000 0.04152450 47164.98362169 0 2370.68696112 0 9855.66767312 0 8617.83597398 0 -3670.13990757 0 1887
0.04250000 0.04250150 46068.79536240 0 704.06153073 0 7003.95954527 0 3749.47642043 0 -4479.02837483 0 1920
0.04350000 0.04349210 45913.67438231 0 -138.16333439 0 8259.59643518 0 5135.48237752 0 4365.79005936 0 2005
0.04450000 0.04448520 47261.31599845 0 584.41604435 0 12022.88761536 0 -1901.16498008 0 5849.14005178 0 2151
0.04550000 0.04548030 46140.06108804 0 855.43600193 0 11734.56492411 0 -892.60321357 0 12177.33415640 0 2274
0.04650000 0.04648670 45168.64405186 0 2231.17924490 0 17111.75501430 0 -3337.14687032 0 13693.81034652 0 2311
0.04750000 0.04749250 42415.13424880 0 2350.36386460 0 16059.74251238 0 -247.27071072 0 12412.60097620 0 2568
0.04850000 0.04851840 41128.75417915 0 1758.44243775 0 17669.40369706 0 524.07847936 0 9497.13587741 0 2493
0.04950000 0.04949480 38611.07322842 0 1157.14630820 0 10965.72689541 0 2693.11378669 0 5143.81169971 0 2644
0.05050000 0.05050630 38036.45116305 0 405.41767398 0 12337.17620980 0 697.03724809 0 -214.62336473 0 2829
0.05150000 0.05149060 37921.34689956 0 192.34551905 0 10588.15343736 0 -2077.80056567 0 -1974.00439682 0 2784
0.05250000 0.05249300 37274.33504349 0 946.25596358 0 11024.97636542 0 -2572.27679133 0 -6617.40480729 0 3055
0.05350000 0.05348950 36605.40391849 0 1563.93421750 0 14394.77732611 0 -4421.47624308 0 -5575.32904062 0 3009
0.05450000 0.05448610 35859.58674249 0 1679.66795743 0 17384.34079452 0 -1100.93743422 0 -914.51348998 0 3336
0.05550000 0.05550870 34671.33755371 0 1214.77712450 0 20772.61014436 0 2205.66296774 0 1133.30488800 0 3349
0.05650000 0.05647670 35453.57443808 0 701.31094350 0 18469.06359006 0 3015.55185290 0 2993.87987830 0 3324
0.05750000 0.05747970 33673.05536229 0 424.72573974 0 17790.57791194 0 4140.38129025 0 637.90243272 0 3639
0.05850000 0.05849280 34028.37233190 0 294.85238526 0 16988.33266927 0 2401.01423679 0 4110.82961948 0 3846
0.05950000 0.05951020 32588.22016025 0 311.83700851 0 13116.94015101 0 3090.30218027 0 2588.75558530 0 3787
0.06050000 0.06049470 33226.46430875 0 -262.94130190 0 11068.11798292 0 956.08366451 0 1577.70401465 0 3930
0.06150000 0.06148310 32365.88008879 0 -173.28699573 0 7899.60335487 0 357.60893829 0 -991.28713447 0 4083
0.06250000 0.06249100 33594.59562019 0 139.20646678 0 8899.59412520 0 871.99460452 0 -1351.55336259 0 4303
0.06350000 0.06350600 32495.70960473 0 327.52670880 0 7887.95804071 0 424.25812867 0 -965.64046576 0 4470
0.06450000 0.06451750 32218.17793818 0 -21.95433976 0 8687.89894998 0 108.36976482 0 764.02590612 0 4479
0.06550000 0.06550280 33476.11916149 0 -236.46057691 0 10788.02344801 0 816.06000242 0 2429.83526526 0 4636
0.06650000 0.06648880 33641.35672723 0 264.77352797 0 8330.51370064 0 2420.12334303 0 1088.39286800 0 4653
0.06750000 0.06749660 32720.41021284 0 305.46131142 0 9593.56942003 0 1479.15722969 0 2961.87774566 0 5220
0.06850000 0.06852730 32064.18102317 0 805.53088488 0 9040.55188537 0 723.83046317 0 2597.01746359 0 5029
0.06950000 0.06949320 31915.80443352 0 736.28060792 0 8904.97839690 0 183.48339001 0 3731.85108009 0 5040
0.07050000 0.07048030 30598.84979387 0 248.20480879 0 6696.23549086 0 2270.54400376 0 2021.20388924 0 5475
0.07150000 0.07148790 31185.27454251 0 -105.78655087 0 7368.52757043 0 -221.95901340 0 1378.48596174 0 5509
0.07250000 0.07249820 30447.66304154 0 59.24845834 0 6679.20590501 0 1445.23294578 0 1543.06032910 0 5916
0.07350000 0.07351270 30632.23452655 0 595.75561281 0 5373.59308195 0 -108.47385325 0 934.57805153 0 5721
0.07450000 0.07449140 29642.72004270 0 763.10417276 0 3190.77111650 0 294.25213451 0 -1242.53029115 0 6028
0.07550000 0.07549160 28881.72798821 0 1347.92263241 0 5302.42852217 0 -801.42355110 0 -1462.55478856 0 6183
0.07650000 0.07648840 27414.37344179 0 1589.94508330 0 4380.38042401 0 -1980.95111897 0 -2863.57825502 0 6330
0.07750000 0.07749960 26232.41901742 0 1039.15881780 0 6640.80784211 0 -1558.88716533 0 -2318.38421327 0 6583
0.07850000 0.07848650 25545.05322522 0 1239.59648131 0 6243.29346966 0 -1263.97745275 0 -2220.11844458 0 6549
0.07950000 0.07947320 25792.79716733 0 149.10948008 0 8136.65743814 0 -57.92509653 0 -876.38969896 0 6828
0.08050000 0.08048110 25406.11878219 0 -214.55030050 0 8261.69843687 0 1244.31755462 0 -350.29689499 0 7147
0.08150000 0.08149960 26263.78043296 0 -363.81827375 0 9288.93654457 0 1285.33468914 0 1645.33901010 0 7386
0.08250000 0.08250610 26289.74633615 0 -336.77776436 0 9149.08036817 0 1891.47553915 0 1521.52324230 0 7227
0.08350000 0.08350160 26927.76567164 0 -66.03803620 0 9983.23781827 0 1040.41552255 0 3960.98050459 0 7798
0.08450000 0.08449610 26697.21992515 0 246.14102532 0 9618.77095897 0 853.77463375 0 3402.54497627 0 7371
0.08550000 0.08548940 26197.01096762 0 650.89100464 0 8806.53277780 0 -532.30438756 0 2977.85071035 0 8256
0.08650000 0.08650700 25604.74108060 0 1032.54032265 0 9965.34270231 0 -630.52519365 0 3097.19269916 0 8037
0.08750000 0.08749060 24902.08800341 0 1251.19683287 0 9710.78692585 0 -499.59296987 0 2643.19405679 0 8155
0.08850000 0.08849210 24047.23651532 0 830.94712025 0 10643.04153488 0 127.39254286 0 2675.60085285 0 8718
0.08950000 0.08949900 23382.57683759 0 620.65253011 0 9260.14923805 0 568.00694241 0 2388.30106081 0 8571
0.09050000 0.09049190 22594.04518881 0 322.06487661 0 9275.36907914 0 1968.47399666 0 2846.91961064 0 8932
0.09150000 0.09150830 22572.91276544 0 153.02797092 0 7813.99455890 0 2234.94486289 0 3156.34100331 0 9285
0.09250000 0.09250820 21822.03729661 0 228.47409456 0 6616.40438937 0 2849.26890664 0 1711.71505266 0 9204
0.09350000 0.09350330 21547.31579274 0 611.46329814 0 4902.25011550 0 858.18883729 0 2653.65910262 0 9349
0.09450000 0.09448040 20692.80152417 0 587.70843095 0 4958.68942282 0 1091.70099151 0 515.13766576 0 9564
0.09550000 0.09549270 19831.99249119 0 649.77143583 0 3909.49832424 0 -404.90397624 0 178.33742011 0 10155
0.09650000 0.09649430 19610.77648481 0 595.08791815 0 4263.84859788 0 -1366.60459392 0 -635.97241299 0 9913
0.09750000 0.09749140 18927.23251386 0 587.01151060 0 5112.33787766 0 -946.30317431 0 -243.47024670 0 10476
0.09850000 0.09850240 18768.17730601 0 797.40277034 0 5736.60989731 0 -1062.55510823 0 419.59325862 0 10575
0.09950000 0.09950330 18311.91929284 0 526.45924918 0 6980.10688442 0 -1086.04244794 0 292.18385478 0 10882
0.10050000 0.10051200 17938.39246905 0 269.95321983 0 6336.21992925 0 524.92152816 0 931.63075291 0 10875
0.10150000 0.10150300 18312.03169935 0 -13.97471421 0 8045.96786804 0 860.34029784 0 1131.39397738 0 11118
0.10250000 0.10250800 18309.78356920 0 -190.32894631 0 6652.83533839 0 941.25724620 0 1142.11755817 0 11575
0.10350000 0.10349800 17960.76136401 0 287.84496359 0 7180.55016826 0 1000.25042936 0 846.03319759 0 11364
0.10450000 0.10450100 17779.44966772 0 786.32623311 0 6400.97731811 0 -186.74879905 0 359.87617754 0 12093
0.10550000 0.10551000 17021.15536940 0 773.29607078 0 6003.14820744 0 -285.96777492 0 485.41288897 0 12067
0.10650000 0.10649700 16393.14021306 0 664.58324130 0 6129.00977368 0 -84.26373970 0 1188.40655788 0 12054
0.10750000 0.10749900 16169.90088955 0 162.05308939 0 6781.69815837 0 -72.59515740 0 445.07131756 0 12807
0.10850000 0.10850100 16068.84743947 0 191.62724147 0 6430.20301001 0 482.23403295 0 576.67685632 0 12736
0.10950000 0.10950300 16041.08303217 0 -39.17175689 0 6737.44371644 0 92.44243717 0 510.26709180 0 12933
0.11050000 0.11050200 15830.99527001 0 39.58597487 0 6208.64978410 0 458.14869062 0 356.77375794 0 13428
0.11150000 0.11150900 16053.11052845 0 106.53023233 0 6692.17761595 0 385.40369535 0 1067.11544024 0 13453
0.11250000 0.11250000 15654.06742750 0 82.13307435 0 5624.04602089 0 208.16223869 0 -578.10666709 0 13668
0.11350000 0.11349100 15736.79861688 0 134.04026371 0 5639.45695304 0 417.56881742 0 326.87699919 0 13791
0.11450000 0.11448600 15450.94886879 0 236.99338375 0 5229.89260301 0 284.47501650 0 -492.92838805 0 14205
0.11550000 0.11549300 15289.75793731 0 78.13072826 0 4913.87294835 0 548.04916704 0 153.48883760 0 14776
0.11650000 0.11649800 15284.81205099 0 131.19188281 0 5678.04610700 0 493.25549099 0 622.64999375 0 14553
0.11750000 0.11747300 15192.97593451 0 223.98682679 0 5548.02549999 0 452.91729177 0 993.74771291 0 14568
0.11850000 0.11849100 14971.42270861 0 214.18385529 0 5955.63397680 0 795.55368329 0 2761.15344556 0 16015
0.11950000 0.11950300 14839.68228204 0 315.33285089 0 5805.82982451 0 372.11050180 0 2455.38526438 0 15270
0.12050000 0.12050700 14724.12839253 0 194.62062676 0 5818.39687203 0 340.44783682 0 3498.74246523 0 15999
0.12150000 0.12150000 14470.65171854 0 141.71987629 0 5758.46172233 0 -38.62703495 0 2751.44152333 0 15670
0.12250000 0.12250700 14502.91238614 0 -51.47251339 0 5391.00484993 0 -402.63898512 0 2584.94500470 0 16887
0.12350000 0.12352200 14641.50960965 0 37.61189178 0 5706.12525253 0 -715.23024130 0 1379.21660404 0 16407
0.12450000 0.12449800 14693.66622904 0 74.47976490 0 5552.42059443 0 -832.63096973 0 906.32917218 0 16306
0.12550000 0.12549900 14660.16908987 0 90.30716316 0 5708.84549000 0 -342.89267835 0 86.84594199 0 17523
0.12650000 0.12650100 14575.41458335 0 304.89141043 0 6103.43729326 0 -270.58831659 0 -676.67593335 0 17154
0.12750000 0.12750600 14298.33254284 0 277.44623760 0 6225.28594719 0 348.63552681 0 -934.31389624 0 18007
0.12850000 0.12850300 13833.64404162 0 385.47338739 0 5880.55767057 0 350.33848540 0 -1085.80639427 0 17496
0.12950000 0.12949900 13683.01932182 0 188.18535421 0 5507.68280452 0 655.04217696 0 -928.10568484 0 18405
0.13050000 0.13049000 13383.79319936 0 148.55868819 0 4859.26586710 0 822.71559172 0 -1089.97779976 0 18100
0.13150000 0.13148800 13184.04683587 0 -79.18195391 0 4034.07845629 0 1214.79960580 0 -681.13285137 0 19059
0.13250000 0.13249300 13319.72149020 0 -17.95008275 0 3407.96296992 0 973.72811396 0 -810.59817023 0 18957
0.13350000 0.13349100 13086.47798753 0 117.86159511 0 2816.08650568 0 877.79815249 0 -877.91280713 0 19468
0.13450000 0.13450700 12955.97403254 0 306.38416884 0 2611.50666238 0 445.51195107 0 -428.74090018 0 19953
0.13550000 0.13551000 12498.70436080 0 409.57559069 0 2300.83755748 0 207.04266988 0 -176.45461111 0 19956
0.13650000 0.13649900 12359.09547872 0 344.25841742 0 2840.52368037 0 -112.67740699 0 251.30947652 0 19723
0.13750000 0.13749600 11953.08317432 0 306.13350233 0 2905.29230988 0 -362.81560771 0 83.16148149 0 20946
0.13850000 0.13851100 11988.04159809 0 135.20479512 0 3425.99297370 0 -263.83718176 0 851.22413010 0 20955
0.13950000 0.13949800 11890.13553023 0 105.11503440 0 3219.29988805 0 -627.80720430 0 10.66179094 0 20506
0.14050000 0.14048300 11894.18216449 0 135.09126455 0 3868.44746777 0 -281.41306325 0 330.42792076 0 21447
0.14150000 0.14148400 11682.63311773 0 128.29741525 0 3628.53825922 0 -161.60795962 0 -388.54658130 0 21771
0.14250000 0.14249400 11555.83857749 0 202.12038892 0 3694.38599120 0 191.95097221 0 -826.16309930 0 22470
0.14350000 0.14350900 11515.59704787 0 196.38428486 0 3345.36378600 0 300.46146997 0 -822.43457545 0 22519
0.14450000 0.14449900 11025.72948901 0 254.53104702 0 2967.17209216 0 590.17575378 0 -1243.17100824 0 22218
0.14550000 0.14550500 10908.03987586 0 211.32423374 0 2537.99280660 0 749.75140376 0 -810.02714517 0 23559
0.14650000 0.14650700 10753.08750553 0 144.80543491 0 2184.78907933 0 642.40094115 0 -771.15809901 0 23044
0.14750000 0.14750500 10506.04048377 0 144.90098044 0 1934.39234365 0 580.13672862 0 -251.35106693 0 23649
0.14850000 0.14849900 10433.22354833 0 168.77162634 0 1905.85233144 0 245.82853523 0 -297.02969931 0 23640
0.14950000 0.14949500 10315.21919696 0 85.85597788 0 1948.96022699 0 -406.74969109 0 530.33165336 0 24457
0.15050000 0.15050000 10337.13846588 0 88.92051649 0 2457.13880589 0 -244.38523567 0 804.69795266 0 24591
0.15150000 0.15149900 10339.26294887 0 65.53153248 0 2818.34587648 0 -298.55730374 0 893.95546385 0 25020
0.15250000 0.15250500 10345.27669701 0 100.90327498 0 2893.06248189 0 -297.66479607 0 986.54357986 0 25297
0.15350000 0.15350100 10370.42203270 0 194.47449830 0 3623.49120704 0 -193.62245697 0 1085.54785930 0 25452
0.15450000 0.15450400 10096.66722480 0 265.33218831 0 3097.90086016 0 21.93354455 0 1050.48714561 0 26061
0.15550000 0.15549900 9895.81927754 0 267.67136773 0 3806.72505461 0 419.51907032 0 1155.01058456 0 26128
0.15650000 0.15649500 9683.17988766 0 202.47671755 0 2731.11842681 0 330.34136775 0 907.45548538 0 26331
0.15750000 0.15749700 9451.92598017 0 186.92977353 0 2986.28119840 0 464.60194821 0 685.65496516 0 27345
0.15850000 0.15849900 9358.74098561 0 75.26469954 0 2638.09080136 0 -4.89650614 0 984.78216989 0 26980
0.15950000 0.15949700 9360.37087996 0 66.47698361 0 2624.48961397 0 -58.18070893 0 565.99936219 0 27777
0.16050000 0.16050000 9354.50326028 0 24.80822857 0 2767.54937583 0 -247.61017837 0 674.04000076 0 28224
0.16150000 0.16150500 9327.00862860 0 92.12477638 0 2801.54110364 0 -306.96868268 0 224.68711933 0 28075
0.16250000 0.16249700 9402.39967305 0 80.84635707 0 3117.49331438 0 8.31775556 0 426.62316158 0 28590
0.16350000 0.16349900 9128.85843751 0 183.01802707 0 3019.95818799 0 307.26206367 0 540.10315104 0 29163
0.16450000 0.16449100 9082.38958739 0 198.54136573 0 3061.05400706 0 255.24482834 0 409.18441604 0 28996
0.16550000 0.16550500 8890.71401112 0 98.33197612 0 2802.75509392 0 404.55101981 0 -22.19522690 0 30777
0.16650000 0.16650700 8769.59599950 0 84.23462642 0 2520.18761584 0 180.81598359 0 -22.28020622 0 29211
0.16750000 0.16749900 8757.50105931 0 -10.13562732 0 2178.92145965 0 -4.35044657 0 -238.18601679 0 30922
0.16850000 0.16850800 8689.93350777 0 38.25002353 0 2294.03696378 0 -258.25844680 0 -539.38487346 0 30867
0.16950000 0.16949900 8778.27378186 0 -11.91340368 0 2137.94928773 0 -137.74293406 0 -567.34936435 0 30852
0.17050000 0.17049200 8756.63552920 0 48.21609687 0 2176.16750022 0 97.90033514 0 -711.20833647 0 31257
0.17150000 0.17149500 8808.62353883 0 17.48179724 0 2133.00340141 0 322.55384492 0 -427.30434502 0 32608
0.17250000 0.17250900 8785.25422596 0 36.68420088 0 2047.79926887 0 402.29614527 0 -173.85127640 0 32361
0.17350000 0.17350400 8700.25242514 0 49.64759374 0 1899.01801580 0 602.71469968 0 -184.40737150 0 32508
0.17450000 0.17449800 8624.25438554 0 150.01435246 0 1862.15992205 0 432.43907427 0 500.61137283 0 32791
0.17550000 0.17549800 8509.93696761 0 203.98408882 0 1724.37202539 0 57.99501338 0 667.36193016 0 33633
0.17650000 0.17650100 8398.77817253 0 177.80798546 0 1980.37784579 0 196.06505038 0 917.19888144 0 33984
0.17750000 0.17750300 8276.68222429 0 190.73473380 0 1719.40365776 0 -295.24131177 0 866.65079916 0 34069
