### header ###
fiducial parameters:
Omega_m = 0.31
Omega_nu = 0
Omega_de = 0.69
Omega_k = 0
H_0 = 100
w_de = -1
zeff = 0
beta = 0
fgrowth = 0
b_1 = 2
gamma = 0.55
Lx = 3500 Ly = 3500 Lz = 3500
nx = 700 ny = 700 nz = 700
xoffset = 857.220397 yoffset = 15.9954215 zoffset = 262.898189
bins = 400 dk = 0.001
kx_ny = 0.628318531 ky_ny = 0.628318531 kz_ny = 0.628318531
############################
A(data) = 3.08245597 (not used)
A(ran) = 3.08512438 (used)
Ngal = 188193
weighted Ngal = 0
Nran = 9360983
weighted Nran = 0
SN(data) = 3430.19056
SN(ran) = 69.2802992
SN(data+ran) = 3499.47086
############################
13 columns: k_central k_mean P_0(k) sigma^{lin}_{P_0(k)} P^img_1(k) sigma^{lin}_{P_1(k)} P_2(k) sigma^{lin}_{P_2(k)} P^img_3(k) sigma^{lin}_{P_3(k)} P_4(k) sigma^{lin}_{P_4(k)} N_modes
### header ###
0.00050000 0 0 0 0 0 0 0 0 0 0 0 0
0.00150000 0.00179520 25594.06246241 0 -41425.95698447 0 -30632.34693305 0 48706.07683691 0 43151.62168469 0 3
0.00250000 0.00253879 45303.41945413 0 -43307.52951033 0 360.85861042 0 -68503.89774988 0 -25836.86051820 0 6
0.00350000 0.00331552 68500.30074165 0 -38202.02594832 0 -37517.69513181 0 16831.41318506 0 14102.18318758 0 7
0.00450000 0.00420575 89795.71355151 0 -31454.48812752 0 -11217.04536446 0 -39341.15349340 0 18469.51321609 0 24
0.00550000 0.00557378 105975.50621370 0 -5486.73023156 0 -11508.40303140 0 -38881.07365898 0 15154.75772203 0 45
0.00650000 0.00659388 107212.09020061 0 5034.09170792 0 33710.82394875 0 -19683.95312107 0 6017.92966315 0 40
0.00750000 0.00754703 89538.52746278 0 23418.54691993 0 939.31710988 0 -18566.63243841 0 -1650.19497121 0 57
0.00850000 0.00846663 82106.77123199 0 16134.15562022 0 21086.22429976 0 -17012.61247485 0 -10966.19900274 0 75
0.00950000 0.00948925 64247.85016360 0 12097.97516224 0 8807.73552743 0 -14026.98323419 0 2373.27231079 0 112
0.01050000 0.01054430 68939.58537221 0 -184.32531475 0 24976.27629823 0 9761.30241024 0 2970.82530365 0 105
0.01150000 0.01145670 68658.23188442 0 -8283.42661473 0 17547.55504314 0 5634.60099192 0 -173.66917786 0 144
0.01250000 0.01249090 81408.95163461 0 -9776.00518139 0 12532.87593903 0 18025.28269920 0 10869.38327800 0 169
0.01350000 0.01339930 79554.13185749 0 -6311.26568463 0 -859.53321912 0 14895.99794220 0 14196.37984071 0 180
0.01450000 0.01448870 89470.40911935 0 -6829.41472072 0 -8276.30004217 0 15790.30411436 0 7590.58662562 0 267
0.01550000 0.01550050 105213.50250064 0 -2940.90269140 0 -18154.99980864 0 -7146.32238678 0 -1191.20547992 0 238
0.01650000 0.01653350 91454.04675385 0 4014.20498580 0 -16913.69474842 0 -15894.95457267 0 -8119.96507180 0 315
0.01750000 0.01747870 91570.49989542 0 6965.88746125 0 -16658.86919634 0 -20783.73838859 0 -1302.24062784 0 297
0.01850000 0.01844180 78097.68074227 0 5593.74122652 0 -11812.01300765 0 -18127.79743387 0 -19550.52659689 0 388
0.01950000 0.01947590 81619.71383581 0 5837.94436365 0 -11225.38592730 0 -5871.44150283 0 -21410.40466684 0 399
0.02050000 0.02045430 71917.79578339 0 5058.70873302 0 -5635.85994481 0 -2757.20797715 0 -19021.65398000 0 462
0.02150000 0.02154770 68728.37354498 0 6977.81379167 0 -7136.31820763 0 -516.71023280 0 -19931.13503064 0 571
0.02250000 0.02255340 59944.47943775 0 4617.85041135 0 9314.09312091 0 -3165.25483934 0 -11754.12365638 0 510
0.02350000 0.02348930 57510.99096100 0 4576.96816464 0 -1842.90468735 0 -3908.98125431 0 -7839.97170274 0 555
0.02450000 0.02439640 59193.94118844 0 2084.75852847 0 8255.25754400 0 -5585.04096285 0 -10988.30936273 0 592
0.02550000 0.02547300 55148.99302290 0 -9.68365199 0 4654.27011972 0 -1391.74992961 0 -5318.16543320 0 837
0.02650000 0.02652900 58210.04702996 0 -552.23406131 0 8798.77672879 0 -395.01332766 0 -8655.21113766 0 723
0.02750000 0.02749970 55934.71450899 0 -1266.70893088 0 1922.49973517 0 4127.37585736 0 -7133.37315714 0 826
0.02850000 0.02848090 56834.64100652 0 2690.46099311 0 9524.90028471 0 26.92585476 0 -11946.22637738 0 831
0.02950000 0.02946900 55667.63664762 0 4171.96751881 0 4614.25340312 0 -5964.78386650 0 -10011.14835404 0 996
0.03050000 0.03053250 52013.86312752 0 4155.35383703 0 15558.18467676 0 -4131.69226724 0 1802.77556424 0 1041
0.03150000 0.03150510 49158.96265486 0 3106.26390430 0 16226.10414320 0 -385.08108868 0 -594.17517731 0 1036
0.03250000 0.03246190 48692.47564952 0 156.29000776 0 22427.12152546 0 1764.69223956 0 11222.03621338 0 1059
0.03350000 0.03345080 49117.70946668 0 306.51456039 0 22884.16638418 0 6042.70405736 0 712.42007861 0 1302
0.03450000 0.03451200 48057.82850925 0 28.27686857 0 16564.89735623 0 8435.69246953 0 3747.52054721 0 1339
0.03550000 0.03553350 47505.35052582 0 -54.10754673 0 15263.34240809 0 3458.68078602 0 -2471.97646486 0 1365
0.03650000 0.03647120 46187.38422761 0 -383.83562458 0 5443.94831488 0 2698.80155596 0 -3963.34104124 0 1308
0.03750000 0.03744890 45071.97445558 0 90.85480766 0 3512.08511764 0 1936.03347865 0 -6941.54021177 0 1579
0.03850000 0.03847530 43675.77322828 0 448.09842481 0 992.79338167 0 -3086.72765333 0 -8574.45830281 0 1662
0.03950000 0.03950240 43462.65049042 0 1539.73309648 0 -85.94489142 0 -3453.36395823 0 -11700.50575240 0 1683
0.04050000 0.04050350 41893.00602235 0 2039.99825726 0 6105.86527382 0 -4724.07456076 0 -13974.82661480 0 1822
0.04150000 0.04152450 40327.63300155 0 2177.35900920 0 10069.03770530 0 -6738.06195223 0 -6237.07738980 0 1887
0.04250000 0.04250150 40425.87628894 0 168.90763821 0 15650.47041927 0 -2099.86596306 0 -12127.76288668 0 1920
0.04350000 0.04349210 40534.91060103 0 318.17785959 0 19252.08731998 0 -3590.39873129 0 -2218.01644289 0 2005
0.04450000 0.04448520 41867.15252566 0 -610.83157357 0 18946.11680709 0 1506.67434268 0 -4487.71739784 0 2151
0.04550000 0.04548030 42077.57750735 0 492.86431634 0 22250.19368295 0 2589.07032352 0 3347.82548851 0 2274
0.04650000 0.04648670 42330.60455530 0 1133.63086687 0 18207.49364755 0 3947.33435460 0 -526.63123114 0 2311
0.04750000 0.04749250 40684.29884924 0 1573.42132672 0 18475.24594796 0 1941.14797473 0 -234.09217180 0 2568
0.04850000 0.04851840 40681.71349957 0 1318.46088684 0 15709.03420957 0 865.99322110 0 -1342.75193307 0 2493
0.04950000 0.04949480 39971.30437338 0 226.35185970 0 19113.71490948 0 -1115.84815741 0 1368.07711917 0 2644
0.05050000 0.05050630 40044.93063566 0 -154.27905535 0 17293.40393011 0 336.30453296 0 1465.44363580 0 2829
0.05150000 0.05149060 41424.27088686 0 -619.09682405 0 18982.87373498 0 812.91374428 0 90.31806659 0 2784
0.05250000 0.05249300 40793.67038085 0 -79.41025153 0 17390.29833941 0 2409.99551672 0 -943.55595927 0 3055
0.05350000 0.05348950 41395.15760147 0 197.85681010 0 19494.32334324 0 4619.57023092 0 -821.97146064 0 3009
0.05450000 0.05448610 39752.78612316 0 986.41768457 0 14351.61322730 0 1939.31574867 0 -2905.33727249 0 3336
0.05550000 0.05550870 38042.63352095 0 976.17745176 0 14487.40028813 0 3629.47123323 0 -3987.91310374 0 3349
0.05650000 0.05647670 37635.72196449 0 1182.65134471 0 9981.51799871 0 1371.69660870 0 -5352.84284070 0 3324
0.05750000 0.05747970 35024.06917365 0 1330.24108881 0 7217.11600509 0 1961.80829078 0 -7081.00296538 0 3639
0.05850000 0.05849280 34228.56832142 0 1409.72373013 0 5558.68163689 0 555.24992790 0 -9546.24628045 0 3846
0.05950000 0.05951020 31782.49031585 0 1234.45950393 0 2889.20693869 0 260.48184752 0 -8753.29705594 0 3787
0.06050000 0.06049470 31555.99120362 0 1132.93394653 0 4379.99824189 0 35.63196357 0 -8334.87507313 0 3930
0.06150000 0.06148310 30997.89289483 0 -151.01477038 0 2528.43825348 0 -141.89972670 0 -8338.04493663 0 4083
0.06250000 0.06249100 31277.11065898 0 66.27600077 0 6579.42264847 0 -1034.99078451 0 -6768.79389133 0 4303
0.06350000 0.06350600 31090.17863733 0 464.47830105 0 6378.23748168 0 -1615.42763850 0 -6734.35253749 0 4470
0.06450000 0.06451750 31791.25802342 0 405.77737480 0 10884.36706542 0 -1416.23206690 0 -2503.91115358 0 4479
0.06550000 0.06550280 30497.12190476 0 1279.47831011 0 10723.10869003 0 -943.99322058 0 -1069.60861657 0 4636
0.06650000 0.06648880 32158.82730232 0 424.27836184 0 12269.50749240 0 767.01479515 0 640.55747443 0 4653
0.06750000 0.06749660 30561.53083345 0 -66.17269919 0 11423.64852489 0 637.51687840 0 -177.48650285 0 5220
0.06850000 0.06852730 31794.40540562 0 -305.24211873 0 12417.65926903 0 1481.15806552 0 2085.84887159 0 5029
0.06950000 0.06949320 31319.82513176 0 -772.30014912 0 10139.29177237 0 95.40210051 0 -539.52650566 0 5040
0.07050000 0.07048030 32751.09718934 0 -331.84087055 0 11601.81283898 0 1716.93071460 0 564.28066670 0 5475
0.07150000 0.07148790 32024.38911958 0 196.04818940 0 10550.24996309 0 232.45103679 0 -2270.69013222 0 5509
0.07250000 0.07249820 31891.63703445 0 1061.71430756 0 9682.89887139 0 696.31897051 0 302.87820988 0 5916
0.07350000 0.07351270 30069.19033143 0 1400.84361605 0 10273.85360227 0 1985.72839553 0 -1077.89859648 0 5721
0.07450000 0.07449140 29214.11403032 0 1638.29112209 0 8711.49307587 0 2016.80879481 0 262.98626450 0 6028
0.07550000 0.07549160 27119.64357962 0 998.80038542 0 6770.01912226 0 2409.43348419 0 -410.44898925 0 6183
0.07650000 0.07648840 26654.84267189 0 907.95007401 0 6076.01010548 0 1736.53440948 0 -600.30020790 0 6330
0.07750000 0.07749960 25479.29541844 0 566.52542465 0 6097.41230447 0 71.67600939 0 -621.76198234 0 6583
0.07850000 0.07848650 25147.58381537 0 299.29244230 0 4137.30135195 0 -191.32936422 0 -1483.79961844 0 6549
0.07950000 0.07947320 24898.49099517 0 188.70017602 0 5058.65252977 0 -973.09301720 0 -1409.69000817 0 6828
0.08050000 0.08048110 24719.65224204 0 76.76678770 0 4658.37295724 0 -1070.22685236 0 -2967.66668079 0 7147
0.08150000 0.08149960 25307.76308829 0 190.81903868 0 5536.94221837 0 -1137.01430274 0 -2733.90610819 0 7386
0.08250000 0.08250610 24809.91466741 0 428.01925040 0 6737.65728881 0 -1744.62767800 0 -3137.05204666 0 7227
0.08350000 0.08350160 24785.52245533 0 681.86798993 0 7800.15731785 0 -454.70567930 0 -1689.08762274 0 7798
0.08450000 0.08449610 24010.36718092 0 602.02789592 0 8132.00380873 0 -501.52973399 0 -1764.90581192 0 7371
0.08550000 0.08548940 24256.64983844 0 394.49400960 0 8709.16626117 0 670.49020326 0 -1105.70234606 0 8256
0.08650000 0.08650700 23399.88743972 0 397.58181636 0 9839.87455885 0 770.64777347 0 -503.90600755 0 8037
0.08750000 0.08749060 23516.22817478 0 448.09505261 0 9563.42199477 0 1165.07096697 0 1578.14240003 0 8155
0.08850000 0.08849210 22937.10984912 0 447.01370201 0 9914.78225532 0 60.69872710 0 1260.98743965 0 8718
0.08950000 0.08949900 22867.41781459 0 787.21199638 0 10254.18246349 0 -202.48795820 0 1789.08445165 0 8571
0.09050000 0.09049190 22169.71062372 0 780.98017962 0 11816.28445493 0 -139.12328597 0 3589.40955402 0 8932
0.09150000 0.09150830 21891.05489210 0 777.85415465 0 11237.15488861 0 -703.17014713 0 3230.82155505 0 9285
0.09250000 0.09250820 21473.80193696 0 768.90884480 0 12764.20853107 0 305.68724850 0 3885.15107476 0 9204
0.09350000 0.09350330 20811.50279589 0 595.07892563 0 12596.61042867 0 -144.06017977 0 3554.76586847 0 9349
0.09450000 0.09448040 20433.59211832 0 351.74581487 0 12085.49803993 0 938.14358594 0 3085.30009069 0 9564
0.09550000 0.09549270 20092.66318165 0 74.89645582 0 11546.50883738 0 629.56973834 0 2591.48706343 0 10155
0.09650000 0.09649430 19927.53802241 0 -40.16621726 0 10393.00450002 0 1644.54092390 0 1114.88033739 0 9913
0.09750000 0.09749140 19829.40714153 0 -44.79365594 0 9648.24394519 0 1493.06191465 0 728.32672346 0 10476
0.09850000 0.09850240 19318.18234628 0 132.12935308 0 8320.36339303 0 1493.27548701 0 -413.00848542 0 10575
0.09950000 0.09950330 19010.86295530 0 151.27442941 0 6891.10341194 0 1135.05842951 0 -293.83735450 0 10882
0.10050000 0.10051200 18954.09766910 0 304.15065154 0 6071.45764193 0 650.93259505 0 -1536.79928664 0 10875
0.10150000 0.10150300 18561.68655209 0 325.01667150 0 5445.03865800 0 1008.72025969 0 -1896.01676205 0 11118
0.10250000 0.10250800 17922.76796454 0 588.97974855 0 4521.46183134 0 -270.70072310 0 -1815.62362802 0 11575
0.10350000 0.10349800 17656.47694872 0 465.95532256 0 4920.90959571 0 -72.91270578 0 -2622.82599767 0 11364
0.10450000 0.10450100 17211.90921231 0 606.43085881 0 4733.30313501 0 -267.23747861 0 -2630.91926619 0 12093
0.10550000 0.10551000 16595.47192622 0 441.10224379 0 4378.91913942 0 103.15533935 0 -3189.71449533 0 12067
0.10650000 0.10649700 16300.62965755 0 491.67055923 0 4518.42685564 0 -105.17528429 0 -2555.37085263 0 12054
0.10750000 0.10749900 15711.61955924 0 334.89607942 0 4410.39296146 0 60.10600759 0 -3203.39436727 0 12807
0.10850000 0.10850100 15692.28563999 0 227.44445096 0 4760.73032280 0 -97.74015586 0 -2177.94352303 0 12736
0.10950000 0.10950300 15668.45546044 0 -19.95957388 0 4553.54264852 0 283.26439842 0 -2313.30343914 0 12933
0.11050000 0.11050200 15595.84085671 0 20.93425070 0 4673.60403898 0 196.00322680 0 -1740.65972830 0 13428
0.11150000 0.11150900 15889.89627984 0 -30.00781638 0 4863.71716479 0 299.56109385 0 -1338.05334106 0 13453
0.11250000 0.11250000 15845.27089643 0 108.52645949 0 4947.58365990 0 -233.54812430 0 -1027.41908218 0 13668
0.11350000 0.11349100 15780.63715473 0 508.69340070 0 5384.57519771 0 -145.61138957 0 0.14754141 0 13791
0.11450000 0.11448600 15515.91983002 0 336.13142694 0 5477.58034186 0 25.84191881 0 -279.01430838 0 14205
0.11550000 0.11549300 15125.75684314 0 405.44127935 0 5437.01283337 0 354.66051560 0 1027.95975748 0 14776
0.11650000 0.11649800 15027.85077528 0 293.45067611 0 5401.64974617 0 1153.06595199 0 428.52170749 0 14553
0.11750000 0.11747300 14571.25554258 0 175.04615757 0 5182.42333497 0 980.82321270 0 406.72833385 0 14568
0.11850000 0.11849100 14267.42075333 0 149.40623326 0 4323.60389717 0 1003.51134214 0 149.56585050 0 16015
0.11950000 0.11950300 14196.94187324 0 119.73091533 0 4014.21622645 0 255.82934218 0 279.66401799 0 15270
0.12050000 0.12050700 13919.85983272 0 66.47147569 0 3860.94995373 0 326.33295170 0 133.22644059 0 15999
0.12150000 0.12150000 13772.15768212 0 80.04782124 0 3554.59725871 0 -309.06843624 0 188.57540479 0 15670
0.12250000 0.12250700 13904.34773471 0 6.44828922 0 4246.12209168 0 -459.21992464 0 335.38954399 0 16887
0.12350000 0.12352200 13937.95728040 0 -5.21326768 0 4093.29420434 0 -402.22308104 0 27.77148892 0 16407
0.12450000 0.12449800 14149.84354668 0 174.40768861 0 4450.88178540 0 -111.72689757 0 879.48874636 0 16306
0.12550000 0.12549900 14097.57452078 0 35.30564747 0 4880.60062219 0 229.46327183 0 646.89158111 0 17523
0.12650000 0.12650100 13850.05539168 0 115.83827798 0 4297.66047528 0 823.80143858 0 1091.35815167 0 17154
0.12750000 0.12750600 13980.67175318 0 -22.65935337 0 4310.71087078 0 911.21885525 0 1147.92897460 0 18007
0.12850000 0.12850300 13920.42186526 0 26.78253646 0 3512.27620871 0 984.67763184 0 1175.99687948 0 17496
0.12950000 0.12949900 13858.82309925 0 75.48524111 0 3789.53809964 0 374.86558529 0 1377.03591780 0 18405
0.13050000 0.13049000 13688.52724068 0 246.81883656 0 3286.90116155 0 -153.90811387 0 1015.93563339 0 18100
0.13150000 0.13148800 13564.65526962 0 405.05347690 0 4332.03438522 0 -177.66860139 0 2315.85506685 0 19059
0.13250000 0.13249300 13300.05035142 0 346.61895407 0 4489.74071497 0 -535.52595806 0 1974.43154155 0 18957
0.13350000 0.13349100 13126.15748461 0 330.49536466 0 4781.99763398 0 -70.87545024 0 2578.33550207 0 19468
0.13450000 0.13450700 12965.07895963 0 195.72670679 0 4921.19061198 0 501.17565349 0 2375.04833360 0 19953
0.13550000 0.13551000 12568.84602137 0 161.03243831 0 4386.47285671 0 498.30703943 0 2062.78305629 0 19956
0.13650000 0.13649900 12821.19863028 0 120.05914233 0 4591.95195207 0 401.26987386 0 2277.73802022 0 19723
0.13750000 0.13749600 12261.75144339 0 217.21545879 0 3888.46706672 0 351.00280786 0 924.50193222 0 20946
0.13850000 0.13851100 12197.23010820 0 254.24441043 0 3609.31674647 0 38.98808465 0 1656.43353237 0 20955
0.13950000 0.13949800 11735.80139569 0 347.74189508 0 3477.09297192 0 -107.17263552 0 639.08944544 0 20506
0.14050000 0.14048300 11552.91600830 0 386.92230727 0 3817.28002564 0 -281.36360438 0 1403.37276246 0 21447
0.14150000 0.14148400 11235.24397799 0 301.64061424 0 3647.14153618 0 -143.77241911 0 631.21087334 0 21771
0.14250000 0.14249400 11073.95188065 0 144.45360254 0 4286.97061644 0 -25.30618940 0 1414.52348799 0 22470
0.14350000 0.14350900 11061.72205266 0 54.86145718 0 4285.56553509 0 -41.22463693 0 1158.58511149 0 22519
0.14450000 0.14449900 11213.60572533 0 26.06403407 0 4514.06548315 0 174.09407446 0 1217.18262375 0 22218
0.14550000 0.14550500 11124.79334391 0 56.48179698 0 4449.02707802 0 -39.76121661 0 1395.74036062 0 23559
0.14650000 0.14650700 11186.53823837 0 88.34128575 0 4259.84692622 0 185.43926324 0 1086.87088390 0 23044
0.14750000 0.14750500 11046.76074653 0 60.20863473 0 4111.72887154 0 137.49676381 0 1020.11940359 0 23649
0.14850000 0.14849900 11032.68745182 0 5.54977904 0 3587.99323203 0 359.28379525 0 546.28438488 0 23640
0.14950000 0.14949500 10918.16770217 0 65.14002061 0 3530.01395556 0 269.80484324 0 194.00576316 0 24457
0.15050000 0.15050000 10933.27513675 0 50.22727410 0 3180.99175036 0 364.50844971 0 206.89878955 0 24591
0.15150000 0.15149900 10743.65659957 0 174.18287560 0 3104.49912214 0 39.27067461 0 69.66752991 0 25020
0.15250000 0.15250500 10668.63649659 0 132.41823781 0 2948.82735017 0 51.39618937 0 265.24226310 0 25297
0.15350000 0.15350100 10495.39558753 0 113.99031500 0 2964.39565143 0 -43.44949893 0 -25.72355476 0 25452
0.15450000 0.15450400 10608.46529323 0 22.12328674 0 2907.94510346 0 -219.24327218 0 -90.77769680 0 26061
0.15550000 0.15549900 10562.06388701 0 129.80141432 0 3324.16391872 0 15.39856744 0 -12.79118609 0 26128
0.15650000 0.15649500 10380.59482161 0 249.50085582 0 3278.16717593 0 -256.47680366 0 75.88327255 0 26331
0.15750000 0.15749700 10233.33105638 0 287.06149024 0 3563.49985409 0 69.16866983 0 -60.58362284 0 27345
0.15850000 0.15849900 9937.52209175 0 314.59546420 0 3504.32906864 0 162.73090063 0 323.98927602 0 26980
0.15950000 0.15949700 9724.38811324 0 213.86124861 0 3325.80505373 0 622.10369812 0 221.63415859 0 27777
0.16050000 0.16050000 9383.23436355 0 114.05551077 0 2971.40981748 0 554.93069342 0 253.03266828 0 28224
0.16150000 0.16150500 9447.53088573 0 35.92927878 0 2544.93952875 0 489.09307802 0 311.28958882 0 28075
0.16250000 0.16249700 9261.07097141 0 3.46082775 0 2180.07924667 0 529.17274227 0 69.28782073 0 28590
0.16350000 0.16349900 9290.44279177 0 -36.46174840 0 1880.68451445 0 159.02598215 0 229.09120629 0 29163
0.16450000 0.16449100 9290.86993649 0 23.26365075 0 1650.23993382 0 161.74284743 0 -184.83676436 0 28996
0.16550000 0.16550500 9382.22270499 0 94.38088739 0 1896.37646287 0 -301.74852448 0 -37.00883087 0 30777
0.16650000 0.16650700 9183.94886674 0 176.63108933 0 1836.16029691 0 -159.99942250 0 -225.33795301 0 29211
0.16750000 0.16749900 9174.49547948 0 300.86163714 0 2142.68160169 0 -257.43001085 0 48.74474468 0 30922
0.16850000 0.16850800 8883.67736376 0 250.52487910 0 2171.26657650 0 79.75140528 0 227.02067842 0 30867
0.16950000 0.16949900 8627.53665556 0 323.36879210 0 2295.90291180 0 165.00600834 0 437.49624304 0 30852
0.17050000 0.17049200 8500.85452182 0 118.78670066 0 1971.02562438 0 292.78073333 0 407.52529599 0 31257
0.17150000 0.17149500 8325.62401757 0 -31.42076618 0 1918.84652368 0 491.58737842 0 458.31392819 0 32608
0.17250000 0.17250900 8404.94928978 0 -97.39731601 0 1417.32241002 0 288.70599744 0 449.90816957 0 32361
0.17350000 0.17350400 8491.42361586 0 -102.74752854 0 1531.26888648 0 -43.92115663 0 172.67662840 0 32508
0.17450000 0.17449800 8521.66096632 0 28.42636923 0 1301.79100181 0 -115.84727050 0 49.99605391 0 32791
0.17550000 0.17549800 8524.35872250 0 109.43931274 0 1548.48956340 0 -392.81802858 0 -132.17993601 0 33633
0.17650000 0.17650100 8425.10377654 0 215.33264979 0 1501.23386773 0 -377.24972731 0 -198.36039125 0 33984
0.17750000 0.17750300 8315.56363517 0 205.53192642 0 1992.96737460 0 -176.28487728 0 -83.92685740 0 34069
