### header ###
fiducial parameters:
Omega_m = 0.31
Omega_nu = 0
Omega_de = 0.69
Omega_k = 0
H_0 = 100
w_de = -1
zeff = 0
beta = 0
fgrowth = 0
b_1 = 2
gamma = 0.55
Lx = 3500 Ly = 3500 Lz = 3500
nx = 700 ny = 700 nz = 700
xoffset = 857.220397 yoffset = 15.9954215 zoffset = 262.898189
bins = 400 dk = 0.001
kx_ny = 0.628318531 ky_ny = 0.628318531 kz_ny = 0.628318531
############################
A(data) = 3.09941413 (not used)
A(ran) = 3.10294144 (used)
Ngal = 189289
weighted Ngal = 0
Nran = 9360983
weighted Nran = 0
SN(data) = 3433.15975
SN(ran) = 69.6804032
SN(data+ran) = 3502.84015
############################
13 columns: k_central k_mean P_0(k) sigma^{lin}_{P_0(k)} P^img_1(k) sigma^{lin}_{P_1(k)} P_2(k) sigma^{lin}_{P_2(k)} P^img_3(k) sigma^{lin}_{P_3(k)} P_4(k) sigma^{lin}_{P_4(k)} N_modes
### header ###
0.00050000 0 0 0 0 0 0 0 0 0 0 0 0
0.00150000 0.00179520 13506.99073137 0 -26657.31561505 0 -24735.72637259 0 26596.50369460 0 16698.77350644 0 3
0.00250000 0.00253879 21604.64311147 0 -25666.56465962 0 -26064.37128899 0 -13292.18189590 0 -30535.45252375 0 6
0.00350000 0.00331552 39989.28941454 0 -23908.18966577 0 -25878.00129987 0 -8525.01068024 0 1693.96606516 0 7
0.00450000 0.00420575 51061.78001060 0 -18506.71977001 0 -38080.28970090 0 -1117.26223128 0 3277.98732552 0 24
0.00550000 0.00557378 51352.91286453 0 4444.01374780 0 -26056.39042697 0 -7455.74377945 0 25392.29278179 0 45
0.00650000 0.00659388 44464.19247055 0 1710.20880547 0 -49231.68966509 0 4756.40267226 0 11132.62807747 0 40
0.00750000 0.00754703 41834.44223204 0 -2743.04475723 0 -12729.13770079 0 9030.63763142 0 43817.85505352 0 57
0.00850000 0.00846663 43584.83636387 0 -8327.50120625 0 -26535.69177414 0 -5354.74251067 0 22305.72249756 0 75
0.00950000 0.00948925 54132.83819681 0 -9997.13126257 0 -1315.66196481 0 -3973.94097488 0 39626.44120895 0 112
0.01050000 0.01054430 74182.56209267 0 -9535.45525575 0 -10171.63112452 0 -7955.60427681 0 51535.79825193 0 105
0.01150000 0.01145670 78172.65588265 0 -8330.53618194 0 16417.75723816 0 -6993.38209294 0 45132.44915651 0 144
0.01250000 0.01249090 91994.49724100 0 -3964.79108518 0 11472.99498160 0 8400.40806689 0 37394.16038028 0 169
0.01350000 0.01339930 98065.12307478 0 -4700.59284138 0 22834.37030144 0 22184.99790871 0 37221.61639156 0 180
0.01450000 0.01448870 98018.92400027 0 5441.57653757 0 22432.17981829 0 9487.59256494 0 36985.00069367 0 267
0.01550000 0.01550050 89462.09103781 0 -4338.50900004 0 33915.62860507 0 20274.19969095 0 20439.21244368 0 238
0.01650000 0.01653350 93459.37884426 0 3558.09310109 0 24186.84539740 0 -1728.54230681 0 38793.39658327 0 315
0.01750000 0.01747870 94029.84186886 0 5552.67912940 0 27298.03270672 0 3.54512139 0 29362.94024600 0 297
0.01850000 0.01844180 84560.04325403 0 5264.13162513 0 33625.28259669 0 -15170.49463305 0 20942.56878342 0 388
0.01950000 0.01947590 81895.10977872 0 9139.31224269 0 34236.09955741 0 -8925.71739750 0 21719.52256194 0 399
0.02050000 0.02045430 75095.52774504 0 8703.79323012 0 40346.51729478 0 -6540.01292700 0 10243.57128920 0 462
0.02150000 0.02154770 70454.03824520 0 2938.96929947 0 41803.19322300 0 -3856.08275197 0 5641.41282627 0 571
0.02250000 0.02255340 68295.38367882 0 -827.47263511 0 47454.54278452 0 4091.54066283 0 -4072.56644439 0 510
0.02350000 0.02348930 73519.36369954 0 -768.67953552 0 45339.50194297 0 5262.23195516 0 551.76532617 0 555
0.02450000 0.02439640 72003.67435497 0 423.42969271 0 46314.85320690 0 11976.80094736 0 -4731.87557237 0 592
0.02550000 0.02547300 71659.14841007 0 2547.81713534 0 40003.34022796 0 12851.32357423 0 4184.74813869 0 837
0.02650000 0.02652900 65575.37101493 0 4050.96191369 0 36529.75433907 0 14908.02543848 0 -527.91041719 0 723
0.02750000 0.02749970 66354.12329758 0 2764.32330907 0 34716.18775013 0 16105.37955435 0 11428.36959820 0 826
0.02850000 0.02848090 61718.02931009 0 -523.52993560 0 26265.01690454 0 13198.32246230 0 -1051.12673864 0 831
0.02950000 0.02946900 63448.63989663 0 689.26546217 0 15015.82327899 0 6197.33044882 0 3697.98299943 0 996
0.03050000 0.03053250 60743.12767219 0 1261.99909822 0 16417.98205118 0 -3133.39883517 0 -5740.70149417 0 1041
0.03150000 0.03150510 60329.24691227 0 1595.97007209 0 15899.90045899 0 -6915.68671508 0 -8870.40215525 0 1036
0.03250000 0.03246190 59451.80171621 0 3417.69737346 0 18422.07767001 0 -7925.33320439 0 -8517.69301661 0 1059
0.03350000 0.03345080 56847.11812883 0 1615.01173443 0 17966.38168937 0 -4268.79448420 0 -13950.54680922 0 1302
0.03450000 0.03451200 55262.74840829 0 2007.08563192 0 27109.30218095 0 -2990.75497739 0 -6655.20711569 0 1339
0.03550000 0.03553350 55781.27962651 0 1194.28541822 0 26139.57124238 0 6256.95086030 0 -6189.19221769 0 1365
0.03650000 0.03647120 54663.73413084 0 860.72247997 0 23639.53811330 0 7316.01125022 0 -3102.38587980 0 1308
0.03750000 0.03744890 53230.55116264 0 1084.94198823 0 21875.20557457 0 12277.48835442 0 6385.64507052 0 1579
0.03850000 0.03847530 51766.23159191 0 494.79433607 0 17850.49058034 0 10808.13297216 0 7897.46763123 0 1662
0.03950000 0.03950240 50479.85152226 0 1108.23261654 0 8868.19898771 0 9897.73018816 0 9706.12205580 0 1683
0.04050000 0.04050350 48579.50710968 0 1301.93713027 0 8021.84543157 0 4481.28774562 0 6977.53277541 0 1822
0.04150000 0.04152450 47519.40133924 0 2436.97307848 0 6697.31459333 0 -1016.85062236 0 12612.34733969 0 1887
0.04250000 0.04250150 45176.73732039 0 1707.14010782 0 8244.90490467 0 -685.89101882 0 8520.98652728 0 1920
0.04350000 0.04349210 43781.54775166 0 2417.07712669 0 10138.79718374 0 -4974.56122165 0 12481.50616519 0 2005
0.04450000 0.04448520 42663.10300393 0 1114.12159346 0 12750.94456321 0 -1279.97289874 0 7411.57926273 0 2151
0.04550000 0.04548030 42274.17648863 0 1238.58482275 0 15523.56347251 0 -1357.18492861 0 11228.92673228 0 2274
0.04650000 0.04648670 41095.93147901 0 875.14760705 0 15555.93654662 0 153.88900477 0 7119.25489982 0 2311
0.04750000 0.04749250 39774.25576606 0 856.59828522 0 13852.75314786 0 2862.43170865 0 7492.28713498 0 2568
0.04850000 0.04851840 38994.04219882 0 1598.55542176 0 12065.26486862 0 968.58551625 0 3134.87136041 0 2493
0.04950000 0.04949480 37198.46065105 0 1564.45128744 0 11610.24332703 0 305.76930525 0 3917.96253424 0 2644
0.05050000 0.05050630 36206.02359802 0 1535.73142482 0 9716.77819269 0 1721.01107082 0 3187.11790501 0 2829
0.05150000 0.05149060 34786.77903672 0 2058.99495700 0 10384.60773392 0 -101.43507016 0 2223.05225442 0 2784
0.05250000 0.05249300 33118.21684221 0 1171.34325007 0 9165.60412475 0 884.00186763 0 6034.04875630 0 3055
0.05350000 0.05348950 32107.90715451 0 803.40415376 0 11802.79567405 0 2387.18823639 0 5578.86984560 0 3009
0.05450000 0.05448610 31584.20523695 0 662.32387050 0 10198.48503912 0 2775.93490127 0 8025.80214063 0 3336
0.05550000 0.05550870 30631.56008750 0 541.68021434 0 9243.73788798 0 2455.67752130 0 6268.62989641 0 3349
0.05650000 0.05647670 31061.51497796 0 -27.38289962 0 12043.00838017 0 155.78755068 0 5714.92668205 0 3324
0.05750000 0.05747970 30945.06183639 0 -52.04016625 0 10002.52677492 0 -1383.04966594 0 4739.37308641 0 3639
0.05850000 0.05849280 31044.99122139 0 -472.88293560 0 11956.23055653 0 -727.33867026 0 1301.24020992 0 3846
0.05950000 0.05951020 32507.84950752 0 -1146.20915504 0 11214.16775787 0 -3261.46356895 0 1151.53722349 0 3787
0.06050000 0.06049470 34139.99199366 0 -974.86566782 0 11131.62765955 0 1094.19866411 0 -3827.23924219 0 3930
0.06150000 0.06148310 34992.82016462 0 -821.81071933 0 11613.72792875 0 20.31039459 0 -377.46892000 0 4083
0.06250000 0.06249100 35467.73765800 0 42.91815337 0 8146.72906119 0 1861.21570739 0 -5845.93646632 0 4303
0.06350000 0.06350600 35837.33025404 0 720.82134097 0 11696.57152464 0 1544.79138931 0 441.62943031 0 4470
0.06450000 0.06451750 34679.43082224 0 969.40720782 0 8281.15600328 0 2136.80274136 0 -4191.55997303 0 4479
0.06550000 0.06550280 33379.22475219 0 1414.52348799 0 10357.28171199 0 115.80005977 0 -1005.45260252 0 4636
0.06650000 0.06648880 31801.03738955 0 1400.55135913 0 7958.43692080 0 -555.58152710 0 -3820.00026312 0 4653
0.06750000 0.06749660 30759.81591234 0 983.01401553 0 8721.12631354 0 -612.45921979 0 -2759.11888778 0 5220
0.06850000 0.06852730 29881.24665121 0 200.12966968 0 7691.31409682 0 -289.86715666 0 -3886.05032681 0 5029
0.06950000 0.06949320 30150.23542320 0 -40.34876542 0 8529.29336817 0 645.34711570 0 -4540.75078799 0 5040
0.07050000 0.07048030 30027.03789119 0 445.06457317 0 7423.74164682 0 -202.55877430 0 -5634.17384720 0 5475
0.07150000 0.07148790 29671.83332809 0 342.93876502 0 8158.84648268 0 -1049.28664411 0 -4714.29519463 0 5509
0.07250000 0.07249820 29819.87269822 0 564.35710312 0 10804.33363222 0 -116.42391588 0 -1040.42563914 0 5916
0.07350000 0.07351270 29636.42527829 0 200.10381618 0 11178.16395358 0 -193.83153308 0 -1800.98830077 0 5721
0.07450000 0.07449140 30411.80536571 0 420.20025376 0 14603.40380367 0 125.52097452 0 1467.74796920 0 6028
0.07550000 0.07549160 29435.10522370 0 717.64360901 0 12803.32599561 0 979.37316876 0 2313.77554647 0 6183
0.07650000 0.07648840 29073.60589619 0 853.64649033 0 14529.77754139 0 1192.72296776 0 3840.68306046 0 6330
0.07750000 0.07749960 28300.69875192 0 301.18874008 0 11981.29720766 0 3755.29907751 0 3230.55177944 0 6583
0.07850000 0.07848650 27547.91237247 0 54.82638635 0 10842.73169511 0 3287.72172905 0 3582.97990180 0 6549
0.07950000 0.07947320 27668.18733529 0 212.81361996 0 8278.39080320 0 2475.26997552 0 1845.29894595 0 6828
0.08050000 0.08048110 26682.26985968 0 658.01982534 0 7010.19810643 0 1491.00487556 0 1248.90374012 0 7147
0.08150000 0.08149960 25685.78617237 0 926.18802983 0 5640.68218397 0 99.61239865 0 2553.77468022 0 7386
0.08250000 0.08250610 25537.52198923 0 846.31646199 0 6266.49417277 0 249.77849989 0 2591.38589757 0 7227
0.08350000 0.08350160 24898.71580819 0 543.88675407 0 6239.43792646 0 6.63578327 0 2438.04094030 0 7798
0.08450000 0.08449610 24312.06624654 0 575.95970281 0 7424.58469563 0 307.49924140 0 3229.03429159 0 7371
0.08550000 0.08548940 23802.19032938 0 698.31418601 0 7186.84493267 0 209.08172392 0 2150.34772549 0 8256
0.08650000 0.08650700 23126.06518791 0 540.03008681 0 7615.27109463 0 -175.81276995 0 3409.16571955 0 8037
0.08750000 0.08749060 22668.23348364 0 376.48873526 0 7669.65336287 0 34.67358568 0 2248.35495921 0 8155
0.08850000 0.08849210 22813.23787807 0 68.72837354 0 7557.41546532 0 611.22274821 0 3168.55959065 0 8718
0.08950000 0.08949900 22432.62944432 0 232.16327613 0 7492.81544557 0 519.33717288 0 1436.08305609 0 8571
0.09050000 0.09049190 22114.40662212 0 837.15982791 0 7573.61324302 0 -531.10276200 0 1302.62280996 0 8932
0.09150000 0.09150830 21585.53400523 0 901.54852342 0 8433.63543045 0 -980.09819073 0 1248.84753686 0 9285
0.09250000 0.09250820 20842.52699191 0 812.53268622 0 8500.00023236 0 -688.18186344 0 1579.19902120 0 9204
0.09350000 0.09350330 20667.39765352 0 403.31567229 0 10114.50613751 0 -360.84849383 0 1794.68229571 0 9349
0.09450000 0.09448040 20338.04658710 0 -54.10215122 0 8817.86335373 0 650.09741470 0 1287.29056236 0 9564
0.09550000 0.09549270 20682.01049947 0 28.82260217 0 9561.52232480 0 1061.75927016 0 2605.60532075 0 10155
0.09650000 0.09649430 20179.21619228 0 66.47743324 0 7685.09801697 0 2422.58504554 0 710.29671969 0 9913
0.09750000 0.09749140 20012.74215495 0 327.45814083 0 7501.24593361 0 1936.23581037 0 1881.15662178 0 10476
0.09850000 0.09850240 19047.84469620 0 586.43149303 0 4838.68423561 0 1730.43073613 0 245.22266415 0 10575
0.09950000 0.09950330 18331.59043162 0 802.11372706 0 5027.14498577 0 432.20302061 0 364.28700889 0 10882
0.10050000 0.10051200 17890.17007742 0 641.52866665 0 4129.01699236 0 -429.38161727 0 185.36395088 0 10875
0.10150000 0.10150300 17020.59333687 0 423.44655369 0 4392.36295769 0 -646.49703427 0 -494.88088908 0 11118
0.10250000 0.10250800 16926.39668374 0 378.33782230 0 4748.68034521 0 -824.12404525 0 393.93984552 0 11575
0.10350000 0.10349800 16405.84214839 0 283.48021892 0 4198.22567891 0 -161.46745149 0 -1087.94099384 0 11364
0.10450000 0.10450100 16743.39888984 0 307.78925019 0 5906.53481441 0 -437.46814141 0 556.43918875 0 12093
0.10550000 0.10551000 16208.45632155 0 467.09062828 0 5378.55020892 0 127.36781343 0 -573.62614371 0 12067
0.10650000 0.10649700 16290.17585237 0 271.86862671 0 5866.70918887 0 542.25910785 0 1262.31383644 0 12054
0.10750000 0.10749900 15871.12439312 0 -60.86497633 0 5375.20049500 0 628.41869570 0 84.04983012 0 12807
0.10850000 0.10850100 15991.28694943 0 -34.17438838 0 5161.21222704 0 933.87101460 0 1627.26404372 0 12736
0.10950000 0.10950300 16093.46446457 0 -127.62410027 0 5057.75327771 0 1009.22946117 0 717.46038640 0 12933
0.11050000 0.11050200 15971.27859113 0 69.17844920 0 4522.42852730 0 503.18435778 0 1771.34670479 0 13428
0.11150000 0.11150900 16189.00999579 0 43.33057284 0 4240.05214028 0 99.01889229 0 1758.76841662 0 13453
0.11250000 0.11250000 15861.68224650 0 46.12376214 0 4395.42041469 0 -263.39992045 0 1582.64990097 0 13668
0.11350000 0.11349100 16094.25131013 0 15.09877928 0 4385.77593636 0 87.56410716 0 2010.18805152 0 13791
0.11450000 0.11448600 15690.48713587 0 49.91298551 0 4296.89611103 0 247.57982861 0 1213.45072771 0 14205
0.11550000 0.11549300 15863.25593760 0 194.51046838 0 3855.50947878 0 269.26416794 0 998.51150069 0 14776
0.11650000 0.11649800 15530.30786295 0 161.42248889 0 2947.65832249 0 632.07752751 0 -33.23658089 0 14553
0.11750000 0.11747300 15247.94271659 0 420.58131182 0 3206.28321451 0 3.53566800 0 -34.42707821 0 14568
0.11850000 0.11849100 15003.12134367 0 326.27450031 0 2592.11653987 0 285.56648369 0 28.86441739 0 16015
0.11950000 0.11950300 14606.66359239 0 244.62915779 0 3379.10821950 0 -411.09645073 0 -339.06411271 0 15270
0.12050000 0.12050700 14659.04502479 0 148.33387518 0 2851.39338963 0 10.75630233 0 607.94722259 0 15999
0.12150000 0.12150000 14476.72166994 0 295.61787357 0 3976.48136194 0 378.66267711 0 600.46207327 0 15670
0.12250000 0.12250700 14347.56659304 0 258.21798046 0 3149.46172506 0 501.55671155 0 1464.64554960 0 16887
0.12350000 0.12352200 14052.49951135 0 57.18062824 0 3517.82909017 0 723.94624187 0 1798.00952833 0 16407
0.12450000 0.12449800 14363.30350406 0 -76.02254421 0 2804.29506307 0 893.64522189 0 1701.80079872 0 16306
0.12550000 0.12549900 14073.29471520 0 -153.02572279 0 2610.88842659 0 319.57956874 0 832.36119411 0 17523
0.12650000 0.12650100 14115.89678147 0 -48.46777504 0 2095.60575643 0 95.38074327 0 517.06543737 0 17154
0.12750000 0.12750600 14184.68956395 0 80.91099081 0 2158.51967857 0 -334.62967600 0 223.01563457 0 18007
0.12850000 0.12850300 14237.63302889 0 29.41959313 0 1849.40178347 0 -526.77061521 0 -683.83960007 0 17496
0.12950000 0.12949900 13970.33035451 0 161.68327198 0 2418.92059340 0 -624.02922159 0 -698.72784196 0 18405
0.13050000 0.13049000 14087.57034163 0 299.56446605 0 1938.31533075 0 -312.26752544 0 -1344.76400955 0 18100
0.13150000 0.13148800 13765.30088517 0 394.68397660 0 2718.77619230 0 -545.96065413 0 -499.82452727 0 19059
0.13250000 0.13249300 13512.49865023 0 432.28957362 0 3289.89117465 0 -59.85758921 0 -262.22077619 0 18957
0.13350000 0.13349100 13089.62536973 0 347.63848109 0 3226.08924110 0 190.41437525 0 -300.95493454 0 19468
0.13450000 0.13450700 12908.87570598 0 329.22067487 0 3501.05803928 0 447.35878999 0 405.72904000 0 19953
0.13550000 0.13551000 12662.70545497 0 359.22309574 0 3620.02908661 0 164.31246019 0 302.93441314 0 19956
0.13650000 0.13649900 12443.28795270 0 465.24940969 0 3815.24546786 0 93.60595693 0 715.84173270 0 19723
0.13750000 0.13749600 11946.90081642 0 392.56511393 0 3910.67859257 0 -164.89472590 0 435.57296770 0 20946
0.13850000 0.13851100 11757.27103859 0 231.09766244 0 3724.19619694 0 -297.23090695 0 201.69998859 0 20955
0.13950000 0.13949800 11604.28578214 0 23.09155639 0 4076.68052256 0 151.80498812 0 532.32462073 0 20506
0.14050000 0.14048300 11690.05194722 0 -156.03147280 0 3492.21164715 0 96.46288072 0 2.82866479 0 21447
0.14150000 0.14148400 11891.37200181 0 -202.75773382 0 3291.54355030 0 235.30166582 0 -132.11361617 0 21771
0.14250000 0.14249400 12056.60956755 0 78.25370097 0 3197.94265167 0 82.93846698 0 -118.75297871 0 22470
0.14350000 0.14350900 11715.23100485 0 342.79038843 0 3059.86249809 0 96.95769416 0 -490.35315497 0 22519
0.14450000 0.14449900 11374.18966168 0 467.24462520 0 3062.68390142 0 159.06532443 0 115.05817682 0 22218
0.14550000 0.14550500 10977.15863721 0 390.17872378 0 3070.82213255 0 160.03876478 0 342.70383542 0 23559
0.14650000 0.14650700 10727.49254382 0 232.42293516 0 3120.73062179 0 159.93759893 0 289.65358430 0 23044
0.14750000 0.14750500 10679.27015218 0 154.96248691 0 3227.80906066 0 123.11884746 0 180.89354408 0 23649
0.14850000 0.14849900 10398.31008716 0 95.18470632 0 3464.11002032 0 -158.81240979 0 365.71007527 0 23640
0.14950000 0.14949500 10418.90295930 0 199.43836966 0 3363.28138327 0 -167.54639541 0 -20.80127380 0 24457
0.15050000 0.15050000 10255.85732045 0 148.78912153 0 3607.91166513 0 -155.20865716 0 298.95297465 0 24591
0.15150000 0.15149900 10212.29979887 0 87.39010189 0 3167.77274510 0 342.50487590 0 284.99208644 0 25020
0.15250000 0.15250500 10240.98593953 0 -11.32371914 0 3392.00124589 0 540.32009560 0 56.68671404 0 25297
0.15350000 0.15350100 10158.85050464 0 -36.62316415 0 2499.23504288 0 380.01717552 0 -67.46548644 0 25452
0.15450000 0.15450400 10257.71202782 0 46.32114797 0 3035.39160144 0 481.82150106 0 653.97094294 0 26061
0.15550000 0.15549900 10201.98088150 0 69.41551452 0 2470.44773636 0 132.04842040 0 100.77985263 0 26128
0.15650000 0.15649500 10089.61933679 0 136.24455532 0 2500.02188843 0 177.35161504 0 642.67746115 0 26331
0.15750000 0.15749700 9925.93298084 0 288.54525613 0 2649.25276753 0 -138.99064629 0 487.27321667 0 27345
0.15850000 0.15849900 9720.27403507 0 274.62146207 0 2685.95349217 0 69.76554839 0 762.87486349 0 26980
0.15950000 0.15949700 9498.54095875 0 280.33171265 0 2751.67757699 0 228.53929034 0 770.68374355 0 27777
0.16050000 0.16050000 9244.58093678 0 140.09785039 0 2500.93238114 0 40.22489345 0 799.33953446 0 28224
0.16150000 0.16150500 9152.64365446 0 45.84825380 0 2369.95631882 0 241.63240031 0 510.07038042 0 28075
0.16250000 0.16249700 9245.13172867 0 54.84099919 0 2537.92536269 0 -50.63946876 0 465.81931068 0 28590
0.16350000 0.16349900 9119.73102912 0 59.13267964 0 2331.14235185 0 -152.80990230 0 560.04856170 0 29163
0.16450000 0.16449100 9034.35828681 0 188.38768593 0 2727.71250964 0 -190.97078746 0 593.54907307 0 28996
0.16550000 0.16550500 9053.28754264 0 140.35188909 0 2825.75346531 0 -188.75300707 0 716.62520605 0 30777
0.16650000 0.16650700 8960.93435624 0 98.05601815 0 3276.48107832 0 167.06979181 0 596.33900258 0 29211
0.16750000 0.16749900 9005.24500142 0 54.32842552 0 3301.67137661 0 -120.76730332 0 831.78117653 0 30922
0.16850000 0.16850800 8968.52179548 0 -35.65444487 0 3563.62350125 0 -168.44339933 0 699.47871743 0 30867
0.16950000 0.16949900 9079.62438731 0 112.95280294 0 3441.63995951 0 -389.46606653 0 757.22081617 0 30852
0.17050000 0.17049200 8983.11216013 0 65.06920451 0 3470.49470994 0 -145.64735965 0 573.52835005 0 31257
0.17150000 0.17149500 9013.74293337 0 125.41306427 0 3585.29547586 0 207.10786565 0 366.17993447 0 32608
0.17250000 0.17250900 8858.80180370 0 108.70282530 0 3106.83717749 0 338.49758392 0 415.41398467 0 32361
0.17350000 0.17350400 8593.07282042 0 119.56342963 0 2737.80661399 0 722.50743858 0 -201.12109507 0 32508
0.17450000 0.17449800 8516.29917592 0 64.29033982 0 2360.19943399 0 587.73428445 0 -207.43721672 0 32791
0.17550000 0.17549800 8353.05120536 0 73.30691540 0 1685.94024054 0 542.01068947 0 -362.83696495 0 33633
0.17650000 0.17650100 8303.19891937 0 57.97489262 0 1554.57075545 0 403.46854514 0 -34.77879817 0 33984
0.17750000 0.17750300 8156.66579644 0 113.47436913 0 1297.41838867 0 -82.99433301 0 -154.43192820 0 34069
0.17850000 0.17849800 8176.15708480 0 175.01018749 0 1581.53707655 0 16.69450206 0 2.44965253 0 34536
