### header ###
fiducial parameters:
Omega_m = 0.31
Omega_nu = 0
Omega_de = 0.69
Omega_k = 0
H_0 = 100
w_de = -1
zeff = 0
beta = 0
fgrowth = 0
b_1 = 2
gamma = 0.55
Lx = 3500 Ly = 3500 Lz = 3500
nx = 700 ny = 700 nz = 700
xoffset = 857.220397 yoffset = 15.9954215 zoffset = 262.898189
bins = 400 dk = 0.001
kx_ny = 0.628318531 ky_ny = 0.628318531 kz_ny = 0.628318531
############################
A(data) = 3.06433303 (not used)
A(ran) = 3.06862244 (used)
Ngal = 187078
weighted Ngal = 0
Nran = 9360983
weighted Nran = 0
SN(data) = 3425.01532
SN(ran) = 68.9097276
SN(data+ran) = 3493.92505
############################
13 columns: k_central k_mean P_0(k) sigma^{lin}_{P_0(k)} P^img_1(k) sigma^{lin}_{P_1(k)} P_2(k) sigma^{lin}_{P_2(k)} P^img_3(k) sigma^{lin}_{P_3(k)} P_4(k) sigma^{lin}_{P_4(k)} N_modes
### header ###
0.00050000 0 0 0 0 0 0 0 0 0 0 0 0
0.00150000 0.00179520 58676.42162879 0 -84194.94691828 0 -73466.98226713 0 140537.35982929 0 8311.48327895 0 3
0.00250000 0.00253879 92457.83686413 0 -76703.05320608 0 -30020.63072027 0 -102329.26392958 0 -30532.30514155 0 6
0.00350000 0.00331552 126546.12186443 0 -50046.07481055 0 -79652.03792535 0 -18312.93095141 0 29090.91649831 0 7
0.00450000 0.00420575 134861.95527521 0 -13331.29936045 0 -70641.08267336 0 -66702.02143770 0 12173.62474166 0 24
0.00550000 0.00557378 111111.69675221 0 23095.60302443 0 -78757.61934669 0 -60200.99108743 0 42400.07177682 0 45
0.00650000 0.00659388 67061.94707411 0 22561.78452122 0 -43881.70194967 0 -29728.37380127 0 339.95886851 0 40
0.00750000 0.00754703 64243.35390331 0 6075.20077863 0 -63892.75800701 0 -4931.72310172 0 29270.65450350 0 57
0.00850000 0.00846663 48690.00270636 0 -5537.03214358 0 -49474.03809485 0 -9627.49370394 0 -2950.86190795 0 75
0.00950000 0.00948925 59105.58967370 0 -711.66133469 0 -47994.43123913 0 -21147.93547227 0 10644.35669101 0 112
0.01050000 0.01054430 51571.88074077 0 -1093.92551629 0 -43291.68019280 0 -24822.05457020 0 20129.42010954 0 105
0.01150000 0.01145670 54649.90813044 0 -490.87247303 0 -35326.89230434 0 -24379.84737045 0 23351.88986110 0 144
0.01250000 0.01249090 57826.06640099 0 -9013.34951060 0 -35591.94684858 0 -366.03717821 0 31157.28532219 0 169
0.01350000 0.01339930 63370.29256104 0 -11516.60870644 0 -31402.10669511 0 12259.84053277 0 25532.23888339 0 180
0.01450000 0.01448870 75144.08735620 0 -9384.34718797 0 -29881.47146422 0 810.06985964 0 20365.81099441 0 267
0.01550000 0.01550050 73387.06124044 0 -2243.70132981 0 -24980.54774551 0 -11274.26027668 0 2669.98052748 0 238
0.01650000 0.01653350 76766.90010223 0 10671.70519424 0 -11828.42435771 0 -23183.16769363 0 31346.35306749 0 315
0.01750000 0.01747870 69332.55852177 0 8125.32686220 0 -9835.71551808 0 -18667.57348197 0 26328.97620720 0 297
0.01850000 0.01844180 65702.72758772 0 4993.96258481 0 8356.05245910 0 -7167.22999714 0 50668.13242200 0 388
0.01950000 0.01947590 63995.94718072 0 1279.27597839 0 7972.00438623 0 8509.88076436 0 21259.55513403 0 399
0.02050000 0.02045430 65144.06724639 0 159.75774851 0 8064.62734825 0 16201.59952461 0 31166.39024928 0 462
0.02150000 0.02154770 61996.90985472 0 1234.70679824 0 3852.54194698 0 9118.23602257 0 14875.65236438 0 571
0.02250000 0.02255340 63876.45906345 0 1633.28903251 0 -5754.47129132 0 -899.82757980 0 15733.65123468 0 510
0.02350000 0.02348930 58916.18470888 0 3597.45785995 0 2482.11553181 0 -11991.30138681 0 7017.43708550 0 555
0.02450000 0.02439640 59018.02500450 0 3745.39606422 0 2867.42255757 0 -15304.70800278 0 2812.87167957 0 592
0.02550000 0.02547300 56318.35791844 0 735.64551115 0 12482.63023026 0 -14098.13655332 0 -3810.55811650 0 837
0.02650000 0.02652900 57106.55234770 0 -2467.53640782 0 11262.45759341 0 -7828.22522273 0 -10480.38931880 0 723
0.02750000 0.02749970 64011.00965270 0 -3074.70015705 0 17551.71408391 0 2162.56631283 0 -15690.59954238 0 826
0.02850000 0.02848090 61798.62477583 0 -2256.51567164 0 14715.13587194 0 2524.53774767 0 -19830.19398708 0 831
0.02950000 0.02946900 64776.27315447 0 857.75719631 0 12050.42720965 0 5933.42245096 0 -21828.66928054 0 996
0.03050000 0.03053250 62315.02027041 0 2414.72783068 0 16896.15933327 0 672.68213015 0 -9871.85421018 0 1041
0.03150000 0.03150510 57969.15988479 0 3390.82097756 0 4181.82556950 0 1142.10631752 0 -13770.02195848 0 1036
0.03250000 0.03246190 58901.79667594 0 171.88191439 0 12578.85020052 0 6391.34408044 0 5449.23142072 0 1059
0.03350000 0.03345080 58584.47310581 0 -2240.41905980 0 622.30940203 0 1093.90977938 0 -5950.44079616 0 1302
0.03450000 0.03451200 60670.51306847 0 -2065.45833117 0 12183.29170129 0 6815.79105204 0 6405.45109710 0 1339
0.03550000 0.03553350 61234.45651564 0 2502.30374053 0 6256.15277409 0 -4383.62897207 0 4706.65155213 0 1365
0.03650000 0.03647120 56331.95910583 0 4156.45542080 0 11471.42129050 0 -974.19572503 0 3644.08407918 0 1308
0.03750000 0.03744890 54931.26161824 0 5122.18468770 0 9019.99273518 0 -3538.09598344 0 8558.35045031 0 1579
0.03850000 0.03847530 49191.67294849 0 3646.98416707 0 12266.02289067 0 97.48319459 0 2328.47831762 0 1662
0.03950000 0.03950240 47917.20796861 0 1773.86461056 0 13390.31277679 0 2792.93076518 0 6817.38722444 0 1683
0.04050000 0.04050350 46198.73728485 0 822.14793886 0 10195.79852359 0 5302.06882135 0 76.19891002 0 1822
0.04150000 0.04152450 43980.84448912 0 418.55911875 0 8557.97950883 0 1646.12585565 0 6414.67967135 0 1887
0.04250000 0.04250150 44878.07323047 0 -197.48362050 0 9245.45770754 0 2425.14791391 0 2939.13790924 0 1920
0.04350000 0.04349210 46667.58482684 0 -418.45008444 0 11040.43226017 0 -2720.38360536 0 9238.01639676 0 2005
0.04450000 0.04448520 47805.58830685 0 -501.61291481 0 13919.29780019 0 -2842.54699750 0 5320.82946742 0 2151
0.04550000 0.04548030 49331.73145659 0 612.10513930 0 21241.34527985 0 -3686.29272267 0 9284.50772818 0 2274
0.04650000 0.04648670 49196.50642830 0 899.42741263 0 24257.77390351 0 -4180.61157922 0 6265.37010769 0 2311
0.04750000 0.04749250 48851.64326387 0 2097.79768332 0 25157.13836849 0 -1437.19588051 0 5636.77043752 0 2568
0.04850000 0.04851840 47471.62857363 0 1922.03886849 0 27057.25796806 0 -657.90517070 0 6648.24915289 0 2493
0.04950000 0.04949480 45621.97949584 0 2074.74310867 0 22931.60193027 0 4644.60316009 0 -1295.86717887 0 2644
0.05050000 0.05050630 44492.51891039 0 1185.74252366 0 24568.35308321 0 3915.68068214 0 2344.66485468 0 2829
0.05150000 0.05149060 40880.56061101 0 1863.85726031 0 18229.18810346 0 4995.40138811 0 -3540.68133310 0 2784
0.05250000 0.05249300 38854.43331674 0 2271.43201516 0 15491.41521142 0 4230.16036764 0 -2613.30516650 0 3055
0.05350000 0.05348950 37296.59153194 0 2804.39622892 0 13289.93376576 0 2129.11413626 0 -6058.54213424 0 3009
0.05450000 0.05448610 34481.48296287 0 1795.69395428 0 12744.76220531 0 638.63082689 0 -3101.14940822 0 3336
0.05550000 0.05550870 32992.32155402 0 1180.98772840 0 11515.93426739 0 -465.52817783 0 -2150.05546857 0 3349
0.05650000 0.05647670 32820.33959784 0 252.61114388 0 13019.03408314 0 -969.61515986 0 -3399.64488838 0 3324
0.05750000 0.05747970 33614.15435246 0 -598.05994621 0 14356.89633314 0 -631.25246375 0 -466.08346597 0 3639
0.05850000 0.05849280 34134.37166829 0 -1194.69008164 0 12890.32863227 0 1757.86916457 0 -1446.57058322 0 3846
0.05950000 0.05951020 35423.22468111 0 -967.36478158 0 14769.09099545 0 1343.25776235 0 -882.99695346 0 3787
0.06050000 0.06049470 36554.82099020 0 -197.49598521 0 13007.45621289 0 -418.83114250 0 -4982.49712107 0 3930
0.06150000 0.06148310 36306.40260904 0 651.79924922 0 14029.90580338 0 -384.48983045 0 -2481.44109277 0 4083
0.06250000 0.06249100 35564.74447381 0 1187.54102778 0 13636.93265382 0 -1805.75433668 0 -4069.40782154 0 4303
0.06350000 0.06350600 34017.35649418 0 627.84205032 0 13871.74984759 0 -208.36007414 0 -2584.68646973 0 4470
0.06450000 0.06451750 34277.57755861 0 422.29551105 0 13066.80684875 0 1897.64665641 0 -4599.65179782 0 4479
0.06550000 0.06550280 32848.10400515 0 284.10969536 0 11880.01894457 0 4561.66963900 0 -3214.50013019 0 4636
0.06650000 0.06648880 31752.36537189 0 946.55946115 0 9371.06073881 0 3979.17911812 0 -4324.66051834 0 4653
0.06750000 0.06749660 31253.16807293 0 761.42819174 0 8415.15580065 0 3515.94066085 0 -2637.52876882 0 5220
0.06850000 0.06852730 30001.63402054 0 913.41078214 0 7573.23106090 0 2071.21354434 0 -720.14915006 0 5029
0.06950000 0.06949320 29656.43363659 0 1278.89379627 0 7479.11309232 0 412.77130769 0 1299.05952368 0 5040
0.07050000 0.07048030 28210.66113957 0 1013.53350633 0 8999.05140287 0 914.09983403 0 3971.97386100 0 5475
0.07150000 0.07148790 27571.51773900 0 872.23965071 0 7377.43016581 0 11.61901103 0 2680.58046112 0 5509
0.07250000 0.07249820 27845.33999081 0 294.43648118 0 10778.67122660 0 828.77093027 0 5607.24124804 0 5916
0.07350000 0.07351270 27166.96671920 0 553.23110703 0 8146.00965954 0 388.05311673 0 1625.02715423 0 5721
0.07450000 0.07449140 27272.62883607 0 702.04046173 0 9055.13100936 0 -1011.54166302 0 4957.56535775 0 6028
0.07550000 0.07549160 25537.74680225 0 844.60226276 0 8508.26211065 0 -89.05450504 0 1992.96737460 0 6183
0.07650000 0.07648840 25205.47316664 0 862.79413190 0 7289.55075840 0 -46.81180238 0 2438.95143301 0 6330
0.07750000 0.07749960 24640.63046741 0 228.87538579 0 6925.33119341 0 847.96434139 0 -313.94463053 0 6583
0.07850000 0.07848650 24400.08054176 0 -1.81280222 0 6612.48140227 0 628.26919505 0 -31.70088319 0 6549
0.07950000 0.07947320 24632.08757285 0 64.74187676 0 7453.32703955 0 326.75447610 0 148.06634769 0 6828
0.08050000 0.08048110 24733.70305546 0 322.11995580 0 7279.64774510 0 -507.58057628 0 819.15904983 0 7147
0.08150000 0.08149960 24335.78401958 0 429.99198461 0 6851.58128397 0 -539.18141768 0 390.91835860 0 7386
0.08250000 0.08250610 24290.70901015 0 539.74907054 0 8267.20635572 0 -227.61755698 0 599.87980756 0 7227
0.08350000 0.08350160 23508.24731277 0 489.67759186 0 7716.31330405 0 -396.69830121 0 -567.44153768 0 7798
0.08450000 0.08449610 23145.84873320 0 98.75170202 0 7938.49600640 0 564.50660378 0 -798.71005802 0 7371
0.08550000 0.08548940 22893.04649826 0 177.07059877 0 6309.93928784 0 390.51594331 0 -3291.55479095 0 8256
0.08650000 0.08650700 22777.82982827 0 308.74245737 0 6199.35376595 0 308.35802711 0 -2636.26981594 0 8037
0.08750000 0.08749060 22043.02848998 0 497.63822071 0 5542.18036161 0 385.31039795 0 -4779.51345017 0 8155
0.08850000 0.08849210 21693.78147177 0 512.94798700 0 4709.79893433 0 665.87928833 0 -3297.07395046 0 8718
0.08950000 0.08949900 21343.86001451 0 209.24021710 0 5095.90404629 0 1161.00185140 0 -3109.20895480 0 8571
0.09050000 0.09049190 21186.37849777 0 46.44097331 0 3443.76444250 0 1258.68310625 0 -984.02567410 0 8932
0.09150000 0.09150830 20972.01928833 0 281.08820844 0 4778.95141763 0 1601.52295355 0 -693.08278716 0 9285
0.09250000 0.09250820 20405.82771101 0 815.98918632 0 3347.85921046 0 812.26403467 0 315.45087772 0 9204
0.09350000 0.09350330 19592.45422412 0 1232.12144858 0 4557.25206326 0 -2.67184648 0 2468.19960621 0 9349
0.09450000 0.09448040 18693.53938516 0 1248.04945066 0 5060.17001762 0 -445.42877026 0 2296.40874109 0 9564
0.09550000 0.09549270 17812.49718087 0 831.02805293 0 6261.96419052 0 -741.10509521 0 3466.68412934 0 10155
0.09650000 0.09649430 17360.96024100 0 418.30957630 0 6271.01291436 0 -959.69753372 0 2222.26540887 0 9913
0.09750000 0.09749140 17311.38897128 0 100.79176772 0 7998.98194798 0 -1009.70156850 0 2868.46793809 0 10476
0.09850000 0.09850240 17769.78270809 0 -116.92187671 0 9553.36161236 0 -1197.00565569 0 1858.22569429 0 10575
0.09950000 0.09950330 18038.43426056 0 -375.24439522 0 8671.13913974 0 -129.63617675 0 2239.92447116 0 10882
0.10050000 0.10051200 18153.76333706 0 -230.60307381 0 8837.54573316 0 352.61134498 0 1190.86826039 0 10875
0.10150000 0.10150300 18559.21360892 0 -209.47177450 0 7776.28217570 0 864.70953878 0 318.39930041 0 11118
0.10250000 0.10250800 18137.68920651 0 115.31895991 0 6563.40472117 0 1433.55390968 0 -121.16409829 0 11575
0.10350000 0.10349800 18193.33042763 0 323.75097422 0 6101.65002980 0 832.77597412 0 -222.12425096 0 11364
0.10450000 0.10450100 17595.44021525 0 223.03474367 0 4578.72170616 0 842.13831212 0 -429.97849583 0 12093
0.10550000 0.10551000 17485.95627713 0 209.26157433 0 4471.13743801 0 -102.18954264 0 -1335.24317838 0 12067
0.10650000 0.10649700 17299.69869452 0 254.34557629 0 4188.68236644 0 -173.35893590 0 -1104.31412570 0 12054
0.10750000 0.10749900 16766.44222384 0 479.95892524 0 4639.26385100 0 -394.83684945 0 -1280.87215080 0 12807
0.10850000 0.10850100 16542.64086779 0 395.45845743 0 4504.67953979 0 65.34853468 0 -675.58559023 0 12736
0.10950000 0.10950300 16159.33467786 0 391.66586188 0 4596.53813757 0 984.19765605 0 -1063.37679980 0 12933
0.11050000 0.11050200 15920.58325633 0 157.29941820 0 4151.59945968 0 1269.26055859 0 -750.19428540 0 13428
0.11150000 0.11150900 15583.47614091 0 171.50984885 0 3384.62737901 0 868.31553954 0 -295.19859730 0 13453
0.11250000 0.11250000 15588.53443374 0 137.92053634 0 3577.91036833 0 461.36801299 0 -722.33433256 0 13668
0.11350000 0.11349100 15328.20096281 0 271.35830117 0 2253.41325204 0 -74.87880800 0 -267.71408220 0 13791
0.11450000 0.11448600 14974.23287129 0 358.56326954 0 3087.42457368 0 -797.61297050 0 -1140.38649796 0 14205
0.11550000 0.11549300 14925.22363410 0 340.12860234 0 3478.45309066 0 -1199.17510128 0 -827.27479965 0 14776
0.11650000 0.11649800 14715.58549797 0 413.18046737 0 4228.46302938 0 -1111.39461160 0 -1508.88875087 0 14553
0.11750000 0.11747300 14521.45945985 0 338.64034018 0 4710.97920266 0 -217.77299507 0 -692.20376827 0 14568
0.11850000 0.11849100 14280.45990817 0 190.78868892 0 5099.56849843 0 523.81432406 0 -266.41466298 0 16015
0.11950000 0.11950300 14244.15260631 0 7.00812983 0 5378.20174875 0 1006.30127165 0 697.44977997 0 15270
0.12050000 0.12050700 14328.90711282 0 40.10844031 0 5437.14772118 0 1236.17932349 0 1670.12464496 0 15999
0.12150000 0.12150000 14293.49906302 0 -2.08084678 0 5291.45764706 0 1262.24639254 0 2837.54490793 0 15670
0.12250000 0.12250700 14214.47728838 0 69.09740411 0 5223.99126137 0 696.85964581 0 3871.85338494 0 16887
0.12350000 0.12352200 14418.49509915 0 -81.47414741 0 5328.70916358 0 541.33400229 0 4270.73911678 0 16407
0.12450000 0.12449800 14386.45924457 0 -109.89916776 0 5248.15866044 0 303.40539640 0 4644.19849667 0 16306
0.12550000 0.12549900 14383.53667538 0 125.06910036 0 5080.98770277 0 72.97733952 0 3953.42678730 0 17523
0.12650000 0.12650100 14273.71551773 0 202.62172195 0 4667.44416238 0 -80.93099917 0 3973.64871796 0 17154
0.12750000 0.12750600 13843.31100124 0 511.16746793 0 4764.52966274 0 18.61732777 0 3094.69727470 0 18007
0.12850000 0.12850300 13484.62183642 0 462.92034686 0 4176.96960838 0 -83.74385960 0 2002.58937163 0 17496
0.12950000 0.12949900 13034.54618115 0 369.73872449 0 4311.09305290 0 148.40693941 0 2201.67253673 0 18405
0.13050000 0.13049000 12703.73383014 0 233.79879081 0 3859.09524636 0 248.66230328 0 1035.05598029 0 18100
0.13150000 0.13148800 12418.55852109 0 112.67291073 0 3774.99269759 0 256.42284854 0 1228.43451514 0 19059
0.13250000 0.13249300 12503.53784062 0 85.66128981 0 3654.70649412 0 286.43651006 0 503.40917079 0 18957
0.13350000 0.13349100 12374.38276372 0 163.53573122 0 3833.87122612 0 -46.42040292 0 756.41036525 0 19468
0.13450000 0.13450700 12332.56754300 0 240.78710337 0 3507.22915653 0 -91.91896007 0 650.34358495 0 19953
0.13550000 0.13551000 11931.38871841 0 255.27517810 0 3826.87954137 0 -97.46048847 0 512.31176617 0 19956
0.13650000 0.13649900 11936.10979172 0 264.80162960 0 3654.12198028 0 125.77164103 0 793.49664421 0 19723
0.13750000 0.13749600 11537.96594283 0 173.12513036 0 3436.78399840 0 355.37654506 0 584.84318908 0 20946
0.13850000 0.13851100 11480.41381108 0 119.80397956 0 3146.65156238 0 726.46976796 0 1213.38328381 0 20955
0.13950000 0.13949800 11302.58671652 0 43.79829632 0 2767.53813518 0 776.49628404 0 827.95823122 0 20506
0.14050000 0.14048300 11291.79569182 0 -84.50035540 0 2152.59585564 0 1096.00503668 0 1805.55200497 0 21447
0.14150000 0.14148400 11271.22530098 0 -57.32405894 0 1869.33145721 0 591.88096050 0 1187.39489932 0 21771
0.14250000 0.14249400 11376.77501134 0 33.37203074 0 2002.18470820 0 -73.93515537 0 1599.71320878 0 22470
0.14350000 0.14350900 11282.35354520 0 209.73480573 0 1743.97572026 0 -543.80020106 0 1623.46470378 0 22519
0.14450000 0.14449900 11095.88239023 0 374.54185455 0 2454.36236516 0 -737.04272404 0 1470.16470911 0 22218
0.14550000 0.14550500 10945.31387369 0 414.04262529 0 2551.76260374 0 -627.48909389 0 1586.47172222 0 23559
0.14650000 0.14650700 10594.13346355 0 238.74467714 0 2804.82337365 0 -205.45099374 0 771.26038893 0 23044
0.14750000 0.14750500 10719.01709317 0 56.48708009 0 2924.53630394 0 122.16676434 0 1213.97903830 0 23649
0.14850000 0.14849900 10423.07324072 0 97.15687850 0 3024.29707917 0 282.61019255 0 407.61746933 0 23640
0.14950000 0.14949500 10585.51188444 0 83.79938842 0 2410.29901429 0 217.02773992 0 980.01051366 0 24457
0.15050000 0.15050000 10396.48910174 0 195.57945426 0 2555.53946239 0 155.77293783 0 494.80557672 0 24591
0.15150000 0.15149900 10174.11530833 0 176.27138850 0 2542.61271405 0 16.02793147 0 912.98026522 0 25020
0.15250000 0.15250500 10062.99023521 0 92.14669565 0 2432.94892552 0 186.04625838 0 700.12617891 0 25297
0.15350000 0.15350100 10007.23660758 0 0.39764139 0 2301.68060628 0 58.40687082 0 619.38008845 0 25452
0.15450000 0.15450400 10108.52611132 0 1.72928419 0 2260.78711892 0 225.62683773 0 759.71961283 0 26061
0.15550000 0.15549900 9992.91601855 0 71.45063434 0 2482.23917897 0 54.49905860 0 343.35354503 0 26128
0.15650000 0.15649500 9919.66069774 0 179.30524014 0 2415.62708274 0 -124.90386279 0 623.30981994 0 26331
0.15750000 0.15749700 9815.12264594 0 248.22391790 0 2618.38594063 0 -208.69729367 0 238.53447697 0 27345
0.15850000 0.15849900 9614.01616371 0 247.36513218 0 2556.64104616 0 -248.45210311 0 556.15929654 0 26980
0.15950000 0.15949700 9458.16454132 0 117.26696469 0 2850.70770993 0 -69.15484383 0 285.12697425 0 27777
0.16050000 0.16050000 9400.92714780 0 92.13253243 0 2870.14279505 0 69.13438585 0 314.84837884 0 28224
0.16150000 0.16150500 9400.89342585 0 25.59395006 0 2660.24612395 0 277.85989355 0 -141.95480589 0 28075
0.16250000 0.16249700 9363.97912885 0 46.21188885 0 2601.99707186 0 228.01660008 0 82.56606422 0 28590
0.16350000 0.16349900 9219.44684175 0 97.80523923 0 2272.33126722 0 177.45952529 0 -212.54946467 0 29163
0.16450000 0.16449100 9206.09294868 0 118.87550181 0 2195.02931215 0 20.98831823 0 -99.57654097 0 28996
0.16550000 0.16550500 9005.85199656 0 155.68750888 0 2150.99968323 0 156.07531133 0 -82.76243839 0 30777
0.16650000 0.16650700 8829.30633618 0 254.74349532 0 2238.36202071 0 17.15750446 0 -321.31624928 0 29211
0.16750000 0.16749900 8733.82824887 0 239.65516985 0 2488.97232876 0 -210.32606396 0 94.64549231 0 30922
0.16850000 0.16850800 8460.08468162 0 222.30522544 0 2537.47573666 0 -181.40499369 0 -195.34340060 0 30867
0.16950000 0.16949900 8483.06057171 0 133.63335215 0 2938.74448646 0 -345.60167518 0 525.38801517 0 30852
0.17050000 0.17049200 8346.13820516 0 30.67989489 0 2827.15854665 0 -67.21718046 0 27.90019437 0 31257
0.17150000 0.17149500 8479.73333910 0 -56.52046482 0 2735.70461231 0 322.89668477 0 248.60047970 0 32608
0.17250000 0.17250900 8416.68452915 0 -112.72911399 0 2360.96379824 0 565.69249243 0 298.10992584 0 32361
0.17350000 0.17350400 8561.05944713 0 -88.81148217 0 1968.58640317 0 614.05988846 0 -52.25059123 0 32508
0.17450000 0.17449800 8552.33670217 0 -28.84418421 0 1787.70185161 0 474.75900021 0 -8.09424646 0 32791
0.17550000 0.17549800 8556.21472667 0 78.04226433 0 1496.31046271 0 186.04063805 0 -388.95124472 0 33633
0.17650000 0.17650100 8432.28655236 0 139.43465199 0 1659.38982351 0 -151.52734405 0 118.81255416 0 33984
0.17750000 0.17750300 8336.32511707 0 211.23655667 0 1860.73235941 0 -310.52410051 0 -98.96302626 0 34069
