### header ###
fiducial parameters:
Omega_m = 0.31
Omega_nu = 0
Omega_de = 0.69
Omega_k = 0
H_0 = 100
w_de = -1
zeff = 0
beta = 0
fgrowth = 0
b_1 = 2
gamma = 0.55
Lx = 3500 Ly = 3500 Lz = 3500
nx = 700 ny = 700 nz = 700
xoffset = 857.220397 yoffset = 15.9954215 zoffset = 262.898189
bins = 400 dk = 0.001
kx_ny = 0.628318531 ky_ny = 0.628318531 kz_ny = 0.628318531
############################
A(data) = 3.05164467 (not used)
A(ran) = 3.05343561 (used)
Ngal = 186872
weighted Ngal = 0
Nran = 9360983
weighted Nran = 0
SN(data) = 3444.68379
SN(ran) = 68.5686885
SN(data+ran) = 3513.25248
############################
13 columns: k_central k_mean P_0(k) sigma^{lin}_{P_0(k)} P^img_1(k) sigma^{lin}_{P_1(k)} P_2(k) sigma^{lin}_{P_2(k)} P^img_3(k) sigma^{lin}_{P_3(k)} P_4(k) sigma^{lin}_{P_4(k)} N_modes
### header ###
0.00050000 0 0 0 0 0 0 0 0 0 0 0 0
0.00150000 0.00179520 23616.38237280 0 -33334.48696228 0 -34322.20294201 0 82918.68343429 0 6430.66387669 0 3
0.00250000 0.00253879 45953.46628590 0 -38432.79650782 0 -5545.54131618 0 -47292.22778796 0 -9002.45732004 0 6
0.00350000 0.00331552 62732.49803856 0 -26665.52129009 0 -24642.09175200 0 -27049.95154509 0 16669.54781454 0 7
0.00450000 0.00420575 79671.25943810 0 -12926.97315365 0 -13866.69155477 0 -44410.12494054 0 12912.47271421 0 24
0.00550000 0.00557378 76307.94433288 0 8982.43772109 0 -3889.87214806 0 -44005.68632724 0 29925.75962810 0 45
0.00650000 0.00659388 78800.44622597 0 13340.96632008 0 19492.52483912 0 -13620.74611677 0 -15164.53708817 0 40
0.00750000 0.00754703 60234.03860058 0 10730.80853579 0 19638.65329862 0 -396.28801746 0 13605.34642527 0 57
0.00850000 0.00846663 57614.29254122 0 8428.34108395 0 28380.28255910 0 4019.69042335 0 -10718.44381998 0 75
0.00950000 0.00948925 52534.97969540 0 3503.30616942 0 26815.92119687 0 14624.87344657 0 16283.20664891 0 112
0.01050000 0.01054430 50585.62604564 0 3525.78747089 0 20515.53646215 0 12598.85855882 0 -21725.70491985 0 105
0.01150000 0.01145670 49643.54710787 0 852.75735486 0 21711.54169992 0 6091.75825715 0 9227.03428099 0 144
0.01250000 0.01249090 50251.66631242 0 -691.59340094 0 15940.02958210 0 12549.28728909 0 1509.97909400 0 169
0.01350000 0.01339930 49408.95472712 0 -1585.04415958 0 3239.04971139 0 9267.33201386 0 10898.42911949 0 180
0.01450000 0.01448870 54874.83355157 0 -4847.10348301 0 7706.28664360 0 13897.60334428 0 12843.67993174 0 267
0.01550000 0.01550050 60985.58850846 0 -3105.00495142 0 2891.18529322 0 8975.90690301 0 2653.49049286 0 238
0.01650000 0.01653350 62458.78819326 0 -4020.56719411 0 2462.79285321 0 15913.72645939 0 20553.30504860 0 315
0.01750000 0.01747870 60243.14352767 0 4471.98048682 0 5270.69616516 0 -2600.54702792 0 7271.41958877 0 297
0.01850000 0.01844180 59615.24077784 0 1023.27802645 0 10830.81660534 0 2805.96992003 0 18366.99848142 0 388
0.01950000 0.01947590 59162.01774037 0 2067.84134912 0 17115.57683554 0 2466.19877038 0 17832.28072615 0 399
0.02050000 0.02045430 56833.17972192 0 -2289.75427586 0 12154.06600939 0 3715.09126985 0 18805.27145343 0 462
0.02150000 0.02154770 65793.43963912 0 -9278.17924182 0 16678.42792862 0 270.65238830 0 15286.16092907 0 571
0.02250000 0.02255340 70858.25204549 0 -8077.44169008 0 11302.13709049 0 -2752.30705344 0 3175.12413068 0 510
0.02350000 0.02348930 77773.05074916 0 -4329.87618028 0 10446.49875685 0 -8396.51880173 0 -1263.69643648 0 555
0.02450000 0.02439640 82215.35591805 0 1905.02052329 0 23082.33905657 0 -15943.06455779 0 -14954.44932600 0 592
0.02550000 0.02547300 80152.02206987 0 5308.04884754 0 21383.76432461 0 -4837.77374291 0 -8162.83691369 0 837
0.02650000 0.02652900 73809.26008189 0 11266.39182117 0 27419.20692160 0 211.85816465 0 -12695.52815510 0 723
0.02750000 0.02749970 63597.35370580 0 7449.13427682 0 21745.71327815 0 8118.93093193 0 -7513.70057462 0 826
0.02850000 0.02848090 59200.01113984 0 9126.32929109 0 28354.20424940 0 13453.93485992 0 -238.46366087 0 831
0.02950000 0.02946900 52560.38356606 0 5014.63414151 0 26663.83519248 0 17932.54733067 0 7817.08573785 0 996
0.03050000 0.03053250 47499.50538744 0 2427.27239690 0 23058.95850305 0 8781.98319660 0 16762.73280910 0 1041
0.03150000 0.03150510 48274.09862931 0 -36.45601567 0 23560.85355819 0 9194.95346381 0 18640.82073323 0 1036
0.03250000 0.03246190 48117.62877114 0 -492.85982008 0 31047.57657106 0 507.82562246 0 22166.11361549 0 1059
0.03350000 0.03345080 50388.35262531 0 429.37262475 0 30593.11706200 0 -9416.97879705 0 12041.09746955 0 1302
0.03450000 0.03451200 51054.69840064 0 562.76655104 0 40111.58769450 0 -8467.71708346 0 14623.86178800 0 1339
0.03550000 0.03553350 51398.99953253 0 774.91360042 0 35696.59730689 0 -7443.01936283 0 3944.47922931 0 1365
0.03650000 0.03647120 52352.20671452 0 -658.20642014 0 40873.92862707 0 4137.44748041 0 2740.38072301 0 1308
0.03750000 0.03744890 53134.66841190 0 -1959.59388258 0 33634.05030426 0 8740.42651085 0 -8573.78386376 0 1579
0.03850000 0.03847530 52672.45285384 0 -1336.42344671 0 27620.86419571 0 13538.80177294 0 -11417.69098000 0 1662
0.03950000 0.03950240 51393.26680066 0 769.19098513 0 15302.45987263 0 9076.33087664 0 -13615.01338490 0 1683
0.04050000 0.04050350 48647.51304660 0 901.04157008 0 11031.27112982 0 8689.51760369 0 -10974.20234606 0 1822
0.04150000 0.04152450 47920.01813129 0 2064.96374254 0 4942.39047926 0 2826.04572223 0 -8072.99039239 0 1887
0.04250000 0.04250150 45144.81387231 0 1661.03095852 0 3539.91696885 0 1151.75079585 0 -10588.25460322 0 1920
0.04350000 0.04349210 43313.03742919 0 2467.07554114 0 1478.19053373 0 -3327.46867004 0 -6473.09733320 0 2005
0.04450000 0.04448520 41981.69475661 0 2435.81529145 0 4979.97921530 0 -4641.72555351 0 -7603.88431544 0 2151
0.04550000 0.04548030 39992.32439024 0 1478.28045893 0 6020.29019981 0 -4829.25332965 0 -5070.24164067 0 2274
0.04650000 0.04648670 39866.99113459 0 181.02730783 0 10627.67556533 0 -1866.65618234 0 -6663.12053381 0 2311
0.04750000 0.04749250 40910.46074195 0 -159.34296850 0 11159.00988473 0 11.94240456 0 -6191.06940636 0 2568
0.04850000 0.04851840 42068.02295423 0 36.85865578 0 15517.15630160 0 321.95809043 0 -1054.04818376 0 2493
0.04950000 0.04949480 40950.02783252 0 645.25381830 0 13339.05540945 0 1809.12653190 0 -1065.43159076 0 2644
0.05050000 0.05050630 41392.12262577 0 1264.19102511 0 14816.63894804 0 3428.96050549 0 3006.19963150 0 2829
0.05150000 0.05149060 39164.22565089 0 1849.55915258 0 13744.73049433 0 1700.84534341 0 4680.24726356 0 2784
0.05250000 0.05249300 37738.46151217 0 1435.32993249 0 12003.21647658 0 4150.53159786 0 6506.78556344 0 3055
0.05350000 0.05348950 35810.24028578 0 737.21020974 0 10955.03703657 0 4165.30181292 0 6729.69890809 0 3009
0.05450000 0.05448610 36246.26512763 0 -425.32374236 0 10176.76810191 0 2964.54177989 0 9249.32449139 0 3336
0.05550000 0.05550870 36327.42262591 0 -427.15709249 0 9653.69566079 0 1365.35688169 0 9038.83206580 0 3349
0.05650000 0.05647670 36847.75234825 0 -1115.03770650 0 9647.07491751 0 2349.13863367 0 9988.97055014 0 3324
0.05750000 0.05747970 37357.06623287 0 -652.40961656 0 11167.56401994 0 306.59774121 0 10564.63799603 0 3639
0.05850000 0.05849280 38878.26349629 0 -345.61066770 0 8986.37194884 0 -449.09547053 0 8620.42132364 0 3846
0.05950000 0.05951020 38978.30528780 0 908.92239030 0 13516.09565847 0 -1233.08814454 0 8189.64586568 0 3787
0.06050000 0.06049470 37648.31149331 0 1725.55229371 0 10067.76751177 0 -4595.04313102 0 2963.51888067 0 3930
0.06150000 0.06148310 35279.79397778 0 2251.67095118 0 13221.25338979 0 -1756.63269299 0 2107.10494213 0 4083
0.06250000 0.06249100 33945.64114252 0 1633.76113985 0 10601.04646375 0 -942.93210315 0 -1427.55140219 0 4303
0.06350000 0.06350600 31691.66585794 0 1056.04789553 0 10042.70086064 0 29.26435974 0 -4786.76366989 0 4470
0.06450000 0.06451750 31616.12868503 0 701.73021977 0 8725.47644538 0 877.28333069 0 -7516.91540073 0 4479
0.06550000 0.06550280 30366.39313676 0 706.86944528 0 9636.91336925 0 414.98459182 0 -9608.23846923 0 4636
0.06650000 0.06648880 29844.60212983 0 709.60879187 0 7883.92264710 0 313.39496271 0 -6025.53958370 0 4653
0.06750000 0.06749660 28413.33007225 0 382.01126696 0 8775.27252812 0 933.01672515 0 -4305.09054541 0 5220
0.06850000 0.06852730 29480.29263963 0 -220.03798619 0 5885.16633737 0 2828.65355320 0 -2149.38102953 0 5029
0.06950000 0.06949320 28863.18091450 0 -109.47168581 0 7658.41271213 0 2539.47657249 0 -2409.70325981 0 5040
0.07050000 0.07048030 29606.63755385 0 297.37928354 0 4884.04026131 0 818.52395306 0 -1697.21461322 0 5475
0.07150000 0.07148790 28387.02694954 0 670.20019447 0 8505.98025855 0 -551.77544276 0 -81.04857637 0 5509
0.07250000 0.07249820 28080.26959109 0 790.87195226 0 7615.09124422 0 -1558.35885474 0 2200.09884562 0 5916
0.07350000 0.07351270 27836.57228324 0 657.86245623 0 10586.10763893 0 -756.32044004 0 1684.27662423 0 5721
0.07450000 0.07449140 27582.30876371 0 469.85582836 0 11031.87812496 0 21.62307778 0 3365.33842235 0 6028
0.07550000 0.07549160 27625.92248854 0 690.96617263 0 12330.43181936 0 1706.99397936 0 3720.38561634 0 6183
0.07650000 0.07648840 27121.21727072 0 698.21302016 0 10517.06756214 0 728.89437633 0 3522.83117974 0 6330
0.07750000 0.07749960 26492.75248835 0 639.99094563 0 10538.08757900 0 1872.26526706 0 4568.16673512 0 6583
0.07850000 0.07848650 26131.92759989 0 239.51578578 0 9682.98879659 0 1767.18766402 0 2948.75990626 0 6549
0.07950000 0.07947320 25828.65484316 0 381.83928501 0 9015.88989766 0 668.70856012 0 3716.29401947 0 6828
0.08050000 0.08048110 25627.10997556 0 413.34233275 0 8768.42697182 0 -202.20356974 0 2302.40000793 0 7147
0.08150000 0.08149960 24655.58053288 0 893.31362270 0 8895.56997224 0 -43.58371230 0 3106.16273845 0 7386
0.08250000 0.08250610 24543.17402557 0 735.01603471 0 8772.81082560 0 -223.25393636 0 3310.47280613 0 7227
0.08350000 0.08350160 24130.75455025 0 611.36100822 0 10899.24968699 0 -819.74243960 0 3588.53278327 0 7798
0.08450000 0.08449610 23922.35288570 0 551.67877316 0 11499.18569780 0 -207.41023916 0 5185.14357245 0 7371
0.08550000 0.08548940 23537.02337864 0 340.08139161 0 11082.26996219 0 239.25275455 0 3690.36183824 0 8256
0.08650000 0.08650700 23035.91516905 0 543.55852707 0 11325.63005052 0 697.82634177 0 5467.27266514 0 8037
0.08750000 0.08749060 22472.64616092 0 411.79674327 0 10238.14205490 0 488.37030418 0 3468.87605623 0 8155
0.08850000 0.08849210 21933.99417789 0 448.55142303 0 9649.63778588 0 1588.67488976 0 2479.24916588 0 8718
0.08950000 0.08949900 21380.61694240 0 386.27259765 0 8299.92789000 0 746.59615310 0 1335.51295400 0 8571
0.09050000 0.09049190 20780.92822591 0 491.90773696 0 7620.53171917 0 166.10984024 0 -490.90731905 0 8932
0.09150000 0.09150830 20415.04504461 0 550.77052858 0 7175.27830307 0 -290.02227764 0 -877.31817671 0 9285
0.09250000 0.09250820 19972.05099930 0 702.19783084 0 8054.11733982 0 -551.21228616 0 -933.34382808 0 9204
0.09350000 0.09350330 19321.55454150 0 645.90914824 0 7654.91686976 0 19.00805279 0 -235.32302305 0 9349
0.09450000 0.09448040 18764.24307826 0 652.93118275 0 8470.27995183 0 36.67104932 0 -41.86569124 0 9564
0.09550000 0.09549270 18445.45822353 0 346.57511553 0 8302.20974210 0 671.67496784 0 388.40494910 0 10155
0.09650000 0.09649430 18181.07811833 0 172.44057473 0 8917.90514524 0 839.78789205 0 964.73784151 0 9913
0.09750000 0.09749140 18190.63267146 0 -230.67613804 0 7481.86705175 0 1355.97093833 0 1559.40423526 0 10476
0.09850000 0.09850240 18068.67161102 0 -242.20230130 0 7175.26706242 0 1571.91507952 0 1016.52801569 0 10575
0.09950000 0.09950330 18240.54116070 0 -112.95954733 0 6256.89465704 0 1621.71116226 0 1992.10184450 0 10882
0.10050000 0.10051200 17922.20593200 0 81.56103764 0 5472.61197424 0 1468.64722126 0 1387.01761565 0 10875
0.10150000 0.10150300 18075.30359496 0 -34.17865983 0 4630.05775805 0 516.05040660 0 989.85395150 0 11118
0.10250000 0.10250800 17892.53061407 0 294.53202671 0 4633.17141830 0 143.88482562 0 1670.21457017 0 11575
0.10350000 0.10349800 17529.57000197 0 520.02285257 0 4870.52899914 0 -351.94252626 0 966.86682076 0 11364
0.10450000 0.10450100 17088.03724125 0 728.91460950 0 5580.24120499 0 -1318.70818116 0 1336.18739304 0 12093
0.10550000 0.10551000 16739.80188161 0 544.75003605 0 5383.74338956 0 -226.59690589 0 963.12143593 0 12067
0.10650000 0.10649700 16391.00448942 0 179.28950322 0 5640.08642948 0 -117.06013671 0 929.24998309 0 12054
0.10750000 0.10749900 16214.52627295 0 91.73393896 0 5481.26727530 0 518.29291643 0 -56.25001476 0 12807
0.10850000 0.10850100 16183.05245090 0 -131.39196639 0 5639.79417256 0 61.39913205 0 -843.48606614 0 12736
0.10950000 0.10950300 16175.40880840 0 277.35743646 0 4795.47517420 0 -202.37892389 0 -1859.59705368 0 12933
0.11050000 0.11050200 15855.94951463 0 622.96698010 0 4977.11284937 0 -698.35015609 0 -1960.33576553 0 13428
0.11150000 0.11150900 15315.49902748 0 466.60503217 0 4927.18187882 0 -770.12620727 0 -2322.62193859 0 13453
0.11250000 0.11250000 15346.52322350 0 122.45789719 0 4898.31588774 0 58.34010136 0 -2223.97398778 0 13668
0.11350000 0.11349100 15142.50541273 0 17.98863818 0 4587.34328527 0 457.59227841 0 -3247.16546122 0 13791
0.11450000 0.11448600 14890.49002334 0 -49.98908471 0 3825.36205352 0 822.29968764 0 -3520.26831138 0 14205
0.11550000 0.11549300 14942.75904924 0 43.46163883 0 3699.60165314 0 1054.81929240 0 -3358.38045955 0 14776
0.11650000 0.11649800 14970.29864353 0 139.17836516 0 2863.70190218 0 540.75398472 0 -3395.32847850 0 14553
0.11750000 0.11747300 14697.37564379 0 139.14689133 0 2261.29294820 0 790.49988672 0 -3377.54576905 0 14568
0.11850000 0.11849100 14496.84243474 0 368.13131144 0 2636.71944197 0 123.99899041 0 -2712.13296772 0 16015
0.11950000 0.11950300 14229.20254084 0 342.93988909 0 2525.48196233 0 -21.03620340 0 -2360.37928440 0 15270
0.12050000 0.12050700 13797.78636578 0 541.47226230 0 3318.83585028 0 -95.20145489 0 -1411.53347489 0 15999
0.12150000 0.12150000 13749.90119367 0 278.59503211 0 3202.14665504 0 -0.72657543 0 -869.42161957 0 15670
0.12250000 0.12250700 13381.76988223 0 170.73199582 0 3730.12001987 0 49.55272265 0 -123.08512550 0 16887
0.12350000 0.12352200 13682.45728928 0 89.10632444 0 3996.33235114 0 -293.72607206 0 110.83382787 0 16407
0.12450000 0.12449800 13491.14141384 0 -4.81424706 0 4225.43929433 0 -40.32347396 0 174.67521610 0 16306
0.12550000 0.12549900 13482.71092579 0 158.82365044 0 3790.90945903 0 -27.85444492 0 -70.10007015 0 17523
0.12650000 0.12650100 13280.82883867 0 175.53175369 0 3934.62117862 0 75.38328840 0 -106.81046175 0 17154
0.12750000 0.12750600 13092.21071940 0 241.16478924 0 3452.41974356 0 539.89295087 0 -243.94460216 0 18007
0.12850000 0.12850300 12801.30267848 0 380.31842496 0 3451.23947524 0 501.02053251 0 -177.50223976 0 17496
0.12950000 0.12949900 12412.93819573 0 212.86532696 0 3014.06808701 0 413.14449729 0 -7.45975669 0 18405
0.13050000 0.13049000 12360.78157633 0 266.11790980 0 3469.20203511 0 344.54280588 0 496.44446360 0 18100
0.13150000 0.13148800 12166.99275773 0 -1.91077574 0 2992.94690428 0 228.75398677 0 1173.93984039 0 19059
0.13250000 0.13249300 12246.91378443 0 -177.04924153 0 3259.44025181 0 364.05320335 0 1417.86196126 0 18957
0.13350000 0.13349100 12499.15398683 0 -144.94144679 0 3542.26626486 0 90.11416119 0 1605.99673254 0 19468
0.13450000 0.13450700 12620.55301473 0 -17.67401236 0 3283.15802486 0 -70.72673643 0 1640.76406525 0 19953
0.13550000 0.13551000 12451.94325376 0 95.08713748 0 3454.82524282 0 29.79952712 0 1306.69192553 0 19956
0.13650000 0.13649900 12424.51606598 0 199.11126672 0 2885.38511744 0 54.44892530 0 1101.46686887 0 19723
0.13750000 0.13749600 12185.87705096 0 201.60781525 0 2913.74527923 0 281.76377155 0 904.01921845 0 20946
0.13850000 0.13851100 12058.29566516 0 159.87352722 0 2853.66400108 0 279.38862205 0 1182.92112033 0 20955
0.13950000 0.13949800 11960.61441031 0 111.91866307 0 2726.80201693 0 708.76349493 0 1319.00043808 0 20506
0.14050000 0.14048300 11832.02136595 0 126.91481521 0 2432.46557754 0 309.96881236 0 1392.72786622 0 21447
0.14150000 0.14148400 11783.12453527 0 160.09609210 0 2455.75620585 0 503.13152672 0 2032.60190908 0 21771
0.14250000 0.14249400 11587.08758652 0 141.74235759 0 2776.94655984 0 359.74803412 0 2495.67175660 0 22470
0.14350000 0.14350900 11510.31394203 0 190.17607346 0 2354.15196389 0 105.58118419 0 2347.87968079 0 22519
0.14450000 0.14449900 11326.52930258 0 156.04046532 0 2380.72486222 0 345.22736151 0 2127.84394273 0 22218
0.14550000 0.14550500 11168.62064111 0 240.29813507 0 2197.46853335 0 -275.54993982 0 1435.28496989 0 23559
0.14650000 0.14650700 10951.75476655 0 312.71827553 0 2362.98711537 0 -372.86250133 0 1255.01865412 0 23044
0.14750000 0.14750500 10617.27796340 0 333.52134784 0 2366.76397401 0 -448.33110628 0 823.94531891 0 23649
0.14850000 0.14849900 10595.53854489 0 368.60791503 0 2995.76830762 0 -558.39506197 0 639.24344236 0 23640
0.14950000 0.14949500 10231.12788884 0 173.00822760 0 2893.62451443 0 -163.93252620 0 910.22405766 0 24457
0.15050000 0.15050000 10180.76977357 0 183.04500463 0 3308.21343534 0 171.25581015 0 1298.55369440 0 24591
0.15150000 0.15149900 10183.44504844 0 86.00806388 0 3185.13955048 0 327.06246993 0 1649.66666063 0 25020
0.15250000 0.15250500 10085.31416756 0 -18.38779369 0 3002.53517936 0 681.66003789 0 1980.08558887 0 25297
0.15350000 0.15350100 10168.03411629 0 -45.61534751 0 2783.84831939 0 689.24522900 0 1825.38051286 0 25452
0.15450000 0.15450400 10045.20752575 0 70.07579035 0 2476.47272515 0 296.95438695 0 1887.39518294 0 26061
0.15550000 0.15549900 9975.44804731 0 182.75274771 0 2228.24543506 0 -116.33399068 0 1352.09291383 0 26128
0.15650000 0.15649500 9884.10651947 0 209.38971775 0 2276.95117467 0 -493.52526660 0 1294.64194794 0 26331
0.15750000 0.15749700 9659.49583657 0 233.37164609 0 2442.44727538 0 -570.47201712 0 536.99173892 0 27345
0.15850000 0.15849900 9492.31363824 0 229.76452127 0 2683.48054901 0 -347.22594921 0 678.03942429 0 26980
0.15950000 0.15949700 9377.04076500 0 200.11505683 0 2725.99269007 0 -136.63348183 0 58.13495948 0 27777
0.16050000 0.16050000 9237.51056747 0 159.85441811 0 2786.73716662 0 13.98550523 0 27.06894824 0 28224
0.16150000 0.16150500 9061.65058679 0 94.08851807 0 2935.30484734 0 41.70045368 0 -182.30199762 0 28075
0.16250000 0.16249700 9004.53684042 0 170.71288672 0 2664.77610619 0 187.94592835 0 -464.15232218 0 28590
0.16350000 0.16349900 8855.67690279 0 72.53884174 0 2577.23391830 0 285.98126370 0 15.72196096 0 29163
0.16450000 0.16449100 8673.98302438 0 181.67589337 0 2410.45638340 0 106.73020350 0 -299.07886993 0 28996
0.16550000 0.16550500 8626.98586367 0 12.62325077 0 2113.84933257 0 612.42212565 0 77.57274235 0 30777
0.16650000 0.16650700 8567.94996603 0 62.50273914 0 2095.65071903 0 510.83137247 0 -53.98086460 0 29211
0.16750000 0.16749900 8477.13674878 0 52.61298981 0 1525.63732046 0 550.72331785 0 21.33183252 0 30922
0.16850000 0.16850800 8342.92337905 0 52.25767284 0 1563.76560774 0 223.47088092 0 134.64950698 0 30867
0.16950000 0.16949900 8401.90307343 0 106.10994440 0 1176.59263397 0 23.65493780 0 13.91637523 0 30852
0.17050000 0.17049200 8337.66275451 0 63.65142124 0 1352.11539513 0 -57.73198215 0 297.47482908 0 31257
0.17150000 0.17149500 8308.93165124 0 40.70363277 0 1507.70848255 0 -240.16774352 0 130.56577857 0 32608
0.17250000 0.17250900 8247.22047873 0 103.89261363 0 1608.36850984 0 -141.32870164 0 320.58335885 0 32361
0.17350000 0.17350400 8057.06239031 0 171.52558576 0 1835.27228550 0 -245.92970108 0 -191.38107122 0 32508
0.17450000 0.17449800 8101.10325987 0 170.79494347 0 1765.09690299 0 -151.66110779 0 48.70158058 0 32791
0.17550000 0.17549800 7958.05473867 0 146.65227383 0 1929.81739880 0 -67.15715539 0 -179.51319217 0 33633
0.17650000 0.17650100 7909.25907385 0 171.42441991 0 1823.00873555 0 -31.98943070 0 67.95647806 0 33984
0.17750000 0.17750300 7668.46185389 0 144.56038873 0 1829.92173575 0 220.12004294 0 -85.31665145 0 34069
