### header ###
fiducial parameters:
Omega_m = 0.31
Omega_nu = 0
Omega_de = 0.69
Omega_k = 0
H_0 = 100
w_de = -1
zeff = 0
beta = 0
fgrowth = 0
b_1 = 2
gamma = 0.55
Lx = 3500 Ly = 3500 Lz = 3500
nx = 700 ny = 700 nz = 700
xoffset = 857.220397 yoffset = 15.9954215 zoffset = 262.898189
bins = 400 dk = 0.001
kx_ny = 0.628318531 ky_ny = 0.628318531 kz_ny = 0.628318531
############################
A(data) = 3.09871497 (not used)
A(ran) = 3.10281533 (used)
Ngal = 189261
weighted Ngal = 0
Nran = 9360983
weighted Nran = 0
SN(data) = 3427.32151
SN(ran) = 69.6775714
SN(data+ran) = 3496.99908
############################
13 columns: k_central k_mean P_0(k) sigma^{lin}_{P_0(k)} P^img_1(k) sigma^{lin}_{P_1(k)} P_2(k) sigma^{lin}_{P_2(k)} P^img_3(k) sigma^{lin}_{P_3(k)} P_4(k) sigma^{lin}_{P_4(k)} N_modes
### header ###
0.00050000 0 0 0 0 0 0 0 0 0 0 0 0
0.00150000 0.00179520 17855.77368618 0 -17892.64302058 0 -7610.67366848 0 22311.79244896 0 21981.42972398 0 3
0.00250000 0.00253879 31168.07634689 0 -16101.55773310 0 7082.85767276 0 -33639.55822312 0 -18051.13619588 0 6
0.00350000 0.00331552 46269.10375843 0 -11349.01060404 0 -325.30668029 0 8861.74685419 0 11623.95692092 0 7
0.00450000 0.00420575 61411.38435815 0 -9721.39810014 0 10494.55253872 0 -16893.91120313 0 -8236.35076947 0 24
0.00550000 0.00557378 77719.88247120 0 -6838.57585107 0 12120.68127672 0 -13703.14008663 0 -4166.04369587 0 45
0.00650000 0.00659388 100805.25650347 0 -18658.24374186 0 -1114.28233477 0 -15256.14839162 0 -36969.37618916 0 40
0.00750000 0.00754703 103262.91237929 0 -11754.01124988 0 -7542.82510067 0 -19213.08226195 0 -27306.68800778 0 57
0.00850000 0.00846663 124829.67449780 0 -16391.90374148 0 -19129.00219448 0 -34750.24692184 0 -67624.76645621 0 75
0.00950000 0.00948925 117088.23833937 0 -1513.72223069 0 -14159.06088028 0 -41849.27989100 0 -54019.86965697 0 112
0.01050000 0.01054430 129818.27529222 0 7755.11603037 0 -1934.29117779 0 -60348.24361201 0 -58315.59674032 0 105
0.01150000 0.01145670 110303.71877766 0 16100.20885501 0 -2662.33688498 0 -21774.03971799 0 -55226.66591945 0 144
0.01250000 0.01249090 100623.71999416 0 16291.52473045 0 35225.05200872 0 -25890.92804821 0 -49604.31723682 0 169
0.01350000 0.01339930 82106.99604500 0 10431.24519380 0 12399.44941485 0 13154.93355048 0 -48266.34258031 0 180
0.01450000 0.01448870 84851.06370145 0 1771.43663000 0 37172.38234136 0 25463.33369441 0 -19957.55055986 0 267
0.01550000 0.01550050 72862.01044479 0 764.11021100 0 12863.46347702 0 13191.46566535 0 -43897.88848673 0 238
0.01650000 0.01653350 89693.53603636 0 -6870.94892517 0 29876.86279742 0 19347.74525770 0 -895.66853903 0 315
0.01750000 0.01747870 83868.40601455 0 -6138.23834793 0 -856.40831822 0 4733.91013015 0 -33605.16183188 0 297
0.01850000 0.01844180 96081.93506631 0 -1455.47317860 0 19580.76394736 0 -4992.29896850 0 4460.04291574 0 388
0.01950000 0.01947590 94487.11154059 0 -796.84073780 0 18576.07458502 0 -12154.85285494 0 -24442.23298200 0 399
0.02050000 0.02045430 92952.31308978 0 5814.02425889 0 19363.03254270 0 -14107.24148041 0 -18185.34956561 0 462
0.02150000 0.02154770 89067.65660366 0 7605.24443418 0 29689.59355624 0 -14215.82616647 0 -22357.09227140 0 571
0.02250000 0.02255340 79190.60921285 0 6282.17488054 0 20475.51974554 0 -5740.47668116 0 -36040.44881275 0 510
0.02350000 0.02348930 77913.55888330 0 5985.01703781 0 32947.92098364 0 -2616.82349017 0 -37149.22660085 0 555
0.02450000 0.02439640 71794.93547090 0 4497.13706315 0 15410.14530664 0 -2602.50290114 0 -51371.23512522 0 592
0.02550000 0.02547300 66023.64816609 0 2378.93759875 0 27245.20164828 0 -3316.52027623 0 -35594.75701126 0 837
0.02650000 0.02652900 66984.61139708 0 -542.06239646 0 17176.38875600 0 -3073.82338629 0 -43754.57018990 0 723
0.02750000 0.02749970 65539.73815212 0 127.01935326 0 23002.86765590 0 -2615.12615191 0 -33785.57427611 0 826
0.02850000 0.02848090 68497.26576595 0 628.20287521 0 21735.14706646 0 -786.91074694 0 -34190.46251544 0 831
0.02950000 0.02946900 68868.43205309 0 1085.38037361 0 28347.68467198 0 1369.24614684 0 -16179.23062965 0 996
0.03050000 0.03053250 65470.60815012 0 1913.86691541 0 22867.86744062 0 4938.86091493 0 -13540.60027706 0 1041
0.03150000 0.03150510 66446.63385309 0 831.90819588 0 25613.73360119 0 7557.02204254 0 -11832.80821150 0 1036
0.03250000 0.03246190 62415.28687493 0 1303.67943113 0 23005.67781858 0 11619.57306713 0 -3075.56568716 0 1059
0.03350000 0.03345080 62552.87243988 0 1509.67559643 0 15405.64904635 0 7820.79515259 0 -7241.91288060 0 1302
0.03450000 0.03451200 58401.92493794 0 1725.42864656 0 11523.91512941 0 3297.13015372 0 2170.88439437 0 1339
0.03550000 0.03553350 56398.84097767 0 1046.86203575 0 7193.52187920 0 3797.81121858 0 -6013.30975570 0 1365
0.03650000 0.03647120 56022.50399120 0 230.37488860 0 8909.53086045 0 -429.23998507 0 -1825.80765758 0 1308
0.03750000 0.03744890 56740.44435339 0 570.36972720 0 1463.71257559 0 -990.97464438 0 -9530.85782960 0 1579
0.03850000 0.03847530 54887.19826737 0 1895.36480431 0 4609.58853307 0 -3115.62736636 0 -4528.91438277 0 1662
0.03950000 0.03950240 52612.87740497 0 1855.57290072 0 2987.28161632 0 -5056.85402565 0 -9551.90032777 0 1683
0.04050000 0.04050350 50734.67707433 0 1812.47624582 0 4055.13219511 0 -3874.09027444 0 -11963.08735347 0 1822
0.04150000 0.04152450 48264.31926318 0 1847.05248747 0 5909.61475271 0 -701.60657261 0 -13855.78812356 0 1887
0.04250000 0.04250150 47193.87209407 0 1508.04570207 0 6880.42479374 0 -2363.84140482 0 -19046.94544414 0 1920
0.04350000 0.04349210 44697.88559925 0 1957.22210528 0 7022.41669378 0 -1395.54926955 0 -17846.44394607 0 2005
0.04450000 0.04448520 45215.85478493 0 1693.04433180 0 11432.64104548 0 -1966.76541775 0 -14472.22540964 0 2151
0.04550000 0.04548030 42429.85950126 0 1583.43674652 0 9952.98922715 0 522.24850142 0 -8625.98544576 0 2274
0.04650000 0.04648670 42761.79591734 0 1633.34523577 0 14528.09144378 0 1851.52626646 0 -4828.91611013 0 2311
0.04750000 0.04749250 41878.95520893 0 926.99510855 0 13043.08907571 0 3196.87478985 0 1310.31141506 0 2568
0.04850000 0.04851840 40556.60505694 0 1492.32003170 0 14379.49004111 0 4522.76574682 0 4625.22427823 0 2493
0.04950000 0.04949480 40313.58218813 0 1025.76558246 0 13097.38141874 0 3744.51929346 0 5023.79527185 0 2644
0.05050000 0.05050630 38411.55167794 0 931.94324300 0 13126.60711064 0 1831.47294555 0 7044.86427328 0 2829
0.05150000 0.05149060 37475.99231760 0 1165.54307430 0 9276.90904829 0 1200.47901677 0 6270.63073224 0 2784
0.05250000 0.05249300 36219.96200492 0 983.29053554 0 14090.60531733 0 -6.72016684 0 5709.20519083 0 3055
0.05350000 0.05348950 35371.74250076 0 1452.60681266 0 10669.07488197 0 -443.52685215 0 2154.63041342 0 3009
0.05450000 0.05448610 34251.94887494 0 1523.91750090 0 13426.50767214 0 -811.50641481 0 6507.93210982 0 3336
0.05550000 0.05550870 33613.70472643 0 991.42089821 0 12959.68344728 0 134.00316956 0 2414.99760630 0 3349
0.05650000 0.05647670 33631.91458062 0 -14.03114227 0 14556.75510314 0 526.87178106 0 6933.70547821 0 3324
0.05750000 0.05747970 33771.18624318 0 -704.57410440 0 13383.68079285 0 2145.79526194 0 5607.30869195 0 3639
0.05850000 0.05849280 34774.07710139 0 -943.78976481 0 12693.28002496 0 1708.39906070 0 3599.89708116 0 3846
0.05950000 0.05951020 35340.26867871 0 -29.35428494 0 13140.54551754 0 281.50973284 0 2585.54075919 0 3787
0.06050000 0.06049470 34670.88792768 0 859.88617555 0 9848.43993470 0 679.25903489 0 -1815.70231258 0 3930
0.06150000 0.06148310 33217.24697515 0 1534.85465406 0 9186.93887984 0 -265.43110604 0 -3871.81966299 0 4083
0.06250000 0.06249100 30927.52642125 0 694.02362963 0 5972.46123095 0 2225.85117645 0 -6489.36255481 0 4303
0.06350000 0.06350600 30736.88498485 0 207.69912388 0 3165.34476455 0 1400.31530546 0 -6309.43345856 0 4470
0.06450000 0.06451750 29649.46443314 0 -66.59231269 0 2084.80349108 0 2698.11587626 0 -9843.33667927 0 4479
0.06550000 0.06550280 30262.30471099 0 243.36121239 0 659.13264976 0 858.29674754 0 -7599.95008768 0 4636
0.06650000 0.06648880 29441.17517509 0 1182.02186827 0 2157.51926066 0 -1234.25717222 0 -6879.76159535 0 4653
0.06750000 0.06749660 28877.56894744 0 1572.35346490 0 3727.50094825 0 -2556.41623315 0 -4475.16159097 0 5220
0.06850000 0.06852730 27641.20977354 0 1636.06547325 0 7818.73811351 0 -1958.67214922 0 -2488.19672386 0 5029
0.06950000 0.06949320 27457.08791456 0 1043.28975695 0 9520.43774637 0 -1887.41766424 0 -850.98807644 0 5040
0.07050000 0.07048030 26114.05496522 0 216.80405097 0 11552.24156925 0 -778.76577142 0 166.71795945 0 5475
0.07150000 0.07148790 26759.15591068 0 -324.51084221 0 11844.04886223 0 1971.68882277 0 1195.47692719 0 5509
0.07250000 0.07249820 26654.95507840 0 -287.72019237 0 11418.92745158 0 1682.41067621 0 2144.67119687 0 5916
0.07350000 0.07351270 27163.81933699 0 47.32505049 0 9431.18697957 0 2602.25560683 0 2303.62523886 0 5721
0.07450000 0.07449140 26815.02194481 0 -104.89651615 0 8715.14628735 0 1477.42616948 0 3500.37235958 0 6028
0.07550000 0.07549160 26662.14909487 0 115.41450545 0 9145.74189491 0 968.62710666 0 4815.75330812 0 6183
0.07650000 0.07648840 26958.78986766 0 641.81530324 0 8568.42207336 0 -170.33070459 0 3679.63825744 0 6330
0.07750000 0.07749960 25528.07984262 0 1498.46866765 0 9757.61547680 0 -24.50360693 0 3918.11990335 0 6583
0.07850000 0.07848650 24510.91335797 0 1437.19588051 0 8625.38969127 0 -773.21064183 0 3722.51009933 0 6549
0.07950000 0.07947320 23337.38942165 0 1096.08034904 0 10081.09892353 0 586.26063514 0 4119.52988315 0 6828
0.08050000 0.08048110 22487.59622639 0 323.54639438 0 8043.48368423 0 1516.55487467 0 2063.55866120 0 7147
0.08150000 0.08149960 22302.35030234 0 0.31397161 0 6913.57347275 0 1459.74462588 0 1953.20919297 0 7386
0.08250000 0.08250610 22264.91893541 0 52.30949224 0 5631.82455119 0 1120.82888975 0 278.10718787 0 7227
0.08350000 0.08350160 21780.78410843 0 276.10073171 0 5391.43199466 0 95.44953606 0 704.39312993 0 7798
0.08450000 0.08449610 21580.81293192 0 633.93673115 0 5336.75746950 0 -396.71066592 0 454.48873475 0 7371
0.08550000 0.08548940 21265.84989844 0 580.69089270 0 6175.08520102 0 -1415.98477258 0 1129.96641473 0 8256
0.08650000 0.08650700 20651.43592948 0 715.44268960 0 6534.24647318 0 -1038.95761015 0 552.41840798 0 8037
0.08750000 0.08749060 20831.84837372 0 198.89544623 0 8430.38688239 0 -538.52271555 0 1149.97477303 0 8155
0.08850000 0.08849210 20444.38314302 0 26.09033719 0 8021.14851122 0 -138.52865554 0 -151.85107479 0 8718
0.08950000 0.08949900 20539.47904820 0 -88.15030710 0 8353.50083139 0 207.84637641 0 -347.22707328 0 8571
0.09050000 0.09049190 20386.15657223 0 16.16439297 0 7819.28890540 0 136.12765255 0 -1586.38179701 0 8932
0.09150000 0.09150830 20227.43858391 0 165.99068934 0 7250.16351824 0 442.04983065 0 -2992.53100021 0 9285
0.09250000 0.09250820 20100.98126319 0 209.23010051 0 7053.24979873 0 468.86440297 0 -2859.34052970 0 9204
0.09350000 0.09350330 19606.50503753 0 313.24771018 0 5698.90875476 0 439.34645415 0 -2391.79690319 0 9349
0.09450000 0.09448040 19886.62205375 0 220.32012652 0 6676.93529356 0 654.35986946 0 -1819.82763140 0 9564
0.09550000 0.09549270 19206.33787151 0 388.18912860 0 4811.03223482 0 404.36554907 0 -1975.94902940 0 10155
0.09650000 0.09649430 19276.70434508 0 416.50882406 0 5969.58362436 0 264.23397673 0 -1686.43482917 0 9913
0.09750000 0.09749140 18877.99846366 0 340.84687992 0 5003.41597208 0 269.45638306 0 -950.36442142 0 10476
0.09850000 0.09850240 18676.11637653 0 85.91173150 0 5727.62861737 0 602.36623950 0 -1713.07517140 0 10575
0.09950000 0.09950330 18537.06952698 0 266.65184071 0 5477.52413861 0 -112.02320112 0 -1558.34761409 0 10882
0.10050000 0.10051200 18233.23473773 0 261.31028348 0 6164.21549177 0 -215.10783678 0 -1874.98550453 0 10875
0.10150000 0.10150300 17723.92085310 0 550.65699801 0 6054.84396015 0 -61.88382891 0 -1369.93182654 0 11118
0.10250000 0.10250800 17611.28953278 0 299.45318360 0 6113.49767567 0 410.39953038 0 -683.64850900 0 11575
0.10350000 0.10349800 17490.45253742 0 -24.96762100 0 5910.59268932 0 1094.86073843 0 -1161.99102867 0 11364
0.10450000 0.10450100 17201.90503316 0 -71.89362838 0 5086.73167530 0 1278.86007432 0 -792.99081492 0 12093
0.10550000 0.10551000 17409.63225867 0 117.44456697 0 4389.04696572 0 1076.60030132 0 -1163.81201408 0 12067
0.10650000 0.10649700 16983.72400247 0 439.46897724 0 3737.43768350 0 30.18260850 0 -1257.97494526 0 12054
0.10750000 0.10749900 16637.17474043 0 699.65182345 0 3166.27773856 0 -530.22936344 0 -1573.74730559 0 12807
0.10850000 0.10850100 15911.81554876 0 593.69407746 0 3878.48536887 0 -443.56619443 0 -1938.37153400 0 12736
0.10950000 0.10950300 15485.45766654 0 525.51728265 0 3464.37979594 0 -610.57753486 0 -1931.82947528 0 12933
0.11050000 0.11050200 15004.69503477 0 343.47831626 0 3913.54495850 0 -245.78806888 0 -2776.69926552 0 13428
0.11150000 0.11150900 15027.06392973 0 131.94051015 0 4392.46412355 0 24.30880646 0 -1730.19468247 0 13453
0.11250000 0.11250000 14889.47836478 0 31.39513749 0 4397.46621312 0 175.28445937 0 -2239.68841750 0 13668
0.11350000 0.11349100 15135.76102229 0 5.17022723 0 4733.76400169 0 168.03311558 0 -1176.51394941 0 13791
0.11450000 0.11448600 14990.19459533 0 96.52200654 0 5775.80604641 0 -22.18679641 0 -1061.92450773 0 14205
0.11550000 0.11549300 15161.27729945 0 231.75748864 0 5218.67443358 0 -4.15538756 0 10.65294455 0 14776
0.11650000 0.11649800 15190.16577183 0 155.07039716 0 5869.31701984 0 -166.04127227 0 -400.74156328 0 14553
0.11750000 0.11747300 14863.17524207 0 210.85549861 0 5604.37488211 0 -103.07069725 0 101.63346765 0 14568
0.11850000 0.11849100 14831.58901351 0 237.22381709 0 5899.74546137 0 303.45260713 0 -191.37432683 0 16015
0.11950000 0.11950300 14660.73112240 0 128.10295199 0 5860.84156919 0 401.89710217 0 -468.06744083 0 15270
0.12050000 0.12050700 14367.68735785 0 403.15155879 0 5655.77837790 0 269.42828144 0 -489.29316160 0 15999
0.12150000 0.12150000 14021.70012835 0 303.05581216 0 5397.76048102 0 422.23368747 0 -1396.96559155 0 15670
0.12250000 0.12250700 13812.39921173 0 274.17520824 0 4973.68445089 0 305.18816361 0 -443.18176418 0 16887
0.12350000 0.12352200 13624.34312501 0 85.01978587 0 4583.43153882 0 534.75147723 0 -948.28265290 0 16407
0.12450000 0.12449800 13640.19244254 0 -86.79614590 0 4316.96067259 0 714.99193950 0 -391.26569471 0 16306
0.12550000 0.12549900 13612.87766126 0 -180.27643236 0 3594.99615744 0 621.36181517 0 -1018.92002616 0 17523
0.12650000 0.12650100 13688.75205369 0 38.91524524 0 3235.48642511 0 468.04608359 0 -711.78048559 0 17154
0.12750000 0.12750600 13601.41219751 0 213.57798421 0 3140.78394270 0 -279.62355165 0 -1114.80165283 0 18007
0.12850000 0.12850300 13346.24942592 0 302.29482011 0 3317.39704698 0 -262.27922757 0 -722.76597355 0 17496
0.12950000 0.12949900 13168.08511183 0 306.38529291 0 3451.30691914 0 -418.79517241 0 -542.59632737 0 18405
0.13050000 0.13049000 12933.94235711 0 112.15381748 0 3719.03673825 0 115.16833519 0 -880.33853956 0 18100
0.13150000 0.13148800 12941.47359310 0 142.61125989 0 3923.53789700 0 390.40578493 0 -168.11629640 0 19059
0.13250000 0.13249300 13039.82928699 0 24.12873123 0 4224.40515447 0 356.21622167 0 7.02141628 0 18957
0.13350000 0.13349100 12923.60095844 0 187.99988348 0 3893.28930588 0 418.76707079 0 423.69159987 0 19468
0.13450000 0.13450700 12678.32995948 0 268.97078695 0 4245.23408027 0 -18.93240321 0 357.68762285 0 19953
0.13550000 0.13551000 12398.32534978 0 446.55283533 0 4109.94160807 0 -277.89136737 0 1094.74608380 0 19956
0.13650000 0.13649900 12245.45249983 0 333.02338701 0 4799.18458895 0 -295.62574203 0 653.26278195 0 19723
0.13750000 0.13749600 11755.92216050 0 250.02804234 0 4370.60105787 0 -309.33821186 0 601.66594696 0 20946
0.13850000 0.13851100 11819.99386967 0 128.91677510 0 4832.20962079 0 -164.89472590 0 168.13203331 0 20955
0.13950000 0.13949800 11684.20680884 0 -6.89198018 0 4534.98433416 0 163.79988652 0 182.51556998 0 20506
0.14050000 0.14048300 11759.63157524 0 -94.08008758 0 4397.80343264 0 369.61507734 0 -78.38431734 0 21447
0.14150000 0.14148400 11668.69471083 0 -30.06907792 0 3815.08809875 0 582.79739064 0 -526.45700105 0 21771
0.14250000 0.14249400 11744.56910326 0 66.29758282 0 3839.42410758 0 755.04575025 0 -50.30663309 0 22470
0.14350000 0.14350900 11382.17052369 0 113.08769074 0 3128.82389032 0 453.11849942 0 -436.09228576 0 22519
0.14450000 0.14449900 11398.35706075 0 210.45870364 0 3005.19921358 0 446.50337647 0 -63.06477167 0 22218
0.14550000 0.14550500 11105.75168157 0 288.06977661 0 2692.67540131 0 385.26431128 0 75.68094084 0 23559
0.14650000 0.14650700 10889.56024606 0 178.77018516 0 2684.07630350 0 326.52629089 0 304.84869595 0 23044
0.14750000 0.14750500 10815.66420815 0 143.37000381 0 2582.82052171 0 49.19661883 0 885.68796524 0 23649
0.14850000 0.14849900 10784.33651457 0 -10.60694781 0 2355.87178345 0 371.87557220 0 624.45187006 0 23640
0.14950000 0.14949500 10783.65083487 0 38.57161854 0 2515.57894904 0 71.80134264 0 901.60023042 0 24457
0.15050000 0.15050000 10793.12670344 0 58.17767396 0 2241.16094275 0 97.98025616 0 250.67213163 0 24591
0.15150000 0.15149900 10616.49111785 0 237.33285140 0 2547.14269629 0 -419.22119308 0 265.12760847 0 25020
0.15250000 0.15250500 10402.66021900 0 396.68818462 0 2626.13074898 0 -582.86933081 0 -193.54602055 0 25297
0.15350000 0.15350100 10133.63772505 0 353.03174531 0 2814.11939181 0 -272.00688671 0 -4.12020432 0 25452
0.15450000 0.15450400 9825.47528526 0 218.78352957 0 2714.30241331 0 148.43616510 0 -27.36772474 0 26061
0.15550000 0.15549900 9802.90405859 0 -26.67350215 0 2311.48245372 0 588.71671732 0 -304.73066912 0 26128
0.15650000 0.15649500 9732.03175573 0 -87.25397761 0 2276.19805107 0 836.37410642 0 90.85132306 0 26331
0.15750000 0.15749700 9847.68681111 0 22.35979003 0 1972.49814962 0 729.45303667 0 110.85777045 0 27345
0.15850000 0.15849900 9547.84245286 0 150.71352094 0 1881.40391610 0 308.89195802 0 684.64667879 0 26980
0.15950000 0.15949700 9552.78833918 0 229.34636906 0 1964.53976891 0 -163.80550684 0 693.39977351 0 27777
0.16050000 0.16050000 9277.68465319 0 269.91837381 0 1946.49852448 0 -43.48839158 0 1087.32950245 0 28224
0.16150000 0.16150500 9139.69442481 0 159.49134509 0 2021.82212503 0 75.44904621 0 1131.41645868 0 28075
0.16250000 0.16249700 9023.29748649 0 49.55002489 0 2139.54546014 0 4.95238342 0 1109.63320163 0 28590
0.16350000 0.16349900 9045.91367577 0 23.45260609 0 2063.92960267 0 -106.48021143 0 929.70747757 0 29163
0.16450000 0.16449100 9056.89579153 0 35.02227067 0 1995.24922670 0 -44.65517113 0 730.81877573 0 28996
0.16550000 0.16550500 8976.88483963 0 120.85048414 0 2151.96637919 0 -323.07541111 0 532.90688644 0 30777
0.16650000 0.16650700 8972.96185252 0 180.78563384 0 2260.18012378 0 -207.90257966 0 369.47569327 0 29211
0.16750000 0.16749900 8791.49278712 0 149.92667538 0 2657.13246370 0 -248.02158618 0 687.17357707 0 30922
0.16850000 0.16850800 8874.02164479 0 165.81533519 0 2538.13893506 0 -10.21919032 0 564.19186555 0 30867
0.16950000 0.16949900 8752.39780388 0 12.43418303 0 2677.39935696 0 247.19090210 0 879.75402572 0 30852
0.17050000 0.17049200 8788.71634639 0 32.36801581 0 2736.91860258 0 328.82163177 0 806.69541630 0 31257
0.17150000 0.17149500 8732.49061143 0 4.97793342 0 2559.50741210 0 315.12377479 0 602.64275951 0 32608
0.17250000 0.17250900 8708.61546928 0 158.77081938 0 2590.93627154 0 175.12371806 0 1035.29090989 0 32361
0.17350000 0.17350400 8493.08723216 0 158.99338426 0 2365.41509593 0 66.49901529 0 537.78870105 0 32508
0.17450000 0.17449800 8345.45252546 0 181.10037206 0 2157.87896148 0 -30.22015227 0 469.97947552 0 32791
0.17550000 0.17549800 8253.42531793 0 65.78781931 0 2121.52669702 0 -49.05532386 0 250.15506169 0 33633
0.17650000 0.17650100 8177.24742792 0 36.23288875 0 2068.22353125 0 96.02550700 0 150.32571849 0 33984
0.17750000 0.17750300 8161.44307300 0 -3.66907205 0 1931.25620209 0 53.44772053 0 308.08937556 0 34069
