### header ###
fiducial parameters:
Omega_m = 0.31
Omega_nu = 0
Omega_de = 0.69
Omega_k = 0
H_0 = 100
w_de = -1
zeff = 0
beta = 0
fgrowth = 0
b_1 = 2
gamma = 0.55
Lx = 3500 Ly = 3500 Lz = 3500
nx = 700 ny = 700 nz = 700
xoffset = 857.220397 yoffset = 15.9954215 zoffset = 262.898189
bins = 400 dk = 0.001
kx_ny = 0.628318531 ky_ny = 0.628318531 kz_ny = 0.628318531
############################
A(data) = 3.05102413 (not used)
A(ran) = 3.05109363 (used)
Ngal = 186504
weighted Ngal = 0
Nran = 9360983
weighted Nran = 0
SN(data) = 3448.63119
SN(ran) = 68.5160964
SN(data+ran) = 3517.14729
############################
13 columns: k_central k_mean P_0(k) sigma^{lin}_{P_0(k)} P^img_1(k) sigma^{lin}_{P_1(k)} P_2(k) sigma^{lin}_{P_2(k)} P^img_3(k) sigma^{lin}_{P_3(k)} P_4(k) sigma^{lin}_{P_4(k)} N_modes
### header ###
0.00050000 0 0 0 0 0 0 0 0 0 0 0 0
0.00150000 0.00179520 9358.76346691 0 -21886.89585133 0 -6995.12439380 0 -5229.16196071 0 5547.36230160 0 3
0.00250000 0.00253879 21366.79094200 0 -26696.65789261 0 -18783.46459101 0 -2514.35371811 0 -6971.32793620 0 6
0.00350000 0.00331552 36661.60717214 0 -30820.96505232 0 -26156.54462499 0 -5241.02084723 0 4610.22925016 0 7
0.00450000 0.00420575 54890.00843005 0 -30330.87268045 0 -37125.28401480 0 -16952.13777392 0 1381.23992117 0 24
0.00550000 0.00557378 81606.00024192 0 -21272.93150840 0 -47333.48097615 0 -32083.96456845 0 -3138.52457190 0 45
0.00650000 0.00659388 87441.69647542 0 -4572.46066370 0 -44590.08775874 0 -35155.13516117 0 -7789.62482812 0 40
0.00750000 0.00754703 87880.53147996 0 9514.66005190 0 -34819.03970432 0 -47789.40176979 0 -7202.24462417 0 57
0.00850000 0.00846663 78232.79336406 0 16374.81795237 0 -14625.77269863 0 -40784.45304726 0 1849.41302412 0 75
0.00950000 0.00948925 65877.07008055 0 17117.15052665 0 11022.77319787 0 -35490.89339851 0 7140.99431834 0 112
0.01050000 0.01054430 55521.39578161 0 12722.84293638 0 9568.01942092 0 -1997.90202028 0 1415.92856933 0 105
0.01150000 0.01145670 51946.75644265 0 4249.23575193 0 32267.63680140 0 7583.29144330 0 13183.82202286 0 144
0.01250000 0.01249090 51211.16825882 0 -403.82374971 0 27527.11716862 0 17976.49827503 0 7710.18714940 0 169
0.01350000 0.01339930 59669.87034039 0 -5496.72317006 0 35033.39891376 0 18154.55018261 0 -91.43010417 0 180
0.01450000 0.01448870 61367.20860077 0 -5444.69019782 0 21240.33362128 0 8133.39764942 0 8764.18924649 0 267
0.01550000 0.01550050 64872.49312473 0 -5517.46217066 0 20599.27931009 0 -11544.93514628 0 -22989.04165550 0 238
0.01650000 0.01653350 70687.84378040 0 -1694.33700663 0 29650.81331122 0 -26110.90758302 0 -21501.67875078 0 315
0.01750000 0.01747870 77022.06287382 0 -369.08451862 0 38195.16915137 0 -35593.18332016 0 -60265.62482914 0 297
0.01850000 0.01844180 74115.68022082 0 3542.45735592 0 50928.46589293 0 -30369.87773848 0 -49799.23012050 0 388
0.01950000 0.01947590 75124.64103043 0 -958.47005466 0 62783.41818637 0 -23635.71629206 0 -70322.74744466 0 399
0.02050000 0.02045430 78795.83755917 0 -1732.22924025 0 63949.18607368 0 -9671.28727918 0 -70947.50281229 0 462
0.02150000 0.02154770 81149.40500923 0 -488.54565833 0 63014.52596540 0 7238.13602195 0 -65117.20209114 0 571
0.02250000 0.02255340 80773.96727481 0 3436.52546343 0 61423.41185443 0 18835.39639739 0 -59657.28081157 0 510
0.02350000 0.02348930 75578.65091346 0 5321.33529670 0 45661.32177340 0 24636.35902013 0 -46858.22626324 0 555
0.02450000 0.02439640 75375.30754173 0 7857.49587723 0 47005.36638131 0 22819.86986200 0 -31181.45272126 0 592
0.02550000 0.02547300 62564.22549712 0 6407.60930204 0 35664.56145230 0 22883.71675815 0 -11597.87861122 0 837
0.02650000 0.02652900 60031.59448092 0 2620.67903338 0 29043.25613921 0 23211.26932045 0 -1812.18398890 0 723
0.02750000 0.02749970 56701.21448234 0 -584.18336288 0 23726.42834345 0 16433.38174268 0 7934.76411036 0 826
0.02850000 0.02848090 59149.09099203 0 -973.72136957 0 19141.81653631 0 11044.97348307 0 12584.35811937 0 831
0.02950000 0.02946900 59608.38398089 0 -616.05285583 0 19861.55540262 0 347.03485815 0 17673.22551831 0 996
0.03050000 0.03053250 60188.28915211 0 2070.97749068 0 21545.74210164 0 555.64559880 0 24170.20923431 0 1041
0.03150000 0.03150510 59146.39323585 0 2062.25474571 0 20642.89303493 0 -4282.10341467 0 13125.70785858 0 1036
0.03250000 0.03246190 58030.64624429 0 3517.27829828 0 29429.48489833 0 1299.21689279 0 31231.13639749 0 1059
0.03350000 0.03345080 55969.89774578 0 1892.35230991 0 15889.33424730 0 1978.70298883 0 -1108.39897818 0 1302
0.03450000 0.03451200 53526.62990289 0 1321.43965928 0 25878.90055193 0 4245.41393068 0 16828.71542889 0 1339
0.03550000 0.03553350 51981.49005341 0 1745.54941136 0 16730.69695451 0 -1475.26796454 0 575.64384052 0 1365
0.03650000 0.03647120 49597.23562686 0 706.97061114 0 18123.63839310 0 -1730.79043696 0 1000.02112009 0 1308
0.03750000 0.03744890 49227.30581130 0 2035.22098070 0 18350.81194437 0 -4218.54877544 0 -3754.41106610 0 1579
0.03850000 0.03847530 48764.19100119 0 1651.46516475 0 20160.10708603 0 -6622.32821231 0 -2552.48200539 0 1662
0.03950000 0.03950240 45240.69662305 0 2250.76045847 0 19772.19222931 0 -483.01525817 0 -6846.70284155 0 1683
0.04050000 0.04050350 45569.93528296 0 1514.16061607 0 24151.10012807 0 3188.08460097 0 -4386.36045020 0 1822
0.04150000 0.04152450 42890.61377472 0 170.39590037 0 15140.36968909 0 8575.54864593 0 -4701.17735522 0 1887
0.04250000 0.04250150 44203.52178010 0 -601.39279915 0 19770.50613170 0 7128.70828709 0 -3423.47506793 0 1920
0.04350000 0.04349210 44911.12074362 0 -1109.48032878 0 10710.24938560 0 3883.19520153 0 -8830.25055084 0 2005
0.04450000 0.04448520 44994.18915252 0 -121.90260905 0 14178.50720604 0 4140.59486262 0 -4124.64437923 0 2151
0.04550000 0.04548030 43391.49717129 0 2321.26181985 0 9890.99703837 0 -794.35542992 0 -446.13693125 0 2274
0.04650000 0.04648670 41803.30562951 0 2450.21456504 0 13602.31144957 0 -1667.21331642 0 3150.48462428 0 2311
0.04750000 0.04749250 39907.68229024 0 2667.04671764 0 11454.22309488 0 1025.79031189 0 2785.46697309 0 2568
0.04850000 0.04851840 40123.05315824 0 1259.82965263 0 13266.21599272 0 3127.11531141 0 3407.07495852 0 2493
0.04950000 0.04949480 39132.97664186 0 -210.00907761 0 11937.34626330 0 3970.55753901 0 7823.06576404 0 2644
0.05050000 0.05050630 38269.91947873 0 -795.71217647 0 12398.10053676 0 2237.26043694 0 7356.34270504 0 2829
0.05150000 0.05149060 39498.52260363 0 -690.24227472 0 11283.92723631 0 2390.86392918 0 3867.14355228 0 2784
0.05250000 0.05249300 39813.71045013 0 -311.59196233 0 9193.22240359 0 2585.58572179 0 4003.96475298 0 3055
0.05350000 0.05348950 39349.80879446 0 962.95844650 0 8327.11902412 0 -186.03838992 0 1767.01905426 0 3009
0.05450000 0.05448610 37627.62869596 0 1641.24741323 0 6118.88194737 0 -870.91212986 0 567.58316988 0 3336
0.05550000 0.05550870 35971.31881075 0 2991.86780181 0 7713.63802918 0 -2311.23515940 0 -1676.55429718 0 3349
0.05650000 0.05647670 33322.12224647 0 2877.87636275 0 7328.54457578 0 -1702.81245729 0 -888.70720403 0 3324
0.05750000 0.05747970 31234.62099922 0 2128.81063869 0 8363.14530971 0 -1812.61113363 0 -1413.46686682 0 3639
0.05850000 0.05849280 30524.88631206 0 768.53228300 0 7985.00981912 0 282.73383971 0 -1842.42133936 0 3846
0.05950000 0.05951020 30859.18326480 0 -414.53046953 0 11813.02466621 0 141.46134132 0 711.61749615 0 3787
0.06050000 0.06049470 31116.36935353 0 -609.55688378 0 10091.15930594 0 861.17885039 0 -1317.66280064 0 3930
0.06150000 0.06148310 32163.54837563 0 -372.32182603 0 13262.28176496 0 -792.61650125 0 -471.88251769 0 4083
0.06250000 0.06249100 32798.08310939 0 -188.47985926 0 14487.73750765 0 -1030.84073626 0 165.87828284 0 4303
0.06350000 0.06350600 33347.86333665 0 206.75828142 0 16123.13978250 0 -1822.94129165 0 1982.73838244 0 4470
0.06450000 0.06451750 33658.21770333 0 -468.30461856 0 16890.87622743 0 754.69391788 0 602.37185983 0 4479
0.06550000 0.06550280 34204.62573536 0 125.82672022 0 17323.19165455 0 234.60811767 0 1627.08419331 0 4636
0.06650000 0.06648880 33573.57560332 0 942.69717355 0 17156.38039770 0 2489.02853201 0 -1286.25642250 0 4653
0.06750000 0.06749660 32297.98655837 0 1581.62700175 0 16063.78914664 0 2170.85067242 0 525.08901386 0 5220
0.06850000 0.06852730 30365.15666518 0 1279.72560442 0 11751.98793274 0 3736.52719079 0 1112.44224024 0 5029
0.06950000 0.06949320 29092.37778291 0 524.77202751 0 9998.69371303 0 2897.90720235 0 -427.17620160 0 5040
0.07050000 0.07048030 28711.31972313 0 -444.69587983 0 6698.75339663 0 4217.30106321 0 -852.64832055 0 5475
0.07150000 0.07148790 28534.05466110 0 -612.01071783 0 4125.84712886 0 3788.22294350 0 -2872.21107478 0 5509
0.07250000 0.07249820 28393.65893347 0 -90.61358330 0 2376.75691251 0 921.59397587 0 -1690.39153823 0 5916
0.07350000 0.07351270 27797.67963171 0 702.27763946 0 861.02597754 0 -774.91247635 0 -2940.82400684 0 5721
0.07450000 0.07449140 27199.90182584 0 1543.17273560 0 3019.33995220 0 -1748.67431227 0 -1241.33878218 0 6028
0.07550000 0.07549160 26401.81562394 0 1418.52515965 0 4441.81058026 0 -2174.59380912 0 -731.41115802 0 6183
0.07650000 0.07648840 25337.21359321 0 1084.13715764 0 5802.13165042 0 -1685.04098848 0 350.99269127 0 6330
0.07750000 0.07749960 25239.08271232 0 267.94788773 0 8625.43465387 0 -1307.44504912 0 1101.32860887 0 6583
0.07850000 0.07848650 24924.34449186 0 646.44532728 0 9133.15236609 0 -931.13391615 0 516.84287248 0 6549
0.07950000 0.07947320 25019.21558403 0 748.76559869 0 11435.22639514 0 130.97943451 0 1359.30941160 0 6828
0.08050000 0.08048110 24385.13047629 0 776.43783266 0 12080.66456012 0 -511.80818502 0 1822.07576154 0 7147
0.08150000 0.08149960 23536.57375261 0 759.28909590 0 11077.35779782 0 579.74667804 0 2261.92242465 0 7386
0.08250000 0.08250610 23146.86039176 0 413.79420690 0 10469.66573800 0 2320.04782958 0 2127.24818824 0 7227
0.08350000 0.08350160 22727.80893251 0 -176.61872461 0 8427.10461237 0 2657.89682795 0 486.08395582 0 7798
0.08450000 0.08449610 22417.56697234 0 -102.28733630 0 7797.88670640 0 2153.15788817 0 1145.01764606 0 7371
0.08550000 0.08548940 22690.71478510 0 81.46762783 0 5718.11902686 0 1205.53730960 0 -2238.31705811 0 8256
0.08650000 0.08650700 22351.35953953 0 -78.16782240 0 5081.03266537 0 2.47227996 0 -1045.38951050 0 8037
0.08750000 0.08749060 22030.10174164 0 296.97012386 0 4438.32597853 0 -994.25241813 0 -2949.43434530 0 8155
0.08850000 0.08849210 22324.26957127 0 641.31846648 0 4549.77703053 0 -936.71714737 0 -2367.92176104 0 8718
0.08950000 0.08949900 21163.89719631 0 777.88450441 0 5183.96330412 0 -437.43891572 0 -3059.30046555 0 8571
0.09050000 0.09049190 20778.68009576 0 736.26711914 0 4408.61693865 0 295.92923960 0 -2776.09227038 0 8932
0.09150000 0.09150830 20037.58399306 0 400.47291172 0 4960.79142451 0 1437.19588051 0 -1816.36551097 0 9285
0.09250000 0.09250820 19881.90098044 0 532.39206464 0 4698.64820881 0 862.42993481 0 -1691.23458703 0 9204
0.09350000 0.09350330 19337.06663951 0 475.10184006 0 4994.65950516 0 810.64875316 0 80.16652251 0 9349
0.09450000 0.09448040 18758.95997241 0 707.75071230 0 6071.58128909 0 478.40097105 0 1054.35280540 0 9564
0.09550000 0.09549270 18383.52223800 0 508.21567304 0 4826.33076046 0 382.41255819 0 2838.09569981 0 10155
0.09650000 0.09649430 18053.38432603 0 203.76264800 0 6095.98474183 0 1540.22768511 0 3063.20097135 0 9913
0.09750000 0.09749140 18169.50024808 0 135.63418798 0 4720.48879318 0 882.05835912 0 4294.37820527 0 10476
0.09850000 0.09850240 17988.86299083 0 1.86972488 0 4999.60539148 0 1154.79701220 0 3799.19381862 0 10575
0.09950000 0.09950330 17792.93844859 0 245.46658627 0 4073.27460539 0 342.69484290 0 4822.49769856 0 10882
0.10050000 0.10051200 17584.31197103 0 374.40921487 0 4470.31687051 0 608.19002065 0 3996.09629747 0 10875
0.10150000 0.10150300 17433.23762520 0 230.85149219 0 4099.95991022 0 -578.52594337 0 2893.57955182 0 11118
0.10250000 0.10250800 17367.47981843 0 -22.84133950 0 4308.87864471 0 -469.75353844 0 2787.61393738 0 11575
0.10350000 0.10349800 17203.25391125 0 145.85643576 0 4259.52094735 0 -907.37680083 0 776.04890614 0 11364
0.10450000 0.10450100 17522.93801803 0 59.09783362 0 4735.95592858 0 -848.73320190 0 1243.80048469 0 12093
0.10550000 0.10551000 17219.55285481 0 246.72778728 0 5231.91592014 0 -660.23985386 0 220.25493075 0 12067
0.10650000 0.10649700 17144.01568189 0 396.22619388 0 5488.62990153 0 -475.16703583 0 945.55904323 0 12054
0.10750000 0.10749900 16791.28406195 0 225.85165075 0 5261.64744132 0 426.86820777 0 -51.60414141 0 12807
0.10850000 0.10850100 16680.45124575 0 152.85486490 0 5120.37494293 0 697.70044648 0 816.94239350 0 12736
0.10950000 0.10950300 16267.80695741 0 247.42245950 0 5012.20616095 0 1314.43673388 0 434.01613757 0 12933
0.11050000 0.11050200 15981.39517679 0 339.52835159 0 4850.85786036 0 990.19566728 0 1439.32036350 0 13428
0.11150000 0.11150900 15643.50121581 0 224.88945104 0 4612.53358356 0 791.81167066 0 1809.59863923 0 13453
0.11250000 0.11250000 15459.15454382 0 346.68752204 0 4676.31303581 0 549.77573099 0 2129.45135578 0 13668
0.11350000 0.11349100 15214.22076440 0 89.78222477 0 4300.53808187 0 1.26054905 0 1825.86386084 0 13791
0.11450000 0.11448600 15255.92357861 0 163.02428162 0 4647.61565449 0 -182.48297210 0 1912.69788773 0 14205
0.11550000 0.11549300 15043.47527979 0 59.43516555 0 3548.54978862 0 -215.41470654 0 1109.73211935 0 14776
0.11650000 0.11649800 15038.52939347 0 -49.45279326 0 3901.09031749 0 15.22231403 0 561.27379263 0 14553
0.11750000 0.11747300 14981.20207474 0 7.51130632 0 3036.39201936 0 678.42497861 0 -316.71769906 0 14568
0.11850000 0.11849100 14866.09781126 0 126.80353277 0 2778.50901029 0 341.42015311 0 -287.81573790 0 16015
0.11950000 0.11950300 14692.87938349 0 272.42166673 0 2159.41893063 0 552.38356196 0 -1251.39916458 0 15270
0.12050000 0.12050700 14456.26368561 0 334.81851893 0 1919.95934811 0 514.28112818 0 -312.92173131 0 15999
0.12150000 0.12150000 14302.71639662 0 329.06667795 0 1727.89034907 0 514.87013828 0 -50.66239969 0 15670
0.12250000 0.12250700 14011.58354269 0 169.84398442 0 1527.69435955 0 231.50794620 0 1029.18386434 0 16887
0.12350000 0.12352200 14087.45793512 0 -63.80092189 0 1824.52622340 0 359.82896681 0 1094.14246085 0 16407
0.12450000 0.12449800 14160.74697789 0 -24.98481919 0 2288.22554736 0 135.13510309 0 1708.01687857 0 16306
0.12550000 0.12549900 14160.74697789 0 52.09580747 0 2441.01971274 0 93.85156515 0 1493.12935855 0 17523
0.12650000 0.12650100 14073.18230869 0 188.89688740 0 2689.11211503 0 -683.29555257 0 2032.97285056 0 17154
0.12750000 0.12750600 14055.98411308 0 249.98420380 0 3011.51645929 0 -623.06364969 0 1647.28364267 0 18007
0.12850000 0.12850300 13720.33828225 0 250.57883423 0 3175.58499736 0 -455.51388209 0 1187.63095298 0 17496
0.12950000 0.12949900 13726.18342063 0 87.58355349 0 3247.63756855 0 -151.04736826 0 755.68983954 0 18405
0.13050000 0.13049000 13329.61326284 0 126.16281567 0 3047.64391074 0 332.90760831 0 25.89576153 0 18100
0.13150000 0.13148800 13340.62910055 0 121.98129360 0 2445.43728848 0 482.03170123 0 -196.95530991 0 19059
0.13250000 0.13249300 13012.73931873 0 249.77849989 0 2047.02366397 0 512.59503057 0 -1207.42573892 0 18957
0.13350000 0.13349100 12792.87219043 0 273.75930416 0 1778.01241068 0 126.19766169 0 -755.17389367 0 19468
0.13450000 0.13450700 12546.58953292 0 301.11792398 0 1640.41560508 0 278.88841309 0 -1007.22300501 0 19953
0.13550000 0.13551000 12329.75738032 0 254.83004833 0 1618.77735242 0 -139.24243687 0 -443.48301362 0 19956
0.13650000 0.13649900 12343.80819373 0 129.16069722 0 1386.47806441 0 228.43138009 0 -297.78394697 0 19723
0.13750000 0.13749600 12010.07327353 0 244.52461974 0 1428.28204448 0 -160.04213698 0 -509.15539145 0 20946
0.13850000 0.13851100 11813.47429224 0 306.46397746 0 1463.62265038 0 -101.42652727 0 -507.27483058 0 20955
0.13950000 0.13949800 11531.33395889 0 330.15252482 0 1723.96736196 0 -373.03785548 0 -724.10585911 0 20506
0.14050000 0.14048300 11315.73827787 0 235.01053296 0 1642.45016286 0 -230.65365674 0 -258.13030339 0 21447
0.14150000 0.14148400 11162.67433687 0 166.50326302 0 1978.54561972 0 -301.97446156 0 -745.73511925 0 21771
0.14250000 0.14249400 11137.47279793 0 25.75356730 0 2326.29763138 0 -3.21608506 0 -360.73159106 0 22470
0.14350000 0.14350900 11231.65821041 0 71.22930593 0 2441.79531764 0 -129.59233821 0 -97.08291501 0 22519
0.14450000 0.14449900 11194.19312152 0 119.00027303 0 2920.16369080 0 -69.81927870 0 361.28350701 0 22218
0.14550000 0.14550500 11191.69769706 0 169.45056164 0 2875.85304562 0 441.30682363 0 696.30323360 0 23559
0.14650000 0.14650700 10981.10410561 0 174.05360811 0 3216.90562945 0 576.19238428 0 1263.92124949 0 23044
0.14750000 0.14750500 10731.14575531 0 386.16693554 0 3012.51687721 0 412.96015062 0 1651.70121841 0 23649
0.14850000 0.14849900 10417.79013488 0 309.70016081 0 2814.23179831 0 463.44640931 0 1357.35353837 0 23640
0.14950000 0.14949500 10173.75560751 0 242.15733870 0 2809.22970874 0 236.84613123 0 1791.17521268 0 24457
0.15050000 0.15050000 9856.22970566 0 118.84065579 0 2186.89108102 0 -40.47803291 0 946.80900359 0 24591
0.15150000 0.15149900 9892.93043030 0 11.00436101 0 2264.93491904 0 -267.34651292 0 1040.60324142 0 25020
0.15250000 0.15250500 9944.31144479 0 -29.55268243 0 2215.71210949 0 -359.96497868 0 439.33296537 0 25297
0.15350000 0.15350100 9986.19410941 0 -38.82914185 0 2063.70478965 0 -229.09233035 0 -87.16686257 0 25452
0.15450000 0.15450400 10096.55481829 0 11.39824465 0 2263.85581657 0 -156.36532012 0 -305.64003777 0 26061
0.15550000 0.15549900 10055.61636833 0 113.74414475 0 2115.83892775 0 -69.51083524 0 -752.75602970 0 26128
0.15650000 0.15649500 9904.68815096 0 163.29180910 0 2326.74725741 0 -202.68017333 0 -430.97666561 0 26331
0.15750000 0.15749700 9803.20755616 0 277.88349892 0 2520.94073944 0 -272.05297338 0 -866.90146568 0 27345
0.15850000 0.15849900 9723.93848721 0 271.20767645 0 3088.43623224 0 -274.82829005 0 -152.94366604 0 26980
0.15950000 0.15949700 9481.30904118 0 248.79157076 0 3278.26834179 0 -133.86266143 0 235.64675379 0 27777
0.16050000 0.16050000 9383.88632129 0 177.70457147 0 3634.42836020 0 20.94987521 0 641.60622714 0 28224
0.16150000 0.16150500 9329.13311158 0 30.70957020 0 3523.17963992 0 216.92095374 0 912.50366163 0 28075
0.16250000 0.16249700 9403.25396250 0 19.85481101 0 3794.19172904 0 597.63842181 0 1159.78786112 0 28590
0.16350000 0.16349900 9410.71775459 0 -9.05423176 0 3276.15509945 0 766.41791660 0 1914.82237072 0 29163
0.16450000 0.16449100 9249.84156133 0 96.17500765 0 3197.15580611 0 445.94134393 0 1375.58587386 0 28996
0.16550000 0.16550500 9070.22720330 0 175.56884783 0 2619.68985611 0 568.92193138 0 1336.92927599 0 30777
0.16650000 0.16650700 8876.13488712 0 148.52721437 0 2475.15756901 0 144.07591668 0 969.32964733 0 29211
0.16750000 0.16749900 8759.63678295 0 170.79606753 0 1938.11299904 0 -131.88205877 0 732.01815316 0 30922
0.16850000 0.16850800 8617.27394144 0 67.53843826 0 2129.95718506 0 -225.17833577 0 363.84300319 0 30867
0.16950000 0.16949900 8566.56736599 0 86.20522490 0 1737.86080626 0 -125.39845142 0 37.23926421 0 30852
0.17050000 0.17049200 8549.06567280 0 7.47517886 0 1650.84692896 0 165.60738315 0 -134.74280438 0 31257
0.17150000 0.17149500 8505.65427968 0 -6.71433294 0 1555.64985792 0 276.21763448 0 -219.51304780 0 32608
0.17250000 0.17250900 8509.11640011 0 -31.80452199 0 1446.07599459 0 496.61981775 0 43.46512343 0 32361
0.17350000 0.17350400 8588.26182190 0 -37.82703784 0 1387.97307096 0 341.30100221 0 -310.49599888 0 32508
0.17450000 0.17449800 8610.20357213 0 60.87531772 0 1315.16737618 0 62.03006977 0 160.23097991 0 32791
0.17550000 0.17549800 8509.20632531 0 161.39213913 0 1412.00558222 0 -80.12234675 0 310.66685677 0 33633
0.17650000 0.17650100 8413.30109328 0 253.67226131 0 1635.36855290 0 -424.86512381 0 263.97768990 0 33984
0.17750000 0.17750300 8222.51352842 0 282.28308961 0 1694.69670746 0 -364.62872467 0 241.98648081 0 34069
