### header ###
fiducial parameters:
Omega_m = 0.31
Omega_nu = 0
Omega_de = 0.69
Omega_k = 0
H_0 = 100
w_de = -1
zeff = 0
beta = 0
fgrowth = 0
b_1 = 2
gamma = 0.55
Lx = 3500 Ly = 3500 Lz = 3500
nx = 700 ny = 700 nz = 700
xoffset = 857.220397 yoffset = 15.9954215 zoffset = 262.898189
bins = 400 dk = 0.001
kx_ny = 0.628318531 ky_ny = 0.628318531 kz_ny = 0.628318531
############################
A(data) = 3.05863682 (not used)
A(ran) = 3.05556141 (used)
Ngal = 185999
weighted Ngal = 0
Nran = 9360983
weighted Nran = 0
SN(data) = 3458.89996
SN(ran) = 68.6164259
SN(data+ran) = 3527.51638
############################
13 columns: k_central k_mean P_0(k) sigma^{lin}_{P_0(k)} P^img_1(k) sigma^{lin}_{P_1(k)} P_2(k) sigma^{lin}_{P_2(k)} P^img_3(k) sigma^{lin}_{P_3(k)} P_4(k) sigma^{lin}_{P_4(k)} N_modes
### header ###
0.00050000 0 0 0 0 0 0 0 0 0 0 0 0
0.00150000 0.00179520 14554.50697299 0 -24690.98858268 0 -23611.88611251 0 44743.74745423 0 -31766.41618530 0 3
0.00250000 0.00253879 29543.80231626 0 -30060.87224989 0 -4441.41715748 0 -22243.11207299 0 20175.61918404 0 6
0.00350000 0.00331552 47546.04168147 0 -31383.44721490 0 -22554.92772427 0 -8744.95649309 0 705.62847744 0 7
0.00450000 0.00420575 66616.92971167 0 -27937.51332681 0 -16858.72796634 0 -27837.58394181 0 -1164.10427100 0 24
0.00550000 0.00557378 89424.54726437 0 -16289.38900682 0 -39904.98453406 0 -23896.94901504 0 8651.77149853 0 45
0.00650000 0.00659388 96617.32726062 0 -11695.67227258 0 -7622.66744281 0 -21775.61340909 0 12206.44744180 0 40
0.00750000 0.00754703 99034.85401334 0 443.36049052 0 -43645.31106480 0 -29133.85578410 0 14436.81735984 0 57
0.00850000 0.00846663 103670.83559432 0 -781.31964727 0 -24399.06888320 0 -9288.14969902 0 -13741.80792514 0 75
0.00950000 0.00948925 100540.20195923 0 2460.65712957 0 -19093.48173817 0 -26824.12687190 0 -5065.98143405 0 112
0.01050000 0.01054430 98561.95983709 0 1116.43941564 0 -36126.21497783 0 -15730.05422644 0 -10833.21086394 0 105
0.01150000 0.01145670 110206.37474233 0 -8311.16854073 0 -1200.13055660 0 -24802.38343142 0 -16652.23721241 0 144
0.01250000 0.01249090 111297.61711530 0 -5831.46974883 0 -17943.78798140 0 -11314.61421280 0 -30381.79282826 0 169
0.01350000 0.01339930 126553.99031994 0 -294.21841256 0 14559.56526582 0 -19504.77714842 0 -31693.57676857 0 180
0.01450000 0.01448870 114247.72589965 0 9905.44127456 0 493.62643246 0 -14757.62553170 0 -32641.16362519 0 267
0.01550000 0.01550050 112118.74665120 0 13854.21443245 0 5570.73161447 0 -11827.63751216 0 -48130.55551948 0 238
0.01650000 0.01653350 86773.77700899 0 14948.60418762 0 6338.70411306 0 4084.44781222 0 -26108.88426589 0 315
0.01750000 0.01747870 78515.38332344 0 10862.20050218 0 8565.21848791 0 13522.95245541 0 -41993.04781385 0 297
0.01850000 0.01844180 68074.50489196 0 7740.85164460 0 -1512.66560952 0 10732.89929682 0 -17820.92766891 0 388
0.01950000 0.01947590 59660.20338076 0 6375.04513688 0 2679.34398954 0 10346.77170356 0 -17548.45429519 0 399
0.02050000 0.02045430 53493.80720276 0 4633.89081995 0 9395.61032001 0 6223.15022355 0 496.28372229 0 462
0.02150000 0.02154770 52570.16293219 0 3647.35510854 0 19002.09524773 0 347.59689068 0 16666.28802583 0 571
0.02250000 0.02255340 54775.35379260 0 2650.19698220 0 32258.75668732 0 9352.13148298 0 33258.72497635 0 510
0.02350000 0.02348930 53616.77992175 0 1112.97729522 0 46002.02589706 0 -969.48252018 0 47085.06259499 0 555
0.02450000 0.02439640 57531.56135184 0 108.55028967 0 46666.57316828 0 14545.62685892 0 46256.51422961 0 592
0.02550000 0.02547300 59219.00783957 0 -921.52428384 0 60409.72997151 0 15331.23593851 0 62173.72529072 0 837
0.02650000 0.02652900 60737.84456634 0 -1403.09174619 0 41579.72908647 0 19223.76088014 0 44096.28597213 0 723
0.02750000 0.02749970 64721.08155938 0 -29.63013051 0 54707.46026218 0 13953.91900444 0 61603.26226612 0 826
0.02850000 0.02848090 61046.17561590 0 2279.75009670 0 31683.23536989 0 6204.11980186 0 32495.93441774 0 831
0.02950000 0.02946900 59167.52565923 0 2193.29825193 0 39218.85521344 0 6993.46077749 0 42045.42924626 0 996
0.03050000 0.03053250 56637.81721222 0 -481.13919356 0 29060.79155435 0 898.42362252 0 24956.71756596 0 1041
0.03150000 0.03150510 59424.93656097 0 -920.18889453 0 25586.86844594 0 7324.70027323 0 21578.22758225 0 1036
0.03250000 0.03246190 58741.16777700 0 -1449.27958005 0 25359.91970768 0 3832.42118218 0 15856.17432764 0 1059
0.03350000 0.03345080 58957.55030357 0 852.65731307 0 19734.98567539 0 3769.70959175 0 10224.82188378 0 1302
0.03450000 0.03451200 58730.82637833 0 2809.53320631 0 27609.51113848 0 803.05232139 0 17356.57638722 0 1339
0.03550000 0.03553350 54813.12237905 0 3950.72903112 0 22334.49856344 0 2583.91086483 0 9851.11520958 0 1365
0.03650000 0.03647120 54572.90967293 0 3859.00532116 0 36928.79744002 0 -2867.98459011 0 19642.69993289 0 1308
0.03750000 0.03744890 52039.04218515 0 3527.87823192 0 33741.84814477 0 -1679.44314442 0 11646.77544190 0 1579
0.03850000 0.03847530 50667.79520248 0 1012.68820940 0 42685.24708587 0 -2495.22213057 0 15092.37211047 0 1662
0.03950000 0.03950240 50491.09217299 0 -53.75346623 0 35275.63493701 0 -373.00975386 0 4976.43841032 0 1683
0.04050000 0.04050350 52516.65743471 0 -1499.09814409 0 44318.85085660 0 1234.62811369 0 5389.93698811 0 1822
0.04150000 0.04152450 53963.21677728 0 -568.14745055 0 33226.35190224 0 4755.55962346 0 -3755.45644662 0 1887
0.04250000 0.04250150 52747.20318121 0 623.84824711 0 35087.46644377 0 9076.45452380 0 -4855.21923284 0 1920
0.04350000 0.04349210 49212.91777837 0 2447.50556821 0 24667.49562265 0 8456.83613356 0 -664.27075121 0 2005
0.04450000 0.04448520 46234.93218021 0 2503.83246903 0 20463.60465577 0 12046.38057539 0 -3137.70400440 0 2151
0.04550000 0.04548030 43532.67974448 0 2575.91876216 0 15219.95349627 0 8598.77183034 0 2157.80027692 0 2274
0.04650000 0.04648670 40302.22913090 0 1510.06901920 0 8993.11633928 0 6872.72494799 0 2017.23593953 0 2311
0.04750000 0.04749250 39084.86665673 0 1102.45717020 0 10797.91522065 0 1990.39326559 0 5179.27595276 0 2568
0.04850000 0.04851840 37934.72327393 0 422.80358847 0 5589.30116948 0 -191.22032991 0 5383.11391312 0 2493
0.04950000 0.04949480 38114.46127912 0 747.40997621 0 12219.82381617 0 -2273.91619898 0 7169.25331427 0 2644
0.05050000 0.05050630 36958.24794493 0 113.22257855 0 6954.41075685 0 -698.38162992 0 4047.79205018 0 2829
0.05150000 0.05149060 38191.57214314 0 295.70892285 0 15103.83757422 0 -1474.41367508 0 9674.45714269 0 2784
0.05250000 0.05249300 38225.06928232 0 -986.96622833 0 10913.63771993 0 854.72784093 0 6112.58718296 0 3055
0.05350000 0.05348950 39375.21266511 0 -439.83317432 0 15711.39474623 0 739.85288672 0 9933.64406725 0 3009
0.05450000 0.05448610 39045.07475314 0 746.11617731 0 16041.64506470 0 952.72046181 0 10782.43684459 0 3336
0.05550000 0.05550870 38369.51164421 0 1975.16218385 0 17642.08891578 0 -1833.87844481 0 11215.71896767 0 3349
0.05650000 0.05647670 36790.42502952 0 2306.49160479 0 20159.99467953 0 -982.64869438 0 11891.93403434 0 3324
0.05750000 0.05747970 35184.36085308 0 1790.54573624 0 19425.53056076 0 1529.22308805 0 11914.86496184 0 3639
0.05850000 0.05849280 33336.84749893 0 390.26078053 0 16280.17167322 0 3644.37633610 0 10621.45948547 0 3846
0.05950000 0.05951020 33646.63983308 0 -512.25893511 0 14554.39456649 0 5159.36876032 0 8321.57738331 0 3787
0.06050000 0.06049470 33135.63985084 0 -620.02417774 0 10508.19868871 0 5145.39663146 0 3440.41472858 0 3930
0.06150000 0.06148310 32468.61963647 0 685.87528191 0 7894.44389618 0 1394.13294756 0 3902.64152729 0 4083
0.06250000 0.06249100 31430.99516749 0 973.08739687 0 6895.62215353 0 29.23569608 0 2999.30911260 0 4303
0.06350000 0.06350600 31362.42719803 0 353.57354468 0 6971.74384028 0 225.82692132 0 5601.40735032 0 4470
0.06450000 0.06451750 31255.64101609 0 -415.55224468 0 6026.16906014 0 365.65724421 0 4044.07139479 0 4479
0.06550000 0.06550280 32262.91572809 0 -1168.92651017 0 7247.06109863 0 -263.05258434 0 2945.62376471 0 4636
0.06650000 0.06648880 32876.20563197 0 -664.37528926 0 8000.62308299 0 -1051.31333344 0 -2034.96244574 0 4653
0.06750000 0.06749660 33727.68492485 0 431.36671619 0 6816.96007971 0 -2749.44068750 0 -348.83223820 0 5220
0.06850000 0.06852730 33357.75510929 0 1015.55232720 0 9846.51778343 0 -3163.26524416 0 -658.07265640 0 5029
0.06950000 0.06949320 32525.49732917 0 1295.81097562 0 9714.31649018 0 -2867.10781935 0 -688.72029061 0 5040
0.07050000 0.07048030 31941.77033671 0 717.76613210 0 11989.95250872 0 1731.70092966 0 302.63541183 0 5475
0.07150000 0.07148790 30883.35066388 0 1551.32220738 0 10229.03712780 0 1171.62426634 0 -1543.44251122 0 5509
0.07250000 0.07249820 30052.32935533 0 1368.08835982 0 11746.14279436 0 2653.46801156 0 1916.02512035 0 5916
0.07350000 0.07351270 28282.37649123 0 1629.69202428 0 9897.55033775 0 2156.74365576 0 1724.40574734 0 5721
0.07450000 0.07449140 26878.64402795 0 1322.41759590 0 10065.33953121 0 1228.36707123 0 5257.27482819 0 6028
0.07550000 0.07549160 26069.65439484 0 700.65898575 0 9815.16760854 0 1140.75743943 0 4668.93916893 0 6183
0.07650000 0.07648840 25729.51230372 0 483.26142842 0 9205.38478769 0 748.35081868 0 4021.80366569 0 6330
0.07750000 0.07749960 25456.02727143 0 -204.09087500 0 8218.37696895 0 1434.13842351 0 3518.77330483 0 6583
0.07850000 0.07848650 25883.50921873 0 -602.49663105 0 7711.49106489 0 441.41473388 0 3086.62648748 0 6549
0.07950000 0.07947320 26460.15460123 0 -441.57097893 0 7048.78726039 0 531.49393664 0 3345.35254535 0 6828
0.08050000 0.08048110 26390.79978622 0 -31.47258558 0 7305.37759463 0 304.01801187 0 2560.84504953 0 7147
0.08150000 0.08149960 26308.06859684 0 510.82013182 0 6953.11808202 0 775.62962987 0 3189.57960752 0 7386
0.08250000 0.08250610 25743.33830412 0 543.03021649 0 6548.58954351 0 384.33246134 0 2359.18777542 0 7227
0.08350000 0.08350160 25087.89595999 0 822.44806423 0 5872.65549310 0 1220.02650839 0 3238.57760406 0 7798
0.08450000 0.08449610 24251.36673259 0 892.23452023 0 5411.32794645 0 403.34602205 0 2144.21033019 0 7371
0.08550000 0.08548940 23447.77261183 0 852.22679615 0 6206.30048810 0 -387.35732045 0 1085.79065736 0 8256
0.08650000 0.08650700 22683.74558165 0 585.73232455 0 4615.25382103 0 -82.82414956 0 734.93060577 0 8037
0.08750000 0.08749060 22203.43257591 0 618.97654909 0 4947.88715747 0 -258.18313444 0 -274.15722320 0 8155
0.08850000 0.08849210 21596.77465596 0 330.24132596 0 3969.04005116 0 -128.29067086 0 -1187.37241802 0 8718
0.08950000 0.08949900 21479.87188836 0 545.29071135 0 4768.38520594 0 -230.67051772 0 -3795.77666079 0 8571
0.09050000 0.09049190 20996.07428090 0 526.25354527 0 4026.26620403 0 -1036.06201853 0 -3812.87369056 0 8932
0.09150000 0.09150830 20375.14073452 0 466.73092746 0 5601.24998121 0 -2100.95630618 0 -4068.18259061 0 9285
0.09250000 0.09250820 20639.07121368 0 388.72081138 0 6294.23609877 0 -1529.22308805 0 -3227.19082487 0 9204
0.09350000 0.09350330 20531.16096666 0 178.14970124 0 8689.38271588 0 -22.23625528 0 -2021.47366486 0 9349
0.09450000 0.09448040 20780.81581940 0 91.78598317 0 8777.92532169 0 -75.24401674 0 -879.76414231 0 9564
0.09550000 0.09549270 20636.48586401 0 144.89873231 0 9480.19621676 0 1409.13921629 0 584.95559559 0 10155
0.09650000 0.09649430 20866.13235845 0 355.74299027 0 10201.99212215 0 983.20285846 0 1378.10377962 0 9913
0.09750000 0.09749140 20391.66449109 0 472.37823038 0 10186.27769242 0 1262.45996490 0 3288.36244615 0 10476
0.09850000 0.09850240 20082.88381551 0 382.53058503 0 9559.70133938 0 1037.56152133 0 3372.07157214 0 10575
0.09950000 0.09950330 19392.03342158 0 308.71547981 0 8924.10998444 0 876.92362987 0 2581.02201760 0 10882
0.10050000 0.10051200 19008.16519912 0 246.90651363 0 7691.06680251 0 286.20944891 0 1290.98873645 0 10875
0.10150000 0.10150300 18905.65046445 0 352.47758123 0 7455.81122336 0 215.46191728 0 417.17089838 0 11118
0.10250000 0.10250800 18539.87968967 0 352.69677392 0 6298.55250865 0 -296.19002270 0 655.20067013 0 11575
0.10350000 0.10349800 17931.19845258 0 448.96058272 0 6664.27832083 0 419.85628984 0 -585.03203201 0 11364
0.10450000 0.10450100 17980.54490929 0 49.39681482 0 4981.62035031 0 1501.96451002 0 124.03046423 0 12093
0.10550000 0.10551000 17045.21036197 0 55.32502161 0 4894.74136081 0 1221.52151494 0 -579.32515363 0 12067
0.10650000 0.10649700 17387.37577022 0 120.16480444 0 3855.45327552 0 1939.33822997 0 -425.81271067 0 12054
0.10750000 0.10749900 16954.83553009 0 244.19751681 0 3530.89072632 0 255.81810153 0 -871.06837490 0 12807
0.10850000 0.10850100 16724.06497058 0 388.33750519 0 2897.89596170 0 -112.37908012 0 -830.66497991 0 12736
0.10950000 0.10950300 16002.19038064 0 292.24567836 0 2511.11641070 0 -235.52085851 0 -1723.06810990 0 12933
0.11050000 0.11050200 16215.76274453 0 421.09388549 0 2956.66208372 0 -714.06233769 0 -1798.75141127 0 13428
0.11150000 0.11150900 15549.64178221 0 514.63520868 0 2640.30520955 0 -513.80789678 0 -2393.73029512 0 13453
0.11250000 0.11250000 15280.20338419 0 624.47322730 0 3869.78510521 0 50.77087197 0 -1639.43766846 0 13668
0.11350000 0.11349100 14486.27622306 0 679.89075946 0 3206.38438036 0 -123.23350209 0 -1685.59178037 0 13791
0.11450000 0.11448600 14219.08595518 0 475.14005827 0 4690.08283295 0 411.47975692 0 -578.53268776 0 14205
0.11550000 0.11549300 14176.48388891 0 175.24399303 0 4564.92942771 0 -55.41989271 0 357.44257666 0 14776
0.11650000 0.11649800 13988.42780218 0 57.36340122 0 4903.58775294 0 174.62688130 0 743.71405025 0 14553
0.11750000 0.11747300 14295.74719317 0 -55.62323608 0 5242.57205703 0 73.99855264 0 1797.68354946 0 14568
0.11850000 0.11849100 14369.59826847 0 -102.71155846 0 4952.55202752 0 240.46000044 0 1039.14870122 0 16015
0.11950000 0.11950300 14500.43944298 0 118.56188765 0 5192.93334340 0 689.40147405 0 1686.56971698 0 15270
0.12050000 0.12050700 14185.81362902 0 50.16511330 0 4924.61901045 0 423.53872702 0 1194.55519383 0 15999
0.12150000 0.12150000 14264.27337112 0 135.72973351 0 4451.79227810 0 303.39078355 0 940.31752779 0 15670
0.12250000 0.12250700 13913.56506831 0 63.60140034 0 4659.32841255 0 255.81248121 0 1559.69649218 0 16887
0.12350000 0.12352200 13931.21288996 0 132.72847977 0 4481.66992775 0 338.42114749 0 1353.70032688 0 16407
0.12450000 0.12449800 13775.30506432 0 54.29020731 0 4315.01604001 0 144.21530075 0 2128.69823218 0 16306
0.12550000 0.12549900 13790.59234932 0 -1.00913841 0 4065.64220354 0 442.63771668 0 2233.82079782 0 17523
0.12650000 0.12650100 13921.77074335 0 5.99279557 0 4315.97149532 0 757.30736918 0 2988.77662286 0 17154
0.12750000 0.12750600 13843.98544029 0 -123.06376827 0 3557.67719701 0 1388.24284658 0 3007.30121527 0 18007
0.12850000 0.12850300 13763.61478756 0 146.78491351 0 3192.42349216 0 885.13492523 0 3196.25655406 0 17496
0.12950000 0.12949900 13713.93111133 0 115.82029294 0 2939.73366372 0 437.49736710 0 2939.69994177 0 18405
0.13050000 0.13049000 13384.01801238 0 364.26227946 0 2378.38680687 0 -56.68469073 0 2342.10198631 0 18100
0.13150000 0.13148800 13239.80046350 0 104.44486680 0 2355.95046801 0 -821.85230974 0 1726.71008074 0 19059
0.13250000 0.13249300 13096.03254065 0 57.75974656 0 2243.24046313 0 -535.35172797 0 729.19337764 0 18957
0.13350000 0.13349100 13326.80310016 0 -7.40344103 0 2517.72591333 0 -825.19977553 0 -375.75134857 0 19468
0.13450000 0.13450700 13100.75361396 0 67.43064042 0 2707.69291068 0 -680.44155135 0 -1142.74703461 0 19953
0.13550000 0.13551000 13184.15924238 0 377.13170048 0 2922.70407787 0 -825.16942577 0 -1546.20771130 0 19956
0.13650000 0.13649900 12868.07214382 0 440.82235159 0 3106.23018235 0 -576.29579826 0 -1469.69260178 0 19723
0.13750000 0.13749600 12609.53717701 0 417.31028245 0 3655.38093316 0 -252.00864500 0 -1310.80600369 0 20946
0.13850000 0.13851100 12223.42082440 0 408.86068530 0 3713.61874460 0 301.77100578 0 -975.28944035 0 20955
0.13950000 0.13949800 12138.77872440 0 210.57448234 0 3989.34066638 0 394.97510945 0 -314.72922795 0 20506
0.14050000 0.14048300 11910.36870154 0 150.16048092 0 4124.19475320 0 563.71188977 0 117.28157753 0 21447
0.14150000 0.14148400 11875.52268428 0 -65.24365941 0 3656.20150067 0 203.39620278 0 63.85645071 0 21771
0.14250000 0.14249400 11964.66104457 0 -105.90120551 0 4070.49816466 0 254.65806638 0 463.13616735 0 22470
0.14350000 0.14350900 12073.80776317 0 -49.83160319 0 3964.75736323 0 26.60302327 0 1094.48305257 0 22519
0.14450000 0.14449900 11937.57107631 0 136.78410655 0 4226.79941307 0 69.57872877 0 599.85845032 0 22218
0.14550000 0.14550500 12024.23649345 0 243.24093743 0 4109.87416417 0 126.32018478 0 1277.24142061 0 23559
0.14650000 0.14650700 11460.18063977 0 447.49592593 0 3879.90169086 0 -61.62304581 0 478.23236128 0 23044
0.14750000 0.14750500 11258.07373962 0 467.02768064 0 4316.61221241 0 139.37620061 0 984.30107004 0 23649
0.14850000 0.14849900 10720.02875173 0 382.21359868 0 4075.15179406 0 -45.69054747 0 564.25144100 0 23640
0.14950000 0.14949500 10554.34155996 0 280.70490225 0 3951.38098886 0 195.22762190 0 692.97824911 0 24457
0.15050000 0.15050000 10399.28802378 0 49.21347981 0 3764.48268916 0 193.11887582 0 525.23514232 0 24591
0.15150000 0.15149900 10377.58232721 0 -68.41981768 0 3691.55334722 0 472.15566550 0 775.02038660 0 25020
0.15250000 0.15250500 10435.70773214 0 -62.88447164 0 3325.40039030 0 414.59004498 0 434.18924359 0 25297
0.15350000 0.15350100 10390.74512922 0 16.23655795 0 3386.49332703 0 364.59387865 0 256.92642969 0 25452
0.15450000 0.15450400 10436.26976468 0 121.92059409 0 3059.43535336 0 232.24196069 0 827.28491624 0 26061
0.15550000 0.15549900 10172.44045137 0 182.98318105 0 2930.93223420 0 134.51799136 0 654.61728036 0 26128
0.15650000 0.15649500 10104.24342339 0 261.57668690 0 2769.77502467 0 63.59038450 0 883.77480649 0 26331
0.15750000 0.15749700 9831.35414559 0 191.30126260 0 2760.95111385 0 111.38495697 0 424.81454088 0 27345
0.15850000 0.15849900 9725.37729050 0 257.72114370 0 2435.25325892 0 85.42827112 0 506.83307300 0 26980
0.15950000 0.15949700 9468.04507332 0 194.23619650 0 2438.54676958 0 1.32141718 0 426.27020515 0 27777
0.16050000 0.16050000 9330.05484494 0 173.93445722 0 2530.58521777 0 -133.30400108 0 321.06108650 0 28224
0.16150000 0.16150500 9280.76459149 0 194.73977765 0 2488.90488486 0 -50.16567533 0 239.52477830 0 28075
0.16250000 0.16249700 9103.71310182 0 120.79315682 0 3032.03064688 0 -312.56989894 0 248.52741547 0 28590
0.16350000 0.16349900 9156.80269523 0 62.24903765 0 3092.61775432 0 -111.33336238 0 780.27314269 0 29163
0.16450000 0.16449100 9183.17326184 0 57.65801867 0 3774.86905043 0 -125.50074135 0 671.13316848 0 28996
0.16550000 0.16550500 9108.08571496 0 137.02802867 0 3818.70758828 0 -36.85123695 0 1041.55195234 0 30777
0.16650000 0.16650700 9127.68940983 0 113.06408538 0 4070.34079555 0 30.21385751 0 893.58002612 0 29211
0.16750000 0.16749900 8893.86139333 0 160.78177180 0 3722.76863430 0 158.56511547 0 911.10644874 0 30922
0.16850000 0.16850800 8870.06493573 0 134.53822453 0 3755.45644662 0 291.14521865 0 814.08839228 0 30867
0.16950000 0.16949900 8614.38509420 0 66.01611693 0 3262.66631857 0 442.83442807 0 830.80661211 0 30852
0.17050000 0.17049200 8608.74228754 0 67.12185974 0 3146.77520954 0 587.39818899 0 720.80447999 0 31257
0.17150000 0.17149500 8501.24794459 0 -26.08561612 0 2828.63107190 0 449.05388012 0 593.86943161 0 32608
0.17250000 0.17250900 8565.70183589 0 29.62776998 0 2584.42793477 0 534.88524097 0 918.16108114 0 32361
0.17350000 0.17350400 8442.11088110 0 62.99496723 0 2467.52516717 0 306.96418642 0 1232.72844372 0 32508
0.17450000 0.17449800 8470.52724615 0 109.18370034 0 2471.05473150 0 64.85540734 0 1438.43235209 0 32791
0.17550000 0.17549800 8406.33188982 0 109.35129844 0 2535.02527481 0 127.14749668 0 1512.73305342 0 33633
0.17650000 0.17650100 8368.32724970 0 87.07817383 0 2763.25544725 0 -149.34553374 0 1713.62596329 0 33984
0.17750000 0.17750300 8264.83457842 0 53.22032217 0 2596.60155951 0 -4.58602813 0 1639.89853514 0 34069
