### header ###
fiducial parameters:
Omega_m = 0.31
Omega_nu = 0
Omega_de = 0.69
Omega_k = 0
H_0 = 100
w_de = -1
zeff = 0
beta = 0
fgrowth = 0
b_1 = 2
gamma = 0.55
Lx = 3500 Ly = 3500 Lz = 3500
nx = 700 ny = 700 nz = 700
xoffset = 857.220397 yoffset = 15.9954215 zoffset = 262.898189
bins = 400 dk = 0.001
kx_ny = 0.628318531 ky_ny = 0.628318531 kz_ny = 0.628318531
############################
A(data) = 3.06502916 (not used)
A(ran) = 3.06098399 (used)
Ngal = 187462
weighted Ngal = 0
Nran = 9360983
weighted Nran = 0
SN(data) = 3466.73809
SN(ran) = 68.7381967
SN(data+ran) = 3535.47629
############################
13 columns: k_central k_mean P_0(k) sigma^{lin}_{P_0(k)} P^img_1(k) sigma^{lin}_{P_1(k)} P_2(k) sigma^{lin}_{P_2(k)} P^img_3(k) sigma^{lin}_{P_3(k)} P_4(k) sigma^{lin}_{P_4(k)} N_modes
### header ###
0.00050000 0 0 0 0 0 0 0 0 0 0 0 0
0.00150000 0.00179520 19011.42498783 0 -29070.45851398 0 -27076.02985478 0 55783.64016317 0 47642.03683871 0 3
0.00250000 0.00253879 32905.76854340 0 -31175.60758288 0 -20537.45573107 0 -17653.32956651 0 -17684.35376253 0 6
0.00350000 0.00331552 43378.68282946 0 -23516.90261383 0 -35168.73634856 0 -10044.22958914 0 10434.12280039 0 7
0.00450000 0.00420575 49131.53546707 0 -13438.42276191 0 -44147.31852645 0 -6466.09440780 0 8099.88926959 0 24
0.00550000 0.00557378 45268.01140433 0 -1807.14817737 0 -57071.25670440 0 -9158.65740260 0 15955.31686709 0 45
0.00650000 0.00659388 39850.69219103 0 -5700.84214668 0 -45147.62403500 0 -15757.81863375 0 -9223.48223536 0 40
0.00750000 0.00754703 42027.21939207 0 -6747.75139316 0 -50887.88714379 0 -24135.70043657 0 14483.57846688 0 57
0.00850000 0.00846663 53137.25376157 0 -9530.54309138 0 -32761.66340102 0 -33758.70912086 0 9292.08392677 0 75
0.00950000 0.00948925 59245.98540133 0 -1183.43819026 0 -14079.25226009 0 -50570.33876064 0 10254.08129763 0 112
0.01050000 0.01054430 71127.35322399 0 1954.15340763 0 14411.52589570 0 -48256.11358814 0 17223.37467605 0 105
0.01150000 0.01145670 65746.79093858 0 8961.32777901 0 32906.21816943 0 -28053.29202933 0 9497.79907580 0 144
0.01250000 0.01249090 69026.70041538 0 6975.92536235 0 48451.36369134 0 -5124.17428288 0 6403.63011168 0 169
0.01350000 0.01339930 64408.36665604 0 1396.33611511 0 56916.36053733 0 19401.58797471 0 -3278.57183936 0 180
0.01450000 0.01448870 67344.64943999 0 -5363.34160848 0 33263.78326918 0 32017.86954216 0 -1698.36115960 0 267
0.01550000 0.01550050 76600.20125189 0 -3701.96218979 0 32699.27778947 0 33416.88093213 0 -16350.08852076 0 238
0.01650000 0.01653350 72774.89540163 0 -2921.40016238 0 4297.94149155 0 24219.33087801 0 1538.29429319 0 315
0.01750000 0.01747870 70231.13614120 0 1971.65510082 0 17352.52975295 0 19278.61525571 0 10181.41049066 0 297
0.01850000 0.01844180 64127.80001380 0 4208.25233937 0 -6695.04398189 0 14172.77447417 0 8464.41233215 0 388
0.01950000 0.01947590 57355.42035488 0 3797.06933563 0 -9917.97460013 0 10356.93325182 0 15572.68511621 0 399
0.02050000 0.02045430 54583.47588462 0 1434.22834872 0 -14587.32967313 0 5488.78727064 0 26104.05078607 0 462
0.02150000 0.02154770 55654.26027325 0 -2365.86472195 0 -12703.50901712 0 288.42610524 0 26026.60270254 0 571
0.02250000 0.02255340 56370.96416386 0 -1748.80920008 0 -2401.37393761 0 -11416.67932144 0 30886.27323307 0 510
0.02350000 0.02348930 61915.86476295 0 553.19288881 0 2118.18822375 0 -9393.06993294 0 27269.36904736 0 555
0.02450000 0.02439640 65100.00389552 0 2599.47916610 0 12269.50749240 0 -13898.27778332 0 32843.04571232 0 592
0.02550000 0.02547300 61467.02557926 0 3290.41948523 0 20510.70298233 0 -2978.25537378 0 36119.35818088 0 837
0.02650000 0.02652900 64427.70057530 0 1124.24492351 0 34019.15499830 0 2255.26795941 0 31588.70149725 0 723
0.02750000 0.02749970 60250.56235716 0 -1045.88522320 0 27769.91522441 0 8795.33708967 0 28057.00144408 0 826
0.02850000 0.02848090 65478.13938611 0 -1892.77945464 0 30001.97124006 0 5359.96941326 0 20488.55890039 0 831
0.02950000 0.02946900 64970.96122513 0 -1002.23665235 0 22016.27574124 0 2666.29359404 0 23910.21298291 0 996
0.03050000 0.03053250 66102.10790819 0 1623.37477857 0 27971.79731153 0 -6318.03255637 0 15049.43282468 0 1041
0.03150000 0.03150510 63251.59128932 0 4675.66107806 0 24940.53102891 0 -5719.82760577 0 4917.59360375 0 1036
0.03250000 0.03246190 58967.89170224 0 3535.22961750 0 35715.48160011 0 -4445.77852996 0 17677.49696559 0 1059
0.03350000 0.03345080 55270.16723778 0 3450.95845897 0 24820.25606609 0 -4434.95378331 0 854.92118013 0 1302
0.03450000 0.03451200 58988.79931260 0 1444.73835715 0 43344.73606425 0 5793.68992172 0 8920.13079409 0 1339
0.03550000 0.03553350 54355.96511382 0 530.60142898 0 34482.04499540 0 9058.48072328 0 1141.22954677 0 1365
0.03650000 0.03647120 53073.63167843 0 1040.62459866 0 29302.80276459 0 8522.59394033 0 2277.62561372 0 1308
0.03750000 0.03744890 54629.89977214 0 884.43575675 0 31605.56247334 0 7077.79937993 0 4670.31052832 0 1579
0.03850000 0.03847530 50177.92764362 0 2051.57612752 0 18193.89246017 0 8300.26510952 0 449.12357215 0 1662
0.03950000 0.03950240 48018.82345121 0 3845.01071100 0 21758.97724601 0 6043.49090291 0 6725.97825270 0 1683
0.04050000 0.04050350 44026.36912458 0 1979.32122462 0 8350.08367356 0 7674.80158090 0 1364.71616460 0 1822
0.04150000 0.04152450 41849.05507799 0 1767.83962176 0 12261.07700435 0 5916.11184883 0 10913.92997684 0 1887
0.04250000 0.04250150 40680.81424752 0 1131.71995625 0 3813.72798001 0 6265.20149793 0 5801.09751055 0 1920
0.04350000 0.04349210 39894.30591587 0 150.44824158 0 7222.05065076 0 6125.67130041 0 10626.05691162 0 2005
0.04450000 0.04448520 39291.80703669 0 1126.52677561 0 6480.50492203 0 137.12132607 0 10835.86365752 0 2151
0.04550000 0.04548030 39269.55054824 0 1223.11768734 0 11367.33286473 0 -1931.81823463 0 18596.64497586 0 2274
0.04650000 0.04648670 39293.83035382 0 509.81971390 0 13723.48566445 0 -1850.18862902 0 17073.76161482 0 2311
0.04750000 0.04749250 39610.14226539 0 596.31202502 0 13914.57672688 0 385.40594348 0 15652.49373640 0 2568
0.04850000 0.04851840 39412.75643855 0 -293.39896912 0 16612.89493485 0 -391.26119845 0 13187.41903109 0 2493
0.04950000 0.04949480 38449.88229694 0 841.49647096 0 15738.37230798 0 -2110.97172598 0 10461.85348575 0 2644
0.05050000 0.05050630 38926.48588793 0 -374.10684137 0 15067.86749188 0 -995.92615103 0 7851.85307056 0 2829
0.05150000 0.05149060 38252.72128311 0 140.74306374 0 13975.38864733 0 -1030.50576487 0 730.03193018 0 2784
0.05250000 0.05249300 38944.47092910 0 144.64019735 0 13717.19090004 0 1395.60547281 0 1146.81615018 0 3055
0.05350000 0.05348950 37493.30291973 0 795.32437402 0 13220.01691821 0 -386.52663636 0 -1999.54315528 0 3009
0.05450000 0.05448610 36865.96220243 0 1395.26825329 0 14961.75574898 0 -14.15411499 0 316.59180377 0 3336
0.05550000 0.05550870 35564.96928683 0 1360.80441814 0 13681.55803723 0 -654.87244313 0 -617.74007751 0 3349
0.05650000 0.05647670 36053.37556109 0 1088.99199469 0 16619.30210577 0 3035.86370878 0 3451.44180695 0 3324
0.05750000 0.05747970 33897.08153136 0 211.11066138 0 14739.86530355 0 2419.86480807 0 3477.01428736 0 3639
0.05850000 0.05849280 34552.63628199 0 323.40026592 0 14138.60289595 0 3308.47197030 0 7176.46981204 0 3846
0.05950000 0.05951020 33865.94492884 0 882.19212286 0 13555.10071650 0 4031.32449686 0 7812.06116698 0 3787
0.06050000 0.06049470 32587.77053422 0 1296.92380004 0 11878.67006648 0 1679.74664199 0 5774.49089027 0 3930
0.06150000 0.06148310 31276.54862645 0 902.76026557 0 10749.97384528 0 1286.72852983 0 7694.41651643 0 4083
0.06250000 0.06249100 30961.92281249 0 132.25974463 0 12093.02927592 0 538.73741197 0 4685.94627348 0 4303
0.06350000 0.06350600 31591.06203390 0 -495.78238927 0 10381.48283302 0 -255.62701047 0 7813.43252637 0 4470
0.06450000 0.06451750 32386.33807312 0 -1244.59857089 0 11852.70416329 0 327.26142945 0 5882.36741534 0 4479
0.06550000 0.06550280 32982.54218789 0 -515.54907358 0 10517.39354101 0 1134.53011893 0 6675.00190163 0 4636
0.06650000 0.06648880 33610.89456375 0 333.04924051 0 11314.27699328 0 2053.64440725 0 5783.10122873 0 4653
0.06750000 0.06749660 32557.98280978 0 1001.17553492 0 11235.14281213 0 1344.60664044 0 5329.45104653 0 5220
0.06850000 0.06852730 31701.55763059 0 1668.06760588 0 11063.70040718 0 994.11078593 0 6661.36699230 0 5029
0.06950000 0.06949320 30346.60959147 0 1672.92356699 0 10086.96654322 0 -1078.48311032 0 3230.66418594 0 5040
0.07050000 0.07048030 28902.97281809 0 1430.39528682 0 10468.28313796 0 -393.45424941 0 4959.64487813 0 5475
0.07150000 0.07148790 28198.74604979 0 877.45306452 0 11015.11831472 0 -286.21619330 0 2456.83530832 0 5509
0.07250000 0.07249820 27543.64092519 0 156.94533770 0 9857.39873334 0 567.79449411 0 2363.56038855 0 5916
0.07350000 0.07351270 27866.80963371 0 -48.37526449 0 9898.76432803 0 1245.46410099 0 1964.98939494 0 5721
0.07450000 0.07449140 27655.93502599 0 -35.95265933 0 9138.43547193 0 1698.04642138 0 761.72382085 0 6028
0.07550000 0.07549160 27508.00806237 0 359.89753478 0 9371.33051443 0 412.94441371 0 971.58789406 0 6183
0.07650000 0.07648840 27548.69921802 0 235.83447266 0 9281.48399313 0 -673.00473683 0 -475.34126592 0 6330
0.07750000 0.07749960 26659.00171266 0 344.01786749 0 11260.88390231 0 -1332.52294091 0 2307.61566987 0 6583
0.07850000 0.07848650 27080.63852158 0 743.28465739 0 11391.16304428 0 -1191.53145879 0 526.50533585 0 6549
0.07950000 0.07947320 26217.91857798 0 688.08182165 0 11911.38036011 0 -227.85473471 0 1101.15325471 0 6828
0.08050000 0.08048110 26032.11062140 0 896.09006343 0 11948.47450752 0 36.62012917 0 622.58030171 0 7147
0.08150000 0.08149960 24750.56403155 0 658.19630355 0 10329.04519736 0 1829.47210972 0 297.14435394 0 7386
0.08250000 0.08250610 24559.36056262 0 28.24663122 0 9956.88973296 0 2398.65370014 0 -316.33551694 0 7227
0.08350000 0.08350160 24471.45867390 0 -241.05125867 0 7731.81416141 0 1950.92734087 0 -916.95495932 0 7798
0.08450000 0.08449610 24750.00199902 0 -214.53681172 0 6574.93762882 0 1226.96198989 0 -736.90109184 0 7371
0.08550000 0.08548940 24724.26090884 0 352.04369211 0 6457.32670023 0 -665.70056198 0 -2583.47247946 0 8256
0.08650000 0.08650700 24084.66788225 0 850.26193040 0 7056.34097768 0 -1480.38246062 0 -1201.64804444 0 8037
0.08750000 0.08749060 23197.66813307 0 1366.79568498 0 8213.53224848 0 -1413.27577576 0 -1849.64907778 0 8155
0.08850000 0.08849210 22420.60194803 0 937.89516756 0 8897.95299019 0 -697.54307737 0 -736.78756127 0 8718
0.08950000 0.08949900 21740.76739182 0 619.21934714 0 9998.44641871 0 692.75343610 0 -1257.43539402 0 8571
0.09050000 0.09049190 21349.70515289 0 -152.30519708 0 9913.03995446 0 876.21546887 0 -1111.27658476 0 8932
0.09150000 0.09150830 21686.47504879 0 -370.90887624 0 9398.67901766 0 871.95863444 0 -1793.78304365 0 9285
0.09250000 0.09250820 21920.84261654 0 -309.99241773 0 8787.87329758 0 762.77032543 0 -2484.99313840 0 9204
0.09350000 0.09350330 21738.29444866 0 224.16442907 0 7726.75586858 0 -53.58912792 0 -2285.90997331 0 9349
0.09450000 0.09448040 21637.69062462 0 737.72727967 0 7865.30812949 0 -576.58131079 0 -2494.51396957 0 9564
0.09550000 0.09549270 20880.40798487 0 1029.88640501 0 7580.63864973 0 -105.02241144 0 -2392.79732111 0 10155
0.09650000 0.09649430 19933.27075428 0 754.98392667 0 7492.55691060 0 773.23199907 0 -1897.00593931 0 9913
0.09750000 0.09749140 19329.31059051 0 328.78566169 0 6712.20845555 0 1050.45342366 0 -2241.79041919 0 10476
0.09850000 0.09850240 19020.08028890 0 115.86188334 0 6485.49577096 0 1416.19834495 0 -1774.62897481 0 10575
0.09950000 0.09950330 18630.25452154 0 192.48153092 0 5134.63932871 0 695.99523977 0 -2266.23883453 0 10882
0.10050000 0.10051200 18596.19534983 0 150.45611003 0 5322.68417479 0 393.00012712 0 -1765.45660381 0 10875
0.10150000 0.10150300 17937.04359096 0 263.20433313 0 4181.08368655 0 -170.31271955 0 -3051.76922956 0 11118
0.10250000 0.10250800 17878.59220716 0 552.44875774 0 5079.12175475 0 170.21942215 0 -2427.64333837 0 11575
0.10350000 0.10349800 17386.58892467 0 275.54656763 0 4615.96198203 0 -379.29102949 0 -3772.22749751 0 11364
0.10450000 0.10450100 17045.43517498 0 553.24009955 0 4381.84170861 0 -349.48644407 0 -2707.91772370 0 12093
0.10550000 0.10551000 16885.59312159 0 377.55322488 0 4733.12328460 0 306.33021372 0 -3894.01994818 0 12067
0.10650000 0.10649700 16498.01548438 0 432.34577687 0 4215.69365015 0 -391.90528774 0 -3213.44350902 0 12054
0.10750000 0.10749900 16173.72271079 0 675.91156911 0 5156.17641551 0 -328.46867534 0 -4051.19796735 0 12807
0.10850000 0.10850100 15626.30302019 0 604.92461161 0 5323.61714880 0 -841.11316477 0 -3583.73302540 0 12736
0.10950000 0.10950300 15507.26452895 0 355.48333124 0 5667.30004490 0 -623.14121018 0 -3775.72333989 0 12933
0.11050000 0.11050200 15422.39761593 0 -79.89798336 0 5889.40406269 0 -289.41753063 0 -3455.94930789 0 13428
0.11150000 0.11150900 15592.13144197 0 -313.22185668 0 6120.26454741 0 376.35272338 0 -3395.00249963 0 13453
0.11250000 0.11250000 15952.50670441 0 -282.01781025 0 6095.29906213 0 817.96754085 0 -3106.14025715 0 13668
0.11350000 0.11349100 16029.95478794 0 158.14359107 0 5924.51985558 0 926.49377553 0 -1956.67131339 0 13791
0.11450000 0.11448600 16038.49768250 0 201.74157899 0 5504.07455564 0 860.36839947 0 -1172.66964686 0 14205
0.11550000 0.11549300 15628.43874383 0 325.97325087 0 5721.21020581 0 1112.26126577 0 406.33266295 0 14776
0.11650000 0.11649800 15632.59778460 0 -14.50673421 0 5339.29785657 0 1138.64419710 0 1035.10094289 0 14553
0.11750000 0.11747300 15424.30852656 0 17.70222640 0 5266.52588374 0 920.07199176 0 1272.38545949 0 14568
0.11850000 0.11849100 15766.36152830 0 22.60798360 0 5703.85464108 0 175.45868946 0 1862.00255294 0 16015
0.11950000 0.11950300 15528.28454582 0 205.19133470 0 5641.26669781 0 -416.79096439 0 1036.95452619 0 15270
0.12050000 0.12050700 15415.76563200 0 460.72167558 0 6497.66939570 0 -763.95509002 0 1910.05633481 0 15999
0.12150000 0.12150000 15046.06062946 0 455.44643819 0 6373.38152057 0 -473.76532668 0 1525.71600502 0 15670
0.12250000 0.12250700 14855.86881909 0 586.46071872 0 7163.43065720 0 66.77362438 0 2691.02302565 0 16887
0.12350000 0.12352200 14451.31779928 0 344.30450409 0 6910.87571657 0 555.36458254 0 2624.18611640 0 16407
0.12450000 0.12449800 14148.94429462 0 166.03115569 0 6580.00716230 0 1456.32746806 0 3440.97676112 0 16306
0.12550000 0.12549900 14091.84178891 0 -74.31902359 0 6048.45927054 0 1357.94929286 0 2888.26272403 0 17523
0.12650000 0.12650100 14052.83673087 0 -137.58668901 0 5281.68952157 0 1042.62206229 0 3175.52879411 0 17154
0.12750000 0.12750600 14058.11983671 0 79.87460281 0 4628.36041979 0 450.05879429 0 2937.08087015 0 18007
0.12850000 0.12850300 13746.19177893 0 235.56020078 0 4256.08130823 0 207.83513576 0 1972.83536915 0 17496
0.12950000 0.12949900 13752.14932382 0 205.61398317 0 3798.69922998 0 -19.48971468 0 2013.60520935 0 18405
0.13050000 0.13049000 13226.19927611 0 135.33181448 0 3584.57607421 0 118.96655108 0 835.22980818 0 18100
0.13150000 0.13148800 13506.31629233 0 48.45585995 0 3111.97415487 0 379.47874835 0 1023.49609507 0 19059
0.13250000 0.13249300 13096.36976017 0 202.99378749 0 3229.32654851 0 157.54783658 0 15.03796736 0 18957
0.13350000 0.13349100 12966.65265073 0 337.28359364 0 2835.56655340 0 -192.72208085 0 0.08400453 0 19468
0.13450000 0.13450700 12380.67752813 0 594.15157195 0 3655.22356405 0 -390.17759972 0 -155.11760789 0 19953
0.13550000 0.13551000 12234.21184910 0 493.81190320 0 4055.06475121 0 -509.29589958 0 -21.84530544 0 19956
0.13650000 0.13649900 11647.56228745 0 346.27274203 0 4388.64230230 0 -526.61661829 0 400.38186245 0 19723
0.13750000 0.13749600 11655.31833646 0 0.65203980 0 4463.32518575 0 111.84537403 0 186.12719106 0 20946
0.13850000 0.13851100 11855.40191947 0 -147.89773793 0 4658.18186618 0 188.14039161 0 803.52442872 0 20955
0.13950000 0.13949800 12034.46548561 0 -103.04889039 0 4596.18967739 0 651.34962319 0 787.54247151 0 20506
0.14050000 0.14048300 11993.54951695 0 70.92974258 0 5014.33064394 0 254.15560929 0 1337.91845326 0 21447
0.14150000 0.14148400 11992.98748442 0 292.46149885 0 4858.25420854 0 235.60965965 0 2079.29557222 0 21771
0.14250000 0.14249400 11910.59351456 0 269.70030518 0 5252.71112399 0 10.90270057 0 2584.14691850 0 22470
0.14350000 0.14350900 11812.01300765 0 109.51833451 0 5396.37788098 0 474.90737680 0 3006.68297948 0 22519
0.14450000 0.14449900 11744.56910326 0 31.57880972 0 5492.31683497 0 156.59912566 0 3281.25835488 0 22218
0.14550000 0.14550500 11684.31921534 0 71.48210816 0 5485.38135347 0 327.87629304 0 2698.62170554 0 23559
0.14650000 0.14650700 11676.67557285 0 202.79932423 0 5164.19099948 0 -26.69126238 0 2498.94278596 0 23044
0.14750000 0.14750500 11205.68106657 0 383.66364262 0 4731.59455610 0 49.42705217 0 1888.49676671 0 23649
0.14850000 0.14849900 10805.12047777 0 468.70253760 0 4585.96068523 0 -45.85758354 0 1264.25846902 0 23640
0.14950000 0.14949500 10359.87830231 0 418.38376460 0 4192.34681858 0 -203.44790978 0 495.17089787 0 24457
0.15050000 0.15050000 10059.19089526 0 239.61133131 0 4187.01875014 0 232.53871387 0 265.21191335 0 24591
0.15150000 0.15149900 9817.87660537 0 34.98753706 0 3641.70106122 0 117.20738924 0 -9.19734772 0 25020
0.15250000 0.15250500 9956.41762563 0 -169.87096198 0 3566.19761026 0 566.22192708 0 299.98599045 0 25297
0.15350000 0.15350100 9955.75442723 0 -38.47371248 0 3253.84240775 0 546.41252829 0 -136.11191564 0 25452
0.15450000 0.15450400 10149.01493525 0 36.51907572 0 3214.76990581 0 334.32730250 0 546.68117985 0 26061
0.15550000 0.15549900 9975.57169447 0 165.81421113 0 2820.36919361 0 437.41643442 0 203.22309676 0 26128
0.15650000 0.15649500 9792.38280951 0 203.40744343 0 2701.26325847 0 318.13739325 0 776.71322860 0 26331
0.15750000 0.15749700 9592.53528016 0 221.79714803 0 2523.58229236 0 261.01015810 0 659.65534002 0 27345
0.15850000 0.15849900 9355.62732536 0 127.72526613 0 2513.36454085 0 368.76303601 0 587.67246087 0 26980
0.15950000 0.15949700 9334.86584346 0 56.06623012 0 2047.66438106 0 181.40386963 0 494.38517639 0 27777
0.16050000 0.16050000 9195.68410610 0 118.61359464 0 1966.54060474 0 107.38935526 0 391.12855877 0 28224
0.16150000 0.16150500 9209.71243822 0 14.20312423 0 1953.01810191 0 155.38513538 0 15.94947173 0 28075
0.16250000 0.16249700 9076.10606363 0 41.80577857 0 1830.60741545 0 -49.52866766 0 -67.02440330 0 28590
0.16350000 0.16349900 9111.81761100 0 75.00841270 0 1961.29122084 0 11.32371914 0 363.71485977 0 29163
0.16450000 0.16449100 9051.88246130 0 114.55234753 0 1848.03042408 0 -203.96835190 0 -96.36182727 0 28996
0.16550000 0.16550500 9009.67381781 0 198.18953336 0 2009.09770840 0 -87.74204666 0 310.85907190 0 30777
0.16650000 0.16650700 8908.31687017 0 185.42465039 0 2290.24886449 0 -260.70328834 0 175.39686588 0 29211
0.16750000 0.16749900 8902.25815942 0 120.95389813 0 2457.32989695 0 63.26620414 0 648.23259075 0 30922
0.16850000 0.16850800 8701.33152761 0 155.79541913 0 2596.54535626 0 -138.30271846 0 694.68120770 0 30867
0.16950000 0.16949900 8701.19663980 0 133.48385150 0 2494.37908176 0 191.39343593 0 846.73011794 0 30852
0.17050000 0.17049200 8543.46782874 0 129.32930699 0 2603.08741498 0 161.46969962 0 793.35501201 0 31257
0.17150000 0.17149500 8514.34330270 0 98.24677199 0 2458.65629374 0 251.68266613 0 904.56888628 0 32608
0.17250000 0.17250900 8358.61532747 0 15.33629423 0 2205.68544904 0 204.23138313 0 731.01548712 0 32361
0.17350000 0.17350400 8418.59543977 0 27.86815851 0 2018.36000461 0 139.61675053 0 314.75395738 0 32508
0.17450000 0.17449800 8389.20113811 0 -57.69578726 0 1827.75229016 0 -52.16325138 0 142.66184282 0 32791
0.17550000 0.17549800 8411.12040703 0 46.00573531 0 1961.03268588 0 -101.80792255 0 9.19047968 0 33633
0.17650000 0.17650100 8418.21325765 0 41.32771370 0 1912.11337390 0 -105.58657970 0 62.25364632 0 33984
0.17750000 0.17750300 8365.68569678 0 137.31578933 0 1986.23422482 0 7.76006192 0 -103.33294163 0 34069
