### header ###
fiducial parameters:
Omega_m = 0.31
Omega_nu = 0
Omega_de = 0.69
Omega_k = 0
H_0 = 100
w_de = -1
zeff = 0
beta = 0
fgrowth = 0
b_1 = 2
gamma = 0.55
Lx = 3500 Ly = 3500 Lz = 3500
nx = 700 ny = 700 nz = 700
xoffset = 857.220397 yoffset = 15.9954215 zoffset = 262.898189
bins = 400 dk = 0.001
kx_ny = 0.628318531 ky_ny = 0.628318531 kz_ny = 0.628318531
############################
A(data) = 3.06063576 (not used)
A(ran) = 3.05727285 (used)
Ngal = 186732
weighted Ngal = 0
Nran = 9360983
weighted Nran = 0
SN(data) = 3461.59803
SN(ran) = 68.6548585
SN(data+ran) = 3530.25289
############################
13 columns: k_central k_mean P_0(k) sigma^{lin}_{P_0(k)} P^img_1(k) sigma^{lin}_{P_1(k)} P_2(k) sigma^{lin}_{P_2(k)} P^img_3(k) sigma^{lin}_{P_3(k)} P_4(k) sigma^{lin}_{P_4(k)} N_modes
### header ###
0.00050000 0 0 0 0 0 0 0 0 0 0 0 0
0.00150000 0.00179520 18415.44568608 0 -15402.95129017 0 22548.18333383 0 31538.90541451 0 16897.62061787 0 3
0.00250000 0.00253879 36576.96507214 0 -18836.40805595 0 20738.32615963 0 318.33860090 0 28996.04540614 0 6
0.00350000 0.00331552 51682.37633746 0 -13981.79581825 0 40549.29863396 0 2676.27529189 0 -31493.94281158 0 7
0.00450000 0.00420575 68091.81549408 0 -7784.13939056 0 45213.94387431 0 22251.09293501 0 -1592.35058255 0 24
0.00550000 0.00557378 80689.32517481 0 -3583.55317499 0 42959.96858973 0 46974.34218529 0 15369.67896401 0 45
0.00650000 0.00659388 81427.94833434 0 -1363.47969302 0 18189.28379337 0 45962.23399347 0 -19713.96565852 0 40
0.00750000 0.00754703 84158.97683595 0 -7561.52954348 0 -9551.29333263 0 49850.82470735 0 -795.29290019 0 57
0.00850000 0.00846663 87260.27237263 0 -10813.68585363 0 -32421.63371641 0 30924.60385206 0 -14046.87918598 0 75
0.00950000 0.00948925 85445.80653163 0 -6288.61577341 0 -58306.71662625 0 5756.95547513 0 -10164.45958936 0 112
0.01050000 0.01054430 95259.34424581 0 -4034.40443516 0 -66355.13495614 0 -23737.10696165 0 1793.99661602 0 105
0.01150000 0.01145670 84664.91852535 0 7992.65346162 0 -53558.55335097 0 -40075.50520565 0 -5758.18070606 0 144
0.01250000 0.01249090 77541.60575061 0 14607.45043794 0 -26898.98960577 0 -42239.21806486 0 11668.91952384 0 169
0.01350000 0.01339930 64785.26567505 0 12748.58402655 0 2170.20995533 0 -35366.57180142 0 2034.67018882 0 180
0.01450000 0.01448870 65437.22341745 0 4916.45829802 0 23821.07462261 0 -16509.93057416 0 21227.51927945 0 267
0.01550000 0.01550050 66004.08943381 0 -1491.63435200 0 26854.02700285 0 11938.80754789 0 -12188.12518111 0 238
0.01650000 0.01653350 73959.54758217 0 -6619.32695856 0 36586.74443827 0 15630.57446747 0 19323.91507815 0 315
0.01750000 0.01747870 79909.67364011 0 -3879.67687785 0 25308.10030781 0 23929.65930867 0 -3354.40126919 0 297
0.01850000 0.01844180 84588.36969387 0 -1692.41485536 0 32724.11962758 0 12838.28441939 0 33801.76081316 0 388
0.01950000 0.01947590 75526.38188756 0 6118.63465305 0 4257.40770501 0 8960.03510418 0 74.03542197 0 399
0.02050000 0.02045430 78009.77885356 0 4109.72803571 0 19238.59853911 0 1663.13296021 0 22559.19917155 0 462
0.02150000 0.02154770 70640.63304733 0 3441.92097578 0 13414.70498887 0 -2853.87757344 0 13417.17793203 0 571
0.02250000 0.02255340 69309.06556174 0 2820.80757899 0 25153.42895375 0 -3561.73507192 0 17881.51477635 0 510
0.02350000 0.02348930 65277.60617707 0 -1595.20570784 0 21038.11431463 0 -8945.68079320 0 10281.33987566 0 555
0.02450000 0.02439640 72188.02102696 0 -310.74891352 0 19792.65021364 0 -1812.01537914 0 -7876.58250217 0 592
0.02550000 0.02547300 71399.48937818 0 782.39537754 0 27128.41128719 0 -6119.90484658 0 4963.09575791 0 837
0.02650000 0.02652900 68466.57878945 0 2712.04304252 0 19720.59764245 0 2273.28672253 0 -12534.44963013 0 723
0.02750000 0.02749970 69442.94171195 0 2089.18734486 0 29894.39821256 0 3840.17723118 0 8506.94695452 0 826
0.02850000 0.02848090 66535.65980688 0 2949.85024938 0 22014.36483062 0 876.47625197 0 -9416.32683930 0 831
0.02950000 0.02946900 66496.65474885 0 -445.95146052 0 24054.20571877 0 9324.24342852 0 2453.98018303 0 996
0.03050000 0.03053250 67646.57331863 0 -2424.40603096 0 26660.80021678 0 4153.06074428 0 7180.32535524 0 1041
0.03150000 0.03150510 68414.87179609 0 -1543.95958116 0 19964.18254379 0 7249.98366782 0 -1644.06881657 0 1036
0.03250000 0.03246190 68541.77874284 0 2257.41492370 0 28173.11736613 0 926.12170999 0 8250.36786093 0 1059
0.03350000 0.03345080 65219.37960628 0 2540.81420993 0 19425.19334124 0 2807.13894770 0 2653.28816115 0 1302
0.03450000 0.03451200 60250.67476366 0 4702.62739917 0 19899.88602161 0 4824.21751812 0 2668.09209816 0 1339
0.03550000 0.03553350 57065.86119205 0 2763.90740499 0 14201.21332052 0 4600.50608728 0 -812.80358590 0 1365
0.03650000 0.03647120 52586.79909527 0 2369.81019036 0 14156.81275013 0 3292.21798935 0 -3282.25877280 0 1308
0.03750000 0.03744890 52571.73662329 0 4109.37957554 0 7969.72253413 0 -4999.62787278 0 -8310.50534234 0 1579
0.03850000 0.03847530 46915.32876895 0 5533.05295322 0 13881.41680722 0 -7972.99356349 0 -4884.23135238 0 1662
0.03950000 0.03950240 43994.22086349 0 4036.89985962 0 17432.11356013 0 -6281.30935043 0 -5341.73707778 0 1683
0.04050000 0.04050350 42707.72838733 0 1230.25550055 0 20281.28130091 0 -865.79426158 0 -5261.87225433 0 1822
0.04150000 0.04152450 43220.18965415 0 -1251.34296133 0 20530.48652762 0 4046.53309730 0 -5167.64187926 0 1887
0.04250000 0.04250150 44528.82621226 0 -2870.12031375 0 17235.17735932 0 4404.52534178 0 -8727.42107795 0 1920
0.04350000 0.04349210 46149.72804766 0 -2060.68105461 0 16305.23832435 0 7492.18596912 0 -6590.38228293 0 2005
0.04450000 0.04448520 47083.37649738 0 -448.06807505 0 11322.48266831 0 4045.12801596 0 -6740.68102385 0 2151
0.04550000 0.04548030 45733.82397062 0 1307.51249303 0 10426.58032375 0 4668.74807786 0 -1236.60646822 0 2274
0.04650000 0.04648670 44760.94564985 0 2317.48496121 0 10255.14915945 0 2070.50538335 0 2330.09697133 0 2311
0.04750000 0.04749250 41678.19718688 0 1773.13396826 0 6260.13196445 0 3707.31273954 0 518.42555610 0 2568
0.04850000 0.04851840 41525.77396296 0 1363.64830278 0 12565.81104567 0 3178.55252915 0 8677.04048138 0 2493
0.04950000 0.04949480 40318.41566795 0 724.55098888 0 6848.54630827 0 1372.53965751 0 2809.08358028 0 2644
0.05050000 0.05050630 40883.48318020 0 1240.48449272 0 16576.81244601 0 -2805.38540619 0 15500.63254502 0 2829
0.05150000 0.05149060 39577.88159779 0 1769.78425434 0 13459.33037227 0 -3702.91764510 0 6706.50944563 0 2784
0.05250000 0.05249300 38864.32508939 0 1784.31841574 0 22957.23061393 0 -2525.99903227 0 16935.38920433 0 3055
0.05350000 0.05348950 36869.78402368 0 1656.81571449 0 18179.72924025 0 -3734.65000212 0 6664.63802166 0 3009
0.05450000 0.05448610 37529.49781508 0 800.66930344 0 23212.50579203 0 822.97075449 0 12165.64387964 0 3336
0.05550000 0.05550870 36706.68218157 0 691.69007054 0 18707.36538556 0 66.05208701 0 1046.54167720 0 3349
0.05650000 0.05647670 35848.23368525 0 574.19492064 0 19831.99249119 0 -153.19208442 0 280.81056437 0 3324
0.05750000 0.05747970 34620.75462542 0 823.32595905 0 17854.53721460 0 -1028.70276449 0 -2810.56734617 0 3639
0.05850000 0.05849280 33887.86419776 0 890.66532539 0 17388.49983529 0 -1143.80365578 0 -7485.20552502 0 3846
0.05950000 0.05951020 34421.57029447 0 507.74019352 0 16870.19343009 0 -613.92050439 0 -4699.28892590 0 3787
0.06050000 0.06049470 33032.67549015 0 10.41455283 0 17856.67293824 0 1372.82067378 0 -9634.99121797 0 3930
0.06150000 0.06148310 34029.04677094 0 -232.68821452 0 16454.28935304 0 1503.53820113 0 -4465.08996792 0 4083
0.06250000 0.06249100 34299.38442102 0 -713.51604206 0 16511.50426526 0 3207.99179342 0 -4670.99620801 0 4303
0.06350000 0.06350600 34155.72890468 0 387.57763720 0 15674.52541183 0 1917.65501471 0 -1257.57028183 0 4470
0.06450000 0.06451750 34435.05907535 0 1208.56104464 0 14981.42688776 0 3031.69342735 0 946.83148489 0 4479
0.06550000 0.06550280 32014.94697297 0 1408.66710896 0 12727.45160318 0 2686.21202714 0 2149.63956449 0 4636
0.06650000 0.06648880 31461.12011145 0 663.27033329 0 12272.20524857 0 3111.00745891 0 3727.99553689 0 4653
0.06750000 0.06749660 30211.38456318 0 -59.06231317 0 9881.84714868 0 2040.91999062 0 986.09732603 0 5220
0.06850000 0.06852730 31121.76486588 0 -252.65385835 0 10409.49453464 0 179.08379932 0 900.51775575 0 5029
0.06950000 0.06949320 30135.73498376 0 392.70674613 0 8471.25788844 0 -3134.35429048 0 -4884.87206947 0 5040
0.07050000 0.07048030 30648.30865709 0 1450.84203050 0 11669.81877590 0 -4299.31285094 0 -3287.38450953 0 5475
0.07150000 0.07148790 29114.18464533 0 1715.14345114 0 11332.93647349 0 -3688.28231785 0 -6244.64234775 0 5509
0.07250000 0.07249820 28229.32061978 0 1114.67013722 0 13739.55979500 0 -795.33673873 0 -4425.42171149 0 5916
0.07350000 0.07351270 27461.35936184 0 253.65989659 0 13708.98522501 0 1374.74282505 0 -7639.37104980 0 5721
0.07450000 0.07449140 28449.30015459 0 -386.20515375 0 15661.37385048 0 3228.24744604 0 -3722.07171395 0 6028
0.07550000 0.07549160 28017.77157302 0 -70.09669796 0 13531.38294346 0 2194.72581458 0 -2930.30275776 0 6183
0.07650000 0.07648840 28635.33292419 0 519.75195289 0 14326.32176316 0 2272.53359894 0 -331.96901397 0 6330
0.07750000 0.07749960 27686.84681550 0 1037.37043027 0 13879.73070961 0 967.26473979 0 1283.51370372 0 6583
0.07850000 0.07848650 27088.39457059 0 996.81641056 0 13209.56311303 0 806.78646557 0 1734.47737039 0 6549
0.07950000 0.07947320 25820.33676162 0 382.51372405 0 13030.83676641 0 697.85331933 0 1297.74436754 0 6828
0.08050000 0.08048110 26136.76107970 0 148.82284348 0 13328.82641729 0 -121.02696236 0 479.88136475 0 7147
0.08150000 0.08149960 25756.15264595 0 362.69645681 0 12965.19136614 0 -995.43381052 0 -1024.37286583 0 7386
0.08250000 0.08250610 25873.72985260 0 407.43649485 0 13174.26746974 0 -165.58152966 0 179.85940422 0 7227
0.08350000 0.08350160 25313.49582016 0 441.64291909 0 12952.60183732 0 -601.48609655 0 -438.37638599 0 7798
0.08450000 0.08449610 25114.53630222 0 140.16417023 0 12375.95645482 0 817.78993857 0 -237.57902166 0 7371
0.08550000 0.08548940 24936.37198814 0 491.37717825 0 13814.08530934 0 2239.87950856 0 -525.15870589 0 8256
0.08650000 0.08650700 23961.47035024 0 1021.07935517 0 11989.27806968 0 1761.54485736 0 776.70985641 0 8037
0.08750000 0.08749060 22789.18288550 0 667.17083910 0 12394.61593503 0 2291.11439459 0 423.52411418 0 8155
0.08850000 0.08849210 21831.25463021 0 1153.74039103 0 11020.49134577 0 1054.40451239 0 1642.02301813 0 8718
0.08950000 0.08949900 21129.38839857 0 761.98235582 0 10065.56434422 0 1539.90170624 0 1271.84590826 0 8571
0.09050000 0.09049190 20258.01315390 0 626.09750133 0 9871.98909799 0 261.86332349 0 1658.83903163 0 8932
0.09150000 0.09150830 19914.94849359 0 325.69560680 0 9374.38797143 0 989.97872272 0 1388.78239781 0 9285
0.09250000 0.09250820 19800.29385613 0 205.26439893 0 9462.28986014 0 433.05056567 0 1952.65840108 0 9204
0.09350000 0.09350330 19580.08950831 0 82.75681806 0 8818.81880905 0 1341.72903385 0 2037.94121818 0 9349
0.09450000 0.09448040 19544.34423899 0 -67.57744332 0 8677.13040658 0 670.73524944 0 1624.49884364 0 9564
0.09550000 0.09549270 19521.07609198 0 -40.76264618 0 7159.62007660 0 1468.19759523 0 1595.80146233 0 10155
0.09650000 0.09649430 19377.87020166 0 42.97694197 0 6724.35959899 0 1454.13554116 0 946.90792132 0 9913
0.09750000 0.09749140 18871.25407322 0 66.40302013 0 5797.10707954 0 832.73775591 0 512.50285723 0 10476
0.09850000 0.09850240 18572.92720282 0 430.07066916 0 4538.91856192 0 850.82958326 0 -423.10034164 0 10575
0.09950000 0.09950330 18002.12695870 0 559.21113322 0 3914.89383659 0 444.04954241 0 -702.37206093 0 10882
0.10050000 0.10051200 17034.86896330 0 763.76849522 0 3376.29805681 0 -381.76959297 0 -1179.14426168 0 10875
0.10150000 0.10150300 16696.52537629 0 633.29039373 0 3608.06903424 0 -393.19459037 0 -956.88062665 0 11118
0.10250000 0.10250800 15993.31026656 0 523.72439886 0 3869.41416373 0 260.50208069 0 -295.92361927 0 11575
0.10350000 0.10349800 15864.04278316 0 306.50444381 0 3236.09342025 0 280.63970648 0 593.31077127 0 11364
0.10450000 0.10450100 15764.33821117 0 -39.59193241 0 3961.95844120 0 541.60602604 0 698.95377904 0 12093
0.10550000 0.10551000 15973.30190826 0 117.44793916 0 4187.56954202 0 372.06104294 0 654.57006963 0 12067
0.10650000 0.10649700 16028.60590986 0 163.16928601 0 4498.39601604 0 -176.10615094 0 1129.67415781 0 12054
0.10750000 0.10749900 15558.97152232 0 435.95290169 0 4558.21875923 0 -848.40497490 0 1461.57685195 0 12807
0.10850000 0.10850100 15547.16883905 0 300.96055487 0 5159.25635381 0 -985.18683332 0 1823.41339898 0 12736
0.10950000 0.10950300 15442.96800677 0 244.64489470 0 5908.01858030 0 -574.92556294 0 1280.95083535 0 12933
0.11050000 0.11050200 15344.05028034 0 247.83274325 0 5900.48734431 0 -311.74708331 0 837.05641392 0 13428
0.11150000 0.11150900 15317.18512509 0 128.46490094 0 6717.14310122 0 348.04764078 0 771.34469381 0 13453
0.11250000 0.11250000 15106.76014341 0 99.36701524 0 5750.12115949 0 230.54462243 0 -265.13547692 0 13668
0.11350000 0.11349100 14968.38773291 0 180.76764880 0 6649.54182773 0 650.55603325 0 383.43433335 0 13791
0.11450000 0.11448600 15021.33119785 0 78.91600012 0 5204.30888194 0 408.09070072 0 -180.10220227 0 14205
0.11550000 0.11549300 14791.34748390 0 67.08364153 0 5717.02868373 0 490.97925921 0 427.11437802 0 14776
0.11650000 0.11649800 14728.73705932 0 176.90086494 0 4511.24407982 0 13.42425954 0 -305.08699775 0 14553
0.11750000 0.11747300 14504.93570327 0 356.68608087 0 5680.08066478 0 -54.67677329 0 131.29192460 0 14568
0.11850000 0.11849100 14066.77513778 0 255.98895942 0 4462.16739873 0 -344.26178961 0 137.17303307 0 16015
0.11950000 0.11950300 14022.82419342 0 193.53702803 0 4926.28262676 0 316.05674880 0 -229.27218076 0 15270
0.12050000 0.12050700 13976.96233844 0 -8.02076633 0 4697.27684942 0 344.92049175 0 -95.89399139 0 15999
0.12150000 0.12150000 13818.58156964 0 17.56025698 0 4359.65266406 0 447.81628447 0 -806.98205289 0 15670
0.12250000 0.12250700 14046.99159249 0 153.61585695 0 4560.84907150 0 -97.56536374 0 -534.17595591 0 16887
0.12350000 0.12352200 13685.04263895 0 262.33655489 0 4550.60883868 0 -224.59494600 0 -859.86144612 0 16407
0.12450000 0.12449800 13459.33037227 0 353.35435199 0 4479.60164801 0 -386.86497995 0 -557.47108048 0 16306
0.12550000 0.12549900 13375.47511782 0 258.41019559 0 4705.79726267 0 -108.61121400 0 -783.14737708 0 17523
0.12650000 0.12650100 13086.36558102 0 278.21622218 0 4822.63258637 0 148.99819763 0 -757.61423894 0 17154
0.12750000 0.12750600 12959.68344728 0 219.42199853 0 4645.62605931 0 458.29144689 0 -750.45282036 0 18007
0.12850000 0.12850300 12718.00945657 0 165.48935632 0 4563.92900980 0 647.33221462 0 -733.59296833 0 17496
0.12950000 0.12949900 12695.75296812 0 55.84344043 0 4174.11448310 0 732.73530668 0 -207.05053833 0 18405
0.13050000 0.13049000 12643.25912920 0 45.15627934 0 3819.03356716 0 561.35135312 0 -376.06721086 0 18100
0.13150000 0.13148800 12665.96524368 0 7.68595231 0 3890.56906841 0 306.50669194 0 365.85845186 0 19059
0.13250000 0.13249300 12582.44720875 0 -35.38826626 0 3639.93627906 0 119.28578556 0 563.54440407 0 18957
0.13350000 0.13349100 12669.00021938 0 -2.41691976 0 3824.54148601 0 140.88582000 0 1101.47473733 0 19468
0.13450000 0.13450700 12760.83633585 0 41.34502430 0 3961.91347860 0 -322.24922329 0 348.48490209 0 19953
0.13550000 0.13551000 12670.12428445 0 131.40882737 0 3857.83629348 0 -36.60012081 0 467.50428423 0 19956
0.13650000 0.13649900 12474.98658776 0 311.68863192 0 3859.90457321 0 305.03641482 0 219.48269804 0 19723
0.13750000 0.13749600 12286.59328151 0 113.03935595 0 3335.91039874 0 149.05215276 0 -364.58263800 0 20946
0.13850000 0.13851100 12003.89091563 0 81.38062519 0 3162.04001323 0 729.44741634 0 -116.80047768 0 20955
0.13950000 0.13949800 11966.23473568 0 65.68800234 0 2606.41464760 0 504.77603392 0 -608.26420894 0 20506
0.14050000 0.14048300 11768.28687630 0 157.60853609 0 2259.61809125 0 549.78359945 0 -827.34449169 0 21447
0.14150000 0.14148400 11650.93448267 0 290.53147912 0 2271.09479564 0 -133.68955540 0 -393.18784598 0 21771
0.14250000 0.14249400 11310.23035902 0 315.74875497 0 2038.50325072 0 -80.79341360 0 -273.36700545 0 22470
0.14350000 0.14350900 11233.90634055 0 249.58853290 0 2932.78694157 0 -133.43214450 0 999.07915356 0 22519
0.14450000 0.14449900 11073.74954894 0 116.62175133 0 2845.12110652 0 102.28677427 0 809.35270613 0 22218
0.14550000 0.14550500 10976.00085018 0 120.63129145 0 3021.81289536 0 360.62030862 0 1449.53811501 0 23559
0.14650000 0.14650700 10908.52322384 0 107.49726551 0 3114.24476632 0 256.59820269 0 1207.51566413 0 23044
0.14750000 0.14750500 10699.50332350 0 118.82154668 0 2789.33375694 0 -103.44512333 0 1279.95041744 0 23649
0.14850000 0.14849900 10732.24733908 0 99.30822664 0 2993.28412381 0 -10.55575788 0 1005.47508382 0 23640
0.14950000 0.14949500 10577.47481916 0 101.13370832 0 2602.05327511 0 -539.27021882 0 296.12707505 0 24457
0.15050000 0.15050000 10520.54092321 0 137.68897893 0 3141.72815736 0 -502.23677092 0 -93.45330889 0 24591
0.15150000 0.15149900 10444.74521533 0 198.54136573 0 2869.90674138 0 -512.05885153 0 -166.48865017 0 25020
0.15250000 0.15250500 10291.20916700 0 277.46422264 0 3517.36822349 0 -196.80918145 0 -677.26044719 0 25297
0.15350000 0.15350100 10175.63279618 0 176.72326266 0 3272.28831560 0 86.77737402 0 -725.22542793 0 25452
0.15450000 0.15450400 10114.00030822 0 47.43161186 0 3694.61080421 0 359.14778338 0 -475.45142429 0 26061
0.15550000 0.15549900 10022.83863080 0 -44.81343949 0 2960.43894237 0 393.25753802 0 -627.35870234 0 26128
0.15650000 0.15649500 10122.26218651 0 -5.69119767 0 3261.08138682 0 367.31411613 0 -380.13407829 0 26331
0.15750000 0.15749700 9945.39054726 0 157.78726244 0 2857.11488085 0 11.78458582 0 -692.63990552 0 27345
0.15850000 0.15849900 10011.90147763 0 274.27412597 0 2990.48520177 0 -50.93240012 0 -213.82865073 0 26980
0.15950000 0.15949700 9510.09634770 0 279.13795554 0 3034.30125832 0 -91.46247724 0 -588.11983877 0 27777
0.16050000 0.16050000 9408.50334639 0 282.15044993 0 2964.10339451 0 -120.66726153 0 -148.10231777 0 28224
0.16150000 0.16150500 9238.25245042 0 182.54479568 0 3308.71926462 0 105.93076842 0 -258.11231835 0 28075
0.16250000 0.16249700 9017.95817740 0 116.29352433 0 3295.87120083 0 134.19538469 0 157.85021009 0 28590
0.16350000 0.16349900 9122.14776902 0 82.21872811 0 3583.39580588 0 232.17676491 0 425.51932968 0 29163
0.16450000 0.16449100 8973.50140376 0 145.26405346 0 3436.13204066 0 28.90241079 0 287.57631204 0 28996
0.16550000 0.16550500 8841.26638856 0 197.88491173 0 3524.29246434 0 9.92450542 0 601.75137591 0 30777
0.16650000 0.16650700 8714.55053287 0 169.58657351 0 3557.39618074 0 28.31677288 0 356.32638004 0 29211
0.16750000 0.16749900 8607.01122732 0 138.69838937 0 3257.96772657 0 158.15370765 0 759.95454243 0 30922
0.16850000 0.16850800 8433.68039305 0 -4.05054601 0 3049.45365551 0 561.78749036 0 145.59115640 0 30867
0.16950000 0.16949900 8312.46121557 0 22.59145984 0 2173.48098469 0 385.85444545 0 -274.92383558 0 30852
0.17050000 0.17049200 8272.90536565 0 51.25556883 0 2080.72313486 0 512.27242389 0 -477.63098647 0 31257
0.17150000 0.17149500 8286.86625385 0 69.09639245 0 1784.07112142 0 149.99973961 0 -515.47038903 0 32608
0.17250000 0.17250900 8152.78777193 0 81.99402751 0 1685.14215434 0 3.96229566 0 -341.67868807 0 32361
0.17350000 0.17350400 8178.31528974 0 93.39215975 0 1711.28790794 0 -92.15580058 0 -395.49330345 0 32508
0.17450000 0.17449800 8126.66449964 0 41.54904211 0 1956.94108901 0 -36.36923785 0 21.68141676 0 32791
0.17550000 0.17549800 8138.57958941 0 55.54679965 0 1973.83578706 0 -12.56468698 0 221.87583258 0 33633
0.17650000 0.17650100 8197.91898462 0 13.77361897 0 2140.75945042 0 79.44464792 0 452.13494248 0 33984
0.17750000 0.17750300 8274.54650065 0 -49.33229349 0 2096.90967191 0 123.46505950 0 605.06062348 0 34069
