### header ###
fiducial parameters:
Omega_m = 0.31
Omega_nu = 0
Omega_de = 0.69
Omega_k = 0
H_0 = 100
w_de = -1
zeff = 0
beta = 0
fgrowth = 0
b_1 = 2
gamma = 0.55
Lx = 3500 Ly = 3500 Lz = 3500
nx = 700 ny = 700 nz = 700
xoffset = 857.220397 yoffset = 15.9954215 zoffset = 262.898189
bins = 400 dk = 0.001
kx_ny = 0.628318531 ky_ny = 0.628318531 kz_ny = 0.628318531
############################
A(data) = 3.07767148 (not used)
A(ran) = 3.08000806 (used)
Ngal = 187420
weighted Ngal = 0
Nran = 9360983
weighted Nran = 0
SN(data) = 3440.37274
SN(ran) = 69.1654058
SN(data+ran) = 3509.53814
############################
13 columns: k_central k_mean P_0(k) sigma^{lin}_{P_0(k)} P^img_1(k) sigma^{lin}_{P_1(k)} P_2(k) sigma^{lin}_{P_2(k)} P^img_3(k) sigma^{lin}_{P_3(k)} P_4(k) sigma^{lin}_{P_4(k)} N_modes
### header ###
0.00050000 0 0 0 0 0 0 0 0 0 0 0 0
0.00150000 0.00179520 8501.47275761 0 -14859.57823383 0 -8717.82156223 0 20653.68405963 0 -10159.35633392 0 3
0.00250000 0.00253879 19169.24372410 0 -18380.71207532 0 -2416.29028113 0 -14045.86752742 0 8694.65458107 0 6
0.00350000 0.00331552 25486.71424793 0 -11212.30180985 0 -6278.00459912 0 -21000.90776071 0 -2100.81017772 0 7
0.00450000 0.00420575 34010.49969724 0 -3994.87106654 0 -1544.09446896 0 -29936.10102678 0 704.98214003 0 24
0.00550000 0.00557378 31456.28663163 0 3240.93814071 0 5113.83288421 0 -32712.99138336 0 7998.26254634 0 45
0.00650000 0.00659388 40467.91632267 0 3511.98395179 0 9460.61500318 0 -15811.88616376 0 11868.55348082 0 40
0.00750000 0.00754703 37626.16741137 0 -9072.58773995 0 3520.49312439 0 1040.55378256 0 -2491.26542151 0 57
0.00850000 0.00846663 54122.49679814 0 -18944.09348995 0 500.23481103 0 4096.87997192 0 -9524.74291560 0 75
0.00950000 0.00948925 69412.92917449 0 -21340.71263231 0 -17785.06999308 0 8582.30427702 0 -29619.33948918 0 112
0.01050000 0.01054430 79017.16597207 0 -9869.44871092 0 -10958.83637651 0 -16709.11490511 0 -34070.74958516 0 105
0.01150000 0.01145670 90443.51225314 0 -368.37186137 0 -18565.28356032 0 -20838.03073162 0 -22505.69367407 0 144
0.01250000 0.01249090 80654.25434453 0 11839.55260194 0 2480.76665373 0 -33163.06703863 0 -12793.99625551 0 169
0.01350000 0.01339930 77543.29184822 0 12937.65177185 0 -9536.52311757 0 -11511.77522662 0 2011.17722879 0 180
0.01450000 0.01448870 68109.01368970 0 2327.81511923 0 14459.18625480 0 11223.02539064 0 19168.68169156 0 267
0.01550000 0.01550050 66743.04981287 0 -1301.15028472 0 23910.43779592 0 13540.03824452 0 6111.90150326 0 238
0.01650000 0.01653350 78434.00101214 0 -8559.29466497 0 17101.07639610 0 24376.36276872 0 14336.43834881 0 315
0.01750000 0.01747870 80327.60103429 0 -1123.93805375 0 29606.63755385 0 -5230.45463554 0 10026.86278376 0 297
0.01850000 0.01844180 79319.87669625 0 5988.28806717 0 30366.28073025 0 -11983.32052479 0 9873.49534518 0 388
0.01950000 0.01947590 78183.33450084 0 6839.81232265 0 38456.51428087 0 -15566.83997783 0 -1574.50042919 0 399
0.02050000 0.02045430 70924.68429131 0 4894.78632341 0 33820.64510639 0 -6401.07848397 0 -9169.41470535 0 462
0.02150000 0.02154770 68115.19604760 0 1320.38303812 0 33410.81098074 0 5407.53984716 0 -18275.38717797 0 571
0.02250000 0.02255340 65125.29535967 0 -1761.55609801 0 21182.66908303 0 13768.78548690 0 -31062.07701050 0 510
0.02350000 0.02348930 66403.58216079 0 -1818.88341673 0 14688.04590368 0 14535.73508627 0 -22976.56453319 0 555
0.02450000 0.02439640 64747.15986907 0 -236.80116862 0 5408.37165531 0 10244.38061605 0 -33766.35276336 0 592
0.02550000 0.02547300 64911.04855673 0 868.38972783 0 10363.43034794 0 -2339.89881877 0 -10119.26093277 0 837
0.02650000 0.02652900 64362.05517503 0 2922.50174615 0 12619.99098219 0 -7542.80261937 0 -4024.89484464 0 723
0.02750000 0.02749970 62670.33724002 0 1998.13807394 0 28843.17255620 0 -13259.80882180 0 17469.09530103 0 826
0.02850000 0.02848090 68525.03017325 0 402.68844398 0 38963.13040931 0 -3768.94522750 0 18346.87771662 0 831
0.02950000 0.02946900 67465.82365487 0 -164.75196963 0 43103.96132560 0 4428.29931808 0 27638.39961085 0 996
0.03050000 0.03053250 72032.45042084 0 2242.37493302 0 53701.42202176 0 9893.66107260 0 32474.46477485 0 1041
0.03150000 0.03150510 66458.32412985 0 4964.37719209 0 38226.41816040 0 10578.46399643 0 17010.36434470 0 1036
0.03250000 0.03246190 64277.75029455 0 6922.74584374 0 48237.67892095 0 13106.03671980 0 30190.02732679 0 1059
0.03350000 0.03345080 57478.28066737 0 5684.65560963 0 29770.18902199 0 5349.98771542 0 10828.86073211 0 1302
0.03450000 0.03451200 53908.69962124 0 2682.49137175 0 40241.30480393 0 4921.15689003 0 21821.36285757 0 1339
0.03550000 0.03553350 51100.44784911 0 1843.78145810 0 30721.82251287 0 1151.14380071 0 1575.26479344 0 1365
0.03650000 0.03647120 48782.96288791 0 -175.98025565 0 31296.55698475 0 102.89253294 0 7984.49274919 0 1308
0.03750000 0.03744890 49356.79810772 0 1189.49690100 0 28118.26299056 0 1282.99663378 0 -2231.78624004 0 1579
0.03850000 0.03847530 47226.91960722 0 -1309.37844105 0 18450.17929683 0 4088.25839281 0 -4826.85907105 0 1662
0.03950000 0.03950240 47308.18951200 0 1079.62516043 0 22221.41761708 0 3041.98986342 0 -10569.99978643 0 1683
0.04050000 0.04050350 46851.81909232 0 1250.32006211 0 17440.31923516 0 -1906.54925178 0 -10482.37891398 0 1822
0.04150000 0.04152450 44539.50483045 0 3316.57647948 0 17185.26887008 0 2211.81160369 0 -6300.28356886 0 1887
0.04250000 0.04250150 40878.98691990 0 3543.07559171 0 16806.57134695 0 -3270.25375782 0 -6905.34531641 0 1920
0.04350000 0.04349210 41041.86394899 0 1052.98594227 0 16532.63668863 0 2100.54040210 0 -957.58541545 0 2005
0.04450000 0.04448520 37937.19621710 0 1153.75163168 0 16477.66990656 0 2881.67570270 0 -2902.34725939 0 2151
0.04550000 0.04548030 39541.23707641 0 309.48996064 0 17054.54010207 0 4277.21373160 0 -82.84123535 0 2274
0.04650000 0.04648670 37874.13616649 0 -356.24095110 0 15628.77596336 0 5514.73069253 0 -1287.77391035 0 2311
0.04750000 0.04749250 38229.67794912 0 538.03711943 0 13827.23687070 0 4799.35319871 0 1658.97391943 0 2568
0.04850000 0.04851840 37563.78179981 0 623.23338352 0 10629.03568407 0 3748.04885779 0 1789.42167117 0 2493
0.04950000 0.04949480 36541.66942884 0 1684.45647464 0 10693.30972495 0 1395.86400777 0 656.81257945 0 2644
0.05050000 0.05050630 35654.22005363 0 1302.15070263 0 10798.67958490 0 2115.58039278 0 5011.45303735 0 2829
0.05150000 0.05149060 34383.23967548 0 654.94887956 0 8243.78083960 0 -606.11836872 0 2799.47282390 0 2784
0.05250000 0.05249300 35321.83401152 0 -833.15928031 0 9188.28775792 0 1605.82812278 0 6592.07962119 0 3055
0.05350000 0.05348950 36633.73035833 0 -2175.26824816 0 9224.38148742 0 3035.52648925 0 1303.44337746 0 3009
0.05450000 0.05448610 38999.66252419 0 -1846.29936387 0 7924.59132144 0 2106.28437462 0 5836.21330343 0 3336
0.05550000 0.05550870 40472.74980248 0 -548.82926820 0 7141.42146306 0 -1466.27544395 0 4115.42704563 0 3349
0.05650000 0.05647670 39920.94625810 0 2003.01651636 0 10571.09012955 0 -1984.42448005 0 5900.71215733 0 3324
0.05750000 0.05747970 38809.02108779 0 2336.02079426 0 12489.71184022 0 -2780.25131115 0 7489.49945360 0 3639
0.05850000 0.05849280 36691.28249007 0 1085.58158126 0 13399.19289086 0 -709.43343772 0 4306.82160563 0 3846
0.05950000 0.05951020 36697.46484797 0 1234.98781451 0 16215.65033802 0 716.52404020 0 10244.70659492 0 3787
0.06050000 0.06049470 34963.93169224 0 851.40960084 0 15574.14640080 0 494.68867396 0 5931.83751920 0 3930
0.06150000 0.06148310 34532.29070417 0 832.75349282 0 17259.90679093 0 2975.83863387 0 11307.64500935 0 4083
0.06250000 0.06249100 33313.24213239 0 1092.05169982 0 15087.76344367 0 2977.05262415 0 9491.26825773 0 4303
0.06350000 0.06350600 32375.77186143 0 870.84356189 0 14730.31075043 0 3538.03978018 0 13574.65944877 0 4470
0.06450000 0.06451750 31568.69313894 0 480.61200704 0 12186.10186397 0 4007.46059536 0 9879.34048356 0 4479
0.06550000 0.06550280 31159.64585884 0 -117.30181070 0 11868.55348082 0 1120.45120389 0 11041.29779028 0 4636
0.06650000 0.06648880 31339.15905102 0 27.12796166 0 9536.53435822 0 937.07010380 0 8487.93901413 0 4653
0.06750000 0.06749660 31140.19953308 0 153.26177646 0 8760.68216347 0 -2216.45399244 0 7546.78180973 0 5220
0.06850000 0.06852730 31489.55895780 0 666.63016380 0 10132.26636566 0 -2169.70412605 0 5777.14368384 0 5029
0.06950000 0.06949320 30532.64236107 0 573.95661884 0 10546.30449469 0 -1669.38276201 0 5366.06184596 0 5040
0.07050000 0.07048030 30811.97253173 0 556.16379280 0 12184.75298589 0 -867.98843660 0 6175.78212137 0 5475
0.07150000 0.07148790 30284.33638642 0 854.36926418 0 12713.17597675 0 289.13988656 0 3405.87220889 0 5509
0.07250000 0.07249820 29976.90458893 0 608.82624148 0 12744.08776626 0 2311.13399355 0 5479.55869639 0 5916
0.07350000 0.07351270 29051.68662726 0 933.18983117 0 14008.09894096 0 1862.71071393 0 4509.59170416 0 5721
0.07450000 0.07449140 28348.35911102 0 577.42211147 0 11992.08823236 0 2800.69805483 0 7362.26652798 0 6028
0.07550000 0.07549160 27743.05006916 0 279.29195245 0 11155.96366838 0 2608.14570781 0 7414.72664494 0 6183
0.07650000 0.07648840 27220.69702969 0 482.29922872 0 10688.46500448 0 957.67983691 0 4049.21961282 0 6330
0.07750000 0.07749960 27145.15985678 0 626.74608687 0 10708.52956604 0 -292.17149006 0 5879.11886728 0 6583
0.07850000 0.07848650 26309.75469445 0 630.95683464 0 10746.47800290 0 -1028.18569456 0 4568.15549447 0 6549
0.07950000 0.07947320 25907.78902431 0 439.94333270 0 10502.29734708 0 -869.28673176 0 5151.11812268 0 6828
0.08050000 0.08048110 25661.16914727 0 48.89188479 0 10779.36814694 0 171.09394478 0 1849.16572980 0 7147
0.08150000 0.08149960 25838.09698978 0 304.27542277 0 10427.99664574 0 872.48582096 0 1644.33859218 0 7386
0.08250000 0.08250610 25487.50109348 0 514.42163631 0 10152.46581503 0 -76.15214891 0 1403.58633483 0 7227
0.08350000 0.08350160 24542.49958652 0 634.33577425 0 9379.06408213 0 32.50009346 0 1463.71257559 0 7798
0.08450000 0.08449610 24658.27828905 0 400.62803270 0 10085.70759033 0 1195.06102312 0 2238.91281260 0 7371
0.08550000 0.08548940 23965.06735847 0 507.11633740 0 9944.32268544 0 -945.35895965 0 -457.85980590 0 8256
0.08650000 0.08650700 23444.06319709 0 734.23818168 0 10223.88890977 0 420.77802320 0 959.65706738 0 8037
0.08750000 0.08749060 22832.23457780 0 782.22564372 0 10073.99483227 0 1451.25793458 0 1260.84131119 0 8155
0.08850000 0.08849210 21745.82568465 0 626.11211417 0 8510.98234813 0 1338.23319148 0 3053.74758409 0 8718
0.08950000 0.08949900 21345.77092514 0 683.53610250 0 8776.04813302 0 2506.22672763 0 2500.66260552 0 8571
0.09050000 0.09049190 20328.04240795 0 675.96102797 0 7351.10456180 0 2793.65016682 0 2935.65330751 0 8932
0.09150000 0.09150830 19951.14338894 0 261.64975113 0 6603.29779062 0 1581.55955785 0 3224.72912236 0 9285
0.09250000 0.09250820 19739.93156171 0 52.22923400 0 6016.63698832 0 339.05849239 0 3923.87511652 0 9204
0.09350000 0.09350330 20032.30088722 0 -126.11223275 0 6329.38561361 0 -195.64577410 0 4508.60252690 0 9349
0.09450000 0.09448040 19831.20564564 0 -89.44950151 0 5961.47911518 0 -476.34393196 0 4313.49855216 0 9564
0.09550000 0.09549270 20280.60686187 0 163.77740522 0 6484.85505387 0 -378.39402556 0 3496.04470905 0 10155
0.09650000 0.09649430 20212.82573796 0 53.40972714 0 5934.76008839 0 242.77445042 0 1811.44210595 0 9913
0.09750000 0.09749140 19772.41704232 0 412.32842605 0 6686.55729058 0 557.86675139 0 1991.14638919 0 10476
0.09850000 0.09850240 19380.00592530 0 326.78819805 0 4906.58900668 0 780.19558220 0 1216.00235543 0 10575
0.09950000 0.09950330 18990.29256446 0 449.60129981 0 5571.45101612 0 176.14212102 0 1482.72051597 0 10882
0.10050000 0.10051200 18630.36692805 0 734.31686624 0 5449.62484349 0 -41.32243059 0 1707.35368018 0 10875
0.10150000 0.10150300 17880.50311779 0 853.47900464 0 5805.75113995 0 -313.27693587 0 2607.63987853 0 11118
0.10250000 0.10250800 17578.80405217 0 630.31274535 0 6583.12082256 0 14.91004876 0 4086.57229520 0 11575
0.10350000 0.10349800 16995.07705971 0 520.68942316 0 7211.84413989 0 -63.67794917 0 3862.70349525 0 11364
0.10450000 0.10450100 16986.19694563 0 41.98810193 0 7224.86081344 0 723.62700739 0 4570.66215958 0 12093
0.10550000 0.10551000 17145.92659252 0 -116.69144337 0 7424.75330539 0 223.39781669 0 3646.98416707 0 12067
0.10650000 0.10649700 17060.38524045 0 -26.32144497 0 6198.58940170 0 964.11398539 0 4061.06725870 0 12054
0.10750000 0.10749900 17058.02470380 0 137.41358299 0 6117.16212781 0 -105.00049217 0 2791.54816514 0 12807
0.10850000 0.10850100 16811.74204628 0 255.68546185 0 6186.56190542 0 428.31937578 0 2776.30584275 0 12736
0.10950000 0.10950300 16762.05837005 0 371.81374862 0 5568.68581604 0 66.40425660 0 2531.28213811 0 12933
0.11050000 0.11050200 16463.28187362 0 213.90171496 0 6247.98082101 0 -216.57361763 0 1912.34942756 0 13428
0.11150000 0.11150900 16188.89758928 0 293.77777905 0 6262.07659703 0 -512.40169138 0 2161.18371279 0 13453
0.11250000 0.11250000 16304.90110482 0 99.67512148 0 7382.29736758 0 7.83448627 0 1763.82670945 0 13668
0.11350000 0.11349100 16010.05883615 0 51.92438755 0 6948.50941522 0 75.97173647 0 2228.88615215 0 13791
0.11450000 0.11448600 16132.01989658 0 -32.64599711 0 7333.45674015 0 764.72619866 0 1772.59441702 0 14205
0.11550000 0.11549300 16238.01923298 0 -86.46589559 0 6945.54188343 0 444.63180812 0 1541.61028515 0 14776
0.11650000 0.11649800 16073.00648024 0 212.20887296 0 6357.39731523 0 641.45897461 0 1130.49472532 0 14553
0.11750000 0.11747300 15941.15364717 0 169.82037905 0 5687.28592190 0 234.94421312 0 1189.85660183 0 14568
0.11850000 0.11849100 15670.70359058 0 256.88821148 0 5730.29265160 0 240.95009281 0 1749.73093344 0 16015
0.11950000 0.11950300 15676.54872896 0 273.32991130 0 5999.49499595 0 277.53953500 0 1019.00995137 0 15270
0.12050000 0.12050700 15433.86307968 0 270.06899853 0 5671.85250845 0 464.66826805 0 1634.10960002 0 15999
0.12150000 0.12150000 15023.91654752 0 355.48895156 0 5567.06716233 0 382.33387364 0 1447.17757836 0 15670
0.12250000 0.12250700 14936.80150436 0 259.93105563 0 6054.99008861 0 508.08190930 0 2510.41949036 0 16887
0.12350000 0.12352200 14540.45615958 0 228.00198723 0 5732.73187281 0 578.27415279 0 1510.22638831 0 16407
0.12450000 0.12449800 14396.68823673 0 374.32266186 0 4886.06357845 0 351.81887910 0 1762.23053705 0 16306
0.12550000 0.12549900 14060.48037337 0 229.05073995 0 5125.01733169 0 176.92334625 0 1372.48345425 0 17523
0.12650000 0.12650100 13869.61412396 0 168.98295057 0 4272.80739652 0 265.42211352 0 1588.62992716 0 17154
0.12750000 0.12750600 13808.68979699 0 -31.07241841 0 4231.61041159 0 458.02167127 0 721.83861986 0 18007
0.12850000 0.12850300 13830.94628544 0 51.58053604 0 3914.09575039 0 334.21939225 0 46.42287586 0 17496
0.12950000 0.12949900 13784.74721094 0 205.37230918 0 3499.13588800 0 362.19399972 0 585.80651285 0 18405
0.13050000 0.13049000 13445.72918489 0 227.86147910 0 3641.94835554 0 -137.39784608 0 389.42335205 0 18100
0.13150000 0.13148800 12945.74504038 0 287.35599529 0 3601.38084705 0 107.64519247 0 705.28114134 0 19059
0.13250000 0.13249300 12945.07060133 0 225.98091823 0 3893.01953027 0 82.63429497 0 464.62442951 0 18957
0.13350000 0.13349100 12800.40342642 0 296.30130514 0 3906.30597943 0 -337.46119592 0 319.34126694 0 19468
0.13450000 0.13450700 12655.17421898 0 144.18944725 0 3903.97916473 0 -354.44694324 0 295.99893163 0 19953
0.13550000 0.13551000 12632.91773053 0 139.98656794 0 4557.49935758 0 -435.90793909 0 500.07856598 0 19956
0.13650000 0.13649900 12501.28971047 0 112.95280294 0 4089.60727090 0 39.20615328 0 111.27232565 0 19723
0.13750000 0.13749600 12443.84998524 0 228.52917375 0 4195.17946257 0 127.08904529 0 86.54806474 0 20946
0.13850000 0.13851100 12209.25760448 0 199.44736218 0 3943.34392359 0 387.70128436 0 128.78076323 0 20955
0.13950000 0.13949800 11972.75431310 0 189.50275848 0 3442.75278394 0 676.65345205 0 -143.78815602 0 20506
0.14050000 0.14048300 11820.10627617 0 196.34494258 0 3425.50962571 0 657.70733525 0 84.91670910 0 21447
0.14150000 0.14148400 11638.00773433 0 71.92364092 0 2874.34679842 0 256.16431357 0 -615.66055712 0 21771
0.14250000 0.14249400 11539.42722742 0 153.24828768 0 3053.70262149 0 7.81418565 0 64.88744319 0 22470
0.14350000 0.14350900 11410.83418306 0 243.15213629 0 3410.06497161 0 -218.26645963 0 218.76554453 0 22519
0.14450000 0.14449900 11145.64475101 0 125.14890898 0 3094.05655761 0 36.42566591 0 211.30962090 0 22218
0.14550000 0.14550500 11158.66142456 0 91.00430832 0 3369.67731353 0 191.26529251 0 614.20826505 0 23559
0.14650000 0.14650700 11238.52624800 0 -139.68419444 0 2947.90561681 0 647.46597837 0 471.75999459 0 23044
0.14750000 0.14750500 11337.99476632 0 -181.10599238 0 2981.35779338 0 767.79489631 0 885.70595028 0 23649
0.14850000 0.14849900 11404.76423166 0 -33.12743418 0 2592.38631549 0 528.49942729 0 716.53640491 0 23640
0.14950000 0.14949500 11303.48596858 0 126.24037616 0 2545.95118732 0 138.62644921 0 538.18886822 0 24457
0.15050000 0.15050000 11098.20920493 0 337.02618274 0 2578.92001591 0 -43.15578073 0 699.23142311 0 24591
0.15150000 0.15149900 10925.28303408 0 485.88499630 0 2766.87493678 0 -187.79979989 0 1043.97094038 0 25020
0.15250000 0.15250500 10369.57898389 0 469.20274655 0 2837.84840550 0 -208.88051627 0 911.25032907 0 25297
0.15350000 0.15350100 10114.00030822 0 412.42734378 0 3103.63359203 0 61.10912326 0 1281.56907114 0 25452
0.15450000 0.15450400 9847.34959158 0 270.88057351 0 3238.15045933 0 84.94975661 0 1352.55378051 0 26061
0.15550000 0.15549900 9644.25351418 0 172.16180660 0 3174.06750951 0 368.44155340 0 1678.00434112 0 26128
0.15650000 0.15649500 9645.86092723 0 85.90386305 0 3333.41497428 0 93.26491559 0 1674.39609224 0 26331
0.15750000 0.15749700 9544.74003325 0 33.00142648 0 3099.63192037 0 216.04418298 0 1880.05503801 0 27345
0.15850000 0.15849900 9547.01064470 0 135.02382065 0 3465.51510167 0 -55.99901103 0 1934.56095341 0 26980
0.15950000 0.15949700 9462.86313333 0 64.21075602 0 3195.80692803 0 32.39971445 0 1665.25744319 0 27777
0.16050000 0.16050000 9474.15998731 0 168.84918683 0 3448.33938735 0 -67.96985443 0 1976.82580016 0 28224
0.16150000 0.16150500 9411.22358387 0 192.85359646 0 3299.63681883 0 -28.41962484 0 1730.88036216 0 28075
0.16250000 0.16249700 9113.40254275 0 104.88707400 0 3408.67113092 0 142.75401615 0 1774.97743498 0 28590
0.16350000 0.16349900 9179.10414628 0 101.58322194 0 3235.71123812 0 345.82986039 0 1959.29038501 0 29163
0.16450000 0.16449100 9017.31746031 0 -6.54229478 0 2775.74381021 0 509.53420138 0 1487.54275514 0 28996
0.16550000 0.16550500 9079.86044097 0 4.81323540 0 2698.55426164 0 219.65468000 0 1144.32072572 0 30777
0.16650000 0.16650700 8945.21992652 0 58.54962709 0 2116.98547412 0 -96.30438754 0 596.80661365 0 29211
0.16750000 0.16749900 8901.01044719 0 192.89631093 0 2154.46180366 0 -173.34207492 0 581.61824638 0 30922
0.16850000 0.16850800 8712.01014580 0 196.30560030 0 2059.62443344 0 -360.08637771 0 294.39039451 0 30867
0.16950000 0.16949900 8600.14318973 0 197.96359628 0 2107.07122018 0 -234.35295490 0 299.54872913 0 30852
0.17050000 0.17049200 8510.43155624 0 106.20211773 0 2611.04579570 0 -52.12379669 0 -198.06138995 0 31257
0.17150000 0.17149500 8411.74988347 0 79.96520245 0 2507.85662199 0 -72.66608590 0 -60.30451748 0 32608
0.17250000 0.17250900 8484.31952459 0 -28.68771436 0 2803.51945817 0 78.15894229 0 218.27095589 0 32361
0.17350000 0.17350400 8472.31450961 0 -15.45949176 0 2831.02533050 0 30.96776795 0 411.61239660 0 32508
0.17450000 0.17449800 8578.10027364 0 -36.68476291 0 2753.39739656 0 267.03964316 0 487.60369180 0 32791
0.17550000 0.17549800 8610.68692011 0 35.41782917 0 2697.74493479 0 190.25925427 0 355.56651205 0 33633
0.17650000 0.17650100 8512.74713029 0 65.82300255 0 2524.05439969 0 255.26168932 0 669.74944437 0 33984
0.17750000 0.17750300 8499.29207137 0 61.47185906 0 2532.00153976 0 220.63374068 0 557.46770829 0 34069
