### header ###
fiducial parameters:
Omega_m = 0.31
Omega_nu = 0
Omega_de = 0.69
Omega_k = 0
H_0 = 100
w_de = -1
zeff = 0
beta = 0
fgrowth = 0
b_1 = 2
gamma = 0.55
Lx = 3500 Ly = 3500 Lz = 3500
nx = 700 ny = 700 nz = 700
xoffset = 857.220397 yoffset = 15.9954215 zoffset = 262.898189
bins = 400 dk = 0.001
kx_ny = 0.628318531 ky_ny = 0.628318531 kz_ny = 0.628318531
############################
A(data) = 3.07950529 (not used)
A(ran) = 3.0794676 (used)
Ngal = 187608
weighted Ngal = 0
Nran = 9360983
weighted Nran = 0
SN(data) = 3445.45964
SN(ran) = 69.1532692
SN(data+ran) = 3514.61291
############################
13 columns: k_central k_mean P_0(k) sigma^{lin}_{P_0(k)} P^img_1(k) sigma^{lin}_{P_1(k)} P_2(k) sigma^{lin}_{P_2(k)} P^img_3(k) sigma^{lin}_{P_3(k)} P_4(k) sigma^{lin}_{P_4(k)} N_modes
### header ###
0.00050000 0 0 0 0 0 0 0 0 0 0 0 0
0.00150000 0.00179520 25993.44278288 0 -47632.25747257 0 -42449.98026607 0 123457.19104355 0 -9982.48469467 0 3
0.00250000 0.00253879 49187.73872073 0 -55555.45495333 0 -12323.35020940 0 -60972.43694710 0 572.60212043 0 6
0.00350000 0.00331552 73349.40506049 0 -45924.80262654 0 -51440.25272071 0 -5311.09506389 0 2476.94483248 0 7
0.00450000 0.00420575 93625.74047508 0 -30324.24069652 0 -48433.71586969 0 -29473.66065570 0 14952.98804141 0 24
0.00550000 0.00557378 94079.63795160 0 5129.53607328 0 -68370.92085173 0 -36848.76400681 0 32220.53847483 0 45
0.00650000 0.00659388 87062.32451325 0 10863.22340140 0 -34415.61274958 0 -33113.60817541 0 -2770.21341005 0 40
0.00750000 0.00754703 71152.86950114 0 7491.89371221 0 -63090.06313831 0 -8846.86423262 0 28906.34501331 0 57
0.00850000 0.00846663 68605.51323249 0 345.29480541 0 -54057.52583692 0 -14971.31030210 0 -6352.35026305 0 75
0.00950000 0.00948925 71106.55802013 0 -995.86320338 0 -51064.70257979 0 -26603.13567853 0 11524.47716195 0 112
0.01050000 0.01054430 73975.62171271 0 -2702.07258532 0 -23122.13096016 0 -29986.57154856 0 -10871.68761140 0 105
0.01150000 0.01145670 76183.62273580 0 2626.79394737 0 -14082.28723579 0 -36877.65247919 0 8865.82721040 0 144
0.01250000 0.01249090 74811.58890757 0 4113.40372850 0 5448.43333452 0 -25815.84050133 0 -4711.01292461 0 169
0.01350000 0.01339930 74894.65731648 0 965.09866640 0 15582.23966933 0 -11578.76950498 0 -14958.27114725 0 180
0.01450000 0.01448870 71518.52786942 0 10993.41261816 0 32006.85370444 0 -17017.78317418 0 -12003.66610261 0 267
0.01550000 0.01550050 62466.31942925 0 10406.39211504 0 20643.23025445 0 -3679.59329484 0 -33656.30679270 0 238
0.01650000 0.01653350 57188.72150454 0 4740.28357912 0 29302.91517110 0 3255.65215252 0 -3586.90288891 0 315
0.01750000 0.01747870 55744.97232465 0 -1790.90543706 0 7622.12789157 0 17412.33001484 0 -16194.06828862 0 297
0.01850000 0.01844180 60992.78252492 0 -9701.47966705 0 6498.41127865 0 22020.65959503 0 -22274.81070805 0 388
0.01950000 0.01947590 67701.09047467 0 -7661.49265043 0 996.01157997 0 7727.66636129 0 -26696.65789261 0 399
0.02050000 0.02045430 69175.75144407 0 -2394.15743984 0 -5873.47606061 0 -1175.34492173 0 -17087.92483475 0 462
0.02150000 0.02154770 72035.48539654 0 -1160.25996845 0 -8806.74635016 0 -1869.81480520 0 -14422.42932691 0 571
0.02250000 0.02255340 68438.13994310 0 -2218.48855022 0 -2599.67025716 0 -2625.74856686 0 -7755.91411658 0 510
0.02350000 0.02348930 75535.37440814 0 1722.03397004 0 -2296.40874109 0 -5373.36826894 0 -16136.85337640 0 555
0.02450000 0.02439640 73259.47985464 0 -188.24942592 0 5401.29004535 0 6482.52823917 0 -13537.11567533 0 592
0.02550000 0.02547300 67927.70199341 0 4271.55968428 0 -7568.45378433 0 -5034.19287378 0 -4034.85406119 0 837
0.02650000 0.02652900 65201.95659765 0 5461.92211539 0 -29.78255374 0 1840.25189377 0 -11325.63005052 0 723
0.02750000 0.02749970 60719.40989915 0 3782.51269293 0 1673.68793124 0 -6050.81980719 0 -3222.76200848 0 826
0.02850000 0.02848090 59084.45725032 0 6142.09389113 0 4350.50277437 0 375.89972516 0 -5983.75808493 0 831
0.02950000 0.02946900 56596.56402403 0 4911.70350276 0 5984.16274836 0 -9120.24809905 0 3612.62149778 0 996
0.03050000 0.03053250 51589.97818845 0 4840.04435435 0 17112.54185985 0 -3185.96011799 0 5273.65245630 0 1041
0.03150000 0.03150510 50284.93863858 0 4110.49239996 0 28588.00978461 0 -3023.00440434 0 9592.45659561 0 1036
0.03250000 0.03246190 46314.74080040 0 3849.03486396 0 30681.80579627 0 -710.22028327 0 14011.58354269 0 1059
0.03350000 0.03345080 47709.93036913 0 1888.78902363 0 32954.89018709 0 -73.34142420 0 7273.80260672 0 1302
0.03450000 0.03451200 43810.32381753 0 -189.98835459 0 33711.16116827 0 4852.19549779 0 15792.55224451 0 1339
0.03550000 0.03553350 46292.03468592 0 -730.87385492 0 31834.30971572 0 7046.26935463 0 9811.87409788 0 1365
0.03650000 0.03647120 47049.99176471 0 -1508.97867608 0 27400.32262837 0 8963.72203762 0 7905.13375503 0 1308
0.03750000 0.03744890 45407.50787990 0 290.72931457 0 24067.58209314 0 7422.02182726 0 1971.17175284 0 1579
0.03850000 0.03847530 45204.72654071 0 967.45470679 0 15599.21305193 0 6967.79837187 0 3384.75102616 0 1662
0.03950000 0.03950240 43153.42018881 0 347.55979654 0 15767.82281290 0 5652.13640706 0 -336.12243442 0 1683
0.04050000 0.04050350 43982.53058673 0 538.87229978 0 11032.85606158 0 2085.75894639 0 2383.56874686 0 1822
0.04150000 0.04152450 42992.11685082 0 300.14785582 0 11266.72904069 0 1559.93254584 0 -3487.07466977 0 1887
0.04250000 0.04250150 43817.85505352 0 -20.49271794 0 12758.13857967 0 -2833.67812408 0 -5797.34313321 0 1920
0.04350000 0.04349210 42714.92240380 0 187.57049062 0 14169.62709197 0 -5399.27796887 0 -5621.97774115 0 2005
0.04450000 0.04448520 44528.48899273 0 475.16366364 0 14493.91986555 0 -3224.56051260 0 -11203.82635920 0 2151
0.04550000 0.04548030 43609.67820198 0 256.13846008 0 14688.60793622 0 -3231.55219735 0 -13879.84311612 0 2274
0.04650000 0.04648670 44691.81564785 0 736.05017458 0 18540.55412871 0 -829.79495355 0 -12482.40541724 0 2311
0.04750000 0.04749250 43834.60362311 0 1131.74243755 0 17710.20725921 0 744.61442637 0 -12216.67643396 0 2568
0.04850000 0.04851840 42847.44967591 0 1515.00366487 0 18816.73691717 0 3062.85251118 0 -7619.89100208 0 2493
0.04950000 0.04949480 41543.42178461 0 1387.87190510 0 18628.79323695 0 4536.05219598 0 -3819.06728911 0 2644
0.05050000 0.05050630 39568.32704467 0 2463.55721746 0 17645.01148497 0 4781.72785836 0 1872.29898901 0 2829
0.05150000 0.05149060 38109.29057979 0 1741.76131207 0 22000.53883022 0 5436.84422361 0 6204.69307505 0 2784
0.05250000 0.05249300 35623.08345111 0 1438.98314398 0 18040.12035817 0 5143.10353871 0 10342.33164652 0 3055
0.05350000 0.05348950 34466.08327137 0 502.67290817 0 18302.36473972 0 5950.63188723 0 11675.10188174 0 3009
0.05450000 0.05448610 34598.94776301 0 -407.65456348 0 13575.78351385 0 4475.18407228 0 13289.48413973 0 3336
0.05550000 0.05550870 34139.09274160 0 -687.43773236 0 11373.62762914 0 2978.79492501 0 9899.71978334 0 3349
0.05650000 0.05647670 35176.82961709 0 268.48743897 0 10062.72045959 0 2208.01226374 0 10251.10252519 0 3324
0.05750000 0.05747970 34950.21809835 0 178.79603866 0 8473.32616818 0 -653.58201643 0 9715.50799916 0 3639
0.05850000 0.05849280 34109.86704970 0 1161.05805465 0 7769.15560314 0 -718.94078010 0 8420.98969838 0 3846
0.05950000 0.05951020 33387.54283373 0 845.88482100 0 8037.06527266 0 -657.40945800 0 9972.49175617 0 3787
0.06050000 0.06049470 33298.29206692 0 782.05478583 0 8489.16424506 0 -667.47995699 0 7196.17467277 0 3930
0.06150000 0.06148310 32270.44696408 0 988.67031098 0 10259.49929129 0 -1304.94962466 0 10294.23290204 0 4083
0.06250000 0.06249100 31938.62295450 0 712.71345960 0 12579.97426559 0 -187.60196444 0 8640.87930798 0 4303
0.06350000 0.06350600 31521.03277985 0 844.18411055 0 12445.31126983 0 -1305.73647021 0 9988.84690299 0 4470
0.06450000 0.06451750 31240.35373109 0 813.83997390 0 14598.57032386 0 602.80012862 0 7881.93305192 0 4479
0.06550000 0.06550280 30990.92369137 0 518.23558911 0 12549.84932163 0 -1913.38356743 0 5731.72021424 0 4636
0.06650000 0.06648880 30561.19361393 0 333.05261270 0 15918.55993920 0 794.44985139 0 6074.62750544 0 4653
0.06750000 0.06749660 30383.14170635 0 96.53909233 0 13921.20871081 0 329.06555389 0 5636.54562450 0 5220
0.06850000 0.06852730 30439.45736651 0 -256.93654628 0 14217.96189011 0 1937.18002503 0 6620.43978298 0 5029
0.06950000 0.06949320 30388.76203171 0 -278.54107698 0 12623.36317741 0 2002.91535050 0 4913.06362150 0 5040
0.07050000 0.07048030 30264.55284114 0 536.02616702 0 13399.19289086 0 2325.94917121 0 7889.70034158 0 5475
0.07150000 0.07148790 29870.23081349 0 835.42539550 0 12845.70324887 0 1693.38155132 0 6821.45634001 0 5509
0.07250000 0.07249820 29116.88240150 0 989.48638222 0 14621.05162532 0 566.95256937 0 8876.71940096 0 5916
0.07350000 0.07351270 28579.12967053 0 702.43388451 0 14231.45067099 0 -120.03778509 0 7594.28479971 0 5721
0.07450000 0.07449140 28157.83008113 0 446.16728101 0 14279.33584310 0 -464.72896756 0 7948.92733028 0 6028
0.07550000 0.07549160 28291.81863785 0 242.62045351 0 15213.88354487 0 431.81297003 0 8874.54995537 0 6183
0.07650000 0.07648840 27625.69767553 0 4.13717770 0 12956.64847158 0 802.65665049 0 5558.61419298 0 6330
0.07750000 0.07749960 27707.86683237 0 97.84829092 0 12592.56379441 0 2389.16659092 0 8560.34004549 0 6583
0.07850000 0.07848650 27304.32747113 0 251.43424775 0 10724.14282990 0 2186.91356232 0 4765.05797333 0 6549
0.07950000 0.07947320 26886.84970298 0 759.81965462 0 9994.46722835 0 1913.14751376 0 6276.48711127 0 6828
0.08050000 0.08048110 25382.28860264 0 961.12509636 0 9225.92145657 0 45.83116801 0 4213.10830048 0 7147
0.08150000 0.08149960 24823.29104178 0 931.28566493 0 8869.13196172 0 -575.55054312 0 3687.66408206 0 7386
0.08250000 0.08250610 23939.77589433 0 604.07481841 0 10613.42242020 0 -1739.42325672 0 4302.21293883 0 7227
0.08350000 0.08350160 24068.25653218 0 464.98975066 0 11533.02005650 0 -871.55172288 0 3814.09892148 0 7798
0.08450000 0.08449610 23925.61267441 0 156.19895849 0 12025.81018455 0 -318.65109099 0 4933.06073915 0 7371
0.08550000 0.08548940 23816.46595581 0 344.75413011 0 12646.40651141 0 665.74102832 0 4205.73443360 0 8256
0.08650000 0.08650700 23397.07727704 0 581.90713111 0 12985.19972444 0 1522.20892199 0 5728.07824340 0 8037
0.08750000 0.08749060 23134.27086295 0 721.82513108 0 12532.87593903 0 2506.31665284 0 5790.05919153 0 8155
0.08850000 0.08849210 22324.71919730 0 533.92191720 0 11668.58230432 0 1585.62867342 0 6398.65050341 0 8718
0.08950000 0.08949900 21575.52982608 0 918.71074896 0 10656.85629463 0 1134.93478236 0 5197.55325085 0 8571
0.09050000 0.09049190 20789.47112046 0 829.47796720 0 9920.41382133 0 520.15661632 0 5275.11374090 0 8932
0.09150000 0.09150830 19718.12469929 0 682.78522703 0 8550.22345983 0 133.85254484 0 4434.97626461 0 9285
0.09250000 0.09250820 19583.46170353 0 240.07219799 0 8198.40233260 0 893.81495572 0 3067.16892106 0 9204
0.09350000 0.09350330 19376.85854310 0 -12.50825891 0 6362.86027148 0 1197.34287521 0 1633.87354635 0 9349
0.09450000 0.09448040 18892.16168358 0 148.38670623 0 5887.93153745 0 1757.58814830 0 883.93217560 0 9564
0.09550000 0.09549270 18946.00440058 0 439.15199089 0 5555.53425468 0 1301.48750424 0 2014.78547767 0 10155
0.09650000 0.09649430 17685.92745363 0 773.93678787 0 4868.28086899 0 620.04328684 0 1692.47105861 0 9913
0.09750000 0.09749140 17599.82406903 0 777.79907546 0 4918.14439563 0 802.91518545 0 4075.01690625 0 10476
0.09850000 0.09850240 16630.76756952 0 291.87586095 0 4858.73755652 0 355.06068277 0 3704.25528254 0 10575
0.09950000 0.09950330 16787.23742769 0 42.03890967 0 5251.26108004 0 459.90448027 0 3955.34893857 0 10882
0.10050000 0.10051200 16499.81398850 0 16.60154188 0 5329.86695061 0 -35.96963271 0 3930.07995573 0 10875
0.10150000 0.10150300 16669.54781454 0 226.74640655 0 5176.29718032 0 139.55267883 0 3144.42591354 0 11118
0.10250000 0.10250800 16466.76647535 0 325.79452453 0 6107.64129664 0 -752.65936010 0 4376.04153283 0 11575
0.10350000 0.10349800 16113.02319685 0 479.26650115 0 6110.11423980 0 -17.22258783 0 2509.07061227 0 11364
0.10450000 0.10450100 15899.78805248 0 524.25383351 0 7355.97176357 0 -743.03174275 0 4096.40786459 0 12093
0.10550000 0.10551000 15371.92709415 0 246.46138386 0 6806.34890542 0 281.19162243 0 2927.93098046 0 12067
0.10650000 0.10649700 15426.66906321 0 68.11283551 0 7195.02812640 0 195.75705655 0 3587.79090032 0 12054
0.10750000 0.10749900 15718.70116920 0 -341.41902904 0 6647.13632847 0 692.82312813 0 2827.09110275 0 12807
0.10850000 0.10850100 15618.09734516 0 -192.11396164 0 6232.78346122 0 80.03905353 0 2391.93179100 0 12736
0.10950000 0.10950300 15965.32104624 0 -173.89623900 0 5511.83060464 0 343.79867480 0 1645.86732068 0 12933
0.11050000 0.11050200 15890.57071888 0 59.09176367 0 5495.22816351 0 -55.92673365 0 707.77993799 0 13428
0.11150000 0.11150900 15975.10041238 0 390.62834981 0 5340.16338668 0 -870.07245325 0 239.75071538 0 13453
0.11250000 0.11250000 15613.26386535 0 63.21809415 0 5325.93272285 0 63.72133808 0 -845.74094067 0 13668
0.11350000 0.11349100 15756.80697518 0 163.25921122 0 5788.47425978 0 -288.00008457 0 206.52784808 0 13791
0.11450000 0.11448600 15748.03926761 0 -6.71569306 0 5176.15105186 0 456.12424943 0 -1334.49005478 0 14205
0.11550000 0.11549300 15816.27001755 0 202.04957282 0 5860.74040333 0 -38.57746368 0 -748.94544910 0 14776
0.11650000 0.11649800 15647.21063055 0 221.98149470 0 5370.16468348 0 -500.12128045 0 -912.80828326 0 14553
0.11750000 0.11747300 15636.08238633 0 282.80353174 0 5955.37544183 0 241.38510599 0 -264.71844878 0 14568
0.11850000 0.11849100 15342.36418273 0 236.78205952 0 5947.79924324 0 293.27757009 0 410.73000552 0 16015
0.11950000 0.11950300 15109.12068006 0 329.09140739 0 5450.07446952 0 411.88554441 0 -354.95951691 0 15270
0.12050000 0.12050700 14778.30832905 0 489.61014795 0 5445.49952468 0 1046.40678939 0 1066.63996071 0 15999
0.12150000 0.12150000 14135.68032676 0 460.30577150 0 4760.96637646 0 1020.63534946 0 332.35456829 0 15670
0.12250000 0.12250700 13726.18342063 0 184.46694695 0 4360.84417304 0 787.03776630 0 702.12251848 0 16887
0.12350000 0.12352200 13668.06925635 0 92.91476932 0 4171.02330415 0 327.02425172 0 -498.61952952 0 16407
0.12450000 0.12449800 13509.91330056 0 -13.33399712 0 3936.30727623 0 -246.00950970 0 -203.39732685 0 16306
0.12550000 0.12549900 13525.98743111 0 126.28084251 0 3866.70516691 0 -821.24643867 0 -1587.80935966 0 17523
0.12650000 0.12650100 13586.01250601 0 119.72979126 0 4194.29145116 0 -682.69642589 0 -1023.26678580 0 17154
0.12750000 0.12750600 13494.85082858 0 256.92193343 0 4993.04085145 0 -600.14396285 0 -1495.04026917 0 18007
0.12850000 0.12850300 13572.07409911 0 133.55129540 0 5015.51091226 0 36.26166482 0 -1028.37453749 0 17496
0.12950000 0.12949900 13320.62074225 0 142.02899418 0 5375.11056980 0 474.35096459 0 -791.66217001 0 18405
0.13050000 0.13049000 13358.38932871 0 100.99927014 0 4792.95726844 0 1118.71901961 0 73.07884260 0 18100
0.13150000 0.13148800 13273.41000918 0 57.95881849 0 5256.78023955 0 883.58596356 0 559.41234086 0 19059
0.13250000 0.13249300 13099.40473587 0 209.41107499 0 4591.63721385 0 165.98169682 0 563.60510359 0 18957
0.13350000 0.13349100 13022.29387185 0 243.86591761 0 4982.20486415 0 64.68690998 0 772.20909985 0 19468
0.13450000 0.13450700 12926.07390160 0 151.32388827 0 4688.07075647 0 -666.91792446 0 774.71014464 0 19953
0.13550000 0.13551000 12648.87945457 0 194.60826204 0 4701.78435036 0 -60.44693653 0 786.85229556 0 19956
0.13650000 0.13649900 12718.90870862 0 126.29208316 0 4680.92170261 0 186.58918181 0 404.64768940 0 19723
0.13750000 0.13749600 12342.34690914 0 229.87130745 0 4579.12636959 0 497.96082738 0 -332.49282830 0 20946
0.13850000 0.13851100 12133.94524458 0 351.13095127 0 4184.16362485 0 800.42875351 0 34.95572602 0 20955
0.13950000 0.13949800 11764.80227458 0 242.98127840 0 3997.81611703 0 676.99966410 0 296.74081458 0 20506
0.14050000 0.14048300 11560.67205730 0 87.39695869 0 3418.90012308 0 705.63634590 0 272.49360689 0 21447
0.14150000 0.14148400 11558.64874017 0 -30.11145518 0 3564.90493543 0 379.89914869 0 364.99516989 0 21771
0.14250000 0.14249400 11520.65534070 0 72.30784636 0 3326.92911880 0 -132.52952025 0 105.60996025 0 22470
0.14350000 0.14350900 11384.64346686 0 318.48585342 0 3675.64782643 0 -782.73259707 0 83.07178110 0 22519
0.14450000 0.14449900 11261.33352834 0 437.86268825 0 4046.79163227 0 -980.96821710 0 389.97301988 0 22218
0.14550000 0.14550500 10834.48105748 0 436.85552594 0 4453.61326352 0 -99.03642770 0 522.51378077 0 23559
0.14650000 0.14650700 10631.31753617 0 160.38385276 0 4137.72849668 0 -30.61548596 0 -21.20807295 0 23044
0.14750000 0.14750500 10470.59871201 0 79.05707028 0 4113.62854151 0 868.96862134 0 -316.29055433 0 23649
0.14850000 0.14849900 10426.90630262 0 -18.91396855 0 3431.88307468 0 826.60598094 0 -658.88535544 0 23640
0.14950000 0.14949500 10172.57533918 0 81.35139950 0 3035.45904535 0 639.44802220 0 -789.85354930 0 24457
0.15050000 0.15050000 10108.16641049 0 153.55965370 0 2201.77370258 0 406.90818427 0 -1164.98104176 0 24591
0.15150000 0.15149900 9789.05557689 0 290.76303652 0 1977.43279529 0 -15.03639367 0 -854.57609215 0 25020
0.15250000 0.15250500 9641.80305232 0 166.21437829 0 1870.37683773 0 284.98983831 0 -1162.77787422 0 25297
0.15350000 0.15350100 9445.73238162 0 119.95572834 0 1810.50913194 0 179.27376631 0 -696.42013636 0 25452
0.15450000 0.15450400 9445.44012470 0 -2.30496288 0 1693.96606516 0 186.18114619 0 -796.35626575 0 26061
0.15550000 0.15549900 9416.47296776 0 42.08050008 0 1898.92809059 0 1.71537950 0 -903.35602006 0 26128
0.15650000 0.15649500 9548.01106262 0 34.93020974 0 1790.62442080 0 -66.32624648 0 -279.93491767 0 26331
0.15750000 0.15749700 9343.61106972 0 137.98348398 0 1987.76295332 0 -261.47327291 0 -698.03541787 0 27345
0.15850000 0.15849900 9470.54049778 0 48.50835379 0 2218.40986567 0 -64.86001600 0 -53.81798757 0 26980
0.15950000 0.15949700 9312.17096963 0 140.11133917 0 1822.17692740 0 236.01881933 0 -682.72565158 0 27777
0.16050000 0.16050000 9177.36184541 0 183.32489684 0 2007.36664819 0 184.94242648 0 -575.01998440 0 28224
0.16150000 0.16150500 8858.20604921 0 90.02299951 0 1549.97332930 0 298.27403934 0 -741.04776790 0 28075
0.16250000 0.16249700 8959.75408791 0 37.26747825 0 1383.81403019 0 469.32751778 0 -547.25108084 0 28590
0.16350000 0.16349900 8899.75149431 0 -87.66864521 0 1182.28040323 0 418.04317288 0 -200.65460807 0 29163
0.16450000 0.16449100 8850.16898394 0 27.74563542 0 1151.24496657 0 430.70126967 0 -327.75376995 0 28996
0.16550000 0.16550500 8872.12197481 0 75.08080249 0 925.19323224 0 327.35135465 0 295.89102139 0 30777
0.16650000 0.16650700 8739.83075636 0 65.65832702 0 669.57071803 0 272.34635437 0 168.26017673 0 29211
0.16750000 0.16749900 8696.89147057 0 116.78698890 0 831.61593897 0 -132.58347537 0 526.50645991 0 30922
0.16850000 0.16850800 8720.69916882 0 62.58816808 0 771.76059789 0 -169.77316832 0 184.82102745 0 30867
0.16950000 0.16949900 8586.40711453 0 126.81589748 0 1174.81661115 0 -452.84422754 0 173.11388971 0 30852
0.17050000 0.17049200 8667.04754288 0 200.37471587 0 1392.36816540 0 -643.82625566 0 54.21984083 0 31257
0.17150000 0.17149500 8522.07687040 0 134.35387786 0 1651.68997776 0 -371.12357266 0 112.14774753 0 32608
0.17250000 0.17250900 8435.16415895 0 150.44486938 0 1917.62129275 0 -289.12527371 0 190.21991200 0 32361
0.17350000 0.17350400 8486.35408238 0 40.67294579 0 1966.99023077 0 119.79161484 0 -143.71958805 0 32508
0.17450000 0.17449800 8454.53180016 0 -27.31376962 0 2193.82656252 0 203.56031628 0 177.47189000 0 32791
0.17550000 0.17549800 8475.31576336 0 74.89195956 0 1807.15941802 0 155.86173897 0 -141.86263255 0 33633
0.17650000 0.17650100 8442.18956565 0 83.02895422 0 2100.41675494 0 101.53747249 0 444.60595462 0 33984
0.17750000 0.17750300 8401.44220675 0 95.56441551 0 1960.47065334 0 -32.20356509 0 70.32049931 0 34069
