### header ###
fiducial parameters:
Omega_m = 0.31
Omega_nu = 0
Omega_de = 0.69
Omega_k = 0
H_0 = 100
w_de = -1
zeff = 0
beta = 0
fgrowth = 0
b_1 = 2
gamma = 0.55
Lx = 3500 Ly = 3500 Lz = 3500
nx = 700 ny = 700 nz = 700
xoffset = 857.220397 yoffset = 15.9954215 zoffset = 262.898189
bins = 400 dk = 0.001
kx_ny = 0.628318531 ky_ny = 0.628318531 kz_ny = 0.628318531
############################
A(data) = 3.11396608 (not used)
A(ran) = 3.11369652 (used)
Ngal = 190367
weighted Ngal = 0
Nran = 9360983
weighted Nran = 0
SN(data) = 3446.91164
SN(ran) = 69.921922
SN(data+ran) = 3516.83357
############################
13 columns: k_central k_mean P_0(k) sigma^{lin}_{P_0(k)} P^img_1(k) sigma^{lin}_{P_1(k)} P_2(k) sigma^{lin}_{P_2(k)} P^img_3(k) sigma^{lin}_{P_3(k)} P_4(k) sigma^{lin}_{P_4(k)} N_modes
### header ###
0.00050000 0 0 0 0 0 0 0 0 0 0 0 0
0.00150000 0.00179520 116916.25638318 0 -133594.00987276 0 -97886.73394768 0 263749.50468690 0 -166508.88334324 0 3
0.00250000 0.00253879 215953.13371366 0 -151793.74747130 0 -40984.42422376 0 -130580.39141178 0 174450.40308469 0 6
0.00350000 0.00331552 247631.53560373 0 -73787.22840646 0 -83103.36732580 0 -147915.72296911 0 -29623.16131042 0 7
0.00450000 0.00420575 276052.39691197 0 1352.87975938 0 -77848.70032858 0 -160304.04413974 0 69824.44939776 0 24
0.00550000 0.00557378 198591.94865964 0 54109.45764329 0 -47419.24714122 0 -116668.96206710 0 84290.49244950 0 45
0.00650000 0.00659388 162089.05947582 0 71228.96870659 0 -22832.90901685 0 1398.06717532 0 20439.66206971 0 40
0.00750000 0.00754703 93966.66941175 0 30889.08339575 0 -892.74934203 0 -3740.36025269 0 2558.77676980 0 57
0.00850000 0.00846663 78046.98540748 0 23648.75544690 0 12184.75298589 0 26178.46389391 0 17552.72574247 0 75
0.00950000 0.00948925 75058.43359763 0 -7481.91201436 0 -2877.83140015 0 36599.67118661 0 24719.42742903 0 112
0.01050000 0.01054430 68366.53699795 0 -13794.30176406 0 -13474.73006378 0 8585.03575514 0 17842.73453133 0 105
0.01150000 0.01145670 93370.12807746 0 -18626.09548077 0 -9257.59761033 0 4518.51678084 0 21567.54896406 0 144
0.01250000 0.01249090 96578.88423512 0 -8532.39578777 0 -9991.15123638 0 -28874.19675222 0 5528.98383766 0 169
0.01350000 0.01339930 105782.72905366 0 141.41637872 0 -11605.40984721 0 -40759.72361565 0 -18015.39092656 0 180
0.01450000 0.01448870 104646.74889079 0 10201.53125547 0 18271.34054370 0 -52780.36310086 0 -914.46403111 0 267
0.01550000 0.01550050 93669.01698039 0 3381.25518379 0 15046.06062946 0 -11251.89138172 0 -57682.52329115 0 238
0.01650000 0.01653350 92140.28848098 0 5315.17542010 0 30770.60693704 0 -14337.11278786 0 -11120.02730800 0 315
0.01750000 0.01747870 94738.22767792 0 -4497.77778025 0 7129.03426596 0 7869.90555564 0 -39670.27974680 0 297
0.01850000 0.01844180 90615.49420932 0 -3790.44859235 0 11940.49364550 0 20726.52347637 0 -23588.95518501 0 388
0.01950000 0.01947590 92736.49259575 0 1772.35836336 0 3122.42796005 0 18722.65267055 0 -37863.45754830 0 399
0.02050000 0.02045430 86051.79001254 0 3148.95589578 0 -8392.89931220 0 15640.24142710 0 -24341.96637748 0 462
0.02150000 0.02154770 84258.68140793 0 6661.17590123 0 -18407.68963707 0 2692.82152977 0 -10305.06888935 0 571
0.02250000 0.02255340 73161.23656725 0 6026.01169103 0 -15283.80039242 0 -2026.39706988 0 -13841.96212316 0 510
0.02350000 0.02348930 68509.18085572 0 3281.06726382 0 -15585.83667756 0 1532.02201008 0 -1808.06991073 0 555
0.02450000 0.02439640 64187.82508870 0 4079.96279257 0 -15591.90662896 0 -1341.95384687 0 -5683.44161935 0 592
0.02550000 0.02547300 61549.08232960 0 2737.59304163 0 -22701.50580980 0 -4921.66271931 0 -6480.86462286 0 837
0.02650000 0.02652900 59562.52212591 0 2364.41467801 0 -23947.75675635 0 -9520.99977891 0 -10066.51979954 0 723
0.02750000 0.02749970 58114.05187272 0 734.76986446 0 -19294.46457324 0 -10341.05021234 0 -14815.85210249 0 826
0.02850000 0.02848090 59848.93390654 0 655.69750690 0 -14339.92295054 0 -17319.70705282 0 -10328.70797784 0 831
0.02950000 0.02946900 58679.00697846 0 2162.37522177 0 -2606.15611263 0 -17147.61269013 0 -17662.09727408 0 996
0.03050000 0.03053250 63571.27539611 0 2813.10773324 0 17303.74532878 0 -12477.57193743 0 791.17207764 0 1041
0.03150000 0.03150510 59197.42579017 0 3081.91665482 0 22117.32919131 0 -13535.87920375 0 -13835.77976526 0 1036
0.03250000 0.03246190 63182.91091335 0 2142.61415779 0 44762.06971492 0 -2089.20982616 0 23120.22004953 0 1059
0.03350000 0.03345080 60676.69542637 0 48.81837094 0 38856.11941435 0 4351.40202643 0 -4298.81826231 0 1302
0.03450000 0.03451200 65149.12553921 0 -21.07116183 0 54689.58762752 0 8527.48362340 0 25177.03432029 0 1339
0.03550000 0.03553350 62443.83812779 0 1047.23522535 0 40077.86574231 0 11997.25893169 0 3245.71541727 0 1365
0.03650000 0.03647120 62520.27455276 0 1109.51517479 0 41747.55200189 0 7175.84033560 0 13533.51866710 0 1308
0.03750000 0.03744890 59023.64532987 0 3489.15419015 0 31188.08470519 0 9587.31961822 0 7180.34783655 0 1579
0.03850000 0.03847530 54975.99940815 0 2801.66475080 0 24570.03918082 0 8050.44164703 0 7021.12401894 0 1662
0.03950000 0.03950240 49980.09219076 0 2323.20645243 0 14889.47836478 0 11269.76401638 0 1284.06449560 0 1683
0.04050000 0.04050350 48627.27987528 0 1361.40017263 0 11002.86600543 0 5039.73451459 0 608.03040341 0 1822
0.04150000 0.04152450 47693.18179954 0 1964.76458192 0 10168.60738948 0 1045.30632969 0 -914.31228233 0 1887
0.04250000 0.04250150 43481.98440968 0 2140.91681953 0 8594.26432939 0 -5239.06497400 0 -7111.68994188 0 1920
0.04350000 0.04349210 44271.41531052 0 2625.81601076 0 13989.10224123 0 -9218.60379295 0 -4787.85401301 0 2005
0.04450000 0.04448520 42229.77591825 0 305.46580768 0 20419.65371141 0 -7452.82121026 0 -1775.05611953 0 2151
0.04550000 0.04548030 42675.24290672 0 775.67122028 0 21392.53203218 0 -1208.88702352 0 -241.27382355 0 2274
0.04650000 0.04648670 43730.17797782 0 63.40131676 0 21036.54062353 0 5678.09106960 0 -712.56395894 0 2311
0.04750000 0.04749250 43253.01235429 0 22.33921964 0 19955.30242971 0 7930.62755089 0 -339.79475501 0 2568
0.04850000 0.04851840 42129.50931373 0 857.35590507 0 17293.29152360 0 7925.65918326 0 3284.45069969 0 2493
0.04950000 0.04949480 41749.91253854 0 1046.37419151 0 14445.80988043 0 5594.96645745 0 4188.65988514 0 2644
0.05050000 0.05050630 39751.99927761 0 1046.37194338 0 11845.28533381 0 3515.67088523 0 8896.31185519 0 2829
0.05150000 0.05149060 39424.33430881 0 831.58221701 0 13653.23159738 0 751.70615292 0 6307.70239835 0 2784
0.05250000 0.05249300 39342.27755847 0 -207.79129722 0 13229.90869085 0 312.42939081 0 13256.43662658 0 3055
0.05350000 0.05348950 39129.49204013 0 -29.42071719 0 12766.68147423 0 304.21359919 0 6164.65387714 0 3009
0.05450000 0.05448610 39429.50500814 0 822.75380993 0 16899.08190246 0 -2565.73473260 0 8523.83041191 0 3336
0.05550000 0.05550870 39088.57607147 0 1268.06904961 0 14975.24452986 0 201.31780646 0 5521.18282605 0 3349
0.05650000 0.05647670 36958.13553843 0 1791.91709563 0 14140.96343260 0 -2068.79680444 0 2028.46534961 0 3324
0.05750000 0.05747970 36369.79987917 0 1743.68346334 0 14547.31295653 0 -40.20971858 0 2844.76140570 0 3639
0.05850000 0.05849280 34199.67984904 0 606.42748661 0 11302.13709049 0 1540.19396316 0 -3505.11591419 0 3846
0.05950000 0.05951020 34194.62155621 0 628.08260024 0 10016.15044361 0 1926.11922471 0 -1310.65987523 0 3787
0.06050000 0.06049470 32989.73620436 0 359.28379525 0 7931.69541271 0 561.83132890 0 -5488.92215845 0 3930
0.06150000 0.06148310 32677.02130102 0 804.07184841 0 8337.80888297 0 -1611.89807417 0 -5118.31790385 0 4083
0.06250000 0.06249100 31966.27495530 0 609.03981384 0 9039.12432272 0 -583.50330351 0 -6643.67420804 0 4303
0.06350000 0.06350600 32602.04616064 0 183.49912692 0 9037.43822511 0 -1028.83990043 0 -5751.11033675 0 4470
0.06450000 0.06451750 32059.23513685 0 -383.96264393 0 9976.76320345 0 99.06452933 0 -5165.09025154 0 4479
0.06550000 0.06550280 33251.53095988 0 -236.14583869 0 10601.96819711 0 1849.23317371 0 -2121.88639784 0 4636
0.06650000 0.06648880 32760.08970992 0 109.19550302 0 9365.71018906 0 2701.55551538 0 -5577.47600491 0 4653
0.06750000 0.06749660 32647.34598309 0 500.50571071 0 9133.07368153 0 2281.59356342 0 -2847.15566430 0 5220
0.06850000 0.06852730 31575.99956192 0 942.31274330 0 9024.18549790 0 1569.28476725 0 -1681.52266480 0 5029
0.06950000 0.06949320 31103.21779217 0 726.55632097 0 8128.17074683 0 738.12182651 0 -1111.99149015 0 5040
0.07050000 0.07048030 30067.84145334 0 820.85638809 0 8440.16624852 0 -667.94981619 0 -4.14545082 0 5475
0.07150000 0.07148790 29336.52471678 0 510.88757572 0 8461.57968817 0 -226.49461597 0 -254.84353711 0 5509
0.07250000 0.07249820 28867.67717479 0 850.17200519 0 9407.80642605 0 386.16581147 0 1416.67045228 0 5916
0.07350000 0.07351270 28220.77772523 0 379.69119665 0 8845.31302282 0 1108.78790469 0 -391.21960804 0 5721
0.07450000 0.07449140 29023.24778091 0 -211.28039520 0 8493.50313624 0 2211.29453375 0 1054.57199808 0 6028
0.07550000 0.07549160 28116.01486041 0 351.15568071 0 8024.19472757 0 1118.79770417 0 1026.14439239 0 6183
0.07650000 0.07648840 28497.07292019 0 659.81720539 0 7382.75823426 0 -276.85385531 0 -108.44799975 0 6330
0.07750000 0.07749960 27259.02764868 0 810.81399072 0 7001.49784276 0 545.45707298 0 -368.72032154 0 6583
0.07850000 0.07848650 26656.19154998 0 1365.28943779 0 5679.73220461 0 -535.14040374 0 786.44538400 0 6549
0.07950000 0.07947320 25750.19510106 0 912.43621772 0 7708.56849570 0 -518.40082667 0 614.40610050 0 6828
0.08050000 0.08048110 25093.85350488 0 509.06096998 0 7339.24567528 0 697.93874828 0 118.15497609 0 7147
0.08150000 0.08149960 24547.10825332 0 199.19557160 0 6762.37547976 0 609.59060573 0 1061.59403260 0 7386
0.08250000 0.08250610 25053.27475574 0 161.92831817 0 7419.41399629 0 919.05021661 0 -204.44495550 0 7227
0.08350000 0.08350160 24197.74882860 0 366.57110912 0 6933.00855786 0 633.44663877 0 -153.16847906 0 7798
0.08450000 0.08449610 24305.65907562 0 47.34719457 0 6970.45116545 0 -613.70018763 0 125.17139028 0 7371
0.08550000 0.08548940 24342.75322303 0 73.14887185 0 7274.31967666 0 -240.16661945 0 -983.40519018 0 8256
0.08650000 0.08650700 24657.94106953 0 210.31369924 0 7346.22611938 0 -882.08308855 0 0.36120482 0 8037
0.08750000 0.08749060 23770.26688131 0 662.32949083 0 6766.98414656 0 -86.85650820 0 -1916.93561306 0 8155
0.08850000 0.08849210 23694.28008236 0 1008.19869349 0 8122.44925561 0 -52.89209517 0 834.67452003 0 8718
0.08950000 0.08949900 22357.42949093 0 793.80014178 0 8842.03075281 0 862.78401531 0 128.16027931 0 8571
0.09050000 0.09049190 21895.21393287 0 841.62349031 0 8193.24287392 0 1370.16788020 0 1411.79200986 0 8932
0.09150000 0.09150830 21348.01905528 0 783.42726928 0 9464.29069597 0 1179.88614463 0 1905.09920784 0 9285
0.09250000 0.09250820 20520.81956799 0 580.34355659 0 8354.31015824 0 -175.91955614 0 1507.06776546 0 9204
0.09350000 0.09350330 20370.08244169 0 527.99134988 0 9402.05121288 0 602.59779691 0 3150.31601452 0 9349
0.09450000 0.09448040 19795.91000235 0 272.78361568 0 7833.57577248 0 595.16098238 0 264.86907350 0 9564
0.09550000 0.09549270 19415.07675558 0 379.53382754 0 7845.59202811 0 463.92301290 0 604.64921567 0 10155
0.09650000 0.09649430 18851.69534095 0 557.56999821 0 6183.14474760 0 130.72314768 0 -1012.85344696 0 9913
0.09750000 0.09749140 18348.45140772 0 592.08329221 0 7053.40716784 0 554.77220024 0 -228.84278791 0 10476
0.09850000 0.09850240 17707.73431605 0 378.11975368 0 5321.59383167 0 438.38762664 0 -1286.04285013 0 10575
0.09950000 0.09950330 17618.25873623 0 141.44560441 0 6468.03904037 0 70.87657431 0 -555.66695604 0 10882
0.10050000 0.10051200 17333.19583370 0 316.78401890 0 6141.73419030 0 -153.10553141 0 -984.61468420 0 10875
0.10150000 0.10150300 17447.51325163 0 257.99316745 0 6620.78824316 0 -148.58116949 0 -348.25896501 0 11118
0.10250000 0.10250800 16975.85554696 0 204.07064183 0 7454.19256965 0 -379.13928070 0 511.85764388 0 11575
0.10350000 0.10349800 17247.99170115 0 98.81015341 0 7236.56233085 0 96.64216910 0 571.22851291 0 11364
0.10450000 0.10450100 17037.56671947 0 -10.30413592 0 7412.88317822 0 603.95004719 0 436.72063814 0 12093
0.10550000 0.10551000 17094.21959915 0 149.16568333 0 6838.98051450 0 301.53270399 0 57.43893839 0 12067
0.10650000 0.10649700 16849.39822623 0 150.99790940 0 7326.86971882 0 241.58294145 0 4.54696687 0 12054
0.10750000 0.10749900 16706.86677496 0 240.72190760 0 6515.91297184 0 282.50790263 0 -404.58361770 0 12807
0.10850000 0.10850100 16456.20026366 0 153.77210200 0 6880.49223765 0 131.04463029 0 -903.84498837 0 12736
0.10950000 0.10950300 16661.67935903 0 68.69375234 0 6393.91818945 0 380.55335456 0 -124.62621872 0 12933
0.11050000 0.11050200 16369.87206605 0 56.96199758 0 6317.05461975 0 515.77950692 0 -418.17468849 0 13428
0.11150000 0.11150900 16636.83752091 0 49.25349653 0 6055.56336180 0 660.57707338 0 897.91442104 0 13453
0.11250000 0.11250000 16384.26009899 0 145.82383787 0 5923.96906369 0 480.26467094 0 -127.52630661 0 13668
0.11350000 0.11349100 16326.03352820 0 268.69314288 0 6296.74276388 0 533.82075134 0 1911.93352349 0 13791
0.11450000 0.11448600 16012.19455979 0 308.27597036 0 5937.84002669 0 -215.02015970 0 1790.05114761 0 14205
0.11550000 0.11549300 16035.01308077 0 284.56156952 0 6694.59435586 0 162.96245804 0 2902.29105614 0 14776
0.11650000 0.11649800 15616.97328009 0 176.98966608 0 6798.41300601 0 387.86877006 0 2638.86640626 0 14553
0.11750000 0.11747300 15618.09734516 0 186.83760019 0 6832.51714033 0 862.17814424 0 3307.67388410 0 14568
0.11850000 0.11849100 15251.98935085 0 322.56733370 0 6395.18838299 0 587.99281941 0 2656.09832383 0 16015
0.11950000 0.11950300 15179.26234062 0 369.08789082 0 5910.04189744 0 1038.20785875 0 2732.75956181 0 15270
0.12050000 0.12050700 14479.08220659 0 468.51032247 0 5707.39544606 0 320.33156827 0 2578.60527769 0 15999
0.12150000 0.12150000 14342.17108069 0 302.76580337 0 5199.56532733 0 406.31130571 0 2605.50415489 0 15670
0.12250000 0.12250700 13878.38183153 0 176.26689224 0 4625.98864248 0 396.10816704 0 1913.84443411 0 16887
0.12350000 0.12352200 13780.25095064 0 232.09021190 0 4742.72280032 0 -221.51725583 0 1677.20625492 0 16407
0.12450000 0.12449800 13581.74105873 0 179.52668095 0 4610.69011684 0 -97.86931094 0 1322.00169182 0 16306
0.12550000 0.12549900 13431.56596497 0 135.57461253 0 4528.08257462 0 -20.44168539 0 495.04163039 0 17523
0.12650000 0.12650100 13325.90384810 0 323.11587746 0 4618.63725690 0 -324.33211587 0 778.94112558 0 17154
0.12750000 0.12750600 13112.44389072 0 372.07228359 0 4709.05705138 0 46.12196364 0 82.33641773 0 18007
0.12850000 0.12850300 12748.02199402 0 416.13900665 0 4752.72697947 0 -147.79544801 0 -366.15970130 0 17496
0.12950000 0.12949900 12441.71426160 0 218.29118907 0 4322.49107275 0 399.44888844 0 -401.78806786 0 18405
0.13050000 0.13049000 12356.73494207 0 101.36031984 0 4486.67201732 0 315.26540699 0 -1230.45783227 0 18100
0.13150000 0.13148800 12269.05786637 0 117.09498273 0 4013.28325244 0 84.73236243 0 -786.27677424 0 19059
0.13250000 0.13249300 11987.36715905 0 155.37951505 0 4103.71428757 0 227.24211924 0 -1412.57885541 0 18957
0.13350000 0.13349100 12003.21647658 0 271.16496197 0 3752.71372784 0 -342.25645752 0 -1114.39586534 0 19468
0.13450000 0.13450700 11685.10606089 0 161.91820158 0 4360.69804458 0 -1.66088483 0 -647.81443854 0 19953
0.13550000 0.13551000 11750.52664815 0 76.68956443 0 4427.22021561 0 285.28434336 0 -374.79814139 0 19956
0.13650000 0.13649900 11612.60386368 0 -7.38153300 0 4643.07443159 0 457.36184507 0 272.82070983 0 19723
0.13750000 0.13749600 11680.60980060 0 -139.16487638 0 3897.60571577 0 749.57942180 0 -173.90523152 0 20946
0.13850000 0.13851100 11842.58757764 0 -86.21354298 0 3902.79889640 0 646.68587720 0 254.42988117 0 20955
0.13950000 0.13949800 11696.45911813 0 -1.82430141 0 3032.82873308 0 434.77712962 0 171.46938251 0 20506
0.14050000 0.14048300 11815.16038985 0 59.93582414 0 2942.04923777 0 376.92936877 0 388.45328390 0 21447
0.14150000 0.14148400 11568.54051281 0 69.25690894 0 2839.44457790 0 -202.25752486 0 -120.52900153 0 21771
0.14250000 0.14249400 11561.23408984 0 136.46149987 0 2460.61216697 0 92.92387424 0 -47.13901772 0 22470
0.14350000 0.14350900 11341.92899408 0 273.48840448 0 2651.08499360 0 -108.56883674 0 -226.75427500 0 22519
0.14450000 0.14449900 11194.40669388 0 255.18637696 0 2472.16755592 0 -158.37290034 0 -240.86691199 0 22218
0.14550000 0.14550500 11016.19741719 0 313.95137492 0 2996.85865074 0 -293.65638002 0 -159.90500104 0 23559
0.14650000 0.14650700 10891.48239733 0 265.91670215 0 3155.68904557 0 -209.57968475 0 -448.63910011 0 23044
0.14750000 0.14750500 10607.80209484 0 246.54906094 0 3517.01976332 0 -513.86747223 0 -199.24503047 0 23649
0.14850000 0.14849900 10498.70033884 0 280.45985606 0 3962.83521196 0 -94.33356425 0 -300.36817257 0 23640
0.14950000 0.14949500 10221.59581702 0 192.67599418 0 3791.80871109 0 222.66155407 0 -222.18607454 0 24457
0.15050000 0.15050000 10087.50609445 0 188.41353942 0 3892.96332701 0 268.35592336 0 -446.81586656 0 24591
0.15150000 0.15149900 9959.17158506 0 28.49347591 0 3293.71299589 0 721.10910163 0 -538.85206661 0 25020
0.15250000 0.15250500 9811.72796942 0 47.93260766 0 3280.30289957 0 718.64739912 0 -530.05513335 0 25297
0.15350000 0.15350100 9767.20375187 0 54.22928298 0 2467.81742408 0 412.50827646 0 -357.10086088 0 25452
0.15450000 0.15450400 9668.03873112 0 104.56727749 0 2684.89687100 0 254.17022213 0 -179.34570648 0 26061
0.15550000 0.15549900 9564.25380292 0 152.99537303 0 2330.02952742 0 63.59252023 0 3.74257466 0 26128
0.15650000 0.15649500 9499.50765471 0 204.86872803 0 2560.36170155 0 56.58970723 0 272.84993552 0 26331
0.15750000 0.15749700 9300.45821157 0 120.59419730 0 2412.51342249 0 282.94291581 0 315.41603171 0 27345
0.15850000 0.15849900 9275.51520760 0 61.84223850 0 2335.89714711 0 104.78051263 0 448.18272969 0 26980
0.15950000 0.15949700 9324.01861550 0 -26.88246585 0 2469.72833471 0 406.93740996 0 399.73664910 0 27777
0.16050000 0.16050000 9390.97917191 0 -69.51342059 0 1878.84104773 0 270.74456164 0 816.54672260 0 28224
0.16150000 0.16150500 9482.82652903 0 -50.84764561 0 2153.45014509 0 307.19349570 0 456.92345969 0 28075
0.16250000 0.16249700 9511.18669082 0 -38.13267113 0 1915.75534473 0 1.15724747 0 710.86549662 0 28590
0.16350000 0.16349900 9540.22129166 0 45.80048103 0 1956.16548411 0 64.50739679 0 719.44660939 0 29163
0.16450000 0.16449100 9528.81203117 0 148.33499924 0 2187.91398023 0 -278.40394104 0 893.09105781 0 28996
0.16550000 0.16550500 9422.48671590 0 256.08338089 0 2195.29908776 0 -258.72605788 0 554.92732122 0 30777
0.16650000 0.16650700 9149.13657143 0 217.75276190 0 2389.87475192 0 -160.18376918 0 644.63783064 0 29211
0.16750000 0.16749900 9022.97150762 0 136.12540442 0 2199.18835292 0 -155.21202936 0 488.69740712 0 30922
0.16850000 0.16850800 8970.35402155 0 -25.23818346 0 2178.31446451 0 88.44672306 0 229.44865898 0 30867
0.16950000 0.16949900 8999.10760612 0 -13.28139087 0 1927.77160036 0 325.46180127 0 86.91158739 0 30852
0.17050000 0.17049200 8826.48493285 0 111.09618465 0 1700.35075478 0 148.54969567 0 -623.12434921 0 31257
0.17150000 0.17149500 8851.28180836 0 172.14269749 0 1462.04895928 0 118.08415999 0 -472.33551591 0 32608
0.17250000 0.17250900 8580.19103468 0 194.51608870 0 1799.70686659 0 5.48561741 0 -348.07461834 0 32361
0.17350000 0.17350400 8468.03182168 0 215.25733743 0 1723.31540422 0 -81.61240741 0 -289.28376689 0 32508
0.17450000 0.17449800 8337.20188783 0 113.88577695 0 2007.32168559 0 -114.29044037 0 69.90234711 0 32791
0.17550000 0.17549800 8364.53915040 0 68.23097475 0 1946.68961555 0 -116.77012792 0 -381.58861850 0 33633
0.17650000 0.17650100 8353.27601837 0 104.56705268 0 2335.53744628 0 -132.92406709 0 416.78984032 0 33984
0.17750000 0.17750300 8237.27250283 0 81.27046682 0 2354.48918341 0 64.05788317 0 10.61150027 0 34069
