### header ###
fiducial parameters:
Omega_m = 0.31
Omega_nu = 0
Omega_de = 0.69
Omega_k = 0
H_0 = 100
w_de = -1
zeff = 0
beta = 0
fgrowth = 0
b_1 = 2
gamma = 0.55
Lx = 3500 Ly = 3500 Lz = 3500
nx = 700 ny = 700 nz = 700
xoffset = 1379.75464 yoffset = 22.6059522 zoffset = 368.141391
bins = 400 dk = 0.001
kx_ny = 0.628318531 ky_ny = 0.628318531 kz_ny = 0.628318531
############################
A(data) = 3.33287205 (not used)
A(ran) = 3.33277259 (used)
Ngal = 187434
weighted Ngal = 0
Nran = 9399747
weighted Nran = 0
SN(data) = 6651.72953
SN(ran) = 132.562306
SN(data+ran) = 6784.29184
############################
13 columns: k_central k_mean P_0(k) sigma^{lin}_{P_0(k)} P^img_1(k) sigma^{lin}_{P_1(k)} P_2(k) sigma^{lin}_{P_2(k)} P^img_3(k) sigma^{lin}_{P_3(k)} P_4(k) sigma^{lin}_{P_4(k)} N_modes
### header ###
0.00050000 0 0 0 0 0 0 0 0 0 0 0 0
0.00150000 0.00179520 30169.49755477 0 -43236.14759144 0 -62339.40339112 0 60049.07122131 0 44703.95659557 0 3
0.00250000 0.00253879 40934.83513665 0 -29639.78198852 0 -16770.22252162 0 -71881.16012567 0 -24314.56559777 0 6
0.00350000 0.00331552 75334.84794338 0 -27854.43201577 0 -96867.18678669 0 33927.30599280 0 22770.22733470 0 7
0.00450000 0.00420575 91035.10269541 0 -26713.36967373 0 -69451.30069826 0 -34037.55249046 0 -20856.10856538 0 24
0.00550000 0.00557378 124141.54920207 0 -5853.19063908 0 -102003.63100538 0 -58975.33244475 0 -16701.67892448 0 45
0.00650000 0.00659388 115849.77036357 0 -9588.31757934 0 -26340.03998446 0 -61993.80169421 0 -73415.40539952 0 40
0.00750000 0.00754703 103039.99244822 0 21320.94062948 0 -36045.28096203 0 -89112.11096852 0 -41199.13835993 0 57
0.00850000 0.00846663 96314.40153079 0 17100.96201462 0 5926.39253893 0 -56348.60427151 0 -70593.13942408 0 75
0.00950000 0.00948925 70937.29926538 0 8167.06942001 0 33249.74477123 0 -26702.16756482 0 -71862.85965071 0 112
0.01050000 0.01054430 73668.50651388 0 4043.80604253 0 60307.38519823 0 -3402.05829591 0 -59086.90988605 0 105
0.01150000 0.01145670 70946.50495885 0 -3445.74652069 0 40977.31442096 0 19993.43526674 0 -49820.32574778 0 144
0.01250000 0.01249090 83546.32651597 0 -10672.94791131 0 43122.24099878 0 17860.04353375 0 -22724.30977934 0 169
0.01350000 0.01339930 92610.38539796 0 -5348.28608040 0 25215.61443785 0 11754.78326163 0 -55555.58368971 0 180
0.01450000 0.01448870 95640.61131619 0 3650.78947867 0 34679.84370573 0 -8380.65259964 0 4589.72584752 0 267
0.01550000 0.01550050 98539.40655058 0 4304.71535954 0 15872.94468851 0 -15308.73549975 0 -33049.54866631 0 238
0.01650000 0.01653350 93580.86513093 0 2048.63280591 0 49972.82970582 0 9860.39573168 0 25900.38493743 0 315
0.01750000 0.01747870 88771.05666237 0 -832.12814224 0 25846.37080829 0 17415.50836007 0 -18673.25009400 0 297
0.01850000 0.01844180 92011.57167473 0 2852.51166952 0 38660.36337848 0 13458.28020091 0 29262.45946834 0 388
0.01950000 0.01947590 82287.36475038 0 5280.24158713 0 41096.10114028 0 13927.32691985 0 34657.77222381 0 399
0.02050000 0.02045430 78873.71615365 0 24.65639629 0 18965.05948570 0 9116.24296364 0 26279.26022518 0 462
0.02150000 0.02154770 79082.34156825 0 2753.55601035 0 34281.66973529 0 499.39556115 0 32514.73114947 0 571
0.02250000 0.02255340 74012.33361928 0 8281.71912286 0 27733.75979297 0 -11815.45210894 0 11564.34741003 0 510
0.02350000 0.02348930 65356.98534482 0 3910.80040873 0 34840.33332557 0 -496.42644773 0 29454.66991146 0 555
0.02450000 0.02439640 66967.20531776 0 -1916.90265976 0 39468.02434025 0 9423.85731100 0 18441.99863763 0 592
0.02550000 0.02547300 67770.09706485 0 -450.95586760 0 36372.58218397 0 11316.12642233 0 14726.78039588 0 837
0.02650000 0.02652900 67981.49527868 0 1978.42552923 0 27666.10349159 0 636.88758412 0 3598.40575549 0 723
0.02750000 0.02749970 63339.82935585 0 908.19711651 0 31021.63421630 0 781.63214077 0 19559.99129001 0 826
0.02850000 0.02848090 64144.71751838 0 197.56638212 0 26837.48016758 0 4128.43187525 0 7207.75852236 0 831
0.02950000 0.02946900 67128.47132139 0 1302.03997454 0 33851.88585355 0 -155.33997710 0 19140.41130946 0 996
0.03050000 0.03053250 61652.08191624 0 2342.07260357 0 23952.32710544 0 3030.68065730 0 11542.71957598 0 1041
0.03150000 0.03150510 57136.52290271 0 3466.34287342 0 31616.12237273 0 6091.68464705 0 15277.34741239 0 1036
0.03250000 0.03246190 56219.72456297 0 2703.75653605 0 25074.97806054 0 1059.73724953 0 19814.42334800 0 1059
0.03350000 0.03345080 51939.18801277 0 2191.99761767 0 35191.48062095 0 3768.66671984 0 14306.86767942 0 1302
0.03450000 0.03451200 47961.66296320 0 1823.02676879 0 25719.15477929 0 2231.73737633 0 21404.67916644 0 1339
0.03550000 0.03553350 47557.49974641 0 -489.95140695 0 25042.48085348 0 5483.80941591 0 17688.68454090 0 1365
0.03650000 0.03647120 46601.66039341 0 -1234.10639323 0 20036.69093484 0 5902.34682395 0 16449.35419391 0 1308
0.03750000 0.03744890 51210.49637327 0 -1306.95337479 0 17671.04953776 0 7213.45939759 0 11662.28267909 0 1579
0.03850000 0.03847530 49362.03748988 0 1029.04458022 0 14343.35771738 0 -1267.90127033 0 11175.93369291 0 1662
0.03950000 0.03950240 47713.99653535 0 731.67628060 0 11254.45936730 0 -1493.31875711 0 9163.99056650 0 1683
0.04050000 0.04050350 45474.01839968 0 1114.02200387 0 11072.82992608 0 -53.60076023 0 4416.34825683 0 1822
0.04150000 0.04152450 46800.85829060 0 831.25193768 0 12801.01586976 0 -371.09481309 0 3550.31432552 0 1887
0.04250000 0.04250150 44001.32926890 0 776.53351753 0 12590.50495168 0 2097.32316051 0 -3413.64859672 0 1920
0.04350000 0.04349210 41588.77210872 0 2400.55648508 0 14366.53831900 0 -3766.70357798 0 3315.39168296 0 2005
0.04450000 0.04448520 40007.50015981 0 1824.43535080 0 13175.89832661 0 -1064.71941520 0 -550.56923475 0 2151
0.04550000 0.04548030 38544.01672249 0 669.08532886 0 17955.31691554 0 1609.54340993 0 2617.44484140 0 2274
0.04650000 0.04648670 37103.93571074 0 717.38305509 0 15807.72845045 0 -8.83169831 0 -1226.14291382 0 2311
0.04750000 0.04749250 38218.49009206 0 -759.04935467 0 14566.62351195 0 2598.46780342 0 2099.89631821 0 2568
0.04850000 0.04851840 38768.16981282 0 -578.24066202 0 13687.64615380 0 3464.43518755 0 2299.88169038 0 2493
0.04950000 0.04949480 39164.01463190 0 45.94705795 0 12923.46268407 0 645.62744731 0 1469.70559881 0 2644
0.05050000 0.05050630 40210.13632806 0 92.16207922 0 12976.25678154 0 253.94626357 0 3148.74644881 0 2829
0.05150000 0.05149060 36860.15120181 0 2045.19453486 0 15734.30472666 0 -3623.62713735 0 -475.21897004 0 2784
0.05250000 0.05249300 37257.10514059 0 1217.74687773 0 13472.14419710 0 -775.24361133 0 2674.17631379 0 3055
0.05350000 0.05348950 35548.61716269 0 -494.61525527 0 17906.95929684 0 1213.72077324 0 -15.65267352 0 3009
0.05450000 0.05448610 37057.35268355 0 -46.83235729 0 15836.01100267 0 2858.22363595 0 5913.48238569 0 3336
0.05550000 0.05550870 37148.18958656 0 -667.33624710 0 13633.18837679 0 2846.01222811 0 847.79445793 0 3349
0.05650000 0.05647670 36493.58714268 0 43.66437871 0 12666.81238669 0 23.73771244 0 2285.54077273 0 3324
0.05750000 0.05747970 37259.54520392 0 441.05142872 0 11090.47602042 0 1244.62084794 0 3182.66332908 0 3639
0.05850000 0.05849280 37281.94942176 0 60.13547165 0 14029.36593178 0 -1370.70557485 0 1701.22324390 0 3846
0.05950000 0.05951020 36434.02741506 0 121.19018169 0 12028.29217838 0 1235.10460096 0 3444.54867142 0 3787
0.06050000 0.06049470 37054.02532447 0 -14.57627285 0 10511.62645169 0 3046.05305627 0 689.25799787 0 3930
0.06150000 0.06148310 35860.27979693 0 307.32930360 0 10910.93172422 0 -56.81787281 0 3877.87064499 0 4083
0.06250000 0.06249100 35536.63866998 0 988.85230071 0 11462.19748614 0 1894.69808347 0 5910.63194807 0 4303
0.06350000 0.06350600 34283.88797468 0 1023.50563646 0 12044.26350198 0 994.30584225 0 5893.47386639 0 4470
0.06450000 0.06451750 32546.11923683 0 1643.39374302 0 12594.49778258 0 -1295.79563066 0 7823.76360087 0 4479
0.06550000 0.06550280 30450.21574953 0 1990.42620433 0 13660.91636916 0 -3172.01578001 0 5633.55166591 0 4636
0.06650000 0.06648880 29169.07159004 0 1189.91906459 0 18342.39968903 0 -2027.32661657 0 5804.65556123 0 4653
0.06750000 0.06749660 28132.71014720 0 94.34249763 0 17417.94842340 0 -143.69865678 0 3245.57259817 0 5220
0.06850000 0.06852730 28350.87399117 0 -380.26723297 0 16986.61177408 0 2124.72950817 0 3735.64822652 0 5029
0.06950000 0.06949320 27777.79184485 0 105.48537955 0 15363.85874859 0 1757.89926031 0 1515.13514151 0 5040
0.07050000 0.07048030 29077.34739128 0 -223.53309241 0 14780.57270108 0 1821.14126531 0 3261.77683691 0 5475
0.07150000 0.07148790 28157.11078048 0 -491.00839802 0 11994.02037981 0 2255.74981772 0 701.70897556 0 5509
0.07250000 0.07249820 28998.82171688 0 223.68615093 0 10554.70466064 0 240.03901171 0 2350.67937240 0 5916
0.07350000 0.07351270 28151.34335807 0 476.09295636 0 9993.75628379 0 561.80018078 0 -568.99393112 0 5721
0.07450000 0.07449140 27448.93785534 0 680.91519952 0 8500.80353618 0 46.57781432 0 958.32710847 0 6028
0.07550000 0.07549160 26523.26655804 0 627.45673935 0 9269.27929913 0 -156.39474993 0 -1070.51234737 0 6183
0.07650000 0.07648840 25711.72367734 0 534.67333128 0 8897.34710067 0 180.66450709 0 -462.95876094 0 6330
0.07750000 0.07749960 25367.67474801 0 246.53512577 0 8533.55584077 0 1063.34743414 0 -1136.77004881 0 6583
0.07850000 0.07848650 24303.36348885 0 392.82912263 0 7807.84773325 0 895.11948619 0 -899.70791436 0 6549
0.07950000 0.07947320 24219.73586386 0 450.78062669 0 7923.24054630 0 37.37001353 0 -289.94607062 0 6828
0.08050000 0.08048110 23687.91297020 0 196.64470365 0 8060.83793564 0 239.27150088 0 312.33808814 0 7147
0.08150000 0.08149960 23064.47678974 0 252.08626984 0 8180.52304190 0 357.76541260 0 149.48826159 0 7386
0.08250000 0.08250610 23051.50008931 0 560.01338895 0 8291.08009308 0 -407.86324010 0 535.98320164 0 7227
0.08350000 0.08350160 22218.10755062 0 381.75123512 0 8252.76000763 0 110.31836862 0 1006.20336922 0 7798
0.08450000 0.08449610 21909.99409940 0 372.59434292 0 8833.31762069 0 193.83197611 0 1011.77336833 0 7371
0.08550000 0.08548940 21327.81717158 0 612.87403361 0 9075.08353176 0 -702.19809735 0 181.98435953 0 8256
0.08650000 0.08650700 21035.00957215 0 326.05678964 0 9962.81184430 0 782.63922145 0 2054.33368114 0 8037
0.08750000 0.08749060 20329.60944624 0 -82.28958299 0 9363.47683481 0 865.31522175 0 1434.76832842 0 8155
0.08850000 0.08849210 20944.94905293 0 -126.92211228 0 8746.34045422 0 1550.22768865 0 2668.32016180 0 8718
0.08950000 0.08949900 20762.94251101 0 257.62521359 0 7513.26554230 0 289.93830678 0 2218.53885196 0 8571
0.09050000 0.09049190 20129.85698921 0 683.39297292 0 9356.82211664 0 171.21924377 0 4469.47509021 0 8932
0.09150000 0.09150830 19349.59128390 0 519.39631661 0 8962.91825703 0 302.15415110 0 3718.78960716 0 9285
0.09250000 0.09250820 19041.69965662 0 44.28138199 0 8651.35544355 0 507.27474746 0 4625.16222177 0 9204
0.09350000 0.09350330 18919.25284231 0 314.14151676 0 9415.99365236 0 236.14489246 0 5386.41761551 0 9349
0.09450000 0.09448040 18577.53306433 0 360.62915965 0 8716.00603056 0 -370.92179042 0 4060.35410838 0 9564
0.09550000 0.09549270 17950.10405297 0 291.95135903 0 9526.58397713 0 48.23661374 0 4701.56947755 0 10155
0.09650000 0.09649430 17536.51331877 0 226.51107879 0 9230.67084255 0 -94.55079030 0 3663.36689601 0 9913
0.09750000 0.09749140 17536.73514271 0 70.76139288 0 9341.60499443 0 899.63693070 0 3419.72657265 0 10476
0.09850000 0.09850240 17286.62865153 0 188.31188739 0 7881.43782500 0 405.88457056 0 2935.91747057 0 10575
0.09950000 0.09950330 17230.95084285 0 134.07815255 0 8746.46245738 0 694.15919780 0 3957.96017815 0 10882
0.10050000 0.10051200 16682.49115376 0 98.84696544 0 6574.83936851 0 645.67513946 0 3100.98775475 0 10875
0.10150000 0.10150300 16830.89136893 0 -37.03761035 0 7021.84787912 0 1011.86875262 0 3293.91912567 0 11118
0.10250000 0.10250800 16723.41767050 0 70.51738655 0 6134.99577114 0 -37.88176135 0 2631.37538477 0 11575
0.10350000 0.10349800 16586.66321213 0 112.22183984 0 5976.45820196 0 36.52009510 0 2014.39428093 0 11364
0.10450000 0.10450100 16274.44601804 0 221.00762687 0 5643.16773366 0 228.23575992 0 1938.91868570 0 12093
0.10550000 0.10551000 16072.58623358 0 157.12565981 0 5109.62570447 0 -1.34321050 0 1702.33236360 0 12067
0.10650000 0.10649700 15638.14404912 0 425.78883260 0 5564.63096807 0 445.56000028 0 1775.92245535 0 12054
0.10750000 0.10749900 15143.03301735 0 398.21944435 0 5136.67713383 0 99.35594047 0 1612.91513380 0 12807
0.10850000 0.10850100 14434.52735629 0 250.74423501 0 5187.68554859 0 409.70437879 0 2542.23543490 0 12736
0.10950000 0.10950300 14474.56657728 0 115.89968075 0 4930.66924171 0 712.34543344 0 1951.52937663 0 12933
0.11050000 0.11050200 14340.47400617 0 -30.86336284 0 4644.69381960 0 53.01880512 0 1699.71484112 0 13428
0.11150000 0.11150900 14264.72113102 0 98.97329418 0 4015.00220406 0 0.42798045 0 2028.35809789 0 13453
0.11250000 0.11250000 13983.00472853 0 72.67761898 0 4433.08487302 0 10.34208642 0 1765.53000381 0 13668
0.11350000 0.11349100 14229.45112472 0 92.07190779 0 4141.63039962 0 -495.03339339 0 1027.74691017 0 13791
0.11450000 0.11448600 13916.01389897 0 -27.41943527 0 4515.89174944 0 744.83931314 0 972.53936824 0 14205
0.11550000 0.11549300 14206.60325901 0 252.15392614 0 4362.88868754 0 -296.16712299 0 631.63590236 0 14776
0.11650000 0.11649800 13764.95179653 0 198.36273006 0 4387.20059125 0 -357.08884959 0 699.85230919 0 14553
0.11750000 0.11747300 13522.16549533 0 258.52914614 0 5350.52650219 0 -8.08214412 0 1121.88566251 0 14568
0.11850000 0.11849100 13259.08230372 0 24.07000471 0 4492.15658797 0 412.13778740 0 857.41718040 0 16015
0.11950000 0.11950300 13162.69980224 0 67.15265013 0 5003.88223277 0 437.14289092 0 492.77189833 0 15270
0.12050000 0.12050700 13225.69780091 0 220.94884353 0 4880.29302517 0 -347.54154725 0 958.26167041 0 15999
0.12150000 0.12150000 12935.77391268 0 151.51795063 0 4353.89372681 0 205.15386995 0 1277.37315253 0 15670
0.12250000 0.12250700 12778.38982799 0 -100.94863635 0 4597.61168855 0 493.45622518 0 1225.99872826 0 16887
0.12350000 0.12352200 12960.06363400 0 -114.59202863 0 3759.89358305 0 469.53473161 0 1174.67975998 0 16407
0.12450000 0.12449800 13030.93638250 0 17.81290595 0 3528.32048197 0 278.39680724 0 715.21694433 0 16306
0.12550000 0.12549900 12943.98139842 0 167.52587518 0 3826.56276791 0 -88.23801374 0 1005.88837923 0 17523
0.12650000 0.12650100 12686.99836513 0 190.06873298 0 3650.49001636 0 -311.09476496 0 876.88999488 0 17154
0.12750000 0.12750600 12423.36061367 0 352.89194066 0 4396.28428155 0 -333.32263277 0 779.54921398 0 18007
0.12850000 0.12850300 12059.01479392 0 241.42652045 0 4127.36712034 0 -253.32959302 0 178.88436998 0 17496
0.12950000 0.12949900 11748.01763150 0 155.61836614 0 5126.47323263 0 -61.61215361 0 859.51452574 0 18405
0.13050000 0.13049000 11910.61457876 0 -98.20744703 0 4034.28979555 0 762.88801793 0 970.20578040 0 18100
0.13150000 0.13148800 12127.33656713 0 -261.85539611 0 3806.95353170 0 981.13060940 0 1705.90372902 0 19059
0.13250000 0.13249300 12322.20889751 0 -53.86994358 0 3394.36100523 0 575.21387437 0 1035.40981814 0 18957
0.13350000 0.13349100 12155.95185525 0 133.33282411 0 3169.05443042 0 -100.04015641 0 1342.71139375 0 19468
0.13450000 0.13450700 12108.92518019 0 209.50716475 0 2950.52457695 0 -377.01196666 0 1219.11109496 0 19953
0.13550000 0.13551000 11773.30556054 0 237.98935852 0 3612.13665731 0 -672.26961150 0 878.76551628 0 19956
0.13650000 0.13649900 11501.90397122 0 207.73922796 0 3526.09115139 0 -317.86926806 0 48.78684802 0 19723
0.13750000 0.13749600 11218.30206525 0 269.60925190 0 3774.47850704 0 18.17913727 0 -359.00319018 0 20946
0.13850000 0.13851100 11099.73716987 0 -17.21664320 0 3683.91888396 0 225.94653687 0 -161.19169261 0 20955
0.13950000 0.13949800 11066.89613571 0 -49.42470275 0 3326.11687041 0 583.76962369 0 65.42319979 0 20506
0.14050000 0.14048300 11138.44544722 0 217.69690458 0 3289.57137646 0 -101.21959429 0 -375.56567458 0 21447
0.14150000 0.14148400 10824.96385668 0 193.00457281 0 3547.86317099 0 -272.95324778 0 117.15520424 0 21771
0.14250000 0.14249400 10511.64863409 0 222.27202332 0 3654.78230958 0 -112.99156891 0 31.06222800 0 22470
0.14350000 0.14350900 10667.61304557 0 -74.19611475 0 3877.94828337 0 160.37759875 0 128.47155249 0 22519
0.14450000 0.14449900 10627.97310768 0 -172.71100976 0 3883.71570578 0 450.75844429 0 -317.54651423 0 22218
0.14550000 0.14550500 10949.98382868 0 -75.27905922 0 3251.32892939 0 -124.91793299 0 41.21965707 0 23559
0.14650000 0.14650700 10908.52493449 0 144.89206957 0 3885.17974378 0 -371.06153950 0 -421.01518144 0 23044
0.14750000 0.14750500 10702.33958322 0 207.73922796 0 3819.46440186 0 -127.32361361 0 -102.11587392 0 23649
0.14850000 0.14849900 10770.76117719 0 74.22739193 0 4274.84676616 0 -225.61269184 0 -797.31176590 0 23640
0.14950000 0.14949500 10408.33413451 0 261.36516520 0 4434.94819411 0 -257.05068959 0 -310.89845078 0 24457
0.15050000 0.15050000 10405.02895782 0 161.62535841 0 4637.58436235 0 229.32047898 0 -275.98003542 0 24591
0.15150000 0.15149900 10093.26650281 0 -108.83924660 0 4283.23171106 0 566.55497691 0 -43.48481223 0 25020
0.15250000 0.15250500 10285.78749943 0 7.88042853 0 3919.97282861 0 542.50149809 0 -47.40898862 0 25297
0.15350000 0.15350100 10453.63058285 0 4.37146218 0 4093.77188479 0 -27.27868798 0 81.60059784 0 25452
0.15450000 0.15450400 10064.75103545 0 165.31650875 0 3456.50498173 0 -6.84695079 0 81.98379869 0 26061
0.15550000 0.15549900 10066.31489422 0 176.88573629 0 3764.31897064 0 193.29183482 0 303.86885015 0 26128
0.15650000 0.15649500 9745.84584960 0 50.51152914 0 3298.15596290 0 9.13635130 0 11.82853972 0 26331
0.15750000 0.15749700 9790.82065323 0 186.66373552 0 3634.35232480 0 224.94056531 0 -236.62514129 0 27345
0.15850000 0.15849900 9431.44368971 0 199.65263626 0 3482.46947379 0 -41.11639803 0 376.49844425 0 26980
0.15950000 0.15949700 9131.55990662 0 112.19078449 0 3098.84715374 0 312.54327528 0 -29.19447043 0 27777
0.16050000 0.16050000 9057.77017333 0 28.46577879 0 3400.53880193 0 391.26637298 0 708.50898841 0 28224
0.16150000 0.16150500 9002.40291816 0 46.12185521 0 2570.26288958 0 307.31821240 0 -1.10808821 0 28075
0.16250000 0.16249700 8981.65128867 0 133.78201759 0 2716.98833401 0 38.15349568 0 658.98679404 0 28590
0.16350000 0.16349900 8636.65960760 0 215.05054499 0 2526.72994156 0 -204.16675342 0 641.64016201 0 29163
0.16450000 0.16449100 8572.76322198 0 84.85542049 0 2847.53172209 0 85.70777898 0 897.40649100 0 28996
0.16550000 0.16550500 8491.57566032 0 -66.74161037 0 2564.81711188 0 527.36977809 0 892.16479132 0 30777
0.16650000 0.16650700 8494.13772681 0 58.36864397 0 2382.42237807 0 258.50252727 0 763.53019823 0 29211
0.16750000 0.16749900 8507.24752160 0 38.87808357 0 2268.54905900 0 159.66554391 0 1412.00919228 0 30922
0.16850000 0.16850800 8365.22474468 0 156.53893549 0 2585.41346462 0 -137.59738934 0 1017.54411810 0 30867
0.16950000 0.16949900 8176.25293108 0 239.15837067 0 2729.62120734 0 -182.94042070 0 1781.62333058 0 30852
0.17050000 0.17049200 7910.64094656 0 101.52438039 0 2683.55946641 0 -122.70967568 0 1347.38078766 0 31257
0.17150000 0.17149500 7855.73952167 0 39.09580377 0 2707.69391097 0 322.10499617 0 1528.75513136 0 32608
0.17250000 0.17250900 7892.85066666 0 -16.96254388 0 2551.57422273 0 278.49219153 0 1586.20753155 0 32361
0.17350000 0.17350400 7941.92921315 0 -39.86165092 0 2231.85937950 0 331.52807710 0 1418.00952983 0 32508
0.17450000 0.17449800 7903.65349249 0 -43.14553251 0 2125.46152717 0 197.08724241 0 1429.41128029 0 32791
0.17550000 0.17549800 7987.72476535 0 35.89022603 0 1680.62689117 0 -127.15502741 0 975.61606628 0 33633
0.17650000 0.17650100 7743.67406770 0 175.74556124 0 1949.43314041 0 -162.24646544 0 1046.56423491 0 33984
0.17750000 0.17750300 7714.67058768 0 152.76127381 0 1950.45353053 0 -197.65400257 0 890.94697789 0 34069
0.17850000 0.17849800 7491.18296918 0 58.58924788 0 1954.69036776 0 141.33068623 0 745.47372960 0 34536
