### header ###
fiducial parameters:
Omega_m = 0.31
Omega_nu = 0
Omega_de = 0.69
Omega_k = 0
H_0 = 100
w_de = -1
zeff = 0
beta = 0
fgrowth = 0
b_1 = 2
gamma = 0.55
Lx = 3500 Ly = 3500 Lz = 3500
nx = 700 ny = 700 nz = 700
xoffset = 1379.75464 yoffset = 22.6059522 zoffset = 368.141391
bins = 400 dk = 0.001
kx_ny = 0.628318531 ky_ny = 0.628318531 kz_ny = 0.628318531
############################
A(data) = 3.3330365 (not used)
A(ran) = 3.33163825 (used)
Ngal = 186907
weighted Ngal = 0
Nran = 9399747
weighted Nran = 0
SN(data) = 6685.74943
SN(ran) = 132.517187
SN(data+ran) = 6818.26662
############################
13 columns: k_central k_mean P_0(k) sigma^{lin}_{P_0(k)} P^img_1(k) sigma^{lin}_{P_1(k)} P_2(k) sigma^{lin}_{P_2(k)} P^img_3(k) sigma^{lin}_{P_3(k)} P_4(k) sigma^{lin}_{P_4(k)} N_modes
### header ###
0.00050000 0 0 0 0 0 0 0 0 0 0 0 0
0.00150000 0.00179520 29890.22121561 0 -13844.69750259 0 -38434.76843255 0 58366.53664427 0 9288.48925224 0 3
0.00250000 0.00253879 59536.10336246 0 -18111.70279251 0 -11677.47761891 0 -24713.62686397 0 39281.47040758 0 6
0.00350000 0.00331552 64124.30971600 0 -10220.26070786 0 12.91070781 0 -60773.65911794 0 -17614.81716923 0 7
0.00450000 0.00420575 71542.32405891 0 -149.91083619 0 -5636.24682677 0 -29328.45209018 0 14061.64131490 0 24
0.00550000 0.00557378 69970.03597953 0 -3333.79197870 0 2978.41893728 0 -7794.06137544 0 25099.93325368 0 45
0.00650000 0.00659388 92397.87806444 0 -7414.34315672 0 5497.06339627 0 9627.65805492 0 -48379.35744027 0 40
0.00750000 0.00754703 86344.74641797 0 5850.97239969 0 14000.41790774 0 8441.33253814 0 19173.01942848 0 57
0.00850000 0.00846663 83130.73936632 0 6720.47787564 0 22542.52506135 0 -5307.53702281 0 12728.92308960 0 75
0.00950000 0.00948925 64247.42200212 0 10219.60632724 0 42209.99004979 0 18106.04628206 0 40786.76765739 0 112
0.01050000 0.01054430 68254.78237148 0 505.72752549 0 22389.24471953 0 20545.99869870 0 33992.07858297 0 105
0.01150000 0.01145670 57262.40798807 0 -2736.96357972 0 27909.44435263 0 25037.26799092 0 39466.91522056 0 144
0.01250000 0.01249090 75033.05647442 0 -4705.61776443 0 6924.26752837 0 23743.81260282 0 35709.99407828 0 169
0.01350000 0.01339930 72135.81400761 0 -2735.43299454 0 4391.85889397 0 5254.05527113 0 32107.35148556 0 180
0.01450000 0.01448870 72487.84859874 0 1668.62621607 0 6035.99574718 0 -4661.30843263 0 37283.94583721 0 267
0.01550000 0.01550050 74479.05118686 0 6254.48123586 0 1965.92575027 0 -6963.90746626 0 10173.83295744 0 238
0.01650000 0.01653350 57718.92165446 0 7647.21392785 0 22774.66381348 0 -8280.95383027 0 21030.79491731 0 315
0.01750000 0.01747870 58551.09416148 0 5798.72177086 0 32706.16520880 0 -4233.98679661 0 2375.47928878 0 297
0.01850000 0.01844180 53284.77202653 0 -169.55334599 0 33547.65432126 0 9126.15849371 0 25339.94675563 0 388
0.01950000 0.01947590 56866.11952111 0 -6990.65943330 0 22401.11230026 0 15911.43114192 0 8910.70090179 0 399
0.02050000 0.02045430 64144.49569444 0 -4574.98564678 0 16881.91087489 0 12605.25624362 0 17125.80629578 0 462
0.02150000 0.02154770 71992.51574303 0 -3010.80523237 0 16324.91096415 0 -1619.11511290 0 8142.72424270 0 571
0.02250000 0.02255340 71339.79880263 0 1969.44165970 0 22294.41498562 0 -14790.66569030 0 7198.63046727 0 510
0.02350000 0.02348930 69991.33107767 0 5187.27517431 0 24823.54062573 0 -8836.46752062 0 -9018.49624493 0 555
0.02450000 0.02439640 67274.65329717 0 3506.64828313 0 38039.58908529 0 -11707.42385067 0 -17756.45175426 0 592
0.02550000 0.02547300 63758.74386458 0 3408.14736304 0 47604.52642147 0 -3010.25067252 0 -4823.20663448 0 837
0.02650000 0.02652900 60951.67282896 0 2729.72102811 0 48149.65875147 0 4706.94870807 0 -13225.14324106 0 723
0.02750000 0.02749970 57356.68316213 0 1547.96508447 0 49794.92690677 0 9171.08893255 0 -3599.58142236 0 826
0.02850000 0.02848090 58334.37217312 0 -943.76658512 0 41967.31466056 0 11388.10829053 0 -7241.07647800 0 831
0.02950000 0.02946900 57624.53556843 0 1286.86721711 0 44676.11769123 0 2864.85617173 0 8947.50149327 0 996
0.03050000 0.03053250 55886.76683058 0 3502.03434520 0 38967.25679804 0 532.23548619 0 7538.04327628 0 1041
0.03150000 0.03150510 51814.74478301 0 -936.89337037 0 35558.71015191 0 2992.59348698 0 1431.45206053 0 1036
0.03250000 0.03246190 54540.07369713 0 1235.99189671 0 36287.84543929 0 6805.27007631 0 12414.26583218 0 1059
0.03350000 0.03345080 52515.81934211 0 -851.83719921 0 34562.72066596 0 8793.24512611 0 3574.20476375 0 1302
0.03450000 0.03451200 53581.23972095 0 783.69843076 0 26801.98833735 0 3308.26004332 0 8923.72196701 0 1339
0.03550000 0.03553350 52980.87323015 0 592.36419221 0 29600.07550345 0 1095.32113670 0 10344.77048480 0 1365
0.03650000 0.03647120 51397.93760170 0 1617.29615660 0 24130.00808055 0 4525.65200275 0 9650.73883577 0 1308
0.03750000 0.03744890 49764.09337925 0 1071.38522457 0 26636.39676691 0 1078.21962012 0 11893.31231152 0 1579
0.03850000 0.03847530 47520.01150072 0 1866.31571048 0 28177.07493499 0 1712.81354471 0 11438.90597255 0 1662
0.03950000 0.03950240 46255.28231271 0 1227.99514371 0 28331.57530848 0 1946.59379399 0 13319.19659118 0 1683
0.04050000 0.04050350 45022.05212404 0 322.90799883 0 23992.36632643 0 5308.81251046 0 10093.90979223 0 1822
0.04150000 0.04152450 43263.32102396 0 181.40428993 0 23996.24824536 0 2160.96444860 0 12031.17588958 0 1887
0.04250000 0.04250150 44416.69459461 0 353.44982787 0 18229.26948016 0 2994.71190560 0 5551.13298139 0 1920
0.04350000 0.04349210 41735.28682041 0 666.73843158 0 17931.35993013 0 2595.29572110 0 8527.42240885 0 2005
0.04450000 0.04448520 40107.76458022 0 1201.94192208 0 12307.12486966 0 -979.03880965 0 3021.34186947 0 2151
0.04550000 0.04548030 38339.27322683 0 1026.63889960 0 12954.18529962 0 1254.44764843 0 3231.76405797 0 2274
0.04650000 0.04648670 37614.68533020 0 780.01393514 0 10624.36846867 0 -379.42762936 0 -3154.17004412 0 2311
0.04750000 0.04749250 36070.01433122 0 280.92449102 0 9229.62827004 0 2092.60940181 0 -3692.55892638 0 2568
0.04850000 0.04851840 35523.10740971 0 1189.48650791 0 9456.35451805 0 -1572.34353536 0 -7362.33653423 0 2493
0.04950000 0.04949480 33142.38198477 0 1100.63714740 0 7671.72547310 0 -1511.65250566 0 -7695.79337048 0 2644
0.05050000 0.05050630 33494.63839985 0 -123.50158714 0 7478.62773423 0 2277.01164227 0 -5238.60523378 0 2829
0.05150000 0.05149060 33866.63714549 0 -1260.28161803 0 7223.21965091 0 2664.47151646 0 -6038.41362811 0 2784
0.05250000 0.05249300 35095.31994341 0 -954.01263286 0 5055.51175456 0 2427.13099297 0 -2504.23699415 0 3055
0.05350000 0.05348950 35610.72786560 0 -448.64557127 0 4046.19064988 0 632.67958400 0 -4053.66611662 0 3009
0.05450000 0.05448610 35743.04584519 0 720.12036250 0 4691.28793798 0 -913.12382619 0 1538.40447270 0 3336
0.05550000 0.05550870 35576.01241915 0 910.44308389 0 6974.81011286 0 -2641.65692434 0 -5.41834917 0 3349
0.05650000 0.05647670 34449.14680921 0 1494.74952152 0 11133.34349663 0 -1871.06274277 0 -2029.54485596 0 3324
0.05750000 0.05747970 32982.44692478 0 726.76288035 0 10693.41116967 0 -1441.46741138 0 549.14623418 0 3639
0.05850000 0.05849280 33600.11568282 0 -137.52529656 0 13488.11552070 0 1714.58813623 0 1416.81168056 0 3846
0.05950000 0.05951020 32739.10606373 0 312.92370334 0 12935.21935283 0 1044.20846468 0 619.42449452 0 3787
0.06050000 0.06049470 33442.62068616 0 784.80422310 0 13144.06659137 0 475.64376289 0 1465.02511369 0 3930
0.06150000 0.06148310 31083.63400724 0 420.28205332 0 13483.90086586 0 -771.01342881 0 2455.26935962 0 4083
0.06250000 0.06249100 31750.32585580 0 576.57920071 0 13502.42316477 0 33.78922059 0 2561.46757040 0 4303
0.06350000 0.06350600 30215.30419816 0 215.17476639 0 13279.82284202 0 1857.89749199 0 2639.83796804 0 4470
0.06450000 0.06451750 30697.43852950 0 1049.72189869 0 15727.09544864 0 -1089.27088876 0 947.43666219 0 4479
0.06550000 0.06550280 29548.61234961 0 306.47639055 0 13197.96980854 0 354.10309937 0 1328.00446660 0 4636
0.06650000 0.06648880 28826.90816419 0 -51.14760929 0 14921.65272626 0 1485.97638473 0 1586.61790584 0 4653
0.06750000 0.06749660 29553.82521217 0 -367.08978187 0 11748.35036740 0 545.96416978 0 -24.03684203 0 5220
0.06850000 0.06852730 29245.04628913 0 -212.90550750 0 11745.24483226 0 821.19998588 0 -1260.64762753 0 5029
0.06950000 0.06949320 29867.26243793 0 529.95291786 0 10893.99546648 0 -200.24490618 0 -1119.72287910 0 5040
0.07050000 0.07048030 29051.94855027 0 550.91195273 0 11510.99875271 0 -733.75588002 0 -642.12817468 0 5475
0.07150000 0.07148790 28201.36465631 0 213.85935044 0 10192.44398592 0 1973.39012582 0 -2474.26858000 0 5509
0.07250000 0.07249820 28012.59248425 0 518.02655378 0 11449.88625753 0 665.50730872 0 75.93488170 0 5916
0.07350000 0.07351270 27264.26942615 0 217.10130730 0 8527.55550322 0 852.79658775 0 -799.20725146 0 5721
0.07450000 0.07449140 27085.92297922 0 -60.06925720 0 10097.44788406 0 1597.35418448 0 1242.18078461 0 6028
0.07550000 0.07549160 27321.83273831 0 -0.36311470 0 7902.69964955 0 -56.89063107 0 425.09008720 0 6183
0.07650000 0.07648840 26639.72412600 0 847.60923494 0 10444.19197425 0 -1301.38559392 0 -176.87464509 0 6330
0.07750000 0.07749960 26419.67477854 0 829.30210525 0 9787.57093252 0 -1318.13330131 0 -160.06260876 0 6583
0.07850000 0.07848650 24845.16845977 0 465.58182901 0 11593.29543407 0 -599.56016079 0 -1603.12160690 0 6549
0.07950000 0.07947320 25095.16403899 0 -45.03913257 0 10363.64770201 0 807.61326962 0 -697.22702288 0 6828
0.08050000 0.08048110 24597.61294389 0 -161.12625455 0 8646.39767852 0 1634.28787032 0 -2917.16225653 0 7147
0.08150000 0.08149960 25274.95234152 0 446.34636615 0 10576.41013307 0 688.20877064 0 -799.13959515 0 7386
0.08250000 0.08250610 23769.54417974 0 682.89941466 0 7450.81101229 0 4.22489202 0 -2521.50598780 0 7227
0.08350000 0.08350160 23579.88471192 0 323.69214646 0 9246.19851828 0 847.79113057 0 496.48412195 0 7798
0.08450000 0.08449610 22275.78177475 0 226.08184947 0 6888.65369497 0 866.82140629 0 -1841.65997966 0 7371
0.08550000 0.08548940 22382.81182530 0 341.50239051 0 8116.50465312 0 412.23428081 0 -618.69358464 0 8256
0.08650000 0.08650700 21535.00073058 0 660.38539397 0 6708.83211884 0 -504.25683277 0 -1353.34785162 0 8037
0.08750000 0.08749060 21039.77878684 0 449.37537203 0 7805.69604104 0 201.39173595 0 -1365.17106757 0 8155
0.08850000 0.08849210 20289.23748935 0 77.37374268 0 6671.86515942 0 727.33407699 0 329.54608020 0 8718
0.08950000 0.08949900 20528.03095965 0 -68.22561252 0 6537.50639958 0 981.08735373 0 351.45452154 0 8571
0.09050000 0.09049190 20118.10032044 0 365.73000113 0 6322.19299323 0 756.13791547 0 639.41194054 0 8932
0.09150000 0.09150830 19852.90980141 0 531.95487891 0 6667.32885986 0 -261.67128224 0 1600.82572913 0 9285
0.09250000 0.09250820 19261.74900407 0 236.30793306 0 6661.35070471 0 164.46137747 0 1469.47268367 0 9204
0.09350000 0.09350330 19159.37725624 0 159.17309476 0 6909.39423326 0 82.51528885 0 2551.24148682 0 9349
0.09450000 0.09448040 18688.66685776 0 21.51115466 0 7051.94938763 0 898.09747257 0 2220.41326425 0 9564
0.09550000 0.09549270 19096.15743363 0 -257.04292575 0 6510.19987270 0 744.54095994 0 3103.02853499 0 10155
0.09650000 0.09649430 19217.82786415 0 -100.10492900 0 5704.65732955 0 806.44647570 0 2420.82010190 0 9913
0.09750000 0.09749140 19339.94194255 0 298.20235763 0 5492.61582629 0 -332.97547830 0 2053.09146709 0 10476
0.09850000 0.09850240 18701.08899834 0 788.34231493 0 7503.69383934 0 -1611.27363665 0 2025.95130815 0 10575
0.09950000 0.09950330 17794.05091191 0 497.18952208 0 6122.98400484 0 -281.77074935 0 1759.47421028 0 10882
0.10050000 0.10051200 17518.98922760 0 -242.00548093 0 7714.59294931 0 709.59814395 0 1118.79121856 0 10875
0.10150000 0.10150300 17979.05207701 0 -182.04092463 0 5753.12586021 0 213.76729350 0 417.06782444 0 11118
0.10250000 0.10250800 18164.05324210 0 -97.11640598 0 6654.32997704 0 1234.39476435 0 925.89090300 0 11575
0.10350000 0.10349800 18123.01581340 0 160.42307266 0 5698.71244798 0 -159.97166094 0 929.65525524 0 11364
0.10450000 0.10450100 17910.50847987 0 295.16447878 0 6332.68526554 0 -458.74965169 0 1138.18972202 0 12093
0.10550000 0.10551000 17491.81579507 0 570.54337133 0 6521.69035274 0 14.88438630 0 917.48155747 0 12067
0.10650000 0.10649700 16762.34777179 0 382.79269851 0 6986.52241684 0 -39.87828772 0 1771.54143255 0 12054
0.10750000 0.10749900 16316.81439038 0 349.16751673 0 6787.95671787 0 780.20470372 0 1859.22843563 0 12807
0.10850000 0.10850100 16142.34986238 0 -67.25590917 0 6376.41785511 0 1080.03635818 0 2446.92877952 0 12736
0.10950000 0.10950300 15712.89871655 0 317.33467236 0 6126.41118470 0 638.11205226 0 3042.84770035 0 12933
0.11050000 0.11050200 15811.05580954 0 85.68515294 0 5104.60139225 0 773.63316953 0 3196.05040380 0 13428
0.11150000 0.11150900 15110.86854620 0 182.25498473 0 4777.85473016 0 23.02709946 0 3217.95551777 0 13453
0.11250000 0.11250000 15226.88246628 0 116.93227119 0 4278.69541150 0 315.53346198 0 2623.28990219 0 13668
0.11350000 0.11349100 14929.30565216 0 49.35305362 0 4040.51195704 0 399.53818767 0 2788.09399765 0 13791
0.11450000 0.11448600 14639.04902802 0 87.17669710 0 4191.85133940 0 -81.15218074 0 2090.91244868 0 14205
0.11550000 0.11549300 14727.22404376 0 154.40388008 0 3686.39222088 0 -303.47733090 0 1302.41707524 0 14776
0.11650000 0.11649800 14354.55982630 0 279.26192060 0 3815.40502378 0 -476.08186516 0 213.29259027 0 14553
0.11750000 0.11747300 14101.23688800 0 248.42839308 0 4511.64382101 0 -558.47836729 0 427.55011468 0 14568
0.11850000 0.11849100 13891.61326568 0 125.51242114 0 4168.48218743 0 -50.73069119 0 -435.49917553 0 16015
0.11950000 0.11950300 13980.23192930 0 76.51650407 0 4393.18983760 0 82.85601042 0 -368.07357104 0 15270
0.12050000 0.12050700 13512.62706596 0 62.40362142 0 4104.29743069 0 661.34367339 0 -135.32147573 0 15999
0.12150000 0.12150000 13655.81441856 0 171.52979728 0 4185.04134447 0 326.47160041 0 -391.12329654 0 15670
0.12250000 0.12250700 13362.23043534 0 160.63491452 0 3900.05303889 0 2.00452312 0 117.71198233 0 16887
0.12350000 0.12352200 13123.65878898 0 145.83038483 0 3893.95288057 0 -88.06133097 0 -301.53082583 0 16407
0.12450000 0.12449800 13198.08072051 0 -89.03824360 0 4222.90669085 0 -175.39064294 0 606.58088846 0 16306
0.12550000 0.12549900 13195.08609733 0 -21.11198248 0 3538.52438316 0 430.49704571 0 -249.87357605 0 17523
0.12650000 0.12650100 13258.30591994 0 -1.94283388 0 3395.79176964 0 410.13360811 0 35.13169907 0 17154
0.12750000 0.12750600 13326.84951708 0 -70.05865464 0 3230.13365202 0 418.72152191 0 968.61973924 0 18007
0.12850000 0.12850300 13441.64340549 0 -55.47938717 0 2645.51666088 0 979.35269053 0 793.80583854 0 17496
0.12950000 0.12949900 13230.68883953 0 108.73310384 0 2688.08467477 0 359.92486865 0 1557.71424659 0 18405
0.13050000 0.13049000 13193.20059385 0 208.95815050 0 2261.00704508 0 -264.58493968 0 1040.13799540 0 18100
0.13150000 0.13148800 12785.71001797 0 343.12614175 0 2763.44935803 0 -268.83952283 0 2054.84387620 0 19059
0.13250000 0.13249300 12458.07606012 0 268.80957660 0 3567.72750473 0 -617.10532524 0 1397.61281864 0 18957
0.13350000 0.13349100 12022.19202006 0 388.19965703 0 3541.01990248 0 -115.16766175 0 1444.35112258 0 19468
0.13450000 0.13450700 11827.54151362 0 124.74934679 0 3906.78539544 0 -39.96302446 0 1254.60292519 0 19953
0.13550000 0.13551000 11526.41551647 0 228.68051692 0 3988.66061131 0 -347.90312027 0 443.70333391 0 19956
0.13650000 0.13649900 11426.92747985 0 323.11762245 0 4619.64989689 0 -261.46054950 0 1244.83158068 0 19723
0.13750000 0.13749600 11051.01354168 0 143.19622556 0 4614.04884243 0 -179.19603261 0 664.05768928 0 20946
0.13850000 0.13851100 11014.36822696 0 59.33712729 0 4754.39684861 0 102.95115196 0 945.28053350 0 20955
0.13950000 0.13949800 11127.35425027 0 -166.30917088 0 4726.58012667 0 343.92914441 0 105.35838535 0 20506
0.14050000 0.14048300 11326.99579534 0 -183.80553407 0 4198.20659525 0 447.67287330 0 903.11180271 0 21447
0.14150000 0.14148400 11410.95615624 0 -36.24902625 0 3710.54884783 0 428.60377839 0 97.39080219 0 21771
0.14250000 0.14249400 11520.53718209 0 58.78090376 0 3409.83322497 0 -89.62574430 0 303.49285857 0 22470
0.14350000 0.14350900 11546.37967098 0 10.50430626 0 3349.64129914 0 330.29473600 0 553.41412677 0 22519
0.14450000 0.14449900 11351.50734060 0 76.73921530 0 2977.07690245 0 225.08253263 0 -139.33094342 0 22218
0.14550000 0.14550500 11249.35741670 0 67.69866976 0 3035.35005121 0 18.95507741 0 125.84626617 0 23559
0.14650000 0.14650700 11140.44186267 0 36.13434327 0 2402.96327482 0 385.19837913 0 -320.11412632 0 23044
0.14750000 0.14750500 10930.59641641 0 254.26458092 0 2871.07833321 0 121.43418803 0 413.62733515 0 23649
0.14850000 0.14849900 10569.67777652 0 287.59917335 0 2331.77997280 0 -424.23384679 0 -31.94863646 0 23640
0.14950000 0.14949500 10422.59741379 0 114.98354788 0 2948.73889425 0 191.64590119 0 157.21106202 0 24457
0.15050000 0.15050000 10137.77547616 0 85.59853069 0 2778.55556827 0 252.11954343 0 192.81158599 0 24591
0.15150000 0.15149900 10128.23704678 0 49.29648852 0 2654.86653991 0 175.17991020 0 348.14490837 0 25020
0.15250000 0.15250500 10086.16813676 0 161.20167468 0 2444.77708731 0 -49.20520797 0 254.22908909 0 25297
0.15350000 0.15350100 9807.59054301 0 175.77218012 0 2717.07706359 0 -26.26994362 0 526.67214180 0 25452
0.15450000 0.15450400 9590.60236592 0 151.94717995 0 2867.21859668 0 21.68240274 0 645.39785954 0 26061
0.15550000 0.15549900 9536.49950720 0 87.88753191 0 2703.74544486 0 -166.94802382 0 17.19102253 0 26128
0.15650000 0.15649500 9371.92832688 0 180.24193249 0 2997.66216398 0 126.27549549 0 193.46929397 0 26331
0.15750000 0.15749700 9025.83861731 0 254.70711968 0 2923.91679548 0 -496.94107927 0 -107.15660111 0 27345
0.15850000 0.15849900 8911.54383276 0 41.84741882 0 2948.97180938 0 151.10424898 0 434.47767629 0 26980
0.15950000 0.15949700 9037.78383643 0 -87.80667709 0 2876.46865493 0 644.92426543 0 134.71256901 0 27777
0.16050000 0.16050000 8940.90223108 0 31.69897361 0 2545.95098587 0 6.36074599 0 -115.00018468 0 28224
0.16150000 0.16150500 8986.56468892 0 99.11969797 0 2566.04823474 0 -122.13293343 0 274.29860997 0 28075
0.16250000 0.16249700 8854.15797975 0 65.99550555 0 2532.86337347 0 -28.68738091 0 -57.83804111 0 28590
0.16350000 0.16349900 8800.22148899 0 -2.49385563 0 2462.51191123 0 195.26384963 0 546.50320195 0 29163
0.16450000 0.16449100 8926.47258385 0 -69.60092095 0 2244.13733452 0 471.46903635 0 339.75441788 0 28996
0.16550000 0.16550500 8976.95971236 0 -52.51814849 0 2070.71537904 0 376.81787072 0 863.86782054 0 30777
0.16650000 0.16650700 8937.71905756 0 97.24362201 0 2137.93912374 0 20.51971256 0 527.25775700 0 29211
0.16750000 0.16749900 8914.63827671 0 190.71978624 0 2078.73431443 0 -150.18478876 0 920.07578844 0 30922
0.16850000 0.16850800 8535.04206116 0 174.56102141 0 2217.98429211 0 -78.34899163 0 814.85582123 0 30867
0.16950000 0.16949900 8371.67982131 0 188.38287105 0 2364.35481824 0 -268.02210161 0 1049.46458292 0 30852
0.17050000 0.17049200 8268.75351363 0 39.38217848 0 2311.60508555 0 410.49518113 0 540.66479587 0 31257
0.17150000 0.17149500 8234.91427174 0 41.68837106 0 2167.35297805 0 426.62510885 0 1004.85578879 0 32608
0.17250000 0.17250900 8013.02378559 0 -35.29074683 0 1714.65468341 0 301.32563869 0 1402.72586044 0 32361
0.17350000 0.17350400 8123.43665121 0 6.35117429 0 1629.76266197 0 365.58914293 0 1163.04509438 0 32508
0.17450000 0.17449800 8249.56574291 0 55.79304622 0 1158.95244271 0 -50.49844153 0 1319.95225761 0 32791
0.17550000 0.17549800 7972.08617766 0 170.00032122 0 1726.76627047 0 -228.52191280 0 823.20416517 0 33633
0.17650000 0.17650100 7884.99809922 0 184.60077289 0 1667.01799251 0 -416.75172533 0 1255.09093786 0 33984
0.17750000 0.17750300 7698.83235844 0 137.35227389 0 2074.88566909 0 -175.79879899 0 877.74068969 0 34069
0.17850000 0.17849800 7593.12216033 0 117.77187479 0 2172.13328393 0 -119.43666346 0 773.45016478 0 34536
