### header ###
fiducial parameters:
Omega_m = 0.31
Omega_nu = 0
Omega_de = 0.69
Omega_k = 0
H_0 = 100
w_de = -1
zeff = 0
beta = 0
fgrowth = 0
b_1 = 2
gamma = 0.55
Lx = 3500 Ly = 3500 Lz = 3500
nx = 700 ny = 700 nz = 700
xoffset = 1379.75464 yoffset = 22.6059522 zoffset = 368.141391
bins = 400 dk = 0.001
kx_ny = 0.628318531 ky_ny = 0.628318531 kz_ny = 0.628318531
############################
A(data) = 3.34400512 (not used)
A(ran) = 3.34697141 (used)
Ngal = 188119
weighted Ngal = 0
Nran = 9399747
weighted Nran = 0
SN(data) = 6624.92185
SN(ran) = 133.127069
SN(data+ran) = 6758.04891
############################
13 columns: k_central k_mean P_0(k) sigma^{lin}_{P_0(k)} P^img_1(k) sigma^{lin}_{P_1(k)} P_2(k) sigma^{lin}_{P_2(k)} P^img_3(k) sigma^{lin}_{P_3(k)} P_4(k) sigma^{lin}_{P_4(k)} N_modes
### header ###
0.00050000 0 0 0 0 0 0 0 0 0 0 0 0
0.00150000 0.00179520 30724.94469794 0 -43301.69656540 0 -76234.78766376 0 86126.24983809 0 54414.74317161 0 3
0.00250000 0.00253879 51725.23882364 0 -43404.62287308 0 -27431.96832401 0 -60807.37635666 0 -55322.33581789 0 6
0.00350000 0.00331552 89276.81524321 0 -29301.16774569 0 -88381.09017767 0 -18536.49563563 0 12553.68217782 0 7
0.00450000 0.00420575 117553.37821482 0 -17475.17899965 0 -70628.85307825 0 -56786.92837490 0 -16163.53404855 0 24
0.00550000 0.00557378 112813.00063915 0 5672.27103446 0 -64110.55663178 0 -46644.13967772 0 9696.02419291 0 45
0.00650000 0.00659388 105624.68498504 0 6621.20057176 0 -4244.70089286 0 -22457.34466879 0 -34263.59108427 0 40
0.00750000 0.00754703 100933.10867594 0 734.22171030 0 -36234.49678197 0 -18531.94824488 0 2542.56817080 0 57
0.00850000 0.00846663 79420.51216320 0 7172.52178966 0 -12256.43809960 0 183.82882558 0 -16918.06817694 0 75
0.00950000 0.00948925 77649.80257041 0 5194.60645549 0 -17621.13915149 0 -3879.60087172 0 9479.52402848 0 112
0.01050000 0.01054430 73881.45749529 0 3164.56249566 0 -1274.43398534 0 -102.51870619 0 -6475.62861181 0 105
0.01150000 0.01145670 63417.80047039 0 4347.73811251 0 -15871.39192094 0 -5314.04755542 0 7462.65641063 0 144
0.01250000 0.01249090 60134.80617372 0 6634.46564331 0 6441.95573788 0 -12541.92550905 0 -10920.85834549 0 169
0.01350000 0.01339930 55406.51800272 0 1077.75489897 0 2155.66285646 0 -11579.20961394 0 1196.61814755 0 180
0.01450000 0.01448870 51029.70986302 0 1487.38496674 0 9057.08251912 0 -707.46752502 0 -9018.10805304 0 267
0.01550000 0.01550050 53126.50064608 0 -3086.10336845 0 -130.62989942 0 -1081.27413576 0 -16135.25149634 0 238
0.01650000 0.01653350 59753.37991067 0 -6867.66915034 0 -3701.68698147 0 13156.59964392 0 -11974.05622530 0 315
0.01750000 0.01747870 70671.77601044 0 -7207.44796885 0 -2105.51955506 0 3047.78328299 0 -32314.64595652 0 297
0.01850000 0.01844180 68381.88748851 0 -3763.57586044 0 -5708.77216361 0 -7854.68585796 0 -14582.15118768 0 388
0.01950000 0.01947590 77782.23146198 0 -1208.25281315 0 -19263.41268361 0 -8605.74844170 0 -24221.51045538 0 399
0.02050000 0.02045430 78364.29747782 0 2131.67259746 0 3125.77657993 0 -16816.36190093 0 -25820.19558349 0 462
0.02150000 0.02154770 75924.67779709 0 2750.49483999 0 48.87147385 0 -6958.81660686 0 -33489.86918516 0 571
0.02250000 0.02255340 74444.11391647 0 5661.17983751 0 23994.91730172 0 -6183.49757539 0 -19419.35491270 0 510
0.02350000 0.02348930 63491.33510616 0 3975.02953026 0 16293.19014088 0 -5538.71084081 0 -21213.57784302 0 555
0.02450000 0.02439640 66272.23091699 0 130.42803963 0 27732.09611343 0 5149.94220538 0 -17874.90573766 0 592
0.02550000 0.02547300 60356.40828875 0 2629.35678692 0 21926.40907088 0 2211.91740738 0 -14944.94423985 0 837
0.02650000 0.02652900 61088.09455142 0 2288.72394625 0 20570.73206790 0 2596.70430311 0 -15680.73424540 0 723
0.02750000 0.02749970 56410.82588639 0 -1557.40369308 0 16040.86541031 0 6614.29075606 0 2274.20556945 0 826
0.02850000 0.02848090 57884.40231293 0 -2595.43990666 0 8611.88187361 0 10422.41995464 0 -13808.31837660 0 831
0.02950000 0.02946900 61241.37489324 0 32.28580884 0 2444.93236407 0 827.70719113 0 -6955.79980129 0 996
0.03050000 0.03053250 56697.86606341 0 3618.52518675 0 -4402.24025431 0 -5002.08545886 0 -12076.98253298 0 1041
0.03150000 0.03150510 53935.82528739 0 3293.85257849 0 8891.80150219 0 -8218.26638512 0 -10081.48765165 0 1036
0.03250000 0.03246190 50044.58975008 0 2310.36287150 0 9640.55711697 0 -3822.68084898 0 -13058.88619881 0 1059
0.03350000 0.03345080 48075.45864389 0 1487.03004844 0 10609.79463588 0 590.45872457 0 -14161.01843955 0 1302
0.03450000 0.03451200 48460.65591390 0 -3194.30908588 0 5978.88717409 0 6720.16732213 0 -9658.32521448 0 1339
0.03550000 0.03553350 52043.99982393 0 -3373.25445744 0 8964.44884220 0 4626.13824710 0 -9095.48024295 0 1365
0.03650000 0.03647120 54026.99492630 0 495.10548617 0 2281.51466823 0 399.61915340 0 -8539.98873500 0 1308
0.03750000 0.03744890 52940.50127326 0 1984.90278825 0 8274.04401457 0 -5101.52913070 0 -4732.14790753 0 1579
0.03850000 0.03847530 52077.93888659 0 1560.81978174 0 12059.68026574 0 -3809.67087496 0 -2836.58471070 0 1662
0.03950000 0.03950240 50138.86492414 0 1521.46821496 0 12577.63916322 0 -587.66817942 0 -1687.48125088 0 1683
0.04050000 0.04050350 50031.28031374 0 1496.39101866 0 19951.39963031 0 -459.00031274 0 -2589.07355961 0 1822
0.04150000 0.04152450 46198.16264843 0 1612.71549226 0 15289.65864100 0 -3136.80122970 0 -167.94290419 0 1887
0.04250000 0.04250150 44493.88932537 0 2561.82248871 0 23371.70294520 0 1350.89669710 0 -5411.05116393 0 1920
0.04350000 0.04349210 42325.33849805 0 2269.23671321 0 22544.41056484 0 220.21238805 0 2076.20552153 0 2005
0.04450000 0.04448520 39327.94252279 0 1181.85576441 0 25617.33759131 0 2293.51534333 0 4710.97481256 0 2151
0.04550000 0.04548030 39327.60978689 0 657.36526104 0 21733.75497989 0 3679.10530448 0 4555.25440741 0 2274
0.04650000 0.04648670 36784.95288651 0 94.01586188 0 20242.54355020 0 3544.97945979 0 3062.70094289 0 2311
0.04750000 0.04749250 37215.95679991 0 1231.73287708 0 19285.92781342 0 259.12141606 0 6071.90904290 0 2568
0.04850000 0.04851840 36134.23236155 0 650.66839633 0 19487.78759787 0 201.40393626 0 4519.54075323 0 2493
0.04950000 0.04949480 35192.14609277 0 -360.50826561 0 17953.76414797 0 1820.37597272 0 1310.40273704 0 2644
0.05050000 0.05050630 34699.58603630 0 407.65916207 0 16209.00795604 0 145.55975963 0 68.73225840 0 2829
0.05150000 0.05149060 35011.02684661 0 508.84526095 0 16596.64528938 0 -704.67808899 0 -3886.98760888 0 2784
0.05250000 0.05249300 33734.98463771 0 257.41004437 0 14506.39831252 0 598.38782127 0 -2690.36946134 0 3055
0.05350000 0.05348950 34319.49071689 0 -272.64823986 0 13808.98384842 0 813.16441370 0 -4783.54451419 0 3009
0.05450000 0.05448610 34592.77780969 0 -368.75789790 0 11816.00666879 0 2130.63002495 0 -3556.15938631 0 3336
0.05550000 0.05550870 35410.42084871 0 -433.52272423 0 12837.61681969 0 2107.48269692 0 -4280.25927027 0 3349
0.05650000 0.05647670 35454.78563651 0 -590.80144256 0 7043.19843324 0 1171.95132553 0 -5258.14792280 0 3324
0.05750000 0.05747970 36136.45060094 0 -115.04344035 0 10210.37845138 0 1854.70322727 0 -224.47362592 0 3639
0.05850000 0.05849280 36626.57059408 0 137.77152113 0 6536.68565101 0 -1463.03978944 0 -4221.95284792 0 3846
0.05950000 0.05951020 36492.03437510 0 473.87693521 0 10877.34757986 0 -490.19430416 0 -3057.29952997 0 3787
0.06050000 0.06049470 35421.17930975 0 753.59470401 0 10669.30999871 0 -2944.12495631 0 -4316.66057866 0 3930
0.06150000 0.06148310 34968.32573836 0 907.98305641 0 12952.63253204 0 -501.50732505 0 -1897.40433552 0 4083
0.06250000 0.06249100 34203.80953272 0 691.41745391 0 14983.87434114 0 -431.31557604 0 -3374.70740424 0 4303
0.06350000 0.06350600 33632.39106594 0 47.66020423 0 14571.94728648 0 2119.72737835 0 -486.71610480 0 4470
0.06450000 0.06451750 33837.02364964 0 87.98391441 0 14696.94507609 0 1659.75325851 0 -772.88784110 0 4479
0.06550000 0.06550280 33550.20529656 0 874.44105859 0 13747.42770535 0 751.11471237 0 648.49673996 0 4636
0.06650000 0.06648880 32556.87769787 0 755.78077892 0 15264.70344787 0 14.08005270 0 3305.60924725 0 4653
0.06750000 0.06749660 31224.27038454 0 703.72424605 0 13742.76940263 0 -461.98828120 0 1101.44347741 0 5220
0.06850000 0.06852730 30714.29714887 0 546.01629840 0 16475.97306658 0 -37.61235618 0 1684.74172524 0 5029
0.06950000 0.06949320 29426.27644727 0 931.51303073 0 14187.08275238 0 -684.74831719 0 -1193.13551171 0 5040
0.07050000 0.07048030 29829.33054437 0 487.26622817 0 16377.03958981 0 408.69397075 0 443.74215310 0 5475
0.07150000 0.07148790 28407.43909560 0 -384.16800693 0 14684.52293551 0 1333.86061858 0 -2774.16345428 0 5509
0.07250000 0.07249820 28431.17425707 0 580.03854504 0 13457.61472910 0 769.14788949 0 -1867.62447172 0 5916
0.07350000 0.07351270 27899.90592325 0 760.53335682 0 13650.37973206 0 -208.72523537 0 -1440.60229801 0 5721
0.07450000 0.07449140 26223.69332847 0 510.89158679 0 11987.03292573 0 893.05985091 0 -2566.71370656 0 6028
0.07550000 0.07549160 26130.08362623 0 326.36845228 0 12541.92550905 0 1801.38784354 0 -931.71378140 0 6183
0.07650000 0.07648840 25236.46588811 0 638.15308969 0 11180.48108366 0 990.65018374 0 -1792.34851803 0 6330
0.07750000 0.07749960 24297.48515447 0 445.24611941 0 10708.09591443 0 1078.74645198 0 1034.66005323 0 6583
0.07850000 0.07848650 23752.90738431 0 -26.36965348 0 9408.59582400 0 2118.93990337 0 1235.16005694 0 6549
0.07950000 0.07947320 23889.99457859 0 -91.36650766 0 8062.54597997 0 1394.01927083 0 2407.75467190 0 6828
0.08050000 0.08048110 23440.80110219 0 478.63284046 0 8293.70870676 0 29.88645021 0 164.83071433 0 7147
0.08150000 0.08149960 22910.42006413 0 598.25029043 0 7284.87561474 0 -622.73188945 0 2324.52633000 0 7386
0.08250000 0.08250610 22309.16627756 0 57.64294696 0 7858.09085542 0 -394.92757709 0 579.75017392 0 7227
0.08350000 0.08350160 22563.48742359 0 -151.80632175 0 7029.23461628 0 1161.86942751 0 -9.90093406 0 7798
0.08450000 0.08449610 22845.53656198 0 93.00135009 0 7061.11071631 0 346.68308861 0 -1096.91715994 0 7371
0.08550000 0.08548940 21872.61676568 0 468.16607790 0 6575.00573647 0 -870.39720819 0 -2548.05831329 0 8256
0.08650000 0.08650700 21786.54907736 0 515.83049679 0 7317.48373377 0 273.75625044 0 286.48450805 0 8037
0.08750000 0.08749060 20942.73081354 0 180.18980386 0 7340.48687624 0 -497.03313620 0 -1571.28987165 0 8155
0.08850000 0.08849210 21059.41020544 0 423.77356212 0 7301.19076545 0 876.30105232 0 599.97829891 0 8718
0.08950000 0.08949900 20214.48282192 0 387.50202074 0 7388.99977169 0 430.81092658 0 -1350.74142034 0 8571
0.09050000 0.09049190 19951.84327819 0 510.52779553 0 7948.36210738 0 -268.42138470 0 1710.96131482 0 8932
0.09150000 0.09150830 19163.14826320 0 470.71816232 0 7759.10192266 0 385.28932695 0 305.95954077 0 9285
0.09250000 0.09250820 18566.10913148 0 149.33631219 0 8364.61472885 0 -149.84207077 0 1055.46935694 0 9204
0.09350000 0.09350330 18478.04502771 0 249.73493608 0 7931.82513273 0 -24.65517626 0 293.36881400 0 9349
0.09450000 0.09448040 18422.47813100 0 344.68001844 0 8646.26458415 0 -579.66698994 0 -780.78033685 0 9564
0.09550000 0.09549270 17676.26240032 0 233.37763883 0 8258.21687653 0 -537.60473464 0 -515.63972820 0 10155
0.09650000 0.09649430 17676.70604820 0 124.86469524 0 8088.86539032 0 212.61935462 0 -1983.48311504 0 9913
0.09750000 0.09749140 17590.08380003 0 -296.86586840 0 7405.31492240 0 1093.26150143 0 -1698.49480945 0 10476
0.09850000 0.09850240 17827.32450276 0 -61.84207412 0 7044.76229201 0 1225.63271876 0 -1926.19708280 0 10575
0.09950000 0.09950330 17845.29224181 0 221.64315245 0 6672.46408405 0 -134.85675457 0 -1611.91692608 0 10882
0.10050000 0.10051200 17491.03941129 0 256.42292784 0 6019.51422851 0 393.31935354 0 -2121.52415226 0 10875
0.10150000 0.10150300 17123.03349654 0 118.67137087 0 6215.20730747 0 142.82245222 0 -829.43630874 0 11118
0.10250000 0.10250800 16978.51520031 0 95.37830451 0 4954.01621129 0 154.81758172 0 -1233.69601894 0 11575
0.10350000 0.10349800 17239.04741662 0 -59.38493035 0 6219.29995914 0 760.83725561 0 -1417.28860203 0 11364
0.10450000 0.10450100 16839.65341452 0 150.68721998 0 5131.77482478 0 -242.11306554 0 -1304.71295300 0 12093
0.10550000 0.10551000 16750.70201499 0 332.76918204 0 6023.16323231 0 -381.77785399 0 -1506.42855190 0 12067
0.10650000 0.10649700 16626.92425705 0 343.74613966 0 6112.29209098 0 -668.22354286 0 -945.90164053 0 12054
0.10750000 0.10749900 16155.65929872 0 140.37906153 0 6824.75730935 0 148.43570700 0 -1186.71370867 0 12807
0.10850000 0.10850100 16140.02071102 0 163.18588982 0 7138.41635904 0 378.49707794 0 -686.18573631 0 12736
0.10950000 0.10950300 15842.11116099 0 165.77568431 0 6810.69367162 0 -101.56963247 0 -725.81569213 0 12933
0.11050000 0.11050200 15851.98232628 0 260.73407610 0 7474.82345368 0 307.98812070 0 215.87905740 0 13428
0.11150000 0.11150900 15697.59286476 0 -33.84700573 0 6678.39787442 0 896.23526060 0 716.34491906 0 13453
0.11250000 0.11250000 15329.80877396 0 163.28681971 0 6447.92280183 0 418.33665737 0 1004.23911824 0 13668
0.11350000 0.11349100 15121.29427133 0 429.85042893 0 6695.89978320 0 25.99100002 0 1262.53313101 0 13791
0.11450000 0.11448600 14384.50605806 0 516.25639875 0 6648.29636590 0 -58.21669457 0 1220.77477450 0 14205
0.11550000 0.11549300 14125.85934523 0 117.99591697 0 6957.50784562 0 8.01442128 0 1626.65712682 0 14776
0.11650000 0.11649800 14054.98659673 0 -166.79496531 0 5837.31913624 0 1102.04351117 0 1310.22527789 0 14553
0.11750000 0.11747300 14008.73630545 0 -112.09761844 0 6108.88709352 0 594.13323812 0 1412.86321445 0 14568
0.11850000 0.11849100 14234.33125138 0 204.56270915 0 5448.87214553 0 36.71330375 0 1367.00111507 0 16015
0.11950000 0.11950300 13834.38268943 0 172.26736188 0 5000.73233283 0 -5.85963462 0 1291.72516138 0 15270
0.12050000 0.12050700 13643.05954207 0 220.69263688 0 5680.54506738 0 -146.39381764 0 1191.99311842 0 15999
0.12150000 0.12150000 13516.50898489 0 133.05332595 0 5260.78762768 0 366.46534749 0 1020.07956572 0 15670
0.12250000 0.12250700 13116.56042294 0 325.93145912 0 5468.39265215 0 -237.05547973 0 396.68996829 0 16887
0.12350000 0.12352200 12862.23927691 0 322.87139788 0 5552.33083066 0 -541.14060822 0 486.35231354 0 16407
0.12450000 0.12449800 12490.79509112 0 121.93661925 0 5438.80133870 0 344.31844542 0 297.59012356 0 16306
0.12550000 0.12549900 12418.92413489 0 22.59443186 0 5399.49413671 0 219.84859679 0 315.66655634 0 17523
0.12650000 0.12650100 12371.01016408 0 -20.80087440 0 4586.32085006 0 740.81542688 0 12.74567080 0 17154
0.12750000 0.12750600 12210.74236818 0 4.12040185 0 4585.61101345 0 424.37914147 0 584.85877923 0 18007
0.12850000 0.12850300 12305.23936618 0 -57.27549560 0 3984.34613569 0 617.58335583 0 464.67789646 0 17496
0.12950000 0.12949900 12412.93488854 0 -5.07087306 0 3721.77313914 0 338.96805201 0 904.42167307 0 18405
0.13050000 0.13049000 12320.76704190 0 110.34886941 0 3658.74186689 0 153.84266551 0 1105.64149546 0 18100
0.13150000 0.13148800 11971.06160213 0 261.24981676 0 3936.73162720 0 -528.10512445 0 1343.88706063 0 19059
0.13250000 0.13249300 12161.60836570 0 192.18936984 0 4470.28474759 0 -550.44057686 0 716.84069556 0 18957
0.13350000 0.13349100 11698.77271705 0 94.43888013 0 4770.31271623 0 -55.62035628 0 725.26002316 0 19468
0.13450000 0.13450700 11918.26750465 0 -102.36964050 0 4420.70709723 0 432.67202943 0 663.00069821 0 19953
0.13550000 0.13551000 11926.25316645 0 -12.10282502 0 4365.63930438 0 411.45567879 0 98.03442435 0 19956
0.13650000 0.13649900 11898.63608605 0 245.48811677 0 4337.39002575 0 -335.63292909 0 528.97911077 0 19723
0.13750000 0.13749600 11442.01150769 0 93.79947262 0 4123.69593415 0 90.91365409 0 -357.99832774 0 20946
0.13850000 0.13851100 11577.54593440 0 50.30057458 0 3931.13057274 0 105.32023163 0 258.66113139 0 20955
0.13950000 0.13949800 11570.55848032 0 -11.11947950 0 3432.65890829 0 264.30211416 0 -742.16078907 0 20506
0.14050000 0.14048300 11282.18735967 0 166.75503700 0 3637.11403284 0 119.77272672 0 -505.79074531 0 21447
0.14150000 0.14148400 11170.94265428 0 140.59755811 0 3446.30108054 0 -342.00814910 0 -962.98762943 0 21771
0.14250000 0.14249400 10960.96411366 0 36.37568772 0 3083.91840265 0 489.82053082 0 -988.40199812 0 22470
0.14350000 0.14350900 10916.82114980 0 180.42493724 0 3556.61412539 0 -96.72289031 0 -1182.67651298 0 22519
0.14450000 0.14449900 10561.11537248 0 245.58682843 0 3132.12074459 0 -456.96729634 0 -1167.67012351 0 22218
0.14550000 0.14550500 10168.13208221 0 368.63256737 0 3790.37219227 0 173.56725016 0 -1013.35053653 0 23559
0.14650000 0.14650700 10117.27894420 0 54.86937133 0 3321.19237896 0 -59.42552413 0 -891.16103799 0 23044
0.14750000 0.14750500 9925.22377784 0 -65.90466865 0 3565.18762063 0 678.13463645 0 -723.98231727 0 23649
0.14850000 0.14849900 10123.04636661 0 -59.47310536 0 3283.44903575 0 482.30735401 0 -249.87024869 0 23640
0.14950000 0.14949500 10043.41157252 0 -41.14323873 0 2870.97851244 0 62.08674592 0 -303.46734882 0 24457
0.15050000 0.15050000 10114.10686187 0 112.70652515 0 2456.46720890 0 295.74565750 0 -436.36983449 0 24591
0.15150000 0.15149900 10004.70329517 0 44.34182902 0 2618.39868434 0 -90.12018986 0 -158.79266671 0 25020
0.15250000 0.15250500 9893.50295457 0 100.95850752 0 2406.24626911 0 51.93563883 0 -418.85572539 0 25297
0.15350000 0.15350100 9717.44129422 0 165.87883244 0 2401.17759211 0 64.72911269 0 -490.67455299 0 25452
0.15450000 0.15450400 9626.34929368 0 102.42398737 0 2269.19234842 0 208.19174880 0 -341.25727506 0 26061
0.15550000 0.15549900 9389.24168532 0 87.50688203 0 2038.62854627 0 255.08422037 0 -283.99453434 0 26128
0.15650000 0.15649500 9202.16646640 0 220.19575125 0 2285.23021921 0 -80.24425536 0 -140.07849010 0 26331
0.15750000 0.15749700 8966.07924816 0 194.78692816 0 2456.55593847 0 -145.05289193 0 -353.50084737 0 27345
0.15850000 0.15849900 8742.07034339 0 154.06559857 0 2471.41814238 0 -262.85027648 0 -36.25501550 0 26980
0.15950000 0.15949700 8768.01265305 0 119.18267505 0 2675.32979827 0 -18.23259684 0 -14.21769446 0 27777
0.16050000 0.16050000 8502.17884460 0 -2.45494771 0 2568.47720688 0 257.86034697 0 284.31285169 0 28224
0.16150000 0.16150500 8718.39063791 0 -88.15538432 0 2549.25616256 0 495.49256894 0 399.92083396 0 28075
0.16250000 0.16249700 8776.79688104 0 -123.26423552 0 1903.36030828 0 439.11268750 0 374.98671410 0 28590
0.16350000 0.16349900 8857.57406841 0 118.22439563 0 2262.92582215 0 -41.47331275 0 580.07292775 0 29163
0.16450000 0.16449100 8607.09047653 0 241.14147669 0 2119.45009843 0 -516.72777462 0 353.85909303 0 28996
0.16550000 0.16550500 8340.19191317 0 284.89957601 0 2350.87901395 0 -412.80769569 0 173.91995023 0 30777
0.16650000 0.16650700 8179.49156059 0 -6.11445487 0 2533.02974143 0 39.74463879 0 -188.66236921 0 29211
0.16750000 0.16749900 8231.50927427 0 -148.29152144 0 2496.46206509 0 267.66718331 0 -392.82024967 0 30922
0.16850000 0.16850800 8467.16393583 0 -37.64463156 0 1921.72733043 0 339.25975049 0 -893.51458999 0 30867
0.16950000 0.16949900 8385.39963193 0 55.48105085 0 1659.53143457 0 -7.87702353 0 -617.63215710 0 30852
0.17050000 0.17049200 8284.40319252 0 181.18024775 0 2013.56244116 0 -316.90211568 0 -623.60809401 0 31257
0.17150000 0.17149500 8075.46722441 0 117.68092698 0 1693.02684936 0 120.04778841 0 -711.40933641 0 32608
0.17250000 0.17250900 7939.40042025 0 52.32682535 0 2090.20261207 0 18.30036405 0 -566.56384987 0 32361
0.17350000 0.17350400 7931.09311374 0 29.17273169 0 1797.87193411 0 252.36022240 0 -779.50484920 0 32508
0.17450000 0.17449800 7991.49577232 0 -79.17351121 0 1707.88905327 0 311.30106122 0 -360.39291716 0 32791
0.17550000 0.17549800 8061.81396097 0 -117.16407720 0 1186.10369284 0 206.01121948 0 -738.38201827 0 33633
0.17650000 0.17650100 8182.56382214 0 17.06391742 0 1107.43494201 0 187.92813197 0 -507.40562359 0 33984
0.17750000 0.17750300 8114.70787921 0 80.78794583 0 918.31117900 0 -123.85206896 0 -905.18696565 0 34069
