### header ###
fiducial parameters:
Omega_m = 0.31
Omega_nu = 0
Omega_de = 0.69
Omega_k = 0
H_0 = 100
w_de = -1
zeff = 0
beta = 0
fgrowth = 0
b_1 = 2
gamma = 0.55
Lx = 3500 Ly = 3500 Lz = 3500
nx = 700 ny = 700 nz = 700
xoffset = 1379.75464 yoffset = 22.6059522 zoffset = 368.141391
bins = 400 dk = 0.001
kx_ny = 0.628318531 ky_ny = 0.628318531 kz_ny = 0.628318531
############################
A(data) = 3.32727375 (not used)
A(ran) = 3.32559495 (used)
Ngal = 186456
weighted Ngal = 0
Nran = 9399747
weighted Nran = 0
SN(data) = 6722.43477
SN(ran) = 132.276812
SN(data+ran) = 6854.71159
############################
13 columns: k_central k_mean P_0(k) sigma^{lin}_{P_0(k)} P^img_1(k) sigma^{lin}_{P_1(k)} P_2(k) sigma^{lin}_{P_2(k)} P^img_3(k) sigma^{lin}_{P_3(k)} P_4(k) sigma^{lin}_{P_4(k)} N_modes
### header ###
0.00050000 0 0 0 0 0 0 0 0 0 0 0 0
0.00150000 0.00179520 53920.07578772 0 -14565.07074438 0 -33482.32717123 0 21243.08042690 0 -168363.26055432 0 3
0.00250000 0.00253879 83743.30617377 0 -11258.78493411 0 -8714.93018446 0 -20359.77750194 0 146115.42859588 0 6
0.00350000 0.00331552 85239.28681814 0 -13561.09559662 0 -39606.88612604 0 411.56326340 0 -46990.51775841 0 7
0.00450000 0.00420575 81472.38359862 0 -10103.74768392 0 -31415.92626781 0 -309.93018928 0 18982.69448885 0 24
0.00550000 0.00557378 103112.75070021 0 -7973.15093256 0 -51946.95185063 0 -20966.46597501 0 -24485.03729487 0 45
0.00650000 0.00659388 99819.99615022 0 442.06960060 0 10005.14694305 0 -37611.91253097 0 -563.91305380 0 40
0.00750000 0.00754703 91188.82668511 0 13065.31909304 0 -32955.49531619 0 -10435.66284379 0 12901.72393805 0 57
0.00850000 0.00846663 83673.54254496 0 -745.08775595 0 -5850.99458208 0 -7880.29543171 0 6988.98466256 0 75
0.00950000 0.00948925 91658.42796390 0 -8021.14254176 0 -26107.79032036 0 11674.37208376 0 7484.35079186 0 112
0.01050000 0.01054430 90100.78026449 0 -24.37456897 0 -6598.76308033 0 4742.89527738 0 5802.95860810 0 105
0.01150000 0.01145670 87573.42921590 0 4908.73085415 0 -9023.07690927 0 -22925.61500395 0 -261.82877724 0 144
0.01250000 0.01249090 88328.85064004 0 2949.34891008 0 -4772.88587393 0 -436.34432474 0 16289.64095785 0 169
0.01350000 0.01339930 79957.99156731 0 1828.01780742 0 13292.02315866 0 -7040.27035725 0 10911.36428090 0 180
0.01450000 0.01448870 87671.91904480 0 -5270.94716408 0 5604.01580844 0 -2762.70624783 0 14566.40168801 0 267
0.01550000 0.01550050 94864.89300163 0 -1572.87591282 0 25966.71029518 0 9732.56968685 0 -10272.74425182 0 238
0.01650000 0.01653350 93466.40397843 0 -519.47728234 0 2037.99634804 0 -2041.14624797 0 750.23407133 0 315
0.01750000 0.01747870 100691.87514232 0 4408.80624290 0 25803.00422822 0 -1873.61371807 0 -6818.01386160 0 297
0.01850000 0.01844180 89161.24497101 0 9599.00949320 0 28893.01169800 0 -21709.90890645 0 10081.05509497 0 388
0.01950000 0.01947590 77593.23746598 0 9784.44321498 0 45464.59088228 0 26.07606950 0 3015.74081501 0 399
0.02050000 0.02045430 68480.59914135 0 4919.09003210 0 43343.28855396 0 10673.01445849 0 11741.25200136 0 462
0.02150000 0.02154770 64605.88948749 0 352.95626960 0 35816.58048096 0 17369.59080470 0 15597.43935632 0 571
0.02250000 0.02255340 66037.43027760 0 -3684.97254767 0 29134.68887950 0 25308.44775630 0 27020.48491723 0 510
0.02350000 0.02348930 63585.72119219 0 -1033.96130782 0 12550.90937858 0 12991.34080939 0 21741.62972972 0 555
0.02450000 0.02439640 65582.69120272 0 1119.11286327 0 3824.34452852 0 4308.36436334 0 20573.94851501 0 592
0.02550000 0.02547300 60411.64244955 0 3706.19000743 0 6608.26823611 0 -5247.63346810 0 23107.17789799 0 837
0.02650000 0.02652900 59549.08006289 0 3396.77888617 0 3662.32432350 0 -3443.04026864 0 16957.33101414 0 723
0.02750000 0.02749970 53457.57287498 0 439.65504703 0 16665.41071046 0 -831.09887916 0 13524.49464669 0 826
0.02850000 0.02848090 55428.70039662 0 650.70277904 0 8458.06915434 0 -3649.72472377 0 3582.36788470 0 831
0.02950000 0.02946900 55094.74445651 0 -655.49417612 0 18174.70079117 0 -3132.74185162 0 2286.13969736 0 996
0.03050000 0.03053250 56387.09072492 0 1526.53689197 0 20693.73344205 0 -7962.96921376 0 -2021.72556212 0 1041
0.03150000 0.03150510 58497.30185629 0 -456.76876392 0 27153.91201652 0 -1191.18346104 0 -9616.02338932 0 1036
0.03250000 0.03246190 56116.79825529 0 -1658.94360114 0 22930.60604257 0 5071.99327323 0 -5824.90808686 0 1059
0.03350000 0.03345080 59913.86953051 0 1.49533735 0 26095.59000372 0 1922.78099414 0 -7654.71157698 0 1302
0.03450000 0.03451200 61857.71270766 0 -712.85341026 0 16361.40100211 0 6205.20304782 0 -4257.84396124 0 1339
0.03550000 0.03553350 60689.47693310 0 -1177.67438316 0 17272.32100747 0 9731.70457349 0 -3506.68155673 0 1365
0.03650000 0.03647120 60490.83359576 0 1311.01275287 0 7960.71770078 0 -3865.70360194 0 -4655.74065176 0 1308
0.03750000 0.03744890 55070.89838307 0 4541.07985771 0 13722.47251222 0 -3412.63929780 0 -6175.14590409 0 1579
0.03850000 0.03847530 52283.23694210 0 4089.21340284 0 16226.19931131 0 -4023.85297922 0 -8524.94907193 0 1662
0.03950000 0.03950240 45691.29494790 0 806.64500813 0 15134.82553161 0 -38.24133796 0 -4202.93144515 0 1683
0.04050000 0.04050350 45471.35651241 0 300.48936244 0 15512.92443557 0 8084.53982351 0 -4650.99361946 0 1822
0.04150000 0.04152450 46244.52385168 0 -786.87273133 0 11286.62383845 0 6178.96127584 0 801.98892365 0 1887
0.04250000 0.04250150 45110.67078766 0 -171.69949260 0 8420.39235830 0 6058.87688648 0 2021.70337972 0 1920
0.04350000 0.04349210 44626.54004087 0 1418.48645130 0 5719.98536373 0 1776.99830145 0 11936.01341977 0 2005
0.04450000 0.04448520 41629.14406561 0 1424.22060012 0 7315.63150388 0 -600.63267953 0 11416.39084274 0 2151
0.04550000 0.04548030 41339.99656117 0 2656.49694586 0 11842.73645343 0 -4650.22832688 0 13524.71647063 0 2274
0.04650000 0.04648670 38914.35178859 0 1170.01036607 0 15661.10282680 0 -1851.37586819 0 10096.93768900 0 2311
0.04750000 0.04749250 37494.01310741 0 1147.96106653 0 15333.02522107 0 -1349.96503655 0 9593.76335705 0 2568
0.04850000 0.04851840 36607.27191140 0 122.35808473 0 15647.01700667 0 225.50732547 0 5394.81365160 0 2493
0.04950000 0.04949480 36457.31892866 0 1258.61793849 0 18212.41086080 0 -1221.66207026 0 3251.56184452 0 2644
0.05050000 0.05050630 34062.95133147 0 1779.77110069 0 17671.93683351 0 755.35709520 0 3310.48937391 0 2829
0.05150000 0.05149060 33746.07583466 0 -50.43877089 0 17551.26461071 0 795.12901834 0 388.02663435 0 2784
0.05250000 0.05249300 32767.49952792 0 -725.23784077 0 16028.44326972 0 2534.77105935 0 1837.84460791 0 3055
0.05350000 0.05348950 35104.41472491 0 -1143.89059725 0 12926.90095512 0 4966.23871032 0 2523.72422719 0 3009
0.05450000 0.05448610 34464.34174903 0 44.26574340 0 10172.35782824 0 2913.22488162 0 1624.86035291 0 3336
0.05550000 0.05550870 35069.36654255 0 -761.89535580 0 7239.88971992 0 517.13371243 0 2454.27115190 0 3349
0.05650000 0.05647670 34794.41577021 0 733.68045989 0 7250.92546089 0 244.89695598 0 3607.68908733 0 3324
0.05750000 0.05747970 34330.36008989 0 741.93563777 0 4737.29422292 0 900.81592494 0 2506.03376806 0 3639
0.05850000 0.05849280 32474.47010455 0 734.13298072 0 9521.04946985 0 -1117.06099184 0 3131.45527277 0 3846
0.05950000 0.05951020 32851.90353670 0 1027.82898503 0 6219.18904717 0 -543.15587871 0 2209.77680637 0 3787
0.06050000 0.06049470 31154.72857968 0 218.94355512 0 10212.57450838 0 708.37589405 0 3942.32159046 0 3930
0.06150000 0.06148310 30599.17052454 0 457.41538070 0 9070.14794912 0 -1768.82408930 0 405.21577138 0 4083
0.06250000 0.06249100 31203.08619837 0 629.24685854 0 11304.03701766 0 -1233.38546543 0 1214.23096830 0 4303
0.06350000 0.06350600 29828.44324861 0 697.30909773 0 9468.49937871 0 -51.08727318 0 -1120.15543579 0 4470
0.06450000 0.06451750 29909.29807436 0 -4.73772678 0 11698.55089311 0 -481.26699974 0 950.72631120 0 4479
0.06550000 0.06550280 29244.15899338 0 -37.77029482 0 11106.83553592 0 1640.46566702 0 -1521.39057658 0 4636
0.06650000 0.06648880 30532.73425482 0 -191.54275306 0 11386.66643492 0 1323.39052866 0 -1706.96848392 0 4653
0.06750000 0.06749660 29838.09258996 0 -138.40039200 0 9777.32266654 0 -84.48109259 0 -2211.62903626 0 5220
0.06850000 0.06852730 30132.23113302 0 553.43741828 0 11160.51692915 0 -639.92324472 0 -808.92535822 0 5029
0.06950000 0.06949320 29516.33696649 0 428.98864292 0 11379.34624494 0 -1103.83584860 0 -1879.54750844 0 5040
0.07050000 0.07048030 29479.84692853 0 470.02163515 0 13023.83801645 0 -1346.16075600 0 -1683.21114006 0 5475
0.07150000 0.07148790 28373.16729703 0 739.79725500 0 13521.61093549 0 -234.74296517 0 -2128.10123205 0 5509
0.07250000 0.07249820 28789.30900653 0 525.09608272 0 15307.73729203 0 20.42233185 0 -2093.17505286 0 5916
0.07350000 0.07351270 27256.39467632 0 490.23534159 0 14326.16636211 0 480.14567973 0 -1166.01753517 0 5721
0.07450000 0.07449140 27362.09378323 0 252.75174165 0 15758.26171207 0 395.06288970 0 -82.57495949 0 6028
0.07550000 0.07549160 26726.12455022 0 136.88422538 0 13652.15432357 0 2078.19084578 0 -225.44410565 0 6183
0.07650000 0.07648840 27114.64917932 0 209.28312258 0 14117.20821161 0 1621.04498116 0 951.40620158 0 6330
0.07750000 0.07749960 26001.75847754 0 180.00458087 0 11939.11895491 0 603.95782038 0 544.36925566 0 6583
0.07850000 0.07848650 25526.27886436 0 611.10387857 0 11740.14288166 0 1186.91335022 0 1131.27990632 0 6549
0.07950000 0.07947320 24832.30267131 0 446.08794126 0 10493.35925032 0 609.68975096 0 1217.38086823 0 6828
0.08050000 0.08048110 23850.06626958 0 467.52057024 0 9037.61746847 0 1564.61297109 0 529.93849931 0 7147
0.08150000 0.08149960 23358.83715674 0 25.57175277 0 8426.34833106 0 1899.14565344 0 1627.63315215 0 7386
0.08250000 0.08250610 22846.42385774 0 -0.87111148 0 6434.92391901 0 743.64479122 0 908.98680973 0 7227
0.08350000 0.08350160 22886.68490266 0 274.49714239 0 5827.85834525 0 801.83475601 0 790.61268294 0 7798
0.08450000 0.08449610 22408.76522616 0 786.30375293 0 5773.50038900 0 -1324.58837794 0 1119.64524073 0 7371
0.08550000 0.08548940 21065.95401164 0 814.73159982 0 6528.85526597 0 -1151.64334392 0 189.85689112 0 8256
0.08650000 0.08650700 20435.97402498 0 743.65255506 0 8384.41251540 0 -895.32245509 0 -159.86962193 0 8037
0.08750000 0.08749060 20340.36790728 0 134.28888529 0 8323.98767443 0 460.23254473 0 -56.56377349 0 8155
0.08850000 0.08849210 19798.00837652 0 -121.99207523 0 8632.65568550 0 732.42937287 0 333.11190002 0 8718
0.08950000 0.08949900 20034.25087151 0 115.04898594 0 7955.39392625 0 198.62670055 0 86.03973850 0 8571
0.09050000 0.09049190 19961.60353150 0 180.14100259 0 8845.92831162 0 -389.57940193 0 821.22549564 0 8932
0.09150000 0.09150830 19483.68385500 0 347.07460786 0 8120.94113190 0 723.97677168 0 735.48943411 0 9285
0.09250000 0.09250820 19401.49808562 0 161.57655714 0 8852.13938191 0 -26.85921891 0 1190.32943888 0 9204
0.09350000 0.09350330 18743.45737068 0 244.03627909 0 7624.13314700 0 195.62985913 0 154.90520218 0 9349
0.09450000 0.09448040 18895.62859281 0 212.64930085 0 8963.68354961 0 410.33879525 0 -57.60113314 0 9564
0.09550000 0.09549270 18270.08508493 0 228.29897974 0 7053.47997281 0 383.74210497 0 434.83370371 0 10155
0.09650000 0.09649430 18409.72325451 0 -201.72669009 0 6773.51597945 0 1272.19356355 0 -713.19945560 0 9913
0.09750000 0.09749140 18255.00105708 0 -165.10355777 0 5520.70982816 0 898.70748840 0 1128.51819828 0 10476
0.09850000 0.09850240 18107.59904964 0 35.37459628 0 4681.38349910 0 700.27821116 0 -511.28532428 0 10575
0.09950000 0.09950330 18187.23384373 0 485.68795084 0 5011.21351395 0 -450.19944797 0 40.24729184 0 10882
0.10050000 0.10051200 17291.73060213 0 763.54905327 0 5440.72011577 0 -1080.81496021 0 -973.52981213 0 10875
0.10150000 0.10150300 16394.89641689 0 649.43505523 0 6273.18099391 0 -1255.14639384 0 -1559.57756768 0 11118
0.10250000 0.10250800 15995.39150282 0 198.30172848 0 7016.85684049 0 184.99561950 0 -223.30017728 0 11575
0.10350000 0.10349800 16127.70948241 0 -242.33710772 0 6605.51761927 0 741.76594246 0 -1461.70884581 0 11364
0.10450000 0.10450100 16088.89029309 0 -122.69525712 0 6020.71207778 0 786.78289263 0 -707.10151552 0 12093
0.10550000 0.10551000 16446.91413058 0 80.83042512 0 6539.23662631 0 119.99122330 0 -1675.19220467 0 12067
0.10650000 0.10649700 16366.05930483 0 221.72744555 0 6357.74027945 0 -254.91674330 0 262.02398230 0 12054
0.10750000 0.10749900 15791.53530291 0 202.53856571 0 6803.86149430 0 9.81071826 0 -515.85267918 0 12807
0.10850000 0.10850100 15679.62512570 0 195.02538890 0 6351.73994190 0 -370.96948257 0 143.64430992 0 12736
0.10950000 0.10950300 15906.99466314 0 38.95550013 0 6613.70292262 0 1285.74700622 0 53.36895421 0 12933
0.11050000 0.11050200 15496.39855212 0 28.01702896 0 6101.41162678 0 525.33343433 0 -397.68373954 0 13428
0.11150000 0.11150900 15678.40509404 0 35.78131047 0 5835.17853523 0 292.11218138 0 1705.16061882 0 13453
0.11250000 0.11250000 15179.30123137 0 280.12703396 0 5510.78320689 0 243.41406294 0 282.50055011 0 13668
0.11350000 0.11349100 15346.88921726 0 -31.00399921 0 4986.51341835 0 369.55424584 0 959.48613855 0 13791
0.11450000 0.11448600 14912.89068067 0 216.87726513 0 4884.29694727 0 -166.33246239 0 -556.54960814 0 14205
0.11550000 0.11549300 14673.43173856 0 367.17629321 0 5421.12197076 0 -453.33825670 0 245.44929758 0 14776
0.11650000 0.11649800 13901.15169505 0 522.37430299 0 5372.48707214 0 -562.35917711 0 -198.69435685 0 14553
0.11750000 0.11747300 13726.68716706 0 97.96077881 0 5626.26474952 0 494.35239390 0 -815.41370844 0 14568
0.11850000 0.11849100 13733.78553311 0 -145.25142435 0 5105.27795527 0 427.46693070 0 -789.21962860 0 16015
0.11950000 0.11950300 13755.30245519 0 112.94720412 0 4786.97169405 0 12.77273332 0 -1384.36992949 0 15270
0.12050000 0.12050700 13535.91857955 0 182.61766687 0 4850.85698847 0 126.72136161 0 -824.44194275 0 15999
0.12150000 0.12150000 13634.63023239 0 -128.22976440 0 4591.45607425 0 586.25405181 0 -616.08160776 0 15670
0.12250000 0.12250700 13646.16507722 0 -162.24313808 0 3788.26486485 0 608.31998814 0 -699.09145308 0 16887
0.12350000 0.12352200 13646.71963706 0 38.27461155 0 3816.81360579 0 544.20399682 0 -359.02093609 0 16407
0.12450000 0.12449800 13781.69950392 0 60.58322327 0 3669.54469271 0 72.11773536 0 461.61894434 0 16306
0.12550000 0.12549900 13642.17224631 0 133.61675875 0 3562.71428371 0 111.80591996 0 882.18493230 0 17523
0.12650000 0.12650100 13461.60756000 0 190.15080784 0 4145.85614565 0 47.42074529 0 912.77001701 0 17154
0.12750000 0.12750600 13224.92141712 0 58.36409658 0 3561.86026154 0 321.50274418 0 1404.17880724 0 18007
0.12850000 0.12850300 13169.24360844 0 104.00869759 0 4439.12957536 0 279.23308349 0 2284.23201149 0 17496
0.12950000 0.12949900 13191.09326643 0 245.87963603 0 3979.17763792 0 369.96905660 0 2396.56365418 0 18405
0.13050000 0.13049000 12861.79562904 0 155.92891966 0 3951.97093180 0 -32.78291629 0 2717.43198189 0 18100
0.13150000 0.13148800 12548.69113919 0 237.41927099 0 4014.65837695 0 238.95872913 0 2965.05404496 0 19059
0.13250000 0.13249300 12188.11632640 0 333.34925164 0 4565.26975825 0 -268.09086703 0 3180.70018722 0 18957
0.13350000 0.13349100 11899.74520575 0 208.06309091 0 3534.93083535 0 342.29762934 0 2674.46468491 0 19468
0.13450000 0.13450700 11749.34857513 0 -1.37407730 0 4484.84748918 0 167.40276290 0 2856.85941873 0 19953
0.13550000 0.13551000 11637.21657398 0 219.12988723 0 3601.30055789 0 17.80181475 0 2131.90551260 0 19956
0.13650000 0.13649900 11193.45778409 0 127.99795838 0 3456.62698490 0 115.18429855 0 2077.88029226 0 19723
0.13750000 0.13749600 11487.15267927 0 -180.68779860 0 3128.63810875 0 678.94207559 0 1657.41301596 0 20946
0.13850000 0.13851100 11426.37292000 0 28.18572607 0 2963.34600063 0 107.16259035 0 1813.23324188 0 20955
0.13950000 0.13949800 11493.25283760 0 74.04649451 0 2565.71549884 0 -90.06872671 0 1549.48457845 0 20506
0.14050000 0.14048300 11137.00359162 0 85.30283938 0 2671.18169062 0 -100.99466482 0 1624.88253531 0 21447
0.14150000 0.14148400 11143.99104570 0 51.82949607 0 2759.13488242 0 -36.12835403 0 958.93712431 0 21771
0.14250000 0.14249400 11272.42710636 0 79.69801391 0 2884.18812801 0 -92.89842378 0 707.72927727 0 22470
0.14350000 0.14350900 11171.16447822 0 177.20627188 0 2723.49886662 0 -433.55045223 0 156.32376627 0 22519
0.14450000 0.14449900 10806.77429368 0 198.54129833 0 3193.10014541 0 -351.21716992 0 340.99552281 0 22218
0.14550000 0.14550500 10736.43392264 0 155.41428812 0 3519.22570047 0 -202.05166216 0 223.45767227 0 23559
0.14650000 0.14650700 10778.29209992 0 -35.75968264 0 2966.50699176 0 656.79517352 0 -88.08728437 0 23044
0.14750000 0.14750500 10499.33740547 0 -22.23086243 0 3059.12957747 0 428.08360125 0 16.54252025 0 23649
0.14850000 0.14849900 10605.81289618 0 111.11937487 0 2303.34214383 0 98.33721403 0 -37.00666591 0 23640
0.14950000 0.14949500 10355.57331063 0 141.19426451 0 2696.54725804 0 134.44305293 0 212.73248483 0 24457
0.15050000 0.15050000 10306.59458491 0 168.10039919 0 2350.63500762 0 -226.37576619 0 182.62875807 0 24591
0.15150000 0.15149900 9945.45412108 0 124.77596567 0 2395.95363835 0 151.79744879 0 292.64234060 0 25020
0.15250000 0.15250500 9883.18814141 0 123.36405630 0 2778.68866264 0 104.47131141 0 634.64938057 0 25297
0.15350000 0.15350100 9708.44633349 0 197.64291138 0 2502.66204418 0 -46.06318278 0 138.65548953 0 25452
0.15450000 0.15450400 9574.88613984 0 95.30909544 0 2940.74214125 0 129.19137117 0 801.79150034 0 26061
0.15550000 0.15549900 9388.98658779 0 109.67729744 0 2654.32307125 0 4.36993160 0 660.08704077 0 26128
0.15650000 0.15649500 9417.67951430 0 59.53665792 0 2939.40010641 0 -69.82928869 0 930.51371389 0 26331
0.15750000 0.15749700 9345.02108309 0 119.00077942 0 3116.22705936 0 -105.31890069 0 456.17094840 0 27345
0.15850000 0.15849900 9234.55276148 0 55.55392001 0 3019.15690367 0 -3.82922466 0 872.78736113 0 26980
0.15950000 0.15949700 9117.80682241 0 90.11741706 0 2963.11308549 0 -39.74663521 0 524.96520659 0 27777
0.16050000 0.16050000 9050.10615624 0 164.60334479 0 3221.98162226 0 5.49918181 0 620.37722834 0 28224
0.16150000 0.16150500 8941.27933178 0 57.73034559 0 3023.18300816 0 162.74667842 0 404.01237651 0 28075
0.16250000 0.16249700 8737.65604701 0 92.41307300 0 2892.87253522 0 67.67748557 0 286.06193345 0 28590
0.16350000 0.16349900 8840.48253391 0 104.24338732 0 2964.25547878 0 63.94696148 0 571.18998812 0 29163
0.16450000 0.16449100 8724.65716418 0 -31.49789021 0 2760.64328520 0 269.87322238 0 401.48247449 0 28996
0.16550000 0.16550500 8560.97327962 0 9.14966074 0 2470.88576493 0 92.29949915 0 356.85482533 0 30777
0.16650000 0.16650700 8668.54679882 0 75.21772490 0 2519.35429559 0 102.26050313 0 351.31588157 0 29211
0.16750000 0.16749900 8588.86763995 0 19.65781565 0 2244.55880000 0 217.89876436 0 521.26740153 0 30922
0.16850000 0.16850800 8453.49958119 0 112.53350248 0 2518.63336779 0 -94.24578239 0 456.80869223 0 30867
0.16950000 0.16949900 8406.86109803 0 135.53886319 0 2242.64002293 0 27.33835862 0 674.67085564 0 30852
0.17050000 0.17049200 8286.65470550 0 96.00983726 0 2631.16465203 0 -102.88837579 0 418.32002058 0 31257
0.17150000 0.17149500 8260.55711908 0 30.63177864 0 2340.09837051 0 80.02875340 0 406.06646619 0 32608
0.17250000 0.17250900 8154.09271958 0 11.62346349 0 2701.98194454 0 191.87659808 0 524.57368734 0 32361
0.17350000 0.17350400 8174.05687408 0 58.85488205 0 2326.00145919 0 81.21750789 0 714.19988157 0 32508
0.17450000 0.17449800 8248.14606970 0 -134.42530701 0 2305.44947125 0 434.45882126 0 879.86132654 0 32791
0.17550000 0.17549800 8348.21084856 0 -7.04467356 0 2098.92029288 0 346.70194364 0 923.13252232 0 33633
0.17650000 0.17650100 8317.16658831 0 43.40861570 0 1738.22347692 0 212.39863980 0 1185.08330272 0 33984
0.17750000 0.17750300 8180.05721163 0 169.50676296 0 1998.19004219 0 -277.24886835 0 1072.96239277 0 34069
0.17850000 0.17849800 8089.51977094 0 188.65016889 0 2213.22616862 0 -395.32464195 0 1066.18788968 0 34536
