### header ###
fiducial parameters:
Omega_m = 0.31
Omega_nu = 0
Omega_de = 0.69
Omega_k = 0
H_0 = 100
w_de = -1
zeff = 0
beta = 0
fgrowth = 0
b_1 = 2
gamma = 0.55
Lx = 3500 Ly = 3500 Lz = 3500
nx = 700 ny = 700 nz = 700
xoffset = 1379.75464 yoffset = 22.6059522 zoffset = 368.141391
bins = 400 dk = 0.001
kx_ny = 0.628318531 ky_ny = 0.628318531 kz_ny = 0.628318531
############################
A(data) = 3.28134733 (not used)
A(ran) = 3.28421106 (used)
Ngal = 184312
weighted Ngal = 0
Nran = 9399747
weighted Nran = 0
SN(data) = 6664.13126
SN(ran) = 130.630752
SN(data+ran) = 6794.76201
############################
13 columns: k_central k_mean P_0(k) sigma^{lin}_{P_0(k)} P^img_1(k) sigma^{lin}_{P_1(k)} P_2(k) sigma^{lin}_{P_2(k)} P^img_3(k) sigma^{lin}_{P_3(k)} P_4(k) sigma^{lin}_{P_4(k)} N_modes
### header ###
0.00050000 0 0 0 0 0 0 0 0 0 0 0 0
0.00150000 0.00179520 52984.42241317 0 -49424.81366461 0 -84916.64389892 0 88496.99318578 0 17449.66924667 0 3
0.00250000 0.00253879 79960.20980670 0 -34383.93057115 0 -4920.89789720 0 -107476.36031554 0 -7882.69113025 0 6
0.00350000 0.00331552 88341.05095668 0 2350.26899812 0 -45875.18699330 0 -50905.15572129 0 2323.30629834 0 7
0.00450000 0.00420575 87460.18809506 0 16301.39762662 0 3985.07815469 0 -68603.26777960 0 -3525.84714505 0 24
0.00550000 0.00557378 55282.07477296 0 15350.32748831 0 40683.17587790 0 -24380.00365977 0 1635.53008438 0 45
0.00650000 0.00659388 63747.87449157 0 8585.79537839 0 72966.65557100 0 31744.55843339 0 3738.38775217 0 40
0.00750000 0.00754703 43201.43214499 0 -754.31674093 0 44514.18621578 0 28776.11048216 0 -952.07943723 0 57
0.00850000 0.00846663 51107.57006559 0 1212.56728876 0 41540.19266609 0 42389.22379247 0 20498.75019970 0 75
0.00950000 0.00948925 48926.26436179 0 -3484.17751812 0 25832.50681211 0 21858.08729768 0 31581.18510234 0 112
0.01050000 0.01054430 53770.23371695 0 -3880.37725550 0 3220.66176982 0 25005.76899158 0 38369.10854662 0 105
0.01150000 0.01145670 55116.48320253 0 -6268.05686092 0 4664.16996144 0 16656.64866487 0 32877.08055377 0 144
0.01250000 0.01249090 68202.65374583 0 -6793.06975967 0 -16835.54967165 0 -837.09034375 0 24199.77170936 0 169
0.01350000 0.01339930 67138.67522258 0 -1034.06778331 0 -12287.16071515 0 1211.76872258 0 17043.39870246 0 180
0.01450000 0.01448870 72361.18712959 0 -831.35064933 0 -10593.16893166 0 -12095.39391991 0 14289.56541218 0 267
0.01550000 0.01550050 78075.14997338 0 2993.39205316 0 9001.32707206 0 -15462.12675355 0 -5309.24506714 0 238
0.01650000 0.01653350 70926.87354025 0 2598.46780342 0 10584.12960614 0 -1404.23426322 0 13379.53270258 0 315
0.01750000 0.01747870 72238.51849135 0 30.75078719 0 32372.76382853 0 -5743.28796852 0 -5510.98284844 0 297
0.01850000 0.01844180 75042.48399183 0 2778.66648024 0 23117.71453509 0 -4108.25698800 0 -2075.76187365 0 388
0.01950000 0.01947590 70096.14288883 0 3569.49100504 0 36083.98923938 0 -3771.80552858 0 -7207.82506954 0 399
0.02050000 0.02045430 68992.79061642 0 3268.77538219 0 51367.54772206 0 -13689.19892137 0 -5786.34399507 0 462
0.02150000 0.02154770 66833.55639454 0 3906.44156833 0 56817.31825454 0 40.98607647 0 -2785.02173609 0 571
0.02250000 0.02255340 61408.18649535 0 2690.97947717 0 60932.59597021 0 4266.55055085 0 -17703.65765678 0 510
0.02350000 0.02348930 66236.29543888 0 -1627.75515532 0 45585.04128113 0 10404.46330678 0 -14375.07854065 0 555
0.02450000 0.02439640 59134.93476884 0 1337.59835196 0 51193.97048982 0 14523.03510794 0 -7450.53373236 0 592
0.02550000 0.02547300 59969.99098707 0 2328.69662005 0 40394.02837346 0 5762.60883360 0 6621.27821013 0 837
0.02650000 0.02652900 59269.69281176 0 -422.60898644 0 37112.36502042 0 9955.17000960 0 -2063.71683376 0 723
0.02750000 0.02749970 57867.54369356 0 1921.08404101 0 36886.88098646 0 6771.47519921 0 10897.61119669 0 826
0.02850000 0.02848090 53133.48810016 0 1572.56535930 0 28043.42601176 0 8352.51423298 0 10820.17245960 0 831
0.02950000 0.02946900 53785.20683283 0 -1543.17368739 0 27165.33594937 0 13126.43158822 0 31896.72965552 0 996
0.03050000 0.03053250 57708.49592933 0 -3346.49139920 0 20459.37645054 0 9373.02635538 0 22551.61984285 0 1041
0.03150000 0.03150510 58964.46307174 0 -427.38818320 0 17832.98101320 0 -702.81920438 0 26044.57049776 0 1036
0.03250000 0.03246190 58594.34982958 0 2928.10926792 0 20825.60777377 0 83.57438724 0 31961.28042175 0 1059
0.03350000 0.03345080 57552.77552417 0 -86.10440018 0 18819.09933387 0 -2469.17772060 0 25594.26790166 0 1302
0.03450000 0.03451200 58391.60274937 0 649.81991976 0 27880.27450466 0 2829.50852705 0 23639.88808741 0 1339
0.03550000 0.03553350 58219.57828470 0 1059.75832280 0 24030.85277984 0 5261.35327872 0 18473.27581302 0 1365
0.03650000 0.03647120 54371.04385564 0 1076.54484939 0 26577.50251112 0 -498.27535026 0 22872.04452269 0 1308
0.03750000 0.03744890 56562.10981276 0 2132.51552843 0 28054.18447280 0 -1179.95916973 0 21911.65777894 0 1579
0.03850000 0.03847530 50721.15276392 0 2231.47118760 0 29979.72717498 0 -516.35067392 0 15796.52634154 0 1662
0.03950000 0.03950240 50227.26176381 0 2082.18367668 0 27548.75862787 0 377.97690080 0 15680.40150949 0 1683
0.04050000 0.04050350 47535.98282433 0 835.42999157 0 31839.83181517 0 2572.71404411 0 15091.45895154 0 1822
0.04150000 0.04152450 45178.43800101 0 1440.77975716 0 30940.44665464 0 2569.96342727 0 11322.11566868 0 1887
0.04250000 0.04250150 45807.30886798 0 464.47160020 0 26497.20224521 0 4473.95593378 0 13596.47651489 0 1920
0.04350000 0.04349210 43432.01812954 0 142.99769313 0 23142.55881625 0 4343.75637280 0 16015.57748126 0 2005
0.04450000 0.04448520 45588.59046416 0 -536.89711627 0 20410.13153609 0 4963.33281672 0 12888.63632565 0 2151
0.04550000 0.04548030 43579.64196093 0 899.06906142 0 19101.92485605 0 -245.94729233 0 9593.79663064 0 2274
0.04650000 0.04648670 42341.30982166 0 1988.97325753 0 19133.42385538 0 -2089.16003956 0 7086.99756999 0 2311
0.04750000 0.04749250 39466.80430859 0 1384.21465273 0 19192.31811117 0 -877.30591477 0 6616.09862116 0 2568
0.04850000 0.04851840 38321.74913565 0 279.20202814 0 20033.47448773 0 1993.39864511 0 3341.91073486 0 2493
0.04950000 0.04949480 38945.51805202 0 -104.27399902 0 15507.48974907 0 3861.74404463 0 3403.40033074 0 2644
0.05050000 0.05050630 37571.20783817 0 82.77182823 0 15582.35532847 0 1960.33578701 0 2691.72258736 0 2829
0.05150000 0.05149060 37216.51135976 0 690.13863891 0 12220.83535740 0 1050.11230882 0 2648.33382490 0 2784
0.05250000 0.05249300 37721.93720469 0 153.48220161 0 13290.02674321 0 430.01236040 0 3176.47444118 0 3055
0.05350000 0.05348950 36413.61961268 0 506.44956241 0 11803.02996836 0 -1271.70555089 0 43.19932482 0 3009
0.05450000 0.05448610 35571.46502840 0 1365.22652355 0 15287.55131358 0 -642.00062591 0 3612.63576117 0 3336
0.05550000 0.05550870 34339.78760730 0 248.00360024 0 13990.10309458 0 -26.68541986 0 168.42537126 0 3349
0.05650000 0.05647670 34552.62767674 0 -445.82951637 0 12456.30146861 0 1794.30056869 0 2787.63925857 0 3324
0.05750000 0.05747970 35183.71678309 0 331.55580509 0 13994.76139730 0 925.53043910 0 -646.09105935 0 3639
0.05850000 0.05849280 34726.20490898 0 -74.85271361 0 11626.79084885 0 496.33217255 0 -912.46722733 0 3846
0.05950000 0.05951020 34723.54302171 0 688.04905740 0 14589.47137766 0 639.27995530 0 2432.34385553 0 3787
0.06050000 0.06049470 33164.56437867 0 431.90451860 0 9876.54451444 0 32.16070014 0 -536.76291279 0 3930
0.06150000 0.06148310 33020.26790637 0 339.82872890 0 12841.38782665 0 1007.23152318 0 2288.02520084 0 4083
0.06250000 0.06249100 33417.66549303 0 -447.92575259 0 10922.94349052 0 2361.78166055 0 743.59931732 0 4303
0.06350000 0.06350600 32658.58397389 0 288.82364149 0 9444.09874543 0 2385.22845090 0 2348.87150730 0 4470
0.06450000 0.06451750 32922.11081338 0 188.59138555 0 8140.33963536 0 122.57547219 0 2174.90608317 0 4479
0.06550000 0.06550280 31929.22686257 0 532.10793743 0 7617.99971508 0 -972.29536191 0 657.00257890 0 4636
0.06650000 0.06648880 31125.78055564 0 1005.37707505 0 9700.15011817 0 -1332.77368128 0 1531.17301229 0 4653
0.06750000 0.06749660 30154.41352692 0 943.87971533 0 9925.58978734 0 -1678.31992221 0 -567.83379192 0 5220
0.06850000 0.06852730 29587.98609877 0 158.69950065 0 10244.08459891 0 182.54113761 0 -1472.05693256 0 5029
0.06950000 0.06949320 28465.44605564 0 552.06432810 0 10531.00277276 0 -240.25861741 0 -4241.38462497 0 5040
0.07050000 0.07048030 29529.75731480 0 -118.10904718 0 9429.21435912 0 -587.25780513 0 -4555.46514015 0 5475
0.07150000 0.07148790 28451.02749961 0 492.21955672 0 10504.86082155 0 425.97627383 0 -5853.06863591 0 5509
0.07250000 0.07249820 28010.81789274 0 548.27002962 0 9831.25915730 0 -315.25618206 0 -5192.09984498 0 5916
0.07350000 0.07351270 26588.81553200 0 830.80828980 0 8911.98748064 0 515.53103447 0 -4592.49864676 0 5721
0.07450000 0.07449140 26488.77293553 0 455.57202377 0 9799.52724283 0 1044.52234556 0 -4155.51657820 0 6028
0.07550000 0.07549160 25422.68708487 0 328.41921459 0 10105.42245466 0 1426.02846522 0 -3008.33189545 0 6183
0.07650000 0.07648840 24639.09402048 0 903.14285806 0 9894.85608060 0 -241.16365908 0 -3190.10552223 0 6330
0.07750000 0.07749960 24512.09981542 0 312.19944818 0 10603.32846806 0 187.11736547 0 -264.25553113 0 6583
0.07850000 0.07848650 23161.30293910 0 524.13003946 0 11284.29468709 0 -920.66029452 0 -1034.09551131 0 6549
0.07950000 0.07947320 23636.78255227 0 45.80653248 0 10627.71801015 0 690.06432789 0 269.83883967 0 6828
0.08050000 0.08048110 23054.60562445 0 -29.39965757 0 11073.67285704 0 452.54190876 0 -150.59294480 0 7147
0.08150000 0.08149960 23527.75608626 0 267.75258553 0 10988.18191097 0 990.69122117 0 1286.96703789 0 7386
0.08250000 0.08250610 23136.34774596 0 -155.27232080 0 10311.07542848 0 586.75315567 0 -227.98731711 0 7227
0.08350000 0.08350160 23078.11896198 0 346.97145973 0 9822.76330044 0 449.65597932 0 575.31591338 0 7798
0.08450000 0.08449610 22495.94203417 0 456.35617139 0 9136.86149876 0 567.82048248 0 669.94489662 0 7371
0.08550000 0.08548940 21790.20917236 0 366.28677922 0 9565.08152174 0 122.13736991 0 -240.68341026 0 8256
0.08650000 0.08650700 21392.14611388 0 318.76210941 0 8311.16625076 0 508.22859040 0 -283.43775625 0 8037
0.08750000 0.08749060 21049.42812818 0 16.27389146 0 8540.60984202 0 1299.15626333 0 498.07238135 0 8155
0.08850000 0.08849210 20610.77128888 0 82.46227293 0 6260.29302306 0 1305.00132412 0 -7.84500324 0 8718
0.08950000 0.08949900 20883.28199790 0 -69.47525768 0 5914.55823179 0 514.58384625 0 466.42143262 0 8571
0.09050000 0.09049190 20451.94534858 0 -41.56703336 0 5316.25470362 0 741.15814487 0 255.00880023 0 8932
0.09150000 0.09150830 20248.20006064 0 640.51329640 0 4234.27516773 0 -622.42244506 0 -547.75317984 0 9285
0.09250000 0.09250820 19665.02492511 0 549.73850410 0 5435.87326270 0 -629.97111370 0 -950.25382621 0 9204
0.09350000 0.09350330 18539.37934683 0 521.46260660 0 5854.55485630 0 -261.04684785 0 -1047.93621598 0 9349
0.09450000 0.09448040 18542.26305804 0 498.09345463 0 5340.51115134 0 -757.24703516 0 -1927.12874334 0 9564
0.09550000 0.09549270 17637.66503494 0 362.45920715 0 6565.44512470 0 205.83597856 0 -991.04392123 0 10155
0.09650000 0.09649430 17516.54916427 0 150.56854417 0 6084.97447290 0 336.75203086 0 -1411.69863877 0 9913
0.09750000 0.09749140 17264.33534566 0 75.39640409 0 6522.36691575 0 -66.09588089 0 -1543.82806801 0 10476
0.09850000 0.09850240 17089.20534585 0 320.34925969 0 6447.46806276 0 -559.23700516 0 -1813.86544011 0 10575
0.09950000 0.09950330 16791.40670779 0 72.38802783 0 7109.16887269 0 253.32072006 0 -1256.36642551 0 10882
0.10050000 0.10051200 17141.44488348 0 -180.69112596 0 6712.98022650 0 1084.66915115 0 -905.11709111 0 10875
0.10150000 0.10150300 16901.98594137 0 -90.56905060 0 5617.83543984 0 876.76799171 0 -911.02869909 0 11118
0.10250000 0.10250800 17175.60577008 0 248.93526078 0 6159.34094844 0 350.47405973 0 1376.79464197 0 11575
0.10350000 0.10349800 16735.17433926 0 206.80867654 0 4446.71595407 0 1184.32910133 0 291.24041330 0 11364
0.10450000 0.10450100 16645.77929186 0 -221.77846506 0 5160.90030796 0 592.14125915 0 2271.72114133 0 12093
0.10550000 0.10551000 16220.76462481 0 220.01607386 0 4051.82497793 0 649.81881064 0 1242.22514940 0 12067
0.10650000 0.10649700 16360.84644226 0 430.29740416 0 3874.03309085 0 157.67023758 0 2643.76425176 0 12054
0.10750000 0.10749900 15405.33982517 0 411.20723598 0 4728.05525586 0 -653.13618765 0 1752.71967133 0 12807
0.10850000 0.10850100 14876.73337862 0 595.96994034 0 3945.44930800 0 -375.76864349 0 1633.74440167 0 12736
0.10950000 0.10950300 14532.12988944 0 342.39966835 0 5101.83968421 0 -172.06106562 0 1297.61458696 0 12933
0.11050000 0.11050200 13975.90636249 0 145.09282024 0 4917.67035889 0 -156.32265715 0 582.71706910 0 13428
0.11150000 0.11150900 13901.15169505 0 205.92914462 0 5500.80112964 0 -313.69121417 0 815.83739216 0 13453
0.11250000 0.11250000 13911.46650822 0 -246.82127865 0 4827.75402523 0 27.23753964 0 -1215.69500630 0 13668
0.11350000 0.11349100 14299.32566550 0 -284.37607151 0 4603.86712363 0 436.11030048 0 -148.13069908 0 13791
0.11450000 0.11448600 14489.76151710 0 -115.76991375 0 4173.43995246 0 -6.46577963 0 -1654.42948398 0 14205
0.11550000 0.11549300 14887.38092769 0 46.69382824 0 4328.01796433 0 144.98079915 0 -1198.43710385 0 14776
0.11650000 0.11649800 14457.59704595 0 230.02809735 0 4402.75044937 0 -318.14765710 0 -1686.69377590 0 14553
0.11750000 0.11747300 14155.69466502 0 318.35173512 0 4021.22436555 0 -270.48656557 0 -1289.86184029 0 14568
0.11850000 0.11849100 13886.17857917 0 187.41017307 0 5119.04213068 0 34.47010917 0 -1422.70110614 0 16015
0.11950000 0.11950300 13639.39944708 0 181.13477384 0 3988.18368984 0 470.63054186 0 -1565.87736754 0 15270
0.12050000 0.12050700 13664.02190430 0 71.89901695 0 5033.49572862 0 322.48431511 0 -21.42331238 0 15999
0.12150000 0.12150000 13244.99648360 0 0.45406140 0 3658.93041723 0 806.64389901 0 -1003.98291159 0 15670
0.12250000 0.12250700 13396.83496982 0 169.13188050 0 4096.05667136 0 307.23946490 0 460.21479881 0 16887
0.12350000 0.12352200 13053.67333624 0 236.86138379 0 3532.63495758 0 -191.75015844 0 -13.59614378 0 16407
0.12450000 0.12449800 12681.78550257 0 160.37759875 0 4199.30462375 0 -45.32029441 0 1395.19493771 0 16306
0.12550000 0.12549900 12612.02187376 0 161.14843694 0 4056.17272713 0 72.35575244 0 392.67606411 0 17523
0.12650000 0.12650100 12657.93942913 0 -13.36966154 0 3772.09389970 0 298.20124851 0 184.44660525 0 17154
0.12750000 0.12750600 12378.88491391 0 200.73070061 0 3965.86820158 0 -253.72776699 0 -25.45884439 0 18007
0.12850000 0.12850300 12263.98011353 0 308.49942488 0 4091.98620208 0 -269.23880592 0 536.48563286 0 17496
0.12950000 0.12949900 11695.88900584 0 268.84285019 0 4412.99871535 0 -219.59904486 0 -288.96893617 0 18405
0.13050000 0.13049000 11684.79780889 0 110.50536620 0 4432.26412445 0 544.62768054 0 575.74847006 0 18100
0.13150000 0.13148800 11580.65146955 0 -203.18074601 0 4084.10036105 0 632.26920971 0 387.16373923 0 19059
0.13250000 0.13249300 11904.07077256 0 -87.99312011 0 3972.98875002 0 516.42720318 0 666.47335198 0 18957
0.13350000 0.13349100 11762.43618753 0 184.14159733 0 3294.80642142 0 -47.05407032 0 604.81406078 0 19468
0.13450000 0.13450700 11664.61183045 0 206.21751574 0 3971.20306731 0 -545.10903849 0 859.35481251 0 19953
0.13550000 0.13551000 11389.10649825 0 248.28531664 0 4021.76783420 0 -535.23343673 0 172.92617898 0 19956
0.13650000 0.13649900 11174.60274927 0 195.09748168 0 4624.66311791 0 -435.61230574 0 -52.26294005 0 19723
0.13750000 0.13749600 11034.28801668 0 57.17390024 0 4323.72567111 0 -37.41626382 0 -973.03070827 0 20946
0.13850000 0.13851100 10985.34256455 0 47.75858315 0 4645.14855867 0 231.04626923 0 -991.64839146 0 20955
0.13950000 0.13949800 11132.67802481 0 -157.94973574 0 4062.16197348 0 563.99291042 0 -859.03871339 0 20506
0.14050000 0.14048300 11140.44186267 0 -39.01017973 0 3873.05706552 0 280.90452687 0 -1281.13306829 0 21447
0.14150000 0.14148400 11147.98387660 0 119.45995497 0 3211.03461087 0 132.70284413 0 -1403.94589210 0 21771
0.14250000 0.14249400 10788.10780922 0 200.58540593 0 3271.69236698 0 -48.23428458 0 -1196.35195882 0 22470
0.14350000 0.14350900 10661.81234957 0 134.62938504 0 3135.62556282 0 163.09272376 0 -879.96114732 0 22519
0.14450000 0.14449900 10571.39691205 0 35.96875170 0 2871.52198109 0 651.43479804 0 -435.00672639 0 22218
0.14550000 0.14550500 10338.91433282 0 -38.32130549 0 2774.09690710 0 774.72232507 0 63.08240267 0 23559
0.14650000 0.14650700 10567.29316918 0 -79.16619102 0 2026.94951588 0 435.34389877 0 546.61300480 0 23044
0.14750000 0.14750500 10566.07313751 0 98.63157440 0 2235.89657519 0 322.87583436 0 692.53433745 0 23649
0.14850000 0.14849900 10280.57463687 0 273.84276177 0 2259.32118314 0 -361.83033628 0 1507.99241067 0 23640
0.14950000 0.14949500 9911.58160560 0 257.52428370 0 2558.56167680 0 -240.21425262 0 1417.43278759 0 24457
0.15050000 0.15050000 9833.97650055 0 45.07994817 0 2696.93544993 0 184.98452830 0 1622.74193430 0 24591
0.15150000 0.15149900 9877.85327568 0 -74.09684854 0 2769.77134029 0 152.81118419 0 1435.03451715 0 25020
0.15250000 0.15250500 10031.83236291 0 36.85915299 0 2231.47118760 0 199.57610701 0 1063.83211944 0 25297
0.15350000 0.15350100 9831.52534603 0 92.47218908 0 2343.89155987 0 -276.18411345 0 945.43026466 0 25452
0.15450000 0.15450400 9613.63878198 0 242.23063223 0 2562.82069643 0 -361.46099942 0 763.22075384 0 26061
0.15550000 0.15549900 9389.95152193 0 238.10027049 0 2629.52315488 0 -156.52451693 0 527.13464472 0 26128
0.15650000 0.15649500 9314.79757140 0 49.00379183 0 2660.68941830 0 -45.01905750 0 91.94790820 0 26331
0.15750000 0.15749700 9099.88344814 0 82.31842010 0 2740.30203000 0 278.53988368 0 -54.60140802 0 27345
0.15850000 0.15849900 9003.44549067 0 122.31039259 0 2705.64203953 0 -181.23903109 0 275.28572649 0 26980
0.15950000 0.15949700 8956.94010187 0 141.95290238 0 2885.82962515 0 30.28506783 0 -90.64713263 0 27777
0.16050000 0.16050000 8873.57866561 0 16.31104697 0 2750.88303189 0 29.07146906 0 94.99466001 0 28224
0.16150000 0.16150500 8844.94119509 0 -7.35331939 0 2804.52006033 0 46.76581011 0 -117.56779677 0 28075
0.16250000 0.16249700 8770.03125090 0 151.58006133 0 2916.87388541 0 -34.34267132 0 -211.21188172 0 28590
0.16350000 0.16349900 8731.03460243 0 170.55599019 0 2995.61029255 0 -109.91220899 0 115.69560273 0 29163
0.16450000 0.16449100 8426.03777755 0 204.30761162 0 3368.49633395 0 -199.85782341 0 -34.70357887 0 28996
0.16550000 0.16550500 8317.96515449 0 86.76854105 0 3199.04502697 0 80.60183555 0 211.40930503 0 30777
0.16650000 0.16650700 8182.12017426 0 20.39970581 0 3354.45487861 0 288.78482230 0 93.23892353 0 29211
0.16750000 0.16749900 8221.85993293 0 -33.08603870 0 2961.40504116 0 496.52515938 0 801.35450718 0 30922
0.16850000 0.16850800 8367.86444956 0 -103.19804200 0 2715.50211362 0 279.42939767 0 585.66954573 0 30867
0.16950000 0.16949900 8442.48602262 0 -42.67293661 0 2177.00231939 0 345.24899684 0 753.51041091 0 30852
0.17050000 0.17049200 8423.95263252 0 -20.79610519 0 2080.95255382 0 271.43042644 0 591.52237036 0 31257
0.17150000 0.17149500 8402.19170411 0 123.15221443 0 1867.49137735 0 -114.48777138 0 705.97908639 0 32608
0.17250000 0.17250900 8233.83842563 0 91.37759886 0 1971.10533924 0 -72.40588465 0 560.61120447 0 32361
0.17350000 0.17350400 8131.75504892 0 31.93044689 0 1637.43777025 0 153.56982206 0 134.40645198 0 32508
0.17450000 0.17449800 8104.17124211 0 37.38421026 0 1699.81466189 0 94.41891597 0 188.92190322 0 32791
0.17550000 0.17549800 8023.39405474 0 147.27445868 0 1466.46696930 0 -180.22307745 0 37.32653603 0 33633
0.17650000 0.17650100 7851.13667494 0 134.29997649 0 1588.00430546 0 -85.56714260 0 -8.61219243 0 33984
0.17750000 0.17750300 7670.09506715 0 89.42599184 0 1766.51712034 0 -21.36619271 0 -106.58274258 0 34069
0.17850000 0.17849800 7584.01628763 0 93.68678606 0 1392.22249693 0 147.59499427 0 -170.80997860 0 34536
