### header ###
fiducial parameters:
Omega_m = 0.31
Omega_nu = 0
Omega_de = 0.69
Omega_k = 0
H_0 = 100
w_de = -1
zeff = 0
beta = 0
fgrowth = 0
b_1 = 2
gamma = 0.55
Lx = 3500 Ly = 3500 Lz = 3500
nx = 700 ny = 700 nz = 700
xoffset = 1379.75464 yoffset = 22.6059522 zoffset = 368.141391
bins = 400 dk = 0.001
kx_ny = 0.628318531 ky_ny = 0.628318531 kz_ny = 0.628318531
############################
A(data) = 3.37842813 (not used)
A(ran) = 3.39044797 (used)
Ngal = 190545
weighted Ngal = 0
Nran = 9399747
weighted Nran = 0
SN(data) = 6600.69847
SN(ran) = 134.856366
SN(data+ran) = 6735.55484
############################
13 columns: k_central k_mean P_0(k) sigma^{lin}_{P_0(k)} P^img_1(k) sigma^{lin}_{P_1(k)} P_2(k) sigma^{lin}_{P_2(k)} P^img_3(k) sigma^{lin}_{P_3(k)} P_4(k) sigma^{lin}_{P_4(k)} N_modes
### header ###
0.00050000 0 0 0 0 0 0 0 0 0 0 0 0
0.00150000 0.00179520 22378.81899440 0 -6414.06137755 0 11221.18577646 0 6503.65606650 0 41627.92403395 0 3
0.00250000 0.00253879 20502.63211864 0 -10606.87765108 0 3983.34792797 0 7824.12961037 0 -8866.08101647 0 6
0.00350000 0.00331552 29983.38726998 0 -6570.32525135 0 6494.94947689 0 7778.73334126 0 -30077.99517995 0 7
0.00450000 0.00420575 47400.55930959 0 -11855.04768205 0 -2604.80087688 0 5595.78614030 0 -10013.25460802 0 24
0.00550000 0.00557378 69131.31966630 0 -17486.15928463 0 -3319.31796668 0 21514.70384016 0 9650.46155585 0 45
0.00650000 0.00659388 87113.25545452 0 -14602.55899006 0 -15178.96849546 0 -10089.66186380 0 -6459.16927554 0 40
0.00750000 0.00754703 102464.91388646 0 -10221.31437157 0 -7426.23291985 0 -17244.26027919 0 2199.85018510 0 57
0.00850000 0.00846663 111205.88620135 0 3587.23692016 0 -8751.50895200 0 -24120.69147512 0 -31896.95147945 0 75
0.00950000 0.00948925 104635.79386514 0 11940.56081052 0 14957.58820437 0 -36727.94413419 0 -11656.51525667 0 112
0.01050000 0.01054430 99267.32180629 0 5265.04664731 0 50261.86629829 0 -24585.19080331 0 -41755.47279885 0 105
0.01150000 0.01145670 98862.71494162 0 6687.12664642 0 45997.19015973 0 4232.36748185 0 -15608.30872933 0 144
0.01250000 0.01249090 94911.58694078 0 -401.28172383 0 51086.60770336 0 6833.87427324 0 -39367.09444802 0 169
0.01350000 0.01339930 94152.06177377 0 562.16286292 0 56975.14598711 0 5945.35848572 0 -18335.96679480 0 180
0.01450000 0.01448870 86201.00450552 0 8423.90826774 0 53935.38163951 0 345.85901268 0 -13266.62431765 0 267
0.01550000 0.01550050 88814.42324243 0 8864.25096897 0 58549.43048194 0 10973.91863169 0 -11559.24545944 0 238
0.01650000 0.01653350 75791.69434568 0 183.09126098 0 52023.92475745 0 12163.93751705 0 -3784.95968816 0 315
0.01750000 0.01747870 75943.53283190 0 1233.76256613 0 62962.83957158 0 12030.95406565 0 18870.56248771 0 297
0.01850000 0.01844180 71204.26437592 0 -525.94123193 0 35818.24416050 0 18002.01085469 0 489.96915286 0 388
0.01950000 0.01947590 77668.99034114 0 -2070.70428784 0 37874.10842682 0 13620.21167636 0 15071.27297309 0 399
0.02050000 0.02045430 77731.54469192 0 -2129.87582356 0 23773.86974655 0 14102.12418376 0 8507.46934554 0 462
0.02150000 0.02154770 81395.63251574 0 1766.31747879 0 25875.87339217 0 -6324.12286150 0 7221.20105306 0 571
0.02250000 0.02255340 77142.04757413 0 5013.24320299 0 25168.47685082 0 -8005.64813962 0 6049.79319618 0 510
0.02350000 0.02348930 69487.01435243 0 5138.66245808 0 38095.37780594 0 -2925.17010073 0 1624.35015785 0 555
0.02450000 0.02439640 64857.32692230 0 4407.70821441 0 24868.34906140 0 -4514.71608256 0 -3524.79348134 0 592
0.02550000 0.02547300 62033.06453141 0 1915.44971296 0 36134.23236155 0 5375.77006644 0 -5204.94345104 0 837
0.02650000 0.02652900 61750.90448105 0 54.59198050 0 37926.45887642 0 8095.58665567 0 -6652.23374082 0 723
0.02750000 0.02749970 59744.39604114 0 93.80246725 0 27785.11203484 0 5007.88615486 0 874.29687303 0 826
0.02850000 0.02848090 59658.10652889 0 1728.51867959 0 25522.50785740 0 4511.17799074 0 -8360.63298915 0 831
0.02950000 0.02946900 54234.95486908 0 1657.10246244 0 18420.70353949 0 1303.12691184 0 4358.48548235 0 996
0.03050000 0.03053250 54661.30047977 0 -595.58063932 0 15469.66876747 0 14914.44344824 0 2782.95877346 0 1041
0.03150000 0.03150510 55444.89354416 0 -637.50980027 0 9541.11344513 0 4546.90273611 0 9093.27309476 0 1036
0.03250000 0.03246190 52714.35176748 0 643.39257113 0 6265.78316555 0 4963.09990159 0 2848.44120024 0 1059
0.03350000 0.03345080 54054.94474261 0 1679.56213626 0 6981.79756694 0 -1894.50953312 0 9071.95581422 0 1302
0.03450000 0.03451200 50039.70962342 0 1287.26650020 0 5787.19801723 0 -5190.21434150 0 4572.34594190 0 1339
0.03550000 0.03553350 49584.08325278 0 1984.38150199 0 11908.72907528 0 -3275.82938345 0 -613.84673158 0 1365
0.03650000 0.03647120 47464.77733992 0 366.30785249 0 13455.84013758 0 -2419.32279032 0 -75.88120031 0 1308
0.03750000 0.03744890 48189.69797245 0 749.88802599 0 19264.96545118 0 -699.65155853 0 -3599.81433750 0 1579
0.03850000 0.03847530 47441.15309042 0 2026.69441835 0 17985.92861912 0 -925.33967051 0 -1086.32950333 0 1662
0.03950000 0.03950240 45906.46416869 0 286.02755074 0 21134.83034469 0 508.68443859 0 1087.04710378 0 1683
0.04050000 0.04050350 43782.72177705 0 1115.51931546 0 20738.20914182 0 3699.75711320 0 1247.17182324 0 1822
0.04150000 0.04152450 44338.72348006 0 385.48120465 0 20980.32997120 0 3619.22393216 0 7883.81134114 0 1887
0.04250000 0.04250150 43120.79914318 0 367.22287624 0 16941.02695462 0 1571.66697235 0 1849.01344324 0 1920
0.04350000 0.04349210 42838.30635691 0 865.92745582 0 16531.65087526 0 2605.93217897 0 7979.91656270 0 2005
0.04450000 0.04448520 40418.31809477 0 603.90236439 0 16240.83969128 0 65.80240781 0 3881.30891605 0 2151
0.04550000 0.04548030 40564.94371843 0 1749.84705132 0 17147.76686574 0 875.70323681 0 8868.74290374 0 2274
0.04650000 0.04648670 37754.87805963 0 323.32059136 0 13888.17499463 0 943.64901843 0 2708.74757468 0 2311
0.04750000 0.04749250 38239.78519020 0 43.84461066 0 14987.97808401 0 3052.86305120 0 6195.65352725 0 2568
0.04850000 0.04851840 37560.56028909 0 -48.60683789 0 11224.18039963 0 768.31937707 0 3051.31028362 0 2493
0.04950000 0.04949480 38547.78772946 0 91.94746456 0 13969.02982038 0 489.80943963 0 2545.51842919 0 2644
0.05050000 0.05050630 37637.31137198 0 -252.31474849 0 10279.03296049 0 566.32538913 0 769.25214674 0 2829
0.05150000 0.05149060 37512.53540631 0 364.95361734 0 12809.66700338 0 -1145.29917927 0 1723.53873216 0 2784
0.05250000 0.05249300 36588.52778855 0 1298.02496124 0 12747.66721244 0 -1942.35695675 0 -2273.61773601 0 3055
0.05350000 0.05348950 36959.19559056 0 1098.14606456 0 15109.87033847 0 -1654.19656884 0 -1738.51184804 0 3009
0.05450000 0.05448610 34599.54343983 0 35.62803013 0 14968.34666541 0 -597.26871950 0 -1632.16945170 0 3336
0.05550000 0.05550870 35681.26787819 0 -111.62735169 0 14476.34116879 0 2780.61853090 0 -4173.79487077 0 3349
0.05650000 0.05647670 36991.47097368 0 -1086.17533570 0 12378.55217800 0 1026.30394545 0 -5250.72791205 0 3324
0.05750000 0.05747970 36025.98227934 0 299.81612678 0 12002.44968949 0 544.30714495 0 -5164.12784627 0 3639
0.05850000 0.05849280 36149.42730137 0 1492.63110290 0 13566.86301904 0 -3285.06835050 0 -6365.43757013 0 3846
0.05950000 0.05951020 34248.61796839 0 1773.14965611 0 14671.87897099 0 -1640.92040610 0 -4973.75854185 0 3787
0.06050000 0.06049470 32312.09498123 0 1236.93464845 0 18474.27402075 0 -551.04061062 0 -6239.17538407 0 3930
0.06150000 0.06148310 31317.76917482 0 677.23846774 0 17082.88336359 0 1687.94708116 0 -973.88805779 0 4083
0.06250000 0.06249100 30439.90093637 0 121.54842736 0 18940.88067636 0 2552.86080157 0 -907.01701315 0 4303
0.06350000 0.06350600 30975.82757290 0 318.21864076 0 16272.56051455 0 3577.77612916 0 3713.88729811 0 4470
0.06450000 0.06451750 29903.30882801 0 328.52790832 0 16923.83559935 0 1228.58297715 0 4525.54109078 0 4479
0.06550000 0.06550280 29648.32221017 0 146.26848711 0 15628.16197186 0 1327.41663316 0 7112.37422861 0 4636
0.06650000 0.06648880 30342.74205110 0 137.23692544 0 16465.88007736 0 2657.51733598 0 7558.26252832 0 4653
0.06750000 0.06749660 29172.39894912 0 -8.65769961 0 12585.95756093 0 -972.66580789 0 5541.01780977 0 5220
0.06850000 0.06852730 29260.57396486 0 990.12335188 0 15279.67656375 0 -893.09534274 0 6367.75563029 0 5029
0.06950000 0.06949320 27460.80543607 0 1003.20209133 0 13921.55949744 0 -134.47854476 0 2044.42924227 0 5040
0.07050000 0.07048030 27079.60099696 0 399.59253453 0 14843.57069975 0 423.16465540 0 4244.14633301 0 5475
0.07150000 0.07148790 26465.70324588 0 -125.97714230 0 12001.89512964 0 1708.89835219 0 161.56990242 0 5509
0.07250000 0.07249820 26484.44736872 0 -359.03535465 0 12379.10673785 0 2138.43822760 0 2172.18873992 0 5916
0.07350000 0.07351270 26542.89797664 0 -71.33647144 0 7671.60346993 0 947.20707441 0 -680.63570136 0 5721
0.07450000 0.07449140 26856.77885027 0 100.25355104 0 10210.32299540 0 2.95732348 0 -60.32557476 0 6028
0.07550000 0.07549160 26080.50597587 0 713.65419468 0 9260.42852396 0 -1253.88199739 0 -54.60418082 0 6183
0.07650000 0.07648840 25530.04987133 0 601.14287459 0 9890.85215850 0 -451.33185917 0 -2032.29547281 0 6330
0.07750000 0.07749960 25314.32609068 0 218.94466424 0 10766.77943749 0 -329.16454303 0 -1640.28820787 0 6583
0.07850000 0.07848650 24882.76761743 0 90.93029088 0 10955.60706553 0 -57.40082613 0 -3716.32736144 0 6549
0.07950000 0.07947320 24880.66029001 0 334.80885316 0 11545.15963931 0 169.82840767 0 -371.98099973 0 6828
0.08050000 0.08048110 24597.83476783 0 58.91277809 0 10442.12901162 0 -240.47267751 0 -4386.71257858 0 7147
0.08150000 0.08149960 24623.45543278 0 165.90545131 0 11588.19348347 0 532.74457213 0 -1851.84169846 0 7386
0.08250000 0.08250610 23995.69368551 0 364.73622988 0 9871.73093496 0 149.18103543 0 -4254.18386625 0 7227
0.08350000 0.08350160 24016.76695971 0 213.48114062 0 10851.78237090 0 924.78178330 0 -1094.37394848 0 7798
0.08450000 0.08449610 23425.05160252 0 -8.69753919 0 9628.10170280 0 1363.29665528 0 -2065.96834674 0 7371
0.08550000 0.08548940 23488.71507301 0 218.40230471 0 9227.84258733 0 496.23789738 0 -2580.10078128 0 8256
0.08650000 0.08650700 22863.50430104 0 500.79859756 0 8666.05127951 0 -112.99489627 0 -1526.68107753 0 8037
0.08750000 0.08749060 22524.89005821 0 490.07562835 0 8771.88348079 0 -87.95663007 0 -1105.13130040 0 8155
0.08850000 0.08849210 21924.85630331 0 121.69704939 0 8742.68035922 0 667.91964406 0 -697.17822161 0 8718
0.08950000 0.08949900 21725.88023006 0 404.18983567 0 8639.19949170 0 642.80917417 0 -1406.90724169 0 8571
0.09050000 0.09049190 21010.71985083 0 123.71342900 0 8551.23520870 0 631.93758292 0 948.30510291 0 8932
0.09150000 0.09150830 20693.40070615 0 277.59713194 0 7957.06869699 0 1267.32452809 0 897.78470081 0 9285
0.09250000 0.09250820 20909.67904664 0 108.12397531 0 7880.68362361 0 1418.25353616 0 3209.31547535 0 9204
0.09350000 0.09350330 20200.39700180 0 72.65698935 0 6559.31169278 0 970.72595754 0 3422.06681521 0 9349
0.09450000 0.09448040 20159.35957309 0 169.57331014 0 6263.07691349 0 644.26766657 0 4184.17623111 0 9564
0.09550000 0.09549270 20237.21977567 0 -40.12817238 0 5274.57398548 0 978.00732834 0 4189.78837677 0 10155
0.09650000 0.09649430 19586.05560284 0 109.93494594 0 5701.65161517 0 -209.39292542 0 2556.89799726 0 9913
0.09750000 0.09749140 19322.63967532 0 1001.15021989 0 5711.13458856 0 -1508.51369693 0 1962.40984084 0 10476
0.09850000 0.09850240 18071.66357153 0 870.95287715 0 6476.39390440 0 -1677.34389687 0 111.65618880 0 10575
0.09950000 0.09950330 17266.44267308 0 528.73621356 0 7640.54811848 0 -608.36324381 0 544.05204742 0 10882
0.10050000 0.10051200 16607.62557436 0 151.36156475 0 7168.67314432 0 796.09727983 0 -1137.80153013 0 10875
0.10150000 0.10150300 16765.78604284 0 53.39779132 0 7045.20593989 0 797.37054924 0 -752.96583314 0 11118
0.10250000 0.10250800 16195.14395986 0 67.15298287 0 5749.66540676 0 852.96628306 0 -627.48224911 0 11575
0.10350000 0.10349800 16405.54396596 0 277.59824106 0 6988.20827877 0 13.80454737 0 952.55081310 0 11364
0.10450000 0.10450100 15892.57610711 0 124.07832938 0 5813.60615717 0 -290.38860938 0 -290.44517448 0 12093
0.10550000 0.10551000 15890.24695575 0 233.02161140 0 7096.63582014 0 431.25679270 0 1164.18748767 0 12067
0.10650000 0.10649700 15534.10862174 0 174.42238145 0 6528.00124380 0 -269.32753549 0 1420.95978822 0 12054
0.10750000 0.10749900 15720.66255441 0 -25.82784851 0 6389.92693299 0 935.63895600 0 1850.17801892 0 12807
0.10850000 0.10850100 15918.75133191 0 -313.54813773 0 6418.80840984 0 1660.59618948 0 2635.56785722 0 12736
0.10950000 0.10950300 16097.20869080 0 -195.36367041 0 5028.39377802 0 422.43152729 0 2141.19993564 0 12933
0.11050000 0.11050200 16237.62324417 0 83.26716109 0 4750.57038567 0 187.29260639 0 2943.27093415 0 13428
0.11150000 0.11150900 15803.95744349 0 157.50941522 0 4727.24559848 0 59.94503579 0 2637.95246456 0 13453
0.11250000 0.11250000 15534.44135765 0 398.02202104 0 4738.43661620 0 -611.53643525 0 2175.83774371 0 13668
0.11350000 0.11349100 15353.76575936 0 427.49798605 0 5087.76495529 0 -202.14371910 0 2241.95236872 0 13791
0.11450000 0.11448600 14745.85725463 0 211.17638989 0 5001.84145253 0 251.33761404 0 1537.67245370 0 14205
0.11550000 0.11549300 14457.48613398 0 253.08669580 0 5378.52068328 0 15.59843756 0 1607.56917687 0 14776
0.11650000 0.11649800 14284.68528552 0 123.29085440 0 4710.69753264 0 306.44200784 0 1434.13613019 0 14553
0.11750000 0.11747300 14068.18512110 0 231.90583699 0 5525.23503651 0 -177.14859766 0 1327.72718667 0 14568
0.11850000 0.11849100 13750.08959262 0 134.16799124 0 4519.90676273 0 -9.02874451 0 1295.62926270 0 16015
0.11950000 0.11950300 13760.18258184 0 14.97123038 0 5503.42974331 0 333.17955632 0 527.56387404 0 15270
0.12050000 0.12050700 13641.50677450 0 85.58655219 0 4547.71239348 0 -186.06370176 0 695.61214460 0 15999
0.12150000 0.12150000 13912.46471594 0 -113.97203072 0 4899.63607265 0 354.00882419 0 70.51328281 0 15670
0.12250000 0.12250700 13638.40123935 0 34.23896863 0 4526.81657843 0 206.89962435 0 894.04585832 0 16887
0.12350000 0.12352200 13880.85480464 0 -22.51934446 0 4211.56039638 0 465.39771514 0 389.68920478 0 16407
0.12450000 0.12449800 13796.67261980 0 176.00620437 0 4346.35171289 0 -182.99144021 0 1059.62079196 0 16306
0.12550000 0.12549900 13455.50740168 0 180.41828252 0 4091.45382462 0 172.41487480 0 391.35842992 0 17523
0.12650000 0.12650100 13417.79733205 0 117.59774300 0 4797.19777764 0 104.16042516 0 1188.85430968 0 17154
0.12750000 0.12750600 12983.13332365 0 350.53395219 0 3916.92274945 0 -282.33750951 0 200.52884082 0 18007
0.12850000 0.12850300 12552.68397009 0 292.32513237 0 5196.41432059 0 -82.81342022 0 1004.68165700 0 17496
0.12950000 0.12949900 12497.11707338 0 113.37088785 0 4459.72592809 0 200.21828731 0 735.26761017 0 18405
0.13050000 0.13049000 12315.66509131 0 -194.56621334 0 4006.21797608 0 1061.29001710 0 790.56388167 0 18100
0.13150000 0.13148800 12528.72698468 0 81.57220437 0 4174.23851865 0 405.75924003 0 1201.01026154 0 19059
0.13250000 0.13249300 12368.57010075 0 158.07839362 0 3497.44258967 0 -109.70624546 0 827.12268505 0 18957
0.13350000 0.13349100 12198.54205153 0 127.25484819 0 3926.81609712 0 -121.28334775 0 1585.40896537 0 19468
0.13450000 0.13450700 12072.76787814 0 -92.46143062 0 3310.86647460 0 80.58042954 0 987.56350363 0 19953
0.13550000 0.13551000 12317.32877085 0 8.83804247 0 3710.12738235 0 312.10406388 0 780.40101791 0 19956
0.13650000 0.13649900 12313.44685192 0 22.92117853 0 3131.48854636 0 101.02949118 0 859.20729959 0 19723
0.13750000 0.13749600 12360.25170304 0 -59.04387604 0 3093.24609928 0 293.07378816 0 440.11089522 0 20946
0.13850000 0.13851100 12153.28996798 0 120.09326232 0 2733.03729600 0 262.38000973 0 1033.47107692 0 20955
0.13950000 0.13949800 11981.93097513 0 188.32076034 0 2575.04319547 0 -49.69133513 0 -125.65217023 0 20506
0.14050000 0.14048300 11434.91314165 0 499.18039193 0 3064.13170729 0 -551.21474241 0 483.42978314 0 21447
0.14150000 0.14148400 11118.70311665 0 485.66355021 0 3614.93163894 0 -599.63558093 0 -51.94184990 0 21771
0.14250000 0.14249400 10432.91222695 0 171.37119317 0 3319.59524660 0 -83.01694369 0 -364.13841437 0 22470
0.14350000 0.14350900 10512.14773795 0 -13.09870360 0 3064.35353123 0 560.73209851 0 -183.73011393 0 22519
0.14450000 0.14449900 10315.23462733 0 -52.50428450 0 3025.09069404 0 631.78563352 0 -414.22736890 0 22218
0.14550000 0.14550500 10532.63317871 0 96.25317812 0 2138.51586598 0 198.37049390 0 72.82202636 0 23559
0.14650000 0.14650700 10184.12558821 0 109.12273759 0 2750.53920478 0 232.98390133 0 -267.25459078 0 23044
0.14750000 0.14750500 10074.02327610 0 183.58481925 0 2197.37684818 0 -339.40504517 0 369.59084679 0 23649
0.14850000 0.14849900 9928.60659291 0 48.01168426 0 2549.03433863 0 -61.94400222 0 -97.81293315 0 23640
0.14950000 0.14949500 9953.77251879 0 57.32274410 0 2700.22953542 0 160.05373580 0 344.58796151 0 24457
0.15050000 0.15050000 9856.95746063 0 -69.41015236 0 2390.01984798 0 185.30839125 0 232.68887549 0 24591
0.15150000 0.15149900 10127.00592392 0 66.73795028 0 2631.74139427 0 -141.78098883 0 236.53197524 0 25020
0.15250000 0.15250500 9963.90987280 0 218.36570376 0 2757.70411801 0 -111.86913978 0 226.77394016 0 25297
0.15350000 0.15350100 9607.48316767 0 255.81956673 0 3083.41929879 0 -235.20214072 0 666.84157972 0 25452
0.15450000 0.15450400 9504.53467760 0 35.95455497 0 3266.18004210 0 339.43055492 0 881.98529076 0 26061
0.15550000 0.15549900 9517.24518930 0 -46.60931332 0 3009.16373522 0 487.16751651 0 840.25355312 0 26128
0.15650000 0.15649500 9493.35475107 0 -4.36586113 0 2940.84196202 0 42.51876897 0 1089.22985134 0 26331
0.15750000 0.15749700 9535.35711392 0 127.14060886 0 2673.59957155 0 55.37357715 0 1041.86711301 0 27345
0.15850000 0.15849900 9338.05581140 0 143.57221714 0 2870.90087406 0 -246.60943678 0 1054.39018348 0 26980
0.15950000 0.15949700 9276.59948911 0 -4.05833551 0 2896.35517106 0 -50.34660304 0 832.43758663 0 27777
0.16050000 0.16050000 9281.42415979 0 -14.58947138 0 2848.70738897 0 276.43033802 0 700.50003510 0 28224
0.16150000 0.16150500 9331.26799887 0 46.16067440 0 2552.57243045 0 59.84432773 0 453.19518026 0 28075
0.16250000 0.16249700 9252.95305722 0 104.30350160 0 2621.29348674 0 23.23372846 0 327.86687299 0 28590
0.16350000 0.16349900 9029.52089470 0 262.56745095 0 2855.89448459 0 -331.35394531 0 573.24296867 0 29163
0.16450000 0.16449100 8736.22528260 0 167.31070596 0 3120.38625822 0 -206.86080516 0 210.50204512 0 28996
0.16550000 0.16550500 8746.09644788 0 30.54016536 0 2935.28527235 0 226.98910938 0 331.17315880 0 30777
0.16650000 0.16650700 8710.43824970 0 -44.22104588 0 3090.82821835 0 181.44754559 0 191.44958700 0 29211
0.16750000 0.16749900 8638.92221177 0 81.83794945 0 2589.11792440 0 161.82610907 0 181.92113970 0 30922
0.16850000 0.16850800 8646.81914400 0 23.59241776 0 2797.62133583 0 120.53358283 0 263.61002347 0 30867
0.16950000 0.16949900 8593.79213139 0 19.92001154 0 2446.07475735 0 144.20330624 0 377.17278902 0 30852
0.17050000 0.17049200 8558.37793954 0 -18.74035184 0 2360.91654719 0 324.22785127 0 -158.74719280 0 31257
0.17150000 0.17149500 8519.08182875 0 83.87739874 0 2128.65579189 0 -90.49207769 0 55.95553225 0 32608
0.17250000 0.17250900 8441.65418285 0 175.48491811 0 2360.94982078 0 -209.21768451 0 30.02431379 0 32361
0.17350000 0.17350400 8316.80057881 0 109.31406074 0 2258.68898491 0 56.59715800 0 -68.37711827 0 32508
0.17450000 0.17449800 8136.23589249 0 44.30201162 0 2411.65877322 0 -59.64424253 0 27.17454164 0 32791
0.17550000 0.17549800 8193.67720148 0 106.30568448 0 2275.43669231 0 89.40281124 0 -148.59098375 0 33633
0.17650000 0.17650100 8050.24584255 0 25.19986494 0 2426.69843629 0 241.35220943 0 99.18291780 0 33984
0.17750000 0.17750300 8002.19877737 0 61.56423964 0 2328.95171758 0 -140.13949168 0 234.93595200 0 34069
0.17850000 0.17849800 7992.92653672 0 186.96208872 0 2627.29382429 0 19.14573508 0 271.69883340 0 34536
