### header ###
fiducial parameters:
Omega_m = 0.31
Omega_nu = 0
Omega_de = 0.69
Omega_k = 0
H_0 = 100
w_de = -1
zeff = 0
beta = 0
fgrowth = 0
b_1 = 2
gamma = 0.55
Lx = 3500 Ly = 3500 Lz = 3500
nx = 700 ny = 700 nz = 700
xoffset = 1379.75464 yoffset = 22.6059522 zoffset = 368.141391
bins = 400 dk = 0.001
kx_ny = 0.628318531 ky_ny = 0.628318531 kz_ny = 0.628318531
############################
A(data) = 3.36051932 (not used)
A(ran) = 3.36042705 (used)
Ngal = 189191
weighted Ngal = 0
Nran = 9399747
weighted Nran = 0
SN(data) = 6643.85621
SN(ran) = 133.662272
SN(data+ran) = 6777.51848
############################
13 columns: k_central k_mean P_0(k) sigma^{lin}_{P_0(k)} P^img_1(k) sigma^{lin}_{P_1(k)} P_2(k) sigma^{lin}_{P_2(k)} P^img_3(k) sigma^{lin}_{P_3(k)} P_4(k) sigma^{lin}_{P_4(k)} N_modes
### header ###
0.00050000 0 0 0 0 0 0 0 0 0 0 0 0
0.00150000 0.00179520 9396.29568658 0 -13293.90866214 0 5385.77432609 0 -34829.02030469 0 7483.28603695 0 3
0.00250000 0.00253879 31186.67122689 0 -22546.85062816 0 -19395.39792730 0 -9850.28056006 0 -18674.24830172 0 6
0.00350000 0.00331552 43061.23941557 0 -19043.03060025 0 -22458.12105258 0 -7782.22706830 0 24896.96434952 0 7
0.00450000 0.00420575 73777.86571579 0 -16126.15671484 0 -17986.70500290 0 -39210.93039499 0 10992.55184257 0 24
0.00550000 0.00557378 92817.90169287 0 -8831.63175875 0 9155.15088253 0 -35569.35770098 0 14942.94782440 0 45
0.00650000 0.00659388 113864.44610984 0 7050.59626161 0 8471.45622905 0 20878.06913533 0 -13631.63560921 0 40
0.00750000 0.00754703 104651.87610071 0 3237.43165961 0 10321.60097438 0 21883.48613869 0 -3499.13954280 0 57
0.00850000 0.00846663 110107.74679151 0 1446.58045317 0 52624.73489614 0 18135.99251383 0 24993.12502706 0 75
0.00950000 0.00948925 95618.98348214 0 10383.33457659 0 52147.25886752 0 9953.62833323 0 51300.22415658 0 112
0.01050000 0.01054430 83390.71702278 0 8289.05040404 0 35495.82306521 0 22383.92094499 0 23524.09599127 0 105
0.01150000 0.01145670 80792.16048979 0 4214.85448187 0 48587.20647108 0 20728.33797653 0 54582.44206947 0 144
0.01250000 0.01249090 74047.27088966 0 2265.17733513 0 35558.93197585 0 27442.06131323 0 49474.50222694 0 169
0.01350000 0.01339930 75731.35823428 0 -2118.28552275 0 38627.08978764 0 25856.46379751 0 64674.21126069 0 180
0.01450000 0.01448870 69229.92040717 0 1680.23869928 0 11429.36754317 0 16916.18267346 0 54424.94707281 0 267
0.01550000 0.01550050 74013.55365094 0 3062.71203409 0 17285.85226774 0 10320.03711561 0 46042.22041934 0 238
0.01650000 0.01653350 65852.54002447 0 -2190.91068036 0 4265.37488397 0 11181.70111532 0 49921.69928789 0 315
0.01750000 0.01747870 69672.23734147 0 383.76650561 0 11717.29501595 0 3077.39677884 0 40229.32409878 0 297
0.01850000 0.01844180 70883.39604821 0 -271.90180231 0 -4853.49669335 0 1663.05843520 0 44071.53654558 0 388
0.01950000 0.01947590 70869.86478794 0 -682.94599769 0 -69.76706708 0 273.26823777 0 22441.81699306 0 399
0.02050000 0.02045430 69968.37229998 0 -265.76171567 0 3165.51633860 0 -2533.39575093 0 19748.54163813 0 462
0.02150000 0.02154770 73870.03356243 0 -1389.69370402 0 -1654.25202483 0 1243.09026276 0 11451.21720116 0 571
0.02250000 0.02255340 75081.30318115 0 -2566.56952100 0 6335.65770632 0 1853.56083399 0 11608.37946192 0 510
0.02350000 0.02348930 76259.18829705 0 -38.28426089 0 -4689.80171759 0 -1911.31269650 0 -2857.60252892 0 555
0.02450000 0.02439640 80546.60138935 0 -5.66792329 0 2133.82428967 0 -8003.71827135 0 -9703.48856845 0 592
0.02550000 0.02547300 75090.39796264 0 1702.90910584 0 -2117.71987170 0 -4552.93634725 0 -6372.93521927 0 837
0.02650000 0.02652900 74483.15492973 0 3270.00650505 0 9277.39805530 0 -6207.94257347 0 -5457.97801822 0 723
0.02750000 0.02749970 72066.38311471 0 -73.98272012 0 5382.66879094 0 -1009.58951165 0 -10277.34709856 0 826
0.02850000 0.02848090 72191.26999235 0 2200.23837700 0 13605.46038442 0 1540.93326561 0 -13781.81041589 0 831
0.02950000 0.02946900 65952.58262094 0 2939.88811908 0 9456.13269412 0 818.33956619 0 -5768.37625601 0 996
0.03050000 0.03053250 62680.23587334 0 3245.48386859 0 15547.41805808 0 -2516.54822276 0 1129.37222045 0 1041
0.03150000 0.03150510 60176.73089818 0 2858.84474298 0 21406.78649386 0 -2357.51154972 0 -4991.92592246 0 1036
0.03250000 0.03246190 55858.37336639 0 2784.12334914 0 21631.27232009 0 -4433.94998638 0 1151.62116153 0 1059
0.03350000 0.03345080 55773.63662171 0 1916.94702455 0 27424.20448614 0 -3726.39816827 0 -10349.52860829 0 1302
0.03450000 0.03451200 52435.74090014 0 320.94152961 0 32288.02708385 0 -3313.31762913 0 -2562.21068060 0 1339
0.03550000 0.03553350 55499.68405709 0 20.36277213 0 33680.97050858 0 792.17099611 0 -12723.82113900 0 1365
0.03650000 0.03647120 55841.29292309 0 -1049.07195454 0 33444.39527767 0 561.74361567 0 -5181.47447830 0 1308
0.03750000 0.03744890 57732.00926686 0 -208.64205139 0 25911.36522241 0 4257.06757745 0 -12260.65275444 0 1579
0.03850000 0.03847530 57181.66407429 0 1266.12667882 0 33436.63143981 0 2862.59356755 0 -4425.56504149 0 1662
0.03950000 0.03950240 53509.14694079 0 3158.53997572 0 28860.62540291 0 1756.29103675 0 -3667.39300051 0 1683
0.04050000 0.04050350 51106.12820999 0 3030.72502209 0 33881.72117334 0 2360.90545599 0 4986.87942784 0 1822
0.04150000 0.04152450 46442.27989326 0 1931.08830066 0 32116.77900297 0 3303.02499836 0 9628.93354257 0 1887
0.04250000 0.04250150 45298.66657593 0 565.21405120 0 27864.63591696 0 5654.72476088 0 7128.75592650 0 1920
0.04350000 0.04349210 44031.94097247 0 -203.97154836 0 26274.93465837 0 6080.63781489 0 11826.09965801 0 2005
0.04450000 0.04448520 43904.83585545 0 815.57896727 0 26312.64472799 0 2033.82605799 0 9092.62980533 0 2151
0.04550000 0.04548030 42148.32299476 0 1026.85739618 0 24458.86207007 0 1859.19516204 0 15258.71420152 0 2274
0.04650000 0.04648670 41094.32654877 0 -6.71601921 0 16849.85731571 0 3046.87380484 0 6841.93757342 0 2311
0.04750000 0.04749250 42352.73375451 0 -505.04541688 0 19087.28447607 0 3394.97102106 0 12282.61332440 0 2568
0.04850000 0.04851840 40557.29079254 0 41.71987006 0 14509.72567160 0 2921.08854025 0 6850.06742078 0 2493
0.04950000 0.04949480 41921.39710520 0 509.63828153 0 12686.88745316 0 2533.95031078 0 8831.38775242 0 2644
0.05050000 0.05050630 39540.11712041 0 192.03187484 0 8614.76558482 0 299.37913362 0 5418.87045778 0 2829
0.05150000 0.05149060 40149.57839272 0 1233.98439007 0 14394.93178319 0 -294.63764693 0 7685.03490944 0 2784
0.05250000 0.05249300 37775.17495004 0 994.74838101 0 9160.28610672 0 -1827.15269405 0 3823.23540882 0 3055
0.05350000 0.05348950 36458.42804835 0 1331.30964329 0 13466.93133453 0 -1523.56445119 0 -2117.27622382 0 3009
0.05450000 0.05448610 35447.79818243 0 961.72545122 0 12591.94680729 0 -3245.51714219 0 -1047.51031401 0 3336
0.05550000 0.05550870 34587.67585909 0 822.91024845 0 16329.45835490 0 -1564.74606546 0 -4909.81779145 0 3349
0.05650000 0.05647670 33938.17536581 0 997.19177170 0 16556.05150855 0 1441.47850257 0 -1962.39874964 0 3324
0.05750000 0.05747970 32854.34360002 0 47.35575087 0 15509.15342861 0 915.86113360 0 -3712.97781996 0 3639
0.05850000 0.05849280 33149.14761491 0 267.67605627 0 15641.36049623 0 2541.33704794 0 -496.40093797 0 3846
0.05950000 0.05951020 32714.37269454 0 30.73803231 0 15272.24546179 0 2106.29593885 0 596.94485655 0 3787
0.06050000 0.06049470 33241.53728549 0 678.65814095 0 15639.80772866 0 -256.58042284 0 2020.31698010 0 3930
0.06150000 0.06148310 31085.18677481 0 869.39456398 0 15090.79347972 0 -764.21674332 0 2827.47883801 0 4083
0.06250000 0.06249100 30592.18307047 0 290.02703636 0 16621.82230645 0 860.99409141 0 644.33310463 0 4303
0.06350000 0.06350600 30780.62250662 0 194.47304729 0 16502.81376320 0 149.45942448 0 4739.01335845 0 4470
0.06450000 0.06451750 30003.35142448 0 453.02548495 0 15007.83132655 0 1167.68121471 0 -884.62943211 0 4479
0.06550000 0.06550280 30085.20445796 0 523.79286708 0 15939.82460611 0 957.53297877 0 1083.66872519 0 4636
0.06650000 0.06648880 28088.67809531 0 -8.94212226 0 11704.20740355 0 1481.89482425 0 -184.12274230 0 4653
0.06750000 0.06749660 28790.30721426 0 113.35203281 0 12048.47815682 0 1643.98157645 0 -1018.97155515 0 5220
0.06850000 0.06852730 27876.05984982 0 377.08960504 0 9494.92970104 0 764.82232268 0 201.62686932 0 5029
0.06950000 0.06949320 27878.61082511 0 495.09883145 0 8438.73719806 0 1593.20607682 0 -1577.76713067 0 5040
0.07050000 0.07048030 27139.38254851 0 -188.36401601 0 8336.57618297 0 901.13091493 0 1826.05466556 0 5475
0.07150000 0.07148790 26611.21974984 0 667.07893133 0 6690.28763755 0 -898.10301816 0 -2669.50691988 0 5509
0.07250000 0.07249820 26351.02026943 0 86.86270532 0 6628.28784661 0 670.63920555 0 710.28025256 0 5916
0.07350000 0.07351270 26527.81394879 0 -475.88222362 0 6336.42299891 0 1491.14488251 0 220.19020565 0 5721
0.07450000 0.07449140 27605.32373231 0 -631.75235993 0 5383.93318739 0 1333.77188901 0 -331.55025949 0 6028
0.07550000 0.07549160 27652.90496722 0 282.79890331 0 6579.85258953 0 -400.90684137 0 1442.25488636 0 6183
0.07650000 0.07648840 26713.70240964 0 1210.11613423 0 7607.40762200 0 -1609.68759549 0 382.62633056 0 6330
0.07750000 0.07749960 26088.82437358 0 810.39494182 0 8867.43414250 0 -1586.34062591 0 2666.76739423 0 6583
0.07850000 0.07848650 25330.51923823 0 227.83536771 0 10819.30734623 0 -418.09043280 0 665.97092076 0 6549
0.07950000 0.07947320 25325.75002354 0 110.91119310 0 12478.92751038 0 -493.18116350 0 294.00766694 0 6828
0.08050000 0.08048110 24909.71922601 0 836.53911126 0 10963.73691289 0 -438.84538965 0 -868.03589236 0 7147
0.08150000 0.08149960 24816.33134771 0 214.52260401 0 12870.55767463 0 498.34522480 0 1885.55893718 0 7386
0.08250000 0.08250610 23235.05939880 0 -12.06189851 0 11202.77438952 0 999.25584345 0 -253.37728516 0 7227
0.08350000 0.08350160 23623.25129199 0 905.85576483 0 12033.06139307 0 844.41829758 0 -336.40376728 0 7798
0.08450000 0.08449610 22487.29090055 0 812.29486385 0 11035.57459553 0 -101.97091197 0 1362.22080918 0 7371
0.08550000 0.08548940 21262.37910959 0 264.97645893 0 10264.69204284 0 1418.61954566 0 1238.39868645 0 8256
0.08650000 0.08650700 20608.10940161 0 434.40669263 0 9950.31206534 0 1046.47439622 0 3103.41672689 0 8037
0.08750000 0.08749060 20184.42567819 0 684.83704676 0 9495.52862568 0 1025.20924431 0 1197.48326091 0 8155
0.08850000 0.08849210 19969.25645740 0 74.29604644 0 7813.37114933 0 1513.18309084 0 4831.89104169 0 8718
0.08950000 0.08949900 18662.60254493 0 181.30779651 0 8311.92045215 0 786.49895799 0 3660.29463446 0 8571
0.09050000 0.09049190 18568.99284268 0 593.74171887 0 7182.24876938 0 -150.77262219 0 3644.95550908 0 8932
0.09150000 0.09150830 18384.98988531 0 1.01706276 0 7189.20294987 0 556.14588857 0 4355.90123346 0 9285
0.09250000 0.09250820 17905.51744124 0 -183.59701956 0 6402.02742886 0 898.65979625 0 3122.39376486 0 9204
0.09350000 0.09350330 18576.31303267 0 -223.29130432 0 5208.44826928 0 1095.40321156 0 3754.81381485 0 9349
0.09450000 0.09448040 18326.87201330 0 78.88014905 0 4855.53747358 0 629.28013213 0 2326.80002537 0 9564
0.09550000 0.09549270 17929.47442665 0 261.02466546 0 4213.51244704 0 -318.23084108 0 3253.90208708 0 10155
0.09650000 0.09649430 17850.17236847 0 355.92427391 0 4941.05060205 0 -223.29352256 0 2240.80997543 0 9913
0.09750000 0.09749140 17303.48727089 0 219.48702377 0 4190.49821337 0 99.14953329 0 2003.21435441 0 10476
0.09850000 0.09850240 17153.20155224 0 152.12352998 0 4601.54906347 0 445.55334556 0 2075.00767226 0 10575
0.09950000 0.09950330 16980.40070379 0 -130.25058048 0 3332.22811993 0 379.99328040 0 453.69650236 0 10882
0.10050000 0.10051200 17248.47493403 0 -130.72861107 0 3673.17151412 0 163.37444017 0 1270.43006324 0 10875
0.10150000 0.10150300 17215.20134318 0 229.52677524 0 3039.38724690 0 -461.14535023 0 281.69200185 0 11118
0.10250000 0.10250800 16724.63770216 0 241.47975820 0 3334.86782480 0 -395.27029508 0 80.88455016 0 11575
0.10350000 0.10349800 16707.33543492 0 202.53856571 0 3565.67563329 0 -91.87603725 0 -489.69298206 0 11364
0.10450000 0.10450100 16318.03442204 0 107.48345868 0 3665.16366992 0 -8.01126029 0 -1032.86549756 0 12093
0.10550000 0.10551000 16392.01270569 0 447.55752485 0 3852.46071278 0 -268.40585703 0 -457.43201750 0 12067
0.10650000 0.10649700 15677.73962222 0 313.75443399 0 4502.75977225 0 -218.40452295 0 -20.64304667 0 12054
0.10750000 0.10749900 15279.56565178 0 320.55001036 0 4545.43869811 0 304.29807947 0 -356.28251957 0 12807
0.10850000 0.10850100 15183.18315030 0 -27.58868694 0 4183.79913041 0 452.07496937 0 658.04515142 0 12736
0.10950000 0.10950300 15134.16005979 0 26.02039169 0 4231.53564208 0 1009.68933242 0 643.81625485 0 12933
0.11050000 0.11050200 14867.86042106 0 179.43005687 0 3892.30029222 0 -94.30323479 0 697.73721794 0 13428
0.11150000 0.11150900 14891.92831844 0 211.63889281 0 4148.83967763 0 152.59268761 0 1274.00142865 0 13453
0.11250000 0.11250000 14089.92386711 0 291.56649449 0 3396.34632948 0 -233.21016175 0 523.29709057 0 13668
0.11350000 0.11349100 14312.30236593 0 278.54875664 0 4270.85393526 0 -775.39334249 0 291.58756777 0 13791
0.11450000 0.11448600 13811.64573568 0 142.95998306 0 4016.23332692 0 111.04173649 0 -7.45699990 0 14205
0.11550000 0.11549300 13785.02686301 0 9.36927753 0 4138.60250285 0 353.42542723 0 129.89122570 0 14776
0.11650000 0.11649800 13662.58004870 0 -57.29956350 0 3893.96397176 0 98.47463396 0 -799.10188508 0 14553
0.11750000 0.11747300 13602.35484927 0 311.47630214 0 3855.07823526 0 74.04072708 0 -803.09249775 0 14568
0.11850000 0.11849100 13417.79733205 0 134.11918998 0 3673.63734439 0 91.11285199 0 -74.78172995 0 16015
0.11950000 0.11950300 13094.82167692 0 34.10687247 0 3658.02093908 0 95.15792243 0 -667.64569150 0 15270
0.12050000 0.12050700 13268.17708522 0 96.37107755 0 3703.17320186 0 544.09308485 0 367.05650828 0 15999
0.12150000 0.12150000 13026.94355160 0 -50.41425934 0 2963.34600063 0 528.36687670 0 -207.55955057 0 15670
0.12250000 0.12250700 13314.98193634 0 -148.80393474 0 3129.42558373 0 265.32915899 0 790.33207566 0 16887
0.12350000 0.12352200 13181.33301312 0 163.90903586 0 3219.86320364 0 -472.54710070 0 252.65635736 0 16407
0.12450000 0.12449800 13068.64645212 0 348.56193737 0 3524.82675493 0 -631.94312852 0 237.74867954 0 16306
0.12550000 0.12549900 12872.77591402 0 107.19841492 0 3979.04454355 0 -215.81694670 0 124.63399835 0 17523
0.12650000 0.12650100 12830.96210152 0 22.21832937 0 3850.97449239 0 61.25224427 0 -157.59259920 0 17154
0.12750000 0.12750600 12995.22272832 0 -43.98025599 0 4190.52039577 0 610.63028446 0 218.61858305 0 18007
0.12850000 0.12850300 12849.59531239 0 63.99243538 0 3665.62950019 0 -114.22823737 0 -313.30634963 0 17496
0.12950000 0.12949900 12849.70622436 0 305.18759347 0 4036.90731803 0 -395.37122497 0 321.33970358 0 18405
0.13050000 0.13049000 12318.54880251 0 263.02662651 0 4612.00806219 0 -426.38110252 0 -433.24544431 0 18100
0.13150000 0.13148800 12270.19118382 0 143.13522398 0 4605.90790387 0 -191.28987377 0 164.68763789 0 19059
0.13250000 0.13249300 12083.96998706 0 57.65803098 0 4959.76145131 0 282.82663130 0 -408.15937505 0 18957
0.13350000 0.13349100 12211.29692802 0 -86.25302222 0 4474.74340876 0 207.35436343 0 -328.77746026 0 19468
0.13450000 0.13450700 12245.56872659 0 -101.78457987 0 4346.17425374 0 633.82419552 0 -401.97270540 0 19953
0.13550000 0.13551000 12341.28575626 0 27.66687988 0 3693.69022847 0 375.61447585 0 -76.33571756 0 19956
0.13650000 0.13649900 11947.32644066 0 264.92876678 0 3937.31946063 0 85.99648283 0 -71.50527946 0 19723
0.13750000 0.13749600 11884.43935396 0 353.93118581 0 3960.84388936 0 -328.80629737 0 194.02385381 0 20946
0.13850000 0.13851100 11349.40001318 0 283.27027918 0 4053.17810396 0 113.54945612 0 -241.96000702 0 20955
0.13950000 0.13949800 11151.53305962 0 163.37222193 0 4016.79897797 0 216.62327672 0 755.52124492 0 20506
0.14050000 0.14048300 10859.81239749 0 -45.34613690 0 3809.98142847 0 510.13073068 0 937.73186486 0 21447
0.14150000 0.14148400 10932.02718082 0 42.11083475 0 3603.56316207 0 307.13077117 0 660.02160271 0 21771
0.14250000 0.14249400 11016.64192234 0 68.71029783 0 3305.22105536 0 139.58160447 0 941.06809690 0 22470
0.14350000 0.14350900 10698.74603541 0 122.74294927 0 3493.05047568 0 101.99719811 0 948.23411925 0 22519
0.14450000 0.14449900 10511.85936683 0 201.94518667 0 3455.70641555 0 -400.08720191 0 610.46946211 0 22218
0.14550000 0.14550500 10510.65042636 0 135.88047205 0 3654.79340077 0 -97.93682182 0 596.11523502 0 23559
0.14650000 0.14650700 10250.29566920 0 -21.52390953 0 3264.79364248 0 231.55535517 0 -234.12407638 0 23044
0.14750000 0.14750500 10386.02973745 0 43.32642993 0 3543.18268588 0 55.16694815 0 515.09071395 0 23649
0.14850000 0.14849900 10291.06690918 0 19.40038897 0 2805.57372404 0 177.77414116 0 -242.44247409 0 23640
0.14950000 0.14949500 10416.76344420 0 -18.27540886 0 3240.17118526 0 417.66120348 0 483.52849480 0 24457
0.15050000 0.15050000 10383.66731250 0 15.32847783 0 2560.24753874 0 42.95298933 0 -364.84825097 0 24591
0.15150000 0.15149900 10263.64947032 0 168.79027164 0 2480.54619747 0 -46.42597583 0 -93.86723984 0 25020
0.15250000 0.15250500 9971.07478603 0 285.56504783 0 3000.22423048 0 -375.30946793 0 -80.70742375 0 25297
0.15350000 0.15350100 9715.81088826 0 210.87249110 0 3024.54722539 0 -52.64780459 0 -85.16375577 0 25452
0.15450000 0.15450400 9513.71818867 0 7.84885189 0 3007.68860603 0 402.15792838 0 153.77833657 0 26061
0.15550000 0.15549900 9503.59192586 0 47.56348899 0 2865.96529142 0 226.57429862 0 -110.31171390 0 26128
0.15650000 0.15649500 9521.29347619 0 33.40291420 0 2755.50806101 0 119.13498290 0 359.83392083 0 26331
0.15750000 0.15749700 9386.09178539 0 72.91153232 0 2535.94672623 0 184.84367010 0 42.33864793 0 27345
0.15850000 0.15849900 9447.10445980 0 -161.00536050 0 2409.88418171 0 273.72519508 0 858.47306235 0 26980
0.15950000 0.15949700 9497.53613232 0 -32.40082456 0 1973.13502829 0 440.35046508 0 306.12479961 0 27777
0.16050000 0.16050000 9636.48664769 0 60.12415862 0 1848.17051227 0 272.70591408 0 696.35414568 0 28224
0.16150000 0.16150500 9337.16851565 0 238.10248873 0 1832.44319500 0 -454.19893359 0 296.11610348 0 28075
0.16250000 0.16249700 9069.97048997 0 283.20927759 0 2225.94777152 0 -415.35201627 0 635.60544175 0 28590
0.16350000 0.16349900 8826.79599688 0 111.10495631 0 2668.02069949 0 -171.89580678 0 554.93472987 0 29163
0.16450000 0.16449100 8870.16257695 0 6.81169188 0 2623.13462544 0 -22.20956733 0 -60.03498540 0 28996
0.16550000 0.16550500 8851.59591326 0 62.44166423 0 2781.19527315 0 79.05638817 0 207.47082099 0 30777
0.16650000 0.16650700 8653.39622379 0 196.86320023 0 2735.47735932 0 -327.82916292 0 -332.32664328 0 29211
0.16750000 0.16749900 8563.59080210 0 89.55908621 0 2909.25423311 0 67.38778351 0 238.74688727 0 30922
0.16850000 0.16850800 8621.22066144 0 -28.95867158 0 2965.81933755 0 255.37591885 0 -59.61030347 0 30867
0.16950000 0.16949900 8594.67942715 0 38.36799943 0 2673.74375711 0 -130.99369068 0 -216.20624771 0 30852
0.17050000 0.17049200 8571.78719665 0 140.73619808 0 3113.49862491 0 -161.53884707 0 -396.57572896 0 31257
0.17150000 0.17149500 8418.75086115 0 125.35381703 0 3195.79530627 0 -192.09065819 0 -170.69906663 0 32608
0.17250000 0.17250900 8332.53898728 0 15.50382965 0 3217.36768433 0 184.80817827 0 -1.69277175 0 32361
0.17350000 0.17350400 8374.25297900 0 9.66515739 0 2948.29524637 0 195.67311480 0 -558.01031878 0 32508
0.17450000 0.17449800 8289.28331918 0 36.15719114 0 2969.04687586 0 337.23449793 0 -81.90671487 0 32791
0.17550000 0.17549800 8275.00894871 0 44.10802658 0 2491.04956098 0 283.48433928 0 147.76801694 0 33633
0.17650000 0.17650100 8154.39218189 0 69.22559484 0 2539.75100678 0 416.08625351 0 706.23418392 0 33984
0.17750000 0.17750300 8074.57992865 0 -5.45398519 0 1781.25732108 0 394.69244372 0 608.09816420 0 34069
0.17850000 0.17849800 8118.60088934 0 50.59515677 0 1870.85201003 0 352.10557480 0 785.21127003 0 34536
