### header ###
fiducial parameters:
Omega_m = 0.31
Omega_nu = 0
Omega_de = 0.69
Omega_k = 0
H_0 = 100
w_de = -1
zeff = 0
beta = 0
fgrowth = 0
b_1 = 2
gamma = 0.55
Lx = 3500 Ly = 3500 Lz = 3500
nx = 700 ny = 700 nz = 700
xoffset = 1379.75464 yoffset = 22.6059522 zoffset = 368.141391
bins = 400 dk = 0.001
kx_ny = 0.628318531 ky_ny = 0.628318531 kz_ny = 0.628318531
############################
A(data) = 3.36024693 (not used)
A(ran) = 3.36021191 (used)
Ngal = 189215
weighted Ngal = 0
Nran = 9399747
weighted Nran = 0
SN(data) = 6632.70135
SN(ran) = 133.653715
SN(data+ran) = 6766.35507
############################
13 columns: k_central k_mean P_0(k) sigma^{lin}_{P_0(k)} P^img_1(k) sigma^{lin}_{P_1(k)} P_2(k) sigma^{lin}_{P_2(k)} P^img_3(k) sigma^{lin}_{P_3(k)} P_4(k) sigma^{lin}_{P_4(k)} N_modes
### header ###
0.00050000 0 0 0 0 0 0 0 0 0 0 0 0
0.00150000 0.00179520 2008.36066979 0 -12119.57272926 0 -18866.68056877 0 22411.53802540 0 14998.18198520 0 3
0.00250000 0.00253879 11390.54835386 0 -16158.43209796 0 -12618.89841587 0 -15532.44494220 0 -658.90582830 0 6
0.00350000 0.00331552 20182.54017471 0 -10005.92332684 0 -23760.44939824 0 -9990.06291520 0 -17760.88823304 0 7
0.00450000 0.00420575 31389.08557120 0 -4969.56606941 0 -20911.23181421 0 -21790.09826039 0 -4827.42128932 0 24
0.00550000 0.00557378 27485.20606936 0 942.51771634 0 -11378.23712524 0 -20068.52267008 0 -2245.93410842 0 45
0.00650000 0.00659388 33080.16036989 0 4352.18568248 0 1596.25615599 0 -15620.39813400 0 -21992.40169272 0 40
0.00750000 0.00754703 25549.45946599 0 634.33439058 0 -343.55204371 0 -6570.56925769 0 -4693.80563968 0 57
0.00850000 0.00846663 29126.48139376 0 -2497.40481683 0 2268.47142062 0 3619.25720575 0 -8426.04886875 0 75
0.00950000 0.00948925 32968.02836874 0 -4967.15927967 0 -1321.53829877 0 3028.45132671 0 -1985.84553999 0 112
0.01050000 0.01054430 38617.32953432 0 -5154.21231620 0 -5421.43252428 0 3960.34478550 0 -16348.86794956 0 105
0.01150000 0.01145670 50576.19081980 0 -7819.59331081 0 -11942.66813794 0 -3853.61419727 0 -10847.57880725 0 144
0.01250000 0.01249090 58262.94486477 0 -6779.41649622 0 -7823.13140264 0 -13696.51911136 0 -18713.62205089 0 169
0.01350000 0.01339930 59539.54163351 0 4075.69323376 0 -11993.90946784 0 -14626.62688744 0 -7691.32361811 0 180
0.01450000 0.01448870 61509.44912348 0 3156.02227401 0 8454.98580158 0 -12730.58676914 0 -19140.85495733 0 267
0.01550000 0.01550050 61356.50151757 0 864.41018007 0 27176.98170617 0 -5444.42457555 0 -33006.29299822 0 238
0.01650000 0.01653350 56869.11414429 0 5189.92597038 0 31282.72099246 0 -6914.84001096 0 -17328.88611190 0 315
0.01750000 0.01747870 51854.45126809 0 5166.59009200 0 31083.52309527 0 -701.75888595 0 -13719.47788904 0 297
0.01850000 0.01844180 50065.44120034 0 812.48563244 0 38311.87797037 0 522.76693136 0 -6278.14985015 0 388
0.01950000 0.01947590 47382.48065856 0 548.44748877 0 39200.06102198 0 11832.42164027 0 -8012.55795532 0 399
0.02050000 0.02045430 50135.31574111 0 -3184.57101496 0 30416.94215868 0 12303.02112679 0 3338.47246381 0 462
0.02150000 0.02154770 53043.09484503 0 -3780.04628791 0 21479.98839371 0 17523.75844228 0 10681.94287203 0 571
0.02250000 0.02255340 57123.21346637 0 -2624.77612258 0 7233.68974083 0 7007.03003999 0 5944.67083151 0 510
0.02350000 0.02348930 61592.85492453 0 -2065.29178373 0 6671.54351470 0 2218.03974810 0 6561.47447619 0 555
0.02450000 0.02439640 56376.99773569 0 2203.12208820 0 4763.75781884 0 -7739.42613927 0 -387.96341453 0 592
0.02550000 0.02547300 59024.91009511 0 2097.84444677 0 5525.51231644 0 -5194.87264421 0 4205.23841412 0 837
0.02650000 0.02652900 51815.07751892 0 818.15656144 0 12381.10315330 0 -6051.91161480 0 -10379.25301612 0 723
0.02750000 0.02749970 57163.58542326 0 2474.36840077 0 13238.00902952 0 953.70097023 0 -9040.61209165 0 826
0.02850000 0.02848090 51583.93697452 0 -723.49319549 0 13913.79565958 0 -3132.25383895 0 -10699.92170228 0 831
0.02950000 0.02946900 54456.88972002 0 -297.27069709 0 12805.34143657 0 1338.39691814 0 -11305.58978523 0 996
0.03050000 0.03053250 56351.70980665 0 -330.60528951 0 12903.72035350 0 -782.55936484 0 -11130.34887345 0 1041
0.03150000 0.03150510 54620.92852288 0 1564.18041441 0 14271.93040903 0 -2616.62409283 0 -18935.66781379 0 1036
0.03250000 0.03246190 52385.27595403 0 2499.04631398 0 17151.20513679 0 -3312.40815098 0 -6808.28688188 0 1059
0.03350000 0.03345080 52735.64686562 0 1040.08143030 0 18871.89343134 0 1554.02087801 0 -13163.14345012 0 1302
0.03450000 0.03451200 51714.36945063 0 -883.72771780 0 18105.82445813 0 2679.63318269 0 -12646.29367233 0 1339
0.03550000 0.03553350 51637.39654381 0 2581.94191997 0 22111.52114795 0 23.87491055 0 -11251.02109625 0 1365
0.03650000 0.03647120 48248.14858037 0 2292.79441553 0 19839.15671719 0 126.33982444 0 -3003.59595435 0 1308
0.03750000 0.03744890 45345.13869114 0 922.21971681 0 21830.13748137 0 969.02456793 0 -1938.90759450 0 1579
0.03850000 0.03847530 45406.25118633 0 177.91278113 0 21688.83563225 0 3510.28619573 0 201.01685349 0 1662
0.03950000 0.03950240 43857.36553251 0 1350.00940134 0 18552.35604726 0 3303.37991666 0 1820.63107025 0 1683
0.04050000 0.04050350 44196.86707109 0 467.37527556 0 20598.90370815 0 2400.36793473 0 2351.48902978 0 1822
0.04150000 0.04152450 41936.14839714 0 1158.83043954 0 15126.95078177 0 858.45642555 0 4249.85829944 0 1887
0.04250000 0.04250150 38964.48399880 0 1506.61710225 0 19151.61341837 0 29.31636269 0 2100.01832137 0 1920
0.04350000 0.04349210 38661.80523408 0 1002.08188043 0 17340.08822082 0 466.73087702 0 5246.43561883 0 2005
0.04450000 0.04448520 36699.21793410 0 938.52488544 0 14957.69911634 0 874.63848190 0 2839.09132122 0 2151
0.04550000 0.04548030 36354.61444491 0 625.45145095 0 17900.74822655 0 1404.97737342 0 7164.51394546 0 2274
0.04650000 0.04648670 36364.37469823 0 -372.62761651 0 17744.02961367 0 1923.84574905 0 3030.10391506 0 2311
0.04750000 0.04749250 36277.86336203 0 462.86670400 0 16513.46131227 0 -497.37141771 0 2713.74970450 0 2568
0.04850000 0.04851840 35915.84669364 0 59.85264612 0 15936.94089490 0 2314.86589746 0 3491.09842501 0 2493
0.04950000 0.04949480 35059.27355333 0 111.18592205 0 16734.39795548 0 -1307.31938429 0 3868.80913709 0 2644
0.05050000 0.05050630 35936.47631997 0 823.11543560 0 16546.62399114 0 1058.48505339 0 4930.76906248 0 2829
0.05150000 0.05149060 35579.78342611 0 0.28010929 0 19042.25421646 0 2165.45638337 0 5020.65212255 0 2784
0.05250000 0.05249300 33908.34004601 0 491.55741227 0 15573.37145894 0 341.35044112 0 2555.51159764 0 3055
0.05350000 0.05348950 35387.46207103 0 261.96187160 0 16632.91350340 0 676.02287255 0 2662.06472672 0 3009
0.05450000 0.05448610 34944.92331280 0 -403.26926632 0 15091.79168745 0 1207.90898604 0 4748.36323747 0 3336
0.05550000 0.05550870 34018.58654368 0 704.04367252 0 13166.91445708 0 993.20115904 0 1758.50927614 0 3349
0.05650000 0.05647670 33680.30503676 0 138.47692126 0 11610.48678934 0 241.60176136 0 1550.85988688 0 3324
0.05750000 0.05747970 33773.47109112 0 -197.28799308 0 12502.66267185 0 1548.84128903 0 -1811.69156551 0 3639
0.05850000 0.05849280 33062.85810265 0 699.99205828 0 10581.90027556 0 -334.00585050 0 -3580.65984037 0 3846
0.05950000 0.05951020 31924.56855986 0 340.74042528 0 10990.18941762 0 -2006.26443357 0 -2366.72833439 0 3787
0.06050000 0.06049470 31783.82127058 0 581.95732211 0 10697.78110127 0 -493.44624311 0 -4355.96778064 0 3930
0.06150000 0.06148310 32360.89624780 0 -469.09773845 0 10423.68435109 0 1855.75689098 0 -3209.67039365 0 4083
0.06250000 0.06249100 32676.44080098 0 -760.85943801 0 8236.41158333 0 1655.93788676 0 -4323.43729999 0 4303
0.06350000 0.06350600 32999.52736808 0 -283.11500242 0 9194.12534861 0 1243.17899234 0 -4340.89484399 0 4470
0.06450000 0.06451750 33985.09112890 0 438.25422885 0 9542.21147363 0 154.94623961 0 -4440.08341830 0 4479
0.06550000 0.06550280 32279.37595023 0 1280.34559331 0 8506.33804345 0 -2345.68833378 0 -3679.50458757 0 4636
0.06650000 0.06648880 32045.35169462 0 948.22524629 0 12923.90633195 0 -3330.70862595 0 -3614.21071114 0 4653
0.06750000 0.06749660 30430.36250699 0 1156.45692340 0 14024.70762906 0 -1357.06340260 0 -3521.79885817 0 5220
0.06850000 0.06852730 29410.08329972 0 1168.41323371 0 16627.36790493 0 -59.82425266 0 -3844.43068619 0 5029
0.06950000 0.06949320 28854.63615656 0 355.82112577 0 16242.39245886 0 -522.95991819 0 -5130.27751319 0 5040
0.07050000 0.07048030 27921.53375730 0 542.95623716 0 17885.99693461 0 1125.35720715 0 -2782.39312242 0 5475
0.07150000 0.07148790 28016.91805106 0 12.07243514 0 17690.34822045 0 1347.01477816 0 -1611.04072152 0 5509
0.07250000 0.07249820 27641.81377027 0 -333.59214885 0 15656.77725999 0 2210.35354861 0 -1922.06006634 0 5916
0.07350000 0.07351270 28181.06776589 0 290.76238272 0 14019.71659043 0 2172.29965188 0 -1356.44229557 0 5721
0.07450000 0.07449140 27192.17664599 0 44.51640446 0 12317.55059479 0 1375.68552228 0 188.94963121 0 6028
0.07550000 0.07549160 27002.62809014 0 548.46079821 0 11963.51958820 0 1915.48298655 0 1276.20857685 0 6183
0.07650000 0.07648840 25939.42595069 0 548.84344450 0 11025.53706229 0 515.95139083 0 1386.63253366 0 6330
0.07750000 0.07749960 25210.06883937 0 541.83158979 0 9779.55199713 0 1181.92231159 0 2435.01683400 0 6583
0.07850000 0.07848650 24158.06880883 0 407.95751527 0 10236.25421386 0 406.29050837 0 1983.78257736 0 6549
0.07950000 0.07947320 23695.34407215 0 761.50938215 0 9925.97797924 0 -1313.46390740 0 1962.35438485 0 6828
0.08050000 0.08048110 22956.89217934 0 451.85314543 0 10910.06661086 0 -455.52876810 0 463.75067240 0 7147
0.08150000 0.08149960 22467.65948195 0 260.23164488 0 10614.59712416 0 687.50891611 0 1510.48792998 0 7386
0.08250000 0.08250610 22610.07045077 0 234.60987081 0 9984.33985758 0 670.50167471 0 -554.45559016 0 7227
0.08350000 0.08350160 21732.42403626 0 9.03411265 0 9153.45392940 0 1095.47974082 0 929.85933327 0 7798
0.08450000 0.08449610 22130.48709473 0 258.87297325 0 9694.44924294 0 1008.52697498 0 1245.56359968 0 7371
0.08550000 0.08548940 21203.37394183 0 352.67233496 0 8369.81650022 0 -97.53565323 0 -453.93829046 0 8256
0.08650000 0.08650700 21226.44363148 0 185.77533064 0 7414.13242398 0 881.60929918 0 988.43083523 0 8037
0.08750000 0.08749060 20605.11477844 0 -340.72489761 0 6908.57348468 0 510.46346658 0 -108.49220304 0 8155
0.08850000 0.08849210 20919.32838798 0 89.26772046 0 5990.62166046 0 1026.28509041 0 1220.25348824 0 8718
0.08950000 0.08949900 21175.97868536 0 -134.82126274 0 5345.86819947 0 502.25819908 0 -981.55096576 0 8571
0.09050000 0.09049190 20902.80250453 0 202.51860156 0 4815.36515824 0 262.71274563 0 124.52197726 0 8932
0.09150000 0.09150830 20407.46964882 0 437.51000954 0 5434.06539760 0 -686.25450173 0 -987.21413092 0 9285
0.09250000 0.09250820 20258.73669775 0 467.63702781 0 5270.89170810 0 -366.01282665 0 -642.42985523 0 9204
0.09350000 0.09350330 19066.54393778 0 543.04829410 0 7012.30944974 0 -550.03131170 0 -63.29158265 0 9349
0.09450000 0.09448040 19330.73624909 0 340.45649064 0 7011.56633955 0 -630.33157760 0 -975.75248800 0 9564
0.09550000 0.09549270 18774.84545804 0 2.40934071 0 7553.99241750 0 579.83779438 0 -1263.90843943 0 10155
0.09650000 0.09649430 18796.69511603 0 90.80218756 0 7134.42352814 0 219.08995892 0 -1561.42979757 0 9913
0.09750000 0.09749140 18367.57670610 0 342.55050863 0 7672.45749210 0 -919.63103144 0 -1419.47356783 0 10476
0.09850000 0.09850240 18106.26810600 0 682.35705513 0 7783.06999926 0 -132.79601018 0 -2346.05434328 0 10575
0.09950000 0.09950330 16927.05204647 0 484.78734565 0 8257.50703992 0 -458.70639603 0 -1444.26239301 0 10882
0.10050000 0.10051200 16981.62073545 0 83.89614287 0 7277.12286808 0 909.11324937 0 -1520.92474631 0 10875
0.10150000 0.10150300 16971.97139411 0 -231.62633883 0 7337.20388195 0 1341.83518919 0 -1954.44636143 0 11118
0.10250000 0.10250800 16716.43021642 0 87.60182268 0 6050.65830954 0 598.85919714 0 -1360.26875852 0 11575
0.10350000 0.10349800 16736.72710684 0 233.73255713 0 5913.77075681 0 445.65649370 0 -1297.09330070 0 11364
0.10450000 0.10450100 16302.17401041 0 127.37352399 0 5424.56024182 0 -121.95436516 0 -610.63472094 0 12093
0.10550000 0.10551000 16144.67901374 0 199.38644754 0 5504.62759258 0 284.96168671 0 -1681.43654855 0 12067
0.10650000 0.10649700 15785.43514459 0 315.34491163 0 5327.26826219 0 -8.78256430 0 -1456.04124417 0 12054
0.10750000 0.10749900 15482.86729184 0 309.73387510 0 5582.79834868 0 -710.33238119 0 -1764.02160102 0 12807
0.10850000 0.10850100 15244.07382155 0 155.18691858 0 5308.29122421 0 661.14625008 0 -1519.62707627 0 12736
0.10950000 0.10950300 15140.14930614 0 -182.04979759 0 5268.92856624 0 529.92740811 0 -1853.25028047 0 12933
0.11050000 0.11050200 15042.21403709 0 -38.26995325 0 4577.11515659 0 512.31347824 0 -1548.95220100 0 13428
0.11150000 0.11150900 15224.99696279 0 104.07701936 0 4384.18378568 0 369.29138447 0 -850.58056660 0 13453
0.11250000 0.11250000 15442.93898283 0 -141.54807369 0 3486.70631102 0 596.87165465 0 -1755.51465296 0 13668
0.11350000 0.11349100 15134.38188373 0 131.90871442 0 3921.33704583 0 275.56855202 0 -610.33414950 0 13791
0.11450000 0.11448600 14913.11250461 0 298.37094382 0 3624.80280422 0 -319.30890542 0 -762.70944966 0 14205
0.11550000 0.11549300 14636.16531681 0 233.47856872 0 3817.93381668 0 380.53342170 0 -181.86013812 0 14776
0.11650000 0.11649800 14174.77152377 0 131.33419042 0 3442.96263026 0 226.48445992 0 -150.52196114 0 14553
0.11750000 0.11747300 14312.41327789 0 18.28860738 0 3296.61428653 0 362.15087187 0 401.86733902 0 14568
0.11850000 0.11849100 14278.47421523 0 -2.99087435 0 3258.59366339 0 295.08794953 0 99.67104138 0 16015
0.11950000 0.11950300 14194.40294237 0 -31.99300125 0 3348.92037133 0 335.49318001 0 538.16816744 0 15270
0.12050000 0.12050700 14428.75993388 0 97.24694937 0 3014.95334003 0 -290.97644282 0 621.40649142 0 15999
0.12150000 0.12150000 14418.77785663 0 51.48788721 0 2912.63704818 0 -250.64108688 0 -155.44977995 0 15670
0.12250000 0.12250700 14003.30161895 0 336.73872143 0 3735.85895927 0 -338.77506518 0 -123.89088815 0 16887
0.12350000 0.12352200 13599.02749019 0 419.87056991 0 4258.85326016 0 -904.85533887 0 -527.22337429 0 16407
0.12450000 0.12449800 13221.26132213 0 481.00968397 0 5268.87311025 0 -607.29959802 0 -985.13896798 0 16306
0.12550000 0.12549900 12804.78687672 0 388.02441611 0 5619.57675776 0 -462.01600919 0 -869.35241743 0 17523
0.12650000 0.12650100 12558.34048053 0 -25.67312631 0 5445.82206637 0 330.43448508 0 -1260.78072189 0 17154
0.12750000 0.12750600 12725.81755445 0 -74.62057486 0 5798.42230855 0 448.45036621 0 -726.86713760 0 18007
0.12850000 0.12850300 12430.23715578 0 -62.60204293 0 4208.06666934 0 734.18400023 0 -1571.09023011 0 17496
0.12950000 0.12949900 12620.89483132 0 134.63714887 0 5044.48710479 0 201.74221777 0 -475.07589360 0 18405
0.13050000 0.13049000 12517.19213986 0 91.90298886 0 3785.22587688 0 67.68780038 0 -1208.75191701 0 18100
0.13150000 0.13148800 12206.63862531 0 -11.07588001 0 4005.98506094 0 516.93961648 0 -367.95267700 0 19059
0.13250000 0.13249300 12137.31864438 0 13.87542012 0 3379.11060943 0 458.90714669 0 -1069.20580436 0 18957
0.13350000 0.13349100 12214.73519908 0 -19.25953076 0 2878.16560806 0 576.83318912 0 -409.56795707 0 19468
0.13450000 0.13450700 12069.77325496 0 263.10426489 0 2837.44982407 0 19.94574312 0 -935.55022642 0 19953
0.13550000 0.13551000 11769.86728948 0 274.06569483 0 2583.43923156 0 -110.22453710 0 53.77045554 0 19956
0.13650000 0.13649900 11135.78355995 0 234.53001419 0 2865.95420022 0 0.94502987 0 -270.02184442 0 19723
0.13750000 0.13749600 11358.16205877 0 82.43077393 0 2460.31585424 0 114.98132964 0 -662.57812361 0 20946
0.13850000 0.13851100 10963.32653861 0 8.75087675 0 2914.38945730 0 456.87856677 0 -254.15588719 0 20955
0.13950000 0.13949800 11101.73358532 0 138.23513316 0 2346.42035278 0 -95.02882089 0 54.02233662 0 20506
0.14050000 0.14048300 10966.69826248 0 33.99962060 0 2443.37959650 0 95.40891621 0 -89.02704149 0 21447
0.14150000 0.14148400 10789.50530003 0 177.59668201 0 2640.82508457 0 -366.64169752 0 -20.43320123 0 21771
0.14250000 0.14249400 10738.11978457 0 93.37523434 0 2971.69767193 0 -185.85075078 0 -521.90181800 0 22470
0.14350000 0.14350900 10561.41483479 0 172.88292331 0 3343.76296475 0 -418.32889354 0 -559.18487654 0 22519
0.14450000 0.14449900 10542.80380631 0 115.90078987 0 3502.28944273 0 -234.71523718 0 -428.21004090 0 22218
0.14550000 0.14550500 10518.96882407 0 -5.66722454 0 3648.91506639 0 62.73169903 0 -814.06723713 0 23559
0.14650000 0.14650700 10538.13441240 0 16.93359585 0 3767.41341458 0 107.10325245 0 -943.19427936 0 23044
0.14750000 0.14750500 10422.26467788 0 43.26176826 0 3511.05148832 0 43.75166643 0 -701.65019222 0 23649
0.14850000 0.14849900 10391.56424473 0 141.17984595 0 3539.52259089 0 116.63169975 0 -1161.25941168 0 23640
0.14950000 0.14949500 10410.00890525 0 27.13727522 0 2888.69115397 0 367.45468225 0 -599.85629575 0 24457
0.15050000 0.15050000 10113.30829569 0 -20.40835694 0 2867.34059984 0 522.50517911 0 -383.04890516 0 24591
0.15150000 0.15149900 10265.80116253 0 47.17984449 0 2669.12981918 0 445.23170085 0 -339.86200249 0 25020
0.15250000 0.15250500 9979.44863972 0 236.42328151 0 2069.16261146 0 -123.66684597 0 -305.28075952 0 25297
0.15350000 0.15350100 9566.26827981 0 331.44600224 0 2491.07174337 0 -271.19862042 0 -332.70707133 0 25452
0.15450000 0.15450400 9401.34218119 0 142.04163196 0 2588.86282687 0 67.72218309 0 -65.51082025 0 26061
0.15550000 0.15549900 9258.32119654 0 110.86682831 0 2696.85781155 0 58.62529427 0 -167.36172547 0 26128
0.15650000 0.15649500 9118.67193577 0 75.17835115 0 2493.23452678 0 -41.29918096 0 -203.05319725 0 26331
0.15750000 0.15749700 8936.89830898 0 148.33477711 0 2818.39514771 0 236.00736162 0 -215.21136734 0 27345
0.15850000 0.15849900 8867.99979354 0 39.31163846 0 2890.53229266 0 23.29151359 0 443.47152790 0 26980
0.15950000 0.15949700 8984.15789918 0 -5.15526598 0 2683.12690973 0 89.45371983 0 22.44192791 0 27777
0.16050000 0.16050000 8955.36515190 0 72.57546905 0 2654.98854307 0 -5.33161601 0 349.22297271 0 28224
0.16150000 0.16150500 8862.59838063 0 70.74109599 0 2757.75957399 0 187.85493007 0 225.81455163 0 28075
0.16250000 0.16249700 8796.57248520 0 62.55612538 0 2692.26605601 0 -204.00038547 0 91.94502449 0 28590
0.16350000 0.16349900 8693.72381589 0 113.41192527 0 2831.69349285 0 -6.97141621 0 259.63604760 0 29163
0.16450000 0.16449100 8483.84509604 0 136.86537034 0 2792.43065565 0 -26.96702535 0 -167.39721730 0 28996
0.16550000 0.16550500 8399.70727599 0 174.98137777 0 2920.95544589 0 -262.91460542 0 -97.76080452 0 30777
0.16650000 0.16650700 8282.71733058 0 113.69142344 0 3061.46982003 0 -47.51479864 0 -419.79736801 0 29211
0.16750000 0.16749900 8020.48816114 0 112.75754465 0 3213.24175907 0 26.81929060 0 -328.23066425 0 30922
0.16850000 0.16850800 8128.54969300 0 -38.93753239 0 3066.60504421 0 340.47867304 0 -188.34627010 0 30867
0.16950000 0.16949900 8015.14220421 0 22.96166139 0 2747.87731751 0 167.71886201 0 64.61786798 0 30852
0.17050000 0.17049200 8110.10503248 0 19.82019077 0 2875.22644087 0 141.49927243 0 241.81582146 0 31257
0.17150000 0.17149500 8103.61668226 0 10.86919555 0 2739.23727509 0 162.91637373 0 407.71461806 0 32608
0.17250000 0.17250900 8096.72904896 0 51.97789629 0 2864.55670941 0 142.82023398 0 818.42496841 0 32361
0.17350000 0.17350400 8067.08227952 0 49.90228969 0 2810.76440421 0 28.34000462 0 632.47217861 0 32508
0.17450000 0.17449800 8075.68904835 0 45.46514544 0 2906.27070113 0 14.99640739 0 1136.16003298 0 32791
0.17550000 0.17549800 8039.02155124 0 -13.99498322 0 2929.20729642 0 237.59340279 0 885.03204256 0 33633
0.17650000 0.17650100 8047.38431374 0 -18.57021287 0 2669.29618713 0 177.15636149 0 972.63807990 0 33984
0.17750000 0.17750300 8196.45000072 0 13.98666482 0 2603.72503078 0 2.74471633 0 672.15315393 0 34069
0.17850000 0.17849800 8024.20371212 0 88.06255100 0 2558.80568314 0 -55.34928743 0 529.46379608 0 34536
