### header ###
fiducial parameters:
Omega_m = 0.31
Omega_nu = 0
Omega_de = 0.69
Omega_k = 0
H_0 = 100
w_de = -1
zeff = 0
beta = 0
fgrowth = 0
b_1 = 2
gamma = 0.55
Lx = 3500 Ly = 3500 Lz = 3500
nx = 700 ny = 700 nz = 700
xoffset = 1379.75464 yoffset = 22.6059522 zoffset = 368.141391
bins = 400 dk = 0.001
kx_ny = 0.628318531 ky_ny = 0.628318531 kz_ny = 0.628318531
############################
A(data) = 3.36310925 (not used)
A(ran) = 3.3590189 (used)
Ngal = 188571
weighted Ngal = 0
Nran = 9399747
weighted Nran = 0
SN(data) = 6637.50614
SN(ran) = 133.606263
SN(data+ran) = 6771.1124
############################
13 columns: k_central k_mean P_0(k) sigma^{lin}_{P_0(k)} P^img_1(k) sigma^{lin}_{P_1(k)} P_2(k) sigma^{lin}_{P_2(k)} P^img_3(k) sigma^{lin}_{P_3(k)} P_4(k) sigma^{lin}_{P_4(k)} N_modes
### header ###
0.00050000 0 0 0 0 0 0 0 0 0 0 0 0
0.00150000 0.00179520 26684.42164970 0 -37066.22564111 0 -55195.34161283 0 62195.99421458 0 30615.69640800 0 3
0.00250000 0.00253879 44564.20751402 0 -32240.33493697 0 -14521.92598825 0 -68600.16224445 0 -16684.48756921 0 6
0.00350000 0.00331552 69208.18166115 0 -21021.03466400 0 -79918.17417027 0 7924.02802128 0 672.91622829 0 7
0.00450000 0.00420575 84480.87077083 0 -11654.29701728 0 -53458.01652286 0 -40708.13107103 0 -4867.66015185 0 24
0.00550000 0.00557378 85171.63051676 0 2685.79988819 0 -50472.37721637 0 -46768.13925960 0 -6553.45554080 0 45
0.00650000 0.00659388 74679.69093965 0 5170.03945425 0 -10771.13827789 0 -28573.58522589 0 -36138.33610442 0 40
0.00750000 0.00754703 64231.89432639 0 13634.18658451 0 -9991.73768594 0 -41880.69241240 0 -31207.96632503 0 57
0.00850000 0.00846663 57112.45500533 0 12535.49261482 0 16888.78741700 0 -26317.52485465 0 -22400.44682845 0 75
0.00950000 0.00948925 41164.53382545 0 6953.59265310 0 35795.83994266 0 -4540.05946759 0 -16270.78592304 0 112
0.01050000 0.01054430 35636.23761858 0 1694.62398172 0 31971.37341098 0 13619.43529257 0 -6115.55290289 0 105
0.01150000 0.01145670 42841.07915614 0 -1328.00446660 0 48950.99773098 0 16872.81609339 0 -735.10678781 0 144
0.01250000 0.01249090 49587.96517172 0 -7368.05959186 0 24561.45564184 0 21899.56837427 0 14070.95792033 0 169
0.01350000 0.01339930 58987.42184943 0 -8778.73784050 0 42129.13522404 0 16594.20522605 0 29468.20117173 0 180
0.01450000 0.01448870 69824.07582769 0 -4492.35622951 0 26666.23208670 0 5255.18657322 0 35893.99703565 0 267
0.01550000 0.01550050 75484.80092612 0 -3614.70981500 0 25699.96700857 0 10168.53136530 0 16641.78646096 0 238
0.01650000 0.01653350 85661.19595005 0 1691.75136171 0 39696.05934951 0 -12173.80868234 0 29864.82237460 0 315
0.01750000 0.01747870 76847.02173530 0 6778.21864695 0 39823.38629047 0 -2017.34453932 0 9722.89816311 0 297
0.01850000 0.01844180 78439.49579313 0 2765.21285834 0 68452.09476519 0 -5725.26477348 0 21564.72513840 0 388
0.01950000 0.01947590 70380.07753070 0 7031.25321413 0 53754.70604123 0 -242.65986155 0 -4594.76125094 0 399
0.02050000 0.02045430 68671.14590492 0 3331.57373931 0 80213.64365697 0 2207.64729656 0 21807.17870369 0 462
0.02150000 0.02154770 68064.34651988 0 -1703.56348646 0 51932.75511854 0 16481.74048900 0 3368.77361387 0 571
0.02250000 0.02255340 73127.92157462 0 -5133.36086594 0 71532.78562953 0 16170.74332657 0 8337.29711077 0 510
0.02350000 0.02348930 71633.93734570 0 2999.48112028 0 39553.75929266 0 7066.93359471 0 8177.55060112 0 555
0.02450000 0.02439640 72375.93842153 0 3511.55059219 0 44604.46855894 0 2486.72399417 0 11703.98557961 0 592
0.02550000 0.02547300 65517.69678860 0 2536.77856600 0 42720.07419744 0 3689.03192575 0 11383.67181175 0 837
0.02650000 0.02652900 64621.97172306 0 920.38856019 0 40755.60139397 0 3836.34520362 0 923.30110851 0 723
0.02750000 0.02749970 61892.09541820 0 -57.53414231 0 35813.69676975 0 6204.24920488 0 5782.14043143 0 826
0.02850000 0.02848090 63682.10369367 0 491.20693044 0 31002.00279770 0 -668.24905261 0 -2640.96927013 0 831
0.02950000 0.02946900 59687.83093671 0 1474.53026948 0 35380.69644089 0 4091.08781512 0 10071.79394551 0 996
0.03050000 0.03053250 60441.25594540 0 -705.19604788 0 29536.41203296 0 6609.33299102 0 3134.91572622 0 1041
0.03150000 0.03150510 62148.52389164 0 315.76859536 0 23530.52888550 0 3544.69108867 0 -3556.03738315 0 1036
0.03250000 0.03246190 58980.76713126 0 1777.46413173 0 22976.63450991 0 552.29724323 0 1074.89226104 0 1059
0.03350000 0.03345080 58743.41551657 0 1393.20961345 0 24304.80534446 0 4158.20064786 0 6876.49774311 0 1302
0.03450000 0.03451200 53588.55991094 0 1439.90355261 0 19400.38896592 0 3473.57433384 0 5622.56028974 0 1339
0.03550000 0.03553350 51782.91304777 0 1477.85762856 0 14316.96066864 0 7446.50762787 0 4973.07088764 0 1365
0.03650000 0.03647120 51204.50712692 0 2856.48231803 0 19730.79572301 0 -4277.90793652 0 7710.53357122 0 1308
0.03750000 0.03744890 45429.87543583 0 3138.93073951 0 18007.66736513 0 2332.13489111 0 9464.68400696 0 1579
0.03850000 0.03847530 44290.14403743 0 1379.26797889 0 22149.34212954 0 -1633.82204005 0 12786.48640176 0 1662
0.03950000 0.03950240 40068.39083106 0 1711.07222679 0 18282.06357763 0 -882.61970722 0 2951.47841989 0 1683
0.04050000 0.04050350 40016.92767722 0 1283.09621015 0 24583.19438786 0 335.72942250 0 7297.37539370 0 1822
0.04150000 0.04152450 39732.21665156 0 -4.57335524 0 25433.33463394 0 1414.08324611 0 5022.65962920 0 1887
0.04250000 0.04250150 40053.30680321 0 -658.28472127 0 22170.52631571 0 3017.11612343 0 1616.91905590 0 1920
0.04350000 0.04349210 40592.33897489 0 -566.75683670 0 19460.83598929 0 1600.22680449 0 3434.66641494 0 2005
0.04450000 0.04448520 40753.49406655 0 782.62923938 0 20983.76824225 0 429.44005464 0 1711.14986517 0 2151
0.04550000 0.04548030 40390.70101437 0 1366.63510557 0 22998.81690380 0 125.10204686 0 5440.27646789 0 2274
0.04650000 0.04648670 37372.78632476 0 716.73754743 0 17666.94579488 0 467.69470203 0 507.18379965 0 2311
0.04750000 0.04749250 37947.64306259 0 699.84898183 0 22858.84599832 0 1869.29924246 0 2336.66009946 0 2568
0.04850000 0.04851840 35969.86082278 0 1203.23959212 0 19243.00488123 0 -236.04839905 0 -663.52753007 0 2493
0.04950000 0.04949480 35616.60619998 0 560.81417337 0 19213.05864947 0 1408.87038354 0 -961.73654242 0 2644
0.05050000 0.05050630 34654.66668866 0 80.51388236 0 19212.94773750 0 576.49158026 0 342.12460666 0 2829
0.05150000 0.05149060 34555.84412385 0 495.99721840 0 16515.45772772 0 1943.73226518 0 -1414.21634047 0 2784
0.05250000 0.05249300 34335.90568837 0 -7.97336167 0 16660.64149577 0 2669.38491671 0 1412.63029931 0 3055
0.05350000 0.05348950 33405.90882426 0 421.49764850 0 13806.87652099 0 2061.40986480 0 -1579.03152712 0 3009
0.05450000 0.05448610 32723.35656407 0 423.16798276 0 14798.76226407 0 -637.34121407 0 1643.61556695 0 3336
0.05550000 0.05550870 31640.63391798 0 901.90618960 0 13588.71267702 0 259.55840922 0 -337.18902402 0 3349
0.05650000 0.05647670 31255.65847191 0 248.02689175 0 13315.98014407 0 847.24544368 0 558.26541631 0 3324
0.05750000 0.05747970 31921.46302471 0 -850.97208585 0 10718.87655787 0 1855.31324310 0 -1058.43514301 0 3639
0.05850000 0.05849280 31837.83539972 0 -422.20526687 0 8507.71335188 0 3128.87102388 0 -1507.52658040 0 3846
0.05950000 0.05951020 32974.01761510 0 -500.36604088 0 8375.15136595 0 1835.57091254 0 2089.53714026 0 3787
0.06050000 0.06049470 32538.02266306 0 -620.86413189 0 2971.47584799 0 2438.68802019 0 -1368.75352418 0 3930
0.06150000 0.06148310 32931.87106669 0 601.74956307 0 4318.45735256 0 1262.43331024 0 2533.10737981 0 4083
0.06250000 0.06249100 30596.95228515 0 895.70177402 0 3259.82478625 0 -808.06800870 0 925.86095677 0 4303
0.06350000 0.06350600 30966.17823156 0 670.11348282 0 4148.91731601 0 -7.98525143 0 3305.60924725 0 4470
0.06450000 0.06451750 29373.37143783 0 595.21795718 0 4243.61395556 0 -682.46242150 0 2083.88062981 0 4479
0.06550000 0.06550280 29743.15194408 0 597.94084603 0 6155.50339429 0 -1034.64452555 0 3177.39501053 0 4636
0.06650000 0.06648880 28212.67767719 0 13.68176782 0 4905.48113344 0 909.12101321 0 1410.12368880 0 4653
0.06750000 0.06749660 28775.88865822 0 53.64190857 0 7021.96988228 0 -111.50978500 0 2877.66650420 0 5220
0.06850000 0.06852730 28844.65407930 0 433.24433519 0 6737.81341647 0 -882.36571881 0 320.83616324 0 5029
0.06950000 0.06949320 28872.93663152 0 673.83236115 0 8323.58839134 0 -1322.04849383 0 1274.17888781 0 5040
0.07050000 0.07048030 27916.09907080 0 21.96689194 0 8056.43473045 0 -240.54477029 0 1149.49165171 0 5475
0.07150000 0.07148790 28415.53566938 0 29.89665411 0 8860.12504371 0 -560.78866362 0 -316.40633918 0 5509
0.07250000 0.07249820 27670.65088233 0 332.85902073 0 8885.01368966 0 149.10339705 0 -1021.41716407 0 5916
0.07350000 0.07351270 27290.55556292 0 1007.91806827 0 9622.07918285 0 -1077.53307503 0 -3319.76161456 0 5721
0.07450000 0.07449140 26226.79886361 0 382.02186033 0 10073.03615957 0 74.19389651 0 -1104.50686601 0 6028
0.07550000 0.07549160 25496.44354457 0 56.02185761 0 9652.52451848 0 944.12372166 0 -1769.14573401 0 6183
0.07650000 0.07648840 26135.85104864 0 -181.53294781 0 8366.56677951 0 1195.96376693 0 -2319.46874419 0 6330
0.07750000 0.07749960 26432.98421488 0 260.93815412 0 7671.01563650 0 694.67272022 0 -2345.68833378 0 6583
0.07850000 0.07848650 25624.43595736 0 635.73520876 0 7278.33180854 0 -184.73053989 0 -1806.47870294 0 6549
0.07950000 0.07947320 24662.94009392 0 500.57344627 0 8948.45533620 0 -708.95596365 0 -891.39838961 0 6828
0.08050000 0.08048110 23703.66246986 0 666.91699986 0 7271.48854003 0 -338.68744473 0 -2828.70996087 0 7147
0.08150000 0.08149960 23026.76672011 0 342.15344378 0 9673.90834619 0 979.20295937 0 56.26852583 0 7386
0.08250000 0.08250610 22549.29069149 0 86.37225259 0 7635.10234078 0 1195.88612855 0 -330.52432378 0 7227
0.08350000 0.08350160 23161.96841091 0 -130.70531956 0 7573.95657200 0 1074.33770119 0 -499.76157065 0 7798
0.08450000 0.08449610 22177.84650570 0 868.69138210 0 8635.23993439 0 -174.19279367 0 844.33289536 0 7371
0.08550000 0.08548940 21855.86905829 0 886.13118018 0 7639.56100195 0 -1545.66920670 0 -94.99743281 0 8256
0.08650000 0.08650700 20177.88187199 0 547.01561525 0 9538.27409871 0 -575.03419698 0 461.66996385 0 8037
0.08750000 0.08749060 20285.35557042 0 618.80006014 0 10106.68685111 0 -283.83371198 0 -1096.37701865 0 8155
0.08850000 0.08849210 19431.22249344 0 290.52614022 0 10458.03378804 0 316.80118579 0 685.41600725 0 8718
0.08950000 0.08949900 18963.72854207 0 128.47820721 0 9583.39308790 0 1355.01153116 0 820.81844871 0 8571
0.09050000 0.09049190 19332.62175257 0 -95.31541742 0 9653.48945261 0 451.67457716 0 1314.32902076 0 8932
0.09150000 0.09150830 18936.55510955 0 72.52123310 0 9138.30335437 0 830.97354864 0 974.63227711 0 9285
0.09250000 0.09250820 19222.04251900 0 389.50509091 0 9092.33034302 0 421.09503805 0 1662.37078099 0 9204
0.09350000 0.09350330 17901.30278640 0 367.15189258 0 8519.37019987 0 -491.29787826 0 1809.49550851 0 9349
0.09450000 0.09448040 17957.97880281 0 246.72700347 0 9080.20766475 0 993.87439469 0 1695.15635917 0 9564
0.09550000 0.09549270 17842.07579470 0 -36.29782752 0 8534.27676857 0 521.48811635 0 1569.69273929 0 10155
0.09650000 0.09649430 17456.65670075 0 117.28608037 0 7402.48666718 0 672.95837483 0 940.55790184 0 9913
0.09750000 0.09749140 17589.86197609 0 207.91668711 0 7326.57851527 0 71.69471710 0 1204.98091005 0 10476
0.09850000 0.09850240 17066.24656817 0 143.95708167 0 6510.87643571 0 199.42083025 0 390.28369293 0 10575
0.09950000 0.09950330 17139.00482015 0 80.14354729 0 6850.91035175 0 240.89747036 0 891.72003432 0 10882
0.10050000 0.10051200 16734.39795548 0 116.62615415 0 6725.32472871 0 78.27767523 0 -337.31990015 0 10875
0.10150000 0.10150300 16911.63528271 0 184.97676446 0 6793.23612762 0 64.69805733 0 143.19178908 0 11118
0.10250000 0.10250800 16349.20068547 0 213.88153283 0 6893.47836564 0 68.73547485 0 837.58279290 0 11575
0.10350000 0.10349800 16295.85202815 0 149.70786729 0 6515.61237681 0 381.53939326 0 453.57893568 0 11364
0.10450000 0.10450100 15998.71886190 0 166.15389412 0 6772.36249496 0 293.22351932 0 864.28263131 0 12093
0.10550000 0.10551000 16207.01154059 0 161.58653922 0 6377.79316353 0 243.60261329 0 1278.41572504 0 12067
0.10650000 0.10649700 15946.03567640 0 63.09338296 0 6164.06579834 0 886.52602679 0 2050.74013333 0 12054
0.10750000 0.10749900 15694.04368173 0 -96.56040428 0 5636.34664754 0 401.08319140 0 1749.43667704 0 12807
0.10850000 0.10850100 15696.04009719 0 50.66037300 0 5243.28571889 0 943.39835738 0 2422.37286948 0 12736
0.10950000 0.10950300 15659.32823529 0 76.64305462 0 4791.43035522 0 453.77303162 0 1709.58600640 0 12933
0.11050000 0.11050200 15615.62891931 0 267.55516222 0 4145.78959847 0 -205.20378034 0 1264.80682638 0 13428
0.11150000 0.11150900 14898.25030070 0 290.23000526 0 4658.63545416 0 -234.96146175 0 2017.76600481 0 13453
0.11250000 0.11250000 14660.12230222 0 294.77185041 0 4571.63610530 0 -117.58997916 0 1235.63697841 0 13668
0.11350000 0.11349100 14435.63647599 0 -3.51165041 0 4558.23793939 0 585.34346454 0 1513.58237393 0 13791
0.11450000 0.11448600 14478.67032015 0 3.58136968 0 4112.83765234 0 -84.63038011 0 305.27077744 0 14205
0.11550000 0.11549300 14650.02931300 0 99.05381627 0 4572.50121866 0 -103.25283252 0 958.10861189 0 14776
0.11650000 0.11649800 14357.44353750 0 244.40450683 0 4553.06944161 0 -894.06138600 0 27.47832953 0 14553
0.11750000 0.11747300 14155.58375305 0 57.50242149 0 5147.54650684 0 -201.77216400 0 -273.16176228 0 14568
0.11850000 0.11849100 14402.36288514 0 127.54654667 0 5875.97195761 0 -261.25092588 0 -104.28464657 0 16015
0.11950000 0.11950300 14185.97363269 0 -34.75770391 0 5942.89623999 0 -71.01826500 0 -1174.62430400 0 15270
0.12050000 0.12050700 14333.48655210 0 83.12874295 0 5880.86317546 0 55.89131422 0 -25.23036573 0 15999
0.12150000 0.12150000 14366.98196688 0 -98.62214688 0 5550.94443104 0 612.73428452 0 -867.65990078 0 15670
0.12250000 0.12250700 14464.47358806 0 88.83228007 0 5583.94074196 0 358.32884540 0 455.30361680 0 16887
0.12350000 0.12352200 14312.30236593 0 89.50496116 0 5173.27808376 0 461.95944409 0 104.75491332 0 16407
0.12450000 0.12449800 14020.71479816 0 196.40180644 0 4985.79249054 0 230.21332034 0 593.22265085 0 16306
0.12550000 0.12549900 13929.87789515 0 138.36490017 0 4955.89062357 0 344.67114548 0 811.50073415 0 17523
0.12650000 0.12650100 13738.99839567 0 104.98195012 0 4737.19440215 0 317.95134291 0 980.75018134 0 17154
0.12750000 0.12750600 13310.10180968 0 214.64349806 0 4569.83933139 0 189.97223957 0 1211.09215956 0 18007
0.12850000 0.12850300 13222.03770592 0 242.87946725 0 4370.00923598 0 29.97806350 0 883.68557125 0 17496
0.12950000 0.12949900 12717.27733280 0 194.79025552 0 4697.88720016 0 -111.55082243 0 1428.55725813 0 18405
0.13050000 0.13049000 12784.26816237 0 243.63477776 0 4430.54498892 0 35.55915380 0 552.80411093 0 18100
0.13150000 0.13148800 12469.61090495 0 53.07492658 0 4604.69896340 0 43.39863363 0 940.24180273 0 19059
0.13250000 0.13249300 12383.32139269 0 24.94842750 0 4493.40989322 0 -11.49846570 0 -174.57211261 0 18957
0.13350000 0.13349100 12110.47794776 0 330.22486146 0 4864.13315122 0 -412.49492394 0 73.29462226 0 19468
0.13450000 0.13450700 12066.33498391 0 90.96744639 0 4306.00193839 0 25.83073222 0 -45.58260122 0 19953
0.13550000 0.13551000 11853.16217857 0 -177.16856181 0 4819.96800497 0 503.56806944 0 -401.98712395 0 19956
0.13650000 0.13649900 12143.86245058 0 -32.70871618 0 3634.37450719 0 385.53222416 0 -58.23510596 0 19723
0.13750000 0.13749600 12279.06414138 0 20.05266226 0 3868.88677546 0 294.33152989 0 -491.75927205 0 20946
0.13850000 0.13851100 11908.06360346 0 177.39260399 0 3712.30125695 0 -160.76579064 0 -48.15575891 0 20955
0.13950000 0.13949800 11902.51800499 0 144.60037109 0 3837.68723845 0 -110.81747248 0 -483.90004989 0 20506
0.14050000 0.14048300 11755.33782148 0 161.12625455 0 4112.97074670 0 -5.54204929 0 26.05322163 0 21447
0.14150000 0.14148400 11500.90576349 0 138.27395235 0 4030.55206218 0 -8.63884457 0 -406.41916625 0 21771
0.14250000 0.14249400 11606.16122253 0 42.82244595 0 4236.43795113 0 332.34106184 0 -88.37277178 0 22470
0.14350000 0.14350900 11320.78472505 0 115.85642508 0 4442.25729290 0 9.75089234 0 279.42496120 0 22519
0.14450000 0.14449900 11291.50396511 0 140.85820124 0 4204.85022222 0 233.49964199 0 838.82278872 0 22218
0.14550000 0.14550500 11153.30765113 0 26.09825189 0 4099.25093608 0 164.77304010 0 691.38528944 0 23559
0.14650000 0.14650700 11106.05915213 0 151.49798647 0 4145.51231855 0 38.52593807 0 371.06708510 0 23044
0.14750000 0.14750500 11001.35825294 0 267.24460871 0 3969.51720537 0 -177.54455339 0 772.84791279 0 23649
0.14850000 0.14849900 10508.32127500 0 241.00949145 0 4601.12759799 0 7.53046799 0 249.09497402 0 23640
0.14950000 0.14949500 10268.58505297 0 112.90394845 0 4118.72707792 0 60.71055021 0 1039.39932169 0 24457
0.15050000 0.15050000 10242.37655458 0 97.68017152 0 4245.81001255 0 379.65943538 0 345.06488297 0 24591
0.15150000 0.15149900 10119.36408923 0 -65.51592220 0 3349.02019211 0 647.11477682 0 1081.25195337 0 25020
0.15250000 0.15250500 10138.15257686 0 -23.26567110 0 3103.00635260 0 614.44787445 0 556.14588857 0 25297
0.15350000 0.15350100 10057.91885813 0 41.45900510 0 2445.33164716 0 21.65755846 0 778.73733837 0 25452
0.15450000 0.15450400 10024.32362258 0 55.17315922 0 2459.22891694 0 180.26189664 0 603.29900328 0 26061
0.15550000 0.15549900 9850.43583682 0 72.13337394 0 2346.74199749 0 -30.45010484 0 480.96088270 0 26128
0.15650000 0.15649500 9825.79119720 0 6.33585735 0 1883.76216328 0 250.22627611 0 234.23609747 0 26331
0.15750000 0.15749700 9780.27292493 0 70.91700237 0 2275.88034018 0 -9.65168159 0 145.48766685 0 27345
0.15850000 0.15849900 9606.38513917 0 188.29414147 0 2013.92845066 0 -52.07627521 0 -96.75760576 0 26980
0.15950000 0.15949700 9547.61288654 0 208.01539876 0 1948.22419994 0 -294.01543078 0 -161.88600154 0 27777
0.16050000 0.16050000 9228.86297745 0 221.49453042 0 2559.16060144 0 -379.97442537 0 -217.90209172 0 28224
0.16150000 0.16150500 8860.66851236 0 231.92025555 0 2584.92545195 0 -339.08229134 0 -712.88557473 0 28075
0.16250000 0.16249700 8799.17891648 0 101.46604069 0 3084.97206636 0 -125.91059512 0 -1070.55782127 0 28590
0.16350000 0.16349900 8764.10855173 0 -72.94524956 0 2673.98776344 0 112.10538227 0 -1029.85091023 0 29163
0.16450000 0.16449100 8744.65459228 0 -9.39365598 0 2699.61951959 0 358.30999037 0 -1149.97966438 0 28996
0.16550000 0.16550500 8779.00402923 0 159.21191395 0 2313.44622425 0 -86.03031098 0 -1577.75603948 0 30777
0.16650000 0.16650700 8550.58082808 0 166.82934802 0 2212.13923132 0 212.54171624 0 -1009.60947580 0 29211
0.16750000 0.16749900 8322.97837551 0 49.43612669 0 2295.34539083 0 256.78228263 0 -711.98386042 0 30922
0.16850000 0.16850800 8335.28960412 0 75.03605110 0 1977.59368946 0 220.01496474 0 -848.92908737 0 30867
0.16950000 0.16949900 8216.07032812 0 30.69322387 0 1963.97369961 0 321.86431720 0 -272.48519926 0 30852
0.17050000 0.17049200 8039.49847271 0 99.57255155 0 1692.32810395 0 153.14835658 0 -211.43814214 0 31257
0.17150000 0.17149500 8101.36516928 0 57.56719408 0 1768.49135339 0 41.82168724 0 -27.15413384 0 32608
0.17250000 0.17250900 7890.27750897 0 89.58526143 0 1947.65854890 0 111.93568696 0 336.91174410 0 32361
0.17350000 0.17350400 7911.08459444 0 107.88629095 0 1902.48410373 0 -136.57699922 0 47.70501267 0 32508
0.17450000 0.17449800 7764.24823804 0 30.69200384 0 2080.07634926 0 -90.53233874 0 607.12435711 0 32791
0.17550000 0.17549800 7777.66858635 0 107.82673123 0 2307.97826415 0 -115.44494167 0 239.67411133 0 33633
0.17650000 0.17650100 7749.46367251 0 72.31715508 0 2464.99633935 0 -23.32567448 0 836.21303007 0 33984
0.17750000 0.17750300 7752.08119499 0 -16.51734323 0 2337.28120649 0 99.76997485 0 806.77699337 0 34069
0.17850000 0.17849800 7694.59552121 0 21.07515971 0 2435.02792519 0 272.41421560 0 886.80219759 0 34536
