### header ###
fiducial parameters:
Omega_m = 0.31
Omega_nu = 0
Omega_de = 0.69
Omega_k = 0
H_0 = 100
w_de = -1
zeff = 0
beta = 0
fgrowth = 0
b_1 = 2
gamma = 0.55
Lx = 3500 Ly = 3500 Lz = 3500
nx = 700 ny = 700 nz = 700
xoffset = 1379.75464 yoffset = 22.6059522 zoffset = 368.141391
bins = 400 dk = 0.001
kx_ny = 0.628318531 ky_ny = 0.628318531 kz_ny = 0.628318531
############################
A(data) = 3.33487546 (not used)
A(ran) = 3.33707527 (used)
Ngal = 187580
weighted Ngal = 0
Nran = 9399747
weighted Nran = 0
SN(data) = 6621.63055
SN(ran) = 132.733446
SN(data+ran) = 6754.36399
############################
13 columns: k_central k_mean P_0(k) sigma^{lin}_{P_0(k)} P^img_1(k) sigma^{lin}_{P_1(k)} P_2(k) sigma^{lin}_{P_2(k)} P^img_3(k) sigma^{lin}_{P_3(k)} P_4(k) sigma^{lin}_{P_4(k)} N_modes
### header ###
0.00050000 0 0 0 0 0 0 0 0 0 0 0 0
0.00150000 0.00179520 36549.37586333 0 -30704.20415964 0 -27385.38529683 0 14429.97996555 0 46570.27230604 0 3
0.00250000 0.00253879 48923.93521043 0 -15842.22207296 0 -7207.02650336 0 -25432.11460227 0 7252.94405873 0 6
0.00350000 0.00331552 50939.87116774 0 4297.83881744 0 -4349.01360016 0 -38790.68494262 0 15823.69977406 0 7
0.00450000 0.00420575 47493.61445198 0 6359.85869807 0 9956.01294057 0 -28677.84247720 0 14485.99051013 0 24
0.00550000 0.00557378 44013.86232145 0 2047.59023340 0 24836.40641419 0 4893.29190800 0 4320.70886554 0 45
0.00650000 0.00659388 53548.96433784 0 -9529.35677637 0 -22567.81299040 0 46553.30277471 0 35870.81643403 0 40
0.00750000 0.00754703 75795.79808855 0 -36643.65103739 0 -26371.76080773 0 58880.83544675 0 19067.65305748 0 57
0.00850000 0.00846663 96485.87143561 0 -19117.89617965 0 -53934.05069588 0 -11131.12525724 0 -9704.04312830 0 75
0.00950000 0.00948925 118014.77200787 0 10049.44518366 0 -50142.41410716 0 -50012.97983877 0 -31268.52426037 0 112
0.01050000 0.01054430 89480.11688327 0 24521.74915676 0 -11865.14067127 0 -63821.07639143 0 11322.22658065 0 105
0.01150000 0.01145670 74653.95936273 0 9087.67204030 0 13221.59405804 0 -4977.51845762 0 4048.51980124 0 144
0.01250000 0.01249090 69338.39231333 0 -9411.41298802 0 10488.65658281 0 36550.70680696 0 261.55593379 0 169
0.01350000 0.01339930 85991.60270714 0 -12553.90400175 0 -18166.27148149 0 32177.33693831 0 -33831.81078707 0 180
0.01450000 0.01448870 89794.55231675 0 -20.21503738 0 -27129.06773535 0 -246.77913210 0 5364.17976563 0 267
0.01550000 0.01550050 82922.22486369 0 6424.34291712 0 -22961.66139403 0 -20805.08905941 0 12937.88124010 0 238
0.01650000 0.01653350 75423.13387109 0 4201.68923109 0 -16252.15271217 0 -14879.06252998 0 17261.56254643 0 315
0.01750000 0.01747870 77219.02048095 0 1919.87510054 0 -4422.17113523 0 -4926.82059637 0 -13179.89115751 0 297
0.01850000 0.01844180 67554.81693208 0 5020.64103135 0 -4470.77276025 0 -2537.18894028 0 -2615.16005483 0 388
0.01950000 0.01947590 67338.76041553 0 3155.97790922 0 14074.61801532 0 -6319.36473801 0 2791.43244793 0 399
0.02050000 0.02045430 61675.15160589 0 -409.05887113 0 10697.41509177 0 10311.79635628 0 10151.34001003 0 462
0.02150000 0.02154770 67284.96811033 0 -1413.90578696 0 12618.67659193 0 6751.79941582 0 9825.79119720 0 571
0.02250000 0.02255340 66292.52780740 0 1076.50381196 0 18728.70607874 0 -7527.85046629 0 7063.69496520 0 510
0.02350000 0.02348930 68249.68042089 0 1106.90921927 0 17900.08275474 0 -3784.52713148 0 13315.09284831 0 555
0.02450000 0.02439640 68019.75990815 0 -1236.10280868 0 23723.95936028 0 -1552.56793121 0 11203.10712543 0 592
0.02550000 0.02547300 71325.60207054 0 -2670.83786351 0 25520.17870604 0 4252.85292261 0 13168.02357678 0 837
0.02650000 0.02652900 75324.08948234 0 376.73468674 0 22445.36617609 0 -1491.45543602 0 -6926.18630544 0 723
0.02750000 0.02749970 73541.17957292 0 2004.12383256 0 32460.49519639 0 -2009.91343737 0 14291.00726778 0 826
0.02850000 0.02848090 71427.64108246 0 3012.46891191 0 35398.77509192 0 -4408.61769256 0 -643.17074719 0 831
0.02950000 0.02946900 69218.49647431 0 4395.45244178 0 39935.51829162 0 -1358.39434623 0 8305.24355159 0 996
0.03050000 0.03053250 66428.50588199 0 2445.62001828 0 42886.44215166 0 3175.56496303 0 11746.35395195 0 1041
0.03150000 0.03150510 64531.02390809 0 -755.87838146 0 38387.85266946 0 8185.70263088 0 5621.96136510 0 1036
0.03250000 0.03246190 64709.92491486 0 578.88727880 0 47260.92114001 0 5681.80946383 0 13229.35789590 0 1059
0.03350000 0.03345080 64509.06333813 0 2849.52813754 0 30291.27889726 0 2656.65222261 0 3765.90501180 0 1302
0.03450000 0.03451200 58110.21908279 0 1831.60026403 0 38963.70761501 0 -1846.21846161 0 9375.68824265 0 1339
0.03550000 0.03553350 56930.55937538 0 2297.06452636 0 29958.54298881 0 4066.44317551 0 1635.65208755 0 1365
0.03650000 0.03647120 54727.51492555 0 24.05547524 0 30354.16598396 0 3481.34926290 0 -1307.82957935 0 1308
0.03750000 0.03744890 53881.47842234 0 1328.09319617 0 28142.02675263 0 3372.25624971 0 -3198.36846396 0 1579
0.03850000 0.03847530 50640.74158604 0 868.87993244 0 20513.61240362 0 3549.10538505 0 -2304.96145858 0 1662
0.03950000 0.03950240 50515.52197250 0 1628.87536621 0 20992.53028784 0 -640.84270495 0 -8515.28863939 0 1683
0.04050000 0.04050350 45670.55440960 0 2575.48684335 0 19465.60520398 0 -2104.19970262 0 -9572.29079975 0 1822
0.04150000 0.04152450 45204.05866596 0 377.05300409 0 16922.72647966 0 1565.18971333 0 -11814.67572516 0 1887
0.04250000 0.04250150 42611.38046735 0 138.98489808 0 18501.33654130 0 943.59799893 0 -14668.88434781 0 1920
0.04350000 0.04349210 44862.00615208 0 389.70805981 0 13430.88494445 0 1374.26584907 0 -10553.34044342 0 2005
0.04450000 0.04448520 42204.88809919 0 522.73365777 0 17120.14978534 0 759.17579431 0 -10890.95647852 0 2151
0.04550000 0.04548030 41890.56357768 0 1259.79360536 0 12188.44906231 0 520.84039045 0 -12524.62324181 0 2274
0.04650000 0.04648670 39733.54759519 0 1231.95470102 0 13782.36497574 0 18.90516702 0 -12134.32402120 0 2311
0.04750000 0.04749250 38464.49284037 0 1182.93161051 0 14738.42615268 0 -391.45159597 0 -9632.90419108 0 2568
0.04850000 0.04851840 37722.82450045 0 114.15836283 0 14598.45524719 0 1080.28258276 0 -8220.25170937 0 2493
0.04950000 0.04949480 37563.88764818 0 205.72617571 0 12880.09610400 0 3633.35411707 0 -10095.26291826 0 2644
0.05050000 0.05050630 37482.36735061 0 49.42536822 0 11102.95361699 0 2231.75955872 0 -3248.04593509 0 2829
0.05150000 0.05149060 35282.09570002 0 559.64072473 0 9592.67641975 0 2091.28954938 0 -4249.58101951 0 2784
0.05250000 0.05249300 35702.34115239 0 660.87673400 0 9520.22872128 0 -224.37602338 0 -3402.86795329 0 3055
0.05350000 0.05348950 35127.92806244 0 -426.17147890 0 10611.44722423 0 1497.33377040 0 -1429.65528663 0 3009
0.05450000 0.05448610 35675.38954381 0 -169.10858899 0 8389.49228361 0 2388.13434450 0 -2537.78786492 0 3336
0.05550000 0.05550870 34411.88038746 0 359.92375953 0 7410.89379447 0 -2386.75903608 0 -1541.97583812 0 3349
0.05650000 0.05647670 35825.89708639 0 493.99858471 0 9019.59427343 0 -1171.51876885 0 -3498.86226288 0 3324
0.05750000 0.05747970 35787.85428086 0 -554.52657382 0 7861.48476169 0 1174.90158392 0 -2906.44816028 0 3639
0.05850000 0.05849280 34417.53689791 0 610.79887066 0 11852.49670675 0 -1238.75360475 0 -5154.03485705 0 3846
0.05950000 0.05951020 35257.36233083 0 1644.19230920 0 11131.67981708 0 -2615.04914286 0 -4618.06385573 0 3787
0.06050000 0.06049470 32717.36731771 0 556.34109364 0 13339.60439357 0 -311.39533640 0 -6010.90745968 0 3930
0.06150000 0.06148310 31848.48294879 0 901.94611791 0 14113.43720464 0 -732.28407819 0 -4410.28137210 0 4083
0.06250000 0.06249100 32311.76224532 0 -177.24952755 0 14277.47600751 0 2025.25256275 0 -3330.64207876 0 4303
0.06350000 0.06350600 31455.74366485 0 268.26388971 0 12436.33731410 0 1405.40993010 0 -2636.24442023 0 4470
0.06450000 0.06451750 32414.46672906 0 -313.91636546 0 11166.61708747 0 2513.13213410 0 -1522.44424029 0 4479
0.06550000 0.06550280 31541.03496939 0 -465.20916480 0 8707.95382158 0 2564.95020625 0 -1388.64004031 0 4636
0.06650000 0.06648880 31994.55401260 0 481.79604983 0 9004.08878010 0 555.44048845 0 -216.61107640 0 4653
0.06750000 0.06749660 31140.19911168 0 526.92945757 0 7466.56051195 0 -76.89781942 0 -781.07536268 0 5220
0.06850000 0.06852730 30200.22017032 0 511.47609287 0 7486.36938970 0 1030.02171467 0 -273.36029470 0 5029
0.06950000 0.06949320 29804.04261532 0 805.40944879 0 7418.26944044 0 -647.12364978 0 314.27350201 0 5040
0.07050000 0.07048030 28571.36698650 0 638.49580768 0 6899.07942010 0 1000.88846764 0 236.32678809 0 5475
0.07150000 0.07148790 28165.98373804 0 682.69422751 0 8220.31825655 0 -1106.50328146 0 68.24657489 0 5509
0.07250000 0.07249820 26657.80277702 0 605.06472183 0 8013.48961586 0 -1275.42110186 0 -814.55192243 0 5916
0.07350000 0.07351270 26949.16852085 0 239.20606282 0 9624.16432788 0 518.28386955 0 9.64514887 0 5721
0.07450000 0.07449140 26137.18199227 0 -9.68302531 0 8359.12458636 0 751.24337025 0 -1121.46419703 0 6028
0.07550000 0.07549160 25758.08488058 0 700.24826492 0 9871.93057651 0 163.20030837 0 219.04892149 0 6183
0.07650000 0.07648840 26028.59917415 0 301.00066662 0 8496.95489084 0 655.07271063 0 -617.27169320 0 6330
0.07750000 0.07749960 24881.32576183 0 564.92900744 0 9419.76465932 0 202.30565057 0 1248.89095876 0 6583
0.07850000 0.07848650 24232.71256429 0 286.65087601 0 8284.59174287 0 122.21500829 0 232.07996878 0 6549
0.07950000 0.07947320 23668.61428751 0 314.34892215 0 9213.70131122 0 378.22090713 0 150.20253467 0 6828
0.08050000 0.08048110 23777.86257745 0 -14.75739210 0 7455.40276782 0 956.96621861 0 -1619.37021043 0 7147
0.08150000 0.08149960 23058.37663142 0 -108.23599639 0 6436.86487848 0 1065.54681849 0 -1142.50419764 0 7386
0.08250000 0.08250610 23359.50262856 0 390.66190275 0 5420.30122219 0 -28.39790067 0 -2179.63093307 0 7227
0.08350000 0.08350160 22404.66148329 0 428.38860917 0 4903.08543490 0 253.90411702 0 -2189.00299449 0 7798
0.08450000 0.08449610 21366.41453696 0 614.97026983 0 5603.66089014 0 20.41878267 0 -479.90167339 0 7371
0.08550000 0.08548940 21465.23710177 0 57.39694421 0 4498.43420544 0 1184.53983407 0 -788.84252791 0 8256
0.08650000 0.08650700 21383.93862814 0 -145.81818452 0 4134.29911843 0 1680.18324329 0 -92.01157167 0 8037
0.08750000 0.08749060 21263.48822928 0 319.47749161 0 4330.14747415 0 -109.02524597 0 307.67313070 0 8155
0.08850000 0.08849210 20257.51666608 0 900.72164976 0 4489.71652464 0 -1539.69105155 0 1306.15480861 0 8718
0.08950000 0.08949900 19705.28597003 0 654.61797156 0 6646.23340327 0 -1281.21070667 0 1487.07441323 0 8571
0.09050000 0.09049190 19341.16197422 0 255.63878022 0 7382.38941831 0 -565.92943340 0 471.67533262 0 8932
0.09150000 0.09150830 19011.97524880 0 14.29366916 0 7557.33086778 0 667.87638839 0 249.17150328 0 9285
0.09250000 0.09250820 19168.91568561 0 -28.05939734 0 7051.88284045 0 581.11882762 0 -280.82799761 0 9204
0.09350000 0.09350330 19063.32749067 0 115.82426061 0 7078.43516595 0 390.88150845 0 1680.34961125 0 9349
0.09450000 0.09448040 18725.93327950 0 260.21611720 0 5870.99201018 0 844.17650948 0 563.40064050 0 9564
0.09550000 0.09549270 18427.58008159 0 129.23462684 0 5510.20646465 0 1195.35375109 0 1587.27228646 0 10155
0.09650000 0.09649430 18249.78819451 0 127.24264787 0 5089.35099645 0 670.89208484 0 1735.32867452 0 9913
0.09750000 0.09749140 17776.63773270 0 130.67648244 0 4591.73335417 0 569.84906240 0 2482.90862242 0 10476
0.09850000 0.09850240 17854.16519937 0 174.12291913 0 4232.99968008 0 -50.51751839 0 1784.44049461 0 10575
0.09950000 0.09950330 17564.90678296 0 289.27727144 0 5014.38559628 0 -804.62197381 0 1514.41421370 0 10882
0.10050000 0.10051200 17088.53987403 0 538.58186909 0 5285.54317927 0 -1532.62595909 0 528.10956093 0 10875
0.10150000 0.10150300 16626.70243311 0 590.29679310 0 6855.31355694 0 -857.87746507 0 312.41794476 0 11118
0.10250000 0.10250800 16191.04021698 0 321.05355070 0 7457.08862976 0 -822.35679773 0 370.63231018 0 11575
0.10350000 0.10349800 15871.50283291 0 190.40923273 0 8024.94682231 0 207.92112359 0 -845.37103139 0 11364
0.10450000 0.10450100 15914.64758904 0 137.66837300 0 8349.65270417 0 741.65170313 0 534.86964547 0 12093
0.10550000 0.10551000 15494.51304864 0 28.83711207 0 8141.55966702 0 686.93771947 0 -179.06182913 0 12067
0.10650000 0.10649700 15789.76071140 0 -121.50406257 0 7036.17770557 0 571.29757273 0 1767.42659849 0 12054
0.10750000 0.10749900 15938.16092657 0 -254.46422246 0 6717.51652605 0 1054.38463788 0 1154.67124069 0 12807
0.10850000 0.10850100 16016.90842490 0 -166.69403541 0 5260.18870304 0 1330.42234753 0 1833.34158195 0 12736
0.10950000 0.10950300 16007.14817158 0 172.98052584 0 5411.36171745 0 177.66433832 0 1833.48576751 0 12933
0.11050000 0.11050200 15614.96344749 0 233.32994668 0 4096.78869036 0 322.45215064 0 713.63977612 0 13428
0.11150000 0.11150900 15261.93064863 0 279.26857532 0 4720.84597784 0 96.60399268 0 2614.48349182 0 13453
0.11250000 0.11250000 14871.74233999 0 164.21958937 0 3988.25023702 0 434.75162886 0 1215.37336159 0 13668
0.11350000 0.11349100 14904.35045902 0 34.25627089 0 3886.77687614 0 566.00374442 0 2327.52095318 0 13791
0.11450000 0.11448600 14558.19420227 0 -50.41037743 0 3326.36087674 0 322.73497616 0 556.94556387 0 14205
0.11550000 0.11549300 14409.79398710 0 301.76263185 0 3609.84077954 0 -796.10171631 0 1141.79436103 0 14776
0.11650000 0.11649800 14303.76214428 0 438.84428053 0 3849.79882552 0 -962.40423247 0 557.77740365 0 14553
0.11750000 0.11747300 13654.92712280 0 316.62594488 0 4663.93704630 0 -561.90332891 0 -382.61080288 0 14568
0.11850000 0.11849100 13688.53344956 0 65.60309901 0 4443.16677105 0 57.52271838 0 -798.38983024 0 16015
0.11950000 0.11950300 13503.75410840 0 140.81272733 0 4788.03644896 0 -19.54446361 0 -1235.28206011 0 15270
0.12050000 0.12050700 13440.97793367 0 150.97337286 0 4916.91615750 0 386.65576241 0 -543.09376801 0 15999
0.12150000 0.12150000 13159.26153119 0 168.68379615 0 4663.30484808 0 340.09935410 0 -304.62416066 0 15670
0.12250000 0.12250700 13098.25994797 0 1.18127902 0 4333.11991493 0 680.62571928 0 898.98920480 0 16887
0.12350000 0.12352200 13170.46364011 0 -45.24476336 0 4034.21215717 0 625.82411516 0 470.83018341 0 16407
0.12450000 0.12449800 13146.50665470 0 120.22524756 0 3998.98651567 0 287.48493402 0 2120.44830615 0 16306
0.12550000 0.12549900 12738.12878306 0 80.35317091 0 3590.68628241 0 14.19584480 0 1021.32288890 0 17523
0.12650000 0.12650100 12915.92067014 0 132.71726268 0 3780.92249247 0 -2.24715414 0 1780.25911336 0 17154
0.12750000 0.12750600 12594.83051849 0 150.36224791 0 3698.69235829 0 -565.38374651 0 315.92498123 0 18007
0.12850000 0.12850300 12604.25803590 0 247.80839517 0 4212.81370163 0 -45.32395450 0 952.35228068 0 17496
0.12950000 0.12949900 12084.96819478 0 96.78666470 0 3923.89911233 0 11.27619811 0 -305.05006262 0 18405
0.13050000 0.13049000 12390.64158268 0 -19.67301059 0 3504.60750290 0 360.99406003 0 214.93852390 0 18100
0.13150000 0.13148800 12111.25433155 0 -69.31166253 0 3068.85655719 0 679.00862277 0 -13.02805267 0 19059
0.13250000 0.13249300 12218.17347013 0 -59.55163104 0 3209.63712006 0 499.11051739 0 726.67082341 0 18957
0.13350000 0.13349100 12216.17705468 0 -23.29916652 0 2276.32398806 0 605.66586471 0 702.19920647 0 19468
0.13450000 0.13450700 12327.53267204 0 41.31581775 0 2398.89280554 0 114.18498170 0 640.97690843 0 19953
0.13550000 0.13551000 12022.63566793 0 369.38676876 0 2381.79017984 0 -646.07442255 0 1049.84168361 0 19956
0.13650000 0.13649900 11613.03776464 0 349.42372337 0 3299.18744422 0 -616.34446913 0 1257.73064273 0 19723
0.13750000 0.13749600 11418.94181804 0 121.98098404 0 3551.32362444 0 -59.26292718 0 561.77578015 0 20946
0.13850000 0.13851100 11511.77513650 0 -83.94194951 0 3513.10335976 0 475.10029423 0 704.33869836 0 20955
0.13950000 0.13949800 11489.03818276 0 37.63742228 0 3394.02826932 0 -29.85206750 0 681.23573512 0 20506
0.14050000 0.14048300 11421.71461728 0 254.09599472 0 3436.28572970 0 -102.03424271 0 617.17630890 0 21447
0.14150000 0.14148400 10923.40932079 0 288.87466100 0 3637.40240396 0 -256.71906280 0 726.64864102 0 21771
0.14250000 0.14249400 10921.86764441 0 71.35976296 0 3694.71061859 0 47.57679843 0 1029.93631245 0 22470
0.14350000 0.14350900 10718.17781246 0 -70.97046194 0 3580.94821149 0 537.60140728 0 313.15218200 0 22519
0.14450000 0.14449900 10930.81824035 0 -133.21303919 0 2879.49655170 0 721.45906997 0 876.66706182 0 22218
0.14550000 0.14550500 11022.36497996 0 -49.28362273 0 2500.72108472 0 251.34537788 0 934.82375302 0 23559
0.14650000 0.14650700 11015.66589701 0 116.22687106 0 2337.34775367 0 -8.85027606 0 921.24036412 0 23044
0.14750000 0.14750500 10843.84107388 0 176.69496770 0 2432.67659144 0 -17.40685723 0 1193.24642367 0 23649
0.14850000 0.14849900 10539.46535603 0 192.31137300 0 2514.04161225 0 -296.02848303 0 840.60403495 0 23640
0.14950000 0.14949500 10552.77479237 0 92.44801027 0 2901.39057447 0 24.72516171 0 1080.72179416 0 24457
0.15050000 0.15050000 10374.49489263 0 50.45540769 0 3188.28656593 0 -152.45959325 0 741.45206159 0 24591
0.15150000 0.15149900 10313.46003582 0 205.19268914 0 3195.05219607 0 -258.64782195 0 539.05546320 0 25020
0.15250000 0.15250500 10198.18922594 0 185.77865800 0 3310.86647460 0 -130.41583932 0 619.10839541 0 25297
0.15350000 0.15350100 9801.44601990 0 215.37995354 0 3681.70064457 0 -264.10469085 0 209.69238774 0 25452
0.15450000 0.15450400 9777.00102183 0 181.13366472 0 3889.87132009 0 -64.63084468 0 512.19923891 0 26061
0.15550000 0.15549900 9456.58743319 0 86.16551268 0 3783.21837024 0 396.02005999 0 187.74512722 0 26128
0.15650000 0.15649500 9363.14409890 0 64.61365333 0 3774.71142218 0 84.35764757 0 665.48068985 0 26331
0.15750000 0.15749700 9419.70920334 0 4.79847327 0 3249.46560830 0 260.98584627 0 14.64570375 0 27345
0.15850000 0.15849900 9234.96313577 0 122.72853071 0 3400.46116355 0 187.44566490 0 563.39509490 0 26980
0.15950000 0.15949700 9278.22989507 0 -2.44954630 0 2870.45722618 0 175.46606308 0 265.49663607 0 27777
0.16050000 0.16050000 8996.55785737 0 144.02251973 0 2801.51434595 0 235.36296308 0 474.57789886 0 28224
0.16150000 0.16150500 9006.57320821 0 190.75527807 0 2868.00607166 0 -174.91150323 0 264.15903772 0 28075
0.16250000 0.16249700 8578.61937397 0 87.36391651 0 2696.78017317 0 76.66645705 0 -64.30443075 0 28590
0.16350000 0.16349900 8701.23255623 0 61.85283258 0 2663.04075206 0 259.42309662 0 545.12345705 0 29163
0.16450000 0.16449100 8428.28929053 0 60.57989591 0 2482.60916010 0 61.05238090 0 -104.03509464 0 28996
0.16550000 0.16550500 8586.56067098 0 39.16035454 0 2333.78747945 0 -5.60852993 0 88.13874752 0 30777
0.16650000 0.16650700 8293.79743634 0 129.01169378 0 2344.25756937 0 -31.34316802 0 -406.94488899 0 29211
0.16750000 0.16749900 8302.96985621 0 134.89002816 0 2628.34748800 0 -198.77864995 0 -182.71970588 0 30922
0.16850000 0.16850800 8186.09082277 0 48.96874365 0 2632.93924354 0 -149.13777976 0 -555.00904089 0 30867
0.16950000 0.16949900 8133.31890769 0 4.31757006 0 2374.75836098 0 48.48283831 0 -589.13443566 0 30852
0.17050000 0.17049200 8174.97744343 0 56.31189241 0 2822.04415151 0 -11.42304556 0 -601.99800588 0 31257
0.17150000 0.17149500 8140.38400015 0 52.92508451 0 2318.52599245 0 248.71787332 0 -400.57521458 0 32608
0.17250000 0.17250900 8052.51953792 0 80.60882300 0 2465.70617595 0 181.04160779 0 -152.46846621 0 32361
0.17350000 0.17350400 7983.67647847 0 110.17850863 0 2574.63282118 0 149.38178610 0 -1.84153798 0 32508
0.17450000 0.17449800 7861.81749760 0 86.69922107 0 2501.69711005 0 205.54095272 0 353.30342407 0 32791
0.17550000 0.17549800 7711.75360289 0 7.83971274 0 2311.91563907 0 230.44290811 0 449.11251067 0 33633
0.17650000 0.17650100 7811.53001063 0 109.38526622 0 2370.44388536 0 96.03523610 0 592.68916428 0 33984
0.17750000 0.17750300 7541.08226425 0 97.27046271 0 2123.67584446 0 -9.95609058 0 434.82372164 0 34069
0.17850000 0.17849800 7562.42172718 0 82.85456856 0 2263.89075628 0 39.89925008 0 861.14936817 0 34536
