### header ###
fiducial parameters:
Omega_m = 0.31
Omega_nu = 0
Omega_de = 0.69
Omega_k = 0
H_0 = 100
w_de = -1
zeff = 0
beta = 0
fgrowth = 0
b_1 = 2
gamma = 0.55
Lx = 3500 Ly = 3500 Lz = 3500
nx = 700 ny = 700 nz = 700
xoffset = 1379.75464 yoffset = 22.6059522 zoffset = 368.141391
bins = 400 dk = 0.001
kx_ny = 0.628318531 ky_ny = 0.628318531 kz_ny = 0.628318531
############################
A(data) = 3.34146415 (not used)
A(ran) = 3.34994417 (used)
Ngal = 187706
weighted Ngal = 0
Nran = 9399747
weighted Nran = 0
SN(data) = 6680.78426
SN(ran) = 133.245312
SN(data+ran) = 6814.02957
############################
13 columns: k_central k_mean P_0(k) sigma^{lin}_{P_0(k)} P^img_1(k) sigma^{lin}_{P_1(k)} P_2(k) sigma^{lin}_{P_2(k)} P^img_3(k) sigma^{lin}_{P_3(k)} P_4(k) sigma^{lin}_{P_4(k)} N_modes
### header ###
0.00050000 0 0 0 0 0 0 0 0 0 0 0 0
0.00150000 0.00179520 -1289.95056987 0 -2451.59817344 0 -4863.02403152 0 4727.72251995 0 -2478.07286055 0 3
0.00250000 0.00253879 1231.58869152 0 -1253.99290936 0 1777.54177010 0 -7801.58120697 0 3412.75020977 0 6
0.00350000 0.00331552 3577.28811650 0 -2115.63472668 0 -7381.29138981 0 786.83391214 0 2623.98864760 0 7
0.00450000 0.00420575 9880.31552140 0 -7857.34774523 0 -4729.77439139 0 124.62068891 0 -8078.31766203 0 24
0.00550000 0.00557378 28836.11385765 0 -10904.16609408 0 -2755.15314271 0 -6511.80809626 0 -9489.43955855 0 45
0.00650000 0.00659388 45935.96675258 0 -7086.03263586 0 15273.57640543 0 -20188.19668515 0 -20446.84339799 0 40
0.00750000 0.00754703 51491.10365606 0 -4021.32418632 0 15790.31527125 0 -2674.86396800 0 7929.81762609 0 57
0.00850000 0.00846663 66568.03313960 0 -6567.16426022 0 22564.26380737 0 12176.47056961 0 -1093.86042606 0 75
0.00950000 0.00948925 84155.23322843 0 -9265.58593055 0 21903.78302911 0 13751.08780035 0 14953.70628544 0 112
0.01050000 0.01054430 80881.88827310 0 -5257.34935662 0 21060.51932513 0 11583.75700469 0 -5657.32010097 0 105
0.01150000 0.01145670 97043.09317029 0 4071.10147822 0 29231.29320492 0 -12566.10431840 0 28529.77499794 0 144
0.01250000 0.01249090 84105.43375413 0 7707.35039770 0 30669.82144910 0 -8642.29393565 0 453.35600262 0 169
0.01350000 0.01339930 81469.94353529 0 10354.29782298 0 48252.36323521 0 1226.81947684 0 12764.08218392 0 180
0.01450000 0.01448870 70973.12383152 0 4189.28927290 0 58040.34454202 0 -6001.70176621 0 1451.98186608 0 267
0.01550000 0.01550050 73935.13888852 0 3848.30151393 0 58068.73800621 0 5802.88096972 0 -18230.82224773 0 238
0.01650000 0.01653350 66662.64104957 0 -1416.74513338 0 53991.50309607 0 6627.64455718 0 -9613.93824429 0 315
0.01750000 0.01747870 71093.57423038 0 258.89404652 0 46953.14042470 0 5241.95477526 0 -1637.71505018 0 297
0.01850000 0.01844180 66380.81373511 0 -1155.02615899 0 39741.53325699 0 18407.28319118 0 3025.10178523 0 388
0.01950000 0.01947590 79438.14716635 0 -6259.70518962 0 37191.55616663 0 19279.82765510 0 4857.03478517 0 399
0.02050000 0.02045430 87283.61623964 0 -7160.70966491 0 21872.06220583 0 17475.84447147 0 17800.04015826 0 462
0.02150000 0.02154770 83879.39516032 0 4459.71483690 0 24161.95072776 0 -196.83436312 0 15296.75700705 0 571
0.02250000 0.02255340 83645.25999275 0 7600.99691016 0 33336.25610743 0 -10105.02317157 0 46463.90772731 0 510
0.02350000 0.02348930 73716.97504454 0 4731.32715896 0 40321.93559329 0 -2411.44804048 0 35582.22348944 0 555
0.02450000 0.02439640 72961.55362040 0 2747.13420732 0 49968.94778689 0 5945.28084734 0 30125.46550288 0 592
0.02550000 0.02547300 75033.38921033 0 -4591.05679116 0 42004.58108231 0 17314.46755587 0 33700.15827930 0 837
0.02650000 0.02652900 77736.09208267 0 75.67789866 0 49639.20650162 0 3982.02807553 0 33734.98463771 0 723
0.02750000 0.02749970 81307.56841197 0 829.08915427 0 37764.63831294 0 2452.77384031 0 35720.30889145 0 826
0.02850000 0.02848090 76201.18133701 0 2681.49650378 0 45617.09484031 0 -2930.02804499 0 18926.12938442 0 831
0.02950000 0.02946900 75046.03317485 0 4576.44968478 0 43177.47515958 0 -4273.50473133 0 25454.74064405 0 996
0.03050000 0.03053250 69911.25263570 0 3059.26267183 0 47687.04492676 0 -336.97385480 0 14554.53410727 0 1041
0.03150000 0.03150510 67911.84256184 0 3684.75072373 0 49727.49242933 0 4271.74123102 0 3272.86803386 0 1036
0.03250000 0.03246190 59492.07131057 0 2782.23784566 0 39952.48782295 0 2892.39561375 0 3486.98359095 0 1059
0.03350000 0.03345080 61735.93136517 0 1400.72944498 0 50685.99366959 0 2616.93464634 0 1402.42639812 0 1302
0.03450000 0.03451200 55194.56522904 0 2240.00031806 0 41612.39635822 0 4110.39758901 0 6943.25565754 0 1339
0.03550000 0.03553350 53963.99692764 0 2471.30723041 0 40495.40191356 0 6158.09873438 0 2085.14502627 0 1365
0.03650000 0.03647120 51397.16121791 0 -665.98644843 0 33290.56037600 0 6406.78555235 0 8288.44038821 0 1308
0.03750000 0.03744890 51217.26200341 0 -733.28117680 0 30062.46750422 0 15544.64525884 0 14531.13168171 0 1579
0.03850000 0.03847530 52599.33605513 0 -485.95635781 0 21780.89256692 0 9976.80893485 0 20346.24624167 0 1662
0.03950000 0.03950240 50726.92018633 0 232.42823237 0 17530.96772030 0 1879.73605878 0 18015.09846709 0 1683
0.04050000 0.04050350 49967.83866719 0 2524.58934055 0 17748.02244458 0 812.92151648 0 20460.70739417 0 1822
0.04150000 0.04152450 45118.98918537 0 2884.97560299 0 13554.88452633 0 -1560.17649231 0 18859.02764288 0 1887
0.04250000 0.04250150 41378.26119064 0 2991.31799933 0 20881.17467048 0 -1477.36961590 0 15483.64367563 0 1920
0.04350000 0.04349210 38915.01726041 0 2307.72316662 0 21720.33463158 0 -1572.37680896 0 12360.91717486 0 2005
0.04450000 0.04448520 35952.22581963 0 520.86368196 0 19331.06898500 0 1324.11145647 0 8236.07884742 0 2151
0.04550000 0.04548030 34111.08712623 0 1143.89059725 0 18878.88088542 0 1256.14460157 0 4270.69865850 0 2274
0.04650000 0.04648670 34998.82652996 0 -272.56838324 0 17756.34084229 0 689.87134106 0 6306.60986152 0 2311
0.04750000 0.04749250 34015.25918460 0 -1008.43824541 0 13962.48601418 0 2585.90147728 0 61.85061434 0 2568
0.04850000 0.04851840 36533.40453972 0 -652.25111013 0 13416.57730039 0 -921.49546165 0 -278.96024004 0 2493
0.04950000 0.04949480 35826.22982230 0 -52.14093689 0 10954.39812506 0 195.01207946 0 -4893.41391116 0 2644
0.05050000 0.05050630 37139.64936491 0 327.90347394 0 12083.08269130 0 -222.62472338 0 -2159.95514968 0 2829
0.05150000 0.05149060 35863.27442011 0 -148.07413398 0 11833.19802406 0 -709.26208068 0 -4738.35897783 0 2784
0.05250000 0.05249300 37793.03177713 0 287.47827930 0 12373.67205135 0 1292.03571489 0 -3767.31359381 0 3055
0.05350000 0.05348950 36466.08097424 0 49.69699164 0 12715.61365326 0 -796.68733151 0 -5697.42586914 0 3009
0.05450000 0.05448610 36408.96130996 0 348.33900431 0 11275.86537741 0 1184.66183724 0 -183.39959626 0 3336
0.05550000 0.05550870 37079.42416548 0 -474.51467904 0 13454.17645804 0 1606.52660436 0 -3098.71405938 0 3349
0.05650000 0.05647670 36559.46885255 0 120.66113160 0 10961.31903196 0 1640.77622054 0 -2397.35112916 0 3324
0.05750000 0.05747970 37286.82954841 0 169.89273661 0 9291.81661133 0 1980.69922460 0 -1875.52140394 0 3639
0.05850000 0.05849280 35923.27779560 0 871.56400211 0 9139.70084518 0 -430.17429188 0 -684.46770991 0 3846
0.05950000 0.05951020 34357.42261045 0 714.49712564 0 9049.77342033 0 1257.53100119 0 2671.08186984 0 3787
0.06050000 0.06049470 33247.97017972 0 1091.36601587 0 9541.77891695 0 791.51661549 0 284.61896873 0 3930
0.06150000 0.06148310 32808.09330875 0 362.50800841 0 7205.00790552 0 230.28984960 0 2123.39856454 0 4083
0.06250000 0.06249100 30901.84928926 0 1219.17764214 0 9557.67260218 0 -406.21176087 0 480.93980943 0 4303
0.06350000 0.06350600 30515.87563546 0 787.36518047 0 8767.13644850 0 -444.40540668 0 3079.49301507 0 4470
0.06450000 0.06451750 29857.16944871 0 -443.41939927 0 10750.73047550 0 1605.12911354 0 2152.87896603 0 4479
0.06550000 0.06550280 30983.48049880 0 23.48904781 0 9839.17827192 0 -142.88234469 0 1646.38836619 0 4636
0.06650000 0.06648880 30216.41331786 0 -358.91556972 0 7418.50235558 0 2093.05304969 0 1234.84950343 0 4653
0.06750000 0.06749660 31015.64496995 0 -314.33228535 0 8964.87030769 0 383.51695367 0 2998.87110445 0 5220
0.06850000 0.06852730 30555.02756069 0 779.83758511 0 8308.91473778 0 -11.18935404 0 3926.08407813 0 5029
0.06950000 0.06949320 30002.46412873 0 1366.04727213 0 10866.38947728 0 -1143.61331733 0 2670.83786351 0 5040
0.07050000 0.07048030 28256.93155302 0 777.32321076 0 9930.70282914 0 -363.51508910 0 5080.35603572 0 5475
0.07150000 0.07148790 27720.11762072 0 74.98724983 0 10063.64191576 0 850.80904526 0 1881.84338620 0 5509
0.07250000 0.07249820 28340.44826604 0 91.47198494 0 10718.52163957 0 100.21850286 0 4112.30527489 0 5916
0.07350000 0.07351270 27506.94481538 0 613.34430036 0 10382.21436570 0 287.98071052 0 1826.49831343 0 5721
0.07450000 0.07449140 26349.46750186 0 726.65085926 0 10675.59870738 0 -1004.60956422 0 3511.41749782 0 6028
0.07550000 0.07549160 26230.68078255 0 226.29036398 0 11708.08932248 0 537.88534192 0 1924.98814233 0 6183
0.07650000 0.07648840 26052.44524759 0 100.13254608 0 10481.91313507 0 842.36309878 0 2389.89784481 0 6330
0.07750000 0.07749960 25824.29932636 0 -201.81985615 0 9906.60165817 0 1761.53717291 0 4129.25262382 0 6583
0.07850000 0.07848650 26179.43945265 0 -254.69159200 0 9113.11524610 0 1406.56341458 0 2244.24824649 0 6549
0.07950000 0.07947320 26243.87930691 0 -68.01299428 0 7855.88370723 0 555.43050637 0 4221.39828807 0 6828
0.08050000 0.08048110 26044.57049776 0 528.52215346 0 8790.38359730 0 -1486.00965832 0 616.77148021 0 7147
0.08150000 0.08149960 25319.64986522 0 989.51222693 0 9180.01734609 0 -1778.16287713 0 198.32058351 0 7386
0.08250000 0.08250610 24227.83243764 0 968.73286945 0 11268.65609939 0 -1552.35719846 0 -1034.71218186 0 7227
0.08350000 0.08350160 23185.14901253 0 552.66879833 0 10865.51327272 0 -520.63187595 0 -3029.67135838 0 7798
0.08450000 0.08449610 22334.89785448 0 446.24654537 0 11416.83449062 0 222.05241762 0 -3481.00543579 0 7371
0.08550000 0.08548940 22186.83037522 0 332.41870021 0 10886.60872932 0 412.40841260 0 -3901.00688183 0 8256
0.08650000 0.08650700 21283.11964788 0 -0.02231948 0 9334.58426676 0 2260.79631233 0 -3209.00492183 0 8037
0.08750000 0.08749060 21806.06958399 0 16.29751571 0 8687.60147518 0 1452.52533473 0 -2103.81151073 0 8155
0.08850000 0.08849210 20912.67366981 0 -15.93006435 0 6594.63715507 0 1996.77036898 0 -1620.66788047 0 8718
0.08950000 0.08949900 20911.89728603 0 651.30281279 0 6298.97911802 0 -64.46647314 0 -942.42898677 0 8571
0.09050000 0.09049190 19932.87733141 0 579.67031730 0 6892.40251953 0 334.21547412 0 178.08025820 0 8932
0.09150000 0.09150830 19263.74541952 0 253.64347389 0 6036.91631652 0 -18.31467170 0 26.17677757 0 9285
0.09250000 0.09250820 18879.76818117 0 359.72300886 0 7229.66363634 0 576.42170572 0 694.19912611 0 9204
0.09350000 0.09350330 18470.72483772 0 366.24906915 0 5809.85733260 0 5.46696189 0 417.36839588 0 9349
0.09450000 0.09448040 17972.61918278 0 502.22381637 0 7410.87161208 0 108.04500598 0 843.08735394 0 9564
0.09550000 0.09549270 17433.03245125 0 458.08528900 0 7127.35843569 0 -368.38856104 0 1340.85916386 0 10155
0.09650000 0.09649430 16735.72889911 0 135.35364020 0 7139.03746607 0 598.45104109 0 683.72016323 0 9913
0.09750000 0.09749140 16996.03929149 0 2.00827194 0 7316.34134049 0 190.54565445 0 1051.52532731 0 10476
0.09850000 0.09850240 17043.95326230 0 -129.81802380 0 6626.04742482 0 809.31687747 0 386.36073657 0 10575
0.09950000 0.09950330 17108.72585248 0 -73.15465136 0 5814.26053779 0 492.72087883 0 1227.09675676 0 10882
0.10050000 0.10051200 17077.67050103 0 -69.35480728 0 5178.03620725 0 338.39130977 0 -1.72615625 0 10875
0.10150000 0.10150300 17125.02991199 0 96.65002115 0 4993.91124671 0 825.23052686 0 932.92494010 0 11118
0.10250000 0.10250800 17020.77266068 0 246.37652165 0 5050.93109022 0 -356.37124914 0 1323.77872056 0 11575
0.10350000 0.10349800 16444.03041937 0 379.96000681 0 4727.86670551 0 248.62692551 0 334.99407615 0 11364
0.10450000 0.10450100 15865.62449852 0 446.05799503 0 5399.77141664 0 -154.14545519 0 1607.73554483 0 12093
0.10550000 0.10551000 15207.80560752 0 467.78010425 0 5354.25314436 0 -825.39024009 0 698.43929070 0 12067
0.10650000 0.10649700 15314.28109823 0 253.15878858 0 6319.05418449 0 708.10859620 0 2324.70378915 0 12054
0.10750000 0.10749900 15060.95815993 0 -546.29025097 0 5011.29115233 0 1056.39103541 0 1820.79743820 0 12807
0.10850000 0.10850100 15630.15838731 0 -391.70780262 0 4301.13290293 0 1231.47777956 0 2304.51781070 0 12736
0.10950000 0.10950300 16280.87891227 0 -16.22265013 0 3776.67456404 0 203.62439389 0 2170.04813890 0 12933
0.11050000 0.11050200 15716.55881154 0 450.22828508 0 4586.19884689 0 -881.01370191 0 2255.22853147 0 13428
0.11150000 0.11150900 15493.62575288 0 467.06804940 0 5086.45619405 0 -679.76947888 0 3089.06471803 0 13453
0.11250000 0.11250000 14852.99821715 0 291.90366688 0 5829.86585189 0 -298.34876143 0 1716.95056118 0 13668
0.11350000 0.11349100 14791.22025015 0 275.66393631 0 6339.01833900 0 -215.85022029 0 2331.74669921 0 13791
0.11450000 0.11448600 14453.38239111 0 111.06391888 0 6636.19587003 0 402.84890995 0 1857.04346983 0 14205
0.11550000 0.11549300 14459.14981352 0 149.55591789 0 6139.41006752 0 422.51138390 0 3040.40763702 0 14776
0.11650000 0.11649800 14166.12039015 0 -32.70816162 0 6206.75581539 0 917.72334557 0 2318.10452697 0 14553
0.11750000 0.11747300 14345.24322086 0 -135.26934710 0 5038.99696230 0 879.41324219 0 3341.61127255 0 14568
0.11850000 0.11849100 14330.27010498 0 128.23420088 0 4537.08702681 0 508.18977121 0 3115.27321642 0 16015
0.11950000 0.11950300 13900.81895915 0 376.52839048 0 4621.66849473 0 -366.65722519 0 3075.60000494 0 15270
0.12050000 0.12050700 13638.29032738 0 257.94131271 0 4232.75567374 0 -111.73049982 0 2464.74124182 0 15999
0.12150000 0.12150000 13174.12373510 0 140.17276527 0 4661.19752066 0 -2.99496700 0 2272.97444658 0 15670
0.12250000 0.12250700 13134.19542609 0 1.77301656 0 4133.41182268 0 257.05623519 0 2089.20440435 0 16887
0.12350000 0.12352200 13102.25277887 0 -148.46898059 0 3621.09834444 0 596.86056345 0 764.50289620 0 16407
0.12450000 0.12449800 13462.71667969 0 80.63067266 0 3557.90070423 0 150.03949408 0 1956.85315117 0 16306
0.12550000 0.12549900 13047.12953004 0 85.89344561 0 3221.27178566 0 -255.90829631 0 221.88383143 0 17523
0.12650000 0.12650100 12941.65224706 0 234.17398677 0 3787.52175465 0 -503.06674734 0 963.69413868 0 17154
0.12750000 0.12750600 12802.90137324 0 -23.02953952 0 3326.09468801 0 248.26313425 0 144.95196204 0 18007
0.12850000 0.12850300 12637.97527462 0 204.00925843 0 3813.92989459 0 -218.22817291 0 -93.18169295 0 17496
0.12950000 0.12949900 12741.23431821 0 203.04321517 0 3276.51703766 0 -38.70062442 0 -572.11832130 0 18405
0.13050000 0.13049000 12252.88891658 0 207.11701181 0 4342.83580346 0 -355.66473990 0 -517.56405087 0 18100
0.13150000 0.13148800 12037.60878381 0 161.84718235 0 3277.47088059 0 182.09748974 0 -164.87951559 0 19059
0.13250000 0.13249300 12088.51737781 0 -197.69282176 0 3844.06467669 0 670.29981492 0 -481.19268872 0 18957
0.13350000 0.13349100 12183.23619974 0 -137.96783532 0 2789.13657016 0 620.61790732 0 -282.78559387 0 19468
0.13450000 0.13450700 12310.56314071 0 -6.73202381 0 2534.22759070 0 562.68858565 0 -221.64093421 0 19953
0.13550000 0.13551000 12241.46498372 0 104.80149635 0 2243.50513629 0 -255.88389567 0 -257.69952461 0 19956
0.13650000 0.13649900 11988.69660527 0 327.78257989 0 2564.95020625 0 -419.70309284 0 -481.19712520 0 19723
0.13750000 0.13749600 11685.01963283 0 420.02695579 0 3041.50566552 0 -808.63476886 0 -996.19467309 0 20946
0.13850000 0.13851100 11167.50438323 0 202.75262581 0 3274.17679510 0 -280.36660382 0 -711.31284300 0 20955
0.13950000 0.13949800 11106.05915213 0 137.35227389 0 3690.75106128 0 215.53744853 0 -658.17935490 0 20506
0.14050000 0.14048300 10807.69486303 0 90.78044881 0 3241.84595600 0 479.62882995 0 -610.97632981 0 21447
0.14150000 0.14148400 10853.36841206 0 -89.76726797 0 3135.62556282 0 887.62516441 0 146.08659148 0 21771
0.14250000 0.14249400 10763.49644319 0 38.86477414 0 2616.19153615 0 495.33063747 0 1000.85075757 0 22470
0.14350000 0.14350900 10739.92764968 0 172.26070716 0 2548.50196117 0 118.81999291 0 1232.29852813 0 22519
0.14450000 0.14449900 10598.29306465 0 186.88888682 0 2703.83417443 0 -26.97800563 0 1541.55437264 0 22218
0.14550000 0.14550500 10378.79827704 0 203.35598693 0 2679.52227072 0 -313.12334488 0 1422.15763749 0 23559
0.14650000 0.14650700 10108.16198031 0 255.16296787 0 3363.58293370 0 -350.07921311 0 818.44825992 0 23044
0.14750000 0.14750500 9828.34217250 0 255.14078548 0 3619.14629378 0 -455.23596050 0 1016.91857459 0 23649
0.14850000 0.14849900 9559.18100496 0 150.01287520 0 3665.88459772 0 -56.60148356 0 502.11623176 0 23640
0.14950000 0.14949500 9433.98357381 0 72.53786990 0 3941.92230737 0 -0.61264888 0 143.53339795 0 24457
0.15050000 0.15050000 9455.68904624 0 41.15255533 0 3614.89836535 0 272.06927938 0 -30.62135292 0 24591
0.15150000 0.15149900 9188.96794203 0 136.02687585 0 3546.57659215 0 113.71582407 0 228.59400558 0 25020
0.15250000 0.15250500 9194.49135811 0 109.52446074 0 3320.04998568 0 -124.91349651 0 51.23744798 0 25297
0.15350000 0.15350100 9015.91199604 0 -11.43912780 0 3304.97704903 0 298.68704294 0 -57.48600652 0 25452
0.15450000 0.15450400 9098.84087563 0 -49.60382558 0 3138.26526770 0 202.19473861 0 198.33832943 0 26061
0.15550000 0.15549900 9096.88882496 0 -59.89457085 0 2721.65772793 0 192.50546895 0 -75.17502380 0 26128
0.15650000 0.15649500 9271.91900400 0 31.49267735 0 2839.16895959 0 179.11728512 0 156.77628710 0 26331
0.15750000 0.15749700 9084.43341079 0 81.91359141 0 2555.63360081 0 20.69062791 0 -46.13716107 0 27345
0.15850000 0.15849900 9116.75315870 0 126.85334686 0 2932.61229388 0 -97.16931099 0 118.94088695 0 26980
0.15950000 0.15949700 8954.95477762 0 244.10948099 0 3211.60026192 0 -351.57874294 0 272.45858039 0 27777
0.16050000 0.16050000 8604.91660193 0 217.23661991 0 3396.51269744 0 38.22104107 0 645.11947049 0 28224
0.16150000 0.16150500 8520.65677871 0 -36.66550070 0 3323.48825673 0 296.43220260 0 728.79700587 0 28075
0.16250000 0.16249700 8591.65153038 0 -167.24415878 0 2987.55808356 0 734.63097546 0 987.71212567 0 28590
0.16350000 0.16349900 8891.29130713 0 -21.91520696 0 2725.52855566 0 458.43798906 0 1403.69079457 0 29163
0.16450000 0.16449100 8619.66789387 0 45.43076273 0 2111.80826373 0 293.58841970 0 1783.96357314 0 28996
0.16550000 0.16550500 8559.74215676 0 190.23066446 0 2319.22473786 0 213.94808001 0 2028.40246268 0 30777
0.16650000 0.16650700 8468.70561221 0 119.49988328 0 2102.03691922 0 -90.98774328 0 1481.15171406 0 29211
0.16750000 0.16749900 8312.99629825 0 113.87442819 0 2332.50090061 0 75.95961507 0 2176.44775954 0 30922
0.16850000 0.16850800 8176.45257262 0 11.77197462 0 2187.05094383 0 -185.90620677 0 1494.96025426 0 30867
0.16950000 0.16949900 8068.15812562 0 75.50287958 0 2095.89239611 0 -11.25445937 0 1374.52094660 0 30852
0.17050000 0.17049200 8166.86977846 0 68.83596109 0 2230.97208374 0 -387.99446988 0 652.13465256 0 31257
0.17150000 0.17149500 8070.79783049 0 87.94875532 0 2424.72420323 0 -278.49330065 0 129.40321303 0 32608
0.17250000 0.17250900 7899.94903270 0 198.53686185 0 2776.75879437 0 -342.08246011 0 221.06751933 0 32361
0.17350000 0.17350400 7704.77724001 0 153.54431231 0 2652.90339805 0 -196.72456027 0 -297.68439873 0 32508
0.17450000 0.17449800 7696.71393983 0 -41.47042904 0 2807.22631238 0 380.25503265 0 -71.57670677 0 32791
0.17550000 0.17549800 7803.64416960 0 -103.62083843 0 2424.19182578 0 289.11977645 0 -483.69929923 0 33633
0.17650000 0.17650100 7783.11436405 0 66.76390368 0 2462.09044575 0 351.94142508 0 235.41952818 0 33984
0.17750000 0.17750300 7785.66533935 0 70.41612392 0 1971.34934558 0 -14.47977944 0 131.06689258 0 34069
0.17850000 0.17849800 7661.97631098 0 52.94626870 0 2168.72828647 0 299.89709252 0 742.47134259 0 34536
