### header ###
fiducial parameters:
Omega_m = 0.31
Omega_nu = 0
Omega_de = 0.69
Omega_k = 0
H_0 = 100
w_de = -1
zeff = 0
beta = 0
fgrowth = 0
b_1 = 2
gamma = 0.55
Lx = 3500 Ly = 3500 Lz = 3500
nx = 700 ny = 700 nz = 700
xoffset = 1379.75464 yoffset = 22.6059522 zoffset = 368.141391
bins = 400 dk = 0.001
kx_ny = 0.628318531 ky_ny = 0.628318531 kz_ny = 0.628318531
############################
A(data) = 3.36391351 (not used)
A(ran) = 3.36073997 (used)
Ngal = 188493
weighted Ngal = 0
Nran = 9399747
weighted Nran = 0
SN(data) = 6664.25727
SN(ran) = 133.674719
SN(data+ran) = 6797.93199
############################
13 columns: k_central k_mean P_0(k) sigma^{lin}_{P_0(k)} P^img_1(k) sigma^{lin}_{P_1(k)} P_2(k) sigma^{lin}_{P_2(k)} P^img_3(k) sigma^{lin}_{P_3(k)} P_4(k) sigma^{lin}_{P_4(k)} N_modes
### header ###
0.00050000 0 0 0 0 0 0 0 0 0 0 0 0
0.00150000 0.00179520 16128.81860211 0 -20139.94997843 0 -28224.10161005 0 18524.18440701 0 -14966.12842602 0 3
0.00250000 0.00253879 28647.67442150 0 -18214.96183610 0 -19552.78201199 0 -6224.50173051 0 8607.88904271 0 6
0.00350000 0.00331552 43662.60411410 0 -17037.63128004 0 -36631.56163271 0 -23065.69682140 0 1701.36742946 0 7
0.00450000 0.00420575 57039.80766532 0 -17013.56338267 0 -39609.32618937 0 -19073.42047989 0 -9250.24680517 0 24
0.00550000 0.00557378 75505.31964048 0 -9317.13781396 0 -41292.74806217 0 -36693.22868774 0 -27184.52372009 0 45
0.00650000 0.00659388 83363.32176632 0 17.80492028 0 -24013.43960063 0 -44975.69092080 0 -18038.16815674 0 40
0.00750000 0.00754703 81828.74375657 0 3681.68955337 0 3893.08776720 0 -45722.79394723 0 -25901.27223318 0 57
0.00850000 0.00846663 81588.61934264 0 5892.18728755 0 13188.32046719 0 -22118.95224990 0 -27260.38750722 0 75
0.00950000 0.00948925 82635.07377470 0 -1801.04401644 0 27339.46774146 0 3989.33717432 0 -12965.60923247 0 112
0.01050000 0.01054430 91272.34339813 0 -2433.68589036 0 47586.22594650 0 7415.88483310 0 -23285.85708082 0 105
0.01150000 0.01145670 91492.50365755 0 -1374.37676104 0 18940.21520454 0 10093.44396196 0 -3806.74279896 0 144
0.01250000 0.01249090 92092.53741245 0 8786.52386076 0 59707.90600318 0 1884.42763509 0 2250.14876326 0 169
0.01350000 0.01339930 81287.49334549 0 13129.09347549 0 51800.21531501 0 -5827.25942061 0 26046.23417730 0 180
0.01450000 0.01448870 76106.24069113 0 3906.46375072 0 73638.44937015 0 2254.74051880 0 11808.35374289 0 267
0.01550000 0.01550050 64713.36318592 0 2025.21928915 0 58098.35150206 0 15174.53201668 0 -704.34091660 0 238
0.01650000 0.01653350 75957.61865202 0 -6920.15269430 0 67569.56822402 0 13167.91266481 0 -1460.02298387 0 315
0.01750000 0.01747870 83547.65745960 0 -9190.49852721 0 31067.10812379 0 21430.07800745 0 557.51565140 0 297
0.01850000 0.01844180 92394.77252929 0 -3127.67317461 0 36482.16320982 0 -1129.09494053 0 -6182.18881415 0 388
0.01950000 0.01947590 92095.08838775 0 2955.59325396 0 29265.12135561 0 -5415.55418989 0 -32234.23477865 0 399
0.02050000 0.02045430 90557.62666679 0 4294.98837982 0 23683.36557945 0 -7652.78170871 0 -28071.15400413 0 462
0.02150000 0.02154770 85770.77697590 0 3899.30992869 0 34818.81640349 0 -2229.74096088 0 -15971.10178150 0 571
0.02250000 0.02255340 72324.14253179 0 3576.48955032 0 18449.65156352 0 3391.84330352 0 -39952.48782295 0 510
0.02350000 0.02348930 76091.26757525 0 5306.08407601 0 39170.55843810 0 2149.11905026 0 -17355.17224867 0 555
0.02450000 0.02439640 65357.31808073 0 6401.48396021 0 18892.07940979 0 1847.98196192 0 -28049.41525812 0 592
0.02550000 0.02547300 59715.00436923 0 3156.31064513 0 31940.98353134 0 6370.38424397 0 -3356.34038209 0 837
0.02650000 0.02652900 56472.16020551 0 1583.76746822 0 23963.19647845 0 3968.75191279 0 -9652.49124489 0 723
0.02750000 0.02749970 52493.19330033 0 -17.73537848 0 20899.25332151 0 8849.84350414 0 -1933.19562808 0 826
0.02850000 0.02848090 53989.17394471 0 593.03853698 0 20539.45489250 0 3234.17084771 0 -1377.81503209 0 831
0.02950000 0.02946900 54591.86958688 0 -430.28964032 0 15798.74458093 0 2374.63635781 0 9675.63857292 0 996
0.03050000 0.03053250 51298.78230098 0 1994.49667361 0 20893.59681106 0 503.74220123 0 3898.23408259 0 1041
0.03150000 0.03150510 51714.48036260 0 1764.97544396 0 17736.37668778 0 -3113.83136082 0 2875.73663593 0 1036
0.03250000 0.03246190 47174.63162775 0 1500.36166717 0 23469.30547835 0 -1812.06866620 0 -1325.27603215 0 1059
0.03350000 0.03345080 47790.63670626 0 2002.94816568 0 22244.06095148 0 1589.32415789 0 2365.03138125 0 1302
0.03450000 0.03451200 44019.85156780 0 216.10309958 0 21085.58543024 0 1968.07744248 0 4871.30915564 0 1339
0.03550000 0.03553350 45369.42841246 0 -128.64457516 0 16918.73364876 0 4447.09305477 0 151.00110085 0 1365
0.03650000 0.03647120 48529.75407089 0 -1502.32480903 0 18789.59674998 0 3477.75571508 0 2614.26166788 0 1308
0.03750000 0.03744890 46632.71574486 0 -157.03471199 0 11765.31989874 0 1697.00858906 0 2732.63801291 0 1579
0.03850000 0.03847530 46969.22266027 0 923.59946171 0 15174.53201668 0 -994.58201306 0 3782.59726321 0 1662
0.03950000 0.03950240 46750.61516842 0 506.17782808 0 15426.96765922 0 -3002.87502655 0 -2296.75397284 0 1683
0.04050000 0.04050350 46455.58932960 0 1239.60762692 0 21861.96921661 0 -1209.81667192 0 975.09478002 0 1822
0.04150000 0.04152450 44399.05959146 0 2593.43240001 0 24971.27536908 0 -4010.32171895 0 -852.61025564 0 1887
0.04250000 0.04250150 44033.27191611 0 1776.93175427 0 28015.58710742 0 -570.42136817 0 1529.24314402 0 1920
0.04350000 0.04349210 41394.78707410 0 324.21897831 0 28410.32280681 0 2143.65109017 0 3310.46719151 0 2005
0.04450000 0.04448520 40718.00223631 0 612.53242474 0 28534.76603657 0 3789.90636200 0 2537.24439627 0 2151
0.04550000 0.04548030 42249.47471093 0 -328.94604645 0 29883.12284957 0 3001.43317095 0 7804.45382698 0 2274
0.04650000 0.04648670 42677.15126525 0 -709.07796681 0 25621.21951024 0 5633.97313139 0 8416.55480416 0 2311
0.04750000 0.04749250 41244.61226742 0 806.30561750 0 23225.41005746 0 761.73342433 0 6061.09512587 0 2568
0.04850000 0.04851840 41265.13098177 0 1580.38465315 0 24335.63887197 0 -1540.04596985 0 8051.77642773 0 2493
0.04950000 0.04949480 38316.75809702 0 1008.71552533 0 23048.72729007 0 -25.56842541 0 844.59686585 0 2644
0.05050000 0.05050630 38678.10929360 0 555.82978946 0 25616.89394343 0 374.95676787 0 5259.00194497 0 2829
0.05150000 0.05149060 36387.88803576 0 897.98434236 0 20260.28946532 0 81.25466340 0 -5516.10698143 0 2784
0.05250000 0.05249300 38032.71254318 0 203.34378661 0 24262.54788408 0 3014.38768898 0 2966.30735021 0 3055
0.05350000 0.05348950 35014.13238175 0 -99.62379288 0 17969.06999975 0 800.71454512 0 -5262.72858714 0 3009
0.05450000 0.05448610 35978.73378034 0 719.93735775 0 19098.26476105 0 2274.53830535 0 766.65126105 0 3336
0.05550000 0.05550870 34467.66910811 0 383.53359047 0 15612.74520810 0 1885.75857873 0 -2447.73843690 0 3349
0.05650000 0.05647670 34010.48996991 0 291.67075175 0 14816.73000313 0 2632.70632840 0 331.86081301 0 3324
0.05750000 0.05747970 33942.72275655 0 -549.60097326 0 13231.35431135 0 2197.28811861 0 1798.70377388 0 3639
0.05850000 0.05849280 34000.72971659 0 15.12184883 0 11596.62279315 0 2787.83890012 0 1121.20909950 0 3846
0.05950000 0.05951020 34512.58845575 0 -571.04025696 0 9640.41293141 0 2035.72265266 0 4163.20277768 0 3787
0.06050000 0.06049470 34835.89684679 0 -178.61263565 0 9386.85707798 0 578.26506265 0 1121.10927872 0 3930
0.06150000 0.06148310 34896.67660607 0 383.25631055 0 9470.40706459 0 -1226.27600819 0 2800.39413506 0 4083
0.06250000 0.06249100 34304.07395313 0 1269.78677381 0 12137.42955635 0 -2181.78262528 0 -69.78392569 0 4303
0.06350000 0.06350600 33173.43733623 0 1052.68657563 0 12328.64179174 0 -1609.89832823 0 1396.40387818 0 4470
0.06450000 0.06451750 31371.11783214 0 897.35547149 0 14979.43786236 0 -49.60604382 0 -485.87317383 0 4479
0.06550000 0.06550280 31340.50612856 0 989.28263916 0 14804.75151043 0 1282.77456544 0 2986.03858958 0 4636
0.06650000 0.06648880 30099.06845415 0 -228.74262762 0 13659.25268961 0 3756.73259192 0 2105.24227514 0 4653
0.06750000 0.06749660 30494.80236126 0 -5.48964339 0 12875.88144916 0 2343.96919825 0 6349.18896660 0 5220
0.06850000 0.06852730 30002.79686464 0 337.17016899 0 10727.99352176 0 2306.98005643 0 6938.03170378 0 5029
0.06950000 0.06949320 28878.03858212 0 835.61077808 0 10991.40944928 0 570.05314043 0 7895.46818914 0 5040
0.07050000 0.07048030 27884.04551162 0 363.26442805 0 11059.69794889 0 -64.51394346 0 9354.08259100 0 5475
0.07150000 0.07148790 27673.53459354 0 328.72865899 0 10452.80983428 0 1114.27710140 0 6313.38658285 0 5509
0.07250000 0.07249820 27914.21356732 0 -38.56531182 0 9276.00056448 0 278.56206607 0 8376.99250464 0 5916
0.07350000 0.07351270 27512.04676597 0 185.27179030 0 8900.65227736 0 23.51688671 0 5637.24503449 0 5721
0.07450000 0.07449140 27507.16663932 0 54.65553306 0 8256.60865297 0 865.41504252 0 5515.78533671 0 6028
0.07550000 0.07549160 26813.07953430 0 299.99691329 0 8504.68545511 0 -24.71883973 0 3811.40110168 0 6183
0.07650000 0.07648840 26667.78485428 0 778.18388764 0 8914.15026404 0 -1587.30556005 0 3091.80424368 0 6330
0.07750000 0.07749960 25335.06662898 0 765.55877815 0 8902.47123366 0 -604.71313089 0 1857.16547300 0 6583
0.07850000 0.07848650 25272.17954228 0 242.39478194 0 10021.60627932 0 388.81854582 0 2639.39432016 0 6549
0.07950000 0.07947320 24406.17888456 0 -329.58157203 0 8296.51477959 0 1583.82292421 0 1902.87229562 0 6828
0.08050000 0.08048110 25184.55908639 0 270.48212910 0 8170.75169739 0 962.72033158 0 875.93504282 0 7147
0.08150000 0.08149960 24395.97498337 0 208.62430548 0 8381.73953694 0 253.08004108 0 1906.64330258 0 7386
0.08250000 0.08250610 23945.22873940 0 612.08655862 0 8427.18017084 0 -320.34925969 0 1442.63198706 0 7227
0.08350000 0.08350160 23674.38170992 0 235.33079861 0 7921.05558050 0 -493.17450878 0 985.25875290 0 7798
0.08450000 0.08449610 23183.59624496 0 488.55391613 0 8803.74848962 0 -534.26961171 0 1452.66952029 0 7371
0.08550000 0.08548940 22325.13760117 0 723.92686129 0 8668.60225481 0 21.49063594 0 -157.27539097 0 8256
0.08650000 0.08650700 22220.88034986 0 75.69342634 0 9452.01786005 0 239.21937226 0 209.24097603 0 8037
0.08750000 0.08749060 21757.26831742 0 -96.40035831 0 8168.91055870 0 1082.40876521 0 -1068.38283755 0 8155
0.08850000 0.08849210 21688.94654422 0 57.20928115 0 7711.38759339 0 852.69898522 0 -22.37915173 0 8718
0.08950000 0.08949900 21741.07516988 0 163.75154086 0 6691.95131709 0 618.01258515 0 848.40336464 0 8571
0.09050000 0.09049190 21264.48643701 0 171.61409038 0 5829.43329521 0 1043.11265442 0 -100.50177203 0 8932
0.09150000 0.09150830 20368.09589965 0 582.72483294 0 5659.34979001 0 433.49721448 0 778.35025559 0 9285
0.09250000 0.09250820 20131.29884481 0 580.19714916 0 4980.74599593 0 372.36586426 0 715.98001868 0 9204
0.09350000 0.09350330 19067.98579338 0 455.47774859 0 4794.02569531 0 311.30217034 0 702.36779266 0 9349
0.09450000 0.09448040 18297.92398927 0 470.06599994 0 5346.18984418 0 -59.70480047 0 870.67670635 0 9564
0.09550000 0.09549270 17427.93050065 0 441.74241029 0 4205.28277890 0 151.88728749 0 1120.41053332 0 10155
0.09650000 0.09649430 17377.68737848 0 208.08194595 0 4916.70542475 0 11.59640097 0 1407.12906562 0 9913
0.09750000 0.09749140 17110.16770808 0 12.64019351 0 3887.48671275 0 1317.86711258 0 906.83068104 0 10476
0.09850000 0.09850240 16657.31413669 0 -21.81117153 0 3704.58178387 0 184.47433324 0 911.60765957 0 10575
0.09950000 0.09950330 16886.90191352 0 -21.32349160 0 3358.23697677 0 310.10210283 0 1457.00617830 0 10882
0.10050000 0.10051200 16904.98056454 0 167.06115403 0 3427.63459608 0 23.09575397 0 898.23167605 0 10875
0.10150000 0.10150300 16707.11361099 0 235.44836530 0 3760.88069958 0 -712.96654047 0 587.68370710 0 11118
0.10250000 0.10250800 16424.28808881 0 290.61154244 0 4643.49597033 0 -705.60309481 0 668.38547433 0 11575
0.10350000 0.10349800 16310.60332009 0 215.30453340 0 4597.23458786 0 -304.12394768 0 -391.65789223 0 11364
0.10450000 0.10450100 16230.08123024 0 178.05474845 0 5521.12020245 0 -316.75127540 0 -139.62486014 0 12093
0.10550000 0.10551000 15996.38971054 0 187.92591373 0 5557.80988195 0 -528.00197632 0 -1250.54354711 0 12067
0.10650000 0.10649700 15789.31706352 0 81.04093604 0 5245.61487025 0 195.06088073 0 -384.24453619 0 12054
0.10750000 0.10749900 15684.39434039 0 146.03335374 0 5674.07889956 0 163.37111281 0 -1560.77541695 0 12807
0.10850000 0.10850100 15453.03197205 0 333.11190002 0 5953.24432675 0 -109.45824630 0 -676.07500118 0 12736
0.10950000 0.10950300 15128.72537328 0 224.95609298 0 5523.36062423 0 3.90422333 0 -1150.07948515 0 12933
0.11050000 0.11050200 14780.35087714 0 168.44311717 0 6156.21323090 0 -160.41087234 0 -1065.77640627 0 13428
0.11150000 0.11150900 14696.61234018 0 75.84770489 0 5655.66751263 0 66.52433382 0 -855.92652353 0 13453
0.11250000 0.11250000 14843.68161171 0 67.09386679 0 5796.83626738 0 335.91464549 0 -1580.00755246 0 13668
0.11350000 0.11349100 14685.63205520 0 -96.93528674 0 5086.80002115 0 492.13193627 0 -717.96201557 0 13791
0.11450000 0.11448600 14964.02109860 0 -139.38972677 0 5146.75903185 0 823.07439817 0 -251.15239105 0 14205
0.11550000 0.11549300 14749.29552569 0 -41.06593308 0 4425.89777740 0 801.85693841 0 376.80123392 0 14776
0.11650000 0.11649800 15226.54973037 0 -43.45497691 0 4152.05612475 0 652.35869474 0 -446.34969351 0 14553
0.11750000 0.11747300 14802.31144710 0 82.34969728 0 2858.61182784 0 -168.21463852 0 145.50430364 0 14568
0.11850000 0.11849100 14584.92398691 0 290.04700051 0 3808.63939364 0 -127.52325515 0 737.22298819 0 16015
0.11950000 0.11950300 14431.08908524 0 377.98133728 0 3747.16088896 0 -380.57113176 0 -29.77221088 0 15270
0.12050000 0.12050700 14048.44279053 0 32.87441867 0 3101.46467622 0 841.20185046 0 634.05821978 0 15999
0.12150000 0.12150000 13806.98743296 0 -50.65061275 0 3821.41645253 0 507.09617919 0 345.49854877 0 15670
0.12250000 0.12250700 13740.44025128 0 219.05557621 0 2859.92058908 0 417.43272482 0 1547.01124154 0 16887
0.12350000 0.12352200 13861.00156210 0 38.54956232 0 2387.38014310 0 394.37412637 0 688.59141693 0 16407
0.12450000 0.12449800 13557.54641360 0 147.87227419 0 3163.75283828 0 -267.53297983 0 1125.81194623 0 16306
0.12550000 0.12549900 13278.27007444 0 269.07132884 0 2677.49258168 0 -134.08813463 0 980.64703321 0 17523
0.12650000 0.12650100 13123.54787701 0 140.71290656 0 3070.70878708 0 -298.29219632 0 1060.84526011 0 17154
0.12750000 0.12750600 12788.15008130 0 180.20644066 0 3246.36007315 0 -38.72813059 0 481.99901874 0 18007
0.12850000 0.12850300 12717.38824477 0 222.67019729 0 3100.87684278 0 225.13798861 0 532.69022527 0 17496
0.12950000 0.12949900 12440.66288091 0 143.12635102 0 3663.22271045 0 -270.65737001 0 492.66764108 0 18405
0.13050000 0.13049000 12437.66825774 0 11.99180214 0 3145.19726579 0 278.90145670 0 580.20824035 0 18100
0.13150000 0.13148800 12274.96039851 0 -9.95057825 0 3072.41683141 0 296.99230804 0 1251.08701576 0 19059
0.13250000 0.13249300 12394.63441358 0 -54.58000201 0 2883.46720021 0 -48.62425107 0 322.64181010 0 18957
0.13350000 0.13349100 12462.17980299 0 121.08703356 0 3131.06708088 0 267.10485963 0 1170.32091958 0 19468
0.13450000 0.13450700 12220.61353346 0 275.99334486 0 3251.98331001 0 -288.92900786 0 815.16415651 0 19953
0.13550000 0.13551000 11809.90651047 0 273.82390674 0 3714.44185796 0 -232.41159557 0 1047.79424866 0 19956
0.13650000 0.13649900 11739.92105772 0 217.54939166 0 3773.80194403 0 84.26181963 0 1284.57133935 0 19723
0.13750000 0.13749600 11348.62362939 0 124.55525085 0 4247.45150970 0 -210.56526494 0 765.49555833 0 20946
0.13850000 0.13851100 11506.11862606 0 42.50091215 0 3919.96173741 0 213.07963929 0 837.15689093 0 20955
0.13950000 0.13949800 11342.63438304 0 -9.85773384 0 3989.01552961 0 187.05969125 0 1310.75765534 0 20506
0.14050000 0.14048300 11414.61625123 0 48.74902703 0 3543.73724573 0 111.64842496 0 981.44116291 0 21447
0.14150000 0.14148400 11383.56089978 0 -34.32669999 0 3385.77641879 0 292.77543496 0 812.10742263 0 21771
0.14250000 0.14249400 11398.53401566 0 143.44245013 0 3297.53485587 0 128.62350189 0 719.62347687 0 22470
0.14350000 0.14350900 11090.22092289 0 190.89169980 0 3451.07029523 0 -188.15771975 0 494.10506021 0 22519
0.14450000 0.14449900 10924.72917323 0 237.96717612 0 3450.39373221 0 -253.22533576 0 381.26987717 0 22218
0.14550000 0.14550500 10693.49989925 0 167.27521413 0 3797.99184457 0 27.45115609 0 447.19262447 0 23559
0.14650000 0.14650700 10483.47699384 0 24.38310919 0 3182.87406182 0 214.72224556 0 -160.77799096 0 23044
0.14750000 0.14750500 10442.93866899 0 47.01913305 0 3325.08538909 0 669.38368206 0 808.33308830 0 23649
0.14850000 0.14849900 10195.71588902 0 139.12575628 0 2753.01254170 0 376.69364931 0 -8.94711330 0 23640
0.14950000 0.14949500 10022.34938952 0 294.34705757 0 2792.09791975 0 -5.44776303 0 1230.51284542 0 24457
0.15050000 0.15050000 9536.65478396 0 305.72329828 0 2802.52364488 0 71.25018193 0 1163.22255354 0 24591
0.15150000 0.15149900 9217.76068930 0 64.32506038 0 2607.97295921 0 496.08262062 0 2012.83042216 0 25020
0.15250000 0.15250500 9350.05648650 0 -72.96133180 0 2188.00478676 0 628.71004461 0 1840.15157688 0 25297
0.15350000 0.15350100 9324.80183105 0 -107.21360986 0 1818.20209812 0 502.55322492 0 2153.87717375 0 25452
0.15450000 0.15450400 9478.07108168 0 -18.72072042 0 1777.05375744 0 98.29906031 0 2602.54936390 0 26061
0.15550000 0.15549900 9464.07399113 0 66.26812717 0 1484.41252596 0 -339.45828292 0 2096.56895912 0 26128
0.15650000 0.15649500 9519.74070861 0 -55.95852687 0 1971.88172303 0 -157.91424391 0 1815.86185556 0 26331
0.15750000 0.15749700 9597.33472246 0 -14.95847550 0 1855.06923677 0 -70.30255006 0 1016.03016972 0 27345
0.15850000 0.15849900 9646.80146085 0 155.88566399 0 2437.94490999 0 -527.86666372 0 1519.76017063 0 26980
0.15950000 0.15949700 9386.16942377 0 213.33473682 0 2496.68388903 0 -419.71085668 0 400.85914922 0 27777
0.16050000 0.16050000 9329.58213694 0 122.82280588 0 3120.98518285 0 -356.48659759 0 1013.99049860 0 28224
0.16150000 0.16150500 9239.80998884 0 -13.83737731 0 2955.87053388 0 126.00819765 0 348.74161476 0 28075
0.16250000 0.16249700 9357.63177402 0 -21.25173156 0 3227.54940313 0 108.29344879 0 434.36676432 0 28590
0.16350000 0.16349900 9309.95071834 0 189.05610670 0 3280.88696925 0 -181.01720715 0 544.38034685 0 29163
0.16450000 0.16449100 9132.71339111 0 128.17541753 0 3060.37179153 0 -133.17643824 0 205.47773290 0 28996
0.16550000 0.16550500 8938.32907339 0 178.64812748 0 3422.39955112 0 -0.66890787 0 105.39132620 0 30777
0.16650000 0.16650700 8692.73669937 0 66.42074204 0 3108.35230953 0 123.94190766 0 -52.76237665 0 29211
0.16750000 0.16749900 8783.19650168 0 -8.29326506 0 3037.70138497 0 396.10989869 0 199.03929307 0 30922
0.16850000 0.16850800 8643.28105217 0 51.51073507 0 2689.72617191 0 250.87178377 0 -259.26671074 0 30867
0.16950000 0.16949900 8452.80083579 0 159.00561769 0 2452.57419877 0 4.66322721 0 193.21641468 0 30852
0.17050000 0.17049200 8381.82826651 0 130.84839600 0 2341.46258774 0 -5.03987317 0 -325.58985025 0 31257
0.17150000 0.17149500 8157.96354731 0 83.38605872 0 2388.22307407 0 45.87540882 0 -376.82674367 0 32608
0.17250000 0.17250900 8205.53369102 0 45.95526544 0 2196.66701158 0 45.10922893 0 -211.35163081 0 32361
0.17350000 0.17350400 8041.98290082 0 48.11616334 0 2348.01748514 0 -60.88279650 0 -624.95234708 0 32508
0.17450000 0.17449800 8105.84601285 0 38.17035430 0 2115.54599710 0 38.91878827 0 -357.22305307 0 32791
0.17550000 0.17549800 8011.27137647 0 8.71529619 0 2082.41659182 0 29.25757934 0 -964.16662367 0 33633
0.17650000 0.17650100 8056.70091917 0 116.77255795 0 2248.38526295 0 47.12050659 0 -517.80472984 0 33984
0.17750000 0.17750300 7910.66312896 0 117.63656219 0 2169.24957272 0 -204.03476818 0 -1051.84142642 0 34069
0.17850000 0.17849800 7660.31263144 0 116.43205820 0 2353.74054276 0 -26.89770537 0 -736.64513683 0 34536
