### header ###
fiducial parameters:
Omega_m = 0.31
Omega_nu = 0
Omega_de = 0.69
Omega_k = 0
H_0 = 100
w_de = -1
zeff = 0
beta = 0
fgrowth = 0
b_1 = 2
gamma = 0.55
Lx = 3500 Ly = 3500 Lz = 3500
nx = 700 ny = 700 nz = 700
xoffset = 1379.75464 yoffset = 22.6059522 zoffset = 368.141391
bins = 400 dk = 0.001
kx_ny = 0.628318531 ky_ny = 0.628318531 kz_ny = 0.628318531
############################
A(data) = 3.29716446 (not used)
A(ran) = 3.28734027 (used)
Ngal = 184484
weighted Ngal = 0
Nran = 9399747
weighted Nran = 0
SN(data) = 6755.23216
SN(ran) = 130.755218
SN(data+ran) = 6885.98738
############################
13 columns: k_central k_mean P_0(k) sigma^{lin}_{P_0(k)} P^img_1(k) sigma^{lin}_{P_1(k)} P_2(k) sigma^{lin}_{P_2(k)} P^img_3(k) sigma^{lin}_{P_3(k)} P_4(k) sigma^{lin}_{P_4(k)} N_modes
### header ###
0.00050000 0 0 0 0 0 0 0 0 0 0 0 0
0.00150000 0.00179520 89890.60208232 0 -28484.07926652 0 -36481.16500209 0 68777.51048365 0 -62947.20098388 0 3
0.00250000 0.00253879 92723.62651881 0 -5465.30929940 0 48529.86498286 0 -78192.38392512 0 22965.09966508 0 6
0.00350000 0.00331552 95922.77136655 0 15194.38525922 0 -6677.64367303 0 67775.75357529 0 3760.12649819 0 7
0.00450000 0.00420575 92149.54616477 0 1003.13887150 0 31962.94410130 0 25417.25239836 0 20513.39057968 0 24
0.00550000 0.00557378 101930.20728159 0 -5479.86094980 0 16599.97264847 0 44511.85706442 0 16879.91445944 0 45
0.00650000 0.00659388 108384.95116954 0 -15213.12938206 0 16555.82968461 0 23124.25834129 0 49932.56866090 0 40
0.00750000 0.00754703 108063.30645804 0 -9303.14072341 0 1909.21646027 0 24015.32510411 0 5347.09932233 0 57
0.00850000 0.00846663 130599.95318502 0 2646.64796297 0 -18955.63196830 0 -15358.75679799 0 27099.56515147 0 75
0.00950000 0.00948925 117817.34870219 0 8401.91442419 0 -6131.97896557 0 -29599.74276754 0 7614.80545036 0 112
0.01050000 0.01054430 125112.02893504 0 12795.24844735 0 24595.94926435 0 -18821.31757326 0 -456.37502643 0 105
0.01150000 0.01145670 93389.43107161 0 7468.73438655 0 36822.66295613 0 -10187.79677440 0 -11027.43365697 0 144
0.01250000 0.01249090 96399.36009942 0 7463.82098631 0 49183.02557114 0 19403.16176516 0 -7220.97922913 0 169
0.01350000 0.01339930 91176.73728044 0 -2879.92910838 0 52456.03779056 0 -5480.55969521 0 -18838.28710459 0 180
0.01450000 0.01448870 94417.25229280 0 3375.33960246 0 44250.65937629 0 18604.59558489 0 10189.63791309 0 267
0.01550000 0.01550050 86849.28496715 0 389.00044145 0 33411.01077486 0 8828.20457889 0 -18261.21212737 0 238
0.01650000 0.01653350 87821.76111557 0 4490.52618202 0 47212.67443329 0 -608.15805666 0 20634.50645035 0 315
0.01750000 0.01747870 85027.11222053 0 4441.23690278 0 39384.28580329 0 880.25950051 0 -13560.31921284 0 297
0.01850000 0.01844180 77043.55774522 0 5213.67222304 0 59030.89934146 0 8457.90278638 0 18069.99989198 0 388
0.01950000 0.01947590 71161.11961980 0 5531.90084588 0 35951.56034782 0 11017.45157971 0 -9192.58367223 0 399
0.02050000 0.02045430 67318.90717299 0 1176.11052439 0 40673.41562458 0 -460.95901813 0 7724.22010826 0 462
0.02150000 0.02154770 66252.26676248 0 2638.18537970 0 39125.30635455 0 8349.34215065 0 2608.36115110 0 571
0.02250000 0.02255340 59937.71560395 0 1312.36587890 0 26177.33212523 0 3040.44091061 0 -3006.53512154 0 510
0.02350000 0.02348930 60122.16220920 0 244.76718897 0 26490.65843901 0 1725.81242754 0 8949.64209428 0 555
0.02450000 0.02439640 59381.04842912 0 148.68969541 0 23931.03200730 0 6402.80381265 0 -13695.18816773 0 592
0.02550000 0.02547300 58194.29035566 0 2664.14987175 0 25434.88740151 0 1635.47462839 0 4360.42644182 0 837
0.02650000 0.02652900 53850.75580680 0 2398.94826152 0 24689.00440674 0 -1045.94756436 0 -11464.97028538 0 723
0.02750000 0.02749970 52215.13699284 0 2267.07392981 0 34945.92152052 0 -3591.38502782 0 4378.87110234 0 826
0.02850000 0.02848090 51820.29038149 0 2166.63205024 0 32377.75486716 0 2258.81098808 0 -10599.10272202 0 831
0.02950000 0.02946900 51257.74487227 0 -227.54921483 0 36083.10194362 0 1550.58260695 0 6066.90691307 0 996
0.03050000 0.03053250 50667.36045872 0 -866.92344530 0 33509.72242770 0 3525.82496266 0 -1302.98272628 0 1041
0.03150000 0.03150510 53900.11163322 0 -414.50908531 0 32475.24648833 0 6601.63570034 0 2881.77024707 0 1036
0.03250000 0.03246190 52045.66350347 0 -78.63192806 0 26514.72633639 0 3297.43503510 0 6742.42735440 0 1059
0.03350000 0.03345080 52287.34068498 0 1067.69407422 0 29361.83659300 0 2282.37978160 0 1598.13056827 0 1302
0.03450000 0.03451200 50773.28138957 0 2319.20255546 0 27283.56810884 0 1961.36726832 0 10280.04225941 0 1339
0.03550000 0.03553350 47842.98715585 0 1209.90540149 0 25628.76152417 0 4363.37670020 0 3173.29126766 0 1365
0.03650000 0.03647120 44814.20309323 0 297.42708296 0 26588.81553200 0 3379.44334534 0 12537.26720633 0 1308
0.03750000 0.03744890 47966.98673773 0 -1259.32777509 0 15844.10757644 0 9628.27916195 0 10815.33669773 0 1579
0.03850000 0.03847530 46567.27768287 0 -782.58487459 0 12267.86203246 0 6265.36170007 0 12280.83873289 0 1662
0.03950000 0.03950240 47218.88550358 0 1318.87641151 0 9378.66068343 0 1386.76562803 0 12695.64949875 0 1683
0.04050000 0.04050350 42740.59291179 0 1941.34765783 0 9190.77580713 0 662.36849999 0 12671.69251334 0 1822
0.04150000 0.04152450 41093.77198892 0 2743.92885140 0 8788.87519451 0 -2958.64333312 0 11381.67539630 0 1887
0.04250000 0.04250150 38154.38297370 0 586.47809399 0 10710.72452811 0 268.55780643 0 6439.06093547 0 1920
0.04350000 0.04349210 37331.30524818 0 895.87923318 0 11603.27751132 0 -529.05231267 0 10023.64705956 0 2005
0.04450000 0.04448520 37732.03019391 0 37.80623030 0 8304.96627166 0 188.12666440 0 1741.15155292 0 2151
0.04550000 0.04548030 36154.30742803 0 214.37841845 0 13034.59647749 0 -566.72578134 0 3428.76589816 0 2274
0.04650000 0.04648670 37380.77198656 0 668.40876585 0 10032.27601079 0 -1557.52569624 0 -1733.38771505 0 2311
0.04750000 0.04749250 36037.84986007 0 59.38049387 0 12852.03537572 0 697.29357006 0 -370.15760695 0 2568
0.04850000 0.04851840 35508.68885367 0 745.64564315 0 12155.17547147 0 -1626.51294126 0 -1650.95793933 0 2493
0.04950000 0.04949480 36188.35740266 0 143.34595672 0 14288.67811643 0 -935.85301610 0 -5503.56283768 0 2644
0.05050000 0.05050630 35057.38804985 0 567.93583093 0 13452.06913062 0 678.47180884 0 -3243.30999399 0 2829
0.05150000 0.05149060 35595.31110184 0 -512.95565854 0 14178.98617861 0 964.58032531 0 -1845.12043311 0 2784
0.05250000 0.05249300 34600.09799968 0 -360.22654920 0 12210.63145621 0 2852.58930790 0 -2811.96225348 0 3055
0.05350000 0.05348950 36678.69921974 0 -202.99330479 0 11074.84852392 0 1976.52893455 0 -1781.64551297 0 3009
0.05450000 0.05448610 35907.30647199 0 970.99991011 0 11000.26022444 0 -1261.70129124 0 -21.01404721 0 3336
0.05550000 0.05550870 34569.70812004 0 1220.18694106 0 9928.81732565 0 -1488.51626883 0 -1210.33795817 0 3349
0.05650000 0.05647670 33732.76639832 0 1213.41021973 0 14728.55498739 0 -2013.72880912 0 -622.93707660 0 3324
0.05750000 0.05747970 30975.16210109 0 1103.30125290 0 13503.97593234 0 -1131.69028061 0 -4468.31051453 0 3639
0.05850000 0.05849280 31099.16168297 0 848.34790865 0 16257.58739867 0 699.65488589 0 -3193.65470526 0 3846
0.05950000 0.05951020 30845.72783270 0 -180.18647650 0 14264.72113102 0 977.32743797 0 -1943.00024618 0 3787
0.06050000 0.06049470 29772.09996811 0 -152.09802023 0 13883.18395600 0 2877.95487532 0 -2266.26427243 0 3930
0.06150000 0.06148310 30197.55828305 0 226.03304821 0 12119.46181729 0 2169.63776462 0 -377.56319915 0 4083
0.06250000 0.06249100 30103.39402096 0 -229.64212369 0 10465.32070443 0 1315.85960594 0 -2227.47835670 0 4303
0.06350000 0.06350600 31234.91793361 0 -300.59140145 0 10952.53480398 0 902.94432563 0 1531.87175770 0 4470
0.06450000 0.06451750 29811.91736516 0 788.17705609 0 8545.78943100 0 -222.28200540 0 -1432.82736895 0 4479
0.06550000 0.06550280 29058.82509237 0 862.53909515 0 9344.89907992 0 -1185.78204813 0 -2072.23487302 0 4636
0.06650000 0.06648880 28503.71068512 0 332.38431750 0 10682.59725265 0 -1127.43126098 0 -2193.73893559 0 4653
0.06750000 0.06749660 28215.11774052 0 374.21143943 0 11491.81098199 0 526.90062046 0 -3384.50093114 0 5220
0.06850000 0.06852730 28330.02254091 0 -585.79043978 0 9887.94626490 0 1247.60437992 0 -1257.53100119 0 5029
0.06950000 0.06949320 29224.30575084 0 -1143.99041803 0 6488.93804815 0 2446.54058763 0 -4713.98052693 0 5040
0.07050000 0.07048030 29671.50281179 0 181.54847549 0 7359.63028217 0 35.91507031 0 -2140.34591348 0 5475
0.07150000 0.07148790 29233.95509219 0 836.25295838 0 6891.34885582 0 -1623.11903499 0 -3372.91063033 0 5509
0.07250000 0.07249820 28159.32901987 0 1050.62139476 0 8386.44220444 0 -405.99104605 0 -1887.72172059 0 5916
0.07350000 0.07351270 27163.22862195 0 588.95919475 0 9699.20736643 0 -409.17976517 0 -2874.19495956 0 5721
0.07450000 0.07449140 26472.24705208 0 682.95376152 0 9280.08212496 0 592.91542470 0 -1921.32804734 0 6028
0.07550000 0.07549160 25610.57196117 0 811.38871306 0 11175.04639715 0 17.63322856 0 -1161.33705005 0 6183
0.07650000 0.07648840 24947.09655973 0 223.64733174 0 9837.90278427 0 757.87368779 0 -1289.58456037 0 6330
0.07750000 0.07749960 24323.21673139 0 254.26679916 0 10884.09102761 0 281.38921217 0 -431.15697193 0 6583
0.07850000 0.07848650 24131.78267206 0 141.94846590 0 9317.93638014 0 -246.57838143 0 -1156.72311212 0 6549
0.07950000 0.07947320 23893.32193768 0 234.62761672 0 9823.81696415 0 371.50518738 0 -1922.00461035 0 6828
0.08050000 0.08048110 23768.54597201 0 237.88510127 0 9339.13165751 0 -237.36048765 0 -3466.75324771 0 7147
0.08150000 0.08149960 23196.90568130 0 258.92066540 0 8281.26438378 0 522.42643161 0 -2632.27377172 0 7386
0.08250000 0.08250610 23269.77484525 0 93.97316077 0 9380.24672460 0 182.25276649 0 -2667.01140056 0 7227
0.08350000 0.08350160 22552.72896255 0 236.54972115 0 7590.26063152 0 695.78627639 0 -3616.71732165 0 7798
0.08450000 0.08449610 22266.46516931 0 384.47966957 0 7788.38268260 0 1221.26278717 0 -813.77221129 0 7371
0.08550000 0.08548940 21702.36689253 0 242.66097067 0 6689.63325693 0 254.90121562 0 -2525.47663631 0 8256
0.08650000 0.08650700 21287.11247878 0 508.49145177 0 7306.62545196 0 947.49211817 0 -574.64267773 0 8037
0.08750000 0.08749060 21062.62665255 0 345.71039064 0 7039.03923439 0 -347.32415979 0 -1266.92524500 0 8155
0.08850000 0.08849210 19722.36641333 0 445.15073512 0 7784.30112213 0 -223.33788735 0 676.47872074 0 8718
0.08950000 0.08949900 19491.44769287 0 619.24481713 0 8181.39924646 0 19.26396724 0 -44.64994247 0 8571
0.09050000 0.09049190 19556.10937108 0 -73.56990577 0 7369.02452599 0 880.17409830 0 937.12073991 0 8932
0.09150000 0.09150830 18930.67677517 0 -330.31026367 0 6568.37320069 0 1424.89716314 0 -65.95823913 0 9285
0.09250000 0.09250820 19393.17968791 0 549.55771759 0 7054.24526540 0 -547.71546977 0 714.72227694 0 9204
0.09350000 0.09350330 18861.68953015 0 267.08045899 0 6349.29987857 0 3.22380058 0 1344.03124619 0 9349
0.09450000 0.09448040 18484.25609800 0 98.56524904 0 6950.36511479 0 189.07385262 0 457.98324998 0 9564
0.09550000 0.09549270 18566.55277936 0 -19.79501375 0 6905.12412243 0 139.08028237 0 705.23486707 0 10155
0.09650000 0.09649430 18477.60137983 0 290.42410121 0 6181.50115994 0 45.74164898 0 339.57474048 0 9913
0.09750000 0.09749140 18202.76151945 0 181.08929993 0 6044.65797199 0 850.00493348 0 1374.90913849 0 10476
0.09850000 0.09850240 17856.27252679 0 -251.84669998 0 6057.69012841 0 924.39913701 0 2044.06323277 0 10575
0.09950000 0.09950330 18385.43353319 0 92.42272235 0 5059.64877102 0 421.41335541 0 1155.61399243 0 10882
0.10050000 0.10051200 18148.96921425 0 277.53723947 0 5471.88637919 0 188.17102918 0 1259.33886629 0 10875
0.10150000 0.10150300 17420.16666279 0 714.23426428 0 5124.42136120 0 -982.13990832 0 724.84410328 0 11118
0.10250000 0.10250800 16393.78729720 0 668.43538472 0 6198.59269444 0 -693.76102383 0 2038.08507761 0 11575
0.10350000 0.10349800 16073.91717721 0 385.98807235 0 6735.73936264 0 353.06385421 0 1006.46401235 0 11364
0.10450000 0.10450100 15532.88859008 0 -25.58927686 0 5985.08715318 0 1001.26335010 0 1782.49953514 0 12093
0.10550000 0.10551000 15439.83344768 0 -205.96574557 0 5167.12246945 0 1538.10501039 0 1767.43768968 0 12067
0.10650000 0.10649700 15922.85507478 0 -98.73006423 0 4787.94771938 0 573.29066082 0 2811.25241688 0 12054
0.10750000 0.10749900 15818.70873543 0 -22.19315236 0 3697.99361289 0 556.28009206 0 2473.05963953 0 12807
0.10850000 0.10850100 15682.73066085 0 88.80122472 0 3968.59663603 0 -360.63914173 0 2263.08109891 0 12736
0.10950000 0.10950300 15667.86845694 0 18.83551431 0 3863.36335938 0 -203.49240865 0 1392.04503777 0 12933
0.11050000 0.11050200 15795.52813381 0 52.01471906 0 3431.30578227 0 -127.73509701 0 455.72730053 0 13428
0.11150000 0.11150900 15416.20919818 0 174.25712261 0 3734.29510050 0 -511.38847241 0 747.27161263 0 13453
0.11250000 0.11250000 15302.08078158 0 319.21573937 0 4195.33397524 0 -484.31929714 0 -884.51075630 0 13668
0.11350000 0.11349100 14952.04260590 0 595.18912007 0 5092.38998441 0 -1073.34947554 0 -979.06986501 0 13791
0.11450000 0.11448600 14668.32978796 0 187.38577244 0 4796.66540018 0 64.41434452 0 -833.56888872 0 14205
0.11550000 0.11549300 14043.45175190 0 -105.15541644 0 4989.02002886 0 668.41763880 0 -728.98111974 0 14776
0.11650000 0.11649800 14423.99071919 0 82.77083003 0 4375.42174009 0 801.79482770 0 -755.59888329 0 14553
0.11750000 0.11747300 14333.37564013 0 -12.82663653 0 4087.28353457 0 515.09404131 0 -944.40654718 0 14568
0.11850000 0.11849100 14025.59492481 0 284.46923757 0 4145.02430588 0 -256.29870644 0 -443.21753949 0 16015
0.11950000 0.11950300 13726.46534312 0 402.02039754 0 4311.02625061 0 -799.51447761 0 -770.48881520 0 15270
0.12050000 0.12050700 13329.73322828 0 256.00811708 0 5091.49159746 0 -409.19418373 0 -1369.46336079 0 15999
0.12150000 0.12150000 13156.04508407 0 169.24722895 0 4950.03447158 0 -442.58201390 0 -2225.84795075 0 15670
0.12250000 0.12250700 12878.21060052 0 83.56817617 0 5082.85155504 0 343.31691034 0 -1432.60554501 0 16887
0.12350000 0.12352200 12904.82947320 0 -49.75655137 0 4810.72903791 0 444.64941301 0 -1832.16591507 0 16407
0.12450000 0.12449800 13180.22389342 0 -209.53156539 0 4608.70288550 0 911.55774918 0 -495.23081670 0 16306
0.12550000 0.12549900 13178.00565403 0 -29.76322701 0 3739.14195356 0 682.41805671 0 -1634.94225094 0 17523
0.12650000 0.12650100 13373.43254426 0 32.41779409 0 3962.09719462 0 22.42462564 0 301.86799822 0 17154
0.12750000 0.12750600 13015.96326662 0 111.47429317 0 3558.99873273 0 -94.60214255 0 -140.77501727 0 18007
0.12850000 0.12850300 13169.02178450 0 190.14193488 0 3899.94212692 0 -80.82665411 0 58.27070870 0 17496
0.12950000 0.12949900 12924.57180376 0 -55.46995965 0 3722.82680285 0 41.34188206 0 229.34044314 0 18405
0.13050000 0.13049000 12852.92267148 0 -31.69353893 0 4239.28838875 0 348.74383300 0 -447.62961763 0 18100
0.13150000 0.13148800 13262.63148675 0 214.32628983 0 4166.16412727 0 -302.01772938 0 41.40976019 0 19059
0.13250000 0.13249300 12760.31117696 0 234.16844117 0 3848.06859879 0 -336.93059913 0 -971.09307616 0 18957
0.13350000 0.13349100 12363.68997409 0 335.26470135 0 4855.29346725 0 -368.67249568 0 -219.69442915 0 19468
0.13450000 0.13450700 12140.75691543 0 193.17870461 0 4770.06870990 0 -275.21474283 0 -842.78789162 0 19953
0.13550000 0.13551000 12147.07889769 0 -17.00768505 0 4868.24798529 0 519.46730027 0 -490.86975806 0 19956
0.13650000 0.13649900 11788.94414824 0 103.03522323 0 4760.54137172 0 53.94425460 0 -1008.05892647 0 19723
0.13750000 0.13749600 11920.04209616 0 111.56524098 0 4062.98272206 0 127.21381076 0 -720.17470936 0 20946
0.13850000 0.13851100 11752.34319831 0 72.14135961 0 4709.07821788 0 476.89595902 0 -475.71031007 0 20955
0.13950000 0.13949800 11483.60349625 0 124.10938473 0 3787.58830183 0 344.53694200 0 -973.14605672 0 20506
0.14050000 0.14048300 11516.10070331 0 85.36605920 0 3709.28445138 0 221.63206126 0 -76.45139874 0 21447
0.14150000 0.14148400 11324.44482004 0 141.90077376 0 2995.93193726 0 371.77692170 0 -602.69120569 0 21771
0.14250000 0.14249400 11025.98071017 0 137.39663867 0 3425.31653591 0 229.09200032 0 -57.62553378 0 22470
0.14350000 0.14350900 10763.40771361 0 154.90963866 0 3030.22591822 0 9.56593554 0 -590.43765130 0 22519
0.14450000 0.14449900 10618.82287020 0 165.56827892 0 3071.23007334 0 -81.76363843 0 -181.82575541 0 22218
0.14550000 0.14550500 10487.39218636 0 123.57478904 0 2752.82399135 0 159.19416804 0 -597.19662672 0 23559
0.14650000 0.14650700 10288.88194338 0 47.48041593 0 2658.30481096 0 -136.31635609 0 -709.93642546 0 23044
0.14750000 0.14750500 10173.77750145 0 195.78624501 0 2973.68299618 0 -13.14340112 0 -362.46918923 0 23649
0.14850000 0.14849900 9911.88106792 0 150.66614670 0 2958.55460354 0 118.21330443 0 -766.47269278 0 23640
0.14950000 0.14949500 9957.15533386 0 -101.10058575 0 2672.94519093 0 429.81160974 0 -211.06991440 0 24457
0.15050000 0.15050000 10072.64796768 0 -50.22570900 0 2688.38413708 0 123.69235573 0 -554.22489326 0 24591
0.15150000 0.15149900 9972.77173916 0 286.23051964 0 2716.23413262 0 -372.48010359 0 -174.33587011 0 25020
0.15250000 0.15250500 9625.97219298 0 162.73780546 0 2751.71487166 0 -27.76947345 0 -174.69522489 0 25297
0.15350000 0.15350100 9657.23827718 0 44.82973077 0 3040.34108984 0 221.64869805 0 130.23394369 0 25452
0.15450000 0.15450400 9503.11500439 0 50.65704565 0 2615.96971221 0 369.97016572 0 145.42222879 0 26061
0.15550000 0.15549900 9461.27900950 0 35.64455602 0 2663.20712001 0 458.58993846 0 431.55403678 0 26128
0.15650000 0.15649500 9491.59125076 0 -58.68063934 0 2099.77431504 0 403.57649247 0 811.54731718 0 26331
0.15750000 0.15749700 9363.51010840 0 29.52343533 0 2068.41950127 0 104.12925890 0 304.45002887 0 27345
0.15850000 0.15849900 9479.70148763 0 206.41493904 0 2025.21928915 0 -210.73939673 0 907.78563310 0 26980
0.15950000 0.15949700 9119.89196743 0 74.18724180 0 1936.58953434 0 60.00359731 0 520.47659919 0 27777
0.16050000 0.16050000 9053.79952482 0 29.42749648 0 1932.92943935 0 118.55158594 0 629.46313688 0 28224
0.16150000 0.16150500 9109.23332717 0 17.82821180 0 1819.78813928 0 191.64035559 0 342.40299571 0 28075
0.16250000 0.16249700 9047.33335700 0 144.02473797 0 1882.73068196 0 -250.97604102 0 235.17108537 0 28590
0.16350000 0.16349900 8867.94433756 0 126.67034211 0 1932.05323479 0 -30.50023705 0 867.29167304 0 29163
0.16450000 0.16449100 8813.61965491 0 33.92675143 0 2085.74395090 0 39.05698458 0 825.26490957 0 28996
0.16550000 0.16550500 8785.49237944 0 -29.65985705 0 1891.37072438 0 351.40128379 0 679.68296754 0 30777
0.16650000 0.16650700 8840.81526982 0 131.83551253 0 2352.27650476 0 -55.35438938 0 905.48642797 0 29211
0.16750000 0.16749900 8770.89636426 0 123.31192767 0 1820.60888785 0 -118.14675725 0 816.52726461 0 30922
0.16850000 0.16850800 8524.00632019 0 22.88036292 0 2323.19538637 0 78.61229664 0 1056.00173440 0 30867
0.16950000 0.16949900 8625.54622825 0 -11.86602797 0 1827.25251483 0 100.38032342 0 759.04380907 0 30852
0.17050000 0.17049200 8620.45536885 0 56.89761852 0 1814.56418552 0 307.19288187 0 831.21311849 0 31257
0.17150000 0.17149500 8394.23931590 0 135.07414203 0 1796.71844963 0 -110.45046478 0 364.30921880 0 32608
0.17250000 0.17250900 8197.52584683 0 144.12566786 0 1519.51616430 0 -265.71180529 0 510.72300059 0 32361
0.17350000 0.17350400 8223.01341741 0 143.87833417 0 1624.69398496 0 29.64787856 0 -93.54736972 0 32508
0.17450000 0.17449800 7918.56006118 0 53.14502294 0 1774.38077897 0 -152.77014676 0 -377.11844215 0 32791
0.17550000 0.17549800 7865.75487251 0 107.21726995 0 1482.08337460 0 -103.34766225 0 -749.77156842 0 33633
0.17650000 0.17650100 7814.58008979 0 62.77196007 0 1787.35747940 0 -132.74277244 0 -651.26288448 0 33984
0.17750000 0.17750300 7665.01529895 0 67.87269064 0 1706.16991774 0 -38.55388789 0 -1075.29487149 0 34069
0.17850000 0.17849800 7798.59767499 0 -51.48389438 0 1720.32228505 0 199.46963152 0 -957.59065300 0 34536
