### header ###
fiducial parameters:
Omega_m = 0.31
Omega_nu = 0
Omega_de = 0.69
Omega_k = 0
H_0 = 100
w_de = -1
zeff = 0
beta = 0
fgrowth = 0
b_1 = 2
gamma = 0.55
Lx = 3500 Ly = 3500 Lz = 3500
nx = 700 ny = 700 nz = 700
xoffset = 1379.75464 yoffset = 22.6059522 zoffset = 368.141391
bins = 400 dk = 0.001
kx_ny = 0.628318531 ky_ny = 0.628318531 kz_ny = 0.628318531
############################
A(data) = 3.36958664 (not used)
A(ran) = 3.37382401 (used)
Ngal = 189208
weighted Ngal = 0
Nran = 9399747
weighted Nran = 0
SN(data) = 6654.16168
SN(ran) = 134.195142
SN(data+ran) = 6788.35682
############################
13 columns: k_central k_mean P_0(k) sigma^{lin}_{P_0(k)} P^img_1(k) sigma^{lin}_{P_1(k)} P_2(k) sigma^{lin}_{P_2(k)} P^img_3(k) sigma^{lin}_{P_3(k)} P_4(k) sigma^{lin}_{P_4(k)} N_modes
### header ###
0.00050000 0 0 0 0 0 0 0 0 0 0 0 0
0.00150000 0.00179520 39915.33231317 0 -37320.43587517 0 -58034.02255976 0 52767.47860086 0 -36696.00148698 0 3
0.00250000 0.00253879 70193.96724591 0 -35788.74157662 0 -24708.85764928 0 -47158.88212809 0 25428.23268334 0 6
0.00350000 0.00331552 71255.28388189 0 -5490.55286366 0 -36281.85619293 0 -25773.72346828 0 38938.41968597 0 7
0.00450000 0.00420575 80416.72347309 0 -2080.35362918 0 -37866.67732487 0 -41047.18896174 0 10515.92983611 0 24
0.00550000 0.00557378 89216.03548393 0 -20443.73786284 0 -55609.93055475 0 4693.43963019 0 -7973.07329418 0 45
0.00650000 0.00659388 117169.62280041 0 -15723.98991350 0 -88807.99034820 0 -6798.09407188 0 -24196.77708618 0 40
0.00750000 0.00754703 103941.70676012 0 2450.81069845 0 -75818.97869017 0 -51366.54951433 0 19163.81373502 0 57
0.00850000 0.00846663 93688.44974133 0 19982.34406980 0 -52911.99689710 0 -26249.75764130 0 -14999.18019293 0 75
0.00950000 0.00948925 85469.20733088 0 -2979.25077705 0 -54798.16585011 0 7910.15293390 0 20950.05100353 0 112
0.01050000 0.01054430 84903.33446258 0 -9368.36805266 0 -77222.90239988 0 21025.80387868 0 25832.50681211 0 105
0.01150000 0.01145670 86444.45627854 0 -6497.96628246 0 -60733.84172089 0 129.18693469 0 11581.31694136 0 144
0.01250000 0.01249090 99407.40362374 0 -5555.70255453 0 -92977.28219301 0 -9691.04424548 0 18316.66811211 0 169
0.01350000 0.01339930 88507.75164682 0 -3205.36700923 0 -72186.94442554 0 -12515.08481244 0 20265.16959198 0 180
0.01450000 0.01448870 88719.26077262 0 11459.09195100 0 -59432.84431887 0 -37539.37610292 0 16002.37895690 0 267
0.01550000 0.01550050 86135.67735550 0 2574.41099724 0 -21708.46705085 0 -20364.32489269 0 -1781.49023622 0 238
0.01650000 0.01653350 80097.85156083 0 1384.46975026 0 -21381.38765284 0 -4640.15752005 0 -1506.00708642 0 315
0.01750000 0.01747870 80213.86548090 0 -1266.58141790 0 -18830.85600263 0 -277.28325106 0 8515.82101685 0 297
0.01850000 0.01844180 78428.29368421 0 2410.18364403 0 -1078.50244565 0 -14529.57891414 0 -2394.46741795 0 388
0.01950000 0.01947590 78165.76505245 0 6756.44662734 0 10976.94652846 0 -9026.69263948 0 -4050.02820402 0 399
0.02050000 0.02045430 68673.47505628 0 5966.83104301 0 12004.77884085 0 -11693.33803054 0 -6751.56650069 0 462
0.02150000 0.02154770 64836.69729598 0 1903.03866357 0 23235.83578259 0 893.39591418 0 3033.17617661 0 571
0.02250000 0.02255340 66681.82882029 0 -2283.08961820 0 19992.54797099 0 7156.68356042 0 -4860.85015692 0 510
0.02350000 0.02348930 68757.21359324 0 -3785.85807511 0 16792.84856340 0 15675.29955889 0 -3702.38572688 0 555
0.02450000 0.02439640 68892.41528404 0 -2350.89010515 0 13831.83171413 0 1817.71408545 0 -12640.19351401 0 592
0.02550000 0.02547300 76892.49564279 0 -1940.66000362 0 2493.22343558 0 -4743.15037491 0 -2000.51919355 0 837
0.02650000 0.02652900 74273.30948347 0 2666.15737840 0 18399.96300119 0 -9112.58286864 0 -16685.59668891 0 723
0.02750000 0.02749970 75260.86965974 0 5269.97113875 0 13781.03403211 0 -14921.98546217 0 -21036.22960382 0 826
0.02850000 0.02848090 69163.04048957 0 3072.46119620 0 29757.57050011 0 -6727.99770717 0 -24539.49507188 0 831
0.02950000 0.02946900 65602.43353329 0 2988.20137299 0 31182.34566008 0 -2030.08832461 0 -22635.46929178 0 996
0.03050000 0.03053250 63533.59256653 0 -337.56723384 0 28273.90108435 0 7735.94350343 0 -26251.42132084 0 1041
0.03150000 0.03150510 64262.28420603 0 2302.09992977 0 32420.67779935 0 2104.45480015 0 -26149.93686876 0 1036
0.03250000 0.03246190 59413.65654815 0 3427.56804889 0 24836.40641419 0 -438.25090149 0 -10435.58520542 0 1059
0.03350000 0.03345080 53519.90540183 0 3272.62402753 0 30966.51096747 0 999.32904535 0 -15691.15997053 0 1302
0.03450000 0.03451200 53459.45837846 0 436.90775754 0 21991.84713287 0 5734.30409899 0 -14543.66473427 0 1339
0.03550000 0.03553350 49454.42716046 0 1262.72168136 0 22860.28785392 0 6759.95144558 0 -12530.16884028 0 1365
0.03650000 0.03647120 48234.95005600 0 756.11795131 0 17879.12039250 0 952.97006035 0 -6510.90970930 0 1308
0.03750000 0.03744890 46765.36646036 0 750.13092320 0 13075.96664211 0 3744.17735698 0 -5828.06907799 0 1579
0.03850000 0.03847530 46165.99817728 0 683.29869775 0 12446.87395120 0 -317.67739035 0 -8065.16350245 0 1662
0.03950000 0.03950240 42841.30098008 0 1316.00379150 0 14651.24934466 0 -73.50224947 0 -5222.63391018 0 1683
0.04050000 0.04050350 43332.64100489 0 456.74658152 0 12502.44084791 0 3084.28441215 0 77.12518895 0 1822
0.04150000 0.04152450 44195.53612746 0 -18.45963364 0 15104.21382803 0 2966.49590056 0 2239.00211033 0 1887
0.04250000 0.04250150 43501.33811047 0 -274.26422726 0 10734.32659522 0 1453.05771219 0 -118.57820481 0 1920
0.04350000 0.04349210 43327.20631838 0 1014.55393140 0 13622.31900378 0 1911.66761480 0 6530.19730080 0 2005
0.04450000 0.04448520 42223.74313401 0 559.74830934 0 13012.85773147 0 -1124.17044908 0 8021.44200408 0 2151
0.04550000 0.04548030 42157.97233610 0 594.65230614 0 14096.02402544 0 1118.15902034 0 9875.13593243 0 2274
0.04650000 0.04648670 42212.54102509 0 -138.83183956 0 13089.94155026 0 1769.56719950 0 7821.42335831 0 2311
0.04750000 0.04749250 41490.83683967 0 -56.76286048 0 11334.31598533 0 1679.45122429 0 5962.45002021 0 2568
0.04850000 0.04851840 40280.89816459 0 1247.63765351 0 10482.62297167 0 721.38143159 0 4182.56800755 0 2493
0.04950000 0.04949480 39456.26767148 0 918.51747527 0 11787.94594051 0 -4038.53772398 0 766.54367644 0 2644
0.05050000 0.05050630 38031.04886364 0 1406.28613466 0 12671.58160137 0 -1055.33958994 0 -988.14911883 0 2829
0.05150000 0.05149060 35257.36233083 0 1804.63756425 0 13419.01736372 0 -1096.61547938 0 -3944.60637703 0 2784
0.05250000 0.05249300 34954.68356611 0 730.38415615 0 12924.57180376 0 481.88256117 0 -2700.14080585 0 3055
0.05350000 0.05348950 33625.40361187 0 -205.19712562 0 15233.98083232 0 3118.20129242 0 -1647.38657392 0 3009
0.05450000 0.05448610 33061.74898296 0 637.96675758 0 11655.51704895 0 895.61304445 0 545.79891094 0 3336
0.05550000 0.05550870 33178.65019879 0 -155.00391383 0 12091.73382492 0 1197.98236477 0 856.74949034 0 3349
0.05650000 0.05647670 33436.52052784 0 -355.81558018 0 11119.14676453 0 1841.12760221 0 509.39094784 0 3324
0.05750000 0.05747970 33708.36576504 0 -99.18014500 0 11622.24345810 0 -234.83502210 0 384.33215665 0 3639
0.05850000 0.05849280 34306.40310449 0 -59.78277158 0 10661.37979289 0 217.29762149 0 667.06451278 0 3846
0.05950000 0.05951020 33855.32412460 0 -231.44998880 0 10968.31757723 0 162.99623035 0 -1415.05927144 0 3787
0.06050000 0.06049470 34634.59162218 0 -120.57572938 0 9667.32017521 0 -1303.88111323 0 -1458.12638919 0 3930
0.06150000 0.06148310 34056.29661330 0 689.37334632 0 11439.01688452 0 -1286.03537734 0 -5684.60444546 0 4083
0.06250000 0.06249100 33518.70629722 0 1493.72913140 0 13234.68167044 0 -3645.41024815 0 -6074.04964391 0 4303
0.06350000 0.06350600 31966.82602023 0 1186.60279670 0 12921.24444468 0 -372.42464761 0 -5160.00192101 0 4470
0.06450000 0.06451750 30649.63547066 0 475.27331691 0 15060.07086417 0 1786.76964596 0 -5988.53651544 0 4479
0.06550000 0.06550280 30814.00700943 0 42.56823571 0 14611.65377156 0 1997.02546651 0 -4205.09422856 0 4636
0.06650000 0.06648880 30168.83208295 0 614.13843006 0 11893.31231152 0 1244.48775358 0 -4195.20088088 0 4653
0.06750000 0.06749660 29134.02340768 0 303.45403938 0 12908.26774425 0 882.93691546 0 -1806.29015259 0 5220
0.06850000 0.06852730 29061.81971555 0 408.79711888 0 12007.77346402 0 146.96834164 0 -468.62747170 0 5029
0.06950000 0.06949320 28579.79629618 0 313.38953361 0 10964.05855761 0 1192.49222228 0 -3484.87626353 0 5040
0.07050000 0.07048030 27773.35536607 0 314.00398592 0 12217.72982225 0 -550.17438814 0 -263.08319161 0 5475
0.07150000 0.07148790 27239.64696893 0 575.16396398 0 11114.04481394 0 645.18934503 0 -2969.00251107 0 5509
0.07250000 0.07249820 26753.96345456 0 55.75156514 0 9669.82678572 0 1518.60668615 0 -1096.29272555 0 5916
0.07350000 0.07351270 26701.72391694 0 -202.86797426 0 8584.73062348 0 1846.77302145 0 -2043.39776095 0 5721
0.07450000 0.07449140 26764.94373954 0 -126.22003951 0 8018.93539356 0 1169.50017101 0 106.23869365 0 6028
0.07550000 0.07549160 26691.63092771 0 233.69484706 0 7970.81069001 0 832.69490240 0 1002.83053623 0 6183
0.07650000 0.07648840 26612.21795757 0 72.42185598 0 6995.30664482 0 7.95198893 0 -276.26729742 0 6330
0.07750000 0.07749960 26967.80173173 0 -234.73852869 0 6965.54896341 0 612.91950751 0 750.80304973 0 6583
0.07850000 0.07848650 26815.96324550 0 291.45114605 0 8031.51281090 0 -695.84616886 0 987.68550680 0 6549
0.07950000 0.07947320 26514.28268851 0 617.74528731 0 7954.53990408 0 -562.25381073 0 1670.31207801 0 6828
0.08050000 0.08048110 26310.53740057 0 179.65853553 0 7950.56925558 0 668.45313063 0 1373.13454698 0 7147
0.08150000 0.08149960 25697.63785721 0 241.72931013 0 10010.12689048 0 460.99229172 0 2824.82804194 0 7386
0.08250000 0.08250610 25483.13410824 0 595.49301887 0 8122.46062588 0 615.48046489 0 1342.63375537 0 7227
0.08350000 0.08350160 24937.66904232 0 504.60509636 0 9004.90952867 0 148.51667274 0 3131.03380729 0 7798
0.08450000 0.08449610 23517.21944916 0 810.51361762 0 9462.49904116 0 -383.00564949 0 3174.36711376 0 7371
0.08550000 0.08548940 23086.99191954 0 314.10602493 0 8185.69153968 0 59.91564412 0 1690.48696526 0 8256
0.08650000 0.08650700 22584.00613794 0 253.75216762 0 9531.58610695 0 673.12363367 0 1779.79328308 0 8037
0.08750000 0.08749060 22143.46379516 0 176.86577213 0 7939.18968751 0 353.21802185 0 869.58200521 0 8155
0.08850000 0.08849210 21883.81887460 0 241.86018625 0 7825.03908852 0 1651.23521926 0 2990.90762504 0 8718
0.08950000 0.08949900 21804.07316854 0 -59.89423811 0 6828.38413075 0 279.68227696 0 2658.95919158 0 8571
0.09050000 0.09049190 21300.08917921 0 148.81280769 0 6471.15885944 0 636.85320141 0 1699.64829394 0 8932
0.09150000 0.09150830 21312.84405570 0 383.63784772 0 6026.34640583 0 -138.69319960 0 1270.00859775 0 9285
0.09250000 0.09250820 20527.92004768 0 479.87838188 0 6331.52068986 0 -353.44206403 0 1330.43343873 0 9204
0.09350000 0.09350330 20271.15883833 0 130.64320885 0 6282.81924406 0 112.45919146 0 2345.68833378 0 9349
0.09450000 0.09448040 20125.64233437 0 249.24026870 0 5963.74769026 0 689.43989350 0 -38.85201926 0 9564
0.09550000 0.09549270 19734.89946588 0 339.92854967 0 5770.73868096 0 29.35296364 0 1244.57648315 0 10155
0.09650000 0.09649430 18855.70028380 0 628.45383796 0 5733.93808949 0 -101.07496508 0 -118.82221115 0 9913
0.09750000 0.09749140 18166.16056952 0 584.86099747 0 6358.00646817 0 -763.24848183 0 399.72895625 0 10476
0.09850000 0.09850240 17401.42253994 0 374.29905989 0 6909.69369558 0 -225.12024270 0 -475.71252831 0 10575
0.09950000 0.09950330 17204.55379411 0 227.79322116 0 6429.89960679 0 259.93329168 0 182.35258727 0 10882
0.10050000 0.10051200 16758.46585286 0 67.57611203 0 6406.81882594 0 6.88506015 0 -225.43412357 0 10875
0.10150000 0.10150300 16899.54587804 0 30.97815672 0 5151.98298562 0 1219.03345658 0 -1532.27104079 0 11118
0.10250000 0.10250800 16693.02779086 0 289.43143908 0 5952.15738945 0 -353.79365497 0 -444.85903664 0 11575
0.10350000 0.10349800 16129.81680983 0 571.17556956 0 5738.30802109 0 -548.17575445 0 -553.03813519 0 11364
0.10450000 0.10450100 15791.31347897 0 190.57116420 0 6237.14569503 0 569.10262485 0 0.94897945 0 12093
0.10550000 0.10551000 15424.19485998 0 -6.43907203 0 5987.77122285 0 819.67494630 0 783.31800271 0 12067
0.10650000 0.10649700 15665.65021755 0 -40.68373044 0 5783.10536556 0 393.04761921 0 1181.99994997 0 12054
0.10750000 0.10749900 15572.15142727 0 66.31404473 0 5230.61957198 0 508.81420560 0 1080.77725014 0 12807
0.10850000 0.10850100 15667.53572103 0 153.28699654 0 5763.92868604 0 -330.00858312 0 1494.32805603 0 12736
0.10950000 0.10950300 15126.06348602 0 135.12959802 0 4968.66768246 0 170.26207347 0 1199.34658200 0 12933
0.11050000 0.11050200 15409.55448001 0 165.14792256 0 6209.27351710 0 -21.01038711 0 940.37600621 0 13428
0.11150000 0.11150900 14932.74392321 0 60.32047281 0 4556.68517181 0 357.50144211 0 1014.79571950 0 13453
0.11250000 0.11250000 14782.45820456 0 278.50993745 0 6315.10571838 0 -10.74550652 0 972.25876096 0 13668
0.11350000 0.11349100 14676.53727371 0 134.31106768 0 4260.81640202 0 102.04932674 0 1232.24307214 0 13791
0.11450000 0.11448600 14417.11417709 0 -1.38605579 0 5621.45117004 0 524.08456556 0 563.94410915 0 14205
0.11550000 0.11549300 14599.56436688 0 179.85484971 0 4625.35077212 0 43.15562550 0 927.01222301 0 14776
0.11650000 0.11649800 14142.05249277 0 78.60264730 0 4357.37636265 0 205.90807134 0 799.93705221 0 14553
0.11750000 0.11747300 14032.69329086 0 37.78670979 0 4227.66481434 0 94.49810712 0 638.94389203 0 14568
0.11850000 0.11849100 14116.09909191 0 68.45398027 0 3974.82988871 0 441.88326849 0 646.43377733 0 16015
0.11950000 0.11950300 13826.61885156 0 35.78718881 0 4184.67533497 0 260.60763645 0 -20.70504646 0 15270
0.12050000 0.12050700 13777.26302514 0 187.80058321 0 3690.90633804 0 -127.98132159 0 330.10507653 0 15999
0.12150000 0.12150000 13541.68600196 0 302.16413318 0 3913.51775198 0 -378.35511061 0 -517.01170926 0 15670
0.12250000 0.12250700 13208.39553367 0 290.33758987 0 4556.62971583 0 -547.68552354 0 550.65685521 0 16887
0.12350000 0.12352200 13035.81650915 0 -22.73407003 0 4133.17890754 0 296.16934123 0 -158.13163137 0 16407
0.12450000 0.12449800 13288.91762351 0 -158.71724657 0 4440.22760386 0 846.23059916 0 -189.98887636 0 16306
0.12550000 0.12549900 13287.25394397 0 -82.63263371 0 3506.16027047 0 104.82146050 0 -223.27134017 0 17523
0.12650000 0.12650100 13359.67946004 0 187.61314198 0 3738.75376167 0 304.09400145 0 760.65646910 0 17154
0.12750000 0.12750600 13124.87882065 0 142.17583544 0 3776.36401052 0 4.16846001 0 789.89840986 0 18007
0.12850000 0.12850300 12905.60585698 0 137.51309624 0 3368.46306036 0 342.85108006 0 374.41884482 0 17496
0.12950000 0.12949900 12829.40933395 0 214.15326716 0 4120.44621345 0 -111.88134010 0 1200.51115768 0 18405
0.13050000 0.13049000 12284.49882788 0 265.02636932 0 3213.34157984 0 9.41167918 0 292.55804750 0 18100
0.13150000 0.13148800 12197.43293184 0 215.32449755 0 4208.27740208 0 146.55796735 0 1866.74826716 0 19059
0.13250000 0.13249300 11798.14984170 0 185.11762266 0 3687.40151980 0 -190.30386636 0 655.26015186 0 18957
0.13350000 0.13349100 11957.19760594 0 -9.62447488 0 4118.20579166 0 188.16548359 0 1197.31689295 0 19468
0.13450000 0.13450700 11696.33265372 0 125.40261830 0 3825.10982111 0 243.12236446 0 879.79921584 0 19953
0.13550000 0.13551000 11632.44735930 0 -48.83210010 0 3623.47186059 0 335.31572086 0 1649.83772844 0 19956
0.13650000 0.13649900 12041.71252669 0 -247.33812842 0 3151.26415052 0 654.62129892 0 780.55629467 0 19723
0.13750000 0.13749600 11877.89554776 0 69.34338335 0 3285.51199838 0 92.00857705 0 839.97405496 0 20946
0.13850000 0.13851100 11817.78126030 0 349.77753256 0 2822.93144726 0 -594.51366618 0 1230.00265036 0 20955
0.13950000 0.13949800 11413.28530760 0 170.60700970 0 3055.08129058 0 -95.08982248 0 842.70359853 0 20506
0.14050000 0.14048300 11375.24250207 0 122.83389708 0 3566.69602341 0 75.64662149 0 616.66944120 0 21447
0.14150000 0.14148400 11151.20032371 0 46.81605323 0 3002.00991319 0 267.66607419 0 495.35503810 0 21771
0.14250000 0.14249400 11020.37965571 0 88.64483884 0 3209.14910739 0 278.23487576 0 690.48135689 0 22470
0.14350000 0.14350900 10901.63730118 0 276.29391630 0 3148.32498333 0 -290.77680127 0 353.07050893 0 22519
0.14450000 0.14449900 10501.42255050 0 258.33948668 0 3124.75618981 0 -284.22523123 0 860.49498755 0 22218
0.14550000 0.14550500 10321.94480148 0 67.32145815 0 3490.18894686 0 253.86973431 0 469.95952445 0 23559
0.14650000 0.14650700 10401.75705472 0 30.68257633 0 3352.23663922 0 73.20844366 0 477.54368492 0 23044
0.14750000 0.14750500 10352.13503958 0 -100.30811973 0 3015.33044072 0 234.60765257 0 575.19834669 0 23649
0.14850000 0.14849900 10440.89788875 0 -92.67404887 0 2835.40904383 0 356.14055225 0 722.32307421 0 23640
0.14950000 0.14949500 10519.52338392 0 31.38531456 0 2616.56863684 0 320.44575311 0 484.76294502 0 24457
0.15050000 0.15050000 10445.57837387 0 95.72368438 0 2567.67864070 0 -63.65504117 0 456.37391731 0 24591
0.15150000 0.15149900 10331.67178121 0 232.61234624 0 2809.88819965 0 -273.96698318 0 780.67053400 0 25020
0.15250000 0.15250500 10009.50578345 0 164.94606277 0 2784.99955370 0 -301.99221963 0 300.13666238 0 25297
0.15350000 0.15350100 9917.92577025 0 112.63886885 0 2743.55175070 0 185.78974920 0 76.47746305 0 25452
0.15450000 0.15450400 9699.24064002 0 88.05611811 0 2814.56868476 0 -75.27440092 0 204.08356945 0 26061
0.15550000 0.15549900 9824.47134477 0 120.30732242 0 2822.18833707 0 158.20594239 0 -17.09985289 0 26128
0.15650000 0.15649500 9641.35568315 0 63.84536611 0 2789.85749796 0 -70.87929231 0 -281.78849527 0 26331
0.15750000 0.15749700 9411.75681513 0 94.55788867 0 2668.48652976 0 -148.04529686 0 -390.60866500 0 27345
0.15850000 0.15849900 9383.35225974 0 80.70232179 0 2831.68240165 0 139.46625603 0 -129.34553881 0 26980
0.15950000 0.15949700 9480.28932107 0 -84.53011569 0 2521.37289344 0 293.45643445 0 -224.30614884 0 27777
0.16050000 0.16050000 9424.00149656 0 65.32160443 0 2433.75243755 0 254.83799580 0 52.58380838 0 28224
0.16150000 0.16150500 9283.03238334 0 117.16629544 0 2660.57850633 0 59.55251833 0 148.63978502 0 28075
0.16250000 0.16249700 9327.30844156 0 77.56772771 0 2174.58443846 0 52.86552478 0 355.80559810 0 28590
0.16350000 0.16349900 9149.87147278 0 35.37381990 0 2520.46341529 0 320.26607572 0 688.12780490 0 29163
0.16450000 0.16449100 9087.27275721 0 168.32333225 0 2274.67139972 0 -121.79132457 0 444.64941301 0 28996
0.16550000 0.16550500 8889.40580365 0 191.08801398 0 2525.97574017 0 -255.25835216 0 458.67534067 0 30777
0.16650000 0.16650700 8795.35245353 0 110.07280952 0 2739.64764938 0 -241.04831063 0 -37.77084938 0 29211
0.16750000 0.16749900 8596.19892113 0 44.44985727 0 2700.16298824 0 -34.11796367 0 107.16735957 0 30922
0.16850000 0.16850800 8624.71438848 0 56.05823674 0 2532.94101185 0 73.40342691 0 -46.78677247 0 30867
0.16950000 0.16949900 8767.19190448 0 -41.56414965 0 2520.07522339 0 356.29028341 0 151.71648305 0 30852
0.17050000 0.17049200 8567.47272103 0 19.63175133 0 2420.07699171 0 266.75659604 0 -142.90896356 0 31257
0.17150000 0.17149500 8535.95153931 0 204.54718148 0 2294.42482148 0 93.66981653 0 374.40553538 0 32608
0.17250000 0.17250900 8285.96705129 0 155.62945734 0 2441.61609618 0 -8.63023780 0 813.08344796 0 32361
0.17350000 0.17350400 8063.61073487 0 128.52479024 0 2186.17473927 0 195.89604786 0 698.64780520 0 32508
0.17450000 0.17449800 8020.01123967 0 52.58902124 0 2518.26735829 0 -13.19741525 0 838.16286250 0 32791
0.17550000 0.17549800 7975.50226632 0 31.70851204 0 2170.97979945 0 -31.46040197 0 343.33576537 0 33633
0.17650000 0.17650100 7973.72767480 0 10.45105743 0 2421.64085048 0 255.84840384 0 966.72869016 0 33984
0.17750000 0.17750300 7995.63278878 0 36.11349182 0 1921.36132093 0 -78.22255198 0 566.65479768 0 34069
0.17850000 0.17849800 8080.20316551 0 -89.24243253 0 2000.59683193 0 280.79361490 0 581.06226252 0 34536
