### header ###
fiducial parameters:
Omega_m = 0.31
Omega_nu = 0
Omega_de = 0.69
Omega_k = 0
H_0 = 100
w_de = -1
zeff = 0
beta = 0
fgrowth = 0
b_1 = 2
gamma = 0.55
Lx = 3500 Ly = 3500 Lz = 3500
nx = 700 ny = 700 nz = 700
xoffset = 1379.75464 yoffset = 22.6059522 zoffset = 368.141391
bins = 400 dk = 0.001
kx_ny = 0.628318531 ky_ny = 0.628318531 kz_ny = 0.628318531
############################
A(data) = 3.33897794 (not used)
A(ran) = 3.33951997 (used)
Ngal = 187615
weighted Ngal = 0
Nran = 9399747
weighted Nran = 0
SN(data) = 6588.75203
SN(ran) = 132.830685
SN(data+ran) = 6721.58272
############################
13 columns: k_central k_mean P_0(k) sigma^{lin}_{P_0(k)} P^img_1(k) sigma^{lin}_{P_1(k)} P_2(k) sigma^{lin}_{P_2(k)} P^img_3(k) sigma^{lin}_{P_3(k)} P_4(k) sigma^{lin}_{P_4(k)} N_modes
### header ###
0.00050000 0 0 0 0 0 0 0 0 0 0 0 0
0.00150000 0.00179520 68768.41570216 0 -65692.16131660 0 -88016.30071004 0 96269.14944724 0 165816.72173501 0 3
0.00250000 0.00253879 103246.95418328 0 -54712.98545755 0 -32533.47527231 0 -100268.30233086 0 -73895.21057950 0 6
0.00350000 0.00331552 137229.16160097 0 -22179.95383312 0 -78788.64667306 0 -40262.26495371 0 38381.30886326 0 7
0.00450000 0.00420575 143348.17495730 0 11693.33803054 0 -25818.42099198 0 -96388.26890247 0 -13300.34155637 0 24
0.00550000 0.00557378 99219.40783547 0 36738.03712341 0 31153.50854802 0 -54667.17881416 0 24840.39924509 0 45
0.00650000 0.00659388 66140.80023315 0 14108.55707799 0 41640.34617453 0 52779.56800554 0 -13290.80312699 0 40
0.00750000 0.00754703 54183.38080327 0 -3087.78923039 0 49011.77749026 0 24918.81400751 0 22632.03102073 0 57
0.00850000 0.00846663 72372.72197442 0 -12945.97781387 0 5989.59017915 0 47112.52092484 0 -18658.27697812 0 75
0.00950000 0.00948925 72280.22139187 0 -8539.13471283 0 8002.32078054 0 7103.54563584 0 5115.45967407 0 112
0.01050000 0.01054430 86756.56256066 0 -4113.62512732 0 -11973.27984151 0 -17644.20884114 0 4605.56407676 0 105
0.01150000 0.01145670 85553.05677981 0 2743.91776020 0 1786.21508612 0 -10747.13692769 0 -21292.21442938 0 144
0.01250000 0.01249090 90198.60462157 0 663.69500714 0 3789.45162292 0 -18952.30460921 0 -20544.33501916 0 169
0.01350000 0.01339930 83939.06579990 0 -738.75357337 0 27239.31423302 0 -14379.73684337 0 -19407.26550803 0 180
0.01450000 0.01448870 94353.92155822 0 -1489.73630049 0 12183.12528778 0 -6985.35784116 0 -25746.88277166 0 267
0.01550000 0.01550050 84050.97597711 0 2342.36097469 0 21350.88686124 0 9814.04561963 0 -21598.44237712 0 238
0.01650000 0.01653350 90014.71257617 0 4164.77772765 0 17821.55708034 0 -14923.98187762 0 -13795.23076420 0 315
0.01750000 0.01747870 90200.60103702 0 3449.32897731 0 31563.10645131 0 7138.76018615 0 -16415.96969109 0 297
0.01850000 0.01844180 82431.43939873 0 2754.12166139 0 31885.63845857 0 -7430.42539230 0 -29858.61130431 0 388
0.01950000 0.01947590 81034.94679098 0 1878.57148311 0 34365.29736028 0 797.59680966 0 -8393.80675922 0 399
0.02050000 0.02045430 80876.56449856 0 626.36425645 0 42981.71553345 0 4948.81443992 0 -2477.52939190 0 462
0.02150000 0.02154770 84659.77177760 0 -471.48900051 0 36945.88615422 0 4907.95447036 0 -7406.73459561 0 571
0.02250000 0.02255340 84805.39919353 0 4072.16623313 0 43366.02550770 0 4002.95716417 0 -1030.90235570 0 510
0.02350000 0.02348930 80301.15320089 0 4637.02980251 0 55855.60056716 0 1227.21875993 0 6124.73641396 0 555
0.02450000 0.02439640 74862.36295339 0 2734.96716427 0 45207.60784899 0 1139.69812481 0 2271.65459415 0 592
0.02550000 0.02547300 75446.86903256 0 -1101.02866665 0 53997.93599030 0 10403.65364940 0 12579.52466670 0 837
0.02650000 0.02652900 77005.62585166 0 1287.06685866 0 47640.46189958 0 7958.52164379 0 11484.60170398 0 723
0.02750000 0.02749970 74313.34870445 0 2651.73882237 0 43537.71723646 0 1913.65293905 0 6059.60890548 0 826
0.02850000 0.02848090 70703.27500977 0 4257.12303344 0 48728.50832020 0 -1636.33974176 0 6119.43482182 0 831
0.02950000 0.02946900 64147.04666974 0 2936.64948957 0 38677.33290981 0 5239.50362073 0 7689.64884737 0 996
0.03050000 0.03053250 63681.10548595 0 20.49420281 0 43045.60082787 0 9090.22301560 0 5350.29358705 0 1041
0.03150000 0.03150510 61366.37268285 0 -466.94493712 0 24493.68842849 0 3899.34320228 0 -4836.39406765 0 1036
0.03250000 0.03246190 60884.57108742 0 832.61282754 0 28829.34822751 0 8787.65516285 0 1265.76066932 0 1059
0.03350000 0.03345080 59246.84494605 0 1071.29649499 0 14669.54981963 0 605.08579511 0 -4374.03534047 0 1302
0.03450000 0.03451200 57215.15948907 0 743.53277013 0 16861.72489644 0 6423.56653334 0 5675.83130868 0 1339
0.03550000 0.03553350 52854.10084903 0 1751.22235975 0 9222.94027828 0 2066.19017068 0 -7924.71567549 0 1365
0.03650000 0.03647120 51781.13845626 0 1812.00211902 0 7371.27603897 0 1103.46318438 0 1436.55401113 0 1308
0.03750000 0.03744890 49936.67240377 0 1056.31228791 0 6893.55600402 0 -1226.86384162 0 -7465.95049612 0 1579
0.03850000 0.03847530 47694.14329281 0 1078.85292747 0 5004.39242783 0 21.27069751 0 -4412.67707064 0 1662
0.03950000 0.03950240 45127.97305490 0 652.11357929 0 1116.60625276 0 839.51377029 0 -4586.22102929 0 1683
0.04050000 0.04050350 43069.55781328 0 1457.61619413 0 4937.36832467 0 1269.28766995 0 -8397.02320633 0 1822
0.04150000 0.04152450 44821.41237125 0 317.03631917 0 2379.97122354 0 1378.33631835 0 -265.36797818 0 1887
0.04250000 0.04250150 40447.26611881 0 537.38956542 0 3075.65546092 0 -86.20255727 0 -7761.25361487 0 1920
0.04350000 0.04349210 41426.50789737 0 487.34275743 0 2384.10824001 0 -396.52360034 0 882.30249899 0 2005
0.04450000 0.04448520 41338.33288163 0 358.33328188 0 2302.69885441 0 -109.10754265 0 -4037.30660112 0 2151
0.04550000 0.04548030 40122.51587216 0 1671.69847763 0 5012.87719349 0 -3257.89491798 0 1308.79451348 0 2274
0.04650000 0.04648670 38149.39193508 0 1562.48346128 0 10465.02124212 0 -2816.36545867 0 -1345.46201059 0 2311
0.04750000 0.04749250 36768.53791502 0 1090.35006223 0 9692.66356023 0 -1225.58835398 0 -4622.69997605 0 2568
0.04850000 0.04851840 35836.76645940 0 1326.77334373 0 12264.20193747 0 -3529.34087209 0 -7745.44865922 0 2493
0.04950000 0.04949480 34312.17052690 0 1363.00828416 0 14243.09329697 0 -1467.72027455 0 -6251.40897431 0 2644
0.05050000 0.05050630 34270.57853834 0 -522.97544586 0 15108.53939484 0 2560.10335318 0 -4058.28005455 0 2829
0.05150000 0.05149060 34809.61071003 0 -1077.94455844 0 12688.10748483 0 2931.66954214 0 -5817.70990004 0 2784
0.05250000 0.05249300 36336.64670586 0 -585.56528848 0 9371.39594943 0 3555.77119442 0 -5325.66003863 0 3055
0.05350000 0.05348950 35978.62286837 0 646.48701508 0 9583.18235516 0 -1600.78136434 0 -2387.79051739 0 3009
0.05450000 0.05448610 35728.73820113 0 1109.04538380 0 9847.23048090 0 -73.87968290 0 -144.51496888 0 3336
0.05550000 0.05550870 34388.25613796 0 439.15261581 0 12173.58685840 0 792.98508997 0 -1405.04392060 0 3349
0.05650000 0.05647670 33715.24230715 0 166.77721939 0 11444.34065905 0 1308.55050715 0 621.49189363 0 3324
0.05750000 0.05747970 33252.73939441 0 771.21417948 0 12694.98402694 0 331.92625107 0 1760.92715708 0 3639
0.05850000 0.05849280 31748.55126429 0 927.26066582 0 12375.66846680 0 -121.55730031 0 1762.51319824 0 3846
0.05950000 0.05951020 32155.82001623 0 397.41533257 0 11358.93844255 0 2676.87147465 0 6665.54317716 0 3787
0.06050000 0.06049470 30715.62809250 0 -25.29258734 0 13282.70655322 0 1417.48824357 0 5107.52946825 0 3930
0.06150000 0.06148310 31171.69811101 0 417.29741222 0 9654.57638991 0 161.08743536 0 3747.18307135 0 4083
0.06250000 0.06249100 30893.53089155 0 56.93433038 0 11655.18431304 0 69.65072042 0 3980.58621993 0 4303
0.06350000 0.06350600 30206.76397651 0 656.25725047 0 9987.47866631 0 -1204.57053576 0 3798.22475971 0 4470
0.06450000 0.06451750 29800.04978442 0 452.23024613 0 11705.98199506 0 -378.63128142 0 1114.99802920 0 4479
0.06550000 0.06550280 29862.60413521 0 444.87789167 0 11913.05464209 0 -932.23617677 0 -232.19198987 0 4636
0.06650000 0.06648880 28136.70297810 0 294.06534117 0 11108.16647955 0 331.00679084 0 -1999.56535061 0 4653
0.06750000 0.06749660 28561.27399728 0 490.62353348 0 13035.59468522 0 -497.34147147 0 -1723.78273850 0 5220
0.06850000 0.06852730 28419.08485240 0 -6.42229105 0 11927.91684600 0 -348.16819988 0 -2370.15551424 0 5029
0.06950000 0.06949320 28341.11373785 0 49.96085121 0 13463.38215151 0 941.95872002 0 -3658.91932604 0 5040
0.07050000 0.07048030 28454.02212279 0 -62.51763893 0 10955.45178877 0 13.07707576 0 -2116.91021433 0 5475
0.07150000 0.07148790 28471.21347806 0 -86.79804364 0 11741.25200136 0 1327.81591625 0 -2819.03843713 0 5509
0.07250000 0.07249820 29046.51386376 0 -328.68429420 0 10967.40809908 0 1007.92361387 0 -1692.35028634 0 5916
0.07350000 0.07351270 28777.33051383 0 180.75989138 0 8929.77776054 0 1864.30820383 0 -3648.29395936 0 5721
0.07450000 0.07449140 28032.22390285 0 810.40936037 0 10283.35852730 0 -373.91530448 0 -672.42045178 0 6028
0.07550000 0.07549160 26607.67056682 0 833.70198308 0 9074.68424867 0 -275.18590572 0 -1790.55174412 0 6183
0.07650000 0.07648840 26678.09966744 0 805.33181041 0 10681.94287203 0 476.93810557 0 -33.75572518 0 6330
0.07750000 0.07749960 25228.70205024 0 278.73508875 0 8708.28655749 0 857.70333328 0 -605.52833387 0 6583
0.07850000 0.07848650 24527.40566721 0 596.72857821 0 9504.95614308 0 713.91705604 0 243.69356111 0 6549
0.07950000 0.07947320 23823.89104478 0 717.89214103 0 8827.92729897 0 -286.88711850 0 881.99083636 0 6828
0.08050000 0.08048110 22970.97799946 0 218.48992516 0 9274.98017436 0 914.79305133 0 409.92065713 0 7147
0.08150000 0.08149960 23061.70399050 0 -125.80190139 0 8962.48570034 0 1557.37041948 0 1383.09444184 0 7386
0.08250000 0.08250610 22775.21837333 0 -232.42712325 0 7831.92672182 0 353.83691064 0 2082.99333406 0 7227
0.08350000 0.08350160 23214.98433232 0 535.57282736 0 8531.99198200 0 -319.20575729 0 1645.61198240 0 7798
0.08450000 0.08449610 22487.95637237 0 342.64811116 0 7489.68565759 0 -71.95524932 0 2435.27193153 0 7371
0.08550000 0.08548940 22591.76997580 0 108.59213473 0 8702.50804388 0 602.08340809 0 1585.99679881 0 8256
0.08650000 0.08650700 21842.33779801 0 505.11418230 0 9161.71687113 0 -1023.64538554 0 2470.27574910 0 8037
0.08750000 0.08749060 21824.14823502 0 344.75876594 0 8498.67402636 0 304.02301779 0 813.21321496 0 8155
0.08850000 0.08849210 21258.27536672 0 243.53939347 0 9683.61314352 0 -309.34124672 0 896.19422317 0 8718
0.08950000 0.08949900 21110.65153534 0 200.17170428 0 8635.67249107 0 59.54553088 0 -80.49070176 0 8571
0.09050000 0.09049190 20671.88378407 0 291.07404535 0 9320.62044980 0 582.27009387 0 42.93235971 0 8932
0.09150000 0.09150830 20203.39162497 0 181.74035319 0 7601.83984113 0 451.63021237 0 -377.66191081 0 9285
0.09250000 0.09250820 20053.54955420 0 4.28713581 0 7902.44455202 0 534.95837504 0 -927.22517399 0 9204
0.09350000 0.09350330 20021.71781896 0 229.36484377 0 7188.16037736 0 367.42362690 0 -846.26830923 0 9349
0.09450000 0.09448040 19454.07035915 0 403.25262952 0 6896.26225607 0 -7.76434806 0 -1305.28969525 0 9564
0.09550000 0.09549270 19224.70440626 0 112.37046188 0 6201.94223592 0 -217.08910699 0 -1012.79708581 0 10155
0.09650000 0.09649430 19227.92085338 0 -183.80553407 0 6234.62799332 0 982.30294892 0 -2326.88875495 0 9913
0.09750000 0.09749140 19106.80498270 0 240.33292843 0 6182.90974195 0 -11.91649291 0 -1473.84261527 0 10476
0.09850000 0.09850240 18673.69374187 0 293.05382401 0 5717.53420920 0 -117.91162388 0 -2717.46525548 0 10575
0.09950000 0.09950330 18285.50184869 0 386.28198907 0 5877.52472518 0 370.90626274 0 -1140.33032303 0 10882
0.10050000 0.10051200 17569.45417371 0 364.86266953 0 5517.43792506 0 -181.02497099 0 -2708.04882927 0 10875
0.10150000 0.10150300 17318.23856283 0 515.38573979 0 6013.09242548 0 152.58492378 0 -1602.45613508 0 11118
0.10250000 0.10250800 16641.12098914 0 315.66877458 0 5967.08614054 0 134.49961803 0 -2025.08619479 0 11575
0.10350000 0.10349800 15886.25412485 0 382.72171485 0 5221.38060492 0 113.56498379 0 -2104.68771529 0 11364
0.10450000 0.10450100 15764.69460630 0 75.37965638 0 5856.42926859 0 523.08635783 0 -2020.53880404 0 12093
0.10550000 0.10551000 15490.29839380 0 245.38607776 0 4988.52092499 0 282.80112155 0 -1563.02692993 0 12067
0.10650000 0.10649700 15365.52242813 0 120.83637251 0 5181.51884309 0 250.23182171 0 -1132.47775560 0 12054
0.10750000 0.10749900 15233.75900838 0 -20.88372565 0 4217.15035964 0 260.00760270 0 -1672.43049663 0 12807
0.10850000 0.10850100 15223.66601916 0 -138.43366559 0 4499.06640367 0 936.15691489 0 -801.05615399 0 12736
0.10950000 0.10950300 15222.88963537 0 23.14998992 0 3639.59846095 0 432.21507211 0 -699.57059279 0 12933
0.11050000 0.11050200 15246.51388487 0 234.25606162 0 3509.89800384 0 443.34397913 0 -152.90102289 0 13428
0.11150000 0.11150900 14901.24492388 0 309.11831367 0 3511.63932176 0 61.49048318 0 962.97986559 0 13453
0.11250000 0.11250000 14616.31207428 0 -34.76380407 0 3325.57340176 0 375.57232930 0 626.26665392 0 13668
0.11350000 0.11349100 14698.16510775 0 -110.40011074 0 3419.49365752 0 472.35633211 0 718.25038669 0 13791
0.11450000 0.11448600 14689.95762201 0 204.28210187 0 3206.33194337 0 -34.45935071 0 556.00170301 0 14205
0.11550000 0.11549300 14347.23963631 0 413.62622603 0 3526.27970173 0 -752.07521002 0 572.56640566 0 14776
0.11650000 0.11649800 13952.83667283 0 406.33043668 0 4011.29774428 0 -675.53707812 0 -163.49311597 0 14553
0.11750000 0.11747300 13497.65395008 0 273.93481871 0 4416.03770331 0 -287.59362775 0 -638.84074390 0 14568
0.11850000 0.11849100 13296.23781350 0 222.97187785 0 4700.98164411 0 -309.93795312 0 -651.04549702 0 16015
0.11950000 0.11950300 12866.56484372 0 251.28992190 0 4670.65831165 0 69.60801931 0 -673.59279130 0 15270
0.12050000 0.12050700 12979.47322866 0 -104.29085764 0 4757.00327990 0 580.20491299 0 -653.95915446 0 15999
0.12150000 0.12150000 12929.89557830 0 -57.93409088 0 4585.95484056 0 338.04082795 0 -556.49526128 0 15670
0.12250000 0.12250700 12886.86173414 0 -20.87507451 0 3782.15361533 0 776.11094293 0 61.35350689 0 16887
0.12350000 0.12352200 13150.61039757 0 31.00932299 0 4164.32298857 0 142.95665571 0 356.78938727 0 16407
0.12450000 0.12449800 13021.84160100 0 91.12094856 0 3480.98325340 0 85.71875926 0 625.26290060 0 16306
0.12550000 0.12549900 12832.18213319 0 -4.84251641 0 3766.03810616 0 542.89634470 0 935.28958329 0 17523
0.12650000 0.12650100 12906.49315274 0 -62.06789089 0 2996.00957564 0 192.80271303 0 878.11224478 0 17154
0.12750000 0.12750600 13252.09484964 0 -143.58219921 0 3177.06227462 0 573.27180578 0 1400.50762105 0 18007
0.12850000 0.12850300 13145.50844697 0 169.21950096 0 2801.46998117 0 -154.89743834 0 1234.91605061 0 17496
0.12950000 0.12949900 12872.44317811 0 312.93035806 0 3022.14043565 0 -367.83067383 0 1003.61246561 0 18405
0.13050000 0.13049000 12625.66404601 0 134.53510986 0 3343.01985456 0 -23.43691918 0 1279.43611516 0 18100
0.13150000 0.13148800 12492.56968263 0 -40.01459853 0 3190.29407258 0 393.45355702 0 1137.25806148 0 19059
0.13250000 0.13249300 12572.09356475 0 70.32927985 0 3132.14292698 0 25.07697448 0 655.01170905 0 18957
0.13350000 0.13349100 12427.90800442 0 173.38757277 0 2650.09732522 0 30.93068640 0 596.60990240 0 19468
0.13450000 0.13450700 12089.84832144 0 246.84900664 0 2801.27033962 0 -320.55666508 0 659.05112298 0 19953
0.13550000 0.13551000 11822.21773908 0 141.73995140 0 3285.00180332 0 104.15011035 0 485.06351645 0 19956
0.13650000 0.13649900 11869.02259020 0 105.75445199 0 2786.66323324 0 147.04930738 0 -103.71999373 0 19723
0.13750000 0.13749600 11254.45936730 0 189.26018472 0 2557.57456028 0 74.94843064 0 -269.02918230 0 20946
0.13850000 0.13851100 11276.75267317 0 215.10045537 0 2688.55050504 0 70.95149600 0 304.88702203 0 20955
0.13950000 0.13949800 11080.23884564 0 -41.15810093 0 2458.21961801 0 335.12162491 0 108.90590469 0 20506
0.14050000 0.14048300 11075.91327883 0 0.45078839 0 2396.03127672 0 42.42715569 0 -453.52015233 0 21447
0.14150000 0.14148400 11097.07528261 0 148.75735171 0 2303.69706213 0 -496.04491055 0 -521.98056550 0 21771
0.14250000 0.14249400 10804.74460464 0 140.31473259 0 2678.31333025 0 -181.35992514 0 -756.99304675 0 22470
0.14350000 0.14350900 10827.12664008 0 -28.74560969 0 2524.93316766 0 -27.22489568 0 -1022.58728535 0 22519
0.14450000 0.14449900 10961.26357597 0 3.72918206 0 2397.10712283 0 400.59185138 0 -835.22036795 0 22218
0.14550000 0.14550500 10859.41311440 0 55.45409924 0 2370.87644205 0 229.34044314 0 -574.97874099 0 23559
0.14650000 0.14650700 10610.48229009 0 256.54271277 0 2347.39637811 0 153.65411516 0 -574.20568457 0 23044
0.14750000 0.14750500 10421.53265888 0 275.03950192 0 2241.48653845 0 -68.90783205 0 317.57646046 0 23649
0.14850000 0.14849900 10087.44362441 0 120.98943103 0 2563.59708022 0 212.12690547 0 392.48640465 0 23640
0.14950000 0.14949500 10065.81579036 0 -0.13269730 0 2344.27975176 0 424.23495591 0 684.51762029 0 24457
0.15050000 0.15050000 10168.25408537 0 -2.12669265 0 2403.20728115 0 49.11548018 0 713.19280088 0 24591
0.15150000 0.15149900 9926.63235986 0 167.68780666 0 1970.35113785 0 24.00800491 0 594.54361241 0 25020
0.15250000 0.15250500 9745.55747848 0 130.50013241 0 2344.63467007 0 -113.54501964 0 837.82790835 0 25297
0.15350000 0.15350100 9735.97468432 0 16.49493901 0 2000.55246714 0 175.05125231 0 502.59869883 0 25452
0.15450000 0.15450400 9563.69512212 0 106.36535512 0 2184.21159741 0 111.96563319 0 354.01547891 0 26061
0.15550000 0.15549900 9471.12799239 0 160.51512959 0 1832.63174535 0 -102.41101067 0 144.12677698 0 26128
0.15650000 0.15649500 9206.55858039 0 98.72474045 0 2201.75787098 0 -25.68754487 0 406.73970184 0 26331
0.15750000 0.15749700 9123.60751841 0 134.33325008 0 1794.23402151 0 126.76794464 0 -465.73710577 0 27345
0.15850000 0.15849900 9061.19735318 0 27.69726976 0 1861.08066552 0 -48.49315312 0 233.00053813 0 26980
0.15950000 0.15949700 8882.89527104 0 106.45497199 0 1749.31467387 0 -24.43601420 0 -308.88761677 0 27777
0.16050000 0.16050000 8879.94501266 0 131.25322469 0 1854.15975862 0 1.35857181 0 80.12890691 0 28224
0.16150000 0.16150500 8640.81880645 0 105.83197946 0 1971.36043677 0 108.69905387 0 -277.93984992 0 28075
0.16250000 0.16249700 8593.28193633 0 25.58384218 0 1926.45218033 0 223.40998013 0 137.59406198 0 28590
0.16350000 0.16349900 8687.90093750 0 -59.66065750 0 1743.19233316 0 237.96717612 0 621.05711871 0 29163
0.16450000 0.16449100 8538.60233538 0 164.56008912 0 1795.16568205 0 160.41641794 0 680.87527122 0 28996
0.16550000 0.16550500 8511.65072679 0 115.94848202 0 1827.10832927 0 -239.70183933 0 934.50765391 0 30777
0.16650000 0.16650700 8374.07551985 0 96.69982062 0 1899.78894287 0 -130.93934381 0 393.16407678 0 29211
0.16750000 0.16749900 8164.47407992 0 206.16538711 0 2522.58183390 0 -272.57060148 0 715.93787213 0 30922
0.16850000 0.16850800 8177.72806027 0 99.75988186 0 2424.43583211 0 -333.00764277 0 333.23944879 0 30867
0.16950000 0.16949900 8146.31779052 0 -36.58032030 0 2583.84960585 0 89.58637055 0 524.84320343 0 30852
0.17050000 0.17049200 8177.96097541 0 -17.25923340 0 2530.05730065 0 77.08614794 0 206.64452682 0 31257
0.17150000 0.17149500 8221.08354914 0 -56.59283243 0 2188.63698499 0 212.88332510 0 159.78643795 0 32608
0.17250000 0.17250900 8341.27885047 0 26.16779370 0 2570.78417584 0 -7.20790271 0 174.44123648 0 32361
0.17350000 0.17350400 8438.88138362 0 -60.99914315 0 2154.49828078 0 204.88435387 0 103.23408839 0 32508
0.17450000 0.17449800 8320.12793789 0 85.51933954 0 2157.82563987 0 102.59745369 0 120.05555225 0 32791
0.17550000 0.17549800 8247.76896900 0 147.75581662 0 2173.05385328 0 -233.55066150 0 49.61425131 0 33633
0.17650000 0.17650100 7991.24067479 0 233.57173477 0 2326.17891834 0 -106.79014796 0 82.18942948 0 33984
0.17750000 0.17750300 7875.40421386 0 140.70957920 0 2447.72734570 0 -38.30566690 0 180.50257561 0 34069
0.17850000 0.17849800 7649.54307920 0 55.90351454 0 2473.30364586 0 30.33464548 0 8.82316918 0 34536
