### header ###
fiducial parameters:
Omega_m = 0.31
Omega_nu = 0
Omega_de = 0.69
Omega_k = 0
H_0 = 100
w_de = -1
zeff = 0
beta = 0
fgrowth = 0
b_1 = 2
gamma = 0.55
Lx = 3500 Ly = 3500 Lz = 3500
nx = 700 ny = 700 nz = 700
xoffset = 1379.75464 yoffset = 22.6059522 zoffset = 368.141391
bins = 400 dk = 0.001
kx_ny = 0.628318531 ky_ny = 0.628318531 kz_ny = 0.628318531
############################
A(data) = 3.32510736 (not used)
A(ran) = 3.32612301 (used)
Ngal = 187264
weighted Ngal = 0
Nran = 9399747
weighted Nran = 0
SN(data) = 6632.86747
SN(ran) = 132.297816
SN(data+ran) = 6765.16528
############################
13 columns: k_central k_mean P_0(k) sigma^{lin}_{P_0(k)} P^img_1(k) sigma^{lin}_{P_1(k)} P_2(k) sigma^{lin}_{P_2(k)} P^img_3(k) sigma^{lin}_{P_3(k)} P_4(k) sigma^{lin}_{P_4(k)} N_modes
### header ###
0.00050000 0 0 0 0 0 0 0 0 0 0 0 0
0.00150000 0.00179520 18701.53264622 0 -20218.14291691 0 -25965.71208745 0 18227.60580062 0 30463.30336193 0 3
0.00250000 0.00253879 26969.90905915 0 -14219.24722353 0 -2847.43190132 0 -35210.33565577 0 2530.24585099 0 6
0.00350000 0.00331552 27273.36420765 0 5607.21007316 0 -11278.63817665 0 -19572.52434256 0 -8062.26870004 0 7
0.00450000 0.00420575 36978.60518522 0 -3856.97482994 0 -9069.50465970 0 -8642.67103634 0 10110.44676688 0 24
0.00550000 0.00557378 47498.71640258 0 -21077.37794449 0 -31735.79638780 0 35956.77321038 0 17992.91607319 0 45
0.00650000 0.00659388 70754.84907558 0 -21968.99926716 0 -37722.26994060 0 6889.20825481 0 -19681.55080856 0 40
0.00750000 0.00754703 107399.27649675 0 -34297.19741102 0 -86714.30510029 0 10982.61413010 0 -18814.10829524 0 57
0.00850000 0.00846663 120439.30766075 0 -9594.52864964 0 -79140.79217616 0 -54498.59262054 0 -27127.62587975 0 75
0.00950000 0.00948925 117141.89480804 0 23783.85182380 0 -73406.31061802 0 -77431.30599053 0 -17592.52386336 0 112
0.01050000 0.01054430 92714.30991337 0 8113.39911797 0 -7244.35947229 0 -38488.56073775 0 -55657.06814178 0 105
0.01150000 0.01145670 81900.06015294 0 9079.43128097 0 -3220.70613461 0 -24268.42621847 0 -58098.12967812 0 144
0.01250000 0.01249090 69575.52210408 0 11459.53559887 0 29986.27098118 0 -22523.89185048 0 -51476.79601200 0 169
0.01350000 0.01339930 66164.20265871 0 7204.67516961 0 23825.55472432 0 -4030.97352767 0 -36627.23606590 0 180
0.01450000 0.01448870 61060.58838299 0 -2831.15002420 0 28104.87124286 0 24458.08568628 0 -29628.24714370 0 267
0.01550000 0.01550050 64583.70709359 0 -4980.26907446 0 19816.53067542 0 2632.28486292 0 -25844.48530481 0 238
0.01650000 0.01653350 70617.54005736 0 925.71898945 0 22925.94773985 0 7500.89885770 0 -3807.48590916 0 315
0.01750000 0.01747870 74182.69440440 0 -192.29806357 0 13187.32225947 0 3829.24683757 0 3115.88323226 0 297
0.01850000 0.01844180 73251.81024454 0 -3154.45841524 0 29826.66865710 0 10781.00944317 0 30262.21996126 0 388
0.01950000 0.01947590 78986.40271465 0 -6836.44743093 0 6169.89976793 0 20411.35156775 0 15346.88921726 0 399
0.02050000 0.02045430 86739.59302933 0 -5971.61134889 0 2915.68712734 0 19529.15776249 0 43455.30964314 0 462
0.02150000 0.02154770 91930.71684898 0 -1221.00768964 0 -583.20730001 0 6938.63062841 0 39232.22549313 0 571
0.02250000 0.02255340 92676.48893178 0 3192.03539050 0 500.44700662 0 -4143.08334642 0 54044.96266536 0 510
0.02350000 0.02348930 83209.04321677 0 6566.83152432 0 8864.93862318 0 -7637.17639461 0 33823.15965345 0 555
0.02450000 0.02439640 80109.71914156 0 8035.48345941 0 15273.90914134 0 -10505.39319901 0 30133.56207666 0 592
0.02550000 0.02547300 66958.33236021 0 7454.78166079 0 30957.63800991 0 -12664.59414730 0 21484.20304855 0 837
0.02650000 0.02652900 60538.96939051 0 7402.19829606 0 42486.04994183 0 -8870.92786954 0 11751.78863846 0 723
0.02750000 0.02749970 51296.00950174 0 4977.38536326 0 43617.46294252 0 3040.41872822 0 16052.95481498 0 826
0.02850000 0.02848090 51028.48983135 0 -842.41855477 0 44983.78749457 0 7240.92120124 0 2778.05646441 0 831
0.02950000 0.02946900 50795.68560741 0 -846.41693127 0 41552.50389470 0 8036.35966397 0 8445.33646024 0 996
0.03050000 0.03053250 51767.82901992 0 110.37027542 0 31586.73070081 0 2740.92313703 0 -491.83801955 0 1041
0.03150000 0.03150510 49199.77327853 0 1478.05727011 0 29043.51924059 0 723.63294457 0 -2974.89193665 0 1036
0.03250000 0.03246190 48667.50673698 0 1098.63185899 0 31122.12046065 0 -1521.47930616 0 -902.17681480 0 1059
0.03350000 0.03345080 47961.21931532 0 886.02137733 0 23702.22061426 0 918.44760073 0 -12856.58276647 0 1302
0.03450000 0.03451200 48275.21110093 0 -1824.52408038 0 28102.09844362 0 6421.11537881 0 -410.55729183 0 1339
0.03550000 0.03553350 49049.93120776 0 -1395.46112643 0 17604.16962016 0 5477.11033296 0 -12664.59414730 0 1365
0.03650000 0.03647120 54460.99346289 0 -2064.28248481 0 14315.62972501 0 3445.62451753 0 -6675.55852800 0 1308
0.03750000 0.03744890 52229.55554888 0 525.79593725 0 17403.30804343 0 -3119.49896246 0 -9110.73063875 0 1579
0.03850000 0.03847530 50959.05893846 0 1982.51818090 0 11315.90459839 0 -1580.75066265 0 -10509.27511794 0 1662
0.03950000 0.03950240 49781.83929437 0 2513.54250839 0 19633.52592577 0 -2028.32482430 0 -5845.52662199 0 1683
0.04050000 0.04050350 46320.16581486 0 1756.50176949 0 17807.58217219 0 -456.34175284 0 -14777.35625396 0 1822
0.04150000 0.04152450 44578.84789399 0 1558.66808953 0 21824.37005896 0 726.26044913 0 -7029.75590254 0 1887
0.04250000 0.04250150 42660.07082195 0 1507.09402372 0 19093.49554637 0 1350.37541084 0 -6545.64733814 0 1920
0.04350000 0.04349210 41397.67078530 0 91.79374057 0 19769.83673627 0 6320.87314079 0 -2128.21214402 0 2005
0.04450000 0.04448520 39765.04659452 0 331.52918622 0 14669.99346751 0 4065.61133573 0 -2143.27398947 0 2151
0.04550000 0.04548030 39710.14516963 0 600.37425465 0 13282.48472928 0 843.54985685 0 405.53852521 0 2274
0.04650000 0.04648670 39416.89392232 0 803.55167330 0 13381.30729409 0 2017.13380658 0 925.32968843 0 2311
0.04750000 0.04749250 35894.44068353 0 1156.73420332 0 11604.71936693 0 -380.03099047 0 -1158.50879483 0 2568
0.04850000 0.04851840 36345.74148736 0 1705.54881071 0 14366.31649506 0 -3359.14645492 0 2573.30187755 0 2493
0.04950000 0.04949480 32990.43258658 0 434.36454608 0 13638.40123935 0 -614.35138104 0 -2789.99059233 0 2644
0.05050000 0.05050630 34122.84379499 0 -344.39497468 0 14612.87380322 0 2542.90090671 0 -1160.99322295 0 2829
0.05150000 0.05149060 34853.31002600 0 -830.14170886 0 12540.37274148 0 1666.26379112 0 -2061.34331761 0 2784
0.05250000 0.05249300 35816.24774505 0 -117.68314522 0 11560.57640307 0 549.31925685 0 -5487.79115562 0 3055
0.05350000 0.05348950 34135.48775951 0 854.82627679 0 14403.69382878 0 -3104.58130256 0 -4403.89284266 0 3009
0.05450000 0.05448610 34568.93173625 0 1463.54998450 0 14326.49909802 0 -1940.34945011 0 -1981.65306754 0 3336
0.05550000 0.05550870 33704.70567005 0 -304.08069201 0 14715.80011090 0 2273.14081454 0 -4473.30155316 0 3349
0.05650000 0.05647670 34061.62038784 0 -877.20387575 0 12515.30663637 0 3599.74779032 0 -3850.49757092 0 3324
0.05750000 0.05747970 34088.90473233 0 -141.30517648 0 11491.81098199 0 1045.73350426 0 -4236.71523105 0 3639
0.05850000 0.05849280 34902.88767636 0 876.43525581 0 11257.12125457 0 -623.73786102 0 -4893.45827595 0 3846
0.05950000 0.05951020 32342.92850874 0 1228.83807468 0 10598.59252696 0 -612.14756021 0 -2168.17372662 0 3787
0.06050000 0.06049470 31230.25963090 0 466.98153807 0 10513.63395834 0 605.04697592 0 -4341.31630947 0 3930
0.06150000 0.06148310 30357.38243107 0 711.62228739 0 10333.71256145 0 909.91957939 0 -4385.45927333 0 4083
0.06250000 0.06249100 30068.78948648 0 831.14878955 0 9094.43767044 0 422.56018517 0 -3191.24791552 0 4303
0.06350000 0.06350600 27834.91150914 0 320.25054804 0 9255.47075893 0 1132.47775560 0 -4097.21015584 0 4470
0.06450000 0.06451750 29102.41349638 0 228.66277100 0 9824.82626307 0 256.45841967 0 -2389.14364342 0 4479
0.06550000 0.06550280 28378.38015960 0 -186.09032064 0 8074.10300719 0 49.02009589 0 -3481.02761818 0 4636
0.06650000 0.06648880 28083.13249684 0 250.26176794 0 9500.26456677 0 -437.55659256 0 -2940.19867260 0 4653
0.06750000 0.06749660 28423.63224315 0 479.46357111 0 10329.16517070 0 -847.14118643 0 -1714.25540032 0 5220
0.06850000 0.06852730 27674.31097733 0 492.01991518 0 10551.17766001 0 1262.56640460 0 -11.92270398 0 5029
0.06950000 0.06949320 28139.14304143 0 -456.31180660 0 10119.44172760 0 1925.35415183 0 807.25391484 0 5040
0.07050000 0.07048030 27354.21903340 0 -192.67183691 0 10435.95121492 0 1711.28295954 0 291.91253984 0 5475
0.07150000 0.07148790 28529.99682188 0 716.29168131 0 9247.65146508 0 -755.17519957 0 3353.70067722 0 5509
0.07250000 0.07249820 27060.19140230 0 50.07509054 0 9621.22516069 0 120.19197397 0 324.18348648 0 5916
0.07350000 0.07351270 26547.88901527 0 749.95346405 0 9983.53020020 0 -728.55965425 0 1151.19969604 0 5721
0.07450000 0.07449140 25964.15931988 0 549.97696483 0 8434.25635449 0 275.87799641 0 -514.84781674 0 6028
0.07550000 0.07549160 25606.69004224 0 -240.52702438 0 8254.13531605 0 1844.85424438 0 420.72015560 0 6183
0.07650000 0.07648840 26446.73729910 0 -605.72908453 0 6686.23935066 0 1744.77837432 0 -2029.85540948 0 6330
0.07750000 0.07749960 25559.21971930 0 696.42402022 0 5505.95853622 0 -327.32007698 0 -1046.06734929 0 6583
0.07850000 0.07848650 24801.91279168 0 883.67558917 0 5900.55005005 0 -1072.58640119 0 -2061.58732395 0 6549
0.07950000 0.07947320 23886.00174769 0 333.01207925 0 6321.63843338 0 185.26846294 0 -1116.43988481 0 6828
0.08050000 0.08048110 23310.14680214 0 710.92797847 0 6317.31286657 0 251.19897408 0 -2066.86673370 0 7147
0.08150000 0.08149960 22749.59770838 0 267.26568198 0 6822.01778370 0 112.98380507 0 -335.03844093 0 7386
0.08250000 0.08250610 22725.97345888 0 19.75197991 0 6415.93578984 0 763.42039538 0 -1121.49747062 0 7227
0.08350000 0.08350160 21877.71871628 0 758.88853231 0 7297.36430251 0 -487.37381278 0 459.98964751 0 7798
0.08450000 0.08449610 21588.46029987 0 377.86931619 0 7698.64380809 0 -19.39650705 0 1002.92037492 0 7371
0.08550000 0.08548940 20948.72005989 0 206.06778458 0 8845.57339331 0 -120.63562185 0 525.00069842 0 8256
0.08650000 0.08650700 21241.86039524 0 177.63217384 0 9605.83057933 0 93.51254336 0 1966.97941398 0 8037
0.08750000 0.08749060 21281.01232046 0 -247.46900455 0 9083.08028476 0 223.07946246 0 1001.09920038 0 8155
0.08850000 0.08849210 21410.33567688 0 161.71076062 0 9397.89281894 0 -78.29475567 0 2953.31955858 0 8718
0.08950000 0.08949900 21584.35655700 0 208.54223062 0 8616.49581154 0 91.80849186 0 1172.35060862 0 8571
0.09050000 0.09049190 20981.21726695 0 546.62076864 0 10746.06108159 0 164.98488196 0 2971.59785116 0 8932
0.09150000 0.09150830 20547.32964234 0 282.17890540 0 8875.12034198 0 1263.33169719 0 3526.63462004 0 9285
0.09250000 0.09250820 20264.17138425 0 -59.74151233 0 9654.08837725 0 1464.79219856 0 3611.31590874 0 9204
0.09350000 0.09350330 19677.00341781 0 439.26020042 0 7700.86204748 0 1238.04376815 0 4821.93114683 0 9349
0.09450000 0.09448040 19288.36787675 0 590.00620374 0 8038.11207309 0 -280.83021585 0 3522.67506272 0 9564
0.09550000 0.09549270 18587.40422962 0 309.93018928 0 7478.91610535 0 -8.43239303 0 4560.21217244 0 10155
0.09650000 0.09649430 17889.65702961 0 234.69638214 0 7117.80891511 0 799.93594310 0 2874.41678350 0 9913
0.09750000 0.09749140 17745.69329322 0 67.66162516 0 6368.58747006 0 482.91404248 0 3649.92436531 0 10476
0.09850000 0.09850240 17663.61843580 0 -120.46925389 0 4852.22120570 0 1075.45902120 0 2155.94013639 0 10575
0.09950000 0.09950330 17637.55412297 0 55.35339117 0 4716.08785435 0 1209.88321910 0 2509.70495425 0 10882
0.10050000 0.10051200 17327.00060842 0 343.47107797 0 3789.62908207 0 -347.18773807 0 2462.62282320 0 10875
0.10150000 0.10150300 16873.48156521 0 209.53932922 0 4200.42483464 0 248.00803672 0 2846.61115275 0 11118
0.10250000 0.10250800 16333.34027383 0 581.39499843 0 4459.06045628 0 -607.28074298 0 3110.18235702 0 11575
0.10350000 0.10349800 16044.63641727 0 404.51591686 0 5171.24839471 0 -583.56221831 0 2492.48032539 0 11364
0.10450000 0.10450100 15443.49354267 0 455.17163156 0 6614.83422471 0 -584.81885093 0 2913.24706401 0 12093
0.10550000 0.10551000 15432.18052179 0 57.25974610 0 7272.98585162 0 47.82379939 0 3452.52324203 0 12067
0.10650000 0.10649700 15572.59507515 0 -156.78737830 0 7384.71856967 0 645.51209887 0 3768.44489590 0 12054
0.10750000 0.10749900 15598.32665207 0 56.92113186 0 7481.99945810 0 61.14355054 0 4128.21005131 0 12807
0.10850000 0.10850100 15779.00225036 0 319.16361074 0 7441.97132832 0 -461.69214624 0 3360.54394574 0 12736
0.10950000 0.10950300 15476.21257367 0 83.62906685 0 8506.01639874 0 175.23980266 0 3906.02010285 0 12933
0.11050000 0.11050200 15220.22774811 0 -18.12967053 0 7630.72131798 0 -28.25482423 0 3087.14594096 0 13428
0.11150000 0.11150900 15316.83207353 0 337.85671408 0 8150.59899254 0 4.88060358 0 2533.40684213 0 13453
0.11250000 0.11250000 14899.35942039 0 354.56782052 0 8012.74650567 0 -154.97507672 0 2006.31988955 0 13668
0.11350000 0.11349100 14301.21116898 0 145.39339167 0 7659.31442372 0 260.26270023 0 1886.51278012 0 13791
0.11450000 0.11448600 14410.23763498 0 -10.44768570 0 7589.16260302 0 578.17078747 0 1322.40341214 0 14205
0.11550000 0.11549300 14095.80220150 0 156.03761339 0 6203.91646897 0 163.12267000 0 640.21383408 0 14776
0.11650000 0.11649800 13863.99618528 0 175.62466720 0 6222.13930556 0 520.72282376 0 331.59129692 0 14553
0.11750000 0.11747300 13473.25331679 0 117.23949734 0 6400.11974299 0 87.96206476 0 1049.43463668 0 14568
0.11850000 0.11849100 13612.66966243 0 -10.27216751 0 5135.05781907 0 568.08112561 0 22.99249492 0 16015
0.11950000 0.11950300 13721.69612843 0 -148.64643974 0 5179.31169490 0 268.34152808 0 -24.10250191 0 15270
0.12050000 0.12050700 13648.82696448 0 -114.40680564 0 4416.44807760 0 541.86153603 0 -416.40457086 0 15999
0.12150000 0.12150000 13952.61484889 0 8.94286537 0 4179.37374283 0 42.24326364 0 -144.49389560 0 15670
0.12250000 0.12250700 13773.38110621 0 85.32768366 0 4409.21661719 0 -109.70657820 0 -30.72860479 0 16887
0.12350000 0.12352200 13525.16011851 0 340.26128558 0 4509.01520733 0 -218.66294783 0 -896.32288105 0 16407
0.12450000 0.12449800 13230.57792757 0 440.32828268 0 4790.21032356 0 -351.85269551 0 12.62322398 0 16306
0.12550000 0.12549900 12714.72635750 0 253.00462094 0 5041.81412633 0 428.24553273 0 129.00171170 0 17523
0.12650000 0.12650100 12294.81364104 0 135.87714469 0 4839.71033554 0 376.31211214 0 905.99107743 0 17154
0.12750000 0.12750600 12327.86540795 0 208.48344728 0 5115.03820858 0 551.63509878 0 1082.43094761 0 18007
0.12850000 0.12850300 11942.88996188 0 103.59632689 0 4647.01187976 0 137.60293494 0 1529.05459368 0 17496
0.12950000 0.12949900 11875.01183655 0 138.63108890 0 4778.37601641 0 104.60595855 0 1474.69663743 0 18405
0.13050000 0.13049000 11735.92822682 0 14.39581908 0 4327.31921892 0 -0.91357302 0 1400.87363055 0 18100
0.13150000 0.13148800 11812.23566183 0 81.51375376 0 5015.50580717 0 -193.64009840 0 1405.03282940 0 19059
0.13250000 0.13249300 11569.11662472 0 101.24199851 0 4303.43987190 0 37.06422923 0 339.81209210 0 18957
0.13350000 0.13349100 11861.70240022 0 -227.23755219 0 4159.85323620 0 749.77711402 0 1038.37893157 0 19468
0.13450000 0.13450700 11752.89775815 0 -174.31923332 0 3469.98078602 0 500.39376888 0 187.63532437 0 19953
0.13550000 0.13551000 12174.69597809 0 74.70808440 0 3408.51337254 0 395.10947272 0 1567.69632384 0 19956
0.13650000 0.13649900 11680.47224208 0 171.93795333 0 2775.33912116 0 131.44732063 0 544.85394096 0 19723
0.13750000 0.13749600 11825.21236226 0 154.52699236 0 2940.35394935 0 323.37715646 0 1343.84269584 0 20946
0.13850000 0.13851100 11400.19769520 0 -3.17255925 0 2556.52089657 0 342.13126138 0 1075.25716142 0 20955
0.13950000 0.13949800 11409.07065276 0 131.43733855 0 2470.10938114 0 122.26713692 0 1556.37221176 0 20506
0.14050000 0.14048300 11290.83849329 0 7.01563681 0 2298.39546999 0 426.41659435 0 1760.77188032 0 21447
0.14150000 0.14148400 11241.37175490 0 118.53716738 0 2168.70610407 0 -138.76529238 0 1089.29750764 0 21771
0.14250000 0.14249400 11078.55298370 0 215.05830883 0 2384.98444456 0 -213.23824341 0 1279.92412782 0 22470
0.14350000 0.14350900 10766.28033362 0 200.29703481 0 2662.66365136 0 -23.74702905 0 1489.38138219 0 22519
0.14450000 0.14449900 10594.20041297 0 128.48708017 0 2400.47884670 0 -99.26709998 0 1732.91079358 0 22218
0.14550000 0.14550500 10667.23594488 0 -53.71743962 0 2685.99952974 0 156.81510629 0 1210.07176944 0 23559
0.14650000 0.14650700 10541.66141303 0 154.22753004 0 2455.29154202 0 -41.46177790 0 728.79478763 0 23044
0.14750000 0.14750500 10466.61837448 0 150.38664854 0 2853.09950296 0 -226.56098918 0 1171.72950159 0 23649
0.14850000 0.14849900 10103.78095751 0 206.95064386 0 3115.37303720 0 -362.33498574 0 341.41144270 0 23640
0.14950000 0.14949500 10151.81693150 0 152.09580199 0 3196.91551716 0 -162.38732364 0 854.55010599 0 24457
0.15050000 0.15050000 9859.76353346 0 54.07135971 0 3273.45586730 0 101.95438609 0 654.67675490 0 24591
0.15150000 0.15149900 10002.15231988 0 40.20270523 0 3120.87427088 0 362.89952767 0 823.63561273 0 25020
0.15250000 0.15250500 9724.48420428 0 123.53042425 0 2885.40815967 0 -38.39983116 0 705.35132464 0 25297
0.15350000 0.15350100 9689.04783003 0 187.13067491 0 3429.22063724 0 140.02192499 0 825.76512255 0 25452
0.15450000 0.15450400 9499.51036538 0 114.91367334 0 3174.74421446 0 -252.36133152 0 947.73612451 0 26061
0.15550000 0.15549900 9281.85671647 0 132.89804919 0 3573.00691448 0 162.07344276 0 857.10884512 0 26128
0.15650000 0.15649500 9123.98461911 0 231.70508633 0 3325.35157782 0 -221.54665904 0 1241.52640399 0 26331
0.15750000 0.15749700 8980.69744573 0 130.96485356 0 3628.27434887 0 247.21945262 0 749.37672181 0 27345
0.15850000 0.15849900 8917.08943124 0 -35.57989434 0 3612.20320449 0 336.17417950 0 1137.80153013 0 26980
0.15950000 0.15949700 8660.94932891 0 56.69376232 0 3203.34841139 0 165.65146290 0 1264.64045843 0 27777
0.16050000 0.16050000 8798.30271192 0 167.54694846 0 3005.11544833 0 176.82917118 0 1523.91936949 0 28224
0.16150000 0.16150500 8620.81028716 0 -40.72288236 0 2944.60187778 0 295.00587467 0 933.57155688 0 28075
0.16250000 0.16249700 8557.47955258 0 -27.77146986 0 2807.54795709 0 154.51368293 0 1040.24114353 0 28590
0.16350000 0.16349900 8676.98719970 0 54.68137555 0 2508.92857046 0 60.03942188 0 909.70773753 0 29163
0.16450000 0.16449100 8464.84587567 0 86.80614021 0 2376.99878276 0 -140.96245849 0 470.04381755 0 28996
0.16550000 0.16550500 8473.26409415 0 147.58501219 0 2415.18577385 0 -281.28717316 0 322.85919756 0 30777
0.16650000 0.16650700 8196.00635284 0 219.31067374 0 2647.39107316 0 -234.97255295 0 8.52179917 0 29211
0.16750000 0.16749900 8043.79076593 0 134.24008402 0 2647.25797880 0 100.45330350 0 345.28781603 0 30922
0.16850000 0.16850800 7998.88250948 0 -114.53768176 0 2650.51879070 0 663.68946154 0 721.01098561 0 30867
0.16950000 0.16949900 8170.54096465 0 -192.14278681 0 2042.59919477 0 776.90063615 0 751.11471237 0 30852
0.17050000 0.17049200 8328.30215004 0 -80.55935627 0 1898.52454642 0 420.11235800 0 956.48264242 0 31257
0.17150000 0.17149500 8261.34459407 0 179.57313331 0 1330.13397641 0 -109.42674730 0 1117.85955802 0 32608
0.17250000 0.17250900 8327.80304618 0 61.54793558 0 1786.07090056 0 -365.17211392 0 1590.34454801 0 32361
0.17350000 0.17350400 7995.77697434 0 108.79532546 0 1723.00635471 0 -189.87020056 0 906.99483076 0 32508
0.17450000 0.17449800 8063.20036059 0 134.07593431 0 2165.78911928 0 -301.40882267 0 720.39098770 0 32791
0.17550000 0.17549800 7928.81941836 0 78.55384603 0 2168.36227697 0 -78.33734587 0 391.48154220 0 33633
0.17650000 0.17650100 7855.92807202 0 66.27733287 0 2345.56633061 0 186.26999803 0 826.81656802 0 33984
0.17750000 0.17750300 7789.41416392 0 109.21501635 0 2291.92930217 0 7.21363686 0 437.00536008 0 34069
