### header ###
fiducial parameters:
Omega_m = 0.31
Omega_nu = 0
Omega_de = 0.69
Omega_k = 0
H_0 = 100
w_de = -1
zeff = 0
beta = 0
fgrowth = 0
b_1 = 2
gamma = 0.55
Lx = 3500 Ly = 3500 Lz = 3500
nx = 700 ny = 700 nz = 700
xoffset = 1379.75464 yoffset = 22.6059522 zoffset = 368.141391
bins = 400 dk = 0.001
kx_ny = 0.628318531 ky_ny = 0.628318531 kz_ny = 0.628318531
############################
A(data) = 3.31746677 (not used)
A(ran) = 3.31826085 (used)
Ngal = 186186
weighted Ngal = 0
Nran = 9399747
weighted Nran = 0
SN(data) = 6655.4017
SN(ran) = 131.985096
SN(data+ran) = 6787.38679
############################
13 columns: k_central k_mean P_0(k) sigma^{lin}_{P_0(k)} P^img_1(k) sigma^{lin}_{P_1(k)} P_2(k) sigma^{lin}_{P_2(k)} P^img_3(k) sigma^{lin}_{P_3(k)} P_4(k) sigma^{lin}_{P_4(k)} N_modes
### header ###
0.00050000 0 0 0 0 0 0 0 0 0 0 0 0
0.00150000 0.00179520 43889.08635578 0 -44762.07446758 0 -76865.43312224 0 82334.28051347 0 -4086.88425148 0 3
0.00250000 0.00253879 77593.12655401 0 -42677.26217722 0 -24235.37445156 0 -59903.77654129 0 6075.80205302 0 6
0.00350000 0.00331552 101538.46620537 0 -20440.85415164 0 -55314.23924411 0 -77739.19761782 0 -10899.11959947 0 7
0.00450000 0.00420575 116486.40506840 0 -2400.50102909 0 -42108.28377377 0 -56601.92720980 0 6482.78243384 0 24
0.00550000 0.00557378 111773.75548510 0 -3764.72934492 0 -35730.29096870 0 -19431.77705329 0 673.45415134 0 45
0.00650000 0.00659388 122658.65617009 0 -8482.39214924 0 9281.93435485 0 -8157.81936175 0 -19239.01205033 0 40
0.00750000 0.00754703 124955.64305807 0 -3172.02687121 0 -19920.56610279 0 -18043.71375522 0 -42787.06502701 0 57
0.00850000 0.00846663 121703.70411285 0 12998.43917544 0 15755.15617692 0 -51236.33886216 0 -27216.35545533 0 75
0.00950000 0.00948925 98708.21456813 0 23782.96452804 0 23133.35312279 0 -36740.36627477 0 -32878.41149740 0 112
0.01050000 0.01054430 78653.88863014 0 17141.77761939 0 78744.61462117 0 -13817.52407007 0 -9515.74787771 0 105
0.01150000 0.01145670 67293.95197986 0 4935.22772366 0 71388.26733330 0 16314.04159114 0 -10078.80358199 0 144
0.01250000 0.01249090 66234.52084737 0 -1251.35320449 0 69712.72021033 0 31270.63158779 0 -13565.86481131 0 169
0.01350000 0.01339930 71971.66429277 0 -1473.79825048 0 50076.64330926 0 16392.34544160 0 -4575.78421296 0 180
0.01450000 0.01448870 67070.90800923 0 1779.29417922 0 45165.68312452 0 21202.37573410 0 18502.55657296 0 267
0.01550000 0.01550050 68298.59259943 0 -4.45718604 0 38757.41135178 0 13413.47176524 0 30985.69873819 0 238
0.01650000 0.01653350 65139.48697267 0 -478.90235655 0 27422.31898266 0 18873.33528694 0 27470.34386545 0 315
0.01750000 0.01747870 73220.97671702 0 -5843.00892028 0 26415.90377158 0 11831.53434452 0 34183.29081836 0 297
0.01850000 0.01844180 79704.00315720 0 -11100.29172972 0 -1208.71864342 0 27250.51634194 0 19004.54414684 0 388
0.01950000 0.01947590 85691.36400575 0 -3002.49792585 0 -5089.53954680 0 -3771.75007259 0 11037.49337260 0 399
0.02050000 0.02045430 90655.89467175 0 8210.79091838 0 5522.69515241 0 -27139.49346048 0 6207.99802945 0 462
0.02150000 0.02154770 73438.80782508 0 10641.43782078 0 21659.77669624 0 -25398.50827552 0 -10347.64310481 0 571
0.02250000 0.02255340 69619.44324399 0 5640.51693759 0 42551.70982776 0 -3974.44169682 0 9834.43123963 0 510
0.02350000 0.02348930 60102.41987863 0 51.64005843 0 32933.09109836 0 5434.50904548 0 -15882.15038198 0 555
0.02450000 0.02439640 66912.63662878 0 -1807.01108040 0 36677.47918808 0 12484.47310886 0 -19700.40584337 0 592
0.02550000 0.02547300 66969.53446912 0 161.02643377 0 32566.30521528 0 4650.17287089 0 -13318.19838346 0 837
0.02650000 0.02652900 64031.92004542 0 2807.95833138 0 27788.88304180 0 2239.39030222 0 -2256.94766699 0 723
0.02750000 0.02749970 57753.85892485 0 3656.29071236 0 27150.25192152 0 -1390.99137406 0 4069.37125150 0 826
0.02850000 0.02848090 59690.16008807 0 1076.39179087 0 27601.44181338 0 2435.30520512 0 -8794.09914828 0 831
0.02950000 0.02946900 55349.28742647 0 2005.02221951 0 29600.18641542 0 3127.96154573 0 -4633.54716667 0 996
0.03050000 0.03053250 53963.33145582 0 1948.82312458 0 25563.43437414 0 1940.24962933 0 680.07115944 0 1041
0.03150000 0.03150510 51523.26812721 0 -1597.50946124 0 22661.08995673 0 5279.70920967 0 -3388.75995077 0 1036
0.03250000 0.03246190 52979.98593439 0 1127.55326415 0 21335.91374536 0 2263.35837883 0 -5253.84453839 0 1059
0.03350000 0.03345080 53350.21008852 0 1411.99810108 0 16655.76136912 0 -579.26548861 0 -3324.07609017 0 1302
0.03450000 0.03451200 49726.16148569 0 430.32513215 0 19718.15175849 0 4123.70702535 0 1438.40624102 0 1339
0.03550000 0.03553350 51866.98432064 0 -712.24894002 0 15633.70757034 0 6260.74776214 0 3720.19818918 0 1365
0.03650000 0.03647120 49066.12435530 0 -1128.93966377 0 16294.74290845 0 4395.65208332 0 2870.65686773 0 1308
0.03750000 0.03744890 51026.38250393 0 2082.81587491 0 13507.41420339 0 2307.52352508 0 9797.85247209 0 1579
0.03850000 0.03847530 46867.62729623 0 3589.27770040 0 19808.54501362 0 -3670.14361735 0 13795.67441208 0 1662
0.03950000 0.03950240 44264.41246051 0 2370.27751741 0 22274.33991915 0 -934.41116049 0 14798.31861620 0 1683
0.04050000 0.04050350 42563.02284865 0 924.09745645 0 29541.73580750 0 834.22881494 0 16911.08072286 0 1822
0.04150000 0.04152450 41143.12781534 0 1109.37479235 0 25089.39661657 0 1786.62546040 0 15722.54805789 0 1887
0.04250000 0.04250150 42473.62780125 0 -101.08882908 0 28398.12249017 0 1727.27646553 0 13217.37940320 0 1920
0.04350000 0.04349210 41174.51590270 0 29.42394730 0 26188.09058627 0 -357.62899088 0 15283.00392283 0 2005
0.04450000 0.04448520 40859.52590937 0 900.56859125 0 28031.33660709 0 2060.50038665 0 10008.07501905 0 2151
0.04550000 0.04548030 40812.49923431 0 -497.26494222 0 26193.74709671 0 1462.24122326 0 15671.41763996 0 2274
0.04650000 0.04648670 41888.23442632 0 -1155.45871567 0 20315.85636203 0 7421.36388439 0 7742.53167442 0 2311
0.04750000 0.04749250 41987.50063901 0 -905.46091822 0 17219.85964590 0 5006.47757285 0 9037.53983009 0 2568
0.04850000 0.04851840 42487.60270940 0 265.69738673 0 14393.71175153 0 502.82717749 0 6587.35023867 0 2493
0.04950000 0.04949480 40512.92600474 0 1799.21396894 0 14194.84659024 0 -1697.52987532 0 2819.67063536 0 2644
0.05050000 0.05050630 38704.06269446 0 1610.92980955 0 14978.88330251 0 -2769.29441882 0 2880.19529711 0 2829
0.05150000 0.05149060 37064.00740172 0 1508.02568426 0 14964.13201057 0 -2429.67087707 0 155.72816899 0 2784
0.05250000 0.05249300 34645.01734732 0 1712.82463591 0 17450.55654242 0 -1371.44868504 0 -4058.52406088 0 3055
0.05350000 0.05348950 34467.22546024 0 908.47217819 0 18027.63151964 0 1627.46678420 0 -3538.05855289 0 3009
0.05450000 0.05448610 32816.63353040 0 -364.34027415 0 17587.20008883 0 205.98349148 0 -2333.06655165 0 3336
0.05550000 0.05550870 32698.84501881 0 857.47263638 0 17384.67483255 0 366.55851354 0 -4648.25409382 0 3349
0.05650000 0.05647670 32539.57543063 0 507.15718077 0 16449.79784179 0 322.27025501 0 -2857.86871765 0 3324
0.05750000 0.05747970 32528.26240975 0 -591.32161970 0 15926.07152189 0 1767.03840659 0 -1445.54897185 0 3639
0.05850000 0.05849280 32693.07759640 0 -627.33473619 0 15850.87320658 0 2008.48267296 0 -2720.73715858 0 3846
0.05950000 0.05951020 34358.53173014 0 311.29773387 0 15176.30660819 0 -1217.38086823 0 -2733.80258859 0 3787
0.06050000 0.06049470 33324.83217457 0 508.13986082 0 14540.78102306 0 115.33735706 0 -5098.56778111 0 3930
0.06150000 0.06148310 32741.32430312 0 816.23556613 0 15792.75533457 0 -1294.14304231 0 -1815.41820768 0 4083
0.06250000 0.06249100 31671.57835747 0 258.34725051 0 15171.20465760 0 1577.92240743 0 -4203.56364338 0 4303
0.06350000 0.06350600 31386.75641984 0 445.42025120 0 14903.24133933 0 2201.36967909 0 -778.36578327 0 4470
0.06450000 0.06451750 30640.76251310 0 424.78618840 0 13063.65541349 0 1638.06996848 0 -4800.29222158 0 4479
0.06550000 0.06550280 29885.34108896 0 634.27782548 0 11720.28963913 0 1483.25904148 0 -1163.32237431 0 4636
0.06650000 0.06648880 28560.16487758 0 -167.51922047 0 10779.16830448 0 2387.62414944 0 1674.26054412 0 4653
0.06750000 0.06749660 29289.63290087 0 -307.20175483 0 8906.78570927 0 2253.79776706 0 1549.16293374 0 5220
0.06850000 0.06852730 28829.68096342 0 93.66293999 0 6856.26739988 0 1900.78715059 0 1129.59404439 0 5029
0.06950000 0.06949320 28492.73040014 0 560.21524874 0 7465.48466585 0 -715.93676301 0 2169.01665759 0 5040
0.07050000 0.07048030 28113.74420042 0 960.58416705 0 7059.06993607 0 -1337.57616956 0 2686.79809592 0 5475
0.07150000 0.07148790 27102.33795071 0 466.35932192 0 8871.97044205 0 -791.64416426 0 426.71051107 0 5509
0.07250000 0.07249820 27035.34712114 0 437.35695102 0 9526.77252748 0 -1412.87430564 0 1258.96176559 0 5916
0.07350000 0.07351270 26259.40698264 0 706.45378962 0 11157.30048203 0 -972.86877679 0 -309.93795312 0 5721
0.07450000 0.07449140 25889.84830033 0 60.68060398 0 11675.14846755 0 528.54766321 0 -281.25057221 0 6028
0.07550000 0.07549160 26185.53961097 0 -23.05005823 0 12400.06910008 0 230.50058234 0 -52.45537232 0 6183
0.07650000 0.07648840 25793.02215097 0 289.27727144 0 11819.00129196 0 753.51928387 0 -498.96189535 0 6330
0.07750000 0.07749960 26115.11051035 0 25.19786852 0 12473.27099994 0 832.46531462 0 2311.26125845 0 6583
0.07850000 0.07848650 25621.33042221 0 278.44560850 0 12090.29196932 0 474.04552140 0 1703.80749279 0 6549
0.07950000 0.07947320 25709.94908583 0 328.99484772 0 10939.79101868 0 1012.22810740 0 2081.38511050 0 6828
0.08050000 0.08048110 24892.08422287 0 243.54272083 0 11400.75225505 0 400.85027626 0 1456.95072232 0 7147
0.08150000 0.08149960 24537.16592052 0 428.18453114 0 10562.94541997 0 46.72965281 0 1280.70051161 0 7386
0.08250000 0.08250610 23799.37949953 0 644.76344307 0 11098.96078609 0 -217.97307538 0 -229.62770514 0 7227
0.08350000 0.08350160 23046.39813871 0 230.13013636 0 10123.03527542 0 204.75791422 0 -1343.53214232 0 7798
0.08450000 0.08449610 22475.86696770 0 318.26189643 0 9037.61746847 0 593.09842945 0 -1611.10726870 0 7371
0.08550000 0.08548940 21923.63627164 0 460.82703288 0 9161.58377676 0 80.31390808 0 -3238.80696803 0 8256
0.08650000 0.08650700 21203.59576576 0 821.26875131 0 8842.66749971 0 -747.44796266 0 -2609.74755072 0 8037
0.08750000 0.08749060 20116.32572893 0 479.02214148 0 8761.81267396 0 61.50090890 0 -4856.30276617 0 8155
0.08850000 0.08849210 19792.13004213 0 437.17505539 0 8832.79633443 0 0.85492166 0 -2630.72100415 0 8718
0.08950000 0.08949900 19268.73645815 0 20.57317213 0 8368.70738052 0 1038.61850142 0 -3226.57337780 0 8571
0.09050000 0.09049190 19345.48754103 0 -161.90929305 0 7609.04911915 0 922.46372314 0 -2395.41016970 0 8932
0.09150000 0.09150830 19468.37800322 0 -0.96327600 0 7537.22252771 0 727.02574172 0 -2463.07756228 0 9285
0.09250000 0.09250820 19470.81806654 0 252.67299416 0 6574.66190936 0 572.53091383 0 -2322.28590822 0 9204
0.09350000 0.09350330 18825.97587597 0 566.29766114 0 7988.32368999 0 -872.70195891 0 -1119.71178791 0 9349
0.09450000 0.09448040 18572.65293768 0 447.40113898 0 8152.27376328 0 -659.96171025 0 -2033.04967420 0 9564
0.09550000 0.09549270 17751.01706775 0 173.99093389 0 8247.73569541 0 590.67611203 0 -1001.42417246 0 10155
0.09650000 0.09649430 17706.09772011 0 210.20369192 0 8107.99770506 0 70.87740680 0 -2099.85195342 0 9913
0.09750000 0.09749140 17582.65269808 0 15.34744378 0 7397.04088948 0 1474.00898322 0 -1017.20583659 0 10476
0.09850000 0.09850240 17200.00640336 0 -41.74637802 0 6584.99890492 0 937.28045314 0 -580.33468000 0 10575
0.09950000 0.09950330 17457.21126059 0 -26.94961217 0 5391.74139005 0 404.11219729 0 -768.85286365 0 10882
0.10050000 0.10051200 17228.84351543 0 134.73807877 0 4791.94055028 0 1249.43442741 0 -651.87955503 0 10875
0.10150000 0.10150300 16835.10602377 0 249.60738732 0 4777.77709178 0 138.77527446 0 -224.01555948 0 11118
0.10250000 0.10250800 16149.55914040 0 482.73214685 0 4207.26810316 0 -294.22616352 0 487.07878694 0 11575
0.10350000 0.10349800 16090.11032476 0 322.88359820 0 5028.91506428 0 -181.94554034 0 -546.35679815 0 11364
0.10450000 0.10450100 15330.25242183 0 342.39634099 0 5154.78905844 0 -332.10703758 0 134.20459219 0 12093
0.10550000 0.10551000 15017.36975592 0 275.65173599 0 5280.86269415 0 -117.04540139 0 129.18471645 0 12067
0.10650000 0.10649700 15104.76838788 0 -14.42909267 0 5893.72896392 0 166.93027791 0 799.22056089 0 12054
0.10750000 0.10749900 15223.22237128 0 -26.70793499 0 5937.48373588 0 -36.05237933 0 -835.56752241 0 12807
0.10850000 0.10850100 15187.17598120 0 109.79930060 0 5865.67932684 0 275.25356202 0 168.09152623 0 12736
0.10950000 0.10950300 14976.22141525 0 -7.34019851 0 5939.76852245 0 92.92848093 0 880.53678044 0 12933
0.11050000 0.11050200 15244.18473352 0 55.05148879 0 5702.19508382 0 792.52147794 0 990.51819850 0 13428
0.11150000 0.11150900 15084.69332140 0 -87.48481055 0 4885.55025253 0 1408.42673567 0 1729.09542183 0 13453
0.11250000 0.11250000 14945.27697576 0 19.70018402 0 4357.98637849 0 623.66798648 0 1115.97405454 0 13668
0.11350000 0.11349100 14888.71187132 0 171.87584263 0 3752.97267616 0 56.88819100 0 2354.46147056 0 13791
0.11450000 0.11448600 14731.43869860 0 223.40776189 0 4154.80674159 0 -497.56218629 0 1000.23408702 0 14205
0.11550000 0.11549300 14180.31712224 0 344.54248760 0 4074.46211090 0 -888.11539531 0 727.73890568 0 14776
0.11650000 0.11649800 14021.82391785 0 177.42365934 0 3724.37957043 0 126.88662045 0 393.32822649 0 14553
0.11750000 0.11747300 13859.67061847 0 -146.10101004 0 3994.16184499 0 471.13851868 0 -747.75407969 0 14568
0.11850000 0.11849100 13915.23751518 0 147.80018141 0 3333.70324912 0 48.77364949 0 -1430.36512323 0 16015
0.11950000 0.11950300 13555.66091012 0 343.09508640 0 3538.70184232 0 -434.79488452 0 -1712.27007606 0 15270
0.12050000 0.12050700 13186.10222780 0 326.34072429 0 3743.76698269 0 -733.35659693 0 -1517.69720800 0 15999
0.12150000 0.12150000 12860.79742131 0 299.24160278 0 4504.24599264 0 -427.98599872 0 -2767.57528329 0 15670
0.12250000 0.12250700 12772.51149360 0 65.20936151 0 4585.54446627 0 232.85857081 0 -1557.39260188 0 16887
0.12350000 0.12352200 12639.86077810 0 -90.60210237 0 4813.02491568 0 395.42779008 0 -1682.01329079 0 16407
0.12450000 0.12449800 12977.58772518 0 -40.21246548 0 4235.28446665 0 432.30934729 0 -1115.36403870 0 16306
0.12550000 0.12549900 13097.26174025 0 55.65274257 0 4885.62789090 0 -147.98651352 0 -1118.83558335 0 17523
0.12650000 0.12650100 12948.86152508 0 150.29680985 0 4909.65142349 0 -286.26157499 0 -261.76888477 0 17154
0.12750000 0.12750600 12725.92846642 0 123.56702520 0 4963.07771919 0 164.31941015 0 70.85888450 0 18007
0.12850000 0.12850300 12898.50749094 0 -82.76861179 0 5220.70404191 0 427.68542728 0 -377.79611429 0 17496
0.12950000 0.12949900 12864.45751630 0 20.97245522 0 5350.84814690 0 -34.34400226 0 -247.81837725 0 18405
0.13050000 0.13049000 12880.31792794 0 186.22785148 0 4902.83033737 0 -125.71206269 0 -186.92992425 0 18100
0.13150000 0.13148800 12743.45255760 0 96.35566078 0 5202.80285003 0 -56.82619121 0 -50.55034833 0 19059
0.13250000 0.13249300 12640.96989780 0 -60.92205933 0 4706.61597216 0 290.31208012 0 -675.94634329 0 18957
0.13350000 0.13349100 12789.48102493 0 -85.61749663 0 4788.99029189 0 514.47626164 0 -95.05787983 0 19468
0.13450000 0.13450700 12632.20785221 0 163.71604903 0 4053.11155677 0 114.47778930 0 -864.94255753 0 19953
0.13550000 0.13551000 12615.12740891 0 162.70231363 0 4217.96001702 0 152.97533391 0 -51.34481077 0 19956
0.13650000 0.13649900 12294.25908120 0 9.84943763 0 3760.33723093 0 226.72846625 0 -271.92620294 0 19723
0.13750000 0.13749600 12351.71148139 0 146.12319243 0 3891.64591160 0 -285.43860818 0 -1298.64606827 0 20946
0.13850000 0.13851100 11892.64683970 0 279.92184682 0 4064.03638577 0 -258.52914614 0 -1198.80311335 0 20955
0.13950000 0.13949800 11716.29680822 0 306.30669524 0 4339.67481232 0 -582.95552984 0 -1576.69128457 0 20506
0.14050000 0.14048300 11250.13380049 0 222.85985676 0 4158.40028940 0 344.40606588 0 -1447.26810738 0 21447
0.14150000 0.14148400 11412.50892381 0 -41.11451253 0 4360.23789147 0 591.33825649 0 -1390.63645576 0 21771
0.14250000 0.14249400 11074.93725350 0 15.81615776 0 3420.99096910 0 659.71992216 0 -1197.41671373 0 22470
0.14350000 0.14350900 11091.30786019 0 162.75000578 0 3131.32217841 0 491.90013025 0 -421.93242342 0 22519
0.14450000 0.14449900 10782.47348117 0 181.22350342 0 3061.68055277 0 169.04204181 0 -154.49815525 0 22218
0.14550000 0.14550500 10686.35716842 0 45.98022063 0 3022.61735712 0 199.55836109 0 204.99082936 0 23559
0.14650000 0.14650700 10445.67819464 0 52.25639625 0 2995.24428305 0 371.30443671 0 333.24610351 0 23044
0.14750000 0.14750500 10425.22602747 0 144.33307325 0 2667.52159562 0 -108.00718500 0 715.90238030 0 23649
0.14850000 0.14849900 10453.07602300 0 63.18377621 0 2750.99394386 0 146.96168692 0 672.33061309 0 23640
0.14950000 0.14949500 10234.47962235 0 155.01500503 0 2821.10139977 0 224.46142560 0 668.12704944 0 24457
0.15050000 0.15050000 9983.14200831 0 355.22774674 0 3414.54698368 0 -729.65324627 0 461.66774561 0 24591
0.15150000 0.15149900 9476.42958453 0 431.68824026 0 3679.28276363 0 -586.65000754 0 725.65708801 0 25020
0.15250000 0.15250500 9176.81199017 0 105.02997500 0 4196.54291571 0 168.34218728 0 479.01992324 0 25297
0.15350000 0.15350100 9125.71484583 0 -141.31626768 0 3697.12849952 0 524.72674586 0 758.03340102 0 25452
0.15450000 0.15450400 9466.02604179 0 -204.50170757 0 3295.64935239 0 729.97156363 0 584.38851248 0 26061
0.15550000 0.15549900 9594.93902392 0 -125.48580227 0 2877.99924011 0 418.90674490 0 594.24969569 0 26128
0.15650000 0.15649500 9620.69278324 0 88.79135355 0 2477.93976619 0 -148.94035646 0 213.21938837 0 26331
0.15750000 0.15749700 9590.12544445 0 147.31771435 0 2333.37710516 0 -181.89008435 0 53.91164648 0 27345
0.15850000 0.15849900 9248.82713196 0 95.77658939 0 2481.51113160 0 -181.43201792 0 -139.57827711 0 26980
0.15950000 0.15949700 9215.15425802 0 108.63383763 0 2297.51926543 0 88.99731708 0 -52.64713911 0 27777
0.16050000 0.16050000 9082.30390098 0 46.01970529 0 2178.45526619 0 106.16660087 0 -629.46535512 0 28224
0.16150000 0.16150500 8992.98649195 0 66.26701805 0 2198.87415977 0 151.84735918 0 -453.85954296 0 28075
0.16250000 0.16249700 8901.77248825 0 145.23478756 0 2108.80254936 0 300.55590962 0 -515.22602655 0 28590
0.16350000 0.16349900 8776.60833069 0 194.88563982 0 1950.32043616 0 -72.77200506 0 116.05828487 0 29163
0.16450000 0.16449100 8499.94951401 0 55.63399845 0 1993.48737469 0 326.61245861 0 368.33532329 0 28996
0.16550000 0.16550500 8501.19172807 0 -0.60677942 0 1677.66554159 0 307.25277434 0 649.46167410 0 30777
0.16650000 0.16650700 8563.15824542 0 10.48839039 0 1438.55042658 0 329.10132321 0 656.56558574 0 29211
0.16750000 0.16749900 8502.41175973 0 13.10735473 0 1517.80811997 0 425.08565072 0 1231.61087392 0 30922
0.16850000 0.16850800 8410.38809866 0 73.51910809 0 1268.35600941 0 -336.45700502 0 743.58711700 0 30867
0.16950000 0.16949900 8303.59096324 0 242.31825269 0 1577.37893878 0 -365.09447554 0 632.03629457 0 30852
0.17050000 0.17049200 8000.15799713 0 141.14546324 0 1603.29906605 0 -215.34224347 0 253.70780283 0 31257
0.17150000 0.17149500 7913.12537468 0 100.90050056 0 1889.79577442 0 -314.19808187 0 -71.11509115 0 32608
0.17250000 0.17250900 7960.11877615 0 37.85325698 0 1767.11604497 0 -60.00237728 0 -410.02380526 0 32361
0.17350000 0.17350400 7805.89568258 0 51.19086495 0 1816.01713232 0 -118.45841989 0 -960.52871107 0 32508
0.17450000 0.17449800 7759.91158004 0 26.68675080 0 1817.02643124 0 -36.33520485 0 -968.75505184 0 32791
0.17550000 0.17549800 7747.81108417 0 65.65145662 0 1864.69639572 0 93.27319533 0 -1284.62679533 0 33633
0.17650000 0.17650100 7696.32574793 0 42.94555823 0 1605.31766389 0 244.57752950 0 -1028.47449269 0 33984
0.17750000 0.17750300 7608.36146494 0 22.15599685 0 1382.06296052 0 223.94346670 0 -797.43598730 0 34069
