### header ###
fiducial parameters:
Omega_m = 0.31
Omega_nu = 0
Omega_de = 0.69
Omega_k = 0
H_0 = 100
w_de = -1
zeff = 0
beta = 0
fgrowth = 0
b_1 = 2
gamma = 0.55
Lx = 3500 Ly = 3500 Lz = 3500
nx = 700 ny = 700 nz = 700
xoffset = 1379.75464 yoffset = 22.6059522 zoffset = 368.141391
bins = 400 dk = 0.001
kx_ny = 0.628318531 ky_ny = 0.628318531 kz_ny = 0.628318531
############################
A(data) = 3.35627465 (not used)
A(ran) = 3.36429945 (used)
Ngal = 189029
weighted Ngal = 0
Nran = 9399747
weighted Nran = 0
SN(data) = 6589.22505
SN(ran) = 133.816299
SN(data+ran) = 6723.04134
############################
13 columns: k_central k_mean P_0(k) sigma^{lin}_{P_0(k)} P^img_1(k) sigma^{lin}_{P_1(k)} P_2(k) sigma^{lin}_{P_2(k)} P^img_3(k) sigma^{lin}_{P_3(k)} P_4(k) sigma^{lin}_{P_4(k)} N_modes
### header ###
0.00050000 0 0 0 0 0 0 0 0 0 0 0 0
0.00150000 0.00179520 26104.01931340 0 -13191.42600234 0 22240.17903255 0 -36607.93738321 0 134764.69763907 0 3
0.00250000 0.00253879 32909.79958477 0 -14823.82836918 0 -17954.31870781 0 5833.60358527 0 -55926.91696353 0 6
0.00350000 0.00331552 48469.08522358 0 -16436.93205333 0 1352.97075093 0 -24834.07726283 0 13212.05562866 0 7
0.00450000 0.00420575 58364.54022881 0 -7485.03844607 0 -5029.71363046 0 -14015.83467150 0 -5910.28812097 0 24
0.00550000 0.00557378 65844.55436267 0 1825.91048000 0 17253.57688462 0 -9936.82516985 0 28675.73514978 0 45
0.00650000 0.00659388 58265.05219219 0 6730.07176100 0 6357.21899319 0 9042.26467999 0 16313.59794326 0 40
0.00750000 0.00754703 77699.04748486 0 -10506.77959863 0 11135.33991208 0 21060.96297301 0 16261.91296548 0 57
0.00850000 0.00846663 79856.95076311 0 -9170.90038220 0 14098.46408876 0 10521.38670501 0 -1905.29017655 0 75
0.00950000 0.00948925 77696.27468563 0 13944.74009906 0 16639.23548566 0 -23068.46962064 0 1395.92695671 0 112
0.01050000 0.01054430 72198.70109430 0 5223.85394184 0 32719.25282120 0 -16241.94881098 0 11013.53638719 0 105
0.01150000 0.01145670 71411.33702295 0 -1480.63042780 0 41470.53994925 0 20820.83855908 0 4236.58213669 0 144
0.01250000 0.01249090 78134.04422917 0 -6036.76103977 0 34742.17623258 0 4289.85315563 0 -14773.36342306 0 169
0.01350000 0.01339930 80515.98968577 0 6.63372253 0 31962.50045342 0 4036.59676452 0 -6609.88755087 0 180
0.01450000 0.01448870 80648.86222521 0 6243.37894771 0 30726.60837748 0 -4584.09151947 0 11876.45369216 0 267
0.01550000 0.01550050 70423.11137486 0 4517.35578744 0 46046.43507418 0 10022.34938952 0 -8664.09922885 0 238
0.01650000 0.01653350 72574.69267085 0 -531.99813458 0 20853.33576614 0 18459.96637668 0 10231.50718157 0 315
0.01750000 0.01747870 71678.41304546 0 -3220.10720998 0 29249.70459185 0 17867.58554768 0 4565.97959486 0 297
0.01850000 0.01844180 72587.89119522 0 -2287.09354030 0 6290.87145305 0 5381.17147935 0 19148.50788323 0 388
0.01950000 0.01947590 75883.41854444 0 -906.93272005 0 3820.59570395 0 648.81949380 0 11839.29818238 0 399
0.02050000 0.02045430 76205.17416791 0 -1883.34069779 0 2416.74963262 0 5322.37704433 0 8471.99969770 0 462
0.02150000 0.02154770 79070.25216357 0 613.07367515 0 3462.17258337 0 -7292.92782373 0 3767.99015683 0 571
0.02250000 0.02255340 77710.24959378 0 3000.60133118 0 12585.07026518 0 -12474.49103160 0 -390.72955905 0 510
0.02350000 0.02348930 73128.03248659 0 3795.79578757 0 15867.39909004 0 -14.70182520 0 1183.26434642 0 555
0.02450000 0.02439640 74527.63062949 0 4782.71267442 0 31946.97277769 0 -9735.37575968 0 7219.13809043 0 592
0.02550000 0.02547300 69643.84387728 0 1477.92417574 0 36484.27053724 0 6242.53601675 0 17759.22455349 0 837
0.02650000 0.02652900 65119.30099422 0 3618.48082196 0 41376.93024701 0 4857.88880734 0 17977.16657353 0 723
0.02750000 0.02749970 68534.50235852 0 -547.91732956 0 34237.52677144 0 11725.94614957 0 26594.69386639 0 826
0.02850000 0.02848090 63654.59752524 0 -1024.97300182 0 39712.69614493 0 8600.39139358 0 31379.43622985 0 831
0.02950000 0.02946900 69656.48784180 0 565.41812922 0 33201.49806450 0 3543.03850032 0 39116.98795684 0 996
0.03050000 0.03053250 67972.51140915 0 352.87974034 0 34227.43378221 0 1319.27569460 0 28121.84077419 0 1041
0.03150000 0.03150510 69085.73484684 0 3578.47487457 0 42217.08841584 0 -2406.22408672 0 23761.89125384 0 1036
0.03250000 0.03246190 61324.22613445 0 2214.37965311 0 25386.30795888 0 -1824.76808671 0 19792.46277804 0 1059
0.03350000 0.03345080 60644.44667349 0 2675.19670391 0 47486.40517397 0 1612.87076901 0 10651.09825332 0 1302
0.03450000 0.03451200 58835.69427518 0 737.25737090 0 34604.53447845 0 2604.04667549 0 13191.86965022 0 1339
0.03550000 0.03553350 56014.98106730 0 1239.30816460 0 35507.80155792 0 5358.85599109 0 -3302.57025929 0 1365
0.03650000 0.03647120 55165.28446910 0 2628.00366090 0 26609.00151045 0 -3721.46258563 0 1247.67092710 0 1308
0.03750000 0.03744890 48928.48260118 0 2646.85869571 0 34784.10095705 0 -2082.51641259 0 -5493.33675409 0 1579
0.03850000 0.03847530 48024.43913793 0 1637.98123890 0 29840.31082935 0 3906.67448347 0 -3318.61922127 0 1662
0.03950000 0.03950240 45780.13543545 0 714.49934388 0 28372.61273719 0 3138.56473001 0 -8346.95754331 0 1683
0.04050000 0.04050350 43747.56268272 0 299.47673616 0 24166.38720654 0 3797.21546078 0 -7819.78186116 0 1822
0.04150000 0.04152450 45483.44591709 0 -342.95422820 0 22491.39464342 0 5223.55447952 0 -2485.81451602 0 1887
0.04250000 0.04250150 43746.45356303 0 -56.14319530 0 18393.64101893 0 4091.64237497 0 -2145.59204963 0 1920
0.04350000 0.04349210 43519.86040937 0 759.46638367 0 18603.15372928 0 1316.70253691 0 2691.11257153 0 2005
0.04450000 0.04448520 44409.70714053 0 561.69370529 0 19523.83398796 0 1145.02189934 0 977.37291187 0 2151
0.04550000 0.04548030 42760.11341842 0 383.88518141 0 17223.18700499 0 1236.09171749 0 3526.27970173 0 2274
0.04650000 0.04648670 41637.90611120 0 2261.58378732 0 22262.58325038 0 -1655.94897796 0 7532.51986020 0 2311
0.04750000 0.04749250 39401.80989447 0 1978.80262993 0 21263.71005322 0 766.70671704 0 5970.00312534 0 2568
0.04850000 0.04851840 37510.20625495 0 844.01346889 0 24396.52954322 0 2769.74915789 0 8523.98413780 0 2493
0.04950000 0.04949480 37154.51156882 0 769.94534655 0 22555.94540966 0 215.16256608 0 7262.11647861 0 2644
0.05050000 0.05050630 34961.78193216 0 335.77600553 0 20012.95577337 0 3366.78828962 0 9323.95890008 0 2829
0.05150000 0.05149060 36167.28412846 0 -874.64957310 0 21699.26135738 0 3301.68296353 0 10619.56598039 0 2784
0.05250000 0.05249300 36502.68192417 0 176.91235516 0 14349.67969964 0 1322.15940580 0 7893.32758813 0 3055
0.05350000 0.05348950 36388.99715545 0 46.56661221 0 16455.12161632 0 2886.66146493 0 7368.24814220 0 3009
0.05450000 0.05448610 35063.93185605 0 -244.12500867 0 11330.54497837 0 1464.09345315 0 6315.00589761 0 3336
0.05550000 0.05550870 36187.91375478 0 311.75469118 0 10976.14796228 0 134.43196173 0 3935.44504835 0 3349
0.05650000 0.05647670 34973.76042486 0 532.62811457 0 10761.06747106 0 -1260.27052683 0 1954.09144313 0 3324
0.05750000 0.05747970 34170.75776581 0 1028.41016375 0 10996.47812628 0 -2846.99934464 0 -2642.73277044 0 3639
0.05850000 0.05849280 33324.16670275 0 431.29783013 0 12549.80025888 0 -1485.48837206 0 -4758.54495627 0 3846
0.05950000 0.05951020 33235.43712717 0 341.94603839 0 13205.17908655 0 -1567.01976083 0 -7028.24749976 0 3787
0.06050000 0.06049470 33677.86497343 0 475.66594528 0 15151.24050309 0 -1300.65357492 0 -8849.28894429 0 3930
0.06150000 0.06148310 33176.09922349 0 -211.78418749 0 13902.37172672 0 -12.53316346 0 -8503.63179140 0 4083
0.06250000 0.06249100 33038.90111724 0 47.00504723 0 12973.15124640 0 1174.74630716 0 -9211.84908133 0 4303
0.06350000 0.06350600 33111.32663332 0 315.37929434 0 16653.54312973 0 870.91294885 0 -5459.20914108 0 4470
0.06450000 0.06451750 32944.73685515 0 812.71522022 0 13939.74906043 0 672.81197103 0 -7472.81594703 0 4479
0.06550000 0.06550280 32056.33197960 0 428.75905515 0 14627.84691910 0 1324.91002265 0 -1312.05532538 0 4636
0.06650000 0.06648880 30971.05835822 0 152.86885842 0 13744.87673005 0 2469.36627095 0 -997.64872901 0 4653
0.06750000 0.06749660 30995.90263938 0 265.41567033 0 13270.83897249 0 2871.76598742 0 2461.92407779 0 5220
0.06850000 0.06852730 30672.92698425 0 665.66702196 0 12476.26562312 0 784.59570860 0 5007.71978691 0 5029
0.06950000 0.06949320 28898.11364859 0 714.76109613 0 13085.61598345 0 -441.56273290 0 4666.54347759 0 5040
0.07050000 0.07048030 28562.27220500 0 781.54673855 0 13634.63023239 0 1004.79256897 0 7347.57415109 0 5475
0.07150000 0.07148790 27610.53659487 0 505.67539686 0 12167.81943599 0 200.14508541 0 3819.34239870 0 5509
0.07250000 0.07249820 28223.32522626 0 -337.41972092 0 12754.76557849 0 484.21171253 0 5548.87037721 0 5916
0.07350000 0.07351270 27806.85078086 0 122.60320019 0 12636.31159508 0 659.47037022 0 3664.25419177 0 5721
0.07450000 0.07449140 26872.30652600 0 1085.00077794 0 12716.39003705 0 -1154.49378154 0 631.33644005 0 6028
0.07550000 0.07549160 26895.48712762 0 406.97705346 0 13552.77719891 0 -1531.91612249 0 2774.00817752 0 6183
0.07650000 0.07648840 25672.23901620 0 75.18678046 0 13516.39807292 0 127.60643913 0 -1696.43184682 0 6330
0.07750000 0.07749960 25692.31408268 0 532.35083464 0 14425.98713464 0 233.44640425 0 -1216.46029889 0 6583
0.07850000 0.07848650 25491.00885807 0 291.96355935 0 12882.31434339 0 34.33158012 0 -2802.74546882 0 6549
0.07950000 0.07947320 25058.11944118 0 208.97145994 0 13119.44413414 0 801.38334430 0 -906.31604950 0 6828
0.08050000 0.08048110 24733.92375438 0 -208.73078097 0 11948.54647232 0 1761.07134264 0 -2332.62290377 0 7147
0.08150000 0.08149960 24826.31342496 0 229.69979792 0 11351.17460469 0 80.13068150 0 -1634.23241434 0 7386
0.08250000 0.08250610 24577.53787741 0 462.45411147 0 11314.57365476 0 337.59274359 0 -2139.42534413 0 7227
0.08350000 0.08350160 24507.55242467 0 40.51747340 0 10360.24270455 0 1315.69323798 0 -937.37251008 0 7798
0.08450000 0.08449610 24234.26533187 0 -531.92271444 0 9442.70125461 0 1001.55837594 0 -723.00961930 0 7371
0.08550000 0.08548940 24419.15558499 0 72.14158143 0 7799.81770666 0 968.65079459 0 -1720.98775686 0 8256
0.08650000 0.08650700 23936.68851775 0 850.22453918 0 8802.48409317 0 187.87600335 0 -242.47463856 0 8037
0.08750000 0.08749060 22652.21699917 0 1030.63062138 0 8282.40677707 0 -972.16559491 0 -1552.72320796 0 8155
0.08850000 0.08849210 21888.36626535 0 640.46116778 0 9452.38386955 0 -156.37034929 0 -183.25208334 0 8718
0.08950000 0.08949900 20996.52311874 0 352.65680729 0 9615.33573511 0 -338.04415531 0 -2647.11379324 0 8571
0.09050000 0.09049190 20133.73890814 0 653.08738638 0 9084.23376924 0 -326.59693094 0 -1878.44947994 0 8932
0.09150000 0.09150830 19666.68860465 0 252.71735894 0 9469.58631601 0 54.82866664 0 -1761.74790565 0 9285
0.09250000 0.09250820 19776.71327838 0 82.55521716 0 9111.56247853 0 752.99134289 0 -2580.40024359 0 9204
0.09350000 0.09350330 19625.09661609 0 -69.76484884 0 9073.00947793 0 715.95339980 0 -2362.48040596 0 9349
0.09450000 0.09448040 19110.13234179 0 184.20259892 0 7758.81355154 0 1216.18301896 0 -2616.84591677 0 9564
0.09550000 0.09549270 19220.48975142 0 99.74712699 0 7668.53120838 0 145.47879389 0 -2016.23541963 0 10155
0.09650000 0.09649430 18500.78198145 0 397.29665676 0 7291.38614735 0 -5.82961075 0 -2027.08261024 0 9913
0.09750000 0.09749140 18112.81191220 0 596.56331937 0 7596.52715779 0 375.15862765 0 -1159.50700256 0 10476
0.09850000 0.09850240 17870.13652298 0 -9.89376914 0 7119.47259465 0 428.78456490 0 -711.85852989 0 10575
0.09950000 0.09950330 17156.86164724 0 370.48368814 0 6886.37999959 0 1162.45726095 0 -669.74969156 0 10882
0.10050000 0.10051200 17024.76549158 0 482.88409625 0 6764.07737084 0 -377.81940580 0 212.79126817 0 10875
0.10150000 0.10150300 16235.62682872 0 222.41066328 0 6445.54928569 0 214.96403365 0 -23.36682282 0 11118
0.10250000 0.10250800 16144.12445389 0 143.56999890 0 6746.46455009 0 1208.55227546 0 1581.10558095 0 11575
0.10350000 0.10349800 16108.52171169 0 -305.10995509 0 5973.30830203 0 953.00444306 0 1230.61266619 0 11364
0.10450000 0.10450100 16442.14491589 0 -184.14159733 0 4646.82332941 0 866.19253542 0 1893.91060848 0 12093
0.10550000 0.10551000 16468.43105266 0 102.01250396 0 4748.23014311 0 428.96424229 0 2130.08655630 0 12067
0.10650000 0.10649700 16002.48986887 0 337.32211838 0 4639.54750421 0 -357.67779214 0 3180.78891680 0 12054
0.10750000 0.10749900 15737.18843786 0 345.28337955 0 5090.73739607 0 -361.73717023 0 2091.08990783 0 12807
0.10850000 0.10850100 15441.38621525 0 456.42493681 0 5476.83305303 0 -109.59089701 0 1458.54785468 0 12736
0.10950000 0.10950300 15068.50017386 0 160.99648754 0 5884.35690250 0 -144.52938743 0 1835.06071748 0 12933
0.11050000 0.11050200 14780.01814123 0 -94.38752788 0 5222.42317743 0 261.35740137 0 887.49983388 0 13428
0.11150000 0.11150900 14918.43627915 0 157.47835987 0 5611.85728468 0 -335.60852846 0 958.02431880 0 13453
0.11250000 0.11250000 14574.49826178 0 276.33273549 0 5095.20714844 0 -92.89853469 0 -135.96809251 0 13668
0.11350000 0.11349100 14717.24196651 0 -85.46377264 0 5445.73333679 0 136.07678624 0 598.99007327 0 13791
0.11450000 0.11448600 14516.04765386 0 -80.39931029 0 5058.96111681 0 100.88253282 0 -1298.42424433 0 14205
0.11550000 0.11549300 14813.29173208 0 -28.12350445 0 4897.95021071 0 138.85513107 0 -564.66060047 0 14776
0.11650000 0.11649800 14949.93527848 0 -60.36339574 0 4709.17803865 0 -129.83909707 0 -661.29487212 0 14553
0.11750000 0.11747300 14958.36458816 0 -280.28785632 0 4221.52029124 0 1192.32585433 0 -626.17348787 0 14568
0.11850000 0.11849100 15565.16397320 0 -164.11089564 0 3927.58138971 0 426.09938612 0 -827.11935770 0 16015
0.11950000 0.11950300 15501.72232665 0 135.26712886 0 3510.92948516 0 65.21867812 0 -562.66418502 0 15270
0.12050000 0.12050700 15069.94202946 0 343.89808906 0 4307.61016195 0 -359.91377745 0 98.62979981 0 15999
0.12150000 0.12150000 14809.85346102 0 585.91355206 0 4420.38545252 0 -570.85281573 0 74.82454197 0 15670
0.12250000 0.12250700 14237.32587456 0 339.98511477 0 4817.43921207 0 -383.83527103 0 -355.77343363 0 16887
0.12350000 0.12352200 13821.18416506 0 172.41376568 0 5144.71825161 0 471.81951818 0 1012.26914483 0 16407
0.12450000 0.12449800 13478.35526739 0 7.24872940 0 4888.92197640 0 966.26951461 0 1035.84570218 0 16306
0.12550000 0.12549900 13751.75327216 0 96.27935335 0 4553.87909899 0 762.44437005 0 1374.60967617 0 17523
0.12650000 0.12650100 13149.83401378 0 303.49064033 0 4278.65104672 0 33.44018062 0 1334.95864708 0 17154
0.12750000 0.12750600 12882.64707930 0 420.33085458 0 4589.06037571 0 -517.70934555 0 2021.99175084 0 18007
0.12850000 0.12850300 12448.98127862 0 165.01260996 0 4560.34526681 0 -225.03040400 0 1557.31496350 0 17496
0.12950000 0.12949900 12322.87436932 0 -80.09751882 0 4989.24185279 0 333.91379356 0 1262.77713734 0 18405
0.13050000 0.13049000 12690.99119603 0 -148.92150142 0 3982.23880827 0 436.87559307 0 390.62862916 0 18100
0.13150000 0.13148800 12495.45339384 0 30.71307712 0 4252.05435643 0 43.51697670 0 887.51979804 0 19059
0.13250000 0.13249300 12512.97748502 0 227.61354377 0 4064.67967519 0 -107.74587640 0 353.27458696 0 18957
0.13350000 0.13349100 12491.34965097 0 84.62250536 0 3898.42263294 0 -130.99258156 0 160.74471737 0 19468
0.13450000 0.13450700 12071.76967041 0 205.32689262 0 4122.42044650 0 -106.83517822 0 15.45236650 0 19953
0.13550000 0.13551000 12001.89512964 0 298.82457378 0 4595.80382345 0 -432.00101201 0 -139.06031822 0 19956
0.13650000 0.13649900 11879.44831533 0 -67.09586320 0 3988.91570884 0 203.51570016 0 -65.32936826 0 19723
0.13750000 0.13749600 11948.76829626 0 -69.13564523 0 4586.17666450 0 517.22687848 0 -359.87939474 0 20946
0.13850000 0.13851100 11849.83481948 0 -26.92953710 0 3553.77477897 0 409.06885320 0 158.47878583 0 20955
0.13950000 0.13949800 11877.56281185 0 12.61778930 0 3672.84986940 0 461.81525853 0 747.15515506 0 20506
0.14050000 0.14048300 12055.90925878 0 -51.58216238 0 3038.95469022 0 272.27224828 0 399.13114074 0 21447
0.14150000 0.14148400 11999.67689025 0 129.75924046 0 3301.39459241 0 -34.01636830 0 235.38736371 0 21771
0.14250000 0.14249400 11675.48120345 0 257.05401695 0 3268.14318396 0 -257.57197585 0 543.27899100 0 22470
0.14350000 0.14350900 11406.40876549 0 184.71833957 0 3295.56062282 0 -286.14400831 0 318.60017794 0 22519
0.14450000 0.14449900 11223.51492781 0 159.12762086 0 3643.53583587 0 117.10418474 0 106.58174437 0 22218
0.14550000 0.14550500 11260.89226153 0 -47.13370511 0 3526.84535278 0 435.97942436 0 291.56538537 0 23559
0.14650000 0.14650700 11157.30048203 0 -88.60768333 0 2856.51559162 0 681.96220852 0 354.70756960 0 23044
0.14750000 0.14750500 11319.56469339 0 -22.05950343 0 2301.24590761 0 609.19952006 0 916.46449471 0 23649
0.14850000 0.14849900 11282.96374346 0 47.28698545 0 2115.54599710 0 288.88907955 0 550.41950359 0 23640
0.14950000 0.14949500 11050.45898183 0 248.06460182 0 2168.18481782 0 -258.81197167 0 1259.22795432 0 24457
0.15050000 0.15050000 10888.71605674 0 270.47436526 0 2217.93992733 0 -296.44773027 0 674.48119617 0 24591
0.15150000 0.15149900 10396.94347525 0 115.89524427 0 2128.16777923 0 312.55991208 0 1113.30107607 0 25020
0.15250000 0.15250500 10237.60733989 0 138.19964133 0 2099.88522701 0 153.65522428 0 546.91246712 0 25297
0.15350000 0.15350100 10199.95272625 0 137.57853430 0 2151.51474880 0 113.38308816 0 614.49889396 0 25452
0.15450000 0.15450400 9851.86660123 0 121.80574312 0 1798.91450662 0 230.37525181 0 926.63512231 0 26061
0.15550000 0.15549900 9806.08214023 0 209.15113733 0 1907.74133108 0 -336.26069084 0 804.74730433 0 26128
0.15650000 0.15649500 9602.74722657 0 79.63612503 0 2095.91457850 0 -111.72051774 0 516.62684473 0 26331
0.15750000 0.15749700 9436.15744841 0 118.11015630 0 1943.19988772 0 229.53342996 0 331.23416038 0 27345
0.15850000 0.15849900 9375.83242821 0 78.77766639 0 2021.68119733 0 -95.30720994 0 660.09147725 0 26980
0.15950000 0.15949700 9341.76027119 0 34.10032867 0 2021.68119733 0 16.77044435 0 224.53906398 0 27777
0.16050000 0.16050000 9155.78308076 0 171.44550419 0 2178.68818133 0 103.94370318 0 453.60666367 0 28224
0.16150000 0.16150500 9065.23454887 0 195.36699776 0 2120.06011426 0 -359.21946852 0 512.23029426 0 28075
0.16250000 0.16249700 8807.95205326 0 28.89001707 0 2428.93885807 0 -25.20696330 0 417.78875224 0 28590
0.16350000 0.16349900 8975.15184726 0 79.34675570 0 2539.24081172 0 151.83294062 0 680.67119319 0 29163
0.16450000 0.16449100 8728.46144474 0 44.18943597 0 2336.11663081 0 176.67611267 0 485.38072469 0 28996
0.16550000 0.16550500 8759.17296909 0 18.35537639 0 2251.64607485 0 250.16971101 0 945.25835111 0 30777
0.16650000 0.16650700 8843.12223879 0 -40.48397798 0 2230.42861509 0 367.40033539 0 675.46720358 0 29211
0.16750000 0.16749900 8803.33811533 0 19.68121807 0 1896.98287004 0 -63.82872932 0 811.69150274 0 30922
0.16850000 0.16850800 8779.79150421 0 134.19239188 0 1832.44319500 0 -11.72894077 0 846.59328130 0 30867
0.16950000 0.16949900 8587.42578434 0 84.19105779 0 1929.71299223 0 -76.68586664 0 905.02503418 0 30852
0.17050000 0.17049200 8509.39921381 0 123.34631038 0 2079.82125173 0 -170.29312882 0 547.86741917 0 31257
0.17150000 0.17149500 8527.63314160 0 -8.69253706 0 1809.55096450 0 239.27482824 0 308.83992462 0 32608
0.17250000 0.17250900 8488.31484841 0 66.14745495 0 2106.32921244 0 -230.98748588 0 428.86220328 0 32361
0.17350000 0.17350400 8332.76081121 0 132.21926794 0 1888.43155719 0 -47.42152167 0 338.77950166 0 32508
0.17450000 0.17449800 8291.88975046 0 72.43272535 0 2152.34658858 0 77.32593962 0 469.94843325 0 32791
0.17550000 0.17549800 8175.87583038 0 109.74828110 0 2261.57269612 0 32.95482984 0 415.87552077 0 33633
0.17650000 0.17650100 8102.98448404 0 52.23643209 0 2013.21861406 0 358.68043635 0 824.36319525 0 33984
0.17750000 0.17750300 8042.09381279 0 96.85753745 0 2232.63576328 0 175.49157283 0 1087.65933785 0 34069
0.17850000 0.17849800 7944.91274513 0 23.53341260 0 1693.63686519 0 117.50124959 0 1248.87986757 0 34536
