### header ###
fiducial parameters:
Omega_m = 0.31
Omega_nu = 0
Omega_de = 0.69
Omega_k = 0
H_0 = 100
w_de = -1
zeff = 0
beta = 0
fgrowth = 0
b_1 = 2
gamma = 0.55
Lx = 3500 Ly = 3500 Lz = 3500
nx = 700 ny = 700 nz = 700
xoffset = 1379.75464 yoffset = 22.6059522 zoffset = 368.141391
bins = 400 dk = 0.001
kx_ny = 0.628318531 ky_ny = 0.628318531 kz_ny = 0.628318531
############################
A(data) = 3.35135564 (not used)
A(ran) = 3.35385569 (used)
Ngal = 188026
weighted Ngal = 0
Nran = 9399747
weighted Nran = 0
SN(data) = 6571.29375
SN(ran) = 133.400894
SN(data+ran) = 6704.69464
############################
13 columns: k_central k_mean P_0(k) sigma^{lin}_{P_0(k)} P^img_1(k) sigma^{lin}_{P_1(k)} P_2(k) sigma^{lin}_{P_2(k)} P^img_3(k) sigma^{lin}_{P_3(k)} P_4(k) sigma^{lin}_{P_4(k)} N_modes
### header ###
0.00050000 0 0 0 0 0 0 0 0 0 0 0 0
0.00150000 0.00179520 83787.11640171 0 -67490.48798978 0 -47018.80031063 0 49733.14893977 0 227550.32394882 0 3
0.00250000 0.00253879 116902.32495396 0 -52141.38053314 0 -26580.71895823 0 -90775.01412697 0 -87393.86273731 0 6
0.00350000 0.00331552 151726.46513199 0 -16095.54501126 0 -48359.61510970 0 -48578.00077761 0 54359.73083475 0 7
0.00450000 0.00420575 155916.71933903 0 14759.38851491 0 -16958.66195777 0 -79481.62465838 0 5766.20238141 0 24
0.00550000 0.00557378 110442.92276329 0 36433.14011931 0 53373.39069015 0 -42936.68527384 0 23465.53447139 0 45
0.00650000 0.00659388 72405.88465330 0 24737.14020150 0 47623.49236825 0 41585.33383767 0 1275.88693214 0 40
0.00750000 0.00754703 56951.52173761 0 6223.50352278 0 85645.89009827 0 30406.84916946 0 17513.22180518 0 57
0.00850000 0.00846663 50718.60178862 0 1657.82339024 0 39973.00653730 0 51941.29534019 0 21538.32808966 0 75
0.00950000 0.00948925 49268.09505173 0 -1612.53803311 0 22426.40022931 0 38944.51984429 0 18794.69870058 0 112
0.01050000 0.01054430 53228.53965800 0 -1055.52703117 0 13039.80934006 0 9122.43185153 0 26880.29218780 0 105
0.01150000 0.01145670 46945.26567486 0 4943.69030693 0 11892.75775167 0 -5432.76772756 0 24482.37540760 0 144
0.01250000 0.01249090 41735.28682041 0 4820.68893277 0 16380.69968480 0 -4592.29900521 0 24351.94293149 0 169
0.01350000 0.01339930 40845.55100122 0 -5084.98106485 0 12462.95618678 0 5780.32147513 0 16025.44864655 0 180
0.01450000 0.01448870 54927.82194244 0 -11503.12400288 0 7504.57004389 0 12264.97832125 0 11116.15214136 0 267
0.01550000 0.01550050 66094.99358976 0 -6900.69873485 0 1464.07127076 0 7814.94609929 0 -6216.99299018 0 238
0.01650000 0.01653350 80030.19525944 0 -3137.98798777 0 7374.71431002 0 -23048.61637810 0 -6325.56471710 0 315
0.01750000 0.01747870 80074.78187117 0 -123.03242951 0 7407.89917129 0 -12756.31834606 0 -30649.41364672 0 297
0.01850000 0.01844180 86109.39121873 0 5453.39735388 0 40659.32980446 0 -31033.94544491 0 -23219.64263504 0 388
0.01950000 0.01947590 80497.24556293 0 1605.17347833 0 39428.87241502 0 -9720.49137338 0 -42520.09991646 0 399
0.02050000 0.02045430 82147.72658080 0 -279.14546303 0 45199.28945127 0 17717.96530085 0 -25011.42550203 0 462
0.02150000 0.02154770 89460.26364073 0 -5814.80400644 0 36721.17850405 0 13450.29453911 0 -22593.65547929 0 571
0.02250000 0.02255340 81927.89905728 0 837.59832057 0 15352.10207982 0 13939.85997240 0 -22310.60813317 0 510
0.02350000 0.02348930 89580.60312762 0 5321.01282711 0 29273.99431317 0 1550.72679251 0 -7282.70174014 0 555
0.02450000 0.02439640 79627.03025037 0 1566.15464747 0 3414.84644599 0 -487.21853602 0 -14722.89847695 0 592
0.02550000 0.02547300 76631.51977860 0 1933.80564391 0 14028.03498814 0 975.86783645 0 -7362.54726697 0 837
0.02650000 0.02652900 73243.15911092 0 3265.62548225 0 16550.39499811 0 -4976.47588511 0 -11553.47803702 0 723
0.02750000 0.02749970 69688.20866507 0 3245.59478056 0 19246.44315228 0 -7582.81843836 0 -14325.27906635 0 826
0.02850000 0.02848090 66761.68543831 0 2969.67907408 0 22090.55878571 0 -776.16418068 0 -19264.52180331 0 831
0.02950000 0.02946900 65787.98925823 0 987.19749413 0 24901.51174027 0 689.86357722 0 -16528.10169224 0 996
0.03050000 0.03053250 64319.40387032 0 1117.17190381 0 29385.12810659 0 616.39881600 0 -15183.84862212 0 1041
0.03150000 0.03150510 63601.58160383 0 3327.22599010 0 32692.52303655 0 1366.36891684 0 -10195.84898338 0 1036
0.03250000 0.03246190 60838.54262009 0 34.96178193 0 27569.49916617 0 2541.30377435 0 -2613.88456718 0 1059
0.03350000 0.03345080 59234.09006956 0 1855.35760789 0 36330.43563557 0 3437.93831804 0 -866.68831193 0 1302
0.03450000 0.03451200 56930.78119932 0 3094.26648940 0 30552.36567342 0 3871.40447717 0 5644.11048541 0 1339
0.03550000 0.03553350 53195.48789110 0 1964.68353621 0 33846.22934310 0 3981.90607237 0 8564.72210419 0 1365
0.03650000 0.03647120 49774.18636848 0 2868.26116919 0 32309.87674184 0 2390.48567825 0 12352.70968911 0 1308
0.03750000 0.03744890 47333.23574411 0 3503.08800891 0 35390.34578224 0 1501.34878370 0 10954.80849935 0 1579
0.03850000 0.03847530 43342.40125820 0 815.49245593 0 30832.41839636 0 2882.81281959 0 10982.30357658 0 1662
0.03950000 0.03950240 43460.96615358 0 388.82963701 0 33791.99339003 0 2166.62095905 0 9525.50813103 0 1683
0.04050000 0.04050350 42397.43127821 0 -363.14131576 0 24683.68063221 0 3788.94142786 0 4751.82369092 0 1822
0.04150000 0.04152450 43540.15729979 0 -715.00732070 0 23349.18781540 0 5320.96846232 0 7932.66806370 0 1887
0.04250000 0.04250150 42699.33365915 0 -238.59604699 0 17019.44171705 0 4505.55475388 0 609.66202297 0 1920
0.04350000 0.04349210 42803.47999849 0 491.11154615 0 16586.21956425 0 1955.06746846 0 1588.37031495 0 2005
0.04450000 0.04448520 41090.11189393 0 394.95974157 0 13142.84655970 0 1493.13020676 0 67.78728842 0 2151
0.04550000 0.04548030 39309.53113586 0 1106.66188558 0 12243.68322311 0 1877.52891059 0 2787.76126174 0 2274
0.04650000 0.04648670 38382.30707099 0 1044.52456380 0 10030.25741294 0 -1082.73595552 0 3570.68885431 0 2311
0.04750000 0.04749250 37402.39982061 0 756.14567930 0 10048.13642242 0 880.74751318 0 685.67997773 0 2568
0.04850000 0.04851840 35482.73545281 0 1184.88366118 0 11333.20686563 0 -1119.44559918 0 -443.50701973 0 2493
0.04950000 0.04949480 34655.33216048 0 1259.95997332 0 12470.72002464 0 -1286.31265727 0 -143.86946121 0 2644
0.05050000 0.05050630 34487.96599853 0 215.29566044 0 14586.03310661 0 -1360.79004477 0 2944.44660103 0 2829
0.05150000 0.05149060 36133.12324186 0 -835.69618030 0 13522.38731927 0 2118.62934985 0 1272.22683714 0 2784
0.05250000 0.05249300 36133.34506580 0 -1433.99194463 0 14048.77552644 0 2850.55961886 0 2243.26112996 0 3055
0.05350000 0.05348950 38030.05065591 0 -463.34473459 0 11744.13571256 0 1904.22542165 0 4387.55550955 0 3009
0.05450000 0.05448610 38630.74988263 0 651.53683705 0 13151.94134120 0 802.07210763 0 6144.10164383 0 3336
0.05550000 0.05550870 37182.57229710 0 1056.00617088 0 13074.41387453 0 -1031.50793506 0 5860.30009632 0 3349
0.05650000 0.05647670 36401.08656013 0 682.75966558 0 14927.19832473 0 143.92158984 0 7006.09837945 0 3324
0.05750000 0.05747970 36018.32935344 0 32.39472440 0 14796.43311272 0 961.17421873 0 5363.50320262 0 3639
0.05850000 0.05849280 35792.51258358 0 -9.33669159 0 14432.30911691 0 527.55943756 0 4220.57753949 0 3846
0.05950000 0.05951020 35930.93072149 0 337.32100927 0 14352.67432282 0 128.24085559 0 4948.75898393 0 3787
0.06050000 0.06049470 35071.36295801 0 710.57638752 0 13262.18783887 0 351.93477036 0 1687.17069737 0 3930
0.06150000 0.06148310 33892.70145832 0 888.16752394 0 13590.04362066 0 -545.32198947 0 725.72696255 0 4083
0.06250000 0.06249100 33220.24218735 0 835.18043964 0 13863.66344937 0 12.93422115 0 707.24237372 0 4303
0.06350000 0.06350600 31843.71373410 0 388.78305399 0 12583.96114548 0 1611.47327820 0 705.21157556 0 4470
0.06450000 0.06451750 31918.02475366 0 242.45578353 0 11387.66464265 0 1355.95428290 0 1406.59668817 0 4479
0.06550000 0.06550280 31816.65121355 0 -341.55895562 0 9482.00845660 0 2269.91327623 0 1011.22102672 0 4636
0.06650000 0.06648880 31351.37550157 0 390.84158014 0 10412.50442457 0 918.90788540 0 1342.70030255 0 4653
0.06750000 0.06749660 30408.18011309 0 1135.45019638 0 8277.75956555 0 -797.12210643 0 1122.95041742 0 5220
0.06850000 0.06852730 29721.30228609 0 89.18941661 0 9562.90764714 0 427.38041936 0 2586.66676987 0 5029
0.06950000 0.06949320 29132.47064011 0 227.40613839 0 9005.67482126 0 -633.51475113 0 -522.25895454 0 5040
0.07050000 0.07048030 29163.63690353 0 928.13687038 0 11399.53222338 0 -1359.11527404 0 -1057.16298272 0 5475
0.07150000 0.07148790 27852.87924819 0 619.56757096 0 9944.68882849 0 -896.87965914 0 -1769.24555479 0 5509
0.07250000 0.07249820 26842.24938227 0 676.98337021 0 12173.69777037 0 -915.27884576 0 -2064.83704465 0 5916
0.07350000 0.07351270 27022.14859677 0 207.15583100 0 11391.99020946 0 422.82526478 0 -4193.72575168 0 5721
0.07450000 0.07449140 26313.08837587 0 343.71952078 0 13185.32584402 0 79.83964850 0 -4116.14282903 0 6028
0.07550000 0.07549160 26018.06253705 0 651.30835839 0 11672.81931619 0 -165.40745657 0 -3268.78647338 0 6183
0.07650000 0.07648840 25377.21317738 0 -14.62651598 0 11796.59707413 0 975.83234462 0 -3610.08478587 0 6330
0.07750000 0.07749960 25772.50343662 0 -149.83319781 0 10698.94567695 0 1565.18971333 0 -2288.66849027 0 6583
0.07850000 0.07848650 25494.66895306 0 -136.38844887 0 11358.05114680 0 1632.25818128 0 -2340.89693669 0 6549
0.07950000 0.07947320 25771.17249298 0 70.65269915 0 9480.71078655 0 327.28347603 0 -4.74371603 0 6828
0.08050000 0.08048110 24943.43646474 0 800.25093309 0 8706.41214520 0 -445.94930130 0 -2228.05509894 0 7147
0.08150000 0.08149960 24743.46218376 0 608.90338510 0 12202.75670637 0 -1246.04052115 0 -389.64927647 0 7386
0.08250000 0.08250610 23169.73224878 0 588.62534972 0 10581.05734459 0 -649.57258607 0 -2332.48980941 0 7227
0.08350000 0.08350160 23357.06256523 0 484.64648745 0 13576.62327235 0 606.73949257 0 -1691.91772966 0 7798
0.08450000 0.08449610 22634.47108405 0 262.47317578 0 12582.18655397 0 -552.30611619 0 -623.92308401 0 7371
0.08550000 0.08548940 22456.34646107 0 457.08486303 0 11786.61499688 0 1656.99155047 0 -1646.26636302 0 8256
0.08650000 0.08650700 21532.44975528 0 304.43339207 0 12513.53204486 0 455.05739223 0 492.20624729 0 8037
0.08750000 0.08749060 20871.19259323 0 533.48657321 0 10655.80092082 0 886.49829880 0 -630.31715905 0 8155
0.08850000 0.08849210 20527.25457586 0 424.84718998 0 11964.40688396 0 1235.55934003 0 1040.16350516 0 8718
0.08950000 0.08949900 19841.92951643 0 251.91324717 0 9367.51403050 0 210.25914791 0 468.80936733 0 8571
0.09050000 0.09049190 18908.16164536 0 619.79272226 0 9601.28318858 0 834.16337688 0 1362.35390354 0 8932
0.09150000 0.09150830 18407.72683906 0 390.68186690 0 8895.13995247 0 479.31716731 0 995.55471103 0 9285
0.09250000 0.09250820 17987.81412260 0 -193.33065400 0 7651.16239396 0 1479.93168239 0 1290.89332161 0 9204
0.09350000 0.09350330 18016.76214663 0 -111.91017721 0 7116.71088661 0 1610.86326237 0 1836.53584667 0 9349
0.09450000 0.09448040 18236.58967015 0 -136.38512151 0 5698.82335995 0 117.65208987 0 845.73260441 0 9564
0.09550000 0.09549270 18453.64439442 0 -3.43885889 0 5644.48758610 0 250.89063881 0 957.97995401 0 10155
0.09650000 0.09649430 18400.73938498 0 97.18417320 0 5831.52953144 0 -159.69770838 0 863.85340199 0 9913
0.09750000 0.09749140 18192.55761826 0 -1.41560274 0 5410.88479598 0 -52.91044413 0 832.44978695 0 10476
0.09850000 0.09850240 18067.00526881 0 94.29347453 0 5250.10680502 0 413.17925079 0 212.27330927 0 10575
0.09950000 0.09950330 18016.09667481 0 355.68692229 0 5899.40765676 0 238.59826523 0 879.33116733 0 10882
0.10050000 0.10051200 17739.81495883 0 243.27098650 0 5608.79611432 0 32.86987128 0 1186.01496326 0 10875
0.10150000 0.10150300 17368.70350895 0 205.90696222 0 5656.39953162 0 180.72994515 0 1556.77149485 0 11118
0.10250000 0.10250800 16953.89274308 0 328.50683505 0 6058.61069775 0 149.77996007 0 1927.98276551 0 11575
0.10350000 0.10349800 16592.09789863 0 436.28554139 0 6005.92751225 0 -603.09270702 0 1119.14613686 0 11364
0.10450000 0.10450100 16169.52329491 0 200.83495786 0 6432.25094055 0 146.80973752 0 1337.52071358 0 12093
0.10550000 0.10551000 16113.18001441 0 188.02573450 0 6583.06903665 0 -345.09815657 0 458.05645188 0 12067
0.10650000 0.10649700 15917.64221221 0 -33.89780341 0 5903.50030843 0 358.02827397 0 1468.29701679 0 12054
0.10750000 0.10749900 16090.77579657 0 -132.91690423 0 6190.97304213 0 213.19609686 0 -664.31833241 0 12807
0.10850000 0.10850100 16178.17442852 0 192.96908098 0 6148.79322014 0 548.62716616 0 1067.79611323 0 12736
0.10950000 0.10950300 15650.45527773 0 135.48895280 0 5686.77832007 0 575.64975841 0 323.88180592 0 12933
0.11050000 0.11050200 15960.56514440 0 24.14653396 0 5879.22167831 0 531.18071336 0 1821.46291002 0 13428
0.11150000 0.11150900 15616.18347916 0 33.85088765 0 5626.68621500 0 653.50552451 0 2287.45954980 0 13453
0.11250000 0.11250000 15836.45465055 0 -27.70503359 0 5125.85212561 0 814.14709374 0 3066.37212908 0 13668
0.11350000 0.11349100 15624.50187687 0 -149.80325158 0 4181.32579350 0 793.79696558 0 2878.11015208 0 13791
0.11450000 0.11448600 15679.18147782 0 303.13683115 0 4896.68581426 0 -120.83415427 0 3172.63688704 0 14205
0.11550000 0.11549300 15298.64251053 0 436.28221404 0 4247.41823611 0 -461.52466917 0 3131.54400235 0 14776
0.11650000 0.11649800 14809.52072511 0 230.63700406 0 5369.51463136 0 -92.51899394 0 2720.79261457 0 14553
0.11750000 0.11747300 14635.16710909 0 24.42104109 0 3779.89101115 0 282.17114156 0 2495.40840138 0 14568
0.11850000 0.11849100 14379.07137155 0 179.62858929 0 4828.87423612 0 82.20739722 0 1556.40548535 0 16015
0.11950000 0.11950300 14081.60546940 0 288.85691508 0 3696.86231080 0 -276.61223365 0 1096.98925272 0 15270
0.12050000 0.12050700 13651.93249963 0 226.04192116 0 4238.88910566 0 203.54010080 0 1510.70975392 0 15999
0.12150000 0.12150000 13601.35664154 0 134.81571715 0 4084.14472583 0 -448.18639572 0 -155.34108622 0 15670
0.12250000 0.12250700 13588.04720521 0 54.98150334 0 4011.26447069 0 178.26104471 0 197.23586445 0 16887
0.12350000 0.12352200 13329.62231631 0 138.13309415 0 3939.04968736 0 -365.71447345 0 -415.33981596 0 16407
0.12450000 0.12449800 13229.24698393 0 131.00810923 0 4115.04480053 0 -47.32669194 0 370.33173874 0 16306
0.12550000 0.12549900 13122.32784535 0 13.60978595 0 4114.16859597 0 843.50216471 0 -576.41283276 0 17523
0.12650000 0.12650100 13479.68621102 0 -171.65069133 0 3416.41030476 0 671.60746705 0 547.98498586 0 17154
0.12750000 0.12750600 13184.21672432 0 85.94823613 0 3190.48262293 0 449.64045164 0 667.76547642 0 18007
0.12850000 0.12850300 13192.64603400 0 205.70288420 0 3198.41282875 0 -251.76351601 0 652.15350760 0 17496
0.12950000 0.12949900 12917.02978984 0 245.09327016 0 3227.28321440 0 -192.52432399 0 717.78899290 0 18405
0.13050000 0.13049000 12302.57747891 0 328.15746235 0 3598.43902908 0 -384.71923942 0 601.19722146 0 18100
0.13150000 0.13148800 12080.64262797 0 312.35583405 0 3802.31741138 0 114.01195903 0 1241.97005187 0 19059
0.13250000 0.13249300 11895.53055091 0 184.49873387 0 3731.21174775 0 30.49402598 0 492.88724678 0 18957
0.13350000 0.13349100 11731.60266001 0 -28.77899419 0 3415.55628260 0 752.94697810 0 441.24108819 0 19468
0.13450000 0.13450700 11701.76734022 0 -113.55832907 0 3169.47589591 0 38.73855632 0 696.90426904 0 19953
0.13550000 0.13551000 11841.84915768 0 -18.96117757 0 3026.57691443 0 -186.53951411 0 535.45415155 0 19956
0.13650000 0.13649900 11887.87762501 0 -77.42442945 0 2785.57629594 0 428.39415477 0 68.89696267 0 19723
0.13750000 0.13749600 12036.27784018 0 -19.18655069 0 2800.29431429 0 -277.79455524 0 -537.16219588 0 20946
0.13850000 0.13851100 12037.38695988 0 165.27214396 0 2521.71672054 0 -106.45519381 0 -700.42683320 0 20955
0.13950000 0.13949800 11711.08394566 0 207.86566761 0 2668.37561779 0 -101.04867895 0 -357.68001038 0 20506
0.14050000 0.14048300 11455.76459191 0 144.18112385 0 3034.45166426 0 80.81678295 0 -536.36695706 0 21447
0.14150000 0.14148400 11514.43702377 0 47.57901667 0 2317.25050480 0 562.32923087 0 -351.64861748 0 21771
0.14250000 0.14249400 11126.13421861 0 189.45538979 0 2587.45424485 0 308.53491671 0 -110.24583219 0 22470
0.14350000 0.14350900 10932.70374383 0 356.92469987 0 2676.54982994 0 -411.89378107 0 259.40313246 0 22519
0.14450000 0.14449900 10460.64021932 0 266.40500510 0 2628.41403518 0 194.81798352 0 349.40819570 0 22218
0.14550000 0.14550500 10173.65549829 0 173.51733978 0 2988.10155221 0 -110.52455397 0 954.23667504 0 23559
0.14650000 0.14650700 10160.76752743 0 -21.26714832 0 2436.80251671 0 240.27636333 0 202.65502328 0 23044
0.14750000 0.14750500 10273.14353491 0 -104.63612660 0 2647.94563301 0 174.51443838 0 442.48219313 0 23649
0.14850000 0.14849900 10266.14498964 0 -21.08003983 0 2648.68874321 0 -176.76816960 0 -146.81195576 0 23640
0.14950000 0.14949500 10221.70256347 0 210.28243942 0 2486.71290297 0 -315.07761379 0 -252.82050708 0 24457
0.15050000 0.15050000 10221.33655397 0 81.73768503 0 2750.77211992 0 -273.01424936 0 -294.82176080 0 24591
0.15150000 0.15149900 9869.13559488 0 159.55241370 0 2919.28067515 0 -154.74992542 0 -1086.81751600 0 25020
0.15250000 0.15250500 9905.62563284 0 153.50771136 0 3295.09479254 0 -109.11519558 0 -905.45869998 0 25297
0.15350000 0.15350100 9742.37430496 0 71.87350720 0 3112.03458691 0 327.24022036 0 -808.34528862 0 25452
0.15450000 0.15450400 9685.69828855 0 -29.73771726 0 2812.08425665 0 284.38272623 0 -484.46902830 0 26061
0.15550000 0.15549900 9787.92585082 0 -10.38720540 0 2581.18771858 0 488.15463304 0 -569.98326589 0 26128
0.15650000 0.15649500 9670.19279522 0 119.11834610 0 2265.09969675 0 -13.91080104 0 -78.08080648 0 26331
0.15750000 0.15749700 9564.74878583 0 88.29213878 0 2504.79155400 0 -4.49197913 0 -89.83015506 0 27345
0.15850000 0.15849900 9346.62930665 0 75.76097173 0 2470.44211705 0 222.32415195 0 253.06894989 0 26980
0.15950000 0.15949700 9402.27384174 0 117.80847574 0 2274.23884304 0 35.95488771 0 115.27746460 0 27777
0.16050000 0.16050000 9138.93555259 0 156.45796975 0 2327.35458522 0 -142.02721340 0 39.18841527 0 28224
0.16150000 0.16150500 8914.07262567 0 150.92457159 0 2557.49692190 0 72.42252145 0 -160.64822396 0 28075
0.16250000 0.16249700 8882.47380556 0 46.84012113 0 2153.04533398 0 67.01711570 0 -283.91245948 0 28590
0.16350000 0.16349900 8659.04164304 0 79.83743026 0 2325.45799054 0 226.33140140 0 -66.43493878 0 29163
0.16450000 0.16449100 8584.91917383 0 138.05101929 0 1938.29757867 0 -47.11828835 0 -625.85849787 0 28996
0.16550000 0.16550500 8424.88429307 0 132.01629904 0 2211.36284754 0 -104.35640661 0 -269.77007425 0 30777
0.16650000 0.16650700 8330.37620387 0 49.18956938 0 2110.29986094 0 253.30408326 0 -395.61855866 0 29211
0.16750000 0.16749900 8389.14845650 0 -107.89849127 0 1919.18744633 0 181.13477384 0 -173.89554959 0 30922
0.16850000 0.16850800 8474.71704096 0 12.42380426 0 1596.34488556 0 22.66353002 0 -391.01793017 0 30867
0.16950000 0.16949900 8504.87400546 0 20.48377708 0 1951.93975092 0 -4.38649075 0 -114.23932857 0 30852
0.17050000 0.17049200 8476.19217015 0 60.79284689 0 1812.45685810 0 -13.77881579 0 -327.69163207 0 31257
0.17150000 0.17149500 8336.19908227 0 167.28630533 0 2245.05790387 0 -136.32744729 0 47.64645115 0 32608
0.17250000 0.17250900 8250.57504183 0 207.93554215 0 2182.66992103 0 -95.17245189 0 283.41224650 0 32361
0.17350000 0.17350400 7946.33241834 0 129.47419669 0 2453.26185298 0 64.64914516 0 40.46445747 0 32508
0.17450000 0.17449800 7975.84609342 0 81.36047342 0 2412.46843060 0 234.19949652 0 737.53797818 0 32791
0.17550000 0.17549800 7802.33540836 0 -4.22312851 0 2252.89938011 0 117.21287847 0 72.07126324 0 33633
0.17650000 0.17650100 7759.29047301 0 132.61855103 0 2354.66111211 0 45.82239290 0 886.94194668 0 33984
0.17750000 0.17750300 7680.27678595 0 48.97173827 0 2125.93844864 0 -53.55395538 0 280.53740825 0 34069
0.17850000 0.17849800 7695.41626978 0 -43.02175475 0 1805.89086950 0 219.79979552 0 443.00237027 0 34536
