### header ###
fiducial parameters:
Omega_m = 0.31
Omega_nu = 0
Omega_de = 0.69
Omega_k = 0
H_0 = 100
w_de = -1
zeff = 0
beta = 0
fgrowth = 0
b_1 = 2
gamma = 0.55
Lx = 3500 Ly = 3500 Lz = 3500
nx = 700 ny = 700 nz = 700
xoffset = 1379.75464 yoffset = 22.6059522 zoffset = 368.141391
bins = 400 dk = 0.001
kx_ny = 0.628318531 ky_ny = 0.628318531 kz_ny = 0.628318531
############################
A(data) = 3.34893447 (not used)
A(ran) = 3.35205639 (used)
Ngal = 188492
weighted Ngal = 0
Nran = 9399747
weighted Nran = 0
SN(data) = 6679.02767
SN(ran) = 133.329326
SN(data+ran) = 6812.357
############################
13 columns: k_central k_mean P_0(k) sigma^{lin}_{P_0(k)} P^img_1(k) sigma^{lin}_{P_1(k)} P_2(k) sigma^{lin}_{P_2(k)} P^img_3(k) sigma^{lin}_{P_3(k)} P_4(k) sigma^{lin}_{P_4(k)} N_modes
### header ###
0.00050000 0 0 0 0 0 0 0 0 0 0 0 0
0.00150000 0.00179520 45730.00322525 0 -37359.47688842 0 -82131.97708113 0 113822.29956144 0 42465.53122748 0 3
0.00250000 0.00253879 75345.16275654 0 -28299.85448521 0 1499.38564184 0 -104885.78944435 0 -35699.90108906 0 6
0.00350000 0.00331552 93077.21387751 0 -14049.55191022 0 -80425.70734262 0 -6102.49856408 0 56552.23864748 0 7
0.00450000 0.00420575 101162.25280489 0 -6047.85223671 0 -35755.68980971 0 -48721.40995415 0 -11804.02817608 0 24
0.00550000 0.00557378 99933.34818303 0 4842.35004041 0 -27155.13204818 0 -50502.43436010 0 -6460.83295508 0 45
0.00650000 0.00659388 106337.95986078 0 3415.87792731 0 35092.54714418 0 -22463.99938696 0 -81868.89388952 0 40
0.00750000 0.00754703 80509.00223170 0 17619.80820785 0 12114.80351457 0 -19922.22978234 0 -8886.44445407 0 57
0.00850000 0.00846663 69843.59633432 0 12055.57652287 0 50022.62918012 0 -16387.68713888 0 -31872.77267011 0 75
0.00950000 0.00948925 57834.71375060 0 -3189.78387752 0 38004.42999096 0 17797.15644706 0 -4469.58600218 0 112
0.01050000 0.01054430 64649.81062740 0 -7606.62014701 0 16820.57655577 0 19854.90621686 0 -19519.28659721 0 105
0.01150000 0.01145670 82026.94344603 0 -15329.69786199 0 -12915.47702227 0 13308.99268999 0 -36106.39345721 0 144
0.01250000 0.01249090 87077.20906443 0 -4726.08102280 0 -12543.58918859 0 -9002.43619175 0 -34455.80152738 0 169
0.01350000 0.01339930 94889.29363492 0 10285.68767866 0 -10404.96241064 0 -38361.34470876 0 -35485.28642811 0 180
0.01450000 0.01448870 70509.95544697 0 13598.91657822 0 12850.81534406 0 -34573.81186291 0 -42876.90372229 0 267
0.01550000 0.01550050 61904.51755878 0 5425.83572946 0 17095.63824008 0 1288.57526144 0 -40292.32209744 0 238
0.01650000 0.01653350 59679.51253900 0 -6858.85164877 0 15055.63438540 0 19571.30431089 0 -31103.59816175 0 315
0.01750000 0.01747870 68283.84130749 0 -6736.43810805 0 804.11621522 0 22489.62005191 0 -33745.29945088 0 297
0.01850000 0.01844180 74321.77801413 0 -6504.39917669 0 -5135.29073421 0 7034.83567074 0 -15632.70936261 0 388
0.01950000 0.01947590 80705.42732965 0 67.71464108 0 -20119.65308801 0 -9816.10858227 0 -10929.22110799 0 399
0.02050000 0.02045430 76315.64248951 0 2764.79139286 0 -1616.04285134 0 -14866.52947743 0 -19729.02113150 0 462
0.02150000 0.02154770 76457.16616257 0 6559.41151356 0 9232.99999391 0 -19091.16639501 0 -17479.94821434 0 571
0.02250000 0.02255340 66275.33645213 0 5841.95525657 0 17155.64161557 0 -6247.37177862 0 -26354.68036443 0 510
0.02350000 0.02348930 64252.52395272 0 425.09119631 0 28116.62791162 0 -559.20151333 0 -16134.91876043 0 555
0.02450000 0.02439640 64998.40694749 0 -1030.34003202 0 22847.42206546 0 9325.96640673 0 -19422.23862391 0 592
0.02550000 0.02547300 68417.93387859 0 -1776.57683597 0 18630.88172165 0 6406.20881011 0 -12260.20910657 0 837
0.02650000 0.02652900 68615.02444836 0 1249.37897143 0 16447.91233831 0 11.45121720 0 -12722.15745946 0 723
0.02750000 0.02749970 65332.14106366 0 5192.98714073 0 21223.55992027 0 -13091.27249390 0 -19195.64547026 0 826
0.02850000 0.02848090 58359.43827822 0 5521.99640701 0 19274.06023268 0 -4843.12642420 0 -20993.75031950 0 831
0.02950000 0.02946900 56548.80037642 0 2106.71740433 0 30856.37538177 0 -4019.66050678 0 -20356.33923089 0 996
0.03050000 0.03053250 50703.29593683 0 -170.89870818 0 19581.84094800 0 2578.85856722 0 -31655.38520992 0 1041
0.03150000 0.03150510 53232.97613678 0 538.41661025 0 27963.12574586 0 7896.01165779 0 -27305.75050274 0 1036
0.03250000 0.03246190 50384.09128866 0 -1816.21677386 0 10553.67317932 0 1422.47928220 0 -25750.21013075 0 1059
0.03350000 0.03345080 53521.56908137 0 -384.15691574 0 14167.11859787 0 8897.81293094 0 -19481.79835152 0 1302
0.03450000 0.03451200 54640.22720557 0 -498.47166444 0 7186.61870098 0 -1193.29078846 0 -18552.57787120 0 1339
0.03550000 0.03553350 52035.79233819 0 331.38721890 0 3714.85223225 0 3297.66795024 0 -17054.48989940 0 1365
0.03650000 0.03647120 53456.02010741 0 1991.38004727 0 6767.73746584 0 -4182.24636284 0 -11538.39400917 0 1308
0.03750000 0.03744890 51920.99844978 0 353.09158221 0 10717.95598852 0 -3323.86535743 0 -14346.46325253 0 1579
0.03850000 0.03847530 49184.68925068 0 1444.20693702 0 12338.40204505 0 -235.86095782 0 -11123.25050740 0 1662
0.03950000 0.03950240 49659.94703991 0 1581.78214397 0 16775.76812010 0 -3152.14035508 0 -12024.52117142 0 1683
0.04050000 0.04050350 47323.03184292 0 1503.86648541 0 15661.32465074 0 -90.50294707 0 -14043.34083993 0 1822
0.04150000 0.04152450 44865.33351116 0 2178.56617816 0 21640.47801356 0 -1675.78003810 0 -8839.09613430 0 1887
0.04250000 0.04250150 42769.09728795 0 2848.85157453 0 20778.24836280 0 -3083.24183964 0 -7742.75349836 0 1920
0.04350000 0.04349210 38957.05289685 0 1301.35232033 0 22045.86126201 0 3196.08367739 0 -8138.26558153 0 2005
0.04450000 0.04448520 38559.43348625 0 1759.90676696 0 23351.84970267 0 1157.32203676 0 -10193.67510878 0 2151
0.04550000 0.04548030 35310.71098815 0 1106.26371161 0 19560.76767379 0 2164.85745873 0 -6342.01296218 0 2274
0.04650000 0.04648670 34484.97137535 0 573.34611680 0 19697.63304413 0 3155.35680219 0 -3026.44382006 0 2311
0.04750000 0.04749250 33879.39202198 0 -119.20042096 0 14436.96741962 0 3856.09862538 0 -6010.16434948 0 2568
0.04850000 0.04851840 33116.98314376 0 -256.99634273 0 13459.72205652 0 2472.63817405 0 -1963.47459574 0 2493
0.04950000 0.04949480 33262.72147166 0 201.72890833 0 9747.54280273 0 1987.78649945 0 -4382.02100227 0 2644
0.05050000 0.05050630 33654.68437181 0 -516.95514416 0 9705.46280151 0 2110.03367222 0 488.99534577 0 2829
0.05150000 0.05149060 33045.88857132 0 41.50780637 0 7039.40524389 0 279.93404714 0 -4230.85907907 0 2784
0.05250000 0.05249300 33743.08121149 0 952.05725484 0 9161.52832078 0 -2633.28307064 0 -1448.74323657 0 3055
0.05350000 0.05348950 31977.36265733 0 1179.04969158 0 11075.50290454 0 -1694.85689685 0 -5434.56450146 0 3009
0.05450000 0.05448610 31428.12658445 0 181.25677701 0 9065.07927212 0 -917.22756906 0 -2247.13195769 0 3336
0.05550000 0.05550870 31368.34503290 0 -641.75440134 0 12256.88174748 0 2149.62924532 0 -4188.79016904 0 3349
0.05650000 0.05647670 32577.39641223 0 -309.86364210 0 9599.69714741 0 1462.66268874 0 -6046.37710752 0 3324
0.05750000 0.05747970 33465.91219975 0 -546.69951613 0 8844.85246551 0 129.99659207 0 -4601.87070818 0 3639
0.05850000 0.05849280 32350.24869873 0 -262.17260434 0 8987.90672375 0 1081.41721220 0 -4810.56266996 0 3846
0.05950000 0.05951020 33350.34192755 0 440.64549092 0 6814.17630746 0 -1136.83659600 0 -5031.98732583 0 3787
0.06050000 0.06049470 32994.97997733 0 272.62162099 0 9114.06908904 0 -98.47008657 0 -7395.37720994 0 3930
0.06150000 0.06148310 32296.45639353 0 696.54935074 0 9174.48283881 0 -1845.03170353 0 -6256.24473617 0 4083
0.06250000 0.06249100 31405.83327859 0 373.75780948 0 8381.07406512 0 779.71558194 0 -6764.82048104 0 4303
0.06350000 0.06350600 31353.37191702 0 19.06288384 0 7943.43761594 0 657.73016142 0 -5876.04959599 0 4470
0.06450000 0.06451750 31894.51141613 0 -108.02204721 0 7574.10075756 0 1426.97121696 0 -5327.82282203 0 4479
0.06550000 0.06550280 30727.27384929 0 -11.93368427 0 7432.88763802 0 1743.35870111 0 -5275.38364286 0 4636
0.06650000 0.06648880 30730.71212035 0 655.33446288 0 6168.12517642 0 -4.79481317 0 -5087.44331057 0 4653
0.06750000 0.06749660 30197.55828305 0 794.39478110 0 5734.32628138 0 -1347.09241654 0 -4761.43975868 0 5220
0.06850000 0.06852730 29502.80570621 0 785.30665432 0 7875.17129872 0 -638.49913503 0 -1974.12214481 0 5029
0.06950000 0.06949320 27401.91118028 0 924.92264150 0 7783.36946158 0 -656.77631849 0 -4021.82329018 0 5040
0.07050000 0.07048030 28188.94251572 0 5.65266180 0 9692.91865776 0 416.39458879 0 -1104.73201731 0 5475
0.07150000 0.07148790 28101.87661968 0 -202.50972860 0 8517.76197631 0 1946.16123731 0 -1721.78632305 0 5509
0.07250000 0.07249820 27930.18489092 0 73.93491706 0 8825.30977649 0 741.51306317 0 684.38674417 0 5916
0.07350000 0.07351270 28279.89033070 0 284.79420964 0 9559.30300813 0 -43.51376025 0 1869.39906323 0 5721
0.07450000 0.07449140 27886.15283904 0 523.58102522 0 8802.69482591 0 61.02886756 0 2250.37058720 0 6028
0.07550000 0.07549160 26577.61342309 0 660.62385471 0 11140.55277464 0 76.90536143 0 4193.74793408 0 6183
0.07650000 0.07648840 26237.89006056 0 1005.92719842 0 9863.12416613 0 -228.38992756 0 2666.40138473 0 6330
0.07750000 0.07749960 25104.70246836 0 495.54691581 0 11633.77830293 0 712.16464693 0 4430.71135688 0 6583
0.07850000 0.07848650 23904.85678250 0 311.00936274 0 11188.02309758 0 1442.13288319 0 4368.16809728 0 6549
0.07950000 0.07947320 24309.68547111 0 138.48468510 0 8548.48459186 0 2304.00761565 0 5989.00234571 0 6828
0.08050000 0.08048110 23464.86899957 0 168.18247404 0 9698.25352350 0 732.49592005 0 4800.58059271 0 7147
0.08150000 0.08149960 22598.75742988 0 964.58254355 0 6653.36504291 0 389.30766760 0 4727.01268335 0 7386
0.08250000 0.08250610 21328.26081946 0 465.29678525 0 8795.07517361 0 -430.59353912 0 4908.03210874 0 7227
0.08350000 0.08350160 21316.83688661 0 59.08247341 0 5975.97018929 0 368.81224476 0 3815.05010548 0 7798
0.08450000 0.08449610 21470.33905237 0 -549.59210030 0 6393.65357517 0 2262.39344470 0 5354.39732992 0 7371
0.08550000 0.08548940 22127.71429549 0 -507.85925354 0 4486.04533845 0 906.65433101 0 2598.95581609 0 8256
0.08650000 0.08650700 22059.61434623 0 353.60843198 0 3936.46543847 0 -88.97557833 0 3288.05188248 0 8037
0.08750000 0.08749060 21555.18670902 0 774.67352381 0 5413.24722093 0 -1710.28475181 0 2158.63529724 0 8155
0.08850000 0.08849210 20634.95009823 0 500.07766976 0 6314.07423706 0 -1028.79281004 0 2812.45026615 0 8718
0.08950000 0.08949900 20725.89791320 0 -63.25342893 0 6092.25029810 0 567.42119939 0 1315.99270030 0 8571
0.09050000 0.09049190 20580.38140924 0 -7.23439958 0 6823.14908579 0 436.82790093 0 1525.13940115 0 8932
0.09150000 0.09150830 20405.80596928 0 175.54813794 0 5155.37689188 0 769.22330963 0 426.00178358 0 9285
0.09250000 0.09250820 20415.12257472 0 323.32835520 0 6221.31855698 0 -23.17915977 0 1683.97643265 0 9204
0.09350000 0.09350330 19373.21553340 0 570.69642985 0 5146.12683363 0 -627.99798976 0 611.79264190 0 9349
0.09450000 0.09448040 19300.67910536 0 305.61460455 0 5672.75904712 0 -185.47254097 0 758.68778164 0 9564
0.09550000 0.09549270 18431.01835265 0 259.64935704 0 5925.43869600 0 240.99729113 0 347.68351457 0 10155
0.09650000 0.09649430 18193.44491402 0 260.92040821 0 5726.66226429 0 242.02655421 0 74.48393131 0 9913
0.09750000 0.09749140 17812.35138688 0 269.12234835 0 5520.42145704 0 217.40187874 0 -108.11654420 0 10476
0.09850000 0.09850240 17719.85080433 0 345.72259095 0 6197.78303706 0 -304.07181905 0 304.91918650 0 10575
0.09950000 0.09950330 17189.24794232 0 261.82766812 0 5322.67650665 0 -304.48219334 0 705.30474161 0 10882
0.10050000 0.10051200 17193.46259717 0 142.50635311 0 6708.23319421 0 456.33287988 0 1213.27712536 0 10875
0.10150000 0.10150300 16795.28862672 0 33.36520413 0 6126.91028856 0 699.30662230 0 1387.63074139 0 11118
0.10250000 0.10250800 16647.55388337 0 281.91160755 0 6740.18693262 0 211.73538622 0 2677.83640878 0 11575
0.10350000 0.10349800 16559.60069157 0 317.27921638 0 6690.34309353 0 113.66480456 0 2403.87275297 0 11364
0.10450000 0.10450100 16139.68797511 0 120.31619537 0 6970.31817810 0 19.17368490 0 2345.92124891 0 12093
0.10550000 0.10551000 15747.39233906 0 486.07503361 0 7266.93005808 0 -641.32073554 0 2757.44902048 0 12067
0.10650000 0.10649700 15424.97124377 0 457.19688412 0 7516.28234787 0 -252.35689504 0 2624.24374513 0 12054
0.10750000 0.10749900 15276.90376451 0 113.44298063 0 8535.96263050 0 -83.35777617 0 2226.99034404 0 12807
0.10850000 0.10850100 15075.26580399 0 111.62735169 0 7719.82799427 0 585.30797271 0 1925.44288141 0 12736
0.10950000 0.10950300 15161.99896413 0 -201.19985824 0 7871.81066605 0 455.51213130 0 1704.42859982 0 12933
0.11050000 0.11050200 14927.30923670 0 -59.27069102 0 6909.19459171 0 758.90849646 0 1592.04150114 0 13428
0.11150000 0.11150900 15282.44936299 0 253.97510068 0 6660.94033042 0 239.53879873 0 1911.90052993 0 13453
0.11250000 0.11250000 14799.76047180 0 62.66171357 0 5891.31108299 0 176.39439626 0 1329.03594791 0 13668
0.11350000 0.11349100 14751.84650098 0 -22.48008162 0 6433.49315460 0 431.32001252 0 1952.33903401 0 13791
0.11450000 0.11448600 14597.01339159 0 -58.21980011 0 5043.62199143 0 594.98393293 0 729.88616141 0 14205
0.11550000 0.11549300 15063.39822326 0 41.62714765 0 5033.58445819 0 83.49874528 0 817.40346917 0 14776
0.11650000 0.11649800 14585.36763479 0 32.40559377 0 4349.43506564 0 427.98045312 0 115.46268759 0 14553
0.11750000 0.11747300 14487.87601362 0 260.57325374 0 4730.99442305 0 -248.93747902 0 372.34700923 0 14568
0.11850000 0.11849100 14049.33008628 0 329.73241231 0 4214.93212025 0 -468.96020760 0 -101.72890206 0 16015
0.11950000 0.11950300 13855.12322772 0 207.04491903 0 4699.21814380 0 65.62494866 0 -1081.82425913 0 15270
0.12050000 0.12050700 13599.36022609 0 75.83062445 0 4540.15928836 0 157.96637254 0 -157.39517589 0 15999
0.12150000 0.12150000 13264.62790220 0 204.15233487 0 4306.86705175 0 182.70195997 0 -1640.78731173 0 15670
0.12250000 0.12250700 13336.72068236 0 78.24795082 0 3941.00173802 0 430.99614957 0 -289.56786080 0 16887
0.12350000 0.12352200 13197.74798460 0 85.06437864 0 4030.34132944 0 -151.25065278 0 -943.01792933 0 16407
0.12450000 0.12449800 13006.09210133 0 92.17971422 0 3902.31564307 0 199.66816394 0 -409.93285745 0 16306
0.12550000 0.12549900 13037.03654082 0 132.52427586 0 4111.18506399 0 -116.97219949 0 -661.41243881 0 17523
0.12650000 0.12650100 12849.26257649 0 50.82862646 0 3683.19795616 0 244.82375408 0 -326.40727147 0 17154
0.12750000 0.12750600 12816.54354549 0 26.90912930 0 4135.82970361 0 365.04789252 0 -136.05349472 0 18007
0.12850000 0.12850300 12715.05909341 0 157.80111370 0 4364.84073820 0 -552.64883418 0 -467.01148430 0 17496
0.12950000 0.12949900 12578.52645898 0 279.52921845 0 4244.58998089 0 23.31391781 0 -171.07949469 0 18405
0.13050000 0.13049000 12294.03725726 0 247.32592811 0 4936.70285285 0 -42.56745933 0 -258.42932537 0 18100
0.13150000 0.13148800 12026.96123474 0 151.14195905 0 4925.61165590 0 -269.40295563 0 225.08696911 0 19059
0.13250000 0.13249300 11965.07235577 0 184.43329581 0 5521.17565843 0 -285.77910793 0 -579.85110381 0 18957
0.13350000 0.13349100 11511.99696044 0 225.12689742 0 5518.63577433 0 60.06271339 0 -323.54907001 0 19468
0.13450000 0.13450700 11485.04535185 0 149.39509553 0 5476.21194600 0 -100.03350169 0 -259.20681828 0 19953
0.13550000 0.13551000 11402.30502262 0 -13.41080988 0 5250.79445923 0 367.46910081 0 -755.48797133 0 19956
0.13650000 0.13649900 11501.79305925 0 -101.71481624 0 4690.15663589 0 606.48217680 0 -544.45465787 0 19723
0.13750000 0.13749600 11485.15626382 0 -59.66465034 0 4125.59252883 0 301.84027023 0 -1194.39990816 0 20946
0.13850000 0.13851100 11424.26559258 0 -35.21399575 0 3634.04177128 0 627.67856329 0 -156.00544891 0 20955
0.13950000 0.13949800 11578.21140622 0 -98.95222090 0 3408.66864929 0 552.64328858 0 -588.82166390 0 20506
0.14050000 0.14048300 11536.95215357 0 -38.10125614 0 2129.27689892 0 568.65786785 0 26.37187172 0 21447
0.14150000 0.14148400 11529.85378752 0 103.56848798 0 2849.68341430 0 122.80505997 0 -432.57997249 0 21771
0.14250000 0.14249400 11318.23374975 0 173.47852059 0 1914.09658693 0 -148.23717457 0 -145.60745178 0 22470
0.14350000 0.14350900 11128.13063406 0 165.24552509 0 2621.29348674 0 -47.95201362 0 -128.19427257 0 22519
0.14450000 0.14449900 10973.29752466 0 219.52806120 0 2928.89674290 0 -262.12380308 0 138.61112474 0 22218
0.14550000 0.14550500 10818.32022971 0 114.04301438 0 2598.21270589 0 4.67833342 0 -523.22277955 0 23559
0.14650000 0.14650700 10649.32366181 0 226.06410356 0 3310.18991159 0 -49.85914494 0 -146.36498053 0 23044
0.14750000 0.14750500 10278.57822142 0 249.95676002 0 2991.38454651 0 -412.65685542 0 82.65692343 0 23649
0.14850000 0.14849900 10287.78391488 0 133.53135654 0 3543.21595947 0 212.51287913 0 -157.50165138 0 23640
0.14950000 0.14949500 9915.85171642 0 137.32787325 0 3523.51799369 0 106.53360857 0 59.96444539 0 24457
0.15050000 0.15050000 9719.63735121 0 137.16705090 0 3430.69576643 0 218.75722301 0 131.52495901 0 24591
0.15150000 0.15149900 9696.15728727 0 11.21386559 0 3486.26266314 0 330.48883194 0 1004.95117308 0 25020
0.15250000 0.15250500 9692.92974896 0 76.19186473 0 3067.28160723 0 112.18523889 0 488.31212804 0 25297
0.15350000 0.15350100 9571.48114238 0 28.96210985 0 3151.89634875 0 148.07857046 0 896.41715623 0 25452
0.15450000 0.15450400 9488.94045469 0 178.91764357 0 3195.82857986 0 -277.28990578 0 449.75690921 0 26061
0.15550000 0.15549900 9488.91827229 0 146.18419402 0 3613.74488087 0 -299.71852425 0 700.76511470 0 26128
0.15650000 0.15649500 9188.29137901 0 108.75706083 0 3694.06732917 0 -20.05244043 0 394.05580901 0 26331
0.15750000 0.15749700 9161.28431444 0 74.43779193 0 3536.98270679 0 -127.25152083 0 270.87919395 0 27345
0.15850000 0.15849900 9233.42145940 0 -131.13676712 0 3643.53583587 0 510.60099743 0 560.74984443 0 26980
0.15950000 0.15949700 9408.55145921 0 -114.94694693 0 3017.54868011 0 352.15659430 0 -356.97571938 0 27777
0.16050000 0.16050000 9534.92455724 0 43.33752113 0 2815.23415658 0 24.43157773 0 349.83742502 0 28224
0.16150000 0.16150500 9146.86575841 0 219.57353510 0 2758.10340110 0 -110.22531348 0 -293.26899323 0 28075
0.16250000 0.16249700 9088.54824486 0 218.10506063 0 2907.47964160 0 -350.76575821 0 -184.12828790 0 28590
0.16350000 0.16349900 8748.30359608 0 90.25505881 0 2825.34932820 0 327.92787457 0 -344.33730045 0 29163
0.16450000 0.16449100 8732.17699571 0 25.40871218 0 2789.80204198 0 390.43342409 0 -247.51780581 0 28996
0.16550000 0.16550500 8662.34681973 0 46.22101051 0 2356.04751173 0 374.00403405 0 -221.41134644 0 30777
0.16650000 0.16650700 8358.95821841 0 109.33934867 0 2168.81701604 0 259.50073500 0 -326.49267368 0 29211
0.16750000 0.16749900 8324.19840717 0 152.32206241 0 2087.31890087 0 -159.27180642 0 429.99461449 0 30922
0.16850000 0.16850800 8075.02357653 0 128.09888827 0 2050.09684391 0 142.54739054 0 -89.00519183 0 30867
0.16950000 0.16949900 8151.97430096 0 -34.57503189 0 2002.69306815 0 252.23821924 0 621.67711662 0 30852
0.17050000 0.17049200 8064.07656514 0 -93.36968874 0 1596.61107429 0 369.61524742 0 194.35548060 0 31257
0.17150000 0.17149500 8347.43446478 0 -89.80974726 0 1480.89661653 0 255.78407490 0 446.63030079 0 32608
0.17250000 0.17250900 8409.53407649 0 48.99935535 0 1131.64591582 0 -95.56363841 0 125.38154502 0 32361
0.17350000 0.17350400 8171.61681075 0 103.06627858 0 1570.22511675 0 -280.23794593 0 218.10838799 0 32508
0.17450000 0.17449800 8105.43563856 0 194.21018592 0 1518.19631186 0 -224.31058532 0 -15.61895628 0 32791
0.17550000 0.17549800 8016.61733340 0 101.78236163 0 1739.70969731 0 -48.89265804 0 -202.59180346 0 33633
0.17650000 0.17650100 7985.21815484 0 95.64937336 0 1814.17599362 0 129.39101272 0 -120.94173888 0 33984
0.17750000 0.17750300 7692.45492020 0 79.09820198 0 1649.60481331 0 -95.92177316 0 -25.03604796 0 34069
