### header ###
fiducial parameters:
Omega_m = 0.31
Omega_nu = 0
Omega_de = 0.69
Omega_k = 0
H_0 = 100
w_de = -1
zeff = 0
beta = 0
fgrowth = 0
b_1 = 2
gamma = 0.55
Lx = 3500 Ly = 3500 Lz = 3500
nx = 700 ny = 700 nz = 700
xoffset = 1379.75464 yoffset = 22.6059522 zoffset = 368.141391
bins = 400 dk = 0.001
kx_ny = 0.628318531 ky_ny = 0.628318531 kz_ny = 0.628318531
############################
A(data) = 3.32574095 (not used)
A(ran) = 3.32577097 (used)
Ngal = 186775
weighted Ngal = 0
Nran = 9399747
weighted Nran = 0
SN(data) = 6689.77046
SN(ran) = 132.283814
SN(data+ran) = 6822.05427
############################
13 columns: k_central k_mean P_0(k) sigma^{lin}_{P_0(k)} P^img_1(k) sigma^{lin}_{P_1(k)} P_2(k) sigma^{lin}_{P_2(k)} P^img_3(k) sigma^{lin}_{P_3(k)} P_4(k) sigma^{lin}_{P_4(k)} N_modes
### header ###
0.00050000 0 0 0 0 0 0 0 0 0 0 0 0
0.00150000 0.00179520 2499.66742101 0 -8404.84250018 0 -13946.62560254 0 14206.15961113 0 214.40060085 0 3
0.00250000 0.00253879 7786.21989920 0 -9729.10923341 0 -5744.21962906 0 -14679.86463279 0 -1500.09547844 0 6
0.00350000 0.00331552 22629.25822149 0 -18231.82045546 0 -42840.85733220 0 14909.23058568 0 2107.66015607 0 7
0.00450000 0.00420575 37340.40002967 0 -18815.32832690 0 -36754.34118293 0 -2443.22431974 0 -5111.84394386 0 24
0.00550000 0.00557378 67818.01103566 0 -15275.24008497 0 -55288.72949113 0 -19745.21427904 0 -4946.87348045 0 45
0.00650000 0.00659388 63493.66425752 0 1153.28484107 0 -36730.82784540 0 -21647.57637960 0 -8031.25771337 0 40
0.00750000 0.00754703 67969.62769795 0 12029.84494595 0 -31890.29676129 0 -50115.57341054 0 -11456.65188767 0 57
0.00850000 0.00846663 54729.40042903 0 5555.99092565 0 -10280.02007702 0 -8563.44661654 0 -16224.75745571 0 75
0.00950000 0.00948925 53360.63581365 0 1367.35603337 0 24242.25099367 0 -14374.41306884 0 -13262.85331068 0 112
0.01050000 0.01054430 53137.25910712 0 -3096.98383266 0 12469.16725707 0 -12530.61248816 0 -28059.06459946 0 105
0.01150000 0.01145670 59740.62503418 0 -1460.65518210 0 26441.96808441 0 6375.28655302 0 3766.72576037 0 144
0.01250000 0.01249090 64583.26344571 0 -5481.63554131 0 21904.11576501 0 3788.93033666 0 -24530.95485023 0 169
0.01350000 0.01339930 82512.40513645 0 -8314.10541795 0 32003.53788213 0 2971.87513108 0 -5265.74539271 0 180
0.01450000 0.01448870 76263.84659976 0 4311.31462173 0 35879.24574371 0 -16099.98149004 0 -13857.34146711 0 267
0.01550000 0.01550050 81293.26076791 0 8898.62258832 0 47906.09606649 0 -15339.56902727 0 -12637.19889084 0 238
0.01650000 0.01653350 70462.37421206 0 2003.12562483 0 45509.84296582 0 8625.70150501 0 -9082.54790731 0 315
0.01750000 0.01747870 73318.91198607 0 -154.85972827 0 63003.87700029 0 12156.95006298 0 -14924.31461353 0 297
0.01850000 0.01844180 76714.92557965 0 -2714.98082736 0 50935.98924880 0 144.40072955 0 -6809.27399841 0 388
0.01950000 0.01947590 77696.60742154 0 2764.63611610 0 43022.64205019 0 6250.43294897 0 -25497.88540018 0 399
0.02050000 0.02045430 75238.13270599 0 -652.79568790 0 44456.84472756 0 3799.89953045 0 -3558.61054084 0 462
0.02150000 0.02154770 74397.97453717 0 -1527.29109336 0 33323.61214290 0 14086.81833197 0 -8465.68880664 0 571
0.02250000 0.02255340 77590.24284280 0 1043.23798495 0 28061.28283885 0 5086.66692679 0 -11857.59865734 0 510
0.02350000 0.02348930 72998.04365836 0 1014.03042691 0 17064.02832878 0 11041.96312497 0 -5266.78796523 0 555
0.02450000 0.02439640 72273.01211386 0 3284.82434417 0 17904.18649761 0 -2998.78237488 0 -10223.42169899 0 592
0.02550000 0.02547300 65913.43069571 0 1718.10404566 0 9365.42888547 0 435.73652715 0 2380.24850347 0 837
0.02650000 0.02652900 64635.39207137 0 -917.21093227 0 12119.35090532 0 8041.21760823 0 -13137.07913729 0 723
0.02750000 0.02749970 63650.05013449 0 -721.13520702 0 1233.60728937 0 4394.49859884 0 -4228.08627983 0 826
0.02850000 0.02848090 64404.02970303 0 1103.08053808 0 5687.21087675 0 -3996.34681079 0 -11715.18768853 0 831
0.02950000 0.02946900 61906.95762211 0 2975.47977009 0 5218.40816414 0 -5737.93092039 0 -8071.20820478 0 996
0.03050000 0.03053250 59045.31789750 0 2481.30039886 0 10321.42351523 0 -5896.08029768 0 -6758.77577870 0 1041
0.03150000 0.03150510 56740.78899560 0 4051.75843075 0 14352.45249888 0 -5549.25856910 0 -15816.71231998 0 1036
0.03250000 0.03246190 52277.69134363 0 3635.01779661 0 22621.71620756 0 -4267.47112019 0 -11319.56469339 0 1059
0.03350000 0.03345080 48316.47035357 0 3684.09634311 0 25580.18208153 0 -2079.98761968 0 -14153.92007350 0 1302
0.03450000 0.03451200 44350.48014883 0 2021.23754945 0 29615.71409114 0 -710.87806808 0 -7020.94949216 0 1339
0.03550000 0.03553350 43953.19347414 0 1252.76178650 0 32657.36394222 0 6657.24696184 0 -1295.86217784 0 1365
0.03650000 0.03647120 40850.65295182 0 27.67087271 0 26065.53285999 0 2967.88230018 0 -2266.27536363 0 1308
0.03750000 0.03744890 43494.35065639 0 -904.40503627 0 25246.22614142 0 9677.94554188 0 5514.99786173 0 1579
0.03850000 0.03847530 40852.98210317 0 389.07918894 0 20460.37465826 0 1417.22205485 0 -1119.34577841 0 1662
0.03950000 0.03950240 43827.53021272 0 1015.68634261 0 23255.24537725 0 -1774.61369411 0 7657.29582587 0 1683
0.04050000 0.04050350 39578.71448579 0 304.57535940 0 22014.80591056 0 -175.23758442 0 -614.34250808 0 1822
0.04150000 0.04152450 41408.42924634 0 -628.43054645 0 20267.05509546 0 1897.41542672 0 8204.12510901 0 1887
0.04250000 0.04250150 45177.77252920 0 -2814.95687666 0 17726.39461053 0 6360.73490262 0 -1596.23397359 0 1920
0.04350000 0.04349210 45026.04495494 0 -280.11039717 0 14671.98988296 0 3438.35978352 0 -6.85922875 0 2005
0.04450000 0.04448520 46325.60050137 0 968.49662696 0 13922.89044107 0 -349.74093161 0 1987.20975721 0 2151
0.04550000 0.04548030 42665.17277254 0 1331.53146722 0 13193.64424173 0 -2507.08743177 0 -239.53990785 0 2274
0.04650000 0.04648670 41903.76210205 0 2967.68265863 0 17759.66820137 0 -3670.26562051 0 -1304.49112907 0 2311
0.04750000 0.04749250 38473.69853384 0 2303.50851178 0 19587.94110632 0 -2296.85379361 0 -6038.15853058 0 2568
0.04850000 0.04851840 35043.96770154 0 1568.68344037 0 20351.23728029 0 -733.21795697 0 -1084.97304995 0 2493
0.04950000 0.04949480 35463.54768209 0 70.11266877 0 22202.24713898 0 3935.61141630 0 -5143.43167277 0 2644
0.05050000 0.05050630 35183.38404718 0 -1354.88952800 0 16777.76453555 0 4469.69691415 0 -1350.60832598 0 2829
0.05150000 0.05149060 35715.09602888 0 -799.14957723 0 13953.28032071 0 5255.90750102 0 -357.01010209 0 2784
0.05250000 0.05249300 35924.38691529 0 206.77096647 0 11459.53559887 0 1610.26433773 0 1486.23148226 0 3055
0.05350000 0.05348950 36005.79630089 0 653.85933369 0 10901.62620998 0 491.00950714 0 1561.36325039 0 3009
0.05450000 0.05448610 35011.47049448 0 181.06933578 0 11584.97703636 0 242.33599860 0 1425.76227650 0 3336
0.05550000 0.05550870 34524.67786043 0 930.55475131 0 9390.69463212 0 -362.56013704 0 1924.57776805 0 3349
0.05650000 0.05647670 32984.44334023 0 236.80481868 0 11028.29877033 0 81.16260647 0 1995.77216126 0 3324
0.05750000 0.05747970 34422.08428866 0 -267.39212163 0 7966.84004150 0 1186.03714566 0 1060.20640716 0 3639
0.05850000 0.05849280 34521.57232528 0 -229.52788436 0 8937.87433432 0 788.02288845 0 155.50523593 0 3846
0.05950000 0.05951020 32597.91512658 0 902.75355704 0 9445.01931477 0 -220.95549824 0 -649.39401780 0 3787
0.06050000 0.06049470 32479.68296711 0 602.75997111 0 8306.97377831 0 -2055.84208393 0 -1905.36781493 0 3930
0.06150000 0.06148310 32531.25703292 0 800.52266741 0 11003.13284445 0 -1385.74523791 0 -3866.61308009 0 4083
0.06250000 0.06249100 31135.65172093 0 978.47204949 0 12850.14987224 0 -1840.19594166 0 -6322.71427949 0 4303
0.06350000 0.06350600 29730.72980350 0 800.67794417 0 13314.98193634 0 -1685.54029142 0 -3399.34095266 0 4470
0.06450000 0.06451750 29826.44683316 0 378.75772106 0 13533.14578031 0 148.38025101 0 -7442.42606739 0 4479
0.06550000 0.06550280 29901.86697241 0 128.95845604 0 14342.47042162 0 1005.95936289 0 -5335.15410322 0 4636
0.06650000 0.06648880 29402.31946186 0 -245.58571931 0 12908.37865622 0 1971.95936141 0 -5957.56989356 0 4653
0.06750000 0.06749660 29857.72400855 0 352.06010089 0 12760.86573681 0 1952.76049949 0 -3321.25892615 0 5220
0.06850000 0.06852730 29061.59789161 0 195.85501043 0 11748.57219134 0 97.48119545 0 -2984.34163645 0 5029
0.06950000 0.06949320 28705.23773366 0 329.03699426 0 11369.69690359 0 1113.06816094 0 -2779.37631685 0 5040
0.07050000 0.07048030 28482.08285107 0 65.12651027 0 10970.60236380 0 737.88069617 0 -1494.83825109 0 5475
0.07150000 0.07148790 27571.82831753 0 476.71739075 0 10428.60884254 0 -1269.14348439 0 -4815.29861106 0 5509
0.07250000 0.07249820 27470.45477742 0 1205.91257059 0 11493.47466153 0 -1257.96355787 0 -3675.56721266 0 5916
0.07350000 0.07351270 25746.77185970 0 524.88645910 0 11144.87834145 0 -1078.19521949 0 -5352.95547432 0 5721
0.07450000 0.07449140 25664.69700228 0 400.66061680 0 11929.24778963 0 935.30622009 0 -5657.20918900 0 6028
0.07550000 0.07549160 25320.31533704 0 -420.34305490 0 12085.19001872 0 1153.20720269 0 -3711.41396119 0 6183
0.07650000 0.07648840 25532.04628678 0 -17.16407093 0 9506.65309621 0 2568.17774456 0 -5034.52720993 0 6330
0.07750000 0.07749960 25649.50206246 0 74.43801376 0 9381.21165873 0 1126.94324832 0 -1995.78325245 0 6583
0.07850000 0.07848650 24770.63561628 0 513.55791053 0 7904.86243295 0 1102.55925183 0 -1566.77575450 0 6549
0.07950000 0.07947320 24665.38015724 0 299.15176409 0 10056.32172577 0 -167.13435593 0 2141.95413703 0 6828
0.08050000 0.08048110 24447.88178509 0 124.24026085 0 9527.70418802 0 662.22320531 0 1238.67596637 0 7147
0.08150000 0.08149960 24124.46248208 0 345.93776017 0 8827.33946553 0 434.18708693 0 1429.65528663 0 7386
0.08250000 0.08250610 23964.08377421 0 -116.85130545 0 8690.21899766 0 233.05821235 0 845.92448212 0 7227
0.08350000 0.08350160 24217.40671251 0 -82.21050276 0 7711.24340783 0 456.50257519 0 860.85101497 0 7798
0.08450000 0.08449610 23963.75103830 0 454.62927203 0 8410.43246344 0 -282.49167715 0 174.18059335 0 7371
0.08550000 0.08548940 23111.39255283 0 638.57566429 0 6645.83412018 0 -287.90750862 0 -1541.45455186 0 8256
0.08650000 0.08650700 22377.70987470 0 604.08536914 0 8212.68751305 0 -280.77254162 0 -1012.41776687 0 8037
0.08750000 0.08749060 21274.57942623 0 659.67666649 0 7398.43838030 0 221.81062953 0 -1932.77416259 0 8155
0.08850000 0.08849210 20656.24519637 0 305.68780645 0 7098.03331095 0 941.77127879 0 -67.41562241 0 8718
0.08950000 0.08949900 20092.25783155 0 -66.10697208 0 6280.32372475 0 1908.46225888 0 -807.72639983 0 8571
0.09050000 0.09049190 19711.82977623 0 390.98465658 0 5821.92455488 0 627.88929603 0 -169.41470603 0 8932
0.09150000 0.09150830 19369.66635038 0 278.03745246 0 5143.81986466 0 492.69536907 0 1145.56536799 0 9285
0.09250000 0.09250820 19391.18327246 0 111.73715454 0 5071.16143345 0 457.10371807 0 493.75014190 0 9204
0.09350000 0.09350330 18759.09595838 0 116.48307771 0 4732.10354275 0 -897.58616839 0 1324.76583709 0 9349
0.09450000 0.09448040 18914.15089171 0 593.37349113 0 5488.80045454 0 -274.10118666 0 -265.53212790 0 9564
0.09550000 0.09549270 18469.50480606 0 93.47782791 0 5694.32033399 0 -585.92686150 0 400.82809387 0 10155
0.09650000 0.09649430 18154.84754864 0 30.19722555 0 6033.26731273 0 213.19609686 0 -1507.98131947 0 9913
0.09750000 0.09749140 18274.52156371 0 79.96098619 0 6026.95642166 0 249.81035622 0 113.91213826 0 10476
0.09850000 0.09850240 18194.77585765 0 114.84823528 0 4729.82984737 0 -70.35168407 0 -2522.89238742 0 10575
0.09950000 0.09950330 17984.93041139 0 185.77976712 0 5896.10248007 0 -284.64891496 0 -889.03374642 0 10882
0.10050000 0.10051200 17409.96276159 0 235.55262255 0 4604.66568981 0 203.20958313 0 -2434.68409809 0 10875
0.10150000 0.10150300 17135.23381319 0 393.26944315 0 5854.80995383 0 -43.63520886 0 -1873.40298533 0 11118
0.10250000 0.10250800 16585.44318046 0 436.18128414 0 5294.40504563 0 193.91848744 0 -1411.84282433 0 11575
0.10350000 0.10349800 16353.52625228 0 196.60699358 0 5461.20555653 0 429.96466825 0 -2166.92042137 0 11364
0.10450000 0.10450100 16025.11591064 0 60.84286819 0 4516.32430612 0 773.34812577 0 -856.78054569 0 12093
0.10550000 0.10551000 15804.62291531 0 89.65779786 0 4678.46651431 0 671.89029257 0 -793.49528503 0 12067
0.10650000 0.10649700 15670.41943224 0 72.74882446 0 4247.37387132 0 405.94668126 0 771.33840088 0 12054
0.10750000 0.10749900 15535.10682947 0 165.16455935 0 3987.29639408 0 774.86761975 0 1574.61723074 0 12807
0.10850000 0.10850100 15535.43956538 0 174.85271989 0 3987.54040042 0 -138.30833506 0 1325.22057616 0 12736
0.10950000 0.10950300 15114.52864119 0 268.47794981 0 4494.91829601 0 -299.76732552 0 1371.64832659 0 12933
0.11050000 0.11050200 15073.93486036 0 287.32189342 0 5110.95664810 0 -827.10161178 0 1661.46130284 0 13428
0.11150000 0.11150900 15013.93148487 0 115.37173978 0 6168.08081163 0 -407.38410039 0 1377.28265464 0 13453
0.11250000 0.11250000 14954.48266923 0 12.61379647 0 6234.46162537 0 -102.73509544 0 729.74197585 0 13668
0.11350000 0.11349100 14747.18819827 0 164.67211021 0 6716.26322080 0 -72.20080842 0 1635.75190832 0 13791
0.11450000 0.11448600 14873.18419560 0 102.95947036 0 7007.06331358 0 160.23119495 0 1104.42922763 0 14205
0.11550000 0.11549300 14968.12484147 0 143.72971213 0 7149.04172572 0 86.67537500 0 1057.62992211 0 14776
0.11650000 0.11649800 14552.64860379 0 301.94230924 0 7074.89707412 0 -54.89188646 0 1517.84139356 0 14553
0.11750000 0.11747300 14251.07895877 0 131.31755363 0 7112.40750220 0 610.62695710 0 2406.92283213 0 14568
0.11850000 0.11849100 14122.42107417 0 4.34563079 0 6619.88071932 0 848.12719384 0 1973.72286172 0 16015
0.11950000 0.11950300 13959.71321494 0 184.95458207 0 6218.27956902 0 424.14622633 0 2109.29056202 0 15270
0.12050000 0.12050700 13589.48906081 0 158.06175683 0 6008.28993720 0 215.71268945 0 2287.08244910 0 15999
0.12150000 0.12150000 13495.43571069 0 74.16727764 0 5075.75318899 0 428.26216952 0 1842.33654268 0 15670
0.12250000 0.12250700 13225.69780091 0 69.53393012 0 5121.78165633 0 219.24856303 0 1661.63876199 0 16887
0.12350000 0.12352200 13226.25236076 0 283.77381952 0 5128.11472978 0 -229.57003091 0 1131.09135598 0 16407
0.12450000 0.12449800 12900.83664229 0 205.88145247 0 4996.40676602 0 150.20031643 0 1881.29991755 0 16306
0.12550000 0.12549900 12726.03937839 0 -126.46293672 0 4248.82681812 0 375.32499561 0 550.61138130 0 17523
0.12650000 0.12650100 12743.00890972 0 8.43598658 0 4521.69244544 0 17.90097005 0 577.25354549 0 17154
0.12750000 0.12750600 12681.67459060 0 346.47790147 0 4645.19292346 0 -344.58574327 0 201.37288091 0 18007
0.12850000 0.12850300 12411.04938506 0 202.24132163 0 4722.89784928 0 -683.16227603 0 -232.95062774 0 17496
0.12950000 0.12949900 12096.17030370 0 165.40856569 0 4904.27219297 0 -88.04114499 0 -316.71800181 0 18405
0.13050000 0.13049000 12046.70356531 0 28.24761495 0 5120.27325354 0 309.70503798 0 -569.55070921 0 18100
0.13150000 0.13148800 12046.70356531 0 -173.43304668 0 4455.92164754 0 1033.02299256 0 390.71403137 0 19059
0.13250000 0.13249300 12289.82260242 0 -116.12372293 0 3766.37084207 0 812.77400356 0 -93.19466965 0 18957
0.13350000 0.13349100 12407.50020204 0 -16.47364392 0 3661.44811894 0 74.73791972 0 298.96432286 0 19468
0.13450000 0.13450700 12249.33973356 0 273.70634005 0 3550.18123116 0 -22.16797534 0 663.78817320 0 19953
0.13550000 0.13551000 11887.21215320 0 140.82049117 0 3584.23120579 0 -92.55870042 0 875.42152041 0 19956
0.13650000 0.13649900 11763.32348328 0 46.49973229 0 3854.77877295 0 -322.31129244 0 86.20344457 0 19723
0.13750000 0.13749600 11628.01088052 0 169.20730064 0 3534.13226917 0 49.32765478 0 -700.52554485 0 20946
0.13850000 0.13851100 11619.13792296 0 283.29467981 0 4081.08355548 0 -116.41542141 0 -316.34311936 0 20955
0.13950000 0.13949800 11045.83395270 0 288.99444592 0 3811.31237211 0 -207.93997862 0 -400.37335480 0 20506
0.14050000 0.14048300 11012.36072031 0 -25.98356891 0 3806.56533981 0 844.27189378 0 193.84195818 0 21447
0.14150000 0.14148400 10825.61823730 0 -86.61015876 0 3430.41848651 0 514.91547304 0 -94.08340726 0 21771
0.14250000 0.14249400 10858.48145385 0 161.98249495 0 2658.33808455 0 466.19628132 0 398.96033630 0 22470
0.14350000 0.14350900 10654.63634514 0 195.41358079 0 2910.26353203 0 3.85345892 0 654.70891937 0 22519
0.14450000 0.14449900 10443.60414081 0 86.56856677 0 2789.97950113 0 81.28372234 0 1203.10649776 0 22218
0.14550000 0.14550500 10327.03566088 0 90.90178651 0 2950.11420267 0 240.58802596 0 1012.43440367 0 23559
0.14650000 0.14650700 10342.35260387 0 53.27833913 0 2545.54061159 0 49.22095746 0 1092.22003803 0 23044
0.14750000 0.14750500 9982.26580375 0 123.13446852 0 2872.85292473 0 -83.14083236 0 1297.54803978 0 23649
0.14850000 0.14849900 10133.40554456 0 68.73580758 0 2859.09984051 0 -81.12911105 0 1304.34694350 0 23640
0.14950000 0.14949500 10131.79732100 0 -42.12370054 0 2957.50093983 0 104.52987293 0 962.33768529 0 24457
0.15050000 0.15050000 10178.75744888 0 73.12148868 0 2960.42901583 0 -241.24795218 0 776.49358923 0 24591
0.15150000 0.15149900 10140.08244512 0 108.86409088 0 2954.57286384 0 -231.23814693 0 835.42888245 0 25020
0.15250000 0.15250500 9922.93899127 0 152.35866336 0 3009.17482642 0 -137.78593969 0 417.09777067 0 25297
0.15350000 0.15350100 10001.42030088 0 -11.21297829 0 3369.23944414 0 411.20834509 0 145.44773854 0 25452
0.15450000 0.15450400 9764.36814850 0 52.68773289 0 2743.20792360 0 63.86566300 0 242.51567599 0 26061
0.15550000 0.15549900 9791.10902435 0 112.11425523 0 2898.54013686 0 226.53104295 0 126.02261620 0 26128
0.15650000 0.15649500 9608.38155462 0 69.41647434 0 2595.46208905 0 -104.14645026 0 -133.70548833 0 26331
0.15750000 0.15749700 9425.74281448 0 271.26184024 0 2790.48969619 0 -172.73319215 0 -426.71494755 0 27345
0.15850000 0.15849900 9192.12893316 0 154.87303771 0 2677.49258168 0 -9.63629810 0 -381.30647812 0 26980
0.15950000 0.15949700 8980.33143623 0 117.62436188 0 2731.81726433 0 -145.77271061 0 -663.76709992 0 27777
0.16050000 0.16050000 8916.94524567 0 135.34698548 0 2653.91269697 0 101.16114369 0 -651.79415282 0 28224
0.16150000 0.16150500 8626.28933845 0 9.19494610 0 2456.67794164 0 183.30753932 0 -764.74024782 0 28075
0.16250000 0.16249700 8833.08470555 0 -42.27054799 0 2355.30440153 0 252.69739479 0 -678.24443930 0 28590
0.16350000 0.16349900 8606.72446703 0 37.28982417 0 2158.26928775 0 128.07670588 0 -601.74734483 0 29163
0.16450000 0.16449100 8621.90831566 0 140.06850802 0 2134.76704141 0 258.38606970 0 -373.87426705 0 28996
0.16550000 0.16550500 8519.91366852 0 24.27474820 0 2022.81249942 0 257.78159947 0 70.20638939 0 30777
0.16650000 0.16650700 8421.21310688 0 141.55694665 0 1774.48059975 0 292.96620355 0 -181.12257352 0 29211
0.16750000 0.16749900 8157.49771704 0 132.64516990 0 2045.21671725 0 69.58816607 0 499.43327122 0 30922
0.16850000 0.16850800 8116.20519080 0 149.94632802 0 1847.28321651 0 -39.64603805 0 729.11421410 0 30867
0.16950000 0.16949900 8005.73686920 0 -25.31288424 0 1794.34493348 0 -19.96027259 0 419.71307491 0 30852
0.17050000 0.17049200 8075.70013955 0 104.34143350 0 2092.79795216 0 -104.01856875 0 408.55089431 0 31257
0.17150000 0.17149500 7776.12690997 0 199.00491036 0 1980.85450136 0 -440.41701226 0 -124.56966940 0 32608
0.17250000 0.17250900 7876.02532089 0 70.80542493 0 2578.93620560 0 -19.27394932 0 803.51063587 0 32361
0.17350000 0.17350400 7614.60580882 0 26.20361826 0 1952.36121640 0 112.27064111 0 -245.36611361 0 32508
0.17450000 0.17449800 7768.71799041 0 -15.02236079 0 2349.34842877 0 313.82652677 0 298.78131811 0 32791
0.17550000 0.17549800 7712.89599617 0 35.18249675 0 1960.83489087 0 162.53816392 0 -116.86905136 0 33633
0.17650000 0.17650100 7630.51058524 0 141.95955710 0 2004.95567233 0 -29.47740687 0 323.12649541 0 33984
0.17750000 0.17750300 7364.37731447 0 195.32485122 0 2172.36619907 0 -279.31737658 0 314.01618624 0 34069
