### header ###
fiducial parameters:
Omega_m = 0.31
Omega_nu = 0
Omega_de = 0.69
Omega_k = 0
H_0 = 100
w_de = -1
zeff = 0
beta = 0
fgrowth = 0
b_1 = 2
gamma = 0.55
Lx = 3500 Ly = 3500 Lz = 3500
nx = 700 ny = 700 nz = 700
xoffset = 1379.75464 yoffset = 22.6059522 zoffset = 368.141391
bins = 400 dk = 0.001
kx_ny = 0.628318531 ky_ny = 0.628318531 kz_ny = 0.628318531
############################
A(data) = 3.26466115 (not used)
A(ran) = 3.26154379 (used)
Ngal = 183660
weighted Ngal = 0
Nran = 9399747
weighted Nran = 0
SN(data) = 6697.61006
SN(ran) = 129.729153
SN(data+ran) = 6827.33921
############################
13 columns: k_central k_mean P_0(k) sigma^{lin}_{P_0(k)} P^img_1(k) sigma^{lin}_{P_1(k)} P_2(k) sigma^{lin}_{P_2(k)} P^img_3(k) sigma^{lin}_{P_3(k)} P_4(k) sigma^{lin}_{P_4(k)} N_modes
### header ###
0.00050000 0 0 0 0 0 0 0 0 0 0 0 0
0.00150000 0.00179520 77934.95724395 0 -45633.95345968 0 -82673.33840417 0 88423.68037395 0 -104426.83571463 0 3
0.00250000 0.00253879 120448.18061831 0 -32956.49352392 0 -313.86201860 0 -91274.00707767 0 53203.25172896 0 6
0.00350000 0.00331552 108021.38173358 0 13260.30233539 0 -27165.55777331 0 -40034.56268037 0 55989.69313826 0 7
0.00450000 0.00420575 89125.97496471 0 30549.81469812 0 19887.51433589 0 -56478.81492368 0 32234.78933850 0 24
0.00550000 0.00557378 57712.93240811 0 5715.16069306 0 26249.42490539 0 27600.33269368 0 3214.81670903 0 45
0.00650000 0.00659388 54021.44932783 0 -1939.57306632 0 -11576.21499077 0 49853.26660272 0 12489.90779536 0 40
0.00750000 0.00754703 49320.88914920 0 -3100.33337413 0 -7695.90428245 0 -5801.18401659 0 -10160.53461230 0 57
0.00850000 0.00846663 49214.41365850 0 6730.47104409 0 -14551.98313198 0 -10003.49435471 0 -7251.49111193 0 75
0.00950000 0.00948925 42016.55957501 0 4384.80489271 0 -7057.45062132 0 -17389.99860709 0 -4079.32005516 0 112
0.01050000 0.01054430 38893.38942636 0 -909.04781131 0 -10659.58301898 0 -993.25883326 0 -1150.95568971 0 105
0.01150000 0.01145670 40943.15353436 0 -5639.82928338 0 -10294.00607637 0 6212.64524097 0 -17536.95696665 0 144
0.01250000 0.01249090 50280.05586129 0 -3127.85063376 0 -14958.25367619 0 -1795.33205001 0 -11416.94540259 0 169
0.01350000 0.01339930 47236.96415460 0 -2394.25668521 0 -7346.72012893 0 -4115.82118432 0 -14821.27739388 0 180
0.01450000 0.01448870 55595.84473463 0 -3140.49459828 0 -5532.47758812 0 -5318.24002787 0 642.61507822 0 267
0.01550000 0.01550050 61749.46262544 0 -4445.52919600 0 -17169.61652373 0 384.89115298 0 -25212.17616679 0 238
0.01650000 0.01653350 66610.06877603 0 -2827.48992921 0 1853.91575229 0 -7274.63843996 0 -11121.14317998 0 315
0.01750000 0.01747870 69743.88647375 0 2087.82909593 0 -1813.08905632 0 -19233.35553988 0 -18227.93853653 0 297
0.01850000 0.01844180 66289.20044832 0 3228.27033093 0 24714.07051185 0 -5897.08959660 0 -3585.82833815 0 388
0.01950000 0.01947590 68709.74327030 0 -1728.72941233 0 12150.40625678 0 1235.69243440 0 -15578.25158560 0 399
0.02050000 0.02045430 70754.73816361 0 -3536.91615961 0 21867.62572705 0 11521.20265391 0 -6680.53847543 0 462
0.02150000 0.02154770 75130.88083150 0 3353.30139413 0 23585.09757449 0 -6402.70399188 0 -2799.46247452 0 571
0.02250000 0.02255340 70762.39108951 0 4253.55166802 0 20045.56389240 0 -2827.31247006 0 -7114.44828244 0 510
0.02350000 0.02348930 64887.71680194 0 4059.32262706 0 33475.45062913 0 -8272.04759912 0 -11610.59770131 0 555
0.02450000 0.02439640 64820.94779631 0 1765.71855416 0 38884.51646880 0 -3302.93626879 0 -15289.43681706 0 592
0.02550000 0.02547300 65045.32271058 0 -1222.68246038 0 39430.20335866 0 147.14247343 0 -17133.12648577 0 837
0.02650000 0.02652900 65842.55794721 0 -1465.29130242 0 33742.52665164 0 -3149.99975407 0 -30370.24821953 0 723
0.02750000 0.02749970 65275.13231134 0 1500.71658547 0 30858.70453313 0 882.74614687 0 -25428.34359531 0 826
0.02850000 0.02848090 64988.20304629 0 1273.81287831 0 34516.91402256 0 -4323.84767428 0 -32900.59389130 0 831
0.02950000 0.02946900 66641.12412749 0 769.11350678 0 37510.20625495 0 3472.82013244 0 -28456.46218612 0 996
0.03050000 0.03053250 63248.10515709 0 2112.73992427 0 33166.89353003 0 -668.59509795 0 -30112.15606655 0 1041
0.03150000 0.03150510 60969.41874407 0 1613.90225033 0 29569.68562381 0 1046.84373308 0 -30894.64001124 0 1036
0.03250000 0.03246190 59989.17875779 0 354.38148841 0 25948.74255612 0 6576.19249454 0 -19895.05634981 0 1059
0.03350000 0.03345080 59492.29313451 0 -337.90551534 0 30586.30473608 0 3558.68817922 0 -24356.60123421 0 1302
0.03450000 0.03451200 56554.56779883 0 761.70791457 0 19352.25317117 0 6887.62221365 0 -15821.25971073 0 1339
0.03550000 0.03553350 59858.52445774 0 426.82031392 0 19216.05327264 0 2198.82979499 0 -14297.55107398 0 1365
0.03650000 0.03647120 55239.81731259 0 794.15742949 0 16163.97769643 0 -825.26269133 0 -14205.60505128 0 1308
0.03750000 0.03744890 56002.55892672 0 1910.73595426 0 18337.96321025 0 -62.05646696 0 -9731.18328723 0 1579
0.03850000 0.03847530 51807.97915287 0 2148.86395273 0 21879.38239582 0 -2323.06229200 0 -7744.21753635 0 1662
0.03950000 0.03950240 50176.02043391 0 1926.36345076 0 19442.31369039 0 2141.72122190 0 -8861.74435846 0 1683
0.04050000 0.04050350 48603.06688271 0 1256.25551354 0 22705.01109665 0 394.50943897 0 -7672.44640090 0 1822
0.04150000 0.04152450 45106.01248494 0 2094.15107819 0 22385.03006469 0 3080.49122279 0 607.65229808 0 1887
0.04250000 0.04250150 44569.30946462 0 958.88499568 0 21881.93337112 0 5811.98684241 0 -2144.91548662 0 1920
0.04350000 0.04349210 41642.45350195 0 464.36734295 0 17368.70350895 0 1572.19934980 0 5486.79294789 0 2005
0.04450000 0.04448520 41023.23197633 0 1486.63076535 0 18371.90227291 0 3290.95777608 0 2239.87831489 0 2151
0.04550000 0.04548030 39572.28159156 0 940.06434358 0 20287.46289784 0 735.76560491 0 12682.34006241 0 2274
0.04650000 0.04648670 38226.80848977 0 469.91515966 0 15374.94994553 0 2663.36239677 0 5613.25477550 0 2311
0.04750000 0.04749250 37939.10284094 0 976.02311320 0 17492.92491477 0 197.98119288 0 6512.08537618 0 2568
0.04850000 0.04851840 37122.01436176 0 676.77041922 0 16512.57401651 0 81.40295271 0 9070.18122271 0 2493
0.04950000 0.04949480 36034.41158902 0 308.24987294 0 18494.45999919 0 638.80303383 0 5401.92310884 0 2644
0.05050000 0.05050630 37035.94667344 0 311.87447611 0 18662.93528084 0 1188.16665547 0 9065.00163374 0 2829
0.05150000 0.05149060 34647.90105852 0 758.44155707 0 18699.09258289 0 -1135.23946364 0 2781.25072913 0 2784
0.05250000 0.05249300 36056.03942307 0 699.19127386 0 20881.95105427 0 -907.15676223 0 4930.99088642 0 3055
0.05350000 0.05348950 33607.99043266 0 625.60340034 0 19934.65192292 0 1877.71746094 0 4829.26242801 0 3009
0.05450000 0.05448610 34227.87743009 0 390.22047311 0 21342.12481565 0 1636.96084879 0 7034.62493800 0 3336
0.05550000 0.05550870 33507.17145240 0 -321.93197350 0 16942.69063417 0 3053.16251351 0 5651.33085462 0 3349
0.05650000 0.05647670 33484.65632259 0 -451.45829882 0 15108.65030681 0 5759.38129529 0 8206.08825087 0 3324
0.05750000 0.05747970 33295.32959069 0 -76.87630250 0 11073.72831303 0 1854.57013291 0 6894.87585645 0 3639
0.05850000 0.05849280 32538.13357503 0 406.92159747 0 6873.46984634 0 2983.68725583 0 6004.36365348 0 3846
0.05950000 0.05951020 32790.12556969 0 -119.96571355 0 6069.55770914 0 1356.16501565 0 7796.54580356 0 3787
0.06050000 0.06049470 31180.34924463 0 242.26279670 0 4279.10578579 0 16.78231193 0 2434.79501006 0 3930
0.06150000 0.06148310 31744.00387354 0 676.96784253 0 4052.98955361 0 -1334.10462492 0 1839.94084413 0 4083
0.06250000 0.06249100 30138.33129134 0 518.40698184 0 4521.01588243 0 -1512.28470389 0 -386.14889471 0 4303
0.06350000 0.06350600 29366.60580769 0 1008.24747682 0 4065.91079805 0 -1553.82123646 0 -2853.27696211 0 4470
0.06450000 0.06451750 28662.53662541 0 605.51169707 0 5636.46865071 0 -1287.19995302 0 -4861.94818542 0 4479
0.06550000 0.06550280 27434.07565143 0 889.70143648 0 8124.35722056 0 -2029.21212006 0 -4769.65833561 0 4636
0.06650000 0.06648880 27144.48449911 0 727.83650821 0 8686.55890267 0 270.39339952 0 -2502.72859137 0 4653
0.06750000 0.06749660 25893.50839532 0 251.98866730 0 9301.22194634 0 789.63222113 0 -2948.25088158 0 5220
0.06850000 0.06852730 25990.88910453 0 185.63336332 0 9670.10406564 0 896.62012513 0 -770.67625643 0 5029
0.06950000 0.06949320 26407.91810978 0 95.44640446 0 11137.77997541 0 463.34362547 0 123.23650753 0 5040
0.07050000 0.07048030 26104.24113734 0 -358.38762875 0 9684.04570020 0 1556.87131562 0 1669.71315337 0 5475
0.07150000 0.07148790 26278.04019352 0 206.77540295 0 9906.00273353 0 -489.06965679 0 1266.48159712 0 5509
0.07250000 0.07249820 26338.26539294 0 610.72345052 0 10631.14519001 0 -684.14162872 0 3324.36446129 0 5916
0.07350000 0.07351270 25873.21150491 0 42.85882507 0 11021.97678807 0 437.00314184 0 1992.15643105 0 5721
0.07450000 0.07449140 26048.89606457 0 320.06532505 0 11996.34953117 0 -562.13624405 0 3192.67867992 0 6028
0.07550000 0.07549160 25137.86514724 0 738.79904728 0 11841.29459783 0 -185.37161107 0 348.50426315 0 6183
0.07650000 0.07648840 25152.28370327 0 348.71943237 0 13901.04078309 0 -930.87972339 0 1109.81844023 0 6330
0.07750000 0.07749960 24309.90729505 0 186.95321576 0 12836.84043590 0 -886.73675953 0 -612.41042157 0 6583
0.07850000 0.07848650 24741.57668028 0 220.65049033 0 13731.01273387 0 1043.86463758 0 -473.73940437 0 6549
0.07950000 0.07947320 24331.09148122 0 -167.73882617 0 11307.91893659 0 2363.73371121 0 264.02816159 0 6828
0.08050000 0.08048110 24879.66208228 0 -545.57265052 0 11334.42689730 0 1517.77484638 0 -267.91008052 0 7147
0.08150000 0.08149960 24706.75032186 0 96.90600598 0 9167.83921184 0 1552.05773615 0 363.03040379 0 7386
0.08250000 0.08250610 24383.66375476 0 697.72723586 0 9078.14470212 0 -220.84791363 0 228.71268139 0 7227
0.08350000 0.08350160 23339.09482618 0 326.85979230 0 8372.85548818 0 962.35986768 0 1119.26814003 0 7798
0.08450000 0.08449610 22975.85812612 0 383.56575494 0 8459.42228036 0 151.63218996 0 1611.75055812 0 7371
0.08550000 0.08548940 21882.26610703 0 593.21821437 0 7719.01833689 0 46.03567661 0 -621.32552568 0 8256
0.08650000 0.08650700 21545.53736768 0 761.73231521 0 7516.68163096 0 131.40850144 0 1720.03391393 0 8037
0.08750000 0.08749060 20603.45109890 0 40.57304029 0 7286.40619992 0 941.18677271 0 307.81398890 0 8155
0.08850000 0.08849210 20549.43696976 0 -64.82205692 0 6975.30921672 0 761.46612648 0 652.88996308 0 8718
0.08950000 0.08949900 20419.33722956 0 379.81360301 0 6051.98925318 0 -44.82595976 0 -680.67008407 0 8571
0.09050000 0.09049190 19726.47015620 0 627.14729496 0 6305.01272916 0 -569.21131858 0 550.27864539 0 8932
0.09150000 0.09150830 19078.07878261 0 396.99164885 0 6823.08253861 0 -217.39078754 0 246.25119112 0 9285
0.09250000 0.09250820 18738.90997993 0 46.58579998 0 6181.25715361 0 949.68041133 0 929.43121306 0 9204
0.09350000 0.09350330 18667.37175961 0 -148.03531479 0 6149.86906624 0 2214.79002739 0 1863.17690174 0 9349
0.09450000 0.09448040 19201.74562858 0 -96.00307163 0 5707.86268546 0 227.19762389 0 1030.98110320 0 9564
0.09550000 0.09549270 18454.19895427 0 409.86631026 0 4881.51305684 0 -500.85959915 0 1469.18431255 0 10155
0.09650000 0.09649430 18203.31607930 0 566.72799958 0 6160.56098010 0 -647.90114269 0 1989.98255645 0 9913
0.09750000 0.09749140 17340.42095673 0 587.72363541 0 6749.84736516 0 -905.48642797 0 1831.10116017 0 10476
0.09850000 0.09850240 16977.18425667 0 489.62532576 0 6640.47707205 0 25.34859789 0 1385.68978192 0 10575
0.09950000 0.09950330 16541.07839267 0 32.93630755 0 7245.55732156 0 923.91223346 0 1883.76216328 0 10882
0.10050000 0.10051200 16341.32593563 0 -36.29427833 0 6623.23026080 0 541.59978378 0 1111.80376448 0 10875
0.10150000 0.10150300 16733.28883578 0 245.02339562 0 6437.18652319 0 305.38945325 0 1653.54218822 0 11118
0.10250000 0.10250800 15856.97336490 0 458.37920572 0 7020.57239147 0 -789.11758959 0 2062.86281160 0 11575
0.10350000 0.10349800 15312.72833066 0 453.23399945 0 6941.19269491 0 -718.06294546 0 993.24441471 0 11364
0.10450000 0.10450100 15154.90059808 0 240.08337650 0 7921.24413084 0 -4.79820708 0 927.59561997 0 12093
0.10550000 0.10551000 14978.21783070 0 76.79633497 0 7535.04865311 0 282.53715106 0 568.77432542 0 12067
0.10650000 0.10649700 14812.29352435 0 -47.74427550 0 7319.89052351 0 634.48966734 0 1073.27405541 0 12054
0.10750000 0.10749900 15123.17977481 0 -82.91401738 0 7144.51651736 0 654.74330209 0 704.53723078 0 12807
0.10850000 0.10850100 15104.43565197 0 -71.76547894 0 5793.32035795 0 760.44462724 0 1028.44454646 0 12736
0.10950000 0.10950300 15105.43385969 0 127.80386243 0 6299.40058350 0 527.61489355 0 1233.74038373 0 12933
0.11050000 0.11050200 14633.05978167 0 230.01700615 0 5261.07599880 0 169.15406290 0 1408.77056277 0 13428
0.11150000 0.11150900 14767.15235277 0 119.97236827 0 5928.12276566 0 270.56864043 0 2302.68776321 0 13453
0.11250000 0.11250000 14269.93399358 0 -57.34437193 0 4779.08585302 0 558.91314221 0 1196.46287079 0 13668
0.11350000 0.11349100 14528.35888248 0 111.86137594 0 5222.44535983 0 243.44955477 0 2509.44985672 0 13791
0.11450000 0.11448600 14194.62476630 0 -51.42477830 0 4107.21441549 0 370.02118523 0 1199.00275489 0 14205
0.11550000 0.11549300 14464.69541199 0 42.40386417 0 4558.49303692 0 263.20297654 0 1636.43956253 0 14776
0.11650000 0.11649800 13947.18016239 0 417.97508435 0 4219.76788212 0 -939.40774472 0 212.77684961 0 14553
0.11750000 0.11747300 13792.67978890 0 360.44837314 0 5120.81672219 0 -543.69491088 0 730.05142024 0 14568
0.11850000 0.11849100 13177.67291812 0 266.04121384 0 5507.93276928 0 -201.29191517 0 -511.26979660 0 16015
0.11950000 0.11950300 13058.88619881 0 94.89539379 0 4892.89262491 0 281.39808513 0 -376.94541948 0 15270
0.12050000 0.12050700 12895.95651564 0 -176.41325130 0 4851.35609233 0 885.68642318 0 213.94918913 0 15999
0.12150000 0.12150000 13099.81271555 0 -32.62209394 0 4289.03240706 0 500.39487799 0 -213.02972890 0 15670
0.12250000 0.12250700 13448.74177154 0 -2.92188711 0 3487.36069164 0 422.88182988 0 -110.22642260 0 16887
0.12350000 0.12352200 13112.78941598 0 131.61479771 0 3625.83428554 0 -239.67743869 0 -518.05428178 0 16407
0.12450000 0.12449800 12667.03421063 0 295.40072128 0 3680.60261607 0 -487.58454552 0 -402.81896372 0 16306
0.12550000 0.12549900 12452.53046165 0 160.14690186 0 4063.31545797 0 -328.93939173 0 -807.35706297 0 17523
0.12650000 0.12650100 12710.62261463 0 -78.84798458 0 3056.61187576 0 774.49384642 0 -1152.66373404 0 17154
0.12750000 0.12750600 12632.65150009 0 -58.31185704 0 3638.47825006 0 178.24108056 0 -871.68378703 0 18007
0.12850000 0.12850300 12484.25128492 0 318.59795970 0 3089.41963634 0 -245.48589853 0 -1098.42112625 0 17496
0.12950000 0.12949900 12485.02766871 0 104.91651206 0 3735.40422019 0 15.61307794 0 -681.50746944 0 18405
0.13050000 0.13049000 12170.03767538 0 2.09893138 0 3913.19610727 0 -63.83527312 0 -831.83977112 0 18100
0.13150000 0.13148800 12355.70431229 0 4.09452609 0 3751.08717268 0 250.44477269 0 -217.99414866 0 19059
0.13250000 0.13249300 12309.89766889 0 -143.50123348 0 3583.12208609 0 117.12636713 0 -1214.25315069 0 18957
0.13350000 0.13349100 12590.17221577 0 5.35569500 0 3875.59694962 0 141.51923658 0 -305.80980962 0 19468
0.13450000 0.13450700 12331.52550294 0 308.09570531 0 3769.94220749 0 -399.80770375 0 -837.39313343 0 19953
0.13550000 0.13551000 12004.11336903 0 409.14538246 0 4152.14485432 0 -710.55531425 0 -621.86677609 0 19956
0.13650000 0.13649900 11871.90630141 0 149.85981669 0 4740.92104432 0 20.49819564 0 -862.06993752 0 19723
0.13750000 0.13749600 11487.59632715 0 149.05015931 0 4493.16588689 0 293.33997689 0 -1068.61353445 0 20946
0.13850000 0.13851100 11429.47845514 0 31.27784087 0 4588.67218381 0 515.54656215 0 -206.94953474 0 20955
0.13950000 0.13949800 11419.27455395 0 -41.59354132 0 3554.78407789 0 428.54610416 0 -569.74480515 0 20506
0.14050000 0.14048300 11414.83807517 0 -49.15252478 0 3878.53611681 0 471.71637005 0 -76.14383985 0 21447
0.14150000 0.14148400 11315.79368642 0 148.20611922 0 3142.92357041 0 96.46978920 0 -208.08860066 0 21771
0.14250000 0.14249400 11348.51271742 0 30.11160151 0 3071.90663636 0 50.34726851 0 253.34179333 0 22470
0.14350000 0.14350900 11153.30765113 0 159.31617120 0 2935.31854594 0 261.27089003 0 150.32010136 0 22519
0.14450000 0.14449900 10901.98112829 0 119.37455275 0 2861.14062075 0 128.20425464 0 15.15124050 0 22218
0.14550000 0.14550500 10647.36051995 0 202.97444975 0 3215.11617135 0 34.39513268 0 99.67004317 0 23559
0.14650000 0.14650700 10454.62879058 0 338.99356176 0 2888.41387404 0 -226.53991591 0 -78.07226626 0 23044
0.14750000 0.14750500 10014.03099181 0 271.10323613 0 3600.90127480 0 -370.43377775 0 183.48388935 0 23649
0.14850000 0.14849900 9787.57093252 0 87.06256868 0 3565.02125267 0 -1.75958512 0 -129.80915084 0 23640
0.14950000 0.14949500 9677.80135632 0 43.90694318 0 3574.65950282 0 171.69616524 0 -185.99382722 0 24457
0.15050000 0.15050000 9782.76844424 0 -23.66783790 0 3313.56163546 0 264.69363341 0 235.07791932 0 24591
0.15150000 0.15149900 9655.81860397 0 82.95793852 0 3116.03850901 0 119.66070563 0 -357.53138834 0 25020
0.15250000 0.15250500 9578.76805877 0 130.51787833 0 3277.95889326 0 236.10163680 0 373.42618269 0 25297
0.15350000 0.15350100 9646.60181931 0 -26.20262005 0 2971.15420328 0 301.34560284 0 238.42080608 0 25452
0.15450000 0.15450400 9535.54566426 0 -107.63296802 0 2731.08524533 0 417.81980760 0 659.35169442 0 26061
0.15550000 0.15549900 9647.69984781 0 5.59693962 0 2362.71332109 0 338.81832085 0 385.05530269 0 26128
0.15650000 0.15649500 9630.63049570 0 138.69763608 0 2430.74672317 0 -547.14649137 0 404.77434175 0 26331
0.15750000 0.15749700 9521.75930646 0 121.10588860 0 2534.56032661 0 -115.97399177 0 140.30475051 0 27345
0.15850000 0.15849900 9175.51432013 0 135.13514362 0 2934.36470300 0 -219.68999267 0 -233.69262882 0 26980
0.15950000 0.15949700 9203.99651389 0 226.86821534 0 2778.33374433 0 -481.63966396 0 -957.73816592 0 27777
0.16050000 0.16050000 9029.17706759 0 261.90419738 0 3331.64028649 0 -247.81837725 0 -959.43511905 0 28224
0.16150000 0.16150500 8481.62685665 0 196.47500834 0 3392.42004577 0 -100.82397130 0 -854.21847920 0 28075
0.16250000 0.16249700 8523.57376351 0 -63.67411803 0 3150.75395546 0 452.73822295 0 -904.28636046 0 28590
0.16350000 0.16349900 8581.52526757 0 -99.31057747 0 2887.82604061 0 670.30868788 0 -935.17645308 0 29163
0.16450000 0.16449100 8705.70230860 0 10.61718137 0 2244.29261128 0 486.46433463 0 -219.92734429 0 28996
0.16550000 0.16550500 8625.09148918 0 -51.03847191 0 2059.89037081 0 482.30069929 0 -63.19165096 0 30777
0.16650000 0.16650700 8581.04834610 0 153.71622586 0 1788.37786952 0 -37.15251515 0 126.67034211 0 29211
0.16750000 0.16749900 8503.25469070 0 210.63957596 0 2067.63202628 0 -97.51058712 0 339.89860344 0 30922
0.16850000 0.16850800 8061.19285394 0 180.37391773 0 2001.42867170 0 -98.40231936 0 384.52625260 0 30867
0.16950000 0.16949900 7937.42618719 0 109.34001414 0 2378.49609435 0 -55.74158306 0 731.48551201 0 30852
0.17050000 0.17049200 7879.36377117 0 146.38272644 0 2252.04535794 0 44.13808373 0 248.48717643 0 31257
0.17150000 0.17149500 7714.65949649 0 105.01866198 0 2536.04654700 0 22.82113593 0 559.58859611 0 32608
0.17250000 0.17250900 7695.10571627 0 41.27677674 0 2520.08631459 0 121.19572729 0 1081.45048580 0 32361
0.17350000 0.17350400 7638.98425971 0 -48.24349028 0 2303.73033572 0 218.57976386 0 788.30460486 0 32508
0.17450000 0.17449800 7677.71471945 0 104.14778120 0 2600.56403965 0 -103.97520217 0 921.99012903 0 32791
0.17550000 0.17549800 7620.53959918 0 80.05115762 0 2557.82965781 0 -186.40863799 0 585.49208658 0 33633
0.17650000 0.17650100 7412.56856521 0 160.48629248 0 2845.22475313 0 -295.09904072 0 605.94314463 0 33984
0.17750000 0.17750300 7503.99330165 0 21.65434201 0 2464.75233302 0 38.17057612 0 512.02843447 0 34069
0.17850000 0.17849800 7445.23214022 0 -133.02448884 0 3040.86237610 0 252.23156452 0 251.99864938 0 34536
