### header ###
fiducial parameters:
Omega_m = 0.31
Omega_nu = 0
Omega_de = 0.69
Omega_k = 0
H_0 = 100
w_de = -1
zeff = 0
beta = 0
fgrowth = 0
b_1 = 2
gamma = 0.55
Lx = 3500 Ly = 3500 Lz = 3500
nx = 700 ny = 700 nz = 700
xoffset = 1379.75464 yoffset = 22.6059522 zoffset = 368.141391
bins = 400 dk = 0.001
kx_ny = 0.628318531 ky_ny = 0.628318531 kz_ny = 0.628318531
############################
A(data) = 3.32605346 (not used)
A(ran) = 3.33144267 (used)
Ngal = 186922
weighted Ngal = 0
Nran = 9399747
weighted Nran = 0
SN(data) = 6640.78186
SN(ran) = 132.509408
SN(data+ran) = 6773.29127
############################
13 columns: k_central k_mean P_0(k) sigma^{lin}_{P_0(k)} P^img_1(k) sigma^{lin}_{P_1(k)} P_2(k) sigma^{lin}_{P_2(k)} P^img_3(k) sigma^{lin}_{P_3(k)} P_4(k) sigma^{lin}_{P_4(k)} N_modes
### header ###
0.00050000 0 0 0 0 0 0 0 0 0 0 0 0
0.00150000 0.00179520 41363.28807476 0 -17150.53966498 0 -16455.12161632 0 1595.80141691 0 -40420.42542219 0 3
0.00250000 0.00253879 66684.26888362 0 -13544.12606529 0 -17568.34505402 0 -16266.79309214 0 59226.65896760 0 6
0.00350000 0.00331552 65760.81582571 0 -9927.45310843 0 -36512.44217749 0 1850.63275799 0 26506.07520277 0 7
0.00450000 0.00420575 66247.16481189 0 -8909.89124442 0 -27464.57644304 0 -20889.82580410 0 -13578.84151174 0 24
0.00550000 0.00557378 80803.80624658 0 -1905.46763570 0 -23803.37233043 0 -27620.18593622 0 -30215.19328620 0 45
0.00650000 0.00659388 73206.11451311 0 9005.56390929 0 -30219.40794104 0 -39499.74516352 0 -3870.00698636 0 40
0.00750000 0.00754703 60921.06112538 0 15092.34624729 0 3936.88690395 0 -35569.57952492 0 -8709.38458599 0 57
0.00850000 0.00846663 47833.67055042 0 119.78825440 0 7356.92403012 0 6511.03171247 0 -12586.95576866 0 75
0.00950000 0.00948925 56617.34397356 0 -11349.06727727 0 11165.50796778 0 16109.85265532 0 -34580.57749305 0 112
0.01050000 0.01054430 67142.22440561 0 1645.85598874 0 -2185.87527695 0 -13441.42158155 0 -25149.17816813 0 105
0.01150000 0.01145670 63983.34060278 0 4545.60506606 0 -2548.19140766 0 -16225.42292752 0 -20180.98740714 0 144
0.01250000 0.01249090 55182.91947225 0 6796.89622261 0 23822.44918918 0 -19645.83715439 0 -24731.15095515 0 169
0.01350000 0.01339930 52684.51644769 0 4347.12809667 0 23621.36578851 0 -7255.90540832 0 -11829.09428119 0 180
0.01450000 0.01448870 48360.61331743 0 2914.26745413 0 35487.94831538 0 8846.90433695 0 -13952.28211299 0 267
0.01550000 0.01550050 48796.49735749 0 -1936.66717272 0 20291.45572874 0 11531.73929101 0 -17846.40136151 0 238
0.01650000 0.01653350 50852.58344775 0 -3412.30656189 0 22444.92252821 0 24408.84077183 0 15506.15880543 0 315
0.01750000 0.01747870 60236.62336171 0 -4828.00912276 0 12624.55492631 0 8405.06432412 0 14868.96954076 0 297
0.01850000 0.01844180 56548.57855248 0 -450.62424081 0 9388.75367266 0 5015.57235435 0 19393.40151185 0 388
0.01950000 0.01947590 61803.47675458 0 2443.44614368 0 12308.34490132 0 -311.38091784 0 21845.33242119 0 399
0.02050000 0.02045430 54587.98766795 0 122.23386333 0 16646.99932353 0 -5899.20801521 0 17148.65416149 0 462
0.02150000 0.02154770 61300.82370889 0 347.70126049 0 12732.69409656 0 1679.45122429 0 10817.49948113 0 571
0.02250000 0.02255340 61651.63826836 0 306.47528143 0 31347.71540658 0 -4760.84083404 0 3189.83933351 0 510
0.02350000 0.02348930 59082.91705515 0 3333.71434032 0 20180.87649517 0 -9514.09528937 0 748.82881668 0 555
0.02450000 0.02439640 57920.11596710 0 2970.24472513 0 34590.11592242 0 -2791.86500461 0 3424.39596657 0 592
0.02550000 0.02547300 54630.35604029 0 421.06841918 0 31742.78384187 0 6212.87815611 0 5494.97825124 0 837
0.02650000 0.02652900 55565.23303105 0 693.89300907 0 36425.81992932 0 7319.54669640 0 7713.09563772 0 723
0.02750000 0.02749970 53997.04869454 0 8.38361395 0 29824.56132968 0 5779.48963536 0 6327.62767973 0 826
0.02850000 0.02848090 54181.93894767 0 1186.88007663 0 35898.10077853 0 5776.41737380 0 15180.29943909 0 831
0.02950000 0.02946900 51852.34394067 0 1137.89025971 0 27228.66668395 0 -2475.46642927 0 11242.70269854 0 996
0.03050000 0.03053250 51582.16238301 0 1919.27617591 0 31340.39521659 0 80.33464862 0 7718.80760415 0 1041
0.03150000 0.03150510 52090.91558702 0 -826.73892964 0 29786.62943612 0 3802.25086420 0 6003.49854012 0 1036
0.03250000 0.03246190 53067.27365437 0 -1004.39661324 0 25522.50785740 0 2592.90002256 0 5075.06553478 0 1059
0.03350000 0.03345080 54934.03301273 0 -1136.63695445 0 23478.40025984 0 7931.40366725 0 2742.06553031 0 1302
0.03450000 0.03451200 51452.50629068 0 365.26971645 0 15693.60003386 0 3466.54251497 0 4183.54403288 0 1339
0.03550000 0.03553350 53568.26302053 0 1084.82110055 0 14264.05565920 0 3648.37159774 0 1970.45095862 0 1365
0.03650000 0.03647120 49738.25089037 0 2060.38947468 0 11935.56977189 0 1910.93559580 0 4139.22360988 0 1308
0.03750000 0.03744890 46450.82011491 0 1400.68508020 0 11210.98187526 0 1291.90262053 0 4826.10143688 0 1579
0.03850000 0.03847530 46941.49466790 0 818.30740172 0 12832.51486909 0 -768.16631856 0 3287.66369059 0 1662
0.03950000 0.03950240 43420.03963684 0 1269.72022663 0 12032.39592125 0 -1251.91885553 0 -1535.84240621 0 1683
0.04050000 0.04050350 42721.73787698 0 1935.15876994 0 14342.24859769 0 -3656.90072819 0 -3447.35474425 0 1822
0.04150000 0.04152450 42241.82178503 0 1133.26523058 0 15596.21932465 0 -1761.34862256 0 2685.52260827 0 1887
0.04250000 0.04250150 41706.78244425 0 -342.11240635 0 21218.34705771 0 -1105.25774004 0 -4758.67805063 0 1920
0.04350000 0.04349210 41084.34447151 0 1302.40598404 0 21083.25627888 0 -2291.85166379 0 -4190.18765986 0 2005
0.04450000 0.04448520 40631.93454800 0 1398.64429996 0 24385.21652233 0 458.75630641 0 -2521.00688394 0 2151
0.04550000 0.04548030 39617.09002723 0 283.10169298 0 26709.15501889 0 -2198.06450240 0 65.37107116 0 2274
0.04650000 0.04648670 41295.52086141 0 -664.20076572 0 28502.04700557 0 4443.47732456 0 847.46504938 0 2311
0.04750000 0.04749250 41582.56103843 0 -439.74155836 0 26540.34700134 0 2410.98221021 0 2000.82974707 0 2568
0.04850000 0.04851840 42154.75588899 0 149.01134012 0 22550.06707528 0 2879.04181262 0 3725.12268062 0 2493
0.04950000 0.04949480 40751.16491519 0 315.71868497 0 24233.71077202 0 1391.77884905 0 1447.25701618 0 2644
0.05050000 0.05050630 40020.25503630 0 1693.04903175 0 21727.65482157 0 2840.44444724 0 6428.87921667 0 2829
0.05150000 0.05149060 38237.12330294 0 621.30445241 0 21368.74368832 0 2180.54041122 0 543.35219289 0 2784
0.05250000 0.05249300 37574.31337331 0 5.89396188 0 15940.60098989 0 2853.52096844 0 7230.17383140 0 3055
0.05350000 0.05348950 36446.44955565 0 -386.13669439 0 15314.05927429 0 3232.07461148 0 1697.89588482 0 3009
0.05450000 0.05448610 36000.69435030 0 599.48030417 0 11151.42214765 0 1422.72328853 0 4643.08559604 0 3336
0.05550000 0.05550870 35874.92017690 0 913.47985361 0 10270.29309730 0 94.10414780 0 2768.50694384 0 3349
0.05650000 0.05647670 33607.76860872 0 406.05204763 0 9507.76221591 0 -454.16455088 0 -1137.00296395 0 3324
0.05750000 0.05747970 34078.36809523 0 335.79707880 0 10065.95997592 0 -407.49168500 0 661.39025642 0 3639
0.05850000 0.05849280 33467.57587929 0 256.97748769 0 8374.23079660 0 0.92263342 0 -5053.39333594 0 3846
0.05950000 0.05951020 32357.01432887 0 660.58392640 0 9365.50652385 0 84.33069596 0 -1424.27605611 0 3787
0.06050000 0.06049470 33406.35247214 0 75.54901896 0 9967.76960934 0 378.28412695 0 -2000.64119672 0 3930
0.06150000 0.06148310 31936.10340468 0 239.27593736 0 9589.72616136 0 1193.81207472 0 -862.76091909 0 4083
0.06250000 0.06249100 32400.49182090 0 971.75189326 0 12004.11336903 0 -478.56074768 0 84.53177936 0 4303
0.06350000 0.06350600 30843.73141725 0 676.47872074 0 11661.61720727 0 -2.45158708 0 1713.70084047 0 4470
0.06450000 0.06451750 31373.33607153 0 122.92817226 0 14128.41032052 0 -314.14373500 0 830.51991868 0 4479
0.06550000 0.06550280 31143.97011864 0 465.58959285 0 13206.84276610 0 -468.01856498 0 768.54896485 0 4636
0.06650000 0.06648880 30366.14447666 0 504.78588287 0 16080.68280735 0 -645.10727018 0 2226.73524651 0 4653
0.06750000 0.06749660 29809.81003774 0 743.23108958 0 14602.33716612 0 -434.79932100 0 269.27207951 0 5220
0.06850000 0.06852730 28911.64490887 0 823.88072819 0 18480.04144316 0 -256.84993893 0 3319.47324344 0 5029
0.06950000 0.06949320 28031.00387118 0 714.11004287 0 15617.07077491 0 381.41295361 0 844.98394862 0 5040
0.07050000 0.07048030 28179.07135044 0 -25.98168341 0 18261.10121540 0 2664.06114218 0 5359.92074600 0 5475
0.07150000 0.07148790 27272.03326402 0 -116.72930228 0 14084.82191652 0 2602.94864699 0 2415.18577385 0 5509
0.07250000 0.07249820 28002.72131896 0 -129.69158415 0 14246.30974408 0 2954.56177264 0 8284.08154781 0 5916
0.07350000 0.07351270 26878.51759629 0 281.57887164 0 10974.79483625 0 1817.33698475 0 4309.40693585 0 5721
0.07450000 0.07449140 26689.63451226 0 1421.72508081 0 12378.66308997 0 -1487.47369632 0 5518.83541588 0 6028
0.07550000 0.07549160 24663.38374179 0 1386.95417838 0 13496.10118251 0 -1481.04080209 0 5136.04493560 0 6183
0.07650000 0.07648840 23024.65939269 0 331.48925791 0 12167.04305220 0 -71.09246511 0 2716.25631501 0 6330
0.07750000 0.07749960 23297.05918974 0 -382.03627888 0 12528.39424877 0 1163.73274860 0 1582.75816930 0 6583
0.07850000 0.07848650 23440.35745431 0 -356.07067771 0 9295.68743906 0 969.75104133 0 -680.58024538 0 6549
0.07950000 0.07947320 24122.90971451 0 -186.47740341 0 10678.07204430 0 605.44736813 0 -652.80234262 0 6828
0.08050000 0.08048110 23920.82810611 0 -163.93121825 0 7398.08346199 0 -571.78669451 0 -3226.93938730 0 7147
0.08150000 0.08149960 24040.72394512 0 248.89865983 0 8521.25570335 0 101.39206241 0 -3972.09036307 0 7386
0.08250000 0.08250610 23643.10453453 0 260.44126850 0 7657.09618433 0 381.01810700 0 -4684.17848073 0 7227
0.08350000 0.08350160 23311.81048168 0 262.25467920 0 6871.66198124 0 698.09768184 0 -3533.88826284 0 7798
0.08450000 0.08449610 22273.45262339 0 497.54333126 0 6484.26865423 0 1078.21740189 0 -2991.61746165 0 7371
0.08550000 0.08548940 22115.73580279 0 356.49768879 0 6060.75129877 0 1454.73248293 0 -2189.83483426 0 8256
0.08650000 0.08650700 21470.89361222 0 523.37694719 0 5949.59532295 0 689.87355930 0 -378.83314120 0 8037
0.08750000 0.08749060 20877.29275155 0 484.60101354 0 5492.53818791 0 -13.88861864 0 -955.89591810 0 8155
0.08850000 0.08849210 19622.87837670 0 406.54449678 0 5897.79943320 0 -250.42259030 0 1100.26226494 0 8718
0.08950000 0.08949900 19613.11812339 0 289.61777119 0 5473.21732283 0 -139.72024444 0 372.02758276 0 8571
0.09050000 0.09049190 19748.54163813 0 -123.30083647 0 5831.88444974 0 889.70365472 0 -106.61058148 0 8932
0.09150000 0.09150830 19592.71032100 0 4.08390072 0 5512.93489910 0 -208.62541460 0 -344.64563573 0 9285
0.09250000 0.09250820 19426.00963087 0 441.57271498 0 6125.36861219 0 -315.62995539 0 -545.32198947 0 9204
0.09350000 0.09350330 19060.22195552 0 88.04303049 0 5768.11006729 0 -219.87299742 0 -532.26875978 0 9349
0.09450000 0.09448040 18689.11050563 0 511.57147716 0 6523.11002595 0 -142.36216755 0 -1211.80199617 0 9564
0.09550000 0.09549270 18492.90723162 0 -46.80939851 0 5084.40432261 0 685.65779534 0 -944.64500792 0 10155
0.09650000 0.09649430 18350.38535083 0 -92.97162568 0 5503.41865212 0 977.29194614 0 -1016.42168897 0 9913
0.09750000 0.09749140 18555.23975847 0 62.97858907 0 4097.87562766 0 458.44464378 0 -565.26617983 0 10476
0.09850000 0.09850240 18008.88739680 0 241.30895376 0 3734.11764135 0 549.80061480 0 -675.75224734 0 10575
0.09950000 0.09950330 17693.78649150 0 437.67083189 0 3666.58334313 0 77.33414711 0 89.12708408 0 10882
0.10050000 0.10051200 17004.13586526 0 403.53545505 0 4184.50896702 0 -206.20753366 0 465.92121964 0 10875
0.10150000 0.10150300 16474.42029901 0 501.80789649 0 4169.58021593 0 -110.19614363 0 347.93639386 0 11118
0.10250000 0.10250800 15895.68164225 0 278.03856158 0 4225.97895241 0 101.94318398 0 997.50454345 0 11575
0.10350000 0.10349800 15581.35712074 0 264.65703246 0 4762.28268964 0 287.19989026 0 191.68028390 0 11364
0.10450000 0.10450100 15663.98653801 0 41.90087839 0 4037.77243139 0 450.06857184 0 1512.67289578 0 12093
0.10550000 0.10551000 15404.67435336 0 -152.69139927 0 4826.03488970 0 510.45903011 0 984.76741288 0 12067
0.10650000 0.10649700 15415.65463833 0 224.63999387 0 3709.52845771 0 -424.88490005 0 774.39624388 0 12054
0.10750000 0.10749900 15796.52634154 0 115.91964490 0 4167.12906140 0 57.54323709 0 668.13481328 0 12807
0.10850000 0.10850100 14816.61909116 0 207.00609984 0 4080.77300196 0 -708.51120665 0 -384.67598376 0 12736
0.10950000 0.10950300 15007.60950261 0 342.28542902 0 4815.77553252 0 -420.77782982 0 80.45798273 0 12933
0.11050000 0.11050200 14618.41940170 0 279.75547886 0 4937.59014861 0 -39.19673366 0 -831.63236573 0 13428
0.11150000 0.11150900 14034.80061828 0 286.87713642 0 4721.45599368 0 -429.63525970 0 -304.81382013 0 13453
0.11250000 0.11250000 14173.10784423 0 82.16979806 0 5224.16449535 0 329.45624151 0 -1483.59177739 0 13668
0.11350000 0.11349100 13618.21526091 0 161.76288925 0 5022.91472673 0 437.96807597 0 -641.39282832 0 13791
0.11450000 0.11448600 13768.94462743 0 -78.93604868 0 4525.00871333 0 552.19520422 0 -744.08178438 0 14205
0.11550000 0.11549300 13842.59017517 0 -85.97019670 0 4210.51782386 0 421.51095794 0 584.82994212 0 14776
0.11650000 0.11649800 13898.82254370 0 -84.33712886 0 3648.62669527 0 672.98499371 0 -1094.29631010 0 14553
0.11750000 0.11747300 13886.28949114 0 173.91107727 0 3644.06821332 0 -41.83532942 0 256.09241018 0 14568
0.11850000 0.11849100 13546.45521665 0 158.93019755 0 3496.89912102 0 -355.62924807 0 -415.71137106 0 16015
0.11950000 0.11950300 13554.32996648 0 -56.59505067 0 3740.61708276 0 264.85556488 0 131.77340182 0 15270
0.12050000 0.12050700 13710.16128361 0 -129.30450138 0 3251.31783819 0 318.40830023 0 -900.49760759 0 15999
0.12150000 0.12150000 13866.87989648 0 129.49859733 0 3254.40119094 0 82.44286333 0 -1038.48318882 0 15670
0.12250000 0.12250700 13609.00956744 0 328.50794417 0 3226.29609787 0 -616.76149814 0 -808.64364182 0 16887
0.12350000 0.12352200 13163.69800997 0 224.75866968 0 3762.01200167 0 -249.10717434 0 -913.32790421 0 16407
0.12450000 0.12449800 12934.66479299 0 275.26908970 0 4016.61042762 0 -188.63020474 0 -1427.79196554 0 16306
0.12550000 0.12549900 12661.71043609 0 180.24858720 0 4273.52691373 0 48.06115100 0 -691.27548659 0 17523
0.12650000 0.12650100 12465.39625011 0 73.43226402 0 4445.08554812 0 -64.88505491 0 -850.76578959 0 17154
0.12750000 0.12750600 12589.72856790 0 127.03302425 0 4445.08554812 0 119.80600032 0 -851.86159985 0 18007
0.12850000 0.12850300 12226.15913193 0 161.30371370 0 4410.29246329 0 -210.40333347 0 -678.63928591 0 17496
0.12950000 0.12949900 12239.57948024 0 142.91007268 0 4910.61635763 0 163.26574644 0 -138.87842259 0 18405
0.13050000 0.13049000 12054.68922711 0 41.55816041 0 4617.77548460 0 132.01740815 0 -308.03470372 0 18100
0.13150000 0.13148800 12213.95881529 0 -49.85859038 0 4396.89429738 0 919.11418166 0 555.54363658 0 19059
0.13250000 0.13249300 12118.35269760 0 38.17057612 0 4430.40080336 0 187.47561114 0 473.26137378 0 18957
0.13350000 0.13349100 12187.89450246 0 124.94455186 0 3867.28964310 0 139.93541366 0 413.68057289 0 19468
0.13450000 0.13450700 11936.45706765 0 213.69076424 0 4526.50602492 0 -208.80620111 0 926.79372643 0 19953
0.13550000 0.13551000 11679.36312239 0 143.06978591 0 4147.26472767 0 -57.59292566 0 1410.48969830 0 19956
0.13650000 0.13649900 11626.01446507 0 -59.10698495 0 4410.99120870 0 248.52377738 0 474.45922305 0 19723
0.13750000 0.13749600 11622.46528204 0 -10.08769872 0 4066.87573219 0 283.60856068 0 174.00535244 0 20946
0.13850000 0.13851100 11701.76734022 0 73.02654803 0 3836.99958424 0 154.51146469 0 457.95552199 0 20955
0.13950000 0.13949800 11409.18156473 0 241.82913090 0 3647.30684283 0 -225.29104713 0 65.41111039 0 20506
0.14050000 0.14048300 11448.55531389 0 100.01852858 0 3735.87005046 0 130.25279872 0 102.44162237 0 21447
0.14150000 0.14148400 11090.70893556 0 116.60619000 0 3581.92423682 0 72.29164532 0 -321.48943474 0 21771
0.14250000 0.14249400 10950.97094521 0 297.49695750 0 3907.50632324 0 161.73848862 0 336.07435873 0 22470
0.14350000 0.14350900 10456.85812116 0 162.02907798 0 3117.95728608 0 95.31231189 0 -174.82166454 0 22519
0.14450000 0.14449900 10449.02773612 0 69.42412727 0 3385.57677725 0 419.27829999 0 717.15457643 0 22218
0.14550000 0.14550500 10218.23101882 0 137.73602930 0 2992.97058767 0 273.30151136 0 247.93039834 0 23559
0.14650000 0.14650700 10025.75438698 0 63.98189875 0 3147.43768757 0 385.88603334 0 742.46690611 0 23044
0.14750000 0.14750500 9956.98896590 0 96.31351424 0 2912.90323691 0 100.42014082 0 1053.54281603 0 23649
0.14850000 0.14849900 9970.44258780 0 -7.84478142 0 2671.44787934 0 33.89015048 0 443.65564177 0 23640
0.14950000 0.14949500 9804.03026879 0 131.75787415 0 2872.48691523 0 -72.89955383 0 830.03190601 0 24457
0.15050000 0.15050000 9814.73327385 0 29.97628890 0 2463.08865347 0 -99.84506226 0 442.18273081 0 24591
0.15150000 0.15149900 9561.64325068 0 54.68902847 0 2815.50034531 0 456.01788989 0 889.56390563 0 25020
0.15250000 0.15250500 9740.23370394 0 105.31313326 0 2455.91264905 0 -19.81176146 0 614.80944747 0 25297
0.15350000 0.15350100 9458.56166625 0 200.97803430 0 2596.31611122 0 198.49138794 0 1004.32452046 0 25452
0.15450000 0.15450400 9230.18282989 0 181.29005060 0 2901.85640475 0 -138.98933456 0 1046.85815163 0 26061
0.15550000 0.15549900 8924.48725960 0 197.81704317 0 2468.32369843 0 -172.05108354 0 1013.15644059 0 26128
0.15650000 0.15649500 8873.33465927 0 117.65208987 0 3290.95777608 0 155.91339198 0 1141.15107161 0 26331
0.15750000 0.15749700 8778.31637502 0 -12.49656251 0 2640.61435183 0 66.22764431 0 615.70339795 0 27345
0.15850000 0.15849900 8919.47403858 0 -201.53148503 0 2655.02181666 0 598.51204268 0 1475.82793952 0 26980
0.15950000 0.15949700 8950.80666996 0 -33.68119233 0 2067.42129354 0 258.01895109 0 828.31498873 0 27777
0.16050000 0.16050000 9137.95952726 0 -15.09778093 0 2044.83961656 0 95.69251812 0 1151.17751365 0 28224
0.16150000 0.16150500 9058.16945642 0 136.53596179 0 2030.32123975 0 -112.47028265 0 795.20998408 0 28075
0.16250000 0.16249700 8827.19527997 0 167.72108025 0 2159.28967786 0 -382.53427362 0 835.94795047 0 28590
0.16350000 0.16349900 8686.64763224 0 205.39454893 0 2058.28214726 0 -287.64131989 0 328.18629946 0 29163
0.16450000 0.16449100 8580.03904718 0 151.79412143 0 2641.70128913 0 -168.86458266 0 269.68134468 0 28996
0.16550000 0.16550500 8449.45129431 0 7.67808073 0 2555.88869834 0 79.36660895 0 139.57494976 0 30777
0.16650000 0.16650700 8335.93289354 0 29.78285843 0 2511.97864962 0 183.86099005 0 -214.91523239 0 29211
0.16750000 0.16749900 8419.51615374 0 65.60298809 0 2330.46012037 0 9.35973910 0 100.73501990 0 30922
0.16850000 0.16850800 8256.78611212 0 56.22671202 0 2220.79036494 0 242.74193641 0 27.45803264 0 30867
0.16950000 0.16949900 8231.55363906 0 105.27198492 0 2140.41246066 0 114.24709240 0 541.18940949 0 30852
0.17050000 0.17049200 8195.77343771 0 -40.74805938 0 1841.63779727 0 307.04647808 0 103.55096389 0 31257
0.17150000 0.17149500 8155.55675757 0 -30.85992456 0 1907.45295996 0 390.23821902 0 663.46985584 0 32608
0.17250000 0.17250900 8166.27085383 0 65.71855837 0 1537.63918011 0 222.16776607 0 959.56599517 0 32361
0.17350000 0.17350400 8216.94653268 0 99.35682777 0 1395.03966095 0 43.14153968 0 830.33247745 0 32508
0.17450000 0.17449800 7896.57730883 0 117.05649259 0 1365.89199537 0 106.22571695 0 1158.58643321 0 32791
0.17550000 0.17549800 7872.67577941 0 94.51784945 0 1691.08588989 0 94.76729047 0 1233.25237107 0 33633
0.17650000 0.17650100 7620.10704250 0 142.72706793 0 1348.91137284 0 -33.20537998 0 1541.35473109 0 33984
0.17750000 0.17750300 7543.64433074 0 187.48559321 0 1726.27825781 0 -159.71434517 0 1031.95380117 0 34069
0.17850000 0.17849800 7312.88088704 0 128.16432634 0 1722.37415648 0 -91.27123428 0 1141.38398674 0 34536
