### header ###
fiducial parameters:
Omega_m = 0.31
Omega_nu = 0
Omega_de = 0.69
Omega_k = 0
H_0 = 100
w_de = -1
zeff = 0
beta = 0
fgrowth = 0
b_1 = 2
gamma = 0.55
Lx = 3500 Ly = 3500 Lz = 3500
nx = 700 ny = 700 nz = 700
xoffset = 1379.75464 yoffset = 22.6059522 zoffset = 368.141391
bins = 400 dk = 0.001
kx_ny = 0.628318531 ky_ny = 0.628318531 kz_ny = 0.628318531
############################
A(data) = 3.31652121 (not used)
A(ran) = 3.30791487 (used)
Ngal = 185771
weighted Ngal = 0
Nran = 9399747
weighted Nran = 0
SN(data) = 6686.96987
SN(ran) = 131.573581
SN(data+ran) = 6818.54345
############################
13 columns: k_central k_mean P_0(k) sigma^{lin}_{P_0(k)} P^img_1(k) sigma^{lin}_{P_1(k)} P_2(k) sigma^{lin}_{P_2(k)} P^img_3(k) sigma^{lin}_{P_3(k)} P_4(k) sigma^{lin}_{P_4(k)} N_modes
### header ###
0.00050000 0 0 0 0 0 0 0 0 0 0 0 0
0.00150000 0.00179520 4378.47181925 0 -1647.08711160 0 3214.42851714 0 7072.17973087 0 15732.19739924 0 3
0.00250000 0.00253879 8610.60638596 0 -3850.59739170 0 8018.84666399 0 4474.65467918 0 -6904.66938336 0 6
0.00350000 0.00331552 23742.14892327 0 -14861.87117471 0 7864.51265845 0 13964.37151766 0 5003.98205354 0 7
0.00450000 0.00420575 35881.35307113 0 -11520.42627012 0 20861.65416385 0 -5302.00251554 0 8525.15980468 0 24
0.00550000 0.00557378 54354.18523628 0 5319.81497784 0 37084.85885199 0 -10051.76324383 0 21941.27127479 0 45
0.00650000 0.00659388 45951.82716421 0 10869.32864447 0 50608.46620292 0 21544.65007192 0 -1967.66706819 0 40
0.00750000 0.00754703 40726.20972206 0 7285.59654255 0 72830.34476050 0 8632.15658164 0 42288.18298827 0 57
0.00850000 0.00846663 48555.59655978 0 -4217.64946350 0 57261.96434019 0 54504.13821902 0 25788.47476022 0 75
0.00950000 0.00948925 56895.40028105 0 -11093.30427564 0 56991.33913466 0 39259.39892565 0 48924.60068224 0 112
0.01050000 0.01054430 78582.79405770 0 -9387.83310331 0 28193.93355435 0 21816.60622109 0 30313.57220313 0 105
0.01150000 0.01145670 83589.13853619 0 -17.46619513 0 25665.14065016 0 16720.97760717 0 39398.70435932 0 144
0.01250000 0.01249090 82217.04656172 0 5326.69151994 0 25631.86705931 0 -7756.31803222 0 35534.64225453 0 169
0.01350000 0.01339930 72756.14465292 0 1919.13199034 0 39337.92460005 0 1015.88598416 0 45256.74185147 0 180
0.01450000 0.01448870 75409.82443475 0 -367.43360898 0 23144.00067186 0 18742.01551508 0 23745.03263448 0 267
0.01550000 0.01550050 79097.86924397 0 -4150.74736351 0 16419.29705018 0 7531.98748275 0 5891.14471503 0 238
0.01650000 0.01653350 79785.41254280 0 -390.54988166 0 23055.71474415 0 -12378.99582588 0 11325.44302777 0 315
0.01750000 0.01747870 79623.59197932 0 2345.54414822 0 12442.21564849 0 8792.46874232 0 16911.08072286 0 297
0.01850000 0.01844180 73896.20878723 0 2576.72905740 0 19601.36145462 0 -8794.47624897 0 2217.72919458 0 388
0.01950000 0.01947590 74144.76251084 0 1880.45698659 0 24507.44151270 0 -3219.38628218 0 -13179.00386176 0 399
0.02050000 0.02045430 71183.08018975 0 3566.94002975 0 31257.43306342 0 3565.67563329 0 7297.02047540 0 462
0.02150000 0.02154770 70173.00488368 0 469.60904263 0 27162.23041423 0 -2789.08111418 0 3838.66326378 0 571
0.02250000 0.02255340 67836.53333457 0 -1185.72659214 0 17230.17445906 0 6929.18092861 0 -14849.33812216 0 510
0.02350000 0.02348930 77741.30494524 0 -3122.52685923 0 28426.18321845 0 6407.56193614 0 -1830.67969468 0 555
0.02450000 0.02439640 75868.22360462 0 -1075.11186674 0 528.32029367 0 1888.01009171 0 -23220.41901883 0 592
0.02550000 0.02547300 75302.35073632 0 101.02716203 0 19340.38559043 0 -971.75411150 0 -10632.46504244 0 837
0.02650000 0.02652900 74479.27301080 0 1273.43577761 0 4526.77221364 0 -7577.31720468 0 -32272.61032009 0 723
0.02750000 0.02749970 72908.42678702 0 2249.03964357 0 10308.49117959 0 -1100.24673726 0 -14980.65789403 0 826
0.02850000 0.02848090 66601.30673044 0 3357.95969685 0 11346.84903788 0 -5853.56773977 0 -31946.08548194 0 831
0.02950000 0.02946900 65028.79682712 0 5127.01670129 0 15262.37429651 0 -5956.06149077 0 -22448.24988729 0 996
0.03050000 0.03053250 56353.37348619 0 3631.67934633 0 22143.79653107 0 1678.24228383 0 -23149.65718230 0 1041
0.03150000 0.03150510 52918.09705542 0 2770.83609520 0 25352.36889622 0 -3011.47070418 0 -19524.61037174 0 1036
0.03250000 0.03246190 51957.48848774 0 2311.28344084 0 28455.68580233 0 1419.55120621 0 -13282.48472928 0 1059
0.03350000 0.03345080 48710.98422902 0 944.06715656 0 27827.48040718 0 348.44991628 0 -17388.22401558 0 1302
0.03450000 0.03451200 50014.97625422 0 404.89523579 0 27311.62883712 0 -367.38258947 0 -7402.74176471 0 1339
0.03550000 0.03553350 47479.75045580 0 1938.75231775 0 28259.37161635 0 -851.31702208 0 -16238.73236386 0 1365
0.03650000 0.03647120 48362.27699697 0 325.53550339 0 33310.85726641 0 -222.08569121 0 -4648.10990826 0 1308
0.03750000 0.03744890 46031.35104633 0 -699.57059279 0 27708.02821605 0 4123.71811655 0 -11158.07686582 0 1579
0.03850000 0.03847530 49570.55199251 0 347.29975916 0 27822.04572068 0 3733.45216953 0 -7831.38325317 0 1662
0.03950000 0.03950240 47072.70352780 0 1143.35821980 0 28430.84152117 0 -1681.14817743 0 -10329.34262985 0 1683
0.04050000 0.04050350 46474.88801229 0 1968.98692063 0 26079.50776814 0 -1141.28416597 0 -10889.73644686 0 1822
0.04150000 0.04152450 42136.23359008 0 2034.10333791 0 30838.85129059 0 1436.94220302 0 -9077.88960459 0 1887
0.04250000 0.04250150 41185.60709965 0 1348.25699222 0 25617.78123919 0 -643.81403661 0 -14482.10859120 0 1920
0.04350000 0.04349210 39758.94643620 0 1776.36610323 0 30488.03673112 0 1303.77020126 0 -9106.69344306 0 2005
0.04450000 0.04448520 36796.59864330 0 417.08113388 0 25151.72914342 0 2960.87266371 0 -6441.47881641 0 2151
0.04550000 0.04548030 37397.18695805 0 -946.93201273 0 22584.56069779 0 6809.07435686 0 -5525.62322841 0 2274
0.04650000 0.04648670 38513.62684286 0 -779.51372215 0 17874.57300176 0 6038.66872564 0 -3288.00751769 0 2311
0.04750000 0.04749250 38217.60279631 0 -60.45711636 0 16326.79646763 0 4776.59033371 0 332.05269071 0 2568
0.04850000 0.04851840 38246.32899640 0 268.63211745 0 13239.67270906 0 2347.81784359 0 7761.03179093 0 2493
0.04950000 0.04949480 36589.96964416 0 723.12718599 0 10672.50426343 0 1274.12343182 0 3910.76713514 0 2644
0.05050000 0.05050630 36075.33810576 0 728.37221303 0 10687.25555537 0 56.41504054 0 6185.28325810 0 2829
0.05150000 0.05149060 35491.83023431 0 467.84443319 0 11831.75616846 0 589.75221533 0 4927.96298966 0 2784
0.05250000 0.05249300 34128.94395331 0 -186.23117884 0 10267.04337659 0 1341.03662301 0 6890.18428014 0 3055
0.05350000 0.05348950 35582.66713732 0 263.30723379 0 9975.16743770 0 305.81757345 0 4141.38639328 0 3009
0.05450000 0.05448610 35429.27588352 0 -647.35545580 0 7963.29085848 0 1947.35908658 0 5722.04832636 0 3336
0.05550000 0.05550870 35219.20861332 0 -307.52007218 0 6812.36844236 0 1750.70107349 0 3019.20126846 0 3349
0.05650000 0.05647670 36126.91217157 0 327.24022036 0 6489.49260800 0 -1066.55389917 0 3741.71511126 0 3324
0.05750000 0.05747970 34691.37855056 0 168.56955682 0 6890.48374246 0 -421.42888308 0 2141.74340429 0 3639
0.05850000 0.05849280 35056.61166606 0 827.81921222 0 6504.26608233 0 50.60824438 0 -616.15480966 0 3846
0.05950000 0.05951020 33174.76827986 0 1088.29708167 0 7998.96014786 0 -2448.39281752 0 2550.06581994 0 3787
0.06050000 0.06049470 32169.68401241 0 1155.32562131 0 9232.26797491 0 652.15461672 0 -2452.56310757 0 3930
0.06150000 0.06148310 30879.99963127 0 458.87387310 0 8174.74452829 0 419.49125098 0 497.64426115 0 4083
0.06250000 0.06249100 30725.83199369 0 558.90870573 0 8958.74796697 0 126.17567472 0 -1461.97503453 0 4303
0.06350000 0.06350600 29206.00527588 0 836.61785876 0 9529.65623869 0 131.99633488 0 694.34774815 0 4470
0.06450000 0.06451750 28218.44509961 0 1197.87145280 0 10412.72624851 0 -1728.25249087 0 -744.95687982 0 4479
0.06550000 0.06550280 27289.77917913 0 558.04248325 0 8674.50277158 0 515.35912092 0 716.17966022 0 4636
0.06650000 0.06648880 27230.99583531 0 -670.08908218 0 9387.81092091 0 2642.98786797 0 1200.86607598 0 4653
0.06750000 0.06749660 27275.80427098 0 218.02520401 0 8799.72238513 0 1320.57336464 0 1992.93281484 0 5220
0.06850000 0.06852730 27229.33215576 0 3.58775821 0 7776.14909237 0 2196.09026934 0 2364.86501330 0 5029
0.06950000 0.06949320 27716.01387785 0 -571.81553162 0 4254.17277505 0 1505.18633784 0 2417.72565796 0 5040
0.07050000 0.07048030 27679.96748777 0 -234.45348493 0 4561.59857206 0 400.52308595 0 3468.35038007 0 5475
0.07150000 0.07148790 27529.34903321 0 417.59132894 0 6286.13551195 0 -654.02348340 0 3239.36152788 0 5509
0.07250000 0.07249820 26718.24980039 0 491.45426413 0 5126.41777665 0 -981.37794309 0 2768.96168291 0 5916
0.07350000 0.07351270 27615.97128138 0 365.78212975 0 4917.61490290 0 -258.01229637 0 630.77855284 0 5721
0.07450000 0.07449140 26804.53931265 0 -291.27923249 0 5945.05902340 0 -90.87172936 0 -468.72729247 0 6028
0.07550000 0.07549160 27136.49883731 0 469.81090241 0 6567.26408100 0 -560.26405000 0 -985.30089945 0 6183
0.07650000 0.07648840 26144.94583014 0 720.33553172 0 6148.53812261 0 -801.04284455 0 -927.65994891 0 6330
0.07750000 0.07749960 25320.86989688 0 931.71156316 0 7265.04455460 0 -595.08153546 0 -1796.21934576 0 6583
0.07850000 0.07848650 24336.52616773 0 818.94403642 0 9185.74040371 0 -1299.04535136 0 -793.20136831 0 6549
0.07950000 0.07947320 22981.62554853 0 906.37926933 0 9338.83219519 0 -168.18912876 0 -1358.27234307 0 6828
0.08050000 0.08048110 22914.96745488 0 160.54951230 0 9949.95714704 0 1404.21208083 0 79.41041917 0 7147
0.08150000 0.08149960 22676.95036837 0 -511.93526842 0 8798.74635980 0 690.91058621 0 -959.01809004 0 7386
0.08250000 0.08250610 22744.71758172 0 -61.51022551 0 7979.40636764 0 856.79940073 0 -663.35894387 0 7227
0.08350000 0.08350160 23219.97537095 0 299.48671824 0 8595.88836761 0 -821.68245295 0 -1497.45577357 0 7798
0.08450000 0.08449610 22768.89639107 0 212.23449008 0 7480.65742327 0 -962.93771904 0 -1679.93923696 0 7371
0.08550000 0.08548940 22611.06865849 0 -31.76052976 0 8759.32824584 0 629.53412054 0 -2747.64440238 0 8256
0.08650000 0.08650700 22744.60666975 0 -449.29884277 0 8321.40342554 0 -67.77031889 0 -3084.57278327 0 8037
0.08750000 0.08749060 23518.10674492 0 69.54624134 0 8323.86567126 0 708.21396257 0 -3763.95296114 0 8155
0.08850000 0.08849210 22748.37767671 0 393.57888755 0 6585.15418167 0 476.36358157 0 -1528.27820989 0 8718
0.08950000 0.08949900 22415.97450417 0 452.99442960 0 7512.21187859 0 312.06302645 0 -1708.07760362 0 8571
0.09050000 0.09049190 22028.55899477 0 494.01965799 0 7973.46148608 0 289.42256612 0 -487.21631778 0 8932
0.09150000 0.09150830 20644.93217548 0 692.01305119 0 6920.89580449 0 1129.51640601 0 450.04528033 0 9285
0.09250000 0.09250820 20377.07976918 0 500.40153271 0 8214.32901020 0 177.32162033 0 961.61786661 0 9204
0.09350000 0.09350330 19608.79255658 0 366.00728105 0 6539.12571434 0 577.64284650 0 1233.95111647 0 9349
0.09450000 0.09448040 18565.99821951 0 589.69010462 0 7954.67299845 0 132.86477560 0 1027.94766084 0 9564
0.09550000 0.09549270 18088.63310286 0 590.70605827 0 6293.07860124 0 -399.15110489 0 1891.21544763 0 10155
0.09650000 0.09649430 17540.17341377 0 -134.07704343 0 6913.05432825 0 1439.04953044 0 870.82865575 0 9913
0.09750000 0.09749140 17792.27632040 0 -185.17086041 0 5416.86295113 0 1432.23953551 0 1703.39711850 0 10476
0.09850000 0.09850240 17410.18458553 0 137.17037826 0 3733.39671354 0 459.18886309 0 220.07929368 0 10575
0.09950000 0.09950330 17360.49602321 0 361.07946225 0 4357.85328412 0 -399.49936848 0 548.77578820 0 10882
0.10050000 0.10051200 16627.36790493 0 548.21679188 0 4307.95398905 0 -559.96569680 0 238.65372121 0 10875
0.10150000 0.10150300 16206.56789271 0 300.98292070 0 4288.92149509 0 -267.13036938 0 -410.32770406 0 11118
0.10250000 0.10250800 15880.81943834 0 44.93831359 0 4208.74323235 0 52.30009556 0 -1018.81073279 0 11575
0.10350000 0.10349800 15684.61616433 0 119.43555434 0 4575.69548338 0 190.60221956 0 -1856.54436597 0 11364
0.10450000 0.10450100 15727.87183243 0 230.12569988 0 4355.01393770 0 -453.79188666 0 -1812.86723238 0 12093
0.10550000 0.10551000 15470.00150338 0 55.67259582 0 4517.38906103 0 -53.02013607 0 -1944.06500108 0 12067
0.10650000 0.10649700 15448.70640524 0 98.74315184 0 4465.67080966 0 -367.73972602 0 -2397.40658515 0 12054
0.10750000 0.10749900 14967.79210557 0 418.73704958 0 4618.57405078 0 -373.85319377 0 -3047.48382068 0 12807
0.10850000 0.10850100 14556.75234666 0 463.66637930 0 4944.22268438 0 -732.41939079 0 -2959.08698100 0 12736
0.10950000 0.10950300 14460.25893321 0 -44.49322385 0 5501.98788771 0 122.52112533 0 -3284.42506108 0 12933
0.11050000 0.11050200 14345.46504480 0 -24.62999924 0 5314.16955859 0 768.22621102 0 -2832.42551185 0 13428
0.11150000 0.11150900 14294.11280293 0 16.84919184 0 4463.13092556 0 469.25634256 0 -2527.78360527 0 13453
0.11250000 0.11250000 14484.88139044 0 26.78679340 0 4558.91450240 0 772.55843255 0 -1846.52901512 0 13668
0.11350000 0.11349100 14001.08337956 0 111.78595580 0 4212.29241537 0 575.10628976 0 -445.47681631 0 13791
0.11450000 0.11448600 14271.15402525 0 9.04330725 0 4293.04742035 0 645.07843306 0 134.25117522 0 14205
0.11550000 0.11549300 14461.81170079 0 -140.11952753 0 3823.62360072 0 218.47217925 0 809.64184954 0 14776
0.11650000 0.11649800 14111.66261313 0 249.90130404 0 4341.06121194 0 -346.84945656 0 831.38392292 0 14553
0.11750000 0.11747300 14039.12618509 0 377.74953126 0 4260.12874781 0 -660.76914939 0 991.29347316 0 14568
0.11850000 0.11849100 13682.87693911 0 230.74347955 0 5394.68055724 0 -397.33214859 0 429.70846160 0 16015
0.11950000 0.11950300 13592.81641989 0 241.58068809 0 5834.79034334 0 -191.33978415 0 780.24241379 0 15270
0.12050000 0.12050700 13468.04045423 0 38.69385879 0 5852.22570494 0 135.88158117 0 139.27105096 0 15999
0.12150000 0.12150000 13332.39511555 0 13.56187198 0 5781.85206031 0 415.46403736 0 264.64594126 0 15670
0.12250000 0.12250700 13114.12035961 0 260.19726217 0 5627.35168682 0 -149.27198325 0 638.49026208 0 16887
0.12350000 0.12352200 13094.71076495 0 111.18370381 0 5221.44715210 0 395.56643004 0 807.37591801 0 16407
0.12450000 0.12449800 12995.99911211 0 -100.34294609 0 5869.52797218 0 415.61598676 0 1231.74396828 0 16306
0.12550000 0.12549900 12936.10664859 0 -13.69496634 0 4779.98423997 0 429.99794184 0 760.07972686 0 17523
0.12650000 0.12650100 12948.19605326 0 20.51571973 0 4956.25663307 0 519.47839146 0 1140.05304311 0 17154
0.12750000 0.12750600 13202.07355141 0 -163.03726778 0 3867.03454557 0 108.70016299 0 990.06789590 0 18007
0.12850000 0.12850300 13302.67070773 0 -24.02930001 0 4615.14687093 0 543.33555610 0 1150.57858901 0 17496
0.12950000 0.12949900 13150.83222151 0 280.17028963 0 4244.12415062 0 -387.96008717 0 636.36075226 0 18405
0.13050000 0.13049000 12615.01649694 0 327.61843017 0 3929.92163227 0 -261.78884893 0 559.27249699 0 18100
0.13150000 0.13148800 12516.52666804 0 292.27078550 0 4907.71046403 0 -121.65268461 0 577.71826664 0 19059
0.13250000 0.13249300 12001.11874585 0 48.56114216 0 4253.01929057 0 289.39927461 0 246.87229815 0 18957
0.13350000 0.13349100 12128.44568682 0 78.77167714 0 4330.09201816 0 780.25017763 0 1135.21728124 0 19468
0.13450000 0.13450700 11955.86666231 0 -60.54274040 0 3553.17585433 0 310.37272804 0 850.54285653 0 19953
0.13550000 0.13551000 11856.93318553 0 133.90512988 0 3418.29580825 0 270.37343537 0 1162.65690249 0 19956
0.13650000 0.13649900 11838.29997465 0 210.58522910 0 3540.99772008 0 -93.71373767 0 1089.97074329 0 19723
0.13750000 0.13749600 11372.13696692 0 135.83943462 0 3670.21016453 0 -150.01509344 0 1148.03870491 0 20946
0.13850000 0.13851100 11572.00033593 0 8.93384823 0 3471.30063846 0 329.25438172 0 1274.10124943 0 20955
0.13950000 0.13949800 11469.18494022 0 -35.99725608 0 3213.50794779 0 241.58956105 0 1042.34292536 0 20506
0.14050000 0.14048300 11459.20286296 0 2.20231243 0 3431.28359987 0 339.19431243 0 1483.23685908 0 21447
0.14150000 0.14148400 11520.20444618 0 126.12798258 0 3251.82803325 0 -220.54068748 0 1111.78158209 0 21771
0.14250000 0.14249400 11367.70048814 0 171.87473351 0 3248.16793826 0 -115.55918100 0 1238.60941919 0 22470
0.14350000 0.14350900 10958.44641195 0 198.06437686 0 3465.77722238 0 114.33804022 0 1139.74248960 0 22519
0.14450000 0.14449900 11130.45978542 0 62.60703397 0 3529.76233757 0 -88.51263177 0 1265.88267249 0 22218
0.14550000 0.14550500 10866.87748994 0 -12.17591601 0 3117.50254701 0 342.88324453 0 749.31572022 0 23559
0.14650000 0.14650700 10852.35911314 0 184.08170487 0 3144.70925312 0 168.77252572 0 569.03385943 0 23044
0.14750000 0.14750500 10557.18908876 0 97.84066114 0 2601.39587942 0 101.01152344 0 728.40770486 0 23649
0.14850000 0.14849900 10505.70375252 0 4.38596947 0 2314.64407352 0 564.93788040 0 641.66123528 0 23640
0.14950000 0.14949500 10265.59042979 0 82.83715538 0 2040.18131384 0 512.26800433 0 798.76138534 0 24457
0.15050000 0.15050000 10158.78220318 0 158.78823023 0 1753.88424701 0 195.27272259 0 852.83540694 0 24591
0.15150000 0.15149900 9977.33022111 0 144.99965418 0 1084.85991974 0 4.62978725 0 1217.48068901 0 25020
0.15250000 0.15250500 9608.61446976 0 238.74355991 0 1824.53517157 0 -351.82385839 0 977.44278641 0 25297
0.15350000 0.15350100 9470.24069663 0 276.23069647 0 1911.96707712 0 -216.85175537 0 579.27879805 0 25452
0.15450000 0.15450400 9250.09152841 0 93.99179398 0 2248.03034465 0 -292.25082135 0 259.68152151 0 26061
0.15550000 0.15549900 9122.54276350 0 73.11882679 0 2390.71859339 0 -230.24659393 0 197.91575482 0 26128
0.15650000 0.15649500 9041.94303528 0 97.99150142 0 2251.30224775 0 -213.90038786 0 -300.17215421 0 26331
0.15750000 0.15749700 9043.56235004 0 56.19554575 0 2641.15782048 0 -21.49706884 0 -439.82141498 0 27345
0.15850000 0.15849900 8878.46988346 0 26.66456841 0 2268.34941746 0 -18.20586705 0 -415.18343008 0 26980
0.15950000 0.15949700 9022.33379908 0 52.55441671 0 2649.96423085 0 261.63911777 0 -601.22162209 0 27777
0.16050000 0.16050000 8844.08717292 0 178.26104471 0 2360.40635213 0 -349.65220203 0 -719.52698346 0 28224
0.16150000 0.16150500 8576.66732330 0 219.92734429 0 2471.11868006 0 -235.90864997 0 -666.74952278 0 28075
0.16250000 0.16249700 8449.46238550 0 129.83798795 0 2872.94165430 0 55.78461691 0 -558.34527293 0 28590
0.16350000 0.16349900 8263.95102535 0 -37.73657758 0 2496.01841721 0 459.39072288 0 -690.27284239 0 29163
0.16450000 0.16449100 8487.71592378 0 21.76802678 0 2678.12477991 0 135.78952424 0 -685.15314588 0 28996
0.16550000 0.16550500 8348.15539258 0 74.78195178 0 2328.02005704 0 44.37277345 0 -161.33255081 0 30777
0.16650000 0.16650700 8276.46189551 0 36.19101929 0 2154.34300403 0 220.81574916 0 -416.09179911 0 29211
0.16750000 0.16749900 8164.16352640 0 53.95334938 0 2430.40289607 0 -40.24928825 0 168.87123737 0 30922
0.16850000 0.16850800 8052.54172032 0 171.24364440 0 2296.14395701 0 -71.62351162 0 -330.25702593 0 30867
0.16950000 0.16949900 8020.93180902 0 172.61340722 0 2610.90103520 0 -259.26671074 0 -180.95176909 0 30852
0.17050000 0.17049200 7766.48865983 0 186.35207288 0 2720.81479696 0 -528.09625149 0 -782.23550189 0 31257
0.17150000 0.17149500 7705.47598541 0 70.08527352 0 3318.61922127 0 -44.15405505 0 -770.64963755 0 32608
0.17250000 0.17250900 7715.04768838 0 -137.78039409 0 2701.81557659 0 108.84179757 0 -1234.77186505 0 32361
0.17350000 0.17350400 7994.29075395 0 -173.73250900 0 2562.51014292 0 450.24824923 0 -1182.55450982 0 32508
0.17450000 0.17449800 7993.88037966 0 -1.65304308 0 2253.99740861 0 186.43969334 0 -1205.80165862 0 32791
0.17550000 0.17549800 8061.30376591 0 -6.48697491 0 1986.18936709 0 156.46906095 0 -1315.83742354 0 33633
0.17650000 0.17650100 7968.91409533 0 154.22309357 0 1918.82143683 0 127.59312969 0 -1074.20127947 0 33984
0.17750000 0.17750300 7828.29990042 0 69.95850113 0 2206.49381208 0 -85.69835146 0 -980.72245335 0 34069
0.17850000 0.17849800 7739.85869595 0 100.54303128 0 1756.85668780 0 208.99475145 0 -831.13769835 0 34536
