### header ###
fiducial parameters:
Omega_m = 0.31
Omega_nu = 0
Omega_de = 0.69
Omega_k = 0
H_0 = 100
w_de = -1
zeff = 0
beta = 0
fgrowth = 0
b_1 = 2
gamma = 0.55
Lx = 3500 Ly = 3500 Lz = 3500
nx = 700 ny = 700 nz = 700
xoffset = 1379.75464 yoffset = 22.6059522 zoffset = 368.141391
bins = 400 dk = 0.001
kx_ny = 0.628318531 ky_ny = 0.628318531 kz_ny = 0.628318531
############################
A(data) = 3.30477979 (not used)
A(ran) = 3.29979847 (used)
Ngal = 185130
weighted Ngal = 0
Nran = 9399747
weighted Nran = 0
SN(data) = 6730.14918
SN(ran) = 131.250747
SN(data+ran) = 6861.39992
############################
13 columns: k_central k_mean P_0(k) sigma^{lin}_{P_0(k)} P^img_1(k) sigma^{lin}_{P_1(k)} P_2(k) sigma^{lin}_{P_2(k)} P^img_3(k) sigma^{lin}_{P_3(k)} P_4(k) sigma^{lin}_{P_4(k)} N_modes
### header ###
0.00050000 0 0 0 0 0 0 0 0 0 0 0 0
0.00150000 0.00179520 98541.07023012 0 -52866.30116567 0 -67412.51687524 0 89538.78931512 0 59445.71010733 0 3
0.00250000 0.00253879 120699.95078903 0 -29759.23417965 0 14366.87105491 0 -125364.90822545 0 -19360.23883297 0 6
0.00350000 0.00331552 123245.38048865 0 12592.05771926 0 -50438.99271355 0 4961.56931641 0 51902.14341496 0 7
0.00450000 0.00420575 105540.72462414 0 21527.34780468 0 5892.81948577 0 -38476.13859717 0 -13.45650561 0 24
0.00550000 0.00557378 87534.16637870 0 5662.36659558 0 20348.79721697 0 11295.27497207 0 2734.29060125 0 45
0.00650000 0.00659388 76947.50797965 0 1213.44349332 0 7286.96075977 0 -4040.40104507 0 -34895.01292653 0 40
0.00750000 0.00754703 67017.44843994 0 11170.05535852 0 30293.94078453 0 -8880.02265103 0 6410.16836742 0 57
0.00850000 0.00846663 66249.38305128 0 10264.37039813 0 20659.68346742 0 -18812.33370373 0 -43081.86904189 0 75
0.00950000 0.00948925 51573.73307333 0 6369.35276265 0 49093.07596389 0 -6713.32405361 0 -3602.42076878 0 112
0.01050000 0.01054430 46625.06281897 0 56.68012015 0 28403.44626470 0 16943.24519401 0 -17512.88906927 0 105
0.01150000 0.01145670 53828.68432487 0 -5272.97685312 0 51648.70956470 0 9272.14082794 0 -5344.50398224 0 144
0.01250000 0.01249090 59983.96589522 0 -8713.56596724 0 3967.38769556 0 37595.16482357 0 5906.19546929 0 169
0.01350000 0.01339930 71005.73195055 0 -5274.93999498 0 21766.80674680 0 13173.90191116 0 28943.36573214 0 180
0.01450000 0.01448870 80073.11819163 0 -2073.69891102 0 -686.13804417 0 1687.02651181 0 22309.60992544 0 267
0.01550000 0.01550050 70773.26046252 0 4799.41601703 0 28996.27074159 0 993.35089020 0 11072.41955179 0 238
0.01650000 0.01653350 66704.67668600 0 11085.57371137 0 20995.96855889 0 -19851.91159368 0 27445.38867232 0 315
0.01750000 0.01747870 60981.06450087 0 6005.46168198 0 47783.09469233 0 2793.46213697 0 27036.67806477 0 297
0.01850000 0.01844180 58545.21582710 0 1023.36366914 0 53060.95167211 0 8495.44648805 0 36463.64091092 0 388
0.01950000 0.01947590 56524.62156707 0 -756.68914795 0 36056.81580685 0 15069.60929355 0 15191.83428392 0 399
0.02050000 0.02045430 60793.06871260 0 -2935.54036988 0 42902.08073936 0 19103.58853559 0 27905.78425764 0 462
0.02150000 0.02154770 64403.69696712 0 -3884.53645436 0 21068.17225103 0 3846.13873052 0 26787.79160526 0 571
0.02250000 0.02255340 66147.01130344 0 98.54129205 0 26855.55881861 0 1558.03589130 0 7289.74465020 0 510
0.02350000 0.02348930 63916.79342110 0 6519.17265103 0 26380.52285332 0 -17206.43929759 0 7966.54057918 0 555
0.02450000 0.02439640 54809.47887100 0 3345.58192105 0 22757.80519412 0 -720.07821595 0 -10638.56520077 0 592
0.02550000 0.02547300 56975.81145893 0 -1850.73257877 0 28776.11048216 0 -1360.37967049 0 -18879.87909314 0 837
0.02650000 0.02652900 59084.13708682 0 -879.28902078 0 22454.57186955 0 -2227.83327500 0 -27947.15442225 0 723
0.02750000 0.02749970 59060.18010141 0 2349.76989425 0 23515.55576962 0 -2342.07260357 0 -34123.50926681 0 826
0.02850000 0.02848090 58214.03268623 0 -338.90261395 0 20603.67292284 0 -4549.10988430 0 -28050.41346584 0 831
0.02950000 0.02946900 58172.55160964 0 -1312.59879403 0 20073.29188477 0 6518.98410068 0 -25580.51481744 0 996
0.03050000 0.03053250 58720.45673888 0 -195.31043266 0 14801.20232740 0 5582.84271346 0 -26671.00130139 0 1041
0.03150000 0.03150510 59154.56618744 0 1115.90750735 0 14501.18544995 0 5134.90254232 0 -18174.81170314 0 1036
0.03250000 0.03246190 58250.07907631 0 893.15745344 0 13959.04774312 0 157.74454860 0 -11208.54181193 0 1059
0.03350000 0.03345080 55707.97673578 0 623.44061694 0 13403.26786405 0 1256.65479663 0 -13970.02802810 0 1302
0.03450000 0.03451200 53290.53944894 0 1896.45049259 0 12839.16958726 0 -1508.77988565 0 -5954.25362567 0 1339
0.03550000 0.03553350 52415.11127382 0 2615.18223722 0 11549.92885400 0 -4882.57781174 0 -12493.45697839 0 1365
0.03650000 0.03647120 50845.81781761 0 1608.83357332 0 20825.82959771 0 -156.60548267 0 -10839.27150074 0 1308
0.03750000 0.03744890 48113.61236139 0 957.48085015 0 17525.86576970 0 -562.77731523 0 -10308.36917642 0 1579
0.03850000 0.03847530 45268.72034417 0 789.55680099 0 17327.00060842 0 4222.89559966 0 -1839.16446035 0 1662
0.03950000 0.03950240 45635.94987513 0 1331.53146722 0 14843.90343565 0 4462.78709845 0 -4835.27385676 0 1683
0.04050000 0.04050350 44746.76861579 0 333.69751522 0 13487.11731298 0 1627.26714265 0 -4263.86648118 0 1822
0.04150000 0.04152450 43088.63467203 0 222.41953624 0 16513.01766439 0 1696.79785632 0 3102.82889345 0 1887
0.04250000 0.04250150 41895.11096843 0 2363.64498164 0 14144.49255610 0 -3308.89224155 0 -3131.02271609 0 1920
0.04350000 0.04349210 41808.26689633 0 642.55518576 0 18417.93074025 0 -1615.99848655 0 -1304.08075478 0 2005
0.04450000 0.04448520 39973.89383306 0 231.19710951 0 15221.33686780 0 2006.40861913 0 -2279.90644468 0 2151
0.04550000 0.04548030 39290.34336514 0 1165.04150984 0 17483.27557342 0 601.65639701 0 -41.99703907 0 2274
0.04650000 0.04648670 37984.79857236 0 1100.18684480 0 18310.78977773 0 806.43316627 0 -2300.71353015 0 2311
0.04750000 0.04749250 37080.97693305 0 882.43892071 0 17173.27661872 0 2444.94345527 0 3037.84557053 0 2568
0.04850000 0.04851840 36301.93125941 0 49.53306375 0 14931.08024367 0 2983.80925900 0 1819.54413295 0 2493
0.04950000 0.04949480 34072.60067282 0 253.83202424 0 11970.17430637 0 1972.69138041 0 1059.89141717 0 2644
0.05050000 0.05050630 34513.47575151 0 545.29537060 0 13956.38585586 0 535.67264813 0 3635.42817090 0 2829
0.05150000 0.05149060 34100.32866519 0 688.78440376 0 11118.92494059 0 1412.37520178 0 4046.35701783 0 2784
0.05250000 0.05249300 33481.10713957 0 -2.57319097 0 12392.85982207 0 998.34525618 0 1575.14960819 0 3055
0.05350000 0.05348950 33510.16607557 0 -202.99330479 0 9720.93502125 0 1151.61007033 0 338.94586962 0 3009
0.05450000 0.05448610 33167.89173775 0 472.68684978 0 10747.52511958 0 -582.42758886 0 4408.76187812 0 3336
0.05550000 0.05550870 33646.14415016 0 427.72646471 0 10650.78769980 0 -189.84358168 0 3028.65096826 0 3349
0.05650000 0.05647670 31917.13745790 0 766.28081508 0 13398.16591345 0 -212.83785120 0 1994.80722712 0 3324
0.05750000 0.05747970 32495.98702663 0 515.99353738 0 13865.99260073 0 -1455.77505544 0 2995.85429888 0 3639
0.05850000 0.05849280 31507.42864263 0 360.67685180 0 14114.76814828 0 -816.78014390 0 87.09162762 0 3846
0.05950000 0.05951020 31868.00345542 0 838.67749404 0 18467.28656667 0 -873.51716189 0 3335.44456704 0 3787
0.06050000 0.06049470 30262.21996126 0 193.51920435 0 16411.20047641 0 182.52006434 0 -348.03288728 0 3930
0.06150000 0.06148310 31400.28768011 0 -563.10783290 0 15599.99033161 0 3665.26349069 0 2687.23065260 0 4083
0.06250000 0.06249100 31275.06806657 0 -849.76869098 0 12686.88745316 0 2186.75148151 0 712.98428638 0 4303
0.06350000 0.06350600 32530.25882520 0 -399.17217817 0 9181.55902247 0 4392.42454501 0 3195.91730943 0 4470
0.06450000 0.06451750 32726.68392315 0 -307.74633260 0 9168.32722451 0 2371.16481317 0 4350.93237723 0 4479
0.06550000 0.06550280 31974.03529824 0 127.43674382 0 3867.00127198 0 1341.53572687 0 3834.10478183 0 4636
0.06650000 0.06648880 32677.77174461 0 402.82783668 0 5458.35511892 0 1543.57297048 0 5834.06941554 0 4653
0.06750000 0.06749660 30407.18190537 0 674.68638332 0 3863.96228402 0 -1228.27242364 0 2733.33675831 0 5220
0.06850000 0.06852730 30074.11326101 0 1083.65430663 0 4631.80584874 0 -177.72755814 0 6554.55356929 0 5029
0.06950000 0.06949320 27843.45173079 0 566.87551250 0 5737.40963413 0 -681.23462600 0 2673.57738916 0 5040
0.07050000 0.07048030 29008.58197020 0 481.92248948 0 4957.76503586 0 347.21546606 0 4477.72694074 0 5475
0.07150000 0.07148790 27463.35641137 0 69.53759021 0 5406.88087388 0 630.73973365 0 2421.90703920 0 5509
0.07250000 0.07249820 28055.07176856 0 -340.01838836 0 4562.63005338 0 325.51332099 0 4180.20558260 0 5916
0.07350000 0.07351270 28105.98036255 0 125.84182969 0 5612.21220298 0 -1523.33153605 0 -1000.17974016 0 5721
0.07450000 0.07449140 27952.81093270 0 671.45551765 0 5179.30060370 0 -842.33315255 0 -611.62960131 0 6028
0.07550000 0.07549160 26921.88417636 0 603.82694426 0 6610.43101952 0 -1259.49414305 0 -1721.63104629 0 6183
0.07650000 0.07648840 26275.15648231 0 675.25425260 0 7821.20153437 0 -1417.64352033 0 -2268.77088294 0 6330
0.07750000 0.07749960 25430.56183470 0 500.83963499 0 6328.70352584 0 621.93221415 0 -3587.18146418 0 6583
0.07850000 0.07848650 25241.23510280 0 445.84615316 0 8642.13865889 0 363.10249657 0 -3586.53817475 0 6549
0.07950000 0.07947320 24699.54104384 0 371.72590220 0 6691.62967238 0 45.05377295 0 -3280.69841891 0 6828
0.08050000 0.08048110 23722.96115255 0 659.76317782 0 8416.44389219 0 -715.89239822 0 -3120.19770787 0 7147
0.08150000 0.08149960 23493.48428769 0 -9.86957924 0 6907.76382731 0 485.51714641 0 -2498.60266610 0 7386
0.08250000 0.08250610 23412.18581406 0 -298.02822584 0 6891.44867660 0 1797.58356299 0 -4280.73619174 0 7227
0.08350000 0.08350160 23319.79614349 0 449.11694714 0 5943.94990370 0 -784.01120252 0 -3646.25317912 0 7798
0.08450000 0.08449610 22687.37609350 0 615.85756558 0 6109.76329808 0 308.48056984 0 -3328.20201543 0 7371
0.08550000 0.08548940 22059.94708214 0 427.94052481 0 6793.86832585 0 6.61183960 0 -3548.05172134 0 8256
0.08650000 0.08650700 21537.55170588 0 166.18273123 0 5198.84329272 0 763.89066213 0 -3068.41290932 0 8037
0.08750000 0.08749060 20863.53966733 0 457.80024523 0 5795.82696846 0 29.87036797 0 -3988.87134405 0 8155
0.08850000 0.08849210 20329.72035821 0 206.25078933 0 5046.36151708 0 537.91639727 0 -2297.96291331 0 8718
0.08950000 0.08949900 20214.92646980 0 -0.14762272 0 4147.20927168 0 1044.82957171 0 -2494.05527535 0 8571
0.09050000 0.09049190 20468.02758416 0 -91.60164104 0 3801.69630435 0 1012.30463666 0 -1928.70369331 0 8932
0.09150000 0.09150830 20082.05393036 0 170.84214307 0 2701.94867095 0 132.95794166 0 -2155.42994133 0 9285
0.09250000 0.09250820 19873.42851576 0 274.19657095 0 2632.17395095 0 158.25807101 0 -720.68934090 0 9204
0.09350000 0.09350330 19164.03555896 0 468.78940317 0 3705.28052928 0 -1076.32635281 0 -2003.33635758 0 9349
0.09450000 0.09448040 18906.71978976 0 795.21663879 0 4755.51705950 0 -1367.25621260 0 -1666.06414958 0 9564
0.09550000 0.09549270 18221.50564230 0 395.10281801 0 5816.14604127 0 -658.58862007 0 -1737.08108364 0 10155
0.09650000 0.09649430 17906.51564897 0 226.89927069 0 6446.53640222 0 283.19596816 0 -1010.00875889 0 9913
0.09750000 0.09749140 17511.33630170 0 96.13450232 0 5740.16025098 0 504.04499091 0 -452.90680914 0 10476
0.09850000 0.09850240 17615.48264105 0 258.15204545 0 6609.19989666 0 471.03093407 0 -260.41021315 0 10575
0.09950000 0.09950330 17261.34072249 0 309.18264261 0 6425.69604315 0 202.76038965 0 844.08999815 0 10882
0.10050000 0.10051200 16802.94155262 0 212.11914163 0 6301.61882289 0 421.42333748 0 1365.60362425 0 10875
0.10150000 0.10150300 16289.30822195 0 364.44896788 0 6890.99393752 0 108.54599535 0 1073.77315927 0 11118
0.10250000 0.10250800 16249.71264884 0 147.93105754 0 6501.16054719 0 69.25731566 0 1917.23539567 0 11575
0.10350000 0.10349800 15936.16451111 0 -106.89573616 0 5749.36594444 0 1026.91174304 0 450.18946589 0 11364
0.10450000 0.10450100 15898.12170558 0 -42.63844299 0 5160.62302804 0 466.23288227 0 1042.37619895 0 12093
0.10550000 0.10551000 16037.20531531 0 74.10971433 0 4510.49033652 0 742.40368629 0 320.65537673 0 12067
0.10650000 0.10649700 15818.59782346 0 155.79915265 0 5006.54412003 0 -507.46551605 0 633.96616284 0 12054
0.10750000 0.10749900 15225.99517052 0 599.03443805 0 4790.26577954 0 -845.71707674 0 -818.24972750 0 12807
0.10850000 0.10850100 14738.64797662 0 364.58649872 0 5071.33889261 0 -757.25812636 0 -431.21797351 0 12736
0.10950000 0.10950300 14578.15835677 0 24.71229592 0 4848.57220190 0 253.56361727 0 -1964.43952988 0 12933
0.11050000 0.11050200 14360.99272053 0 152.42742878 0 5496.70847796 0 203.49019041 0 -1971.82626705 0 13428
0.11150000 0.11150900 14419.88697632 0 134.88780993 0 4247.29623294 0 38.70816644 0 -1934.49329812 0 13453
0.11250000 0.11250000 14054.76477279 0 233.37542059 0 5867.56483032 0 -213.47781326 0 -2245.10226865 0 13668
0.11350000 0.11349100 13954.94400025 0 267.43204994 0 5033.39590785 0 -309.53645179 0 -1909.22755147 0 13791
0.11450000 0.11448600 13803.32733797 0 -10.26311709 0 5615.14027898 0 163.73934055 0 -1917.54594918 0 14205
0.11550000 0.11549300 13613.00239834 0 19.03903777 0 5390.29953444 0 498.38293487 0 -1493.88440815 0 14776
0.11650000 0.11649800 14030.91869935 0 -203.54453727 0 5186.21041940 0 842.37862646 0 -1031.69204893 0 14553
0.11750000 0.11747300 14087.37289182 0 -377.20828085 0 4109.41047248 0 947.98456732 0 -326.90193885 0 14568
0.11850000 0.11849100 14159.68749592 0 187.18613090 0 4199.11607340 0 654.79875807 0 689.27241642 0 16015
0.11950000 0.11950300 14344.91048495 0 41.44669388 0 3828.41499780 0 -386.93415145 0 -215.02170788 0 15270
0.12050000 0.12050700 13843.69929486 0 286.56658291 0 4160.95126470 0 -134.86451841 0 543.32446490 0 15999
0.12150000 0.12150000 13633.74293663 0 407.11569342 0 4558.37103375 0 -368.92093849 0 -79.92139062 0 15670
0.12250000 0.12250700 13094.26711707 0 171.48321426 0 4281.72330827 0 195.29046851 0 730.89213297 0 16887
0.12350000 0.12352200 12955.40533128 0 -6.89309017 0 4120.57930781 0 739.94144056 0 111.43880134 0 16407
0.12450000 0.12449800 12953.29800386 0 33.34967646 0 3739.71869580 0 862.49251212 0 789.36935976 0 16306
0.12550000 0.12549900 12610.69093013 0 234.43352077 0 3128.31646403 0 207.26563385 0 350.14908766 0 17523
0.12650000 0.12650100 12669.91792183 0 -5.21267402 0 2652.13810546 0 262.18147730 0 1086.86631727 0 17154
0.12750000 0.12750600 12159.61195024 0 56.51375219 0 2696.40307248 0 272.91775595 0 863.80238248 0 18007
0.12850000 0.12850300 12617.67838421 0 74.09984316 0 2186.17473927 0 -79.48118101 0 844.79428915 0 17496
0.12950000 0.12949900 12151.07172859 0 216.55229305 0 2312.60329328 0 -508.33284765 0 -189.19585578 0 18405
0.13050000 0.13049000 12051.25095606 0 282.81332186 0 2866.76385760 0 -224.36271395 0 -110.33012529 0 18100
0.13150000 0.13148800 11684.46507298 0 174.05193547 0 2977.89765102 0 -327.49753613 0 454.77234847 0 19059
0.13250000 0.13249300 11632.78009520 0 -67.76255505 0 3784.40512831 0 248.45833932 0 -110.06837304 0 18957
0.13350000 0.13349100 11660.06443970 0 81.65527744 0 3184.51555897 0 158.02404676 0 -58.43097650 0 19468
0.13450000 0.13450700 11552.14709339 0 263.02662651 0 3470.57971066 0 -229.02656226 0 163.00843067 0 19953
0.13550000 0.13551000 11364.48404103 0 49.64053745 0 3468.82730154 0 291.14724725 0 999.11276701 0 19956
0.13650000 0.13649900 11169.50079868 0 48.28175491 0 3628.06361613 0 518.34265290 0 1114.55438133 0 19723
0.13750000 0.13749600 11301.37513039 0 84.54231600 0 3000.80097272 0 271.17865626 0 759.55400413 0 20946
0.13850000 0.13851100 10952.12442969 0 36.96440845 0 2939.79938951 0 248.68792709 0 1289.32946284 0 20955
0.13950000 0.13949800 11078.74153405 0 214.81208425 0 2713.38369500 0 -64.28757214 0 1314.41775033 0 20506
0.14050000 0.14048300 10647.74871184 0 131.59927003 0 2776.54806162 0 47.36418018 0 1238.82015193 0 21447
0.14150000 0.14148400 10589.49774547 0 50.69176109 0 2560.44718028 0 216.04653447 0 793.29564348 0 21771
0.14250000 0.14249400 10695.14139640 0 -54.52399146 0 2130.26401545 0 39.44939113 0 526.90505694 0 22470
0.14350000 0.14350900 10548.02776008 0 109.18263005 0 2112.98393061 0 161.43237158 0 347.51603750 0 22519
0.14450000 0.14449900 10369.77004273 0 153.80273720 0 2037.34196742 0 -106.05003239 0 232.93620919 0 22218
0.14550000 0.14550500 10397.60894707 0 72.90986864 0 1869.78725512 0 61.73149489 0 437.89265583 0 23559
0.14650000 0.14650700 10111.47824820 0 202.39659839 0 2453.28403537 0 -183.20328207 0 43.80712241 0 23044
0.14750000 0.14750500 9952.68558149 0 317.29030758 0 2545.50733800 0 -265.38572410 0 709.17667847 0 23649
0.14850000 0.14849900 9493.83167254 0 124.22251494 0 2767.59746569 0 52.71302082 0 -74.48171307 0 23640
0.14950000 0.14949500 9474.53298985 0 8.24537327 0 3056.64514935 0 227.99619007 0 1308.31759201 0 24457
0.15050000 0.15050000 9528.90203729 0 -29.78807129 0 2537.79895612 0 443.62014994 0 776.75534147 0 24591
0.15150000 0.15149900 9849.94782416 0 -77.36730978 0 2519.64266671 0 303.24108840 0 1446.01480212 0 25020
0.15250000 0.15250500 9586.33225509 0 22.79917536 0 2260.33048206 0 167.19757576 0 953.30279626 0 25297
0.15350000 0.15350100 9767.64005160 0 121.04377789 0 2174.10751699 0 -348.03510552 0 910.73589149 0 25452
0.15450000 0.15450400 9398.73574991 0 109.50471841 0 2459.92766234 0 -207.69264493 0 920.59707469 0 26061
0.15550000 0.15549900 9465.17201963 0 153.12284683 0 2526.00901376 0 162.81655296 0 730.00816458 0 26128
0.15650000 0.15649500 9284.23023262 0 31.23680344 0 2467.65822662 0 96.17321059 0 1023.33815939 0 26331
0.15750000 0.15749700 9323.50416101 0 1.18923141 0 2420.62046036 0 306.25345749 0 530.27012609 0 27345
0.15850000 0.15849900 9287.16939981 0 67.18736558 0 2350.25790692 0 -132.86366648 0 977.15774265 0 26980
0.15950000 0.15949700 9033.74664074 0 279.33955898 0 2687.05319345 0 -512.20922098 0 711.71656257 0 27777
0.16050000 0.16050000 9007.37177439 0 132.71171708 0 2809.50000776 0 -159.84854866 0 703.03104624 0 28224
0.16150000 0.16150500 8687.55711039 0 76.42489078 0 3317.90938467 0 -74.99323908 0 249.56967725 0 28075
0.16250000 0.16249700 8754.85849347 0 146.92397685 0 3024.62486377 0 -140.20382062 0 25.53504091 0 28590
0.16350000 0.16349900 8636.13832134 0 14.74308446 0 3450.89283608 0 -34.92396095 0 37.56266762 0 29163
0.16450000 0.16449100 8505.66148044 0 173.18904035 0 3293.96349046 0 -260.82946039 0 154.84974619 0 28996
0.16550000 0.16550500 8342.88707403 0 112.03883509 0 3414.99063155 0 47.48174687 0 -2.55452448 0 30777
0.16650000 0.16650700 8285.50122102 0 21.99595088 0 3291.78961585 0 391.74440357 0 -258.22857471 0 29211
0.16750000 0.16749900 8320.51612978 0 32.40038091 0 2965.32023368 0 141.64678535 0 -319.29559598 0 30922
0.16850000 0.16850800 8024.01516177 0 143.54670738 0 3118.05710686 0 221.58880559 0 -326.59471270 0 30867
0.16950000 0.16949900 7891.91900611 0 226.45673193 0 2932.86739141 0 -106.40805623 0 324.01157293 0 30852
0.17050000 0.17049200 7730.33135778 0 -11.62723450 0 2701.00591921 0 370.37943089 0 -32.02649666 0 31257
0.17150000 0.17149500 7683.48214187 0 -7.66982888 0 2494.24382570 0 419.18957042 0 188.41170816 0 32608
0.17250000 0.17250900 7621.51562452 0 13.09360165 0 2113.80467918 0 314.41436021 0 416.14281862 0 32361
0.17350000 0.17350400 7629.02436485 0 96.74507271 0 1879.38114048 0 243.48726484 0 398.41575853 0 32508
0.17450000 0.17449800 7523.10343399 0 55.23992822 0 1922.95845329 0 6.30883919 0 753.45606404 0 32791
0.17550000 0.17549800 7484.93862530 0 22.25293391 0 1690.47587406 0 92.22241533 0 427.92166978 0 33633
0.17650000 0.17650100 7484.52825101 0 35.65808728 0 1804.18282517 0 -130.78295793 0 328.37484981 0 33984
0.17750000 0.17750300 7370.28892244 0 79.57789625 0 1629.81811795 0 -231.29027556 0 -58.74463555 0 34069
0.17850000 0.17849800 7456.38988435 0 110.86128271 0 2162.92759046 0 -179.97796200 0 163.55633580 0 34536
