### header ###
fiducial parameters:
Omega_m = 0.31
Omega_nu = 0
Omega_de = 0.69
Omega_k = 0
H_0 = 100
w_de = -1
zeff = 0
beta = 0
fgrowth = 0
b_1 = 2
gamma = 0.55
Lx = 3500 Ly = 3500 Lz = 3500
nx = 700 ny = 700 nz = 700
xoffset = 1379.75464 yoffset = 22.6059522 zoffset = 368.141391
bins = 400 dk = 0.001
kx_ny = 0.628318531 ky_ny = 0.628318531 kz_ny = 0.628318531
############################
A(data) = 3.37444351 (not used)
A(ran) = 3.37460631 (used)
Ngal = 189764
weighted Ngal = 0
Nran = 9399747
weighted Nran = 0
SN(data) = 6640.02541
SN(ran) = 134.226258
SN(data+ran) = 6774.25167
############################
13 columns: k_central k_mean P_0(k) sigma^{lin}_{P_0(k)} P^img_1(k) sigma^{lin}_{P_1(k)} P_2(k) sigma^{lin}_{P_2(k)} P^img_3(k) sigma^{lin}_{P_3(k)} P_4(k) sigma^{lin}_{P_4(k)} N_modes
### header ###
0.00050000 0 0 0 0 0 0 0 0 0 0 0 0
0.00150000 0.00179520 17141.55579545 0 -33571.61130667 0 -45448.95229458 0 44420.35468960 0 30816.33616079 0 3
0.00250000 0.00253879 34591.00321818 0 -34047.53456771 0 -18338.62868207 0 -61799.26209974 0 -30545.93277919 0 6
0.00350000 0.00331552 54381.69140471 0 -14824.27201706 0 -45715.14102134 0 -23470.19277410 0 -37440.88627402 0 7
0.00450000 0.00420575 71907.66808638 0 -2043.68613207 0 -26794.44632342 0 -56784.15557566 0 -6045.95564204 0 24
0.00550000 0.00557378 54094.76213966 0 10996.67776783 0 6367.76672149 0 -46963.01158998 0 3679.69313792 0 45
0.00650000 0.00659388 55988.58401857 0 10369.78113392 0 16231.85582175 0 66.70412213 0 -18412.49605374 0 40
0.00750000 0.00754703 41263.68912617 0 -796.12833518 0 14847.00897080 0 5074.94353161 0 -32873.53137075 0 57
0.00850000 0.00846663 57116.78057214 0 -5851.66005390 0 23093.20298983 0 -373.78775571 0 -25460.95171434 0 75
0.00950000 0.00948925 63370.44105943 0 -3189.21822648 0 28981.07580177 0 -5598.47020996 0 -13731.78911766 0 112
0.01050000 0.01054430 57876.08391522 0 1113.21234650 0 9885.15128327 0 -849.65223342 0 -18529.17544564 0 105
0.01150000 0.01145670 66745.82502668 0 2317.50560233 0 34752.49104574 0 -9910.39484752 0 -20192.63316393 0 144
0.01250000 0.01249090 62255.33211825 0 2982.14557945 0 30129.90198166 0 -1141.50598991 0 -8226.26313812 0 169
0.01350000 0.01339930 65064.95412918 0 1843.55657434 0 39141.72132603 0 8903.97963644 0 -11480.49796111 0 180
0.01450000 0.01448870 61415.28486139 0 1223.04846987 0 55593.95923115 0 -8034.05269501 0 -855.85886723 0 267
0.01550000 0.01550050 58269.15593506 0 3643.24746475 0 34913.97887331 0 14419.44332845 0 -11516.32252725 0 238
0.01650000 0.01653350 64064.74998838 0 -1259.86015255 0 62127.67244138 0 8137.64447450 0 17510.78174185 0 315
0.01750000 0.01747870 60549.06237974 0 -283.43331977 0 26138.06928803 0 18995.44936534 0 5529.99316001 0 297
0.01850000 0.01844180 68391.42591789 0 174.58098556 0 64828.60072221 0 13529.92933320 0 37423.91674269 0 388
0.01950000 0.01947590 65195.49751726 0 445.48458014 0 36370.47485655 0 5758.37199637 0 25787.03290462 0 399
0.02050000 0.02045430 68563.67220649 0 3532.87896392 0 51181.32652530 0 7378.72932332 0 37923.02060536 0 462
0.02150000 0.02154770 61430.92344909 0 3587.22582896 0 54666.84607825 0 800.25426045 0 36349.84523023 0 571
0.02250000 0.02255340 56823.75114877 0 4191.91788658 0 50635.86145938 0 2008.90413844 0 31082.85762345 0 510
0.02350000 0.02348930 60773.65911794 0 90.43972724 0 62963.39413143 0 12024.63208339 0 34538.20912070 0 555
0.02450000 0.02439640 55708.19855972 0 -1414.27179646 0 51128.64333979 0 11289.72937360 0 28759.03003886 0 592
0.02550000 0.02547300 60999.25406387 0 -2260.19738770 0 51541.12495430 0 12575.64274777 0 29692.79790993 0 837
0.02650000 0.02652900 63103.91959676 0 -759.31443427 0 32370.76741308 0 3514.44539459 0 20484.66437958 0 723
0.02750000 0.02749970 62781.27667754 0 778.63529936 0 39917.32872862 0 5935.74241796 0 23620.70031669 0 826
0.02850000 0.02848090 63243.89050225 0 1580.67302427 0 37542.14890216 0 -5316.01069728 0 13813.75306310 0 831
0.02950000 0.02946900 60079.57201292 0 2282.33541681 0 29693.01973387 0 3077.40787004 0 8445.65810495 0 996
0.03050000 0.03053250 59728.31380557 0 -174.56545789 0 35509.02158958 0 2565.60458687 0 8264.47231160 0 1041
0.03150000 0.03150510 58254.73737903 0 -150.34782935 0 22758.91431381 0 3986.34255115 0 -4816.48536913 0 1036
0.03250000 0.03246190 57433.43424501 0 1908.22934374 0 30891.20174019 0 5326.74697593 0 5127.43816677 0 1059
0.03350000 0.03345080 53012.59405342 0 4640.40152638 0 23545.72382532 0 -5264.46990506 0 -7401.26663552 0 1302
0.03450000 0.03451200 47982.84714937 0 1851.45350657 0 25961.38652064 0 3230.81021503 0 6830.46927578 0 1339
0.03550000 0.03553350 47548.18314097 0 -1052.86847126 0 22587.33349702 0 7512.38933774 0 -5704.62405595 0 1365
0.03650000 0.03647120 47196.48128574 0 -510.24164265 0 14413.78681800 0 4890.11982567 0 -2643.30951269 0 1308
0.03750000 0.03744890 47347.43247621 0 1348.97792002 0 13632.74472891 0 -2161.40809648 0 -7001.29589117 0 1579
0.03850000 0.03847530 43571.32356321 0 2667.05576535 0 14125.19387341 0 -3699.81256919 0 -6450.96178980 0 1662
0.03950000 0.03950240 41789.85550939 0 1807.99819692 0 16659.86511199 0 886.70348594 0 -3966.44494382 0 1683
0.04050000 0.04050350 39815.17880473 0 -1299.67754959 0 14650.47296088 0 2263.92402987 0 -10241.43380284 0 1822
0.04150000 0.04152450 42712.86491942 0 -1851.36477699 0 10018.84457128 0 4764.84475614 0 -6970.27381331 0 1887
0.04250000 0.04250150 43502.55814214 0 -515.55654422 0 9906.22455747 0 2953.69665928 0 -10358.74539296 0 1920
0.04350000 0.04349210 42818.23129043 0 1846.34046477 0 9224.84796415 0 -3608.52092710 0 -4190.25420704 0 2005
0.04450000 0.04448520 41929.71550291 0 1226.07636664 0 12914.70063848 0 -2489.78516453 0 -3886.89887931 0 2151
0.04550000 0.04548030 40653.56238205 0 1653.83055934 0 14097.68770498 0 -209.72677045 0 -1598.51876016 0 2274
0.04650000 0.04648670 38079.73921824 0 1125.37938955 0 16952.78362339 0 -115.20315358 0 -4418.54431382 0 2311
0.04750000 0.04749250 38338.16410713 0 1166.22826791 0 20370.42505101 0 -1987.93068501 0 2230.88335417 0 2568
0.04850000 0.04851840 36493.47623071 0 856.86927527 0 23375.36304020 0 462.09142933 0 2686.21026248 0 2493
0.04950000 0.04949480 38198.96958543 0 -190.19628175 0 22905.09628959 0 2661.38816371 0 4159.05467002 0 2644
0.05050000 0.05050630 38378.86879993 0 -1382.52879079 0 20912.34093390 0 2551.34130759 0 6194.44458678 0 2829
0.05150000 0.05149060 38918.12279556 0 -623.45503549 0 19800.44843984 0 3690.09668066 0 7324.47118785 0 2784
0.05250000 0.05249300 41569.91707391 0 -217.89876436 0 19306.22470383 0 1073.17423463 0 5514.44330188 0 3055
0.05350000 0.05348950 40541.20855696 0 792.84977736 0 18031.40252660 0 -945.17183977 0 957.96775369 0 3009
0.05450000 0.05448610 37727.37189120 0 2271.90969168 0 20697.61536099 0 -3796.35034742 0 2024.43181417 0 3336
0.05550000 0.05550870 36956.20096739 0 1309.39343812 0 20561.63728640 0 -2100.88343474 0 -3360.27775701 0 3349
0.05650000 0.05647670 35500.92501581 0 -300.71562286 0 20885.50023729 0 1452.38114917 0 -4894.35666290 0 3324
0.05750000 0.05747970 34815.71086835 0 -261.69124639 0 17472.07346450 0 3861.66640625 0 -7021.13804251 0 3639
0.05850000 0.05849280 34994.05731528 0 319.67047844 0 15051.97429040 0 3701.49843112 0 -5675.64275833 0 3846
0.05950000 0.05951020 35562.92480675 0 -336.04441250 0 9394.89819576 0 4404.63595285 0 -5063.26450123 0 3787
0.06050000 0.06049470 33687.07066690 0 -31.77217551 0 9122.27657478 0 2739.64764938 0 -2824.06274935 0 3930
0.06150000 0.06148310 33034.90828634 0 1286.82285233 0 6273.43609144 0 -515.39350363 0 -90.08547441 0 4083
0.06250000 0.06249100 32389.84427183 0 493.40742392 0 6388.67362774 0 -871.36103320 0 -2331.84651999 0 4303
0.06350000 0.06350600 31445.42885169 0 500.37269560 0 6574.21826148 0 -70.89848008 0 -2662.73019854 0 4470
0.06450000 0.06451750 30776.18602784 0 802.41149825 0 7359.97410928 0 -1760.83842750 0 -2721.33608322 0 4479
0.06550000 0.06550280 30590.85212683 0 157.32641047 0 7703.08028687 0 -395.22814853 0 -2838.68094693 0 4636
0.06650000 0.06648880 29902.53244422 0 141.87415488 0 9183.17833722 0 1664.66665876 0 -4208.74323235 0 4653
0.06750000 0.06749660 30044.72158910 0 132.80155578 0 9607.99336273 0 -212.03152118 0 -2691.81131694 0 5220
0.06850000 0.06852730 29917.50556011 0 583.87942654 0 8736.60238330 0 514.06921471 0 -1937.99811635 0 5029
0.06950000 0.06949320 28889.12977907 0 700.35695865 0 9880.87008125 0 -34.68062009 0 -1488.69372798 0 5040
0.07050000 0.07048030 27495.96453040 0 724.61562462 0 9820.62269943 0 -1086.93508269 0 -1237.07883401 0 5475
0.07150000 0.07148790 27717.01208558 0 937.37361920 0 11275.53264150 0 -224.55015517 0 -1781.59005699 0 5509
0.07250000 0.07249820 26509.84620973 0 0.70631071 0 10007.18772329 0 1163.32237431 0 -1698.19534714 0 5916
0.07350000 0.07351270 25756.97576089 0 50.32331153 0 9512.54252179 0 1477.87981096 0 -1212.85565988 0 5721
0.07450000 0.07449140 26116.66327792 0 118.64586111 0 6453.25766757 0 1853.96011708 0 -826.42504877 0 6028
0.07550000 0.07549160 25708.83996613 0 107.24056147 0 6756.03625306 0 804.25263695 0 -1490.71232583 0 6183
0.07650000 0.07648840 25056.23393770 0 451.33629565 0 5458.63239884 0 248.62803463 0 -1039.30504651 0 6330
0.07750000 0.07749960 24373.34894160 0 95.98676757 0 5113.13052271 0 719.39610734 0 -1264.79573519 0 6583
0.07850000 0.07848650 24518.31088571 0 -0.42544944 0 4789.31193661 0 -38.16846879 0 -1461.67557222 0 6549
0.07950000 0.07947320 24635.21210154 0 -172.99272616 0 3323.27752399 0 192.69069194 0 -2219.80324841 0 6828
0.08050000 0.08048110 24496.46122772 0 337.18236930 0 3804.42473880 0 -12.27595861 0 -3130.27960589 0 7147
0.08150000 0.08149960 24105.27471136 0 335.35343093 0 3712.61181046 0 -774.91974838 0 -1141.00688605 0 7386
0.08250000 0.08250610 23968.74207693 0 60.82179491 0 4307.93180666 0 256.70242601 0 -2652.48193256 0 7227
0.08350000 0.08350160 23262.67647920 0 542.48818865 0 4371.63964193 0 300.09229759 0 -1790.47410575 0 7798
0.08450000 0.08449610 23400.31823333 0 387.92903182 0 4172.44174474 0 488.96983602 0 -312.38134381 0 7371
0.08550000 0.08548940 22265.79969750 0 346.98366005 0 4876.07837033 0 89.41112964 0 -1390.61427337 0 8256
0.08650000 0.08650700 21496.84701308 0 909.15983240 0 5608.51883440 0 -296.46325795 0 640.28259950 0 8037
0.08750000 0.08749060 20755.06776118 0 453.37374853 0 5212.80710968 0 -166.57757785 0 -928.42413238 0 8155
0.08850000 0.08849210 19832.28017509 0 541.78944324 0 6887.48911929 0 -420.95196161 0 411.63313794 0 8718
0.08950000 0.08949900 19438.09903555 0 503.08005678 0 6577.56780296 0 -827.17592280 0 -1426.61629866 0 8571
0.09050000 0.09049190 19034.49037860 0 454.87882396 0 7682.37302217 0 -824.48519842 0 -1211.12543316 0 8932
0.09150000 0.09150830 18712.73475513 0 140.34689706 0 7900.02667108 0 -402.17345606 0 -2875.02679933 0 9285
0.09250000 0.09250820 18880.32274102 0 -106.70696398 0 7579.71290322 0 -202.12597318 0 -2261.63924330 0 9204
0.09350000 0.09350330 18896.51588856 0 -136.36183000 0 6842.83596037 0 1269.06584601 0 -1675.00365432 0 9349
0.09450000 0.09448040 19174.23946015 0 -320.87387331 0 7002.64901720 0 836.77868112 0 -2208.19076521 0 9564
0.09550000 0.09549270 19404.71453273 0 18.20464702 0 6479.98745221 0 628.73999084 0 -1341.65773004 0 10155
0.09650000 0.09649430 19366.89355114 0 448.61895240 0 6964.05165182 0 220.85235011 0 -641.84424003 0 9913
0.09750000 0.09749140 18517.75151278 0 604.19295375 0 6949.01198876 0 -900.80594286 0 -401.59338646 0 10476
0.09850000 0.09850240 17921.59967682 0 388.83407349 0 7197.92063067 0 192.00636509 0 -90.75227717 0 10575
0.09950000 0.09950330 17639.66145039 0 209.72344309 0 7921.88742027 0 393.77076525 0 42.29461588 0 10882
0.10050000 0.10051200 17417.61568749 0 202.72267958 0 7059.64667832 0 -60.22963591 0 -330.49437754 0 10875
0.10150000 0.10150300 17023.21272401 0 41.15632634 0 7342.35019733 0 692.29476759 0 270.49987501 0 11118
0.10250000 0.10250800 17008.57234404 0 242.48129328 0 6676.67873889 0 -327.25242068 0 -1080.67964761 0 11575
0.10350000 0.10349800 16707.66817083 0 206.57687052 0 6817.09329226 0 -87.36480380 0 -1094.73108502 0 11364
0.10450000 0.10450100 16512.57401651 0 -51.97922723 0 6284.48292360 0 416.70625142 0 -1398.57775278 0 12093
0.10550000 0.10551000 16834.99511180 0 -38.61322579 0 6534.28995247 0 56.84870634 0 -1797.82756932 0 12067
0.10650000 0.10649700 16386.68893115 0 417.92961045 0 6291.91402556 0 -513.09097114 0 -2100.55069883 0 12054
0.10750000 0.10749900 15943.48470110 0 701.76221331 0 7407.95462728 0 -365.16989568 0 -2307.47916029 0 12807
0.10850000 0.10850100 15219.11862841 0 469.23194193 0 7308.63295861 0 -604.77080512 0 -2213.68090770 0 12736
0.10950000 0.10950300 14872.18598787 0 179.71288239 0 7911.43951274 0 258.14428161 0 -1754.80481636 0 12933
0.11050000 0.11050200 14442.51301810 0 240.20759791 0 8043.74640114 0 642.02724478 0 -1293.64393845 0 13428
0.11150000 0.11150900 14328.27368953 0 -14.22667833 0 6888.87551890 0 1357.99506314 0 -129.82689676 0 13453
0.11250000 0.11250000 14403.02835696 0 -198.95610910 0 6747.97295287 0 823.86630963 0 -231.75056023 0 13668
0.11350000 0.11349100 14615.09204261 0 -71.86585427 0 6033.63332223 0 835.71170797 0 1181.74485244 0 13791
0.11450000 0.11448600 14494.08708391 0 18.36946221 0 5380.52818993 0 414.13531197 0 460.81483257 0 14205
0.11550000 0.11549300 14464.58450002 0 49.41327882 0 5463.64561986 0 -68.92568887 0 1682.67876261 0 14776
0.11650000 0.11649800 14727.11313179 0 34.91176063 0 5137.67534155 0 -106.75498887 0 -17.56934326 0 14553
0.11750000 0.11747300 14684.85567142 0 78.83168052 0 5553.05175846 0 -207.55178673 0 740.49489129 0 14568
0.11850000 0.11849100 14198.06303736 0 142.58953709 0 5346.18984418 0 155.49414474 0 646.92400824 0 16015
0.11950000 0.11950300 14506.95287237 0 173.13469348 0 5276.99186642 0 8.16569411 0 514.45407925 0 15270
0.12050000 0.12050700 14205.27231538 0 41.70478603 0 5903.03447816 0 611.62738307 0 1428.71253489 0 15999
0.12150000 0.12150000 14060.75401914 0 170.49609773 0 4829.81698786 0 667.91409846 0 630.70535094 0 15670
0.12250000 0.12250700 13966.58975705 0 -117.11971241 0 5555.22563306 0 361.92904793 0 2226.81288489 0 16887
0.12350000 0.12352200 13857.56329105 0 168.59284833 0 4513.49605090 0 45.24010506 0 1048.94995138 0 16407
0.12450000 0.12449800 13709.93945967 0 274.26200902 0 5173.23371897 0 -252.97134735 0 1847.80450277 0 16306
0.12550000 0.12549900 13403.04604011 0 222.21878558 0 5019.44318208 0 -198.09765045 0 1049.86275689 0 17523
0.12650000 0.12650100 13081.06859270 0 64.58392892 0 5144.57406605 0 279.92628330 0 1101.59986329 0 17154
0.12750000 0.12750600 13280.71013777 0 50.95628614 0 4848.53892831 0 152.75240085 0 574.74360762 0 18007
0.12850000 0.12850300 12788.81555312 0 106.71805518 0 4350.21144943 0 78.50327018 0 493.90098218 0 17496
0.12950000 0.12949900 13040.36389990 0 189.41102500 0 4530.88704771 0 357.77983116 0 688.59474429 0 18405
0.13050000 0.13049000 12462.62345087 0 117.63656219 0 3716.10553750 0 511.74671807 0 340.60844004 0 18100
0.13150000 0.13148800 12436.78096198 0 98.76145231 0 3883.66024980 0 348.83921730 0 1228.77152750 0 19059
0.13250000 0.13249300 12218.50620604 0 176.11157074 0 3735.98096243 0 -196.33858662 0 870.75545385 0 18957
0.13350000 0.13349100 12218.50620604 0 12.42568977 0 3668.92358568 0 47.39479189 0 804.83936127 0 19468
0.13450000 0.13450700 12132.54942969 0 -65.92008541 0 3632.71082765 0 -148.97917565 0 322.15601568 0 19953
0.13550000 0.13551000 12325.53625659 0 6.85136509 0 3699.71274841 0 21.53799535 0 311.10474704 0 19956
0.13650000 0.13649900 12371.01016408 0 53.69314990 0 3808.41756970 0 208.13629281 0 406.15963224 0 19723
0.13750000 0.13749600 12226.49186784 0 91.58522606 0 3298.83252592 0 -232.32175688 0 -301.36889436 0 20946
0.13850000 0.13851100 12155.06455950 0 266.90854544 0 4366.26041141 0 -113.19786517 0 -169.54780039 0 20955
0.13950000 0.13949800 11632.66918323 0 346.12520140 0 3986.73074304 0 -249.72606313 0 -251.52061879 0 20506
0.14050000 0.14048300 11433.58219801 0 298.17573876 0 4746.07845090 0 -349.32612084 0 102.63915659 0 21447
0.14150000 0.14148400 11118.92494059 0 196.99296724 0 4749.62763393 0 19.11190693 0 -58.20493790 0 21771
0.14250000 0.14249400 11036.19570256 0 28.42474136 0 4771.55493029 0 335.54752687 0 119.93354908 0 22470
0.14350000 0.14350900 11000.78151070 0 -55.68612708 0 4361.94593580 0 472.25096574 0 91.78719676 0 22519
0.14450000 0.14449900 11061.17307808 0 -29.62114878 0 4081.40520019 0 313.64795850 0 75.41248632 0 22218
0.14550000 0.14550500 11008.78935490 0 57.31952765 0 4171.26607786 0 -2.32198645 0 502.52660605 0 23559
0.14650000 0.14650700 11059.47612495 0 21.58480020 0 3693.36858376 0 451.96960300 0 416.37906111 0 23044
0.14750000 0.14750500 10855.97484334 0 -14.07251069 0 3624.38133874 0 258.50363639 0 658.26032064 0 23649
0.14850000 0.14849900 11096.29889882 0 144.11235843 0 3257.24053736 0 126.73799841 0 711.61896004 0 23640
0.14950000 0.14949500 10651.63063077 0 271.15425563 0 3532.44640724 0 50.56576509 0 900.04952323 0 24457
0.15050000 0.15050000 10267.19865335 0 262.04394646 0 3473.03086518 0 -149.89087204 0 822.90803021 0 24591
0.15150000 0.15149900 10025.76547818 0 173.94435086 0 3455.55113879 0 246.94106357 0 1028.90039465 0 25020
0.15250000 0.15250500 9837.48131879 0 102.10833190 0 3501.26905261 0 272.10698945 0 961.23411119 0 25297
0.15350000 0.15350100 9711.44095667 0 13.34082443 0 2887.73731103 0 403.43563427 0 868.19671471 0 25452
0.15450000 0.15450400 9602.02629877 0 45.05809851 0 2811.75152074 0 161.41351655 0 900.37560442 0 26061
0.15550000 0.15549900 9460.66899367 0 41.64866457 0 2351.13411148 0 54.05982487 0 498.42729966 0 26128
0.15650000 0.15649500 9407.68634585 0 164.29500951 0 2207.52529339 0 -178.26437207 0 425.46940613 0 26331
0.15750000 0.15749700 9252.26540301 0 20.78834135 0 2304.85054661 0 113.05922521 0 -270.12831991 0 27345
0.15850000 0.15849900 9351.16560620 0 31.57530677 0 2135.37705724 0 42.58021420 0 165.64924466 0 26980
0.15950000 0.15949700 9300.19046502 0 -34.94680882 0 1831.63353762 0 272.92773802 0 -303.46069410 0 27777
0.16050000 0.16050000 9306.01334342 0 47.78409290 0 1810.69335778 0 300.78771564 0 -114.61199278 0 28224
0.16150000 0.16150500 9054.86427973 0 152.09136551 0 1509.72263740 0 -54.41263584 0 -41.75968745 0 28075
0.16250000 0.16249700 8937.89651671 0 189.83470873 0 1910.51413032 0 -216.43472637 0 131.07132906 0 28590
0.16350000 0.16349900 8914.36099679 0 128.29298422 0 2005.93169766 0 208.54223062 0 854.04212917 0 29163
0.16450000 0.16449100 8675.51207051 0 89.07329178 0 1942.65641907 0 69.52261709 0 548.33435856 0 28996
0.16550000 0.16550500 8711.30336306 0 -40.18240834 0 1956.54259765 0 334.43175246 0 634.79356613 0 30777
0.16650000 0.16650700 8579.86158802 0 178.89989766 0 2246.93231615 0 -162.76109698 0 674.77400377 0 29211
0.16750000 0.16749900 8479.56389402 0 147.15467375 0 1974.74325184 0 -247.23498029 0 872.13187139 0 30922
0.16850000 0.16850800 8386.12055973 0 29.10995551 0 2256.27110398 0 265.61531188 0 641.44162959 0 30867
0.16950000 0.16949900 8284.53628688 0 -104.45179091 0 1788.30023114 0 277.24775923 0 795.98858610 0 30852
0.17050000 0.17049200 8500.26006753 0 -0.89557090 0 1569.50418895 0 456.05338172 0 592.81005833 0 31257
0.17150000 0.17149500 8384.68979533 0 114.60755631 0 1362.66445706 0 23.40176009 0 665.75575154 0 32608
0.17250000 0.17250900 8194.23176133 0 132.61300543 0 1362.88628100 0 -135.27600182 0 652.52617182 0 32361
0.17350000 0.17350400 8137.13427944 0 130.08310341 0 1513.30509401 0 -135.36694963 0 496.27006185 0 32508
0.17450000 0.17449800 7747.62253382 0 178.64147277 0 1554.94144735 0 -270.36123505 0 504.18806735 0 32791
0.17550000 0.17549800 7719.45089357 0 204.36084937 0 2031.03107636 0 -352.14550311 0 42.30393249 0 33633
0.17650000 0.17650100 7579.54653526 0 63.49177875 0 2103.75605474 0 -98.37780781 0 205.64410086 0 33984
0.17750000 0.17750300 7568.45533832 0 1.72288435 0 2236.67295897 0 81.01331896 0 -23.95221619 0 34069
0.17850000 0.17849800 7643.29873532 0 47.58312041 0 2270.43456248 0 -224.63555739 0 34.88880186 0 34536
