### header ###
fiducial parameters:
Omega_m = 0.31
Omega_nu = 0
Omega_de = 0.69
Omega_k = 0
H_0 = 100
w_de = -1
zeff = 0
beta = 0
fgrowth = 0
b_1 = 2
gamma = 0.55
Lx = 3500 Ly = 3500 Lz = 3500
nx = 700 ny = 700 nz = 700
xoffset = 1379.75464 yoffset = 22.6059522 zoffset = 368.141391
bins = 400 dk = 0.001
kx_ny = 0.628318531 ky_ny = 0.628318531 kz_ny = 0.628318531
############################
A(data) = 3.36207328 (not used)
A(ran) = 3.35892111 (used)
Ngal = 188684
weighted Ngal = 0
Nran = 9399747
weighted Nran = 0
SN(data) = 6655.05958
SN(ran) = 133.602373
SN(data+ran) = 6788.66195
############################
13 columns: k_central k_mean P_0(k) sigma^{lin}_{P_0(k)} P^img_1(k) sigma^{lin}_{P_1(k)} P_2(k) sigma^{lin}_{P_2(k)} P^img_3(k) sigma^{lin}_{P_3(k)} P_4(k) sigma^{lin}_{P_4(k)} N_modes
### header ###
0.00050000 0 0 0 0 0 0 0 0 0 0 0 0
0.00150000 0.00179520 33356.22026193 0 -31036.27459627 0 -44405.82522160 0 34300.41385813 0 -32590.26220069 0 3
0.00250000 0.00253879 72782.20896575 0 -41525.99593399 0 -42182.15114545 0 -26345.69649490 0 75056.79163589 0 6
0.00350000 0.00331552 89877.73629386 0 -26498.75501278 0 -52638.48798036 0 -46037.45120465 0 -61466.19345539 0 7
0.00450000 0.00420575 107581.83759852 0 -4317.49241843 0 -39450.94389695 0 -65008.49993671 0 3519.39206843 0 24
0.00550000 0.00557378 91311.38441139 0 1716.29618056 0 -18310.56795379 0 -31155.39405150 0 84.98308017 0 45
0.00650000 0.00659388 86660.84553100 0 9207.40151135 0 -23636.22799242 0 -1440.81303076 0 -5577.18620302 0 40
0.00750000 0.00754703 84527.12106210 0 1559.85484760 0 -5155.06633837 0 -29865.26602248 0 -28600.20409856 0 57
0.00850000 0.00846663 73813.35754602 0 7696.45884230 0 -13746.87314551 0 1716.72873724 0 -8113.94258662 0 75
0.00950000 0.00948925 70987.09873968 0 6927.59488745 0 13068.31371621 0 -15191.94519589 0 -12529.72519241 0 112
0.01050000 0.01054430 66820.24695820 0 -4183.88785999 0 -5815.78003177 0 3120.20879906 0 -14418.55603269 0 105
0.01150000 0.01145670 62785.15859647 0 -402.00708811 0 5096.80428080 0 11479.83248929 0 -15675.41047086 0 144
0.01250000 0.01249090 68027.63465798 0 3360.78795207 0 3997.63338964 0 -17500.35601672 0 -11351.06369272 0 169
0.01350000 0.01339930 63648.38645495 0 5986.62882956 0 6713.50151276 0 5255.90750102 0 -2939.32246804 0 180
0.01450000 0.01448870 56297.14111767 0 1544.63772539 0 12704.18972040 0 -2557.60783387 0 -717.11908460 0 267
0.01550000 0.01550050 58987.97640927 0 -2805.67354481 0 8773.23660682 0 906.00216863 0 -11432.80581423 0 238
0.01650000 0.01653350 63115.56535356 0 -3808.90558237 0 11276.64176120 0 8939.56019625 0 7631.93025845 0 315
0.01750000 0.01747870 70074.95870266 0 -4661.03115270 0 8932.69474534 0 2097.86662917 0 -4773.32952180 0 297
0.01850000 0.01844180 73155.98230290 0 209.67907831 0 17793.27452813 0 -9155.74980717 0 1886.80115124 0 388
0.01950000 0.01947590 79461.21685600 0 48.99580617 0 20315.30180218 0 -12457.18876437 0 -10393.62720736 0 399
0.02050000 0.02045430 77105.89027207 0 977.83763302 0 33966.79065393 0 -2183.60158158 0 4356.40033732 0 462
0.02150000 0.02154770 81229.81912136 0 2472.91545397 0 46239.20007714 0 -1770.12175935 0 229.32602458 0 571
0.02250000 0.02255340 75097.49632869 0 1507.78167793 0 45186.53457478 0 8371.10307906 0 -6623.81809424 0 510
0.02350000 0.02348930 78071.60079036 0 2407.77685429 0 57992.09783529 0 -3065.90629881 0 8201.49649533 0 555
0.02450000 0.02439640 75599.26207863 0 2965.81933755 0 49752.22579852 0 1118.79121856 0 -4018.48483990 0 592
0.02550000 0.02547300 72823.46821840 0 2376.94332678 0 59489.07668740 0 4849.18221773 0 15234.75721611 0 837
0.02650000 0.02652900 66044.30681970 0 2445.57565349 0 43002.23424780 0 6828.33976596 0 -1952.37230760 0 723
0.02750000 0.02749970 67529.86173895 0 -94.02562213 0 43168.26946612 0 13724.57983964 0 4651.64800008 0 826
0.02850000 0.02848090 65869.39864383 0 100.78814673 0 36878.22985284 0 5548.11617582 0 -4976.71989144 0 831
0.02950000 0.02946900 64015.28325000 0 4577.02642702 0 32646.60548118 0 546.11944653 0 -2004.47875086 0 996
0.03050000 0.03053250 55752.89608342 0 2651.83864314 0 31800.56897797 0 1033.46774956 0 270.35014385 0 1041
0.03150000 0.03150510 53001.39194450 0 1309.03851981 0 21709.79799448 0 -1828.74982641 0 -18115.91744735 0 1036
0.03250000 0.03246190 53148.79395194 0 926.23473010 0 29248.37364822 0 3937.50801098 0 -7103.41254147 0 1059
0.03350000 0.03345080 50881.75329573 0 530.48418620 0 20183.31655850 0 2290.44308178 0 -21085.58543024 0 1302
0.03450000 0.03451200 50197.98100387 0 2057.15084517 0 25120.11923212 0 -3768.22307196 0 -11542.83048795 0 1339
0.03550000 0.03553350 47461.33906886 0 737.56792442 0 21626.61401737 0 -179.76944750 0 -18552.57787120 0 1365
0.03650000 0.03647120 50130.54652642 0 386.51490421 0 28316.15854472 0 -200.55102322 0 -9874.96956447 0 1308
0.03750000 0.03744890 46678.63330023 0 161.09963567 0 22427.84208491 0 4337.87803842 0 -13462.05120787 0 1579
0.03850000 0.03847530 48062.03829558 0 734.17401815 0 26308.54098512 0 1654.59585193 0 -8147.29381585 0 1662
0.03950000 0.03950240 46617.29898110 0 649.71898987 0 24965.50794666 0 -1013.42595667 0 -5655.84497178 0 1683
0.04050000 0.04050350 46793.87083652 0 964.12114976 0 24249.34935972 0 6757.82193576 0 -3534.27645473 0 1822
0.04150000 0.04152450 46547.20261639 0 -2192.79618385 0 19783.81164442 0 5309.40034390 0 5753.39204894 0 1887
0.04250000 0.04250150 48246.59581280 0 -884.87011109 0 14517.93315735 0 5236.56445354 0 -2751.64832448 0 1920
0.04350000 0.04349210 48399.76524265 0 1271.69445969 0 16541.30021661 0 -1483.70268935 0 2043.15375462 0 2005
0.04450000 0.04448520 45733.10876039 0 2124.49659304 0 15604.42681039 0 -3316.43425547 0 -2790.38987542 0 2151
0.04550000 0.04548030 43430.68718591 0 2475.91007715 0 18528.28814988 0 -3426.02637252 0 344.42713915 0 2274
0.04650000 0.04648670 41234.63019016 0 1166.53882142 0 19580.39909239 0 338.79946582 0 -6310.59160122 0 2311
0.04750000 0.04749250 39697.50120511 0 -44.15671694 0 18219.62013881 0 3540.63171058 0 -680.84754322 0 2568
0.04850000 0.04851840 41547.29103213 0 -1035.14362942 0 16022.34311140 0 7943.84799023 0 2727.34751196 0 2493
0.04950000 0.04949480 40874.27720132 0 -1371.23795230 0 11290.94940526 0 5532.73268565 0 2646.32631826 0 2644
0.05050000 0.05050630 43128.11933316 0 955.33470354 0 9288.63343780 0 51.07119094 0 6826.98663993 0 2829
0.05150000 0.05149060 40688.38874046 0 1625.80310466 0 13715.59597011 0 -2297.80763655 0 9314.03227881 0 2784
0.05250000 0.05249300 39259.06618975 0 1345.62837855 0 12508.31918230 0 -1742.74868528 0 9466.90224635 0 3055
0.05350000 0.05348950 38062.76968691 0 819.01723832 0 17176.27124190 0 -988.66596861 0 5887.92826792 0 3009
0.05450000 0.05448610 36985.37081536 0 1415.48073693 0 18292.71112670 0 -377.36133937 0 7767.84178585 0 3336
0.05550000 0.05550870 36279.85977748 0 802.12423625 0 18801.13159481 0 857.58687571 0 6767.88165140 0 3349
0.05650000 0.05647670 35000.93385738 0 281.98259121 0 20271.15883833 0 623.19439237 0 8225.06528885 0 3324
0.05750000 0.05747970 34732.85962715 0 551.03062854 0 19311.99212625 0 2302.98722553 0 7676.05103991 0 3639
0.05850000 0.05849280 33693.72538507 0 878.35181464 0 19197.42006177 0 393.36482744 0 7188.40438369 0 3846
0.05950000 0.05951020 33410.45621501 0 971.08863968 0 20797.65795746 0 -137.25245311 0 9500.12038121 0 3787
0.06050000 0.06049470 32144.83973125 0 352.90857746 0 18940.88067636 0 2057.58340185 0 7561.87825853 0 3930
0.06150000 0.06148310 31489.68272752 0 -367.75969017 0 18068.00347653 0 1586.62899703 0 7215.97709930 0 4083
0.06250000 0.06249100 32329.72998437 0 -101.25209150 0 16614.39120450 0 474.34054724 0 5141.23561577 0 4303
0.06350000 0.06350600 32263.62645056 0 194.85791182 0 16775.10264828 0 881.87659703 0 5650.46574126 0 4470
0.06450000 0.06451750 32873.53137075 0 -64.74375307 0 15508.93160467 0 2091.61119409 0 5023.60238094 0 4479
0.06550000 0.06550280 31292.81398168 0 -175.70896029 0 15040.66126952 0 631.59042846 0 5363.22592269 0 4636
0.06650000 0.06648880 32852.56900851 0 459.70571287 0 14061.53040293 0 1145.42118243 0 1955.87712583 0 4653
0.06750000 0.06749660 31655.82885780 0 595.48858239 0 16217.88091360 0 -469.60349703 0 5105.35559365 0 5220
0.06850000 0.06852730 31249.66922556 0 349.79638759 0 13689.30983334 0 319.93999453 0 1486.83040689 0 5029
0.06950000 0.06949320 30134.11663650 0 378.09003101 0 14057.20483612 0 -429.06960866 0 4366.32695859 0 5040
0.07050000 0.07048030 29993.14752329 0 -19.34626392 0 12140.20235559 0 1621.63281460 0 364.20163419 0 5475
0.07150000 0.07148790 30087.97725720 0 401.62666005 0 12728.70126566 0 234.97477119 0 -39.68186262 0 5509
0.07250000 0.07249820 29368.04766329 0 518.10197392 0 12583.18476170 0 278.58979407 0 240.55918885 0 5916
0.07350000 0.07351270 28180.29138210 0 470.15251128 0 10648.20345091 0 875.16975023 0 -2024.50945255 0 5721
0.07450000 0.07449140 28180.06955817 0 342.33644853 0 10616.44935405 0 -218.85704378 0 -1007.58976884 0 6028
0.07550000 0.07549160 27128.06952763 0 51.20007065 0 9527.26054014 0 1192.09293919 0 -3162.99863689 0 6183
0.07650000 0.07648840 28301.07451687 0 70.97401113 0 9129.59676476 0 404.39502281 0 -1964.00697320 0 6330
0.07750000 0.07749960 26467.47783739 0 372.61763443 0 6862.02373109 0 611.88248060 0 -2520.71851282 0 6583
0.07850000 0.07848650 26704.27489224 0 604.35266699 0 9831.90244672 0 755.14747158 0 -227.85422275 0 6549
0.07950000 0.07947320 25523.17332922 0 475.18236909 0 6996.77068282 0 575.88156442 0 -138.70761815 0 6828
0.08050000 0.08048110 24992.23773131 0 608.91003982 0 8666.58365696 0 1653.78619456 0 1360.41294408 0 7147
0.08150000 0.08149960 23643.32635847 0 727.37955090 0 7495.61944796 0 19.69053468 0 2700.48463295 0 7386
0.08250000 0.08250610 22764.57082426 0 989.26045676 0 8574.47126631 0 -228.69160811 0 3679.17185166 0 7227
0.08350000 0.08350160 21903.11755729 0 748.47833485 0 9932.21123192 0 179.63413489 0 3984.23522373 0 7798
0.08450000 0.08449610 21282.01052819 0 100.22205204 0 8575.84657473 0 -330.20046082 0 4407.83021757 0 7371
0.08550000 0.08548940 21147.14157330 0 -35.34487187 0 9155.40598006 0 1491.54416560 0 4027.65725978 0 8256
0.08650000 0.08650700 21391.92428995 0 -312.20055730 0 7670.10615835 0 522.80796879 0 3912.06480518 0 8037
0.08750000 0.08749060 21671.20062910 0 49.66172163 0 6949.06744474 0 1106.79497994 0 3473.86270496 0 8155
0.08850000 0.08849210 21398.02444827 0 295.44619519 0 7658.67113429 0 -282.00033713 0 4726.08102280 0 8718
0.08950000 0.08949900 20995.96855889 0 447.49652327 0 6986.20077213 0 -844.31293120 0 2226.21396025 0 8571
0.09050000 0.09049190 20432.75757786 0 82.52371816 0 7618.45445416 0 842.47179251 0 2731.40689004 0 8932
0.09150000 0.09150830 20270.27154257 0 104.57989423 0 6442.27738259 0 124.78151127 0 843.51547414 0 9285
0.09250000 0.09250820 20155.14491825 0 223.87137392 0 6856.85523331 0 -642.64946093 0 246.24786376 0 9204
0.09350000 0.09350330 19811.09598892 0 359.77846485 0 6475.69515899 0 162.13444435 0 -554.52546470 0 9349
0.09450000 0.09448040 19131.09470402 0 424.16951785 0 6677.35530190 0 121.95769252 0 -739.05414481 0 9564
0.09550000 0.09549270 18885.64651556 0 333.81619103 0 5958.02463263 0 -146.78090041 0 -1030.72489655 0 10155
0.09650000 0.09649430 18235.92419833 0 262.44322955 0 7022.14734143 0 874.95347189 0 -882.24815213 0 9913
0.09750000 0.09749140 17969.40273566 0 68.68811544 0 4938.31107641 0 1058.57711033 0 689.23137900 0 10476
0.09850000 0.09850240 17925.70341969 0 -42.80824921 0 5222.93337249 0 844.89078257 0 -96.82448568 0 10575
0.09950000 0.09950330 17783.84701072 0 53.99660505 0 4577.39243652 0 572.76271984 0 1549.00765699 0 10882
0.10050000 0.10051200 17680.58796713 0 411.22720013 0 4916.01777054 0 -290.34757195 0 811.93439995 0 10875
0.10150000 0.10150300 17438.91078563 0 357.93954439 0 5217.15485888 0 -343.44778646 0 1504.68723398 0 11118
0.10250000 0.10250800 16673.06363635 0 374.28131398 0 5685.46955883 0 -413.52529614 0 1536.58551640 0 11575
0.10350000 0.10349800 16384.80342767 0 478.12708188 0 6438.14036613 0 -330.53430585 0 1840.63958954 0 11364
0.10450000 0.10450100 15783.99328899 0 464.43943573 0 6755.58151398 0 -612.32834672 0 751.91993327 0 12093
0.10550000 0.10551000 15687.27805160 0 208.41135449 0 7849.68372814 0 375.33275945 0 2315.79755800 0 12067
0.10650000 0.10649700 15174.64292865 0 -48.89953458 0 6992.47838960 0 491.38106223 0 2288.16938640 0 12054
0.10750000 0.10749900 15649.34615803 0 -154.47708198 0 7229.51945078 0 1002.06524364 0 2666.96703578 0 12807
0.10850000 0.10850100 15652.00804530 0 71.98552829 0 7014.49441554 0 410.38870564 0 2255.91618568 0 12736
0.10950000 0.10950300 15517.13909041 0 246.01827599 0 6444.31816283 0 -406.15852312 0 2586.51149311 0 12933
0.11050000 0.11050200 15517.13909041 0 80.59540266 0 6960.21409768 0 398.08634999 0 3365.82335548 0 13428
0.11150000 0.11150900 15121.95974315 0 112.47028265 0 6389.18382280 0 -197.82369789 0 2970.71055540 0 13453
0.11250000 0.11250000 15338.90355545 0 64.01117951 0 6902.45114397 0 525.41772743 0 2135.68761076 0 13668
0.11350000 0.11349100 14976.55415115 0 -11.43092031 0 6268.73342394 0 503.95737045 0 2546.64973128 0 13791
0.11450000 0.11448600 14806.63701391 0 251.40748858 0 6014.48991629 0 332.40871814 0 2430.54708163 0 14205
0.11550000 0.11549300 14488.31966149 0 145.49432157 0 6071.44321262 0 401.77750033 0 2565.89295799 0 14776
0.11650000 0.11649800 14427.87263813 0 174.69189753 0 5291.18859851 0 -71.90334252 0 1950.76408404 0 14553
0.11750000 0.11747300 14211.92703354 0 117.23838822 0 5555.80237530 0 -101.38396583 0 1654.18547765 0 14568
0.11850000 0.11849100 13988.10667913 0 22.54729428 0 4849.79223356 0 45.06730421 0 1143.67986451 0 16015
0.11950000 0.11950300 14049.88464613 0 136.24093595 0 4966.01688638 0 -238.15128999 0 -464.86755593 0 15270
0.12050000 0.12050700 13867.43445633 0 99.21308585 0 5143.59804072 0 -456.19867640 0 -321.21991866 0 15999
0.12150000 0.12150000 13953.50214465 0 130.18403330 0 4814.22276495 0 121.20570937 0 -1253.41616712 0 15670
0.12250000 0.12250700 13691.41716076 0 -33.43762965 0 5126.67287418 0 161.71408798 0 -831.81204312 0 16887
0.12350000 0.12352200 13606.56950411 0 91.76689987 0 4601.77088741 0 554.15723696 0 -1390.90264449 0 16407
0.12450000 0.12449800 13811.42391174 0 130.01766535 0 4956.14572110 0 17.37857467 0 -853.59182657 0 16306
0.12550000 0.12549900 13361.78678746 0 233.83903262 0 4342.83580346 0 25.16426220 0 -988.62604030 0 17523
0.12650000 0.12650100 13226.25236076 0 201.42722778 0 5102.20569371 0 -90.29875813 0 -379.29231676 0 17154
0.12750000 0.12750600 12851.70263981 0 188.64795065 0 4898.70441211 0 -211.70322175 0 -490.79988351 0 18007
0.12850000 0.12850300 12612.57643361 0 242.61327852 0 5170.06163664 0 294.98147403 0 -650.35784281 0 17496
0.12950000 0.12949900 12562.11148750 0 19.74266330 0 5041.52575521 0 121.92220069 0 -632.64298305 0 18405
0.13050000 0.13049000 12424.13699746 0 46.80762392 0 4764.14601073 0 481.08510411 0 -324.93436051 0 18100
0.13150000 0.13148800 12374.89208301 0 23.51378118 0 4817.16193214 0 70.50385529 0 -57.65126535 0 19059
0.13250000 0.13249300 12434.56272259 0 -7.78573189 0 4037.10695958 0 386.33411770 0 -207.40538293 0 18957
0.13350000 0.13349100 12212.40604772 0 267.17584329 0 4561.09946820 0 -31.45208357 0 -594.47484699 0 19468
0.13450000 0.13450700 12058.01658620 0 104.10940566 0 4177.51042174 0 -109.26614677 0 -72.88824081 0 19953
0.13550000 0.13551000 11808.24283093 0 126.02927092 0 4443.36641259 0 433.62587237 0 -128.74106858 0 19956
0.13650000 0.13649900 11898.30335014 0 127.54543755 0 4129.10843826 0 295.27871811 0 298.42085421 0 19723
0.13750000 0.13749600 11809.57377456 0 -63.40205097 0 3600.20252939 0 320.29602195 0 -230.13457284 0 20946
0.13850000 0.13851100 11794.37883474 0 0.86970623 0 3557.88961304 0 162.94188349 0 596.49899043 0 20955
0.13950000 0.13949800 11608.82310980 0 120.65669512 0 3181.37675023 0 171.72500235 0 450.68302415 0 20506
0.14050000 0.14048300 11768.42543388 0 39.06497024 0 3292.11126057 0 108.82737902 0 633.63453605 0 21447
0.14150000 0.14148400 11609.48858161 0 6.81991046 0 3026.73219119 0 177.70093927 0 248.77111107 0 21771
0.14250000 0.14249400 11511.55331256 0 49.09662515 0 3034.10783716 0 372.61874355 0 400.77263789 0 22470
0.14350000 0.14350900 11548.15426249 0 148.38357837 0 3127.56226264 0 -303.34645477 0 -75.00566122 0 22519
0.14450000 0.14449900 11177.81919639 0 190.83624381 0 3266.22440689 0 -323.23518914 0 349.01889469 0 22218
0.14550000 0.14550500 11047.53090584 0 146.18308490 0 3044.64447426 0 -265.88593708 0 -421.41335541 0 23559
0.14650000 0.14650700 10952.76771911 0 131.24546085 0 3436.60737441 0 -99.38522123 0 -324.88999573 0 23044
0.14750000 0.14750500 10914.35890408 0 92.73771234 0 3461.01909889 0 147.85896476 0 -580.64634263 0 23649
0.14850000 0.14849900 10674.28994614 0 40.88170830 0 3230.11146962 0 448.27401618 0 -386.08900225 0 23640
0.14950000 0.14949500 10671.99406837 0 47.92539475 0 3217.82242341 0 447.85033245 0 344.20420609 0 24457
0.15050000 0.15050000 10582.73211533 0 94.83993781 0 2817.01983929 0 188.27861379 0 141.73995140 0 24591
0.15150000 0.15149900 10487.91347262 0 133.96280410 0 2820.51356633 0 -65.83324134 0 461.92173402 0 25020
0.15250000 0.15250500 10156.29777506 0 184.97232798 0 2950.14747626 0 43.50233632 0 303.17454122 0 25297
0.15350000 0.15350100 9977.08621477 0 203.79630744 0 2890.56556625 0 27.38671624 0 680.66453847 0 25452
0.15450000 0.15450400 9777.27830175 0 109.21002531 0 3021.70787897 0 -25.69309047 0 387.04173606 0 26061
0.15550000 0.15549900 9730.20726190 0 189.05721582 0 3100.66611004 0 108.28923414 0 65.62905241 0 26128
0.15650000 0.15649500 9475.48683279 0 235.79219240 0 3356.41802047 0 -214.55365936 0 639.29326474 0 26331
0.15750000 0.15749700 9191.46346134 0 91.16076596 0 3068.81219241 0 -30.63155682 0 150.28239129 0 27345
0.15850000 0.15849900 9103.33281039 0 36.74768646 0 3447.52111220 0 110.26213625 0 303.73908315 0 26980
0.15950000 0.15949700 9175.00412507 0 68.51875286 0 2987.24753005 0 -64.28036286 0 -217.11350762 0 27777
0.16050000 0.16050000 9096.83336898 0 -74.95796907 0 3101.44249383 0 160.71033466 0 49.18546563 0 28224
0.16150000 0.16150500 9136.44003328 0 -72.65233105 0 2587.87571034 0 265.42232505 0 -507.09174271 0 28075
0.16250000 0.16249700 9346.51839468 0 -69.20152694 0 2342.51625145 0 438.90417299 0 -622.65757843 0 28590
0.16350000 0.16349900 9207.72315607 0 43.89030639 0 2107.23869059 0 169.52783623 0 -362.71763204 0 29163
0.16450000 0.16449100 9138.38099275 0 186.26888891 0 1503.26756077 0 -8.70018998 0 -491.31007857 0 28996
0.16550000 0.16550500 8990.19151032 0 84.37128974 0 1970.36222905 0 147.89889307 0 -246.39315844 0 30777
0.16650000 0.16650700 8734.45069109 0 185.05107548 0 1718.39241678 0 81.21739698 0 -543.41097624 0 29211
0.16750000 0.16749900 8516.83031577 0 214.92632358 0 1836.10328999 0 59.77744781 0 104.80460188 0 30922
0.16850000 0.16850800 8292.46649270 0 197.58301891 0 1686.88232625 0 -229.70645264 0 -242.72308137 0 30867
0.16950000 0.16949900 8166.28194502 0 75.88108939 0 2193.53929404 0 42.18259479 0 263.68322537 0 30852
0.17050000 0.17049200 8071.87367660 0 1.94282279 0 1879.09276936 0 40.81560477 0 -236.14156510 0 31257
0.17150000 0.17149500 8135.20441117 0 65.85875109 0 2394.68924189 0 -351.94807980 0 -196.16778218 0 32608
0.17250000 0.17250900 8055.61398187 0 25.87265695 0 2076.53825743 0 117.23506086 0 -291.75171748 0 32361
0.17350000 0.17350400 8179.02573032 0 10.26534642 0 2396.26419186 0 -1.71067294 0 -126.90325724 0 32508
0.17450000 0.17449800 8025.04664308 0 113.23224788 0 2248.36308056 0 -102.32505389 0 -386.29529851 0 32791
0.17550000 0.17549800 8183.01856122 0 26.52282291 0 2556.29907263 0 119.76052641 0 -205.84263328 0 33633
0.17650000 0.17650100 7943.20470080 0 24.12579343 0 2451.02143119 0 -192.13391385 0 -244.89584686 0 33984
0.17750000 0.17750300 8013.51179826 0 212.14243315 0 2579.94550452 0 -197.36008586 0 -401.42147291 0 34069
0.17850000 0.17849800 7716.25662885 0 170.96192800 0 2906.00451240 0 -308.67688403 0 -598.96012703 0 34536
