### header ###
fiducial parameters:
Omega_m = 0.31
Omega_nu = 0
Omega_de = 0.69
Omega_k = 0
H_0 = 100
w_de = -1
zeff = 0
beta = 0
fgrowth = 0
b_1 = 2
gamma = 0.55
Lx = 3500 Ly = 3500 Lz = 3500
nx = 700 ny = 700 nz = 700
xoffset = 1379.75464 yoffset = 22.6059522 zoffset = 368.141391
bins = 400 dk = 0.001
kx_ny = 0.628318531 ky_ny = 0.628318531 kz_ny = 0.628318531
############################
A(data) = 3.33833467 (not used)
A(ran) = 3.33734907 (used)
Ngal = 187734
weighted Ngal = 0
Nran = 9399747
weighted Nran = 0
SN(data) = 6625.61474
SN(ran) = 132.744337
SN(data+ran) = 6758.35908
############################
13 columns: k_central k_mean P_0(k) sigma^{lin}_{P_0(k)} P^img_1(k) sigma^{lin}_{P_1(k)} P_2(k) sigma^{lin}_{P_2(k)} P^img_3(k) sigma^{lin}_{P_3(k)} P_4(k) sigma^{lin}_{P_4(k)} N_modes
### header ###
0.00050000 0 0 0 0 0 0 0 0 0 0 0 0
0.00150000 0.00179520 3884.00407690 0 506.61814860 0 15204.36733647 0 -15999.71706963 0 -50601.70057278 0 3
0.00250000 0.00253879 32868.76215606 0 -10245.32681297 0 -17580.32354672 0 43575.53821805 0 81880.76147025 0 6
0.00350000 0.00331552 54125.81749111 0 -32263.07189072 0 -40552.29975391 0 38938.86333385 0 24571.65954303 0 7
0.00450000 0.00420575 73758.56703310 0 -25503.98555850 0 -32600.68792582 0 -15081.92052216 0 27534.67280775 0 24
0.00550000 0.00557378 95404.59064513 0 2330.97031543 0 -30058.80740923 0 -27350.66985038 0 -12318.65971448 0 45
0.00650000 0.00659388 71258.16759309 0 13402.15874435 0 -36512.33126552 0 7841.23223606 0 4971.10774578 0 40
0.00750000 0.00754703 69102.92620211 0 1995.06232465 0 -2941.16360673 0 -13963.59513387 0 35836.98828334 0 57
0.00850000 0.00846663 56508.31750756 0 -1392.67723600 0 -22993.71495321 0 23593.19414826 0 33854.99138869 0 75
0.00950000 0.00948925 71517.81251365 0 -8176.18638390 0 -17316.90761920 0 4506.76369435 0 6418.25385000 0 112
0.01050000 0.01054430 77175.21025300 0 -1832.25464465 0 -23428.37896161 0 -4364.94055897 0 15939.49187020 0 105
0.01150000 0.01145670 77556.74742802 0 814.63066993 0 -30964.29272808 0 -9780.33947211 0 17357.83413594 0 144
0.01250000 0.01249090 72414.75761085 0 -575.43569831 0 -4192.05098094 0 -9626.44911445 0 14084.48918061 0 169
0.01350000 0.01339930 86603.83677868 0 -1701.65580058 0 -295.87542451 0 -2232.50266892 0 11003.75395148 0 180
0.01450000 0.01448870 85895.88567748 0 -1439.08280403 0 -3243.82018905 0 -8250.99650731 0 5836.03255740 0 267
0.01550000 0.01550050 79840.75761557 0 657.22440284 0 14901.24492388 0 -4245.05581116 0 -7187.94964461 0 238
0.01650000 0.01653350 85787.19194739 0 1989.48345259 0 15989.73499237 0 -3485.51955295 0 19112.46149315 0 315
0.01750000 0.01747870 84085.24777568 0 -1466.94389077 0 12750.66183562 0 13365.66870639 0 6845.44239166 0 297
0.01850000 0.01844180 88608.68153905 0 -353.23354953 0 13640.17583086 0 9412.57756370 0 20458.71097872 0 388
0.01950000 0.01947590 87648.62753121 0 1959.31539689 0 27255.06373268 0 -4252.70873705 0 8474.36212265 0 399
0.02050000 0.02045430 85565.58983236 0 7025.25287658 0 31349.37908612 0 -6173.68186609 0 18455.30807396 0 462
0.02150000 0.02154770 76839.59063335 0 7922.85235440 0 52234.99023538 0 -7195.52493213 0 23763.11128551 0 571
0.02250000 0.02255340 67866.70139027 0 7096.82437049 0 45471.02377651 0 -1363.60720880 0 4206.65808732 0 510
0.02350000 0.02348930 63386.74511894 0 5083.48375326 0 67782.96285331 0 7576.81810081 0 35124.71161533 0 555
0.02450000 0.02439640 58978.99253975 0 234.70414598 0 49817.22021264 0 15453.69744387 0 18040.05366022 0 592
0.02550000 0.02547300 60246.16179108 0 756.91429925 0 62328.20128220 0 16543.62936797 0 40338.68330069 0 837
0.02650000 0.02652900 61589.41665348 0 1196.93979226 0 51369.21140160 0 6420.37226861 0 36836.30512838 0 723
0.02750000 0.02749970 52074.61152751 0 2342.66043701 0 45777.02990031 0 11229.72599811 0 35834.77004395 0 826
0.02850000 0.02848090 56139.86794494 0 966.67101594 0 46848.99408535 0 2451.26543753 0 40837.45442745 0 831
0.02950000 0.02946900 52393.37252780 0 1052.87401686 0 39666.22402971 0 3370.38183743 0 29502.91661818 0 996
0.03050000 0.03053250 54438.25650914 0 -429.29808732 0 37681.56524780 0 4550.28555117 0 20776.47377129 0 1041
0.03150000 0.03150510 53666.30920155 0 -1423.73258746 0 30728.71570490 0 4359.57241965 0 20350.79363242 0 1036
0.03250000 0.03246190 51812.19380771 0 1171.10839457 0 31467.05668574 0 1904.80216389 0 14437.74380341 0 1059
0.03350000 0.03345080 56758.75673465 0 -1543.36223774 0 28160.99269942 0 7057.42843893 0 15160.55710853 0 1302
0.03450000 0.03451200 55495.58031422 0 -2910.86245667 0 16159.54121765 0 9367.40311853 0 9915.51898051 0 1339
0.03550000 0.03553350 57216.37952073 0 -1015.59428568 0 14115.65544403 0 8077.94056133 0 14031.25143526 0 1365
0.03650000 0.03647120 54994.81277201 0 4308.58618728 0 11424.15468061 0 -4864.34388396 0 8781.31099819 0 1308
0.03750000 0.03744890 51576.06222469 0 4301.52109482 0 16385.80163540 0 -4068.79450926 0 12791.69926432 0 1579
0.03850000 0.03847530 45978.55694886 0 1097.48281098 0 16062.27142042 0 1877.54000179 0 9154.64068747 0 1662
0.03950000 0.03950240 44941.86277011 0 546.55311233 0 15672.85949556 0 1467.88664251 0 9909.15263347 0 1683
0.04050000 0.04050350 44996.43145909 0 1520.86929033 0 13765.72818032 0 1467.95318969 0 2309.56430532 0 1822
0.04150000 0.04152450 43176.25512792 0 235.35519924 0 14057.09392415 0 2183.72358474 0 6139.87589779 0 1887
0.04250000 0.04250150 43233.26388023 0 -266.36174943 0 13527.37835790 0 -911.49452936 0 -913.16042714 0 1920
0.04350000 0.04349210 43371.57110618 0 -614.51553075 0 11693.22711857 0 1299.17844573 0 6425.17475689 0 2005
0.04450000 0.04448520 44779.26582285 0 -849.35609846 0 10656.56621341 0 1750.57907032 0 201.12111074 0 2151
0.04550000 0.04548030 44748.87594321 0 44.43466233 0 11265.99421213 0 414.19964091 0 3970.70396345 0 2274
0.04650000 0.04648670 45129.30399853 0 898.62208618 0 8401.00494604 0 500.69766767 0 1610.33088491 0 2311
0.04750000 0.04749250 43982.14149818 0 886.63139316 0 11594.73728967 0 1510.84284829 0 5782.41771135 0 2568
0.04850000 0.04851840 40714.23122935 0 1785.32779036 0 12051.25095606 0 -1697.34132497 0 5086.68910918 0 2493
0.04950000 0.04949480 42304.37613582 0 1141.15107161 0 12895.62377973 0 -397.45082440 0 7765.42390492 0 2644
0.05050000 0.05050630 39108.78047110 0 360.20103945 0 15241.74467019 0 606.78718472 0 6085.70649190 0 2829
0.05150000 0.05149060 39536.56793739 0 677.07209978 0 15167.87729851 0 -1000.97497898 0 5304.39821408 0 2784
0.05250000 0.05249300 37854.25518428 0 1085.40227927 0 18794.25505270 0 -2237.58243712 0 2932.25737558 0 3055
0.05350000 0.05348950 38485.12246670 0 1202.56302911 0 16733.73248366 0 190.16522640 0 709.13896840 0 3009
0.05450000 0.05448610 35927.04880256 0 104.17539828 0 18446.87876428 0 2477.36302395 0 5436.52764332 0 3336
0.05550000 0.05550870 36019.54938511 0 -88.30755554 0 15538.98874840 0 3508.58924260 0 2360.94982078 0 3349
0.05650000 0.05647670 36816.89553372 0 685.28845848 0 14964.68657042 0 873.94084561 0 2163.61524467 0 3324
0.05750000 0.05747970 34085.57737325 0 1749.54758901 0 15655.00266848 0 -977.89308901 0 3232.88426886 0 3639
0.05850000 0.05849280 32054.44647612 0 1670.95536743 0 15312.17377081 0 -1262.27803348 0 3389.70270251 0 3846
0.05950000 0.05951020 30911.60954257 0 97.72453631 0 18234.26051879 0 345.64606169 0 2845.73494819 0 3787
0.06050000 0.06049470 31248.33828192 0 -136.79216844 0 14369.08929430 0 2126.26009335 0 -1245.10886060 0 3930
0.06150000 0.06148310 30524.19403317 0 294.73414034 0 15479.09628488 0 503.24309737 0 -1173.02717164 0 4083
0.06250000 0.06249100 30144.43144967 0 355.14567188 0 13825.17699596 0 312.96252253 0 -698.76426277 0 4303
0.06350000 0.06350600 30664.83041048 0 -567.29032327 0 13307.21809848 0 1053.72692990 0 -1759.47421028 0 4470
0.06450000 0.06451750 32064.65037731 0 -683.02918166 0 10541.09576198 0 1498.45398130 0 -3242.97725808 0 4479
0.06550000 0.06550280 31139.75546380 0 -188.21095749 0 9679.30975911 0 1465.87913586 0 -3933.70373043 0 4636
0.06650000 0.06648880 32062.32122595 0 566.19451301 0 10385.50845119 0 -2066.85564250 0 -3581.24767381 0 4653
0.06750000 0.06749660 30312.57399540 0 1171.97350793 0 10349.77261463 0 -1800.70018933 0 -7172.84343437 0 5220
0.06850000 0.06852730 30396.86709221 0 928.45075125 0 12014.87183007 0 -1087.76470422 0 -4933.56404411 0 5029
0.06950000 0.06949320 27955.47281996 0 273.62315607 0 12880.53975188 0 1450.55110168 0 -6731.32506625 0 5040
0.07050000 0.07048030 28475.87178078 0 403.77058842 0 12200.76029092 0 580.64190615 0 -3168.53314417 0 5475
0.07150000 0.07148790 27990.29917838 0 202.70715190 0 11958.63946154 0 1450.47346330 0 -5078.72562977 0 5509
0.07250000 0.07249820 27668.98720279 0 -40.14270185 0 11404.07961413 0 973.69507096 0 -646.23302667 0 5916
0.07350000 0.07351270 27616.96948910 0 412.69456549 0 10872.61163877 0 1448.95396932 0 -2283.10070940 0 5721
0.07450000 0.07449140 27412.00416950 0 310.80972120 0 10237.87352862 0 -251.21228352 0 -1679.06303240 0 6028
0.07550000 0.07549160 26215.59675470 0 1057.85950989 0 11905.17989225 0 -937.16732294 0 -1339.25094030 0 6183
0.07650000 0.07648840 25422.02161305 0 745.16317609 0 11526.08278056 0 -558.92977901 0 -678.64815887 0 6330
0.07750000 0.07749960 24057.47165251 0 646.61900032 0 12918.13890953 0 -204.07691473 0 -2593.38803522 0 6583
0.07850000 0.07848650 24017.76516744 0 427.38152848 0 11638.54751762 0 111.57633218 0 -1651.70104953 0 6549
0.07950000 0.07947320 23293.95365460 0 -35.06004994 0 12782.82630677 0 727.71450505 0 -2467.61386183 0 6828
0.08050000 0.08048110 23468.08544668 0 10.48109239 0 11151.08941174 0 1364.07303907 0 -2850.88126357 0 7147
0.08150000 0.08149960 23944.11961970 0 -246.18908042 0 10741.74660597 0 852.62689244 0 -1814.04289926 0 7386
0.08250000 0.08250610 23336.54385088 0 244.81377200 0 9324.85728704 0 562.94590142 0 -1910.94668700 0 7227
0.08350000 0.08350160 23247.59245135 0 425.01023058 0 9667.25362803 0 242.38479987 0 -1429.69965141 0 7798
0.08450000 0.08449610 22562.48921586 0 223.88468336 0 8594.36887363 0 1211.62453702 0 -1124.84701209 0 7371
0.08550000 0.08548940 22672.18115368 0 64.45371827 0 9184.18763614 0 520.60747531 0 -857.71220624 0 8256
0.08650000 0.08650700 21853.31808299 0 440.22180719 0 8085.90404074 0 207.79135659 0 -741.42100624 0 8037
0.08750000 0.08749060 21836.57037560 0 335.82591592 0 8487.47191745 0 281.02320268 0 -1027.81900295 0 8155
0.08850000 0.08849210 20734.99269470 0 102.41455985 0 7220.80176997 0 1070.00547966 0 -19.80699225 0 8718
0.08950000 0.08949900 20890.82401182 0 161.47673637 0 6740.91895162 0 1020.13613083 0 -347.47278183 0 8571
0.09050000 0.09049190 20621.97339780 0 404.45824263 0 5973.86286187 0 482.11658542 0 -207.66158958 0 8932
0.09150000 0.09150830 19667.90863631 0 345.18244966 0 5829.17819768 0 123.57922552 0 223.37337918 0 9285
0.09250000 0.09250820 19352.25317117 0 520.19377367 0 6912.91014269 0 -161.97029463 0 489.19498732 0 9204
0.09350000 0.09350330 18734.47350115 0 303.63371677 0 6342.30133330 0 -446.44951428 0 862.59344201 0 9349
0.09450000 0.09448040 18813.33191145 0 187.03861798 0 7044.72901842 0 448.31172625 0 325.84051130 0 9564
0.09550000 0.09549270 18373.01139261 0 66.58466994 0 7105.06512982 0 99.25412328 0 1480.46405985 0 10155
0.09650000 0.09649430 18751.88668036 0 -57.95826968 0 6486.80853833 0 1176.65399304 0 1764.49852249 0 9913
0.09750000 0.09749140 18764.08699700 0 -62.41770724 0 5756.00957142 0 1431.74043165 0 3743.75589149 0 10476
0.09850000 0.09850240 18744.67740234 0 -86.96274791 0 5622.99284642 0 871.36325144 0 4112.91529072 0 10575
0.09950000 0.09950330 18562.11630058 0 369.71728643 0 5448.77232475 0 464.44941781 0 3882.61767729 0 10882
0.10050000 0.10051200 17785.28886632 0 745.64342491 0 6046.01109802 0 -853.16814285 0 4584.63498812 0 10875
0.10150000 0.10150300 16868.82326249 0 615.00797990 0 6316.15938209 0 -764.81234060 0 3915.49198504 0 11118
0.10250000 0.10250800 16569.47185686 0 248.45279372 0 7320.55599533 0 -325.65750655 0 3896.43730868 0 11575
0.10350000 0.10349800 16355.52266773 0 -105.78095995 0 6948.96762397 0 -53.22288315 0 1861.01411834 0 11364
0.10450000 0.10450100 16461.44359858 0 -168.48748196 0 5967.31905567 0 418.42205959 0 1144.67807224 0 12093
0.10550000 0.10551000 16746.82009606 0 -144.11901315 0 6216.97080778 0 449.94545956 0 690.75752770 0 12067
0.10650000 0.10649700 17081.55241996 0 -247.32703723 0 4846.03231780 0 297.80307454 0 374.66174203 0 12054
0.10750000 0.10749900 17057.15178667 0 -63.42833711 0 5311.86258962 0 403.28146664 0 -321.52936305 0 12807
0.10850000 0.10850100 16951.00903188 0 407.52163123 0 3986.99693177 0 -71.72444151 0 166.53875866 0 12736
0.10950000 0.10950300 16547.84402281 0 338.16837671 0 4251.10051350 0 564.44764949 0 666.22934564 0 12933
0.11050000 0.11050200 16119.83473258 0 188.37399809 0 4224.65909997 0 404.75659583 0 660.45748675 0 13428
0.11150000 0.11150900 15745.50683557 0 413.30901780 0 4492.42277670 0 65.52346421 0 1108.70821142 0 13453
0.11250000 0.11250000 15202.81456890 0 197.55307268 0 4557.81647390 0 -287.01688551 0 916.90259699 0 13668
0.11350000 0.11349100 15091.45895154 0 109.29010375 0 4592.15481965 0 -49.62223697 0 2115.67909146 0 13791
0.11450000 0.11448600 15032.12104787 0 -36.94666254 0 3773.92394719 0 774.77778106 0 172.21966973 0 14205
0.11550000 0.11549300 15054.52526570 0 106.92812245 0 4465.83717761 0 215.20803998 0 1805.51376881 0 14776
0.11650000 0.11649800 14733.10237814 0 336.46365974 0 4158.71084292 0 210.04508781 0 1261.64583525 0 14553
0.11750000 0.11747300 14352.78523479 0 342.65587500 0 4036.25293741 0 -248.90975103 0 2066.22344427 0 14568
0.11850000 0.11849100 13809.20567235 0 293.22906492 0 4303.98334055 0 -84.95779224 0 1875.82086626 0 16015
0.11950000 0.11950300 13393.06396286 0 412.01023863 0 5245.93651496 0 -469.34063566 0 1283.19603092 0 15270
0.12050000 0.12050700 13326.29495723 0 236.47319189 0 5275.42800765 0 -422.37385306 0 1528.59985460 0 15999
0.12150000 0.12150000 13100.47818736 0 78.93859966 0 5825.76210902 0 113.95650304 0 1239.31925580 0 15670
0.12250000 0.12250700 13134.08451412 0 -97.59199651 0 5136.12257398 0 513.50689103 0 1703.44148329 0 16887
0.12350000 0.12352200 13277.27186672 0 -96.41998973 0 5209.73484813 0 570.92269027 0 1903.47122025 0 16407
0.12450000 0.12449800 13457.39290516 0 -20.77347915 0 5086.31200849 0 136.23760859 0 1808.31984164 0 16306
0.12550000 0.12549900 13409.92258222 0 92.14289145 0 4252.26508918 0 217.46066209 0 1574.40649800 0 17523
0.12650000 0.12650100 13168.35631269 0 389.49399971 0 5663.94154555 0 -392.15366874 0 2079.08923273 0 17154
0.12750000 0.12750600 12808.55788369 0 294.91603597 0 5186.60970249 0 -536.98473673 0 1474.68554624 0 18007
0.12850000 0.12850300 12441.10652879 0 240.37174762 0 5973.76304110 0 5.68291858 0 1296.09509298 0 17496
0.12950000 0.12949900 12209.18960060 0 15.26492527 0 5089.85010031 0 515.81164175 0 696.21328747 0 18405
0.13050000 0.13049000 12291.81901787 0 -73.95798675 0 5590.40690978 0 216.25172162 0 612.41153069 0 18100
0.13150000 0.13148800 12346.60953079 0 155.68824068 0 5244.99376322 0 69.29624576 0 1237.33393154 0 19059
0.13250000 0.13249300 12112.80709912 0 -7.11260714 0 4521.16006799 0 286.81835308 0 394.84439312 0 18957
0.13350000 0.13349100 12186.67447080 0 -141.93404735 0 4345.85260903 0 564.48868692 0 587.54839449 0 19468
0.13450000 0.13450700 12385.65054405 0 -202.95226736 0 3605.51521273 0 728.85024361 0 592.18562394 0 19953
0.13550000 0.13551000 12418.03683914 0 31.46472753 0 3182.90733541 0 348.78597955 0 404.03566803 0 19956
0.13650000 0.13649900 12353.81880881 0 244.69842355 0 3087.07939378 0 -452.46648862 0 572.23034239 0 19723
0.13750000 0.13749600 11955.31210246 0 260.91264437 0 3010.28394611 0 -175.64574047 0 -343.01633890 0 20946
0.13850000 0.13851100 11763.32348328 0 238.18900006 0 3421.29043142 0 -277.33427057 0 256.89097636 0 20955
0.13950000 0.13949800 11718.40413564 0 65.84777081 0 3362.24089887 0 79.25259144 0 -376.30878478 0 20506
0.14050000 0.14048300 11573.44219153 0 -153.79164600 0 3424.72870248 0 657.19556573 0 126.05810803 0 21447
0.14150000 0.14148400 11653.85336941 0 11.42626201 0 3012.49109430 0 -38.86976518 0 -506.52720079 0 21771
0.14250000 0.14249400 11547.04514279 0 307.07642431 0 3171.69413530 0 -36.04683373 0 285.18129241 0 22470
0.14350000 0.14350900 11181.36837941 0 256.00146236 0 3602.62041033 0 -48.02621373 0 382.37788775 0 22519
0.14450000 0.14449900 11149.98029205 0 17.37347272 0 3606.84615637 0 232.26408265 0 1455.16503961 0 22218
0.14550000 0.14550500 11038.01465886 0 -2.05705102 0 3466.27632624 0 400.77485613 0 320.31487698 0 23559
0.14650000 0.14650700 11131.56890511 0 149.50933486 0 3452.54542442 0 -208.81951054 0 883.02231767 0 23044
0.14750000 0.14750500 10703.02723743 0 326.90415709 0 3523.88400319 0 -267.79473208 0 846.12523279 0 23649
0.14850000 0.14849900 10392.00789261 0 168.23349355 0 3478.99792914 0 105.61969395 0 704.32317068 0 23640
0.14950000 0.14949500 10356.16114407 0 85.79606490 0 3522.23141485 0 175.38066086 0 119.11280051 0 24457
0.15050000 0.15050000 10032.04309565 0 210.62404829 0 3327.85818833 0 203.31605862 0 372.23831550 0 24591
0.15150000 0.15149900 9674.25217330 0 181.74478967 0 2909.02131797 0 86.11571320 0 427.62997130 0 25020
0.15250000 0.15250500 9538.80647617 0 37.85614069 0 2974.33737680 0 368.81779036 0 391.06894968 0 25297
0.15350000 0.15350100 9694.06105105 0 -111.34785352 0 2145.74732639 0 345.91557778 0 13.47402970 0 25452
0.15450000 0.15450400 9529.20149961 0 -13.33882801 0 2048.21134043 0 173.07147366 0 106.34849650 0 26061
0.15550000 0.15549900 9599.55296185 0 -2.44573093 0 1815.69548761 0 -22.71787689 0 -114.59091951 0 26128
0.15650000 0.15649500 9495.02952181 0 118.76342780 0 1747.82845348 0 39.26416814 0 -236.27687771 0 26331
0.15750000 0.15749700 9456.46543002 0 94.61112642 0 1715.32015522 0 25.72325852 0 -339.61577791 0 27345
0.15850000 0.15849900 9317.23763473 0 106.09251167 0 1953.73652482 0 -82.07840660 0 -429.66409682 0 26980
0.15950000 0.15949700 9214.73279254 0 325.58763201 0 2185.30962591 0 -516.41943935 0 -81.57497717 0 27777
0.16050000 0.16050000 8781.27772460 0 299.43348049 0 2629.46769889 0 -442.34466229 0 -345.41647392 0 28224
0.16150000 0.16150500 8642.73758352 0 95.25286307 0 3055.33638811 0 13.93952724 0 48.04296144 0 28075
0.16250000 0.16249700 8545.52324227 0 23.22995745 0 3097.36093335 0 219.49589673 0 -51.13252526 0 28590
0.16350000 0.16349900 8709.69513950 0 -57.92044870 0 3064.43116961 0 458.23723839 0 578.69429197 0 29163
0.16450000 0.16449100 8636.69288119 0 -82.11911129 0 2624.09955957 0 527.73356935 0 938.26646055 0 28996
0.16550000 0.16550500 8856.81986702 0 -50.28515781 0 2474.04675606 0 274.02798476 0 1249.71170734 0 30777
0.16650000 0.16650700 8797.57069292 0 60.31525995 0 2379.11720138 0 151.01773765 0 1012.38782064 0 29211
0.16750000 0.16749900 8924.90872508 0 18.82165031 0 2179.15401160 0 164.49243282 0 1483.27013267 0 30922
0.16850000 0.16850800 8557.53500857 0 82.69230435 0 2174.21842896 0 -135.93370980 0 939.03618962 0 30867
0.16950000 0.16949900 8753.48318505 0 42.21564656 0 2128.76670386 0 9.50810604 0 1335.35793017 0 30852
0.17050000 0.17049200 8536.51719035 0 46.27302823 0 1904.85761987 0 125.11979277 0 780.83801107 0 31257
0.17150000 0.17149500 8636.61524281 0 43.77939442 0 1825.16736980 0 172.96499817 0 718.32247947 0 32608
0.17250000 0.17250900 8454.34251216 0 140.19383855 0 1824.83463389 0 -73.53751948 0 494.14942499 0 32361
0.17350000 0.17350400 8293.37597085 0 172.75537455 0 1741.81702473 0 -170.77781413 0 535.17021691 0 32508
0.17450000 0.17449800 8070.53164177 0 152.58603290 0 2186.47420158 0 -202.41878078 0 152.93318736 0 32791
0.17550000 0.17549800 8011.52647400 0 84.45025907 0 2140.02426877 0 -147.35875177 0 143.97926406 0 33633
0.17650000 0.17650100 7852.75598969 0 110.43038971 0 2299.24949215 0 -79.17029476 0 190.47467079 0 33984
0.17750000 0.17750300 7952.19966153 0 25.54058651 0 2379.88249397 0 -3.42684712 0 466.21846372 0 34069
0.17850000 0.17849800 7895.13545323 0 -52.52325044 0 2125.18424725 0 424.58765597 0 434.29799890 0 34536
