### header ###
fiducial parameters:
Omega_m = 0.31
Omega_nu = 0
Omega_de = 0.69
Omega_k = 0
H_0 = 100
w_de = -1
zeff = 0
beta = 0
fgrowth = 0
b_1 = 2
gamma = 0.55
Lx = 3500 Ly = 3500 Lz = 3500
nx = 700 ny = 700 nz = 700
xoffset = 1379.75464 yoffset = 22.6059522 zoffset = 368.141391
bins = 400 dk = 0.001
kx_ny = 0.628318531 ky_ny = 0.628318531 kz_ny = 0.628318531
############################
A(data) = 3.34671722 (not used)
A(ran) = 3.35113718 (used)
Ngal = 188232
weighted Ngal = 0
Nran = 9399747
weighted Nran = 0
SN(data) = 6617.68126
SN(ran) = 133.292765
SN(data+ran) = 6750.97402
############################
13 columns: k_central k_mean P_0(k) sigma^{lin}_{P_0(k)} P^img_1(k) sigma^{lin}_{P_1(k)} P_2(k) sigma^{lin}_{P_2(k)} P^img_3(k) sigma^{lin}_{P_3(k)} P_4(k) sigma^{lin}_{P_4(k)} N_modes
### header ###
0.00050000 0 0 0 0 0 0 0 0 0 0 0 0
0.00150000 0.00179520 14956.36817271 0 -8361.19864019 0 2793.93905844 0 -14387.38976926 0 104888.45133162 0 3
0.00250000 0.00253879 31414.48441221 0 -14553.53589955 0 -14278.47421523 0 10466.18581780 0 -28620.94463686 0 6
0.00350000 0.00331552 47179.95540229 0 -17592.30203942 0 4448.61254875 0 -25770.06337329 0 5317.08654339 0 7
0.00450000 0.00420575 67714.75199207 0 -8686.61435865 0 14700.93790699 0 -27749.28746870 0 -1495.27080777 0 24
0.00550000 0.00557378 72713.33263270 0 6359.12667907 0 57749.64427001 0 -24244.02558518 0 24393.42400807 0 45
0.00650000 0.00659388 69966.37588453 0 15317.60845731 0 55629.22923744 0 14720.79114953 0 -46807.95665664 0 40
0.00750000 0.00754703 59456.80130428 0 7146.51293281 0 89187.42019580 0 21272.13936290 0 40389.70280665 0 57
0.00850000 0.00846663 60501.92479271 0 -1005.51127853 0 69822.63397208 0 50447.20019930 0 13651.71067569 0 75
0.00950000 0.00948925 72263.91733236 0 -6034.99753945 0 85242.50326526 0 23017.00646680 0 45714.25372558 0 112
0.01050000 0.01054430 72810.04787009 0 20.34990634 0 40931.50777757 0 19878.64137833 0 -10503.01968286 0 105
0.01150000 0.01145670 77775.13309593 0 7433.30910350 0 74433.79910331 0 -6385.65682217 0 43439.33831953 0 144
0.01250000 0.01249090 64668.44383828 0 5898.04343953 0 54756.13021368 0 1720.39992343 0 9622.12354764 0 169
0.01350000 0.01339930 70188.42164744 0 -1700.40249533 0 76107.79345870 0 35217.87766969 0 33611.31779174 0 180
0.01450000 0.01448870 69627.42890580 0 -2356.67970995 0 51571.73665788 0 16512.01945667 0 14328.82824938 0 267
0.01550000 0.01550050 73417.40181497 0 3476.81296334 0 33179.53749455 0 661.65311778 0 115.09224161 0 238
0.01650000 0.01653350 74445.33394813 0 -4563.83899385 0 34734.85604260 0 16605.85098285 0 18532.50280472 0 315
0.01750000 0.01747870 70325.06519384 0 -4124.53886512 0 31461.95473515 0 1860.78120320 0 8113.76512747 0 297
0.01850000 0.01844180 82402.93502258 0 2813.53720345 0 20710.37023748 0 2617.03446711 0 10718.75455470 0 388
0.01950000 0.01947590 72602.97522307 0 2198.29741753 0 23828.32752356 0 2801.15942765 0 -1842.70255217 0 399
0.02050000 0.02045430 73307.59896519 0 4055.41852574 0 27443.83590474 0 380.30827040 0 15259.37967333 0 462
0.02150000 0.02154770 65692.16131660 0 3337.99554234 0 31009.87754754 0 -852.76885976 0 8633.79807878 0 571
0.02250000 0.02255340 64058.09527022 0 3234.20412130 0 28672.29687873 0 4339.84118028 0 13647.16328494 0 510
0.02350000 0.02348930 61405.85734399 0 -901.21853539 0 25712.83279703 0 1651.33504003 0 6195.87535119 0 555
0.02450000 0.02439640 64204.72089387 0 1815.65112282 0 32913.79241567 0 -1497.38922639 0 3020.95367758 0 592
0.02550000 0.02547300 59006.27688424 0 4287.06926520 0 37556.56745819 0 -4661.66335093 0 7780.47465918 0 837
0.02650000 0.02652900 59463.34511048 0 -1581.74887038 0 38705.39363809 0 -1.26625977 0 -7232.42534438 0 723
0.02750000 0.02749970 59268.47278009 0 -722.74343057 0 33101.12273212 0 3637.93478141 0 -3718.83397195 0 826
0.02850000 0.02848090 62598.82648774 0 50.06932312 0 40865.84789163 0 476.39130956 0 -9063.99233481 0 831
0.02950000 0.02946900 64389.61114700 0 714.68900335 0 42775.19744627 0 321.08793341 0 1383.00571226 0 996
0.03050000 0.03053250 62635.53834964 0 -828.21073148 0 35104.63654885 0 8845.89503802 0 -4396.89429738 0 1041
0.03150000 0.03150510 63210.50599943 0 -1280.09049578 0 34298.63926662 0 5529.68260649 0 -5938.20466368 0 1036
0.03250000 0.03246190 65579.69657954 0 671.24922138 0 31946.75095375 0 855.09024728 0 972.74566451 0 1059
0.03350000 0.03345080 63699.84960879 0 2499.74505939 0 32443.63657703 0 3127.79517778 0 -1437.16402696 0 1302
0.03450000 0.03451200 58504.62204627 0 3179.52452034 0 30904.84391244 0 1322.88033361 0 -1481.17389645 0 1339
0.03550000 0.03553350 56498.55725425 0 2489.68534376 0 28292.31247128 0 224.43037025 0 -3574.83696197 0 1365
0.03650000 0.03647120 52237.65212265 0 2327.70950352 0 29291.07475647 0 4494.03100025 0 2412.70134574 0 1308
0.03750000 0.03744890 48751.02345000 0 1639.76692161 0 28599.87136266 0 1783.35355730 0 -4089.90105705 0 1579
0.03850000 0.03847530 46652.23625149 0 1218.23489040 0 21590.78945123 0 1796.62972005 0 -1802.64114880 0 1662
0.03950000 0.03950240 46597.44573857 0 -72.06139208 0 20224.46489918 0 1788.91024698 0 -4093.78297598 0 1683
0.04050000 0.04050350 43859.25103599 0 641.81651204 0 16972.85868987 0 6342.46770125 0 -2843.25052007 0 1822
0.04150000 0.04152450 42575.00134136 0 1334.02698654 0 15285.77672207 0 969.34843088 0 -2514.87345202 0 1887
0.04250000 0.04250150 42088.87417912 0 1596.42252394 0 14904.79410690 0 356.34019379 0 -4914.49827656 0 1920
0.04350000 0.04349210 39337.37004020 0 411.90043578 0 13598.02928246 0 1421.73617200 0 -1657.92321102 0 2005
0.04450000 0.04448520 38219.04465191 0 837.50515452 0 13317.42199967 0 2024.44290537 0 -3116.91471357 0 2151
0.04550000 0.04548030 38908.14071830 0 -1021.58685939 0 8843.44388350 0 -242.80404711 0 -139.06808205 0 2274
0.04650000 0.04648670 39405.80272537 0 -97.18350772 0 10705.14565605 0 4521.23770637 0 244.90028333 0 2311
0.04750000 0.04749250 38926.44119327 0 -213.86378691 0 6896.39535044 0 1884.96001255 0 -316.22222531 0 2568
0.04850000 0.04851840 38923.00292221 0 339.47824707 0 6095.14510050 0 2143.00780074 0 3130.64561539 0 2493
0.04950000 0.04949480 38901.92964801 0 1102.47163137 0 6329.46881843 0 193.80757547 0 1835.99237802 0 2644
0.05050000 0.05050630 36583.75857386 0 1012.98341791 0 7508.08595333 0 -367.81403703 0 5833.47049090 0 2829
0.05150000 0.05149060 36112.71543947 0 298.74249892 0 5810.03479175 0 2148.74194957 0 4465.68190085 0 2784
0.05250000 0.05249300 36291.72735822 0 -537.59475256 0 7770.18202841 0 1254.63619878 0 7800.17262496 0 3055
0.05350000 0.05348950 36504.45651569 0 -49.35505004 0 3808.56175526 0 896.59239714 0 6659.44301883 0 3009
0.05450000 0.05448610 36686.35214564 0 242.90275876 0 6361.83293112 0 879.59291958 0 7770.69222347 0 3336
0.05550000 0.05550870 35321.24762525 0 391.58136298 0 5190.64689818 0 -1451.69349496 0 6270.54128904 0 3349
0.05650000 0.05647670 35962.87336870 0 817.04965999 0 7898.01916444 0 -671.52761043 0 7945.75567610 0 3324
0.05750000 0.05747970 34547.30390220 0 1552.06882734 0 9990.75056941 0 -1986.11172872 0 8038.23407625 0 3639
0.05850000 0.05849280 33119.97776693 0 147.40644392 0 11053.81961451 0 1665.76468726 0 6588.22644323 0 3846
0.05950000 0.05951020 33480.88531563 0 252.58093722 0 10339.81271977 0 521.82085226 0 8243.46558458 0 3787
0.06050000 0.06049470 32388.51332820 0 1160.72703422 0 14679.53189688 0 -259.54509979 0 7946.26587116 0 3930
0.06150000 0.06148310 32236.34210607 0 72.81648076 0 11524.53001299 0 1539.42486282 0 9910.76085702 0 4083
0.06250000 0.06249100 31621.33523529 0 4.46961928 0 11161.40422490 0 2053.21347025 0 12935.10844086 0 4303
0.06350000 0.06350600 31864.89792027 0 -2.90375300 0 10458.92108380 0 2502.02984596 0 11189.79768909 0 4470
0.06450000 0.06451750 31664.36907945 0 302.73532982 0 9672.48867298 0 -316.39968446 0 9824.11642646 0 4479
0.06550000 0.06550280 30658.06478034 0 916.33472771 0 11517.32073497 0 -1412.77448487 0 10798.60008153 0 4636
0.06650000 0.06648880 29968.52506607 0 371.73699340 0 10226.08358626 0 260.31039237 0 8397.30048626 0 4653
0.06750000 0.06749660 29631.01994293 0 275.40107494 0 11925.69860661 0 -153.99128755 0 7675.19701775 0 5220
0.06850000 0.06852730 29324.34834731 0 146.02891726 0 8700.78890835 0 544.48016762 0 5467.77154513 0 5029
0.06950000 0.06949320 29379.47159615 0 120.69218695 0 11449.77534556 0 1264.30772252 0 5420.73377887 0 5040
0.07050000 0.07048030 28308.06197095 0 312.61425894 0 8103.22849037 0 125.20297675 0 5783.61556062 0 5475
0.07150000 0.07148790 29138.12715055 0 -143.85947914 0 8722.29473923 0 1354.46806251 0 3969.63920854 0 5509
0.07250000 0.07249820 28659.20926633 0 -219.58906278 0 7704.02303861 0 144.97081707 0 3240.20445885 0 5916
0.07350000 0.07351270 28607.08064067 0 852.67125722 0 7477.94008002 0 -692.49551826 0 1911.91162113 0 5721
0.07450000 0.07449140 27855.20839955 0 357.59460817 0 7931.50348802 0 119.22925807 0 2381.15798162 0 6028
0.07550000 0.07549160 26952.38496797 0 290.54610438 0 7396.58615041 0 -230.43736251 0 958.86835888 0 6183
0.07650000 0.07648840 26822.39613973 0 845.07600555 0 7610.96789622 0 220.45195790 0 747.97923099 0 6330
0.07750000 0.07749960 25717.93474763 0 868.91542428 0 8875.38653071 0 -792.91632455 0 1345.11818349 0 6583
0.07850000 0.07848650 24729.04362773 0 739.17282061 0 8513.48077429 0 380.75524563 0 277.32539761 0 6549
0.07950000 0.07947320 23570.34628255 0 277.94095904 0 8004.09537205 0 642.25683256 0 1270.37460725 0 6828
0.08050000 0.08048110 23625.02588350 0 416.59644857 0 8555.32786037 0 -208.21614943 0 385.27601751 0 7147
0.08150000 0.08149960 22799.39718267 0 241.33668176 0 8672.47308254 0 374.48428288 0 602.38287041 0 7386
0.08250000 0.08250610 22765.23629607 0 461.91175194 0 8540.21055893 0 -107.57706838 0 18.63077081 0 7227
0.08350000 0.08350160 22158.21508710 0 -94.88574445 0 7493.44557336 0 347.64025891 0 677.32497907 0 7798
0.08450000 0.08449610 22018.35509358 0 -207.51851314 0 6801.34379259 0 1422.93402128 0 996.08930672 0 7371
0.08550000 0.08548940 22900.32707490 0 175.00910577 0 7554.61352452 0 939.18702990 0 699.77023434 0 8256
0.08650000 0.08650700 22072.92378257 0 205.94245405 0 6561.69630013 0 623.73120630 0 2168.88356322 0 8037
0.08750000 0.08749060 21936.39114813 0 230.97750381 0 7365.00951269 0 -199.79016711 0 1826.87541413 0 8155
0.08850000 0.08849210 21199.60293486 0 629.09047266 0 7193.66161104 0 -306.24680278 0 2854.15316667 0 8718
0.08950000 0.08949900 21802.07675309 0 159.10322022 0 7711.53177895 0 -461.25958956 0 1671.88702798 0 8571
0.09050000 0.09049190 20760.72427162 0 -69.88740656 0 7983.26610418 0 703.77415643 0 2530.17930381 0 8932
0.09150000 0.09150830 20920.99206752 0 -0.72870606 0 6945.79554164 0 277.05255417 0 1779.30527042 0 9285
0.09250000 0.09250820 21341.45934383 0 256.63587883 0 7225.11624559 0 228.93672357 0 1438.98298326 0 9204
0.09350000 0.09350330 20545.33322689 0 353.16034763 0 6627.98838429 0 -310.53022304 0 688.15775113 0 9349
0.09450000 0.09448040 20236.33247991 0 493.86549035 0 8234.08243197 0 -321.89980903 0 806.75592010 0 9564
0.09550000 0.09549270 19428.00604632 0 557.60770833 0 7109.65688536 0 -559.86587603 0 -934.96461122 0 10155
0.09650000 0.09649430 18942.87709181 0 633.84859615 0 8365.53529820 0 -370.65005609 0 -415.54611222 0 9913
0.09750000 0.09749140 17731.16382522 0 362.32278543 0 7990.70829733 0 -86.21619945 0 -157.49056019 0 10476
0.09850000 0.09850240 17762.55191258 0 328.16411706 0 8528.18770144 0 722.32640157 0 -510.42353828 0 10575
0.09950000 0.09950330 17218.30687833 0 -40.21889837 0 7280.10640006 0 958.37480062 0 -279.16209983 0 10882
0.10050000 0.10051200 17266.88632096 0 127.80829891 0 6930.19022754 0 1236.60191255 0 383.52249927 0 10875
0.10150000 0.10150300 17258.45701128 0 127.72733318 0 6328.04914522 0 139.90879478 0 896.57354210 0 11118
0.10250000 0.10250800 16769.33522587 0 219.31843757 0 6559.62224630 0 -89.88805111 0 815.98601420 0 11575
0.10350000 0.10349800 16669.29262939 0 -42.32533850 0 5824.93026925 0 570.83839717 0 1072.42890620 0 11364
0.10450000 0.10450100 16552.94597341 0 -92.30304833 0 5223.48793234 0 435.91731366 0 514.49955315 0 12093
0.10550000 0.10551000 16896.10760698 0 75.17291647 0 5151.53933774 0 -7.35333048 0 -141.69225925 0 12067
0.10650000 0.10649700 16645.89020383 0 118.96639671 0 5356.36047178 0 -123.37071101 0 100.06799531 0 12054
0.10750000 0.10749900 16071.92076176 0 408.64960596 0 5455.73759644 0 -715.47315098 0 -706.26856663 0 12807
0.10850000 0.10850100 16148.33910873 0 382.46439908 0 5986.10754330 0 -692.81383561 0 -605.53055211 0 12736
0.10950000 0.10950300 15577.03155393 0 239.80609658 0 6375.87438646 0 1.33044453 0 -1791.54995185 0 12933
0.11050000 0.11050200 15039.44123785 0 409.16867398 0 6594.06041282 0 24.19577888 0 -943.06673059 0 13428
0.11150000 0.11150900 15304.52084491 0 -74.64752647 0 6668.54889153 0 601.40906332 0 -468.39677480 0 13453
0.11250000 0.11250000 15095.56269441 0 -139.77126394 0 5709.12708192 0 1353.00402452 0 -701.28640096 0 13668
0.11350000 0.11349100 15117.19052846 0 166.91585935 0 5839.31555169 0 530.77810291 0 842.93540454 0 13791
0.11450000 0.11448600 14742.30807161 0 270.79490085 0 4678.63288226 0 -42.15908146 0 583.38919564 0 14205
0.11550000 0.11549300 14528.13705854 0 65.39524997 0 5079.60183433 0 1352.52710305 0 2047.36840946 0 14776
0.11650000 0.11649800 14585.81128267 0 -272.64047602 0 3356.26274371 0 669.56335945 0 1525.98233212 0 14553
0.11750000 0.11747300 14507.50743221 0 36.48382689 0 3264.01725870 0 1059.70175770 0 2093.74070390 0 14568
0.11850000 0.11849100 14528.46979445 0 134.61940296 0 2668.91908644 0 374.33787908 0 2389.92002721 0 16015
0.11950000 0.11950300 13974.24268294 0 347.17997423 0 2578.53692251 0 -462.66262598 0 2130.31947144 0 15270
0.12050000 0.12050700 13665.46375991 0 319.04604405 0 2730.15358479 0 -323.21855235 0 2049.88611117 0 15999
0.12150000 0.12150000 13270.28441264 0 92.21221143 0 3314.63748157 0 125.55567681 0 1544.52681342 0 15670
0.12250000 0.12250700 13665.46375991 0 -28.86739103 0 2760.41037006 0 39.36731627 0 1145.79828313 0 16887
0.12350000 0.12352200 13122.66058126 0 122.09633248 0 3674.19190423 0 -385.74961162 0 848.73942791 0 16407
0.12450000 0.12449800 13388.62748408 0 106.45907573 0 3259.21477042 0 -464.86977417 0 781.87614710 0 16306
0.12550000 0.12549900 13350.58467855 0 33.74374668 0 3710.02756157 0 -237.61558518 0 356.03407676 0 17523
0.12650000 0.12650100 13428.33396915 0 -13.12465700 0 3679.99260024 0 308.22214495 0 -21.31716962 0 17154
0.12750000 0.12750600 13516.28716095 0 40.78809860 0 3650.44565157 0 37.35736956 0 -360.05574477 0 18007
0.12850000 0.12850300 13243.44371603 0 217.73905113 0 3631.05823930 0 -261.85206875 0 -851.37358718 0 17496
0.12950000 0.12949900 12906.71497668 0 382.69620510 0 3959.49076333 0 -681.06160332 0 -643.24949469 0 18405
0.13050000 0.13049000 12665.25961911 0 225.44965125 0 4145.90051044 0 -2.68099740 0 -1108.75701268 0 18100
0.13150000 0.13148800 12345.27858716 0 28.71876899 0 4119.94710958 0 223.16819203 0 -1207.68716210 0 19059
0.13250000 0.13249300 12375.77937877 0 100.25820934 0 3907.98324471 0 -11.80580277 0 -1482.21646896 0 18957
0.13350000 0.13349100 12075.87341329 0 272.39203321 0 4029.67585762 0 16.53120723 0 -1727.45392469 0 19468
0.13450000 0.13450700 11777.29839144 0 235.07681020 0 4039.81321163 0 -290.57161413 0 -1878.67130388 0 19953
0.13550000 0.13551000 11566.67656139 0 183.92088251 0 4170.48969408 0 -112.47693737 0 -1621.35553468 0 19956
0.13650000 0.13649900 11322.67022853 0 -172.65333553 0 3786.46809094 0 636.64912338 0 -1656.86954731 0 19723
0.13750000 0.13749600 12005.22248873 0 -388.95829490 0 3308.16022255 0 1232.44271369 0 -1169.10088792 0 20946
0.13850000 0.13851100 11934.79338810 0 -209.40179838 0 2355.60386385 0 638.96718355 0 -1050.52601046 0 20955
0.13950000 0.13949800 12333.85465430 0 158.85366829 0 1853.27246287 0 256.25323253 0 -890.47449290 0 20506
0.14050000 0.14048300 11822.66138696 0 355.59042888 0 2311.41653521 0 -637.73938804 0 -816.03370635 0 21447
0.14150000 0.14148400 11346.95994985 0 403.22379241 0 2056.30791420 0 -119.29469614 0 -591.03103034 0 21771
0.14250000 0.14249400 11011.05195907 0 271.45482707 0 2920.55616280 0 -29.24138619 0 -228.70269931 0 22470
0.14350000 0.14350900 10741.62460281 0 89.05488039 0 2201.99078612 0 314.50530802 0 -460.51537025 0 22519
0.14450000 0.14449900 10599.03617484 0 112.69654307 0 2525.72064264 0 196.10678060 0 -349.04329532 0 22218
0.14550000 0.14550500 10274.59648171 0 317.75835609 0 2648.10090977 0 -303.19672361 0 -180.34508062 0 23559
0.14650000 0.14650700 10005.73477649 0 297.47588423 0 2637.42008711 0 -404.65566594 0 -202.97223151 0 23044
0.14750000 0.14750500 9802.10040052 0 52.51970126 0 3279.10128655 0 -32.68897385 0 -51.82361774 0 23649
0.14850000 0.14849900 9573.83247613 0 137.63288117 0 3150.05521005 0 65.15601286 0 -304.13282064 0 23640
0.14950000 0.14949500 9704.73078251 0 40.42896564 0 3376.18253343 0 167.07113611 0 -95.12187603 0 24457
0.15050000 0.15050000 9762.23863869 0 -217.62037532 0 2918.50429136 0 513.85071813 0 158.75828400 0 24591
0.15150000 0.15149900 10040.37258456 0 -179.13614015 0 2782.75913192 0 663.60516845 0 984.26387254 0 25020
0.15250000 0.15250500 10154.11280926 0 -49.98503002 0 2431.50092456 0 329.25770908 0 1097.02474455 0 25297
0.15350000 0.15350100 10166.24657873 0 39.37907294 0 2586.48931072 0 43.37800400 0 1454.25556146 0 25452
0.15450000 0.15450400 10181.56352171 0 235.29863414 0 2392.04953702 0 -149.51155310 0 1178.47294934 0 26061
0.15550000 0.15549900 9877.54272216 0 209.65467767 0 3014.19913863 0 -308.51827991 0 1199.34658200 0 26128
0.15650000 0.15649500 9677.90117710 0 255.58443336 0 3086.84647864 0 -538.83142102 0 1091.53571118 0 26331
0.15750000 0.15749700 9462.31049082 0 70.65913205 0 3274.42080143 0 -57.28104120 0 748.04688729 0 27345
0.15850000 0.15849900 9272.99485011 0 57.81497142 0 3060.33851794 0 429.12839200 0 687.63424664 0 26980
0.15950000 0.15949700 9273.03921489 0 68.86479820 0 2808.80126235 0 286.31259450 0 688.86426038 0 27777
0.16050000 0.16050000 9114.12454502 0 84.68993983 0 2498.84667243 0 50.83228656 0 469.43158347 0 28224
0.16150000 0.16150500 9002.07018225 0 161.28485866 0 2582.59630059 0 39.67886799 0 282.59593440 0 28075
0.16250000 0.16249700 8780.21296970 0 143.65429199 0 2336.06117483 0 -202.41545342 0 -146.83857464 0 28590
0.16350000 0.16349900 8554.90639489 0 132.31908871 0 2621.72604342 0 -173.90220431 0 212.72915747 0 29163
0.16450000 0.16449100 8537.23811815 0 -13.69629729 0 2560.31408592 0 186.07146560 0 -171.40779412 0 28996
0.16550000 0.16550500 8572.41939487 0 -36.63877091 0 2178.97655245 0 421.17711291 0 -320.54335564 0 30777
0.16650000 0.16650700 8674.69132193 0 -29.31713907 0 1917.16884849 0 368.38967016 0 -237.28728575 0 29211
0.16750000 0.16749900 8506.74841774 0 75.31111278 0 1877.11853630 0 136.11005983 0 336.43371351 0 30922
0.16850000 0.16850800 8483.51236014 0 93.24624372 0 1441.38977300 0 207.99321637 0 505.32935152 0 30867
0.16950000 0.16949900 8368.85156608 0 28.56471227 0 1766.07347246 0 155.31890382 0 672.38717819 0 30852
0.17050000 0.17049200 8315.70255031 0 34.35930811 0 1269.21003157 0 134.15135445 0 394.73680851 0 31257
0.17150000 0.17149500 8441.64309166 0 -4.73550854 0 1585.51987734 0 -28.96332989 0 766.41280032 0 32608
0.17250000 0.17250900 8193.66611029 0 41.33600373 0 1323.72326457 0 -127.40901582 0 104.13890824 0 32361
0.17350000 0.17350400 8340.36937232 0 204.63369281 0 1620.03568224 0 -413.79592134 0 -12.81621081 0 32508
0.17450000 0.17449800 8092.53657651 0 134.78909827 0 1776.84302470 0 -395.24478533 0 -421.85811240 0 32791
0.17550000 0.17549800 8075.45613321 0 56.84005521 0 2133.73556010 0 -140.75172575 0 -582.68490463 0 33633
0.17650000 0.17650100 7988.05750126 0 29.89110851 0 2054.66641705 0 9.03949188 0 -834.02251868 0 33984
0.17750000 0.17750300 7954.44008331 0 91.15810407 0 2244.69189437 0 -40.30130597 0 -866.89793555 0 34069
0.17850000 0.17849800 7935.09703583 0 78.43317381 0 2061.57623275 0 5.23111868 0 -599.84298631 0 34536
