### header ###
fiducial parameters:
Omega_m = 0.31
Omega_nu = 0
Omega_de = 0.69
Omega_k = 0
H_0 = 100
w_de = -1
zeff = 0
beta = 0
fgrowth = 0
b_1 = 2
gamma = 0.55
Lx = 3500 Ly = 3500 Lz = 3500
nx = 700 ny = 700 nz = 700
xoffset = 1379.75464 yoffset = 22.6059522 zoffset = 368.141391
bins = 400 dk = 0.001
kx_ny = 0.628318531 ky_ny = 0.628318531 kz_ny = 0.628318531
############################
A(data) = 3.29325706 (not used)
A(ran) = 3.28098405 (used)
Ngal = 184142
weighted Ngal = 0
Nran = 9399747
weighted Nran = 0
SN(data) = 6727.80287
SN(ran) = 130.502397
SN(data+ran) = 6858.30527
############################
13 columns: k_central k_mean P_0(k) sigma^{lin}_{P_0(k)} P^img_1(k) sigma^{lin}_{P_1(k)} P_2(k) sigma^{lin}_{P_2(k)} P^img_3(k) sigma^{lin}_{P_3(k)} P_4(k) sigma^{lin}_{P_4(k)} N_modes
### header ###
0.00050000 0 0 0 0 0 0 0 0 0 0 0 0
0.00150000 0.00179520 81266.86371917 0 -33457.48289007 0 -66061.83091088 0 110904.53838027 0 9071.48998395 0 3
0.00250000 0.00253879 96002.40616064 0 -16906.53333211 0 27833.58056550 0 -91442.26053538 0 -16284.64991923 0 6
0.00350000 0.00331552 96391.70717352 0 13319.19659118 0 -14876.84429059 0 11143.99104570 0 30554.58391281 0 7
0.00450000 0.00420575 90375.84194881 0 14036.02064995 0 26366.10429728 0 -15911.09840601 0 10701.40792267 0 24
0.00550000 0.00557378 72575.13631873 0 7723.42154208 0 41101.31400285 0 11991.13666860 0 25993.88372770 0 45
0.00650000 0.00659388 78125.83674343 0 732.72328959 0 46997.17247658 0 19998.09356946 0 -51554.65621458 0 40
0.00750000 0.00754703 63992.76812019 0 6710.10760649 0 45489.54607541 0 15715.56060381 0 28637.80325622 0 57
0.00850000 0.00846663 58462.36458590 0 7682.02919507 0 45398.70917240 0 -3630.60350023 0 -1240.61692584 0 75
0.00950000 0.00948925 57461.05132541 0 4044.52697034 0 43511.76383560 0 23175.16693528 0 46050.76064099 0 112
0.01050000 0.01054430 54044.85175339 0 -4292.08248622 0 37075.65315852 0 33873.84642351 0 6227.39653291 0 105
0.01150000 0.01145670 61169.94758490 0 -12490.68417915 0 2658.95919158 0 23392.55439547 0 35238.28547208 0 144
0.01250000 0.01249090 71150.36115876 0 -2509.71604544 0 -1035.99321510 0 29545.95046234 0 21792.31649978 0 169
0.01350000 0.01339930 65805.40243744 0 9135.09799845 0 -3052.47485930 0 -26669.78126973 0 41999.81186762 0 180
0.01450000 0.01448870 64749.96413585 0 3103.07289978 0 7239.80099035 0 -4243.11485169 0 27911.21894414 0 267
0.01550000 0.01550050 58081.49288270 0 -142.91340004 0 17699.66482588 0 7834.74388585 0 26981.66572791 0 238
0.01650000 0.01653350 65877.71704154 0 -3307.63893629 0 10001.00992659 0 13441.42158155 0 34182.18169867 0 315
0.01750000 0.01747870 70541.34353433 0 -5882.51576381 0 15050.19969889 0 7097.21256238 0 43963.73011124 0 297
0.01850000 0.01844180 80009.45472115 0 -5817.70990004 0 8181.59888801 0 12257.76904324 0 44605.02311879 0 388
0.01950000 0.01947590 85071.36609635 0 1249.96680487 0 20448.83981344 0 -2815.06778863 0 34301.85571374 0 399
0.02050000 0.02045430 80024.42783703 0 5714.11812054 0 21473.00093964 0 -13998.64331623 0 38888.39838774 0 462
0.02150000 0.02154770 76335.82846796 0 5779.34544980 0 40517.14065958 0 -4439.76177359 0 36631.11798483 0 571
0.02250000 0.02255340 79274.77383530 0 -1125.42375434 0 59630.60036045 0 11940.89354643 0 40805.51178024 0 510
0.02350000 0.02348930 73770.65643777 0 -884.66270570 0 37174.80845924 0 9379.14869610 0 23404.86562408 0 555
0.02450000 0.02439640 74007.00984474 0 2316.97322488 0 48256.68880202 0 1490.39068111 0 23344.86224859 0 592
0.02550000 0.02547300 69839.38167948 0 7181.28383525 0 44344.49090248 0 -10020.70789237 0 16558.93521976 0 837
0.02650000 0.02652900 64931.30520595 0 4198.96079664 0 43685.11924390 0 5678.13827764 0 12583.85023351 0 723
0.02750000 0.02749970 58339.69594765 0 -507.04626880 0 53162.76886010 0 8994.96072501 0 20416.78625426 0 826
0.02850000 0.02848090 58355.77818323 0 1384.76921258 0 31877.98553267 0 5539.57595417 0 -6077.79846847 0 831
0.02950000 0.02946900 57976.79198350 0 970.28896438 0 37789.37168214 0 9591.92221835 0 10500.10269806 0 996
0.03050000 0.03053250 54713.87275331 0 1858.52969022 0 29866.48605414 0 381.12569161 0 4553.35781273 0 1041
0.03150000 0.03150510 53866.28348252 0 1527.20236379 0 30661.50305139 0 2926.74505070 0 6542.98545088 0 1036
0.03250000 0.03246190 49700.09717286 0 -58.03080611 0 26150.60234058 0 5766.33547577 0 3658.05421267 0 1059
0.03350000 0.03345080 50263.52997783 0 885.59658449 0 27124.74216854 0 1170.98639140 0 923.68264569 0 1302
0.03450000 0.03451200 48678.70884590 0 1246.88345212 0 21896.35192715 0 787.33190688 0 6490.94555480 0 1339
0.03550000 0.03553350 48940.79382979 0 1085.66292240 0 25427.67812350 0 3567.94932867 0 -2333.18855482 0 1365
0.03650000 0.03647120 47357.96911331 0 196.09014381 0 22262.13960250 0 -3638.23424373 0 509.61942650 0 1308
0.03750000 0.03744890 46747.95328115 0 202.79144500 0 20175.10907276 0 3454.20910396 0 -4913.18951532 0 1579
0.03850000 0.03847530 47352.53442680 0 -745.81533847 0 20273.93163756 0 4005.50813947 0 2233.60069742 0 1662
0.03950000 0.03950240 47737.73169681 0 -311.47075654 0 16569.13912095 0 755.86063554 0 -4401.10895222 0 1683
0.04050000 0.04050350 46613.19523823 0 1525.87142015 0 14394.48813531 0 252.87485394 0 -5262.99477587 0 1822
0.04150000 0.04152450 45417.00964737 0 1980.45521827 0 19395.39792730 0 -709.90204275 0 2296.02195384 0 1887
0.04250000 0.04250150 40830.46697337 0 1349.09992319 0 15275.01826103 0 325.96584183 0 -6204.19374890 0 1920
0.04350000 0.04349210 43650.07106155 0 656.71531690 0 19113.01605299 0 1005.04655738 0 1337.34325443 0 2005
0.04450000 0.04448520 39155.58532222 0 1089.58476964 0 17469.74431315 0 -90.69604480 0 -5646.17344804 0 2151
0.04550000 0.04548030 38987.88642436 0 2031.31944748 0 20612.76770433 0 -1819.53304175 0 1110.04026417 0 2274
0.04650000 0.04648670 37829.41090312 0 695.22284359 0 20456.38182736 0 -377.42677743 0 -523.69526454 0 2311
0.04750000 0.04749250 36612.48477396 0 -510.18507754 0 17134.23560546 0 3121.25137158 0 -3135.68101881 0 2568
0.04850000 0.04851840 37371.34446916 0 -559.95571473 0 20105.67817986 0 4609.49036048 0 2748.07695906 0 2493
0.04950000 0.04949480 36904.07234173 0 198.34498414 0 12438.55555349 0 362.00557719 0 -6918.06754927 0 2644
0.05050000 0.05050630 37488.02386105 0 867.72422972 0 17409.51911372 0 388.40373505 0 2916.56333190 0 2829
0.05150000 0.05149060 35163.30898071 0 1541.80947017 0 13908.69370898 0 -1520.82492554 0 -3633.84212974 0 2784
0.05250000 0.05249300 34827.80027302 0 911.79842816 0 17695.00652316 0 273.25271009 0 1097.78227330 0 3055
0.05350000 0.05348950 33337.69796303 0 197.02624083 0 16444.25224331 0 1725.40205325 0 -2308.34427365 0 3009
0.05450000 0.05448610 33279.46917905 0 426.37444780 0 15344.22732999 0 1483.90233090 0 1095.82800440 0 3336
0.05550000 0.05550870 33438.07329541 0 -239.23046345 0 15610.19423281 0 2721.64663673 0 2251.49079810 0 3349
0.05650000 0.05647670 33688.84525841 0 -1290.20566740 0 11614.25779630 0 2966.17425585 0 692.57537488 0 3324
0.05750000 0.05747970 34765.91139405 0 -425.33631177 0 10832.19531709 0 1644.44740673 0 3732.58705617 0 3639
0.05850000 0.05849280 34839.11329391 0 759.58838684 0 10466.56291849 0 -1347.04805176 0 908.23704482 0 3846
0.05950000 0.05951020 33644.48047062 0 709.14562312 0 11637.21657398 0 -1328.12646976 0 3339.16011802 0 3787
0.06050000 0.06049470 33278.13823542 0 650.24360348 0 12840.72235484 0 -730.69470967 0 -2454.84789414 0 3930
0.06150000 0.06148310 32852.90174442 0 574.54729343 0 12835.84222818 0 1186.56952311 0 1028.90704937 0 4083
0.06250000 0.06249100 32000.54325895 0 61.78007433 0 12430.01533184 0 901.81413266 0 1224.47923428 0 4303
0.06350000 0.06350600 31396.62758512 0 1037.47610814 0 12152.18084829 0 1052.55791775 0 1660.68491906 0 4470
0.06450000 0.06451750 30036.62501533 0 954.96314844 0 12788.81555312 0 812.24938995 0 2285.18585442 0 4479
0.06550000 0.06550280 27911.66259202 0 794.28276001 0 11611.04134919 0 779.46381177 0 4477.30547526 0 4636
0.06650000 0.06648880 27773.13354214 0 809.60081212 0 12210.07689636 0 891.30189620 0 3152.85019168 0 4653
0.06750000 0.06749660 26986.65676654 0 341.27058450 0 11982.81827089 0 985.34526424 0 5904.89779925 0 5220
0.06850000 0.06852730 25955.50818626 0 166.05850983 0 10633.51870615 0 1600.64826998 0 4395.40807699 0 5029
0.06950000 0.06949320 26609.44515833 0 -197.57858244 0 10015.17338509 0 49.25534018 0 4583.74769237 0 5040
0.07050000 0.07048030 25930.22025722 0 302.70538359 0 10354.81910924 0 103.13171665 0 3633.14338433 0 5475
0.07150000 0.07148790 26180.10492446 0 518.31492490 0 9824.64880392 0 -419.07422197 0 3210.30259188 0 5509
0.07250000 0.07249820 25276.72693303 0 72.39789899 0 9671.98956912 0 398.23164467 0 4192.80518234 0 5916
0.07350000 0.07351270 25807.21888306 0 5.21740996 0 10236.22094027 0 1905.02398783 0 2928.27563588 0 5721
0.07450000 0.07449140 25634.30712264 0 -152.18231333 0 8696.31915598 0 975.42086121 0 3108.04175601 0 6028
0.07550000 0.07549160 26018.94983280 0 -247.21168878 0 7421.33061080 0 1145.03299054 0 5224.06467458 0 6183
0.07650000 0.07648840 25441.98576756 0 556.09486907 0 8080.54699261 0 -727.28638484 0 2613.41873691 0 6330
0.07750000 0.07749960 25198.20125864 0 840.07498485 0 8337.38584034 0 -1029.67345108 0 2996.19812599 0 6583
0.07850000 0.07848650 24086.64150049 0 477.50597485 0 9046.83425314 0 -976.24271890 0 1468.97357981 0 6549
0.07950000 0.07947320 23756.23474340 0 93.72316519 0 9333.40859988 0 123.38512957 0 1588.41467974 0 6828
0.08050000 0.08048110 23419.28418011 0 118.80224699 0 9892.49365565 0 518.81624701 0 -591.26838195 0 7147
0.08150000 0.08149960 23238.38675789 0 259.97543823 0 7832.34818730 0 517.57070559 0 -1046.28140939 0 7386
0.08250000 0.08250610 22906.98179307 0 340.77591711 0 8610.17382928 0 53.57070308 0 -990.12446100 0 7227
0.08350000 0.08350160 22360.85125534 0 250.01221601 0 8359.87878775 0 -11.44478431 0 -968.41566122 0 7798
0.08450000 0.08449610 21897.23922291 0 230.43736251 0 7536.77887983 0 691.67587880 0 -1338.27491497 0 7371
0.08550000 0.08548940 21959.12810188 0 208.06309091 0 7583.25099504 0 159.42486493 0 -2177.10214016 0 8256
0.08650000 0.08650700 21303.63836224 0 281.02320268 0 6547.00046417 0 746.09372751 0 -93.88742581 0 8037
0.08750000 0.08749060 21436.28907774 0 163.50087981 0 7134.31261617 0 443.70111567 0 -1794.75530777 0 8155
0.08850000 0.08849210 21297.53820392 0 -43.39730268 0 5700.02120922 0 1081.30962759 0 822.23701280 0 8718
0.08950000 0.08949900 20726.45247305 0 88.16813920 0 6309.13865442 0 385.39469332 0 -255.55337800 0 8571
0.09050000 0.09049190 20622.30613371 0 588.78617207 0 6031.52599481 0 85.44314302 0 1026.87514209 0 8932
0.09150000 0.09150830 20039.02008620 0 539.08097295 0 6325.66453787 0 -576.58363719 0 186.05261057 0 9285
0.09250000 0.09250820 19063.99296248 0 644.20777410 0 7073.99868717 0 -389.86111833 0 847.91867933 0 9204
0.09350000 0.09350330 18356.59642113 0 612.93059871 0 7499.42372851 0 253.22533576 0 2336.03899243 0 9349
0.09450000 0.09448040 17980.60484458 0 -40.69149428 0 7070.06131225 0 687.49671579 0 1373.52273887 0 9564
0.09550000 0.09549270 18089.52039861 0 -220.92333377 0 7068.58618306 0 1354.96716638 0 2212.21686970 0 10155
0.09650000 0.09649430 18047.70658612 0 85.17451423 0 5178.29130478 0 512.32235119 0 1152.43081891 0 9913
0.09750000 0.09749140 17887.66061415 0 252.62086553 0 6004.07528236 0 279.11440768 0 2551.78495547 0 10476
0.09850000 0.09850240 17854.83067119 0 286.46343478 0 5505.38179398 0 -636.03245283 0 1390.68082055 0 10575
0.09950000 0.09950330 16892.55842396 0 531.51123103 0 5631.36670011 0 -544.36703742 0 559.70283544 0 10882
0.10050000 0.10051200 16620.38045085 0 530.79141235 0 5939.99034639 0 -823.49364541 0 267.35330244 0 10875
0.10150000 0.10150300 15468.67055975 0 476.93477821 0 6883.82902429 0 -245.53913628 0 -709.81442229 0 11118
0.10250000 0.10250800 15435.95152875 0 243.29538714 0 6424.68674423 0 76.91989090 0 -470.37655345 0 11575
0.10350000 0.10349800 15107.31936317 0 184.93239968 0 6923.90151887 0 276.72425474 0 -1150.23476191 0 11364
0.10450000 0.10450100 15014.92969260 0 -172.80861229 0 5711.22331814 0 1261.80111201 0 -781.29940486 0 12093
0.10550000 0.10551000 15085.91335306 0 -299.57544781 0 5003.70477362 0 1045.88767190 0 -541.68629511 0 12067
0.10650000 0.10649700 15241.19011034 0 266.57248217 0 4650.48342440 0 17.69323193 0 366.61729688 0 12054
0.10750000 0.10749900 15228.65705779 0 45.21293162 0 4788.49118803 0 -8.71202429 0 -67.94300883 0 12807
0.10850000 0.10850100 14836.25050976 0 35.28764130 0 4225.41330136 0 273.43460572 0 504.68938945 0 12736
0.10950000 0.10950300 15234.86812808 0 -74.56345520 0 4451.71808390 0 512.64621414 0 -42.13834092 0 12933
0.11050000 0.11050200 14934.74033866 0 -20.81529296 0 3489.42365427 0 361.66840481 0 118.85326650 0 13428
0.11150000 0.11150900 15335.35437243 0 30.99789905 0 4067.99594308 0 325.23160459 0 578.83071369 0 13453
0.11250000 0.11250000 14986.20349250 0 35.18271858 0 3045.53177001 0 133.92176667 0 332.58728641 0 13668
0.11350000 0.11349100 14963.35562679 0 105.61980486 0 3409.52267146 0 290.37862730 0 1557.90279694 0 13791
0.11450000 0.11448600 15089.68436003 0 63.79046469 0 3330.37589004 0 55.76365454 0 585.23144345 0 14205
0.11550000 0.11549300 14902.35404357 0 -36.38511524 0 3052.13103220 0 362.69877700 0 615.74998097 0 14776
0.11650000 0.11649800 14942.61508849 0 244.77828017 0 3008.43171622 0 -318.40940935 0 644.47729019 0 14553
0.11750000 0.11747300 14422.99251147 0 294.94709132 0 2681.71832772 0 -161.47784549 0 372.85165869 0 14568
0.11850000 0.11849100 14005.18712243 0 144.07243012 0 3400.70516989 0 18.08863310 0 881.67806460 0 16015
0.11950000 0.11950300 13895.82792052 0 226.19165232 0 2925.80229896 0 479.44582520 0 251.55167414 0 15270
0.12050000 0.12050700 13570.52311403 0 50.53803710 0 2526.74103276 0 733.22239345 0 881.55051584 0 15999
0.12150000 0.12150000 13378.42358289 0 254.31116395 0 3129.81377562 0 -480.72574933 0 518.09975568 0 15670
0.12250000 0.12250700 13191.75873825 0 286.00758658 0 2884.32122237 0 -129.70267535 0 1098.19042935 0 16887
0.12350000 0.12352200 12927.45551497 0 14.08060726 0 3647.56194036 0 -335.43439666 0 735.45948788 0 16407
0.12450000 0.12449800 13128.42800367 0 24.75921168 0 3046.33033619 0 -20.50618130 0 318.27520587 0 16306
0.12550000 0.12549900 12956.95809885 0 36.67115721 0 3575.32497464 0 -88.57917896 0 161.84940059 0 17523
0.12650000 0.12650100 12741.67796609 0 171.82371400 0 3901.46162090 0 -361.71720607 0 -9.77604718 0 17154
0.12750000 0.12750600 13075.96664211 0 95.16269164 0 3658.40913098 0 267.10375051 0 112.50244712 0 18007
0.12850000 0.12850300 12941.98498297 0 -71.55607714 0 4059.77736614 0 327.64393993 0 571.20107931 0 17496
0.12950000 0.12949900 12641.08080977 0 137.06723013 0 2982.64468332 0 389.81564442 0 102.93229693 0 18405
0.13050000 0.13049000 12752.99098697 0 174.35694339 0 3567.45022480 0 25.20352503 0 848.13495767 0 18100
0.13150000 0.13148800 12369.79013241 0 99.06790209 0 3027.79694609 0 183.76560576 0 499.85251846 0 19059
0.13250000 0.13249300 12229.93013890 0 115.73996751 0 3126.93006442 0 228.05608253 0 1164.55349717 0 18957
0.13350000 0.13349100 12090.18105735 0 62.91337283 0 2556.98672684 0 175.42280741 0 644.59596600 0 19468
0.13450000 0.13450700 12228.48828329 0 99.21840963 0 2752.25834031 0 111.42660102 0 835.09614654 0 19953
0.13550000 0.13551000 11677.58853088 0 211.24182796 0 2618.79796743 0 24.48159902 0 842.22667706 0 19956
0.13650000 0.13649900 11860.26054461 0 194.81576528 0 3005.30399868 0 -106.43600604 0 1204.95872765 0 19723
0.13750000 0.13749600 11319.67560536 0 124.97117073 0 2971.69767193 0 163.61068266 0 892.71047821 0 20946
0.13850000 0.13851100 11365.48224875 0 99.74435419 0 2749.13062277 0 166.57203225 0 1792.47052120 0 20955
0.13950000 0.13949800 11253.79389548 0 -29.07446368 0 2841.76429968 0 358.14029506 0 1537.59481533 0 20506
0.14050000 0.14048300 11328.32673898 0 119.72170722 0 2538.79716384 0 351.56432439 0 2267.45103050 0 21447
0.14150000 0.14148400 10982.23702940 0 212.25667248 0 2891.31976764 0 -225.51287107 0 2148.68649358 0 21771
0.14250000 0.14249400 10787.91925887 0 187.88043982 0 2519.83121706 0 -21.75327549 0 1840.24030645 0 22470
0.14350000 0.14350900 10722.88047997 0 125.95495990 0 3049.63551288 0 82.04923675 0 2155.24139098 0 22519
0.14450000 0.14449900 10383.03511428 0 90.27701938 0 2497.61554957 0 -65.67386084 0 1383.52699852 0 22218
0.14550000 0.14550500 10385.74136633 0 227.35955536 0 3214.96089459 0 -204.86217147 0 1542.07565889 0 23559
0.14650000 0.14650700 9886.19385578 0 284.51138412 0 2379.29466053 0 -209.07904455 0 44.37709902 0 23044
0.14750000 0.14750500 9663.14988515 0 242.83621158 0 3705.49126202 0 -584.84103332 0 851.86270897 0 23649
0.14850000 0.14849900 9420.52995191 0 92.51211739 0 2732.90420163 0 121.05486909 0 -141.97730301 0 23640
0.14950000 0.14949500 9534.63618612 0 -230.41850748 0 3007.37805251 0 639.25333643 0 47.65798599 0 24457
0.15050000 0.15050000 9694.22741900 0 -173.72807252 0 1942.83387822 0 412.73116644 0 -655.16144021 0 24591
0.15150000 0.15149900 9811.68319468 0 165.82004909 0 1973.24594026 0 7.32767654 0 -216.39701630 0 25020
0.15250000 0.15250500 9466.96879353 0 190.91388219 0 2268.89288611 0 -366.95446927 0 -587.32767967 0 25297
0.15350000 0.15350100 9370.23137375 0 156.62433770 0 2120.91413642 0 -207.21239610 0 -310.21301480 0 25452
0.15450000 0.15450400 9300.47883614 0 40.30296965 0 2560.28081233 0 57.11190045 0 -550.47274134 0 26061
0.15550000 0.15549900 9169.48070899 0 44.01741150 0 2454.32660788 0 119.73168930 0 -520.78493446 0 26128
0.15650000 0.15649500 9212.48127956 0 225.78682363 0 2905.71614128 0 -135.35696756 0 -33.11997777 0 26331
0.15750000 0.15749700 8876.68420075 0 90.89291355 0 2890.99812293 0 -77.66045012 0 -136.10007775 0 27345
0.15850000 0.15849900 8990.00295997 0 -17.52553303 0 3093.49010562 0 397.64713859 0 593.53209525 0 26980
0.15950000 0.15949700 8985.77721394 0 6.52716940 0 2919.44704311 0 177.46802413 0 615.58804950 0 27777
0.16050000 0.16050000 8999.06446788 0 1.77710921 0 2972.91770359 0 -49.05791687 0 731.32358053 0 28224
0.16150000 0.16150500 8929.71121336 0 106.36047499 0 2881.43751116 0 65.66310238 0 545.95640594 0 28075
0.16250000 0.16249700 8951.83815127 0 43.84361245 0 2985.87222163 0 84.81493762 0 967.86553785 0 28590
0.16350000 0.16349900 8849.59949781 0 -23.69933690 0 2629.26805735 0 350.27109082 0 619.93579870 0 29163
0.16450000 0.16449100 8987.17470475 0 28.17840588 0 2523.24730572 0 322.74828559 0 636.76336271 0 28996
0.16550000 0.16550500 8793.62222681 0 54.83033032 0 2085.49994457 0 78.60320186 0 778.67300943 0 30777
0.16650000 0.16650700 8618.59204777 0 106.84549303 0 2049.80847279 0 176.14484433 0 294.71750355 0 29211
0.16750000 0.16749900 8542.07388002 0 144.45285817 0 1843.41238878 0 -136.71674830 0 348.23141970 0 30922
0.16850000 0.16850800 8270.49483155 0 187.05414565 0 1981.19832847 0 -307.75409644 0 -213.16725975 0 30867
0.16950000 0.16949900 8045.13280076 0 350.39531223 0 2082.69387174 0 -212.71362979 0 -47.41974708 0 30852
0.17050000 0.17049200 7668.77521471 0 92.61271455 0 2337.19247691 0 -78.68061841 0 -70.71957907 0 31257
0.17150000 0.17149500 7683.91469855 0 -33.48155079 0 2003.79109665 0 585.71280140 0 -3.02014402 0 32608
0.17250000 0.17250900 7767.56450593 0 -79.97363016 0 1780.81367320 0 525.14377487 0 665.67478580 0 32361
0.17350000 0.17350400 7818.38437035 0 -2.54710447 0 1749.33685626 0 119.34904300 0 256.65251562 0 32508
0.17450000 0.17449800 7846.52273700 0 151.57451573 0 1771.17542306 0 -394.16783010 0 914.33387578 0 32791
0.17550000 0.17549800 7641.85687972 0 116.39878461 0 2147.56628269 0 -413.78261191 0 453.02104847 0 33633
0.17650000 0.17650100 7761.55307718 0 60.22697402 0 2452.80711390 0 -194.58174102 0 610.78999770 0 33984
0.17750000 0.17750300 7607.69599312 0 -25.17757163 0 2929.70640028 0 70.88938529 0 309.39892095 0 34069
0.17850000 0.17849800 7888.00381359 0 -53.24406733 0 2416.11743440 0 98.25924292 0 668.23130669 0 34536
