### header ###
fiducial parameters:
Omega_m = 0.31
Omega_nu = 0
Omega_de = 0.69
Omega_k = 0
H_0 = 100
w_de = -1
zeff = 0
beta = 0
fgrowth = 0
b_1 = 2
gamma = 0.55
Lx = 3500 Ly = 3500 Lz = 3500
nx = 700 ny = 700 nz = 700
xoffset = 1379.75464 yoffset = 22.6059522 zoffset = 368.141391
bins = 400 dk = 0.001
kx_ny = 0.628318531 ky_ny = 0.628318531 kz_ny = 0.628318531
############################
A(data) = 3.32947654 (not used)
A(ran) = 3.3250669 (used)
Ngal = 187518
weighted Ngal = 0
Nran = 9399747
weighted Nran = 0
SN(data) = 6665.97042
SN(ran) = 132.255809
SN(data+ran) = 6798.22623
############################
13 columns: k_central k_mean P_0(k) sigma^{lin}_{P_0(k)} P^img_1(k) sigma^{lin}_{P_1(k)} P_2(k) sigma^{lin}_{P_2(k)} P^img_3(k) sigma^{lin}_{P_3(k)} P_4(k) sigma^{lin}_{P_4(k)} N_modes
### header ###
0.00050000 0 0 0 0 0 0 0 0 0 0 0 0
0.00150000 0.00179520 42521.31994813 0 -43436.67643226 0 -59691.15829579 0 48474.40899812 0 30454.98496422 0 3
0.00250000 0.00253879 61115.82254379 0 -33795.87530896 0 -26789.01163692 0 -48541.17800374 0 -22263.02689826 0 6
0.00350000 0.00331552 80272.87064867 0 -9692.75228981 0 -28127.38637266 0 -58871.62975329 0 15426.63492331 0 7
0.00450000 0.00420575 89941.95432419 0 -2366.42887207 0 -31882.31109948 0 -46603.54589689 0 -13204.40270277 0 24
0.00550000 0.00557378 91076.58377199 0 -4475.58633973 0 -16245.27617006 0 -26007.08225207 0 -18185.01560434 0 45
0.00650000 0.00659388 89895.92585686 0 -4869.92275603 0 5003.97096234 0 -46328.04056470 0 -37918.47321461 0 40
0.00750000 0.00754703 97848.09224479 0 7231.71550777 0 34491.29335761 0 -36493.03258283 0 -24439.45247541 0 57
0.00850000 0.00846663 96639.04086547 0 8289.10586003 0 26464.59412618 0 -25146.18354495 0 -43764.75403799 0 75
0.00950000 0.00948925 81936.77201484 0 4599.07572655 0 35633.79755525 0 -5371.20049330 0 -39649.25449838 0 112
0.01050000 0.01054430 92256.57621532 0 2651.31735688 0 58071.95445332 0 24167.16359033 0 -7983.99812318 0 105
0.01150000 0.01145670 79100.30930730 0 1671.46556249 0 39161.02000872 0 12356.36978411 0 -29955.10471776 0 144
0.01250000 0.01249090 82866.99070289 0 6197.36157158 0 46069.28293989 0 2871.57743708 0 -3429.58664674 0 169
0.01350000 0.01339930 78401.34207563 0 7853.57673826 0 40942.48806255 0 -816.29767683 0 -23514.00300205 0 180
0.01450000 0.01448870 62948.75375145 0 809.41891649 0 39614.20631603 0 7324.46009665 0 4949.57973251 0 267
0.01550000 0.01550050 75824.41337668 0 -4999.68976032 0 46322.71679016 0 16882.13269883 0 2062.17515739 0 238
0.01650000 0.01653350 72507.36910537 0 -3360.25557462 0 22278.55457399 0 12151.84811238 0 -8515.05572426 0 315
0.01750000 0.01747870 79303.05638752 0 3673.85916833 0 21965.33917217 0 -9321.07518888 0 -16619.04950722 0 297
0.01850000 0.01844180 74595.06510694 0 2321.33206528 0 24937.55813035 0 -10174.11023736 0 -8401.32659075 0 388
0.01950000 0.01947590 72731.85493160 0 5117.53372789 0 44451.85368893 0 -8351.69348441 0 -5584.41766343 0 399
0.02050000 0.02045430 71315.95272919 0 -1658.78832438 0 44666.91199776 0 4748.81797655 0 -6633.17906446 0 462
0.02150000 0.02154770 75262.53333928 0 -1611.24036306 0 39445.84194635 0 14514.38397432 0 -9285.60554104 0 571
0.02250000 0.02255340 77192.06887236 0 1620.03568224 0 49470.39848407 0 -4344.11129110 0 9334.47335479 0 510
0.02350000 0.02348930 73403.98146667 0 1443.28636768 0 36113.93547114 0 11392.21203340 0 7157.28248505 0 555
0.02450000 0.02439640 77573.05148753 0 1920.72912271 0 48452.78116407 0 3172.13778318 0 15399.90513867 0 592
0.02550000 0.02547300 71096.56885356 0 2624.47666027 0 41914.18782718 0 5768.90863347 0 16731.95789215 0 837
0.02650000 0.02652900 67980.49707095 0 3861.23384957 0 48308.70651571 0 4341.40503905 0 14886.71545587 0 723
0.02750000 0.02749970 62599.27013562 0 4267.79276490 0 44283.48931926 0 6908.22965758 0 28712.22518774 0 826
0.02850000 0.02848090 59719.32993604 0 1076.02023577 0 39190.18985670 0 6000.01590428 0 17631.34305268 0 831
0.02950000 0.02946900 57947.51122356 0 176.57296454 0 34591.66868999 0 5660.30363295 0 15153.34783051 0 996
0.03050000 0.03053250 57034.37297881 0 973.31353379 0 33061.85989493 0 3448.25313120 0 13008.86490057 0 1041
0.03150000 0.03150510 54935.80760424 0 1401.11763688 0 27534.89463169 0 1353.82477309 0 5295.78035405 0 1036
0.03250000 0.03246190 53671.74388805 0 -1112.71324263 0 21512.59651274 0 8068.32449358 0 13579.95063143 0 1059
0.03350000 0.03345080 54702.33790848 0 -682.61658914 0 20787.01040839 0 8757.70893109 0 4192.15080172 0 1302
0.03450000 0.03451200 52847.00248298 0 1737.28072518 0 11335.53601699 0 3483.53422869 0 12580.07922655 0 1339
0.03550000 0.03553350 51191.08677861 0 2968.14848890 0 14092.25301847 0 1479.46585212 0 9380.24672460 0 1365
0.03650000 0.03647120 46184.18774028 0 3437.12866066 0 13614.44425394 0 -3989.86955177 0 11377.23891752 0 1308
0.03750000 0.03744890 41712.32804272 0 2445.43146793 0 15814.27225665 0 -720.46973520 0 9236.61572412 0 1579
0.03850000 0.03847530 39651.47273777 0 1881.85447740 0 14780.68361305 0 -496.18909611 0 7827.83407015 0 1662
0.03950000 0.03950240 37837.06382901 0 402.25885828 0 19332.51084060 0 427.81963076 0 6385.54591020 0 1683
0.04050000 0.04050350 37450.42470340 0 -420.72902856 0 14210.48517794 0 2261.80561126 0 -86.11172037 0 1822
0.04150000 0.04152450 38031.71433546 0 -698.17421110 0 13033.37644583 0 2717.30997872 0 4591.38952706 0 1887
0.04250000 0.04250150 39588.25291517 0 -1735.73904881 0 8558.77722263 0 4344.31093265 0 -1922.08224873 0 1920
0.04350000 0.04349210 42236.38709853 0 -2226.12523067 0 6265.46152084 0 2424.91275358 0 884.14474680 0 2005
0.04450000 0.04448520 42498.47208241 0 -36.03086241 0 1671.03300581 0 694.66051990 0 -3457.96901973 0 2151
0.04550000 0.04548030 43152.63087842 0 614.47671156 0 5807.10671576 0 -2021.07118150 0 1547.33288625 0 2274
0.04650000 0.04648670 41023.56471224 0 1373.06799980 0 4757.89057565 0 -3206.73122646 0 -3456.62698490 0 2311
0.04750000 0.04749250 41150.11526942 0 902.94876211 0 7509.86054484 0 -1838.74299486 0 -2272.63061948 0 2568
0.04850000 0.04851840 39935.85102753 0 787.14446565 0 9762.41609784 0 233.95881755 0 -1988.80688957 0 2493
0.04950000 0.04949480 38267.62409454 0 1137.95680689 0 10978.52147843 0 -1101.78508628 0 -4954.04948488 0 2644
0.05050000 0.05050630 38545.12584219 0 842.14460220 0 12236.47394510 0 -1904.95744065 0 -1752.04310832 0 2829
0.05150000 0.05149060 36635.33263967 0 1348.87809925 0 14313.74422153 0 -202.37663424 0 -4497.77982482 0 2784
0.05250000 0.05249300 34732.30506730 0 684.60634987 0 14257.84458891 0 -2680.80884957 0 -3471.92174549 0 3055
0.05350000 0.05348950 35324.24224842 0 912.76003493 0 17082.77245162 0 -366.02391785 0 -7454.27146573 0 3009
0.05450000 0.05448610 34545.08566281 0 187.15729378 0 16763.01324360 0 49.31057434 0 -5523.88191049 0 3336
0.05550000 0.05550870 34537.10000101 0 -306.88787396 0 16438.81755681 0 34.88713818 0 -7715.32496830 0 3349
0.05650000 0.05647670 34739.51434531 0 256.66249770 0 15194.16343528 0 1014.91550442 0 -7170.90247490 0 3324
0.05750000 0.05747970 34741.84349667 0 326.15439218 0 16901.54229349 0 -44.53215395 0 -9406.67704692 0 3639
0.05850000 0.05849280 34254.93995065 0 350.99978246 0 15555.84736776 0 -346.25718665 0 -8145.40831237 0 3846
0.05950000 0.05951020 33584.69891907 0 349.51245295 0 16741.71814546 0 840.31344559 0 -4184.96370609 0 3787
0.06050000 0.06049470 33752.28690495 0 513.47694480 0 16924.27924723 0 481.03297548 0 -7508.11922692 0 3930
0.06150000 0.06148310 33294.10955902 0 -205.98570972 0 15227.65885006 0 1818.93411711 0 -4225.82367565 0 4083
0.06250000 0.06249100 31941.87082709 0 1247.95929822 0 16279.32614469 0 1094.93516305 0 -2793.93905844 0 4303
0.06350000 0.06350600 31583.73607764 0 885.62542160 0 14084.71100455 0 543.90009802 0 -1337.78690230 0 4470
0.06450000 0.06451750 30790.16093599 0 136.65685584 0 16235.62682872 0 2412.82334890 0 1546.32358732 0 4479
0.06550000 0.06550280 30400.74901114 0 -326.81653664 0 12229.37557905 0 3151.69670720 0 1540.85562723 0 4636
0.06650000 0.06648880 29232.18050067 0 267.88678901 0 10889.69208207 0 1234.23948760 0 3155.71172050 0 4653
0.06750000 0.06749660 30841.40226589 0 -36.01089825 0 9406.74359411 0 1301.13049639 0 5696.86021809 0 5220
0.06850000 0.06852730 29931.92411614 0 -159.94171471 0 9952.36393678 0 1940.58236524 0 5207.59424711 0 5029
0.06950000 0.06949320 30665.60679426 0 208.47457432 0 9071.36798078 0 436.90664842 0 3692.90275349 0 5040
0.07050000 0.07048030 29646.32579472 0 296.14937707 0 7611.47809128 0 -430.69114165 0 2728.58972602 0 5475
0.07150000 0.07148790 29142.89636524 0 511.32525259 0 10576.98687531 0 -787.39512671 0 4679.06543894 0 5509
0.07250000 0.07249820 28641.46335121 0 633.22416177 0 9193.44878559 0 1481.75063869 0 4530.29921427 0 5916
0.07350000 0.07351270 28011.92701243 0 -172.58678835 0 9120.28015933 0 725.87114811 0 2854.72990891 0 5721
0.07450000 0.07449140 28101.43297180 0 242.14744825 0 8338.96079031 0 858.00390472 0 4057.18202605 0 6028
0.07550000 0.07549160 27597.55989445 0 540.43077162 0 8290.64753640 0 193.98503462 0 3174.86621763 0 6183
0.07650000 0.07648840 26346.58379066 0 746.18578444 0 9045.28148556 0 -655.39657359 0 4060.53156753 0 6330
0.07750000 0.07749960 25984.12347439 0 675.13224944 0 8671.85197551 0 -183.94639227 0 3438.53724268 0 6583
0.07850000 0.07848650 25318.65165749 0 46.56949592 0 8246.39366058 0 943.20758879 0 2695.03885525 0 6549
0.07950000 0.07947320 25319.87168916 0 -2.76588942 0 7566.04854858 0 971.52563284 0 3332.60522062 0 6828
0.08050000 0.08048110 24837.84826979 0 545.90538643 0 6828.60595469 0 -251.93542956 0 1664.76647953 0 7147
0.08150000 0.08149960 23888.55272299 0 875.80305758 0 7618.02189748 0 -988.13026379 0 2809.98802042 0 7386
0.08250000 0.08250610 23221.41722655 0 430.77432563 0 7900.03776228 0 -727.92856515 0 150.88242504 0 7227
0.08350000 0.08350160 22748.71041262 0 61.33908834 0 8448.93000805 0 431.72373209 0 -70.88162146 0 7798
0.08450000 0.08449610 22576.57503599 0 448.96721599 0 7687.68570551 0 -192.57977997 0 -690.57341383 0 7371
0.08550000 0.08548940 22208.79094518 0 99.77441133 0 7633.20574610 0 193.00124546 0 -2311.84909189 0 8256
0.08650000 0.08650700 21847.88339649 0 188.07453577 0 7801.35938303 0 -160.14024714 0 -253.97288244 0 8037
0.08750000 0.08749060 21863.52198418 0 144.34416444 0 7067.84307286 0 1095.67383676 0 -1503.76666463 0 8155
0.08850000 0.08849210 21793.98017932 0 -252.60866521 0 6330.81085326 0 2238.86901597 0 1309.32689093 0 8718
0.08950000 0.08949900 21554.63214918 0 221.21059577 0 5613.36568746 0 918.85908413 0 736.61075412 0 8571
0.09050000 0.09049190 21149.13798875 0 887.49650652 0 6580.07441347 0 -79.34930668 0 2639.93778881 0 8932
0.09150000 0.09150830 19635.63325319 0 866.31564771 0 6705.37166540 0 -1098.91135715 0 2637.60863745 0 9285
0.09250000 0.09250820 18897.18136038 0 844.92405616 0 8461.60724616 0 -966.60779611 0 3964.85890266 0 9204
0.09350000 0.09350330 18629.88351393 0 375.09651695 0 8835.73550162 0 -49.72571784 0 3990.88994189 0 9349
0.09450000 0.09448040 17713.75064601 0 190.67320322 0 9250.08043721 0 -120.39605199 0 2004.00182939 0 9564
0.09550000 0.09549270 18052.80853671 0 6.64306132 0 9118.19501430 0 277.29656050 0 3069.75494415 0 10155
0.09650000 0.09649430 17727.39281825 0 19.88008323 0 8245.19581131 0 510.37584613 0 1525.38340749 0 9913
0.09750000 0.09749140 18088.52219089 0 -78.30318498 0 8167.05832881 0 654.51149607 0 2396.89639009 0 10476
0.09850000 0.09850240 17774.30858134 0 358.53625079 0 8226.00804059 0 15.13915110 0 736.61408148 0 10575
0.09950000 0.09950330 17175.93850599 0 553.10024589 0 8087.57881148 0 -414.36711799 0 1671.15500898 0 10882
0.10050000 0.10051200 16522.33426983 0 317.73284633 0 7987.38093825 0 283.52537671 0 834.31643540 0 10875
0.10150000 0.10150300 16342.54596730 0 -26.06187276 0 7946.92025178 0 224.11538025 0 131.11347560 0 11118
0.10250000 0.10250800 15968.43989423 0 399.10674010 0 7694.15187333 0 383.69552194 0 1091.82630054 0 11575
0.10350000 0.10349800 15656.88817196 0 334.43618894 0 7706.77365546 0 52.89225457 0 -385.63980877 0 11364
0.10450000 0.10450100 15469.33603156 0 44.81908322 0 7341.52944876 0 267.01169357 0 1163.82147817 0 12093
0.10550000 0.10551000 15234.31356823 0 -61.69334117 0 7411.11561841 0 891.32407859 0 -186.72473710 0 12067
0.10650000 0.10649700 15632.82027458 0 -116.07492166 0 6733.54330564 0 255.75967427 0 1121.06491394 0 12054
0.10750000 0.10749900 15791.20256700 0 -118.67247999 0 6155.74740063 0 470.34106162 0 622.83725582 0 12807
0.10850000 0.10850100 15833.57093934 0 -144.35525564 0 6002.22305247 0 774.11563660 0 1352.12781996 0 12736
0.10950000 0.10950300 15974.42914059 0 -33.21935489 0 6022.61976366 0 -245.20861861 0 725.00936211 0 12933
0.11050000 0.11050200 16142.12803844 0 104.87392186 0 5439.25607777 0 -66.08345874 0 911.38361739 0 13428
0.11150000 0.11150900 15983.30209814 0 103.32292888 0 5779.50072655 0 250.32609688 0 1678.73029649 0 13453
0.11250000 0.11250000 15989.51316844 0 -34.44792678 0 5860.58846744 0 534.55354636 0 903.30811689 0 13668
0.11350000 0.11349100 15808.06118636 0 -61.91261413 0 4688.80350986 0 890.09739221 0 1567.25267597 0 13791
0.11450000 0.11448600 16017.90663262 0 182.61212127 0 5412.90339382 0 93.61691152 0 1790.64047370 0 14205
0.11550000 0.11549300 15487.41468259 0 386.41064696 0 4661.59680375 0 -441.47511245 0 1315.50468763 0 14776
0.11650000 0.11649800 15042.32494906 0 333.24610351 0 5361.11859527 0 -202.14482822 0 395.86256500 0 14553
0.11750000 0.11747300 14505.40010479 0 297.99384313 0 4851.66664585 0 -552.08651049 0 39.79255276 0 14568
0.11850000 0.11849100 14299.10384156 0 235.67795307 0 5285.44335849 0 -167.25857734 0 -426.48646889 0 16015
0.11950000 0.11950300 14235.21854714 0 130.14743235 0 5345.87929066 0 123.60806263 0 -1034.85636742 0 15270
0.12050000 0.12050700 13775.71025757 0 -62.38343544 0 4681.71623501 0 799.08303005 0 -1643.22737506 0 15999
0.12150000 0.12150000 13986.44299959 0 47.69259053 0 3774.01267677 0 427.24621588 0 -1310.79092893 0 15670
0.12250000 0.12250700 13894.82971279 0 72.24217859 0 3855.08932646 0 449.09143739 0 -439.43876869 0 16887
0.12350000 0.12352200 13704.72659710 0 80.47473043 0 3443.22881898 0 615.16880225 0 -241.09378454 0 16407
0.12450000 0.12449800 13571.07767388 0 189.32562279 0 3801.37465964 0 296.06175662 0 816.51506429 0 16306
0.12550000 0.12549900 13326.62769314 0 264.79234506 0 3489.24619512 0 56.91769359 0 701.63133718 0 17523
0.12650000 0.12650100 12891.07638898 0 269.74456450 0 3807.28626761 0 212.35094765 0 2076.68244299 0 17154
0.12750000 0.12750600 12757.76020166 0 110.24350304 0 4210.67310062 0 49.62767166 0 2359.00886131 0 18007
0.12850000 0.12850300 12630.10052479 0 174.12070089 0 4055.68471447 0 541.72844166 0 2564.83929428 0 17496
0.12950000 0.12949900 12513.19930895 0 -23.96086733 0 3887.02088247 0 198.02666679 0 2769.64933712 0 18405
0.13050000 0.13049000 12432.45539517 0 56.81742917 0 4099.48385121 0 -20.89925332 0 2895.91152318 0 18100
0.13150000 0.13148800 12618.89841587 0 102.72056598 0 3704.75924302 0 294.43689626 0 3062.42366296 0 19059
0.13250000 0.13249300 12394.63441358 0 11.04892840 0 3599.10450090 0 -159.93173263 0 2528.29380033 0 18957
0.13350000 0.13349100 12386.64875177 0 45.43708471 0 3811.16818655 0 -145.56419611 0 2033.62641644 0 19468
0.13450000 0.13450700 12365.13182970 0 48.79006446 0 3348.63200021 0 -51.42111820 0 1451.94859249 0 19953
0.13550000 0.13551000 12219.94806164 0 224.10650730 0 3959.24675700 0 -419.23282609 0 1249.47879220 0 19956
0.13650000 0.13649900 11933.90609235 0 212.24225392 0 3252.20513395 0 -156.78405094 0 609.16402823 0 19723
0.13750000 0.13749600 11837.30176693 0 95.37830451 0 3991.27813379 0 194.17913057 0 -28.02734378 0 20946
0.13850000 0.13851100 11615.25600403 0 64.80786018 0 3826.78459185 0 65.70469437 0 314.37997750 0 20955
0.13950000 0.13949800 11583.09153288 0 144.90426989 0 3580.07200693 0 391.55918058 0 -209.02469769 0 20506
0.14050000 0.14048300 11388.21920250 0 -11.28717840 0 3125.97622148 0 295.27095428 0 917.64570719 0 21447
0.14150000 0.14148400 11399.75404732 0 4.63298152 0 3214.52833791 0 -85.30383758 0 36.07600358 0 21771
0.14250000 0.14249400 11516.32252725 0 37.14830050 0 3035.30568643 0 383.50697160 0 779.87418606 0 22470
0.14350000 0.14350900 11430.80939878 0 -35.40376613 0 2614.53894780 0 326.39396203 0 154.95733080 0 22519
0.14450000 0.14449900 11382.22995614 0 270.46771054 0 2782.24893686 0 -564.68500111 0 -52.70791887 0 22218
0.14550000 0.14550500 10934.13450824 0 441.31872657 0 3392.53095773 0 -690.60668742 0 -388.62444987 0 23559
0.14650000 0.14650700 10573.18259476 0 219.43933162 0 3512.91480941 0 -293.08155200 0 -509.37763840 0 23044
0.14750000 0.14750500 10308.96810106 0 15.18883966 0 3476.99042250 0 411.77177790 0 -662.79440195 0 23649
0.14850000 0.14849900 10490.86373101 0 -74.40851117 0 3216.19201745 0 412.34852014 0 -884.58839468 0 23640
0.14950000 0.14949500 10374.61689579 0 53.79773989 0 2994.51226405 0 371.61720847 0 -799.13626780 0 24457
0.15050000 0.15050000 10349.04059563 0 180.69667156 0 2813.37083549 0 -120.55465611 0 -837.94214768 0 24591
0.15150000 0.15149900 9973.85867646 0 173.34875358 0 3063.58823864 0 -498.64801448 0 -595.08708106 0 25020
0.15250000 0.15250500 9882.71121994 0 235.41065523 0 3231.23168052 0 -81.39108512 0 -713.32922261 0 25297
0.15350000 0.15350100 9842.20616869 0 -10.40898852 0 3201.88437339 0 223.19813827 0 -683.19333138 0 25452
0.15450000 0.15450400 9645.18214610 0 -99.69178191 0 2909.77551937 0 519.48060970 0 -330.57977976 0 26061
0.15550000 0.15549900 9910.80522181 0 56.05646214 0 2891.92978348 0 566.23998692 0 -111.68835327 0 26128
0.15650000 0.15649500 9727.13500035 0 178.16233306 0 2805.29644411 0 -303.94316117 0 -63.33616926 0 26331
0.15750000 0.15749700 9486.28965862 0 206.71107400 0 2995.62138375 0 60.00592647 0 63.83993143 0 27345
0.15850000 0.15849900 9171.69894838 0 207.06266495 0 3146.87203653 0 -331.99501649 0 266.62017432 0 26980
0.15950000 0.15949700 9086.10818153 0 167.80315511 0 3277.41542461 0 -208.46237400 0 171.52425168 0 27777
0.16050000 0.16050000 8890.34855539 0 23.83875325 0 3454.70820783 0 163.07941433 0 21.84189415 0 28224
0.16150000 0.16150500 9017.53131080 0 34.40777664 0 3443.59482848 0 282.48834979 0 298.50958378 0 28075
0.16250000 0.16249700 8872.13681000 0 59.61828913 0 3159.83764576 0 123.01579271 0 -81.13288206 0 28590
0.16350000 0.16349900 8827.21746236 0 142.21021815 0 3173.46872681 0 -98.82511578 0 356.16384376 0 29163
0.16450000 0.16449100 8716.93769111 0 60.57146660 0 3109.61670598 0 82.91002455 0 140.31473259 0 28996
0.16550000 0.16550500 8586.77140372 0 95.34170356 0 3349.09783049 0 -117.82511254 0 583.31710286 0 30777
0.16650000 0.16650700 8659.34110536 0 -34.67607270 0 3267.49989454 0 338.61535195 0 397.43640584 0 29211
0.16750000 0.16749900 8730.76841370 0 -91.18771757 0 2946.27664852 0 235.81104744 0 732.69999808 0 30922
0.16850000 0.16850800 8805.88909063 0 -10.27548378 0 2832.30350868 0 314.31232120 0 540.68365091 0 30867
0.16950000 0.16949900 8771.43983291 0 8.06321145 0 2630.66554816 0 322.33347483 0 978.29126298 0 30852
0.17050000 0.17049200 8701.05509708 0 45.51128482 0 2360.82781761 0 225.82897018 0 958.48127611 0 31257
0.17150000 0.17149500 8780.77862074 0 -8.94593763 0 2035.05718085 0 383.50475336 0 1024.44949732 0 32608
0.17250000 0.17250900 8627.50937011 0 60.79639607 0 2016.94525623 0 30.40474184 0 1060.54801603 0 32361
0.17350000 0.17350400 8568.88130305 0 160.20457608 0 1899.47838935 0 -151.75973872 0 305.46930987 0 32508
0.17450000 0.17449800 8290.24825331 0 213.26375316 0 2066.00162033 0 -329.98085512 0 752.40240033 0 32791
0.17550000 0.17549800 8171.32843963 0 132.32352519 0 1916.17064076 0 -12.88830359 0 403.56318304 0 33633
0.17650000 0.17650100 8018.08137140 0 72.19226820 0 2110.46622890 0 154.53364708 0 497.00651733 0 33984
0.17750000 0.17750300 7943.35997756 0 19.41203472 0 1731.75730910 0 301.79146896 0 56.30268672 0 34069
0.17850000 0.17849800 7900.30395101 0 87.17791713 0 1796.07516020 0 304.56648644 0 615.59248598 0 34536
