### header ###
fiducial parameters:
Omega_m = 0.31
Omega_nu = 0
Omega_de = 0.69
Omega_k = 0
H_0 = 100
w_de = -1
zeff = 0
beta = 0
fgrowth = 0
b_1 = 2
gamma = 0.55
Lx = 3500 Ly = 3500 Lz = 3500
nx = 700 ny = 700 nz = 700
xoffset = 1379.75464 yoffset = 22.6059522 zoffset = 368.141391
bins = 400 dk = 0.001
kx_ny = 0.628318531 ky_ny = 0.628318531 kz_ny = 0.628318531
############################
A(data) = 3.34256899 (not used)
A(ran) = 3.34290343 (used)
Ngal = 187634
weighted Ngal = 0
Nran = 9399747
weighted Nran = 0
SN(data) = 6684.07584
SN(ran) = 132.965264
SN(data+ran) = 6817.0411
############################
13 columns: k_central k_mean P_0(k) sigma^{lin}_{P_0(k)} P^img_1(k) sigma^{lin}_{P_1(k)} P_2(k) sigma^{lin}_{P_2(k)} P^img_3(k) sigma^{lin}_{P_3(k)} P_4(k) sigma^{lin}_{P_4(k)} N_modes
### header ###
0.00050000 0 0 0 0 0 0 0 0 0 0 0 0
0.00150000 0.00179520 80064.35614604 0 -36304.59314668 0 -88790.46625703 0 87871.78241381 0 -75612.90425087 0 3
0.00250000 0.00253879 116544.07929253 0 -10074.77747749 0 4941.63843549 0 -98298.39484089 0 78060.28776947 0 6
0.00350000 0.00331552 99170.38474496 0 19560.76767379 0 -35459.55485119 0 -37064.00740172 0 26114.88868641 0 7
0.00450000 0.00420575 68088.52532923 0 20391.72014915 0 1596.17851761 0 -22491.39464342 0 17560.35939221 0 24
0.00550000 0.00557378 44884.41036991 0 3171.15066665 0 -9077.97833417 0 9674.84000674 0 -9535.60112025 0 45
0.00650000 0.00659388 41560.82229241 0 -5910.86486321 0 3115.75013789 0 -968.75061537 0 -8406.67254768 0 40
0.00750000 0.00754703 49613.58583667 0 -6273.76882735 0 -34984.07523802 0 7357.85569066 0 13413.36085327 0 57
0.00850000 0.00846663 55308.58273367 0 -8703.88335230 0 -28228.98173671 0 -2430.55817282 0 -7328.24219481 0 75
0.00950000 0.00948925 66728.63367141 0 -4521.20443278 0 -36878.22985284 0 -4544.00793370 0 23792.94660530 0 112
0.01050000 0.01054430 64648.36877180 0 -260.58656318 0 -20882.61652608 0 -5607.74245061 0 9306.72318003 0 105
0.01150000 0.01145670 68165.38732408 0 3056.01295113 0 -7673.26714948 0 -4822.78516900 0 42242.70908079 0 144
0.01250000 0.01249090 67589.08873065 0 -130.76964850 0 6873.50311993 0 1573.45265506 0 39134.29022408 0 169
0.01350000 0.01339930 68247.46218150 0 4481.85286600 0 23678.92910067 0 5895.45919065 0 66532.87404527 0 180
0.01450000 0.01448870 69249.44091380 0 4454.95671340 0 47610.40475585 0 1270.68516077 0 58260.72662538 0 267
0.01550000 0.01550050 59460.01775139 0 3155.43444057 0 50503.09983191 0 6979.45732438 0 67094.53225873 0 238
0.01650000 0.01653350 67936.46501907 0 -4004.80939406 0 64837.80641568 0 25131.87590089 0 81780.49704984 0 315
0.01750000 0.01747870 74359.93173163 0 -3594.04691509 0 53806.61284294 0 23603.28713748 0 85624.81682406 0 297
0.01850000 0.01844180 76410.25039948 0 4090.17833697 0 54556.82140452 0 10252.55827338 0 73458.55015565 0 388
0.01950000 0.01947590 73878.01922423 0 3590.90810635 0 58003.29994421 0 5814.78182404 0 82118.00217298 0 399
0.02050000 0.02045430 75049.80418181 0 -2797.49933266 0 53185.17307793 0 19409.70557136 0 83059.09023403 0 462
0.02150000 0.02154770 76752.19200140 0 -1936.61171674 0 50420.02676677 0 14454.49151080 0 71228.99774512 0 571
0.02250000 0.02255340 74314.45782415 0 2249.72729778 0 36162.29308983 0 1943.86535954 0 46945.48749880 0 510
0.02350000 0.02348930 73179.16290453 0 4137.31592400 0 40360.31113473 0 1440.69102759 0 57812.97500458 0 555
0.02450000 0.02439640 68085.41979408 0 3821.70482365 0 37533.16503263 0 -3806.01077996 0 28622.38649246 0 592
0.02550000 0.02547300 70156.03535235 0 -1985.37970972 0 41047.41078568 0 9213.30202813 0 40636.70376268 0 837
0.02650000 0.02652900 65735.86063257 0 1836.54693787 0 42028.09441984 0 -897.45196490 0 18661.60433720 0 723
0.02750000 0.02749970 68493.90857769 0 1521.86749805 0 28560.27578955 0 2558.49512962 0 17873.57479403 0 826
0.02850000 0.02848090 65826.58662361 0 504.13372049 0 45711.92457422 0 -2786.16412938 0 11257.78672638 0 831
0.02950000 0.02946900 66624.04368419 0 2646.08231192 0 35743.37858110 0 1607.35844413 0 11619.47065887 0 996
0.03050000 0.03053250 63031.93772857 0 -933.73237924 0 35209.78109592 0 5126.30686468 0 11985.70198210 0 1041
0.03150000 0.03150510 65886.03543925 0 -763.86847974 0 36007.79271634 0 3325.31830423 0 1802.16422733 0 1036
0.03250000 0.03246190 66927.05518481 0 149.58808236 0 29929.37314084 0 5392.49559144 0 9646.46872494 0 1059
0.03350000 0.03345080 66064.38188618 0 3644.86677950 0 38605.12921768 0 -3974.99625667 0 5948.53056804 0 1302
0.03450000 0.03451200 60852.07388036 0 3267.77717446 0 32759.18113021 0 -2722.74466523 0 3211.96627142 0 1339
0.03550000 0.03553350 54293.84912488 0 3233.17263998 0 41750.25993629 0 2201.42513507 0 5521.60821511 0 1365
0.03650000 0.03647120 54475.96657877 0 2794.95944856 0 40489.74540312 0 3546.70968651 0 4466.15882232 0 1308
0.03750000 0.03744890 50507.09266282 0 1433.95867104 0 42518.32532495 0 8309.19201770 0 4868.00397895 0 1579
0.03850000 0.03847530 50619.77922381 0 -1248.65804363 0 34751.60374999 0 6923.57987416 0 11006.69311867 0 1662
0.03950000 0.03950240 47604.30459753 0 387.52642137 0 27287.45002777 0 4990.91662353 0 6645.01337160 0 1683
0.04050000 0.04050350 48638.22597704 0 1587.80466391 0 26588.92644397 0 2588.84064447 0 11884.21753002 0 1822
0.04150000 0.04152450 46055.64076765 0 416.25151235 0 23665.50875236 0 2900.00417485 0 11026.53527001 0 1887
0.04250000 0.04250150 44792.02069934 0 796.71727774 0 21727.21117369 0 2563.14234114 0 3640.79631022 0 1920
0.04350000 0.04349210 43177.47515958 0 1349.35502072 0 17660.29107672 0 -1033.41340269 0 3187.21071983 0 2005
0.04450000 0.04448520 42265.88968241 0 1236.71282451 0 18603.04281731 0 2180.46277284 0 3852.32761842 0 2151
0.04550000 0.04548030 40182.63015962 0 -317.24261543 0 16122.49661984 0 2733.22584634 0 6932.64138206 0 2274
0.04650000 0.04648670 41586.55386933 0 -1142.14927933 0 11141.10733449 0 6626.20270158 0 5177.80329211 0 2311
0.04750000 0.04749250 40593.22627065 0 1445.50460706 0 13165.02895360 0 2630.84300732 0 8928.95701197 0 2568
0.04850000 0.04851840 39808.52408656 0 1143.43585818 0 11402.63775853 0 669.19402259 0 10680.25701009 0 2493
0.04950000 0.04949480 36922.37281669 0 1375.76316065 0 14778.24354972 0 -3117.74655334 0 9557.06258634 0 2644
0.05050000 0.05050630 36243.92429937 0 2243.82678100 0 14842.35066808 0 -861.86142302 0 13150.38857363 0 2829
0.05150000 0.05149060 34350.76789228 0 44.83960193 0 16817.13828471 0 703.17855916 0 11512.88425619 0 2784
0.05250000 0.05249300 35607.95506636 0 -869.05850072 0 18227.60580062 0 3115.57267874 0 13225.91962485 0 3055
0.05350000 0.05348950 36926.92020744 0 -1070.58998574 0 15686.05801993 0 930.38949248 0 7785.57660977 0 3009
0.05450000 0.05448610 38032.04707136 0 205.59197223 0 16165.30864006 0 -409.66334136 0 9923.85956062 0 3336
0.05550000 0.05550870 36393.98819408 0 839.68790208 0 14441.84754628 0 -2482.48715694 0 6586.28548376 0 3349
0.05650000 0.05647670 36485.49056890 0 392.04941149 0 15924.62966629 0 534.87075459 0 8204.94585758 0 3324
0.05750000 0.05747970 37345.05833239 0 66.91119477 0 17816.89877762 0 2061.55405036 0 6339.10706857 0 3639
0.05850000 0.05849280 35224.42147589 0 663.28796021 0 15896.45802604 0 2006.36425434 0 4045.53626926 0 3846
0.05950000 0.05951020 35282.98299578 0 953.10537295 0 13157.26511574 0 1000.38159994 0 5636.01391163 0 3787
0.06050000 0.06049470 32906.13948977 0 1032.42961352 0 16778.43000736 0 -21.21490879 0 5752.52693557 0 3930
0.06150000 0.06148310 31336.18056175 0 1824.23570926 0 15261.15426485 0 -1552.52356642 0 4388.46498770 0 4083
0.06250000 0.06249100 30457.09229164 0 716.59336187 0 16083.67743053 0 -1445.00550320 0 3320.41599518 0 4303
0.06350000 0.06350600 29291.29658041 0 320.32818642 0 18810.33728828 0 952.33231652 0 2953.88520963 0 4470
0.06450000 0.06451750 29078.56742294 0 -397.99651129 0 15233.09353657 0 2224.04008565 0 745.80757463 0 4479
0.06550000 0.06550280 29779.08742219 0 -126.98755034 0 14988.42173189 0 251.17679169 0 1345.36218982 0 4636
0.06650000 0.06648880 29751.80307770 0 266.49373467 0 12843.27333013 0 710.12608493 0 -816.51173693 0 4653
0.06750000 0.06749660 29594.75172891 0 -281.79958646 0 13811.53482371 0 1735.75014000 0 458.86500014 0 5220
0.06850000 0.06852730 29298.06221055 0 531.22285991 0 11034.15492232 0 284.02448057 0 -206.37944721 0 5029
0.06950000 0.06949320 29030.65345213 0 456.25302326 0 11754.00687785 0 68.58729646 0 -1787.37966180 0 5040
0.07050000 0.07048030 28749.15887358 0 -59.45558127 0 11415.50354699 0 731.45778402 0 -1506.77237901 0 5475
0.07150000 0.07148790 28063.83381415 0 -95.09869543 0 8627.30972857 0 1742.27176381 0 -410.07038829 0 5509
0.07250000 0.07249820 28344.88474482 0 -114.54211824 0 8224.47745541 0 1191.13909625 0 -345.31665315 0 5916
0.07350000 0.07351270 28068.15938096 0 349.21853623 0 7103.21289993 0 1529.09895846 0 -1199.11366686 0 5721
0.07450000 0.07449140 27850.43918486 0 675.99847192 0 7560.33658215 0 151.52349623 0 1688.10235791 0 6028
0.07550000 0.07549160 26447.95733076 0 675.22097901 0 8410.01099796 0 -694.99547405 0 1624.28361067 0 6183
0.07650000 0.07648840 26191.08520944 0 586.98163433 0 8560.41871977 0 167.16208392 0 2384.15260479 0 6330
0.07750000 0.07749960 25796.79315793 0 -195.84613747 0 9193.58187996 0 681.80582264 0 3838.26398069 0 6583
0.07850000 0.07848650 25795.12947839 0 263.47914734 0 9565.85790552 0 571.05578463 0 3755.29073632 0 6549
0.07950000 0.07947320 25952.29173915 0 407.54270450 0 10231.49609037 0 14.81440085 0 4596.10328577 0 6828
0.08050000 0.08048110 25028.72776927 0 807.36704505 0 9695.19235314 0 -1245.55250848 0 3091.63787573 0 7147
0.08150000 0.08149960 24275.19184861 0 447.56307045 0 11682.91230541 0 288.22249861 0 6538.14968901 0 7386
0.08250000 0.08250610 24043.05309648 0 -0.90629498 0 11458.98103903 0 596.62321184 0 3941.31229154 0 7227
0.08350000 0.08350160 23669.94523114 0 78.35731002 0 10036.72358076 0 1506.97202055 0 4211.07238371 0 7798
0.08450000 0.08449610 23552.93310334 0 319.84682847 0 10936.60784516 0 -112.17747505 0 4403.11645887 0 7371
0.08550000 0.08548940 22921.17852517 0 604.01327636 0 9707.08211627 0 446.56486273 0 4745.67916781 0 8256
0.08650000 0.08650700 22339.22342129 0 531.11416618 0 10775.96294856 0 531.05649196 0 4643.06341365 0 8037
0.08750000 0.08749060 21509.82371350 0 175.19765611 0 10016.14941043 0 425.18879885 0 4491.54657214 0 8155
0.08850000 0.08849210 21427.63794412 0 93.86790531 0 8392.67545713 0 1559.68847965 0 5442.60561925 0 8718
0.08950000 0.08949900 21714.67812114 0 -91.91530009 0 9071.85599345 0 1029.40393500 0 5527.16490478 0 8571
0.09050000 0.09049190 21290.21801393 0 -195.56442107 0 6529.84238249 0 675.78884829 0 4907.20026897 0 8932
0.09150000 0.09150830 21454.92228861 0 367.37260740 0 7480.22486659 0 181.90783027 0 4449.01183184 0 9285
0.09250000 0.09250820 20792.33418292 0 600.53729524 0 6518.91755350 0 -980.40635424 0 3575.48025140 0 9204
0.09350000 0.09350330 19969.70010527 0 636.27756829 0 8252.44945411 0 -1077.00735230 0 2530.64513409 0 9349
0.09450000 0.09448040 19712.82798395 0 487.36050334 0 7647.90158206 0 2.24644430 0 1356.67521071 0 9564
0.09550000 0.09549270 18810.00455237 0 40.92163661 0 7490.09603188 0 814.82920236 0 1581.71559679 0 10155
0.09650000 0.09649430 18556.34887816 0 227.53812363 0 7134.44571054 0 52.06962049 0 -167.17650248 0 9913
0.09750000 0.09749140 18539.60117077 0 314.48090739 0 6386.79921545 0 1241.12712090 0 1632.45782282 0 10476
0.09850000 0.09850240 17569.12143780 0 491.08603640 0 6322.44809076 0 373.52489434 0 893.42031481 0 10575
0.09950000 0.09950330 17502.90699202 0 -15.52889576 0 5508.52060271 0 637.41885245 0 2374.70290499 0 10882
0.10050000 0.10051200 17012.56517494 0 49.14875377 0 4862.11455337 0 1026.21410675 0 1118.78012736 0 10875
0.10150000 0.10150300 16666.96347803 0 355.19114579 0 4775.21502528 0 -497.54998598 0 390.15503505 0 11118
0.10250000 0.10250800 16479.96589749 0 332.26009610 0 4492.31186473 0 -220.27893523 0 1707.16812547 0 11575
0.10350000 0.10349800 15994.61511903 0 206.84860484 0 4754.89595248 0 -343.82155980 0 -951.53264122 0 11364
0.10450000 0.10450100 15800.74099638 0 63.36101354 0 4431.87593256 0 233.72590241 0 288.63398202 0 12093
0.10550000 0.10551000 15910.43293419 0 88.53181954 0 4829.04060407 0 355.72685060 0 -180.70110804 0 12067
0.10650000 0.10649700 15588.12275088 0 263.18523062 0 3826.01929926 0 393.72529135 0 562.16840852 0 12054
0.10750000 0.10749900 15094.89722259 0 451.09783492 0 5075.12099076 0 -425.15108878 0 1061.16912306 0 12807
0.10850000 0.10850100 14651.36025663 0 278.95358533 0 4935.61591555 0 -170.81330596 0 220.91335170 0 12736
0.10950000 0.10950300 14680.19736870 0 174.24270406 0 5728.96923326 0 -202.32450561 0 1214.95189610 0 12933
0.11050000 0.11050200 14268.15940207 0 46.65046166 0 5651.59704335 0 -104.23351615 0 115.91964490 0 13428
0.11150000 0.11150900 14575.94011738 0 64.65502349 0 6298.62419971 0 -46.78533061 0 1041.95029698 0 13453
0.11250000 0.11250000 14357.66536144 0 138.76972886 0 6033.66659582 0 -236.60184978 0 -392.00504670 0 13668
0.11350000 0.11349100 14463.36446836 0 23.30937042 0 6071.04392953 0 606.68514571 0 846.81954171 0 13791
0.11450000 0.11448600 14293.00368324 0 -27.55386058 0 5712.19934347 0 720.66937675 0 715.58295383 0 14205
0.11550000 0.11549300 14309.08591881 0 -73.38534826 0 5184.89056696 0 637.02955144 0 1115.86314257 0 14776
0.11650000 0.11649800 14340.91765405 0 136.83098763 0 5387.69310316 0 316.66365495 0 1387.67510618 0 14553
0.11750000 0.11747300 14101.79144785 0 120.67000456 0 4560.93310025 0 -9.07345313 0 1349.77648620 0 14568
0.11850000 0.11849100 13975.79545052 0 129.11595103 0 5055.25665703 0 87.75177566 0 1940.43817968 0 16015
0.11950000 0.11950300 13787.79966224 0 -76.31298060 0 4476.15199077 0 446.41513157 0 1420.39413717 0 15270
0.12050000 0.12050700 13983.00472853 0 26.29467699 0 4665.44544909 0 149.78328743 0 1403.36914986 0 15999
0.12150000 0.12150000 13986.33208762 0 220.74476550 0 4508.73792741 0 -324.80570263 0 825.34365706 0 15670
0.12250000 0.12250700 13598.25110640 0 236.06725409 0 4999.44575399 0 -717.91210518 0 836.38827099 0 16887
0.12350000 0.12352200 13410.80987797 0 264.21893018 0 5048.03628782 0 -55.37845727 0 155.73926019 0 16407
0.12450000 0.12449800 13219.93037849 0 13.38785110 0 5265.71211912 0 -296.04290158 0 110.12205444 0 16306
0.12550000 0.12549900 13254.53491297 0 3.77769495 0 5090.08301545 0 321.30975735 0 -499.72607882 0 17523
0.12650000 0.12650100 13266.73522962 0 92.54028903 0 5037.66601867 0 476.20386833 0 36.61525757 0 17154
0.12750000 0.12750600 13018.40332995 0 122.68860240 0 4315.97292445 0 295.77560374 0 -331.38167330 0 18007
0.12850000 0.12850300 12955.95989113 0 83.73099495 0 4380.65678505 0 353.38771716 0 -446.34636615 0 17496
0.12950000 0.12949900 12720.16104401 0 138.03327338 0 4375.92084395 0 -177.66655655 0 104.40642791 0 18405
0.13050000 0.13049000 12560.00416008 0 187.17836706 0 3856.90828276 0 330.54428793 0 -365.86753197 0 18100
0.13150000 0.13148800 12494.45518611 0 -119.49988328 0 4120.75676696 0 271.34835158 0 204.89211770 0 19059
0.13250000 0.13249300 12568.10073385 0 -13.04058572 0 3296.01536189 0 486.77045166 0 -647.01606517 0 18957
0.13350000 0.13349100 12550.46573070 0 198.18638003 0 3681.53427661 0 -40.51736248 0 133.62895907 0 19468
0.13450000 0.13450700 12232.81385010 0 127.30475857 0 3042.62587641 0 -21.59433863 0 -112.27507759 0 19953
0.13550000 0.13551000 12294.92455301 0 94.46927001 0 3642.33798660 0 253.53810752 0 777.46295984 0 19956
0.13650000 0.13649900 12037.71969578 0 -0.75107035 0 3159.12780916 0 208.65314259 0 186.70366383 0 19723
0.13750000 0.13749600 11999.45506631 0 146.74762682 0 3332.91577414 0 364.58317136 0 492.99594051 0 20946
0.13850000 0.13851100 11791.60603550 0 222.84987468 0 3171.13957545 0 -104.06759185 0 1327.09498845 0 20955
0.13950000 0.13949800 11660.17535167 0 80.67925210 0 3033.27599738 0 15.03345199 0 803.07253359 0 20506
0.14050000 0.14048300 11611.48499706 0 58.91987646 0 3373.06590709 0 109.56394541 0 874.41000324 0 21447
0.14150000 0.14148400 11389.66105810 0 58.63028531 0 2859.41039402 0 143.09085919 0 394.86768463 0 21771
0.14250000 0.14249400 11198.55973468 0 254.47198630 0 3015.53008227 0 -82.32818036 0 1039.68547457 0 22470
0.14350000 0.14350900 11064.41170759 0 126.96758618 0 2944.83479292 0 -8.74365638 0 605.40743982 0 22519
0.14450000 0.14449900 10960.95302246 0 155.89897342 0 3309.19170387 0 -115.91520843 0 594.55359449 0 22218
0.14550000 0.14550500 10713.12022665 0 158.74941104 0 3063.54387386 0 169.63431172 0 536.06749474 0 23559
0.14650000 0.14650700 10574.76863592 0 34.98352068 0 3031.70104742 0 437.19723778 0 751.43968444 0 23044
0.14750000 0.14750500 10447.16441503 0 33.23044609 0 2855.97212297 0 82.99010299 0 692.84045448 0 23649
0.14850000 0.14849900 10471.80905465 0 189.57073824 0 2794.92617497 0 27.42276263 0 494.94577293 0 23640
0.14950000 0.14949500 10208.99205176 0 76.14117796 0 2868.03934525 0 53.98961759 0 780.20026725 0 24457
0.15050000 0.15050000 10211.59848305 0 -40.11708119 0 2336.47154911 0 52.37119013 0 333.24721263 0 24591
0.15150000 0.15149900 10094.17598096 0 119.10392755 0 2502.58440581 0 251.85779118 0 216.60663992 0 25020
0.15250000 0.15250500 10059.49380810 0 132.00520784 0 2415.26341223 0 -305.15764723 0 -191.78010467 0 25297
0.15350000 0.15350100 9857.36783491 0 110.87769768 0 2392.03844582 0 68.25688970 0 -121.59168302 0 25452
0.15450000 0.15450400 9620.49314169 0 127.64747656 0 2315.83083159 0 150.09051358 0 210.09277995 0 26061
0.15550000 0.15549900 9595.04993589 0 29.52654087 0 2019.66259948 0 332.30667912 0 -25.24212240 0 26128
0.15650000 0.15649500 9657.10518282 0 -21.38804237 0 1945.57340387 0 424.89266389 0 459.61476506 0 26331
0.15750000 0.15749700 9472.31475046 0 93.71285037 0 2047.29077108 0 13.68698068 0 299.74736136 0 27345
0.15850000 0.15849900 9436.35708996 0 175.07676207 0 2100.33996608 0 -162.49269001 0 900.21145470 0 26980
0.15950000 0.15949700 9318.02510972 0 132.86588472 0 2007.36246207 0 -154.57690275 0 103.78398994 0 27777
0.16050000 0.16050000 9040.01316701 0 130.68313716 0 2532.61936714 0 -305.27299568 0 586.18528639 0 28224
0.16150000 0.16150500 9074.77297825 0 111.33343497 0 2386.92540403 0 -68.77396130 0 144.90981549 0 28075
0.16250000 0.16249700 8889.21725330 0 76.18432272 0 2660.10158486 0 102.38350450 0 114.34025846 0 28590
0.16350000 0.16349900 9030.87402073 0 -74.37923041 0 2235.25328576 0 475.81789468 0 442.53875823 0 29163
0.16450000 0.16449100 8869.68565548 0 -6.15656815 0 2105.68592301 0 148.14733588 0 -137.30125438 0 28996
0.16550000 0.16550500 8987.68489981 0 157.93753542 0 2127.24720988 0 -189.88461911 0 421.52981297 0 30777
0.16650000 0.16650700 8680.96893940 0 150.77484043 0 1902.32882697 0 -227.76882053 0 -402.73799799 0 29211
0.16750000 0.16749900 8549.40516120 0 138.01220011 0 2392.23808737 0 -9.19406989 0 326.29857774 0 30922
0.16850000 0.16850800 8445.45846341 0 20.42876475 0 1898.71309676 0 217.22441959 0 -78.50083011 0 30867
0.16950000 0.16949900 8517.87288828 0 16.62681335 0 2040.76914728 0 187.94698701 0 33.59689924 0 30852
0.17050000 0.17049200 8289.86006142 0 72.91552515 0 1836.59130266 0 108.25917700 0 -431.53739998 0 31257
0.17150000 0.17149500 8350.32926718 0 129.48972437 0 1993.78683700 0 -398.15955189 0 -486.98673000 0 32608
0.17250000 0.17250900 8049.09235807 0 213.76396614 0 2094.20653417 0 -385.40689363 0 -276.11978450 0 32361
0.17350000 0.17350400 8018.61374885 0 45.96824214 0 2300.48061502 0 -36.46097902 0 -1099.17865500 0 32508
0.17450000 0.17449800 7832.07090738 0 64.69129170 0 2327.99787464 0 11.08619482 0 -849.83301993 0 32791
0.17550000 0.17549800 7753.62287137 0 173.15022116 0 2419.12314877 0 156.03317691 0 -852.61801948 0 33633
0.17650000 0.17650100 7665.72513555 0 73.16485526 0 2416.90490938 0 147.08258097 0 -342.08578747 0 33984
0.17750000 0.17750300 7571.39450551 0 54.02666219 0 2278.15403556 0 -35.87758206 0 -569.45532491 0 34069
0.17850000 0.17849800 7576.72937124 0 27.34157507 0 2362.71332109 0 76.01163278 0 -67.31713258 0 34536
