### header ###
fiducial parameters:
Omega_m = 0.31
Omega_nu = 0
Omega_de = 0.69
Omega_k = 0
H_0 = 100
w_de = -1
zeff = 0
beta = 0
fgrowth = 0
b_1 = 2
gamma = 0.55
Lx = 3500 Ly = 3500 Lz = 3500
nx = 700 ny = 700 nz = 700
xoffset = 1379.75464 yoffset = 22.6059522 zoffset = 368.141391
bins = 400 dk = 0.001
kx_ny = 0.628318531 ky_ny = 0.628318531 kz_ny = 0.628318531
############################
A(data) = 3.39797265 (not used)
A(ran) = 3.4095362 (used)
Ngal = 192137
weighted Ngal = 0
Nran = 9399747
weighted Nran = 0
SN(data) = 6523.53914
SN(ran) = 135.615608
SN(data+ran) = 6659.15475
############################
13 columns: k_central k_mean P_0(k) sigma^{lin}_{P_0(k)} P^img_1(k) sigma^{lin}_{P_1(k)} P_2(k) sigma^{lin}_{P_2(k)} P^img_3(k) sigma^{lin}_{P_3(k)} P_4(k) sigma^{lin}_{P_4(k)} N_modes
### header ###
0.00050000 0 0 0 0 0 0 0 0 0 0 0 0
0.00150000 0.00179520 94791.35836586 0 -14946.94065530 0 21411.00114870 0 45703.38435257 0 259164.67173003 0 3
0.00250000 0.00253879 90984.85957323 0 -14743.86083918 0 18013.98934739 0 -11479.16701747 0 -137037.28389376 0 6
0.00350000 0.00331552 119949.07675564 0 -19240.78664184 0 -6424.08781959 0 63351.80784855 0 105948.54793593 0 7
0.00450000 0.00420575 132121.66540631 0 -9719.43770967 0 9035.93160654 0 18747.11746567 0 -31167.70528011 0 24
0.00550000 0.00557378 130836.19568001 0 18441.00042990 0 19487.67668591 0 -2507.33143810 0 55211.97840825 0 45
0.00650000 0.00659388 101796.66927033 0 16780.42642281 0 70267.05823380 0 1248.41403729 0 -39455.38037573 0 40
0.00750000 0.00754703 92044.51252967 0 13705.39206892 0 43161.39292401 0 42878.45648986 0 84102.21730701 0 57
0.00850000 0.00846663 83760.83026495 0 -4860.65051538 0 31202.64255050 0 37114.02869996 0 30990.02430500 0 75
0.00950000 0.00948925 84083.80592008 0 -7558.16270755 0 12252.44526870 0 32917.89615854 0 56723.48672836 0 112
0.01050000 0.01054430 95199.18167765 0 -3759.47211757 0 -20890.04762804 0 16554.49874098 0 17910.28665593 0 105
0.01150000 0.01145670 97094.55632413 0 -7333.00031830 0 643.72087056 0 -17793.93999994 0 35686.81347666 0 144
0.01250000 0.01249090 106273.63091848 0 -220.25231636 0 -20873.52174459 0 -16247.16167354 0 -2392.70391764 0 169
0.01350000 0.01339930 97979.19019272 0 3381.85013507 0 3029.49389923 0 -11712.85853717 0 -3893.78651261 0 180
0.01450000 0.01448870 96680.63285402 0 11451.10628919 0 36609.82288669 0 -33847.89302265 0 -8825.79778915 0 267
0.01550000 0.01550050 91552.06338516 0 8832.86288161 0 47443.37132981 0 -7999.15978941 0 -20368.65045950 0 238
0.01650000 0.01653350 84839.89281604 0 1746.48641865 0 66929.38433617 0 11483.93623216 0 -4916.79415433 0 315
0.01750000 0.01747870 79399.99344884 0 9.58585533 0 46116.42052692 0 10005.59059093 0 -25320.09351310 0 297
0.01850000 0.01844180 84350.88194259 0 -444.58730231 0 51361.00391586 0 4995.53056146 0 -3348.72072979 0 388
0.01950000 0.01947590 81960.61808828 0 4987.58926445 0 54344.42498296 0 7172.88779916 0 -2975.47977009 0 399
0.02050000 0.02045430 75617.11890571 0 4644.97109952 0 44959.94142113 0 10559.99516158 0 14627.84691910 0 462
0.02150000 0.02154770 70086.27172354 0 1546.98905914 0 35146.89400922 0 12510.64833366 0 7612.45411661 0 571
0.02250000 0.02255340 69254.65377637 0 -145.58305114 0 30084.98263402 0 10731.13233050 0 4093.29496332 0 510
0.02350000 0.02348930 67096.75049812 0 800.43282872 0 17144.66133059 0 11119.47950044 0 8523.51830753 0 555
0.02450000 0.02439640 62036.39189049 0 238.14796263 0 21441.94558818 0 -1477.56925744 0 3378.78896472 0 592
0.02550000 0.02547300 65252.72809351 0 -117.74414680 0 10071.47230080 0 1110.47282085 0 3971.05888175 0 837
0.02650000 0.02652900 64993.30499689 0 1683.86552068 0 11785.39496521 0 351.19498753 0 -8262.70881129 0 723
0.02750000 0.02749970 63294.57727230 0 3608.89802780 0 14118.42824327 0 -5964.53516524 0 2890.95375815 0 826
0.02850000 0.02848090 56430.45730498 0 3982.08353152 0 17655.96550991 0 -2888.86861312 0 -5113.50762340 0 831
0.02950000 0.02946900 55420.27108694 0 3469.07130787 0 29761.89606692 0 -682.96707096 0 8465.15642919 0 996
0.03050000 0.03053250 50519.29297946 0 180.55581336 0 30554.02935296 0 944.86572274 0 4022.34457644 0 1041
0.03150000 0.03150510 52300.20647344 0 2916.04204564 0 36512.66400143 0 1762.21373592 0 6354.95638901 0 1036
0.03250000 0.03246190 51075.29468247 0 719.67227814 0 37871.33562758 0 1829.57057499 0 19209.39855447 0 1059
0.03350000 0.03345080 49735.03444325 0 -1051.12715334 0 35718.53429993 0 7881.18272747 0 10752.19451350 0 1302
0.03450000 0.03451200 50272.29202342 0 -468.56536099 0 30690.00742755 0 6848.88066271 0 22990.83124200 0 1339
0.03550000 0.03553350 52651.02103291 0 -848.93019649 0 23412.40763800 0 6104.52825312 0 15864.29355489 0 1365
0.03650000 0.03647120 55985.14574751 0 -1504.21031251 0 23570.67901845 0 6829.62634481 0 18725.48963162 0 1308
0.03750000 0.03744890 52665.10685303 0 1552.16864812 0 21818.38081260 0 -997.64983813 0 10006.91044337 0 1579
0.03850000 0.03847530 51726.34794333 0 2938.54608425 0 19393.06877594 0 -2046.91367039 0 14238.10225834 0 1662
0.03950000 0.03950240 46581.14167905 0 2687.84066843 0 22826.23787929 0 -3253.84663109 0 8358.24838180 0 1683
0.04050000 0.04050350 43323.10257551 0 2602.44954313 0 22319.37017876 0 251.59382069 0 6200.27855637 0 1822
0.04150000 0.04152450 41459.55966427 0 -382.43112549 0 21892.58092019 0 7314.82184650 0 4112.01690377 0 1887
0.04250000 0.04250150 40291.54571366 0 -782.30981291 0 16253.59456777 0 5145.32826745 0 3324.34227890 0 1920
0.04350000 0.04349210 42164.95979018 0 597.89204477 0 15911.65296586 0 1319.49751854 0 11207.09995633 0 2005
0.04450000 0.04448520 40931.72960151 0 219.68222883 0 10780.85416641 0 907.45955191 0 1862.73325386 0 2151
0.04550000 0.04548030 40654.44967780 0 1049.44129140 0 15563.50029365 0 -1731.60203234 0 7749.68549645 0 2274
0.04650000 0.04648670 38999.19944525 0 587.07258215 0 13219.26490668 0 -153.38570820 0 597.56707270 0 2311
0.04750000 0.04749250 39844.45956467 0 -325.11292878 0 16250.93268051 0 -56.45397064 0 5484.86307962 0 2568
0.04850000 0.04851840 39809.52229429 0 -146.53245760 0 13459.61114455 0 675.88090523 0 -1231.26704681 0 2493
0.04950000 0.04949480 41261.24906284 0 92.37647205 0 15110.31398635 0 350.37978455 0 -601.65750613 0 2644
0.05050000 0.05050630 39939.40021055 0 219.69332003 0 15365.07878025 0 -238.52839069 0 -710.64958942 0 2829
0.05150000 0.05149060 39165.01283962 0 1370.96067238 0 16612.94934890 0 -1742.87068844 0 599.06882076 0 2784
0.05250000 0.05249300 39678.53525833 0 -11.13256711 0 14452.71691929 0 940.10981749 0 -4060.60920591 0 3055
0.05350000 0.05348950 38071.19899659 0 604.20071759 0 16321.91634097 0 1570.94604455 0 -4401.03131384 0 3009
0.05450000 0.05448610 37648.06983302 0 641.40281040 0 12997.33005574 0 2150.91582417 0 -35.59919302 0 3336
0.05550000 0.05550870 36283.74169642 0 552.27173348 0 12883.86711096 0 2387.95688535 0 680.05230440 0 3349
0.05650000 0.05647670 35783.97236193 0 346.76183611 0 9993.23499753 0 2694.69502815 0 1968.94255584 0 3324
0.05750000 0.05747970 34786.98466825 0 0.14913223 0 8304.56698857 0 2875.04898172 0 2240.32196277 0 3639
0.05850000 0.05849280 34454.02693587 0 627.58650636 0 9395.15329329 0 -185.54907023 0 2457.63178457 0 3846
0.05950000 0.05951020 33536.11947643 0 1019.36196528 0 6571.17927352 0 477.08783673 0 4570.27188808 0 3787
0.06050000 0.06049470 32250.87157407 0 432.65982911 0 9697.08894782 0 -465.99663978 0 4238.78928488 0 3930
0.06150000 0.06148310 31650.72690720 0 933.57155688 0 8231.91964856 0 -291.64080551 0 4111.66198546 0 4083
0.06250000 0.06249100 31120.56769308 0 338.16837671 0 8750.05600519 0 1246.71708416 0 3613.20141222 0 4303
0.06350000 0.06350600 30194.12001199 0 289.88285080 0 9459.62642115 0 384.10589623 0 4756.68163518 0 4470
0.06450000 0.06451750 29831.99243163 0 520.74389704 0 8515.44391615 0 1392.23358812 0 4684.96595572 0 4479
0.06550000 0.06550280 29062.48518737 0 161.36693352 0 8847.27034645 0 512.44213612 0 5071.84908766 0 4636
0.06650000 0.06648880 29118.82846786 0 342.45179697 0 7415.27481726 0 729.35489308 0 4723.17512920 0 4653
0.06750000 0.06749660 28987.61960797 0 -391.76325861 0 8356.51815508 0 490.75551873 0 3013.42275485 0 5220
0.06850000 0.06852730 28939.81654912 0 175.88641944 0 5663.45353288 0 -815.83628304 0 3252.42695788 0 5029
0.06950000 0.06949320 28425.07409875 0 905.84356451 0 7439.34271464 0 -1468.67411749 0 -290.92985979 0 5040
0.07050000 0.07048030 27677.52742444 0 1103.70386335 0 8634.11972350 0 -1987.97504980 0 -484.48344685 0 5475
0.07150000 0.07148790 26556.42923692 0 562.92926463 0 9149.35018653 0 -773.57327707 0 -2106.82831630 0 5509
0.07250000 0.07249820 26517.61004760 0 85.77188610 0 11561.68552277 0 77.51138443 0 -1821.99528747 0 5916
0.07350000 0.07351270 26818.95786868 0 -442.19825849 0 10102.49437867 0 1424.73079518 0 -3080.73522913 0 5721
0.07450000 0.07449140 26724.01722280 0 -217.80892567 0 9541.34636027 0 1876.57506765 0 -1117.60446049 0 6028
0.07550000 0.07549160 26559.20203615 0 382.47770852 0 8313.30685177 0 272.84455405 0 -413.14264984 0 6183
0.07650000 0.07648840 26798.99371417 0 471.45461780 0 8984.60154706 0 631.10685227 0 1739.01095191 0 6330
0.07750000 0.07749960 26020.83533629 0 124.43657504 0 8170.78497098 0 1430.66458555 0 891.95627682 0 6583
0.07850000 0.07848650 25779.82362660 0 263.32497971 0 8492.52950325 0 825.43460488 0 2241.74163598 0 6549
0.07950000 0.07947320 25369.22751558 0 264.84447369 0 6787.86798830 0 495.70884728 0 3146.31747668 0 6828
0.08050000 0.08048110 25177.46072034 0 326.67456931 0 7162.48425642 0 331.36836386 0 2343.83610389 0 7147
0.08150000 0.08149960 24559.01557851 0 -306.94554818 0 6767.60437147 0 1844.48823488 0 4403.84847787 0 7386
0.08250000 0.08250610 24341.40629439 0 107.74687461 0 4715.65529767 0 876.87113985 0 3611.41572951 0 7227
0.08350000 0.08350160 24489.69559758 0 575.85716379 0 6345.28486528 0 -70.05310904 0 3916.96711423 0 7798
0.08450000 0.08449610 23648.76104497 0 760.50341059 0 5171.22621232 0 -830.01748746 0 3945.83749989 0 7371
0.08550000 0.08548940 22644.89680919 0 414.58228721 0 6696.55416382 0 -308.86321614 0 3818.97638920 0 8256
0.08650000 0.08650700 22453.35183789 0 -1.32352362 0 6130.17110046 0 533.75054370 0 4569.69514583 0 8037
0.08750000 0.08749060 22660.31357294 0 -178.07471260 0 6602.32335455 0 884.50410159 0 3357.63805214 0 8155
0.08850000 0.08849210 23024.21574482 0 114.46447986 0 6181.54552473 0 141.08335254 0 3516.78563715 0 8718
0.08950000 0.08949900 22692.25622015 0 375.10982639 0 6556.54998474 0 -684.37454385 0 3061.78037354 0 8571
0.09050000 0.09049190 21899.45746230 0 496.00941872 0 7094.12920963 0 -1314.83921582 0 2175.56046379 0 8932
0.09150000 0.09150830 21412.11026839 0 741.08605209 0 8216.09251052 0 -871.86790090 0 708.92712654 0 9285
0.09250000 0.09250820 20703.05004749 0 710.58082400 0 8636.39341887 0 -770.94466339 0 307.98146598 0 9204
0.09350000 0.09350330 19837.93668553 0 328.93273701 0 8834.12727806 0 306.64830410 0 1295.80672185 0 9349
0.09450000 0.09448040 19747.32160646 0 42.53152385 0 8453.03375092 0 1428.02488067 0 560.28179592 0 9564
0.09550000 0.09549270 19602.80331023 0 -4.23146909 0 7788.50468577 0 1516.23317000 0 1202.18592841 0 10155
0.09650000 0.09649430 19139.08036582 0 534.85189955 0 6726.86640508 0 285.82014536 0 1334.43736083 0 9913
0.09750000 0.09749140 18150.18924592 0 758.15429507 0 7615.64838133 0 -516.00462858 0 2687.47465893 0 10476
0.09850000 0.09850240 17519.10013956 0 410.07593389 0 7847.95350141 0 -316.99971822 0 1967.38978827 0 10575
0.09950000 0.09950330 17097.63465553 0 246.23677257 0 7656.75235722 0 388.14309192 0 1510.32156203 0 10882
0.10050000 0.10051200 17042.06775882 0 178.23664408 0 7981.46933027 0 -478.94117574 0 1005.17410614 0 10875
0.10150000 0.10150300 16516.01228757 0 244.35237821 0 7426.02218711 0 49.20310064 0 144.75453873 0 11118
0.10250000 0.10250800 16693.02779086 0 -57.80643120 0 8044.50060253 0 281.27275461 0 941.91324611 0 11575
0.10350000 0.10349800 16325.24370006 0 161.85050971 0 7283.60012709 0 52.12529830 0 -1124.91355928 0 11364
0.10450000 0.10450100 16330.23473869 0 351.66525428 0 7508.82906352 0 215.60177748 0 69.77738189 0 12093
0.10550000 0.10551000 15692.38000219 0 253.80207801 0 7397.15180145 0 356.57976365 0 -541.40790607 0 12067
0.10650000 0.10649700 15398.01963519 0 248.32080847 0 6769.60078692 0 508.62010965 0 1075.65533539 0 12054
0.10750000 0.10749900 15381.16101583 0 59.06927488 0 7588.14221290 0 202.98443183 0 -54.14134517 0 12807
0.10850000 0.10850100 14990.19632340 0 288.35670210 0 6830.53582296 0 66.24450292 0 305.90630303 0 12736
0.10950000 0.10950300 14867.63859712 0 258.83304494 0 7677.95872579 0 -7.04184531 0 643.03987107 0 12933
0.11050000 0.11050200 14452.49509535 0 -139.24775945 0 6095.25601247 0 235.03244541 0 232.72436733 0 13428
0.11150000 0.11150900 14984.87254887 0 -21.09390383 0 7170.43664463 0 590.18255377 0 398.68083814 0 13453
0.11250000 0.11250000 14749.85008553 0 182.87276440 0 6519.33901898 0 -411.22054541 0 -793.75925551 0 13668
0.11350000 0.11349100 14377.74042792 0 382.98457622 0 7215.11198594 0 -369.28362063 0 -96.86751952 0 13791
0.11450000 0.11448600 14150.25997851 0 323.96388078 0 7186.66306577 0 -848.61631562 0 -1218.21270800 0 14205
0.11550000 0.11549300 13782.14315180 0 202.25684931 0 6989.76104635 0 99.91804233 0 -1001.72252565 0 14776
0.11650000 0.11649800 13560.87377268 0 166.40899165 0 8088.55483681 0 335.64734765 0 -1551.19262278 0 14553
0.11750000 0.11747300 13437.53966262 0 199.02265628 0 7225.75953501 0 -258.68442290 0 -1417.84316188 0 14568
0.11850000 0.11849100 13276.49548293 0 -104.67904953 0 7038.45140095 0 1093.40346875 0 -633.25743536 0 16015
0.11950000 0.11950300 13544.56971317 0 -361.10386288 0 6276.30871145 0 1036.82061840 0 -904.95626876 0 15270
0.12050000 0.12050700 13728.90540645 0 -4.42560941 0 5682.54148283 0 877.70852522 0 211.81191548 0 15999
0.12150000 0.12150000 13635.29570421 0 236.19258461 0 5274.68489745 0 223.07724422 0 -130.45244027 0 15670
0.12250000 0.12250700 13333.50423524 0 72.58667116 0 5321.80030209 0 374.96896819 0 1606.28259803 0 16887
0.12350000 0.12352200 13170.13090420 0 -28.05085711 0 4971.70667042 0 408.90581261 0 1374.33239625 0 16407
0.12450000 0.12449800 13511.51794626 0 -118.93312312 0 4764.88912093 0 1062.45570190 0 2073.71000221 0 16306
0.12550000 0.12549900 13295.79416562 0 -39.09214368 0 3903.74640747 0 933.80003554 0 2006.33098075 0 17523
0.12650000 0.12650100 13530.37298108 0 28.12184077 0 3937.46364619 0 459.30532066 0 3373.46519018 0 17154
0.12750000 0.12750600 13302.78161970 0 157.47725075 0 3071.65153883 0 501.28106463 0 3128.00591052 0 18007
0.12850000 0.12850300 13076.52120195 0 299.23827542 0 3325.56231056 0 -272.61940275 0 3409.85540737 0 17496
0.12950000 0.12949900 12498.66984095 0 269.16116754 0 3256.28669442 0 -199.86115077 0 3102.92871422 0 18405
0.13050000 0.13049000 12423.69334958 0 203.02990574 0 3843.41029607 0 -132.35790790 0 2559.41569897 0 18100
0.13150000 0.13148800 12305.79392602 0 121.30553014 0 3865.23777167 0 -263.98712416 0 2960.63974857 0 19059
0.13250000 0.13249300 11968.51062683 0 153.14170186 0 3728.35021893 0 277.15902966 0 1569.83692485 0 18957
0.13350000 0.13349100 12027.62670656 0 1.37672809 0 3623.42749580 0 -301.94120012 0 2449.98994988 0 19468
0.13450000 0.13450700 11986.36745391 0 88.02883376 0 3713.31055587 0 -41.32324885 0 1383.80427844 0 19953
0.13550000 0.13551000 11854.82585811 0 180.31180703 0 3918.63079378 0 -80.13922173 0 1434.66850765 0 19956
0.13650000 0.13649900 11782.28943007 0 -19.41746941 0 3864.61666464 0 220.92333377 0 1918.88798401 0 19723
0.13750000 0.13749600 11965.07235577 0 -133.69328801 0 3658.96369082 0 317.36794596 0 1293.94340077 0 20946
0.13850000 0.13851100 12067.11136770 0 43.03828064 0 3711.14777247 0 211.97051960 0 2020.11733856 0 20955
0.13950000 0.13949800 11783.62037370 0 163.28460147 0 3372.84408315 0 -54.55793052 0 1223.04846987 0 20506
0.14050000 0.14048300 11858.48595310 0 172.32503610 0 4102.51174798 0 -401.27728735 0 1737.40272835 0 21447
0.14150000 0.14148400 11522.08994966 0 119.25587695 0 3997.74430161 0 -34.95656907 0 929.58648982 0 21771
0.14250000 0.14249400 11486.93085534 0 260.86606134 0 4191.09713801 0 -376.26996559 0 1312.74297959 0 22470
0.14350000 0.14350900 11179.15014002 0 100.88075823 0 4334.80577686 0 214.04790078 0 1265.51666299 0 22519
0.14450000 0.14449900 11076.07964678 0 -106.03550292 0 3902.36000785 0 883.42825548 0 1357.89524237 0 22218
0.14550000 0.14550500 11299.04597903 0 -58.10256616 0 3653.51791312 0 688.67349179 0 1143.77968529 0 23559
0.14650000 0.14650700 11001.80190082 0 205.67626533 0 2859.28839086 0 87.43523290 0 1231.01194928 0 23044
0.14750000 0.14750500 10657.09859087 0 412.40730348 0 3379.70953406 0 -384.29777394 0 1481.92809784 0 23649
0.14850000 0.14849900 10151.73929312 0 273.26934689 0 3064.07625131 0 -187.19833121 0 1304.23603154 0 23640
0.14950000 0.14949500 10180.55422279 0 -61.62956679 0 3106.99918350 0 378.34401942 0 903.72181854 0 24457
0.15050000 0.15050000 9988.54342122 0 -29.53696659 0 2732.61583051 0 372.53223222 0 1063.82768296 0 24591
0.15150000 0.15149900 10021.24026982 0 240.95958106 0 2622.89061910 0 -103.52312499 0 514.23780091 0 25020
0.15250000 0.15250500 9753.77605542 0 168.56401122 0 2590.08285853 0 -308.89759885 0 608.85680207 0 25297
0.15350000 0.15350100 9425.64299370 0 150.90682568 0 2875.17098489 0 -311.07812817 0 -58.04411555 0 25452
0.15450000 0.15450400 9370.55301846 0 278.16611034 0 3044.65556545 0 -522.79576847 0 -180.52032153 0 26061
0.15550000 0.15549900 9167.21810481 0 142.43869681 0 3445.60233513 0 -189.22802025 0 -892.57960208 0 26128
0.15650000 0.15649500 9016.84365659 0 72.96099906 0 3461.31856121 0 20.21514829 0 -826.56147049 0 26331
0.15750000 0.15749700 8974.51964903 0 -32.81996089 0 3127.24061793 0 414.66214382 0 -885.78291659 0 27345
0.15850000 0.15849900 8994.38398277 0 -19.15893361 0 2845.54639784 0 432.61657344 0 -809.38342466 0 26980
0.15950000 0.15949700 8955.42060789 0 105.48504682 0 2859.45475881 0 199.81234950 0 -340.26239470 0 27777
0.16050000 0.16050000 8909.94670040 0 28.04453513 0 2275.69178984 0 219.55578919 0 -261.89532442 0 28224
0.16150000 0.16150500 8732.70937317 0 4.37961421 0 2270.95584874 0 292.61239437 0 -422.23410398 0 28075
0.16250000 0.16249700 8909.11486063 0 -84.17819201 0 2006.44189272 0 191.35309359 0 -90.61175171 0 28590
0.16350000 0.16349900 8876.63983596 0 27.07094986 0 1814.58636791 0 212.79792289 0 -319.48192809 0 29163
0.16450000 0.16449100 8868.83163331 0 199.44966736 0 1923.20245962 0 -285.84898247 0 -394.88764879 0 28996
0.16550000 0.16550500 8443.07385606 0 171.36232021 0 2191.59833457 0 -378.76770314 0 -527.97092097 0 30777
0.16650000 0.16650700 8474.20684590 0 195.59436730 0 2398.56006963 0 -291.32359728 0 -527.67367689 0 29211
0.16750000 0.16749900 8272.01432553 0 50.58129277 0 2658.99246517 0 241.15256789 0 -696.30423529 0 30922
0.16850000 0.16850800 8313.87250281 0 -1.99245589 0 2481.81059392 0 238.68144921 0 -442.61972397 0 30867
0.16950000 0.16949900 8221.60483540 0 51.37952621 0 2325.95709441 0 169.86057214 0 -6.20198660 0 30852
0.17050000 0.17049200 8376.36030642 0 14.94017503 0 2304.71745225 0 165.72688304 0 -150.17702492 0 31257
0.17150000 0.17149500 8100.82170063 0 9.16938089 0 2059.24708139 0 96.72655041 0 -51.72878801 0 32608
0.17250000 0.17250900 8193.68829268 0 105.08010721 0 2102.46947590 0 83.20582677 0 205.40785836 0 32361
0.17350000 0.17350400 8143.34534973 0 -34.03233963 0 1800.07908230 0 114.57871919 0 134.21346515 0 32508
0.17450000 0.17449800 8135.92533897 0 -39.42853968 0 1793.29126977 0 361.15488239 0 252.26040163 0 32791
0.17550000 0.17549800 8177.00713247 0 0.71777568 0 1325.06529940 0 250.01110689 0 70.40680732 0 33633
0.17650000 0.17650100 8222.53649594 0 10.08102182 0 1482.19428657 0 -69.24677903 0 327.77148869 0 33984
0.17750000 0.17750300 7992.56052722 0 298.21012147 0 1414.11651970 0 -400.78261996 0 -109.82481036 0 34069
0.17850000 0.17849800 7881.88147288 0 254.58400739 0 2295.43412040 0 -522.10589602 0 298.06039031 0 34536
