### header ###
fiducial parameters:
Omega_m = 0.31
Omega_nu = 0
Omega_de = 0.69
Omega_k = 0
H_0 = 100
w_de = -1
zeff = 0
beta = 0
fgrowth = 0
b_1 = 2
gamma = 0.55
Lx = 3500 Ly = 3500 Lz = 3500
nx = 700 ny = 700 nz = 700
xoffset = 1379.75464 yoffset = 22.6059522 zoffset = 368.141391
bins = 400 dk = 0.001
kx_ny = 0.628318531 ky_ny = 0.628318531 kz_ny = 0.628318531
############################
A(data) = 3.30203699 (not used)
A(ran) = 3.30484433 (used)
Ngal = 185643
weighted Ngal = 0
Nran = 9399747
weighted Nran = 0
SN(data) = 6667.59558
SN(ran) = 131.451448
SN(data+ran) = 6799.04703
############################
13 columns: k_central k_mean P_0(k) sigma^{lin}_{P_0(k)} P^img_1(k) sigma^{lin}_{P_1(k)} P_2(k) sigma^{lin}_{P_2(k)} P^img_3(k) sigma^{lin}_{P_3(k)} P_4(k) sigma^{lin}_{P_4(k)} N_modes
### header ###
0.00050000 0 0 0 0 0 0 0 0 0 0 0 0
0.00150000 0.00179520 25086.51290537 0 -40434.84397823 0 -69802.78072955 0 65809.39526834 0 60809.37277211 0 3
0.00250000 0.00253879 44732.23914778 0 -37053.13802871 0 -20672.21651998 0 -55672.26308160 0 -6344.51957269 0 6
0.00350000 0.00331552 83130.73936632 0 -32235.56572228 0 -105677.14634660 0 28559.38849380 0 -23438.02830295 0 7
0.00450000 0.00420575 117851.73141273 0 -32844.02878686 0 -71901.56792806 0 -51703.61098959 0 -12137.65138029 0 24
0.00550000 0.00557378 136477.17844788 0 -540.16680113 0 -67110.39267037 0 -66648.11158156 0 -17431.47968367 0 45
0.00650000 0.00659388 127564.29258029 0 6474.94095760 0 -23184.59445269 0 -44399.17050343 0 -50302.12734321 0 40
0.00750000 0.00754703 109443.49500628 0 20156.36494991 0 -4215.02084982 0 -62777.28384663 0 -16836.21514346 0 57
0.00850000 0.00846663 81419.14585327 0 18820.87392538 0 26291.90418970 0 -25732.13147972 0 -15702.69481535 0 75
0.00950000 0.00948925 62244.24092130 0 9305.52533076 0 12811.77433080 0 18914.48362762 0 -25215.17078997 0 112
0.01050000 0.01054430 71198.60786548 0 -5949.80605569 0 36261.89203843 0 19300.56819339 0 -15563.83302956 0 105
0.01150000 0.01145670 60089.77591411 0 218.87811706 0 3556.71394616 0 5262.27384807 0 -27604.32552458 0 144
0.01250000 0.01249090 66389.13213282 0 6006.18260978 0 20129.74607724 0 -11649.52780260 0 -4002.05877722 0 169
0.01350000 0.01339930 56030.39783106 0 3143.85523096 0 -6247.10558989 0 -18059.46325488 0 -22600.97566927 0 180
0.01450000 0.01448870 57513.06903910 0 -3624.00423804 0 18285.50184869 0 2960.26264787 0 -18208.63985384 0 267
0.01550000 0.01550050 66791.07711023 0 -6241.19398192 0 -2478.71614997 0 3670.05488777 0 -38235.12688749 0 238
0.01650000 0.01653350 72752.48455793 0 -4614.32612235 0 6534.03485494 0 5795.32786460 0 -15694.48732961 0 315
0.01750000 0.01747870 79528.65133344 0 -7914.41195352 0 -9948.52638263 0 -5355.15153131 0 -30808.57232293 0 297
0.01850000 0.01844180 95963.47605935 0 -6621.61094604 0 -7855.18496182 0 5693.93214210 0 -14823.38472130 0 388
0.01950000 0.01947590 91850.19475913 0 -3426.22601406 0 -11612.48320479 0 -4582.13946881 0 -39926.64533406 0 399
0.02050000 0.02045430 97344.10825547 0 7150.02884225 0 -644.29317632 0 -26820.51063625 0 -34652.78118518 0 462
0.02150000 0.02154770 88564.76039913 0 10590.91741868 0 18916.03639519 0 -27764.70423246 0 -37743.56503874 0 571
0.02250000 0.02255340 79958.54612716 0 5585.06095285 0 41561.48776423 0 -11726.05706154 0 -42611.26955538 0 510
0.02350000 0.02348930 74692.11308023 0 2235.06473541 0 42160.63422337 0 2097.95535874 0 -39571.61611975 0 555
0.02450000 0.02439640 71823.81863745 0 359.34701728 0 48515.77916273 0 3228.48106367 0 -44971.58717793 0 592
0.02550000 0.02547300 71875.05996735 0 4257.59995491 0 50703.29593683 0 124.16262248 0 -32016.62549453 0 837
0.02650000 0.02652900 65360.42361588 0 5638.07687427 0 46797.86366742 0 381.92425779 0 -27690.72594881 0 723
0.02750000 0.02749970 61870.80032006 0 2752.95708572 0 58184.86283825 0 1691.45189939 0 -22709.00392755 0 826
0.02850000 0.02848090 59250.17230513 0 2132.85935554 0 53146.57571255 0 3029.37189606 0 -27137.94069291 0 831
0.02950000 0.02946900 57066.64836193 0 1114.34364858 0 55203.99274645 0 4546.83618892 0 -12486.46952431 0 996
0.03050000 0.03053250 57610.11701240 0 -407.59926961 0 45721.01935572 0 5491.57325378 0 -12445.43209560 0 1041
0.03150000 0.03150510 56083.30284050 0 -367.85174710 0 43904.28129560 0 9578.62387321 0 -16403.99119839 0 1036
0.03250000 0.03246190 58622.85420574 0 179.08955712 0 38235.23779946 0 7062.58584551 0 -3336.62023392 0 1059
0.03350000 0.03345080 53457.79469892 0 1492.75310606 0 31830.07156186 0 5251.22701591 0 -13017.84877010 0 1302
0.03450000 0.03451200 56008.76999701 0 40.97143609 0 28894.89720148 0 8177.53950992 0 4505.43275072 0 1339
0.03550000 0.03553350 51198.29605663 0 -345.24788772 0 22688.59612516 0 8824.30047757 0 -507.14941694 0 1365
0.03650000 0.03647120 51929.09502355 0 1662.23768663 0 16621.15683464 0 2804.75297546 0 5836.09910458 0 1308
0.03750000 0.03744890 50217.83424641 0 537.79883058 0 14846.12167504 0 6994.02006597 0 8659.05273423 0 1579
0.03850000 0.03847530 46384.71658110 0 1663.79045420 0 12857.02641435 0 955.60976522 0 10559.31859857 0 1662
0.03950000 0.03950240 45350.79520159 0 1794.32275109 0 12023.07931581 0 3020.47675611 0 16112.51454259 0 1683
0.04050000 0.04050350 43019.31469110 0 139.37752645 0 9269.60094384 0 4753.80901517 0 12220.83535740 0 1822
0.04150000 0.04152450 42386.11825733 0 17.33509718 0 7248.36339439 0 310.14646762 0 14854.88372063 0 1887
0.04250000 0.04250150 42471.29864989 0 -57.94751122 0 4077.58982844 0 1744.26817926 0 11600.17197618 0 1920
0.04350000 0.04349210 43232.15476054 0 -743.16786976 0 7372.75116816 0 -356.34463027 0 14163.23667894 0 2005
0.04450000 0.04448520 43604.15350618 0 -636.82880077 0 5484.14215182 0 787.20324900 0 6554.14319501 0 2151
0.04550000 0.04548030 44356.69121912 0 520.37566930 0 3997.83303118 0 -877.52330223 0 6592.35236849 0 2274
0.04650000 0.04648670 42789.17235443 0 1334.34863125 0 4590.16949540 0 -3319.75052336 0 4457.91806299 0 2311
0.04750000 0.04749250 41329.23810013 0 1925.81998210 0 8379.54347994 0 -2786.30831494 0 44.16448078 0 2568
0.04850000 0.04851840 39447.61653787 0 786.02758212 0 10440.38769369 0 -1860.54828806 0 1519.58271148 0 2493
0.04950000 0.04949480 39331.26988188 0 -400.01400001 0 8166.20430664 0 582.66383136 0 -7345.38918529 0 2644
0.05050000 0.05050630 38977.01705135 0 43.14431248 0 10674.16794297 0 1192.79168460 0 -3962.81812242 0 2829
0.05150000 0.05149060 39159.13450524 0 1151.58788794 0 6263.50947018 0 -1365.48162108 0 -7786.23099039 0 2784
0.05250000 0.05249300 37472.27436139 0 521.79534251 0 9808.53329475 0 -551.36669181 0 -3732.65360335 0 3055
0.05350000 0.05348950 37057.57450749 0 708.25389088 0 8094.37771521 0 530.27899905 0 -6462.28590188 0 3009
0.05450000 0.05448610 36589.63690825 0 157.69241997 0 8932.55055978 0 2434.58427732 0 -1561.98435742 0 3336
0.05550000 0.05550870 36538.95013819 0 -266.05230503 0 6807.44395091 0 1940.33835891 0 -1314.77266864 0 3349
0.05650000 0.05647670 36256.01370404 0 561.63381282 0 7829.71957363 0 1545.97976022 0 1162.85654404 0 3324
0.05750000 0.05747970 35498.81768839 0 941.19120919 0 6777.06516247 0 -642.74928171 0 1149.62474608 0 3639
0.05850000 0.05849280 34763.58224269 0 266.34400351 0 7308.85478255 0 -389.33983207 0 2982.14557945 0 3846
0.05950000 0.05951020 34664.20511804 0 214.61909743 0 8617.58274885 0 -252.44562462 0 3359.61228519 0 3787
0.06050000 0.06049470 34342.67131851 0 40.66576270 0 9823.52859303 0 -482.15429549 0 1927.80530636 0 3930
0.06150000 0.06148310 35072.80481361 0 254.02722930 0 8749.50144535 0 -1033.16717812 0 -1584.37748405 0 4083
0.06250000 0.06249100 34347.32962123 0 802.24734854 0 10464.00085200 0 -972.41958332 0 -1444.81695285 0 4303
0.06350000 0.06350600 32814.52620298 0 1148.26052885 0 12797.35577477 0 -2670.97095787 0 -848.59413323 0 4470
0.06450000 0.06451750 32668.67696311 0 243.38189847 0 11568.22932897 0 1532.92542141 0 -3410.07723131 0 4479
0.06550000 0.06550280 32691.63574079 0 -195.79179061 0 13635.40661618 0 1060.67778303 0 -3277.85907249 0 4636
0.06650000 0.06648880 31058.12425426 0 1267.80144956 0 10581.60081324 0 -1256.97644134 0 -4045.73591080 0 4653
0.06750000 0.06749660 30716.73721219 0 865.61801142 0 14328.27368953 0 -460.77601338 0 -2788.73728707 0 5220
0.06850000 0.06852730 29519.88614951 0 619.75944867 0 13582.72343067 0 398.92706271 0 -3467.81800262 0 5029
0.06950000 0.06949320 29340.31967092 0 181.51963837 0 12588.39762426 0 1401.74983510 0 -3392.29804260 0 5040
0.07050000 0.07048030 28429.84331344 0 362.20965522 0 13675.22401322 0 593.63413426 0 -567.36352517 0 5475
0.07150000 0.07148790 27583.14133841 0 496.60834336 0 11308.02984856 0 1260.86945147 0 -2262.45999188 0 5509
0.07250000 0.07249820 28084.57435244 0 -185.58788941 0 12352.37695320 0 1190.47362444 0 -257.18489307 0 5916
0.07350000 0.07351270 26927.76251074 0 620.53250510 0 9895.11117813 0 159.64447063 0 -2112.39609717 0 5721
0.07450000 0.07449140 27108.54902100 0 148.71742340 0 10048.92389741 0 1504.32122448 0 25.27805788 0 6028
0.07550000 0.07549160 25918.13085255 0 416.71401526 0 10093.25541161 0 166.48663003 0 -514.29325689 0 6183
0.07650000 0.07648840 25793.46579885 0 352.46049310 0 8812.54380880 0 798.27670003 0 423.43528061 0 6330
0.07750000 0.07749960 25501.65640714 0 -27.05908228 0 8103.67213825 0 1739.39914380 0 287.74779539 0 6583
0.07850000 0.07848650 25055.01390603 0 178.34311957 0 7692.03345471 0 803.21339179 0 735.41845045 0 6549
0.07950000 0.07947320 24522.08189267 0 247.31040043 0 6820.48719852 0 1173.53736670 0 1697.54096652 0 6828
0.08050000 0.08048110 24220.51224765 0 397.37429514 0 6320.39621932 0 429.01304356 0 2404.06130332 0 7147
0.08150000 0.08149960 24004.12299519 0 305.82090081 0 6506.06285624 0 -441.48065805 0 2241.16489374 0 7386
0.08250000 0.08250610 23361.60995598 0 311.38202696 0 6043.32702836 0 178.57492558 0 991.86245157 0 7227
0.08350000 0.08350160 22759.57978563 0 671.23702107 0 6752.46488764 0 -1071.71019664 0 1361.28914864 0 7798
0.08450000 0.08449610 22227.53506802 0 782.68913184 0 8533.43383760 0 -1589.25761071 0 674.59987198 0 7371
0.08550000 0.08548940 21275.02307411 0 56.11280542 0 7684.24743446 0 683.60814214 0 -423.69925110 0 8256
0.08650000 0.08650700 21536.22076224 0 -156.06645050 0 6376.67295264 0 1609.86505464 0 165.05919298 0 8037
0.08750000 0.08749060 21847.10701270 0 -416.01970633 0 4527.11604075 0 2022.89013780 0 -282.74566556 0 8155
0.08850000 0.08849210 21445.05112333 0 3.16028129 0 4877.50913474 0 1954.69036776 0 1090.39997261 0 8718
0.08950000 0.08949900 21165.55296023 0 441.05364696 0 2443.20213735 0 50.45895687 0 149.42726000 0 8571
0.09050000 0.09049190 20436.19584892 0 711.32060684 0 2632.77287558 0 -584.39738544 0 1605.08474876 0 8932
0.09150000 0.09150830 19883.63241696 0 324.22785127 0 3124.24599475 0 -615.53259351 0 308.94972747 0 9285
0.09250000 0.09250820 19579.28997270 0 118.38299975 0 2957.32348068 0 648.84833091 0 859.73413144 0 9204
0.09350000 0.09350330 19052.01446978 0 242.23506871 0 3450.44918820 0 -513.33608659 0 -180.08665573 0 9349
0.09450000 0.09448040 18863.90776954 0 218.13389774 0 3423.10938772 0 -227.37619216 0 -320.86056387 0 9564
0.09550000 0.09549270 19143.29502066 0 52.68806563 0 3546.78732489 0 174.39576257 0 413.67835466 0 10155
0.09650000 0.09649430 18880.32274102 0 4.28832257 0 4455.24508453 0 169.43577930 0 -109.49839643 0 9913
0.09750000 0.09749140 18824.09037249 0 353.31673350 0 3804.09200289 0 -524.79883864 0 226.18943408 0 10476
0.09850000 0.09850240 18639.53285527 0 300.46939828 0 4831.94649767 0 -280.35773086 0 434.89359618 0 10575
0.09950000 0.09950330 17588.97468034 0 558.28316223 0 4456.95312886 0 -552.75087319 0 412.79327714 0 10882
0.10050000 0.10051200 17282.41399669 0 648.07305624 0 5973.75194990 0 -590.41103243 0 101.36122888 0 10875
0.10150000 0.10150300 16822.57297122 0 314.34781303 0 5799.77543457 0 -156.95374625 0 289.90392407 0 11118
0.10250000 0.10250800 16340.88228776 0 133.24076718 0 6259.92701356 0 856.55428528 0 627.14507672 0 11575
0.10350000 0.10349800 16238.95418780 0 -37.94531391 0 5441.58522913 0 378.55475216 0 -374.03730764 0 11364
0.10450000 0.10450100 16262.02387745 0 158.71724657 0 5610.81471217 0 554.74507040 0 670.81555558 0 12093
0.10550000 0.10551000 15838.56197797 0 281.95486322 0 4697.09972518 0 165.54276917 0 674.54441600 0 12067
0.10650000 0.10649700 15476.54530958 0 218.91471800 0 5209.51302419 0 323.49361403 0 1742.91505323 0 12054
0.10750000 0.10749900 15144.69669689 0 238.39529632 0 4984.40609093 0 79.10884953 0 935.16314365 0 12807
0.10850000 0.10850100 15085.02605731 0 223.97341293 0 5244.63884492 0 141.87970048 0 1527.90110919 0 12736
0.10950000 0.10950300 14777.79990184 0 156.17958071 0 4784.18780362 0 131.08131113 0 1225.79908672 0 12933
0.11050000 0.11050200 14555.19957909 0 18.90450155 0 5533.00996558 0 567.78166329 0 2237.48261635 0 13428
0.11150000 0.11150900 14815.62088344 0 -90.97720665 0 4650.02868533 0 489.23935210 0 2265.80953336 0 13453
0.11250000 0.11250000 14725.89310012 0 -42.79216698 0 4660.98678791 0 198.97718237 0 1618.03926679 0 13668
0.11350000 0.11349100 14821.38830585 0 202.49974652 0 4959.88345447 0 -406.63766283 0 2009.40324231 0 13791
0.11450000 0.11448600 14705.15256183 0 222.76890894 0 5183.08270186 0 -913.56747407 0 1625.45927755 0 14205
0.11550000 0.11549300 14419.88697632 0 67.48250233 0 5716.39181592 0 -258.14871809 0 1279.53593593 0 14776
0.11650000 0.11649800 14584.25851510 0 99.90384560 0 5927.29092589 0 -745.58575069 0 -121.53400880 0 14553
0.11750000 0.11747300 14503.07095343 0 246.24231817 0 6755.96970587 0 -105.63477797 0 240.47933223 0 14568
0.11850000 0.11849100 14415.45049754 0 100.02607059 0 7078.61262510 0 -91.91374732 0 -33.93784263 0 16015
0.11950000 0.11950300 14312.63510183 0 72.63547243 0 6683.84365212 0 281.81844150 0 -88.40316166 0 15270
0.12050000 0.12050700 14181.42624194 0 165.93207018 0 6716.60704790 0 556.47307888 0 150.81587786 0 15999
0.12150000 0.12150000 13764.28632471 0 289.11423085 0 6437.46380311 0 27.54487671 0 -333.98921370 0 15670
0.12250000 0.12250700 13612.00419061 0 262.05392854 0 7075.28526601 0 -28.83090100 0 1410.98880216 0 16887
0.12350000 0.12352200 13057.66616714 0 270.07064569 0 6312.59910787 0 420.43622096 0 -0.68221731 0 16407
0.12450000 0.12449800 12983.02241168 0 106.23059707 0 6160.12842342 0 91.54385590 0 349.80082407 0 16306
0.12550000 0.12549900 12839.83505908 0 -42.01678140 0 5707.96250624 0 465.18920064 0 -360.36851652 0 17523
0.12650000 0.12650100 12788.48281721 0 -189.38440613 0 5180.72027691 0 827.27352533 0 -37.67224864 0 17154
0.12750000 0.12750600 13177.89474206 0 -178.15346010 0 4284.51828990 0 357.50255123 0 -491.10821879 0 18007
0.12850000 0.12850300 12879.43063218 0 59.04964346 0 3563.69030904 0 -5.68475972 0 -1504.84251074 0 17496
0.12950000 0.12949900 13144.73206319 0 37.04870155 0 3765.48354632 0 136.19989852 0 -1242.24733179 0 18405
0.13050000 0.13049000 12851.14807997 0 123.06792134 0 3329.79914780 0 -206.50477774 0 -1701.99962769 0 18100
0.13150000 0.13148800 12822.31096790 0 35.63313208 0 3592.08377323 0 464.23535770 0 -761.81771742 0 19059
0.13250000 0.13249300 12959.06542627 0 -52.31329409 0 3048.27129566 0 377.15615222 0 -1591.88622439 0 18957
0.13350000 0.13349100 12956.73627491 0 -36.12624670 0 2911.71647883 0 591.06984953 0 -298.14801076 0 19468
0.13450000 0.13450700 12711.95355827 0 222.50161110 0 2640.47016627 0 -199.40862993 0 -410.30108518 0 19953
0.13550000 0.13551000 12606.03262741 0 190.18519055 0 3496.21146681 0 -28.18372965 0 439.32452936 0 19956
0.13650000 0.13649900 12473.04917600 0 156.15407095 0 3415.78919773 0 -62.56644019 0 93.33952069 0 19723
0.13750000 0.13749600 12129.11115864 0 214.37287285 0 3431.33905586 0 -65.55374318 0 -106.97259815 0 20946
0.13850000 0.13851100 11793.93518686 0 443.98394120 0 4247.73988082 0 -455.22043282 0 203.30053094 0 20955
0.13950000 0.13949800 11454.65547222 0 260.98584627 0 4031.01789245 0 2.39257082 0 497.39360010 0 20506
0.14050000 0.14048300 11082.30180827 0 128.83756199 0 4374.56771792 0 321.56152752 0 454.72243808 0 21447
0.14150000 0.14148400 11213.86558647 0 -10.54490004 0 3809.18286229 0 281.62101819 0 637.64844023 0 21771
0.14250000 0.14249400 10938.71517258 0 12.80179225 0 3651.56586246 0 477.00908923 0 262.70054532 0 22470
0.14350000 0.14350900 11110.93927879 0 89.22845762 0 3547.04242242 0 161.80614492 0 1071.02476066 0 22519
0.14450000 0.14449900 10842.97596052 0 5.81387235 0 2940.85305322 0 351.27484415 0 629.15812897 0 22218
0.14550000 0.14550500 10925.60537779 0 135.14290746 0 3164.29630693 0 139.50063874 0 1178.14021343 0 23559
0.14650000 0.14650700 10668.75543886 0 -79.52998228 0 2568.58811884 0 426.48535977 0 770.28140981 0 23044
0.14750000 0.14750500 10840.55807959 0 -4.15062536 0 2646.41504783 0 494.23371809 0 1695.17854157 0 23649
0.14850000 0.14849900 10755.26677505 0 119.74721697 0 2114.08195910 0 57.20140640 0 948.88628163 0 23640
0.14950000 0.14949500 10307.69261341 0 310.35609124 0 2023.10087054 0 2.69589288 0 1672.35285825 0 24457
0.15050000 0.15050000 10103.07112091 0 138.55345052 0 2480.30219114 0 158.04512003 0 1560.25413069 0 24591
0.15150000 0.15149900 10039.95111908 0 98.25170090 0 2258.86644407 0 151.43698489 0 2064.87031824 0 25020
0.15250000 0.15250500 9886.83714521 0 84.44094246 0 2183.24666327 0 20.88306017 0 1090.42880973 0 25297
0.15350000 0.15350100 9743.91598133 0 174.98692337 0 2198.09777599 0 -564.22138907 0 1348.24590103 0 25452
0.15450000 0.15450400 9571.45895998 0 212.74135778 0 2608.93789334 0 -206.51919630 0 1234.01766366 0 26061
0.15550000 0.15549900 9447.64792845 0 80.39753570 0 2443.63469403 0 -99.87079383 0 840.43877611 0 26128
0.15650000 0.15649500 9243.15953032 0 102.14338009 0 2943.12674859 0 207.85013993 0 776.18969043 0 26331
0.15750000 0.15749700 9206.66949236 0 119.60414053 0 2564.05181929 0 -78.02279952 0 407.34860856 0 27345
0.15850000 0.15849900 8949.99701258 0 170.09903288 0 3008.32080425 0 58.52336617 0 810.30288488 0 26980
0.15950000 0.15949700 8945.97090809 0 127.20604692 0 2967.05046041 0 -105.36659283 0 919.16852853 0 27777
0.16050000 0.16050000 8823.76810011 0 26.24809396 0 2941.79580496 0 35.30372353 0 999.10056669 0 28224
0.16150000 0.16150500 8783.90633828 0 16.27311507 0 2696.60271402 0 338.89706835 0 1022.57508504 0 28075
0.16250000 0.16249700 8618.23712947 0 78.88769106 0 2768.60676461 0 -83.86797123 0 341.31605841 0 28590
0.16350000 0.16349900 8609.33089832 0 168.94000280 0 2818.56151566 0 -223.56303865 0 679.40790586 0 29163
0.16450000 0.16449100 8492.11912897 0 76.35412894 0 2718.72965193 0 -7.86583251 0 210.23807463 0 28996
0.16550000 0.16550500 8469.90346148 0 -52.81827628 0 2638.37393004 0 145.17711333 0 -139.67033405 0 30777
0.16650000 0.16650700 8394.30586308 0 37.64363335 0 2216.32061257 0 293.21464636 0 -286.93813801 0 29211
0.16750000 0.16749900 8401.37095554 0 -7.59990997 0 2412.08023871 0 140.32471467 0 137.54747895 0 30922
0.16850000 0.16850800 8326.78265606 0 82.57495949 0 1882.13175733 0 217.46509856 0 -151.05322948 0 30867
0.16950000 0.16949900 8182.68582531 0 160.72364410 0 2132.90372032 0 8.11739195 0 160.65044220 0 30852
0.17050000 0.17049200 8153.62688930 0 42.96241685 0 1861.61304297 0 -119.38897131 0 -101.73378218 0 31257
0.17150000 0.17149500 8132.06560244 0 123.20656130 0 2515.48346786 0 -143.94266311 0 270.63851497 0 32608
0.17250000 0.17250900 7979.89438031 0 118.73126333 0 2564.12945767 0 -253.88969846 0 170.23434548 0 32361
0.17350000 0.17350400 7932.96752602 0 26.58271537 0 2539.24081172 0 -134.83679042 0 -408.78935504 0 32508
0.17450000 0.17449800 7940.43190157 0 -15.98618581 0 2788.55982792 0 140.24596717 0 -26.61720900 0 32791
0.17550000 0.17549800 8160.10414832 0 25.36778566 0 2742.37608383 0 15.73885212 0 -109.93871695 0 33633
0.17650000 0.17650100 7986.93729037 0 24.09251983 0 2555.44505046 0 298.86339297 0 -47.84010344 0 33984
0.17750000 0.17750300 8043.69094515 0 54.96885937 0 2555.18995293 0 209.52158331 0 324.09032043 0 34069
0.17850000 0.17849800 7776.01599800 0 47.02290405 0 2127.97922888 0 309.10611335 0 384.03047609 0 34536
