### header ###
fiducial parameters:
Omega_m = 0.31
Omega_nu = 0
Omega_de = 0.69
Omega_k = 0
H_0 = 100
w_de = -1
zeff = 0
beta = 0
fgrowth = 0
b_1 = 2
gamma = 0.55
Lx = 3500 Ly = 3500 Lz = 3500
nx = 700 ny = 700 nz = 700
xoffset = 1379.75464 yoffset = 22.6059522 zoffset = 368.141391
bins = 400 dk = 0.001
kx_ny = 0.628318531 ky_ny = 0.628318531 kz_ny = 0.628318531
############################
A(data) = 3.34393877 (not used)
A(ran) = 3.34378352 (used)
Ngal = 187561
weighted Ngal = 0
Nran = 9399747
weighted Nran = 0
SN(data) = 6610.54261
SN(ran) = 133.00027
SN(data+ran) = 6743.54288
############################
13 columns: k_central k_mean P_0(k) sigma^{lin}_{P_0(k)} P^img_1(k) sigma^{lin}_{P_1(k)} P_2(k) sigma^{lin}_{P_2(k)} P^img_3(k) sigma^{lin}_{P_3(k)} P_4(k) sigma^{lin}_{P_4(k)} N_modes
### header ###
0.00050000 0 0 0 0 0 0 0 0 0 0 0 0
0.00150000 0.00179520 91373.71693824 0 -85380.36684333 0 -124713.85496459 0 148932.59262073 0 61973.39389183 0 3
0.00250000 0.00253879 144832.17710898 0 -73590.75722327 0 -30347.40035382 0 -145930.20560685 0 669.50124874 0 6
0.00350000 0.00331552 174651.96922397 0 -21573.70900793 0 -106800.01912564 0 -61012.89623611 0 -33924.20045765 0 7
0.00450000 0.00420575 190575.60068253 0 8594.11377610 0 -46866.29635259 0 -115667.87473362 0 12281.83694061 0 24
0.00550000 0.00557378 142023.88604169 0 35503.25416717 0 19740.77780026 0 -79914.29225133 0 17362.15970275 0 45
0.00650000 0.00659388 113724.69702830 0 30368.91727590 0 24885.31859273 0 19256.75796544 0 -26762.50367621 0 40
0.00750000 0.00754703 85707.55715330 0 2746.31345874 0 43503.00179001 0 24776.07030279 0 -1735.82777838 0 57
0.00850000 0.00846663 86252.80039527 0 -4719.49285182 0 32261.07547526 0 28916.85777144 0 -23781.18993653 0 75
0.00950000 0.00948925 106138.54013965 0 -7311.63867298 0 24413.94272243 0 19611.34353188 0 -11824.10324256 0 112
0.01050000 0.01054430 95617.98527441 0 4344.00037913 0 16759.13132467 0 -37337.07267059 0 -32786.02182682 0 105
0.01150000 0.01145670 88566.42407867 0 19529.60141037 0 40071.16363029 0 -25063.11047981 0 -8321.19269280 0 144
0.01250000 0.01249090 78977.75158103 0 10283.62471603 0 55382.11736944 0 -7918.32714605 0 -22944.80277467 0 169
0.01350000 0.01339930 69004.10363731 0 -729.81295951 0 69046.58292162 0 14275.14685615 0 -3114.89611573 0 180
0.01450000 0.01448870 72235.41295620 0 482.37501031 0 50673.46061704 0 21862.30195252 0 -12975.81313366 0 267
0.01550000 0.01550050 75201.08810819 0 -4560.50054356 0 36706.42721211 0 16052.28934316 0 -11969.39792258 0 238
0.01650000 0.01653350 72562.15961830 0 3587.86911839 0 41046.74531386 0 -1480.43078625 0 -3213.67431575 0 315
0.01750000 0.01747870 76296.56563076 0 3844.54159816 0 23699.44781502 0 -6080.80418285 0 -17805.36393280 0 297
0.01850000 0.01844180 73572.23492437 0 -2759.16815601 0 43103.60778791 0 -5556.64530627 0 -17816.23330581 0 388
0.01950000 0.01947590 69244.67169911 0 1232.29852813 0 30044.38885319 0 -9351.63143647 0 -44480.57988903 0 399
0.02050000 0.02045430 82857.45227351 0 -553.37974406 0 45914.33891853 0 -2868.49408432 0 -44398.61594358 0 462
0.02150000 0.02154770 75575.52691716 0 -164.24399001 0 39064.74841921 0 -10379.54138724 0 -40516.80792367 0 571
0.02250000 0.02255340 82614.22232444 0 622.51893847 0 41247.71780256 0 10299.59603963 0 -41409.87110194 0 510
0.02350000 0.02348930 80928.02765240 0 -1771.90744205 0 44643.73139614 0 4731.08315263 0 -39961.24986854 0 555
0.02450000 0.02439640 79118.83160621 0 2627.46019225 0 37007.99685713 0 6288.27611296 0 -38830.61325164 0 592
0.02550000 0.02547300 77699.71295668 0 2539.88410114 0 44166.47719146 0 2988.25682897 0 -15840.55839342 0 837
0.02650000 0.02652900 71635.93376115 0 4108.90027742 0 33559.30007805 0 -1339.89422972 0 -21474.66461918 0 723
0.02750000 0.02749970 71589.01799806 0 3765.69427906 0 50931.22003412 0 -378.05564830 0 -2764.71375448 0 826
0.02850000 0.02848090 66190.26697154 0 2477.51830070 0 39438.85449228 0 6698.26220815 0 -14638.93811605 0 831
0.02950000 0.02946900 62902.50346018 0 1068.51593191 0 42298.27597750 0 9559.86865917 0 2109.09092048 0 996
0.03050000 0.03053250 60819.02211346 0 1974.39942474 0 36204.77237414 0 6077.75410369 0 5576.34327205 0 1041
0.03150000 0.03150510 58741.19727718 0 2130.21965066 0 37763.86192916 0 4779.71805125 0 2368.09255161 0 1036
0.03250000 0.03246190 58008.06915890 0 1507.41566843 0 31779.49570377 0 4643.22978160 0 9634.65660019 0 1059
0.03350000 0.03345080 55178.37208150 0 -22.88158295 0 32312.31680517 0 5716.81328140 0 7840.52239946 0 1302
0.03450000 0.03451200 52520.81038074 0 2283.24489496 0 29185.81929743 0 39.46846799 0 10688.26485429 0 1339
0.03550000 0.03553350 53538.98226058 0 1152.85228439 0 29853.73117765 0 5302.10233631 0 10034.68280053 0 1365
0.03650000 0.03647120 50082.74346758 0 40.56760561 0 27271.14596826 0 886.27425662 0 10295.11519607 0 1308
0.03750000 0.03744890 51032.03901438 0 881.60042622 0 30512.21554047 0 6055.44970662 0 14399.81190985 0 1579
0.03850000 0.03847530 49291.49747729 0 630.59776633 0 23623.02946805 0 3732.65360335 0 14927.64197261 0 1662
0.03950000 0.03950240 49400.19120738 0 1930.63356158 0 23831.21123477 0 1588.33704136 0 16778.87365524 0 1683
0.04050000 0.04050350 46774.57215383 0 497.10301074 0 22051.51777246 0 1747.91718306 0 15056.29985721 0 1822
0.04150000 0.04152450 46046.43507418 0 213.31810002 0 22237.51714528 0 2235.46401851 0 13170.90728798 0 1887
0.04250000 0.04250150 46093.57266121 0 -592.06805725 0 18503.11113281 0 4636.20905393 0 13630.30466558 0 1920
0.04350000 0.04349210 45616.54028047 0 -1147.08486198 0 13365.44688246 0 5231.90615082 0 7356.14764633 0 2005
0.04450000 0.04448520 45540.67649334 0 203.64657629 0 11067.14014204 0 -1216.38266051 0 7455.39167663 0 2151
0.04550000 0.04548030 45540.12193349 0 2238.29227373 0 10077.02899047 0 -925.62249603 0 -171.28246359 0 2274
0.04650000 0.04648670 43367.02371543 0 655.16144021 0 7715.51351865 0 -1713.62320209 0 -1567.79614462 0 2311
0.04750000 0.04749250 40576.25673932 0 396.87075480 0 11273.09257817 0 784.48146927 0 -2462.60064081 0 2568
0.04850000 0.04851840 41350.64411024 0 1013.19082330 0 8648.05026686 0 -1285.96883016 0 -2548.55741716 0 2493
0.04950000 0.04949480 40114.08656248 0 161.41240743 0 7509.28380260 0 3173.05835252 0 -6384.24824015 0 2644
0.05050000 0.05050630 40115.52841809 0 464.60247632 0 9270.87643149 0 -250.91836680 0 -294.55668119 0 2829
0.05150000 0.05149060 38436.09937619 0 556.71819434 0 6716.10794404 0 685.58570256 0 -5849.66363845 0 2784
0.05250000 0.05249300 38793.90138974 0 1102.34297349 0 10313.12729991 0 -11.99235670 0 -588.90595700 0 3055
0.05350000 0.05348950 37214.07129643 0 -14.08271459 0 8524.68288321 0 -1449.19797565 0 -1274.03470225 0 3009
0.05450000 0.05448610 37020.64082166 0 516.98730863 0 10006.37806591 0 1235.35969849 0 -758.50810425 0 3336
0.05550000 0.05550870 36646.42383662 0 79.92194518 0 9047.81027847 0 1588.50340932 0 -465.09936195 0 3349
0.05650000 0.05647670 35910.96656699 0 797.04779541 0 7332.58994402 0 -762.80039747 0 -2537.75459133 0 3324
0.05750000 0.05747970 34760.03305967 0 1169.72199495 0 8925.19709620 0 -4.68944680 0 -1042.66789743 0 3639
0.05850000 0.05849280 32689.75023731 0 1280.31231972 0 9590.34726839 0 -1175.64469412 0 -4581.08580510 0 3846
0.05950000 0.05951020 33148.48214309 0 218.87700794 0 9976.75347887 0 -1519.09469882 0 -2506.67705748 0 3787
0.06050000 0.06049470 32022.39291694 0 516.57471610 0 10775.58584786 0 213.92035202 0 -6708.38847097 0 3930
0.06150000 0.06148310 31656.49432962 0 548.32770385 0 10186.22182443 0 -1719.10225338 0 -4538.66197677 0 4083
0.06250000 0.06249100 30962.85087248 0 140.13061872 0 9971.29660997 0 -284.70104358 0 -6690.66473824 0 4303
0.06350000 0.06350600 32072.96877502 0 -32.68287370 0 11315.12821461 0 1268.44473898 0 -5899.17474162 0 4470
0.06450000 0.06451750 30688.01101210 0 -396.09658925 0 9405.25737371 0 2213.76963727 0 -6031.68127156 0 4479
0.06550000 0.06550280 31799.01621040 0 175.43722597 0 10125.98553380 0 1530.98446194 0 -3432.30398999 0 4636
0.06650000 0.06648880 31016.64317767 0 328.65989357 0 7569.07644535 0 -46.19339343 0 -2931.59190376 0 4653
0.06750000 0.06749660 30809.12688277 0 496.53514146 0 10436.60559554 0 228.37883636 0 -3362.21871648 0 5220
0.06850000 0.06852730 29959.87393245 0 1209.76121593 0 8895.76105950 0 -1599.55024148 0 -2863.03721543 0 5029
0.06950000 0.06949320 28275.67567586 0 1254.51419562 0 11355.16743559 0 -1669.28059669 0 -4405.68961656 0 5040
0.07050000 0.07048030 27154.02292849 0 719.42383533 0 11348.29089348 0 383.48146184 0 -2083.69207947 0 5475
0.07150000 0.07148790 26233.56449375 0 -173.37648157 0 11500.12937970 0 397.72477696 0 -4809.00990239 0 5509
0.07250000 0.07249820 26825.94532276 0 -70.67499246 0 10358.63448099 0 2141.33303001 0 -3148.23625375 0 5916
0.07350000 0.07351270 26713.36967373 0 -80.00845651 0 9260.28433840 0 1572.23262340 0 -2740.00256768 0 5721
0.07450000 0.07449140 26667.34120640 0 428.25551480 0 8623.70508956 0 795.96529459 0 -913.84253575 0 6028
0.07550000 0.07549160 26557.98200449 0 -305.59242216 0 7459.09613641 0 1515.65642776 0 -93.29449043 0 6183
0.07650000 0.07648840 25854.02373418 0 515.43010458 0 7393.40297688 0 538.39664610 0 381.04139852 0 6330
0.07750000 0.07749960 25003.32892826 0 926.79150819 0 8297.80135843 0 -363.43079600 0 2122.75527512 0 6583
0.07850000 0.07848650 25049.13557165 0 303.85443159 0 7980.30475459 0 -506.53163727 0 1742.73759408 0 6549
0.07950000 0.07947320 24005.23211489 0 384.51959788 0 8888.01940403 0 816.17567367 0 2436.01504172 0 6828
0.08050000 0.08048110 24098.73090516 0 41.39301248 0 7776.20454835 0 11.47162500 0 1406.85178570 0 7147
0.08150000 0.08149960 23318.68702379 0 281.20398919 0 8574.03870963 0 609.77293494 0 2922.45275748 0 7386
0.08250000 0.08250610 23562.36062074 0 402.95427633 0 9378.22812675 0 -366.67608023 0 833.09196725 0 7227
0.08350000 0.08350160 23042.95986766 0 120.86853698 0 8352.94678966 0 -312.49780138 0 1444.29566660 0 7798
0.08450000 0.08449610 23082.99908864 0 228.17919482 0 8629.35050881 0 376.59493766 0 1865.17331719 0 7371
0.08550000 0.08548940 22792.63155254 0 -229.00105251 0 8048.59325420 0 223.63069495 0 -582.38655143 0 8256
0.08650000 0.08650700 23381.35228655 0 -30.25057420 0 8011.39337964 0 1047.62566246 0 1076.54817674 0 8037
0.08750000 0.08749060 22673.95574519 0 477.71448936 0 8061.70304900 0 -137.55857015 0 -240.43718568 0 8155
0.08850000 0.08849210 22551.39801891 0 264.04590751 0 6945.13006983 0 334.90201921 0 1152.67482524 0 8718
0.08950000 0.08949900 21911.76869091 0 308.44840537 0 7923.50673502 0 966.02329004 0 1511.07576342 0 8571
0.09050000 0.09049190 21414.88306763 0 442.30029750 0 7282.53537219 0 -288.58185340 0 854.47135849 0 8932
0.09150000 0.09150830 20960.25490472 0 658.47548986 0 7017.88832181 0 238.24778341 0 1380.03327148 0 9285
0.09250000 0.09250820 19611.89809173 0 445.89828179 0 7360.06283886 0 333.13740978 0 523.11297670 0 9204
0.09350000 0.09350330 19501.42977012 0 412.50490602 0 7375.05813713 0 -392.79363080 0 1343.04412966 0 9349
0.09450000 0.09448040 18651.51134798 0 558.45285754 0 7226.15881810 0 -10.75053083 0 -1909.39391942 0 9564
0.09550000 0.09549270 18093.62414148 0 446.61366399 0 7005.92092030 0 -224.84185365 0 65.50826927 0 10155
0.09650000 0.09649430 17138.67208424 0 189.76483419 0 6065.89761415 0 866.74376791 0 -1288.27579913 0 9913
0.09750000 0.09749140 17146.21409817 0 149.41395057 0 6555.99542490 0 362.28063888 0 -523.56771578 0 10476
0.09850000 0.09850240 16863.61039993 0 203.39258788 0 5152.31572152 0 456.80203751 0 -2091.05663424 0 10575
0.09950000 0.09950330 16555.05330083 0 235.73784554 0 5503.49629050 0 521.28182009 0 -215.41100889 0 10882
0.10050000 0.10051200 16429.39003940 0 31.85691226 0 5235.04495956 0 24.14764308 0 35.15388146 0 10875
0.10150000 0.10150300 16252.70727202 0 157.25986329 0 4757.21401264 0 324.26556134 0 26.73677210 0 11118
0.10250000 0.10250800 16329.12561899 0 234.58879753 0 5735.79031938 0 260.31593797 0 650.74603471 0 11575
0.10350000 0.10349800 15719.77525865 0 157.47281427 0 4986.97924862 0 -150.93899015 0 201.78658256 0 11364
0.10450000 0.10450100 15950.13941927 0 124.11936681 0 6315.93755815 0 259.39425951 0 1626.33548211 0 12093
0.10550000 0.10551000 15825.14162966 0 108.99596521 0 5928.67732551 0 241.17585940 0 1698.37280629 0 12067
0.10650000 0.10649700 15932.17168021 0 -153.09622796 0 5425.99100622 0 729.24287199 0 2722.02373743 0 12054
0.10750000 0.10749900 15594.22290920 0 33.86852265 0 5574.05848548 0 188.00577035 0 1782.21116402 0 12807
0.10850000 0.10850100 16081.57010311 0 198.20745330 0 5064.67308324 0 34.87671245 0 2646.39286544 0 12736
0.10950000 0.10950300 15176.30660819 0 290.27215181 0 5514.67621702 0 -134.97432126 0 1358.82690291 0 12933
0.11050000 0.11050200 15334.68890061 0 387.53085785 0 5976.00346288 0 -675.20656045 0 1046.36570249 0 13428
0.11150000 0.11150900 14520.15139674 0 378.91188870 0 5602.60722643 0 -86.64675971 0 747.39028843 0 13453
0.11250000 0.11250000 14274.81412024 0 202.49641916 0 6204.14938411 0 115.62683730 0 450.17615645 0 13668
0.11350000 0.11349100 13738.88748370 0 -71.46191288 0 5050.26561840 0 891.83427365 0 609.99254064 0 13791
0.11450000 0.11448600 14248.86071938 0 5.55495944 0 5160.39011290 0 694.87568912 0 230.02476999 0 14205
0.11550000 0.11549300 13742.99122657 0 164.60999951 0 4260.36166295 0 329.50504278 0 536.85829708 0 14776
0.11650000 0.11649800 13710.27219558 0 109.84067077 0 4208.22194609 0 -12.81842905 0 1405.83139558 0 14553
0.11750000 0.11747300 13557.43550163 0 -43.04005523 0 4051.85825152 0 354.23175725 0 853.60735425 0 14568
0.11850000 0.11849100 13766.28274016 0 73.06547814 0 3916.80074628 0 -4.16100672 0 1502.97918965 0 16015
0.11950000 0.11950300 13802.77277812 0 -58.92974763 0 4271.46395109 0 236.71608911 0 972.43178363 0 15270
0.12050000 0.12050700 13761.51352548 0 67.97406418 0 4029.13238897 0 145.10945703 0 1318.02238934 0 15999
0.12150000 0.12150000 13643.72501389 0 60.31736728 0 4521.31534475 0 74.27719140 0 1052.43924194 0 15670
0.12250000 0.12250700 13866.76898452 0 9.65611807 0 3917.20002937 0 190.44472456 0 1937.64319805 0 16887
0.12350000 0.12352200 13613.00239834 0 215.91898571 0 5246.74617234 0 -627.82940357 0 1215.75046228 0 16407
0.12450000 0.12449800 13523.82917488 0 372.58879732 0 5035.03740499 0 -459.70904023 0 1630.79414328 0 16306
0.12550000 0.12549900 13217.15757926 0 219.97614555 0 6023.83979532 0 -427.69762760 0 1042.08560959 0 17523
0.12650000 0.12650100 12831.51666137 0 103.85497360 0 5817.82081201 0 -84.24196639 0 877.04194428 0 17154
0.12750000 0.12750600 12987.01524258 0 108.85654886 0 6322.60336752 0 55.33021057 0 1088.30373639 0 18007
0.12850000 0.12850300 12934.33205708 0 -34.07659350 0 5835.76636867 0 471.74077068 0 719.53474730 0 17496
0.12950000 0.12949900 13108.35293720 0 4.36814591 0 5690.69351259 0 256.05802746 0 954.51728232 0 18405
0.13050000 0.13049000 12766.74407119 0 -32.68453737 0 5298.53097089 0 -24.17038004 0 11.54560329 0 18100
0.13150000 0.13148800 12929.11919451 0 86.28563034 0 5510.46156218 0 100.15162294 0 653.85711545 0 19059
0.13250000 0.13249300 12651.50653490 0 140.89812955 0 5053.41551834 0 252.25485603 0 48.54794363 0 18957
0.13350000 0.13349100 12638.52983447 0 -7.52943651 0 4810.17447807 0 408.95350476 0 499.13380890 0 19468
0.13450000 0.13450700 12551.90758630 0 -70.43608808 0 4123.38538064 0 732.48593797 0 -184.64846503 0 19953
0.13550000 0.13551000 12618.45476799 0 129.94446345 0 3878.33647526 0 50.03549497 0 231.87810900 0 19956
0.13650000 0.13649900 12360.02987910 0 247.31927339 0 4011.29774428 0 13.49743213 0 -167.72662585 0 19723
0.13750000 0.13749600 12019.75195673 0 327.01174170 0 3580.53783720 0 -287.88088975 0 -275.20143340 0 20946
0.13850000 0.13851100 11562.90555443 0 274.41284929 0 4325.95500170 0 -54.55027760 0 -27.13583337 0 20955
0.13950000 0.13949800 11203.66168528 0 175.94409367 0 3608.68729506 0 121.91776421 0 -812.91708000 0 20506
0.14050000 0.14048300 11141.77280631 0 136.16107933 0 3918.67515856 0 438.81322518 0 74.44633216 0 21447
0.14150000 0.14148400 10889.34825496 0 117.83287638 0 3480.30669038 0 184.58746345 0 -198.87957984 0 21771
0.14250000 0.14249400 10585.17217866 0 118.65140671 0 3437.83849727 0 344.28184447 0 189.20694698 0 22470
0.14350000 0.14350900 10693.48880805 0 51.49066001 0 3030.27028301 0 225.24002762 0 141.42163405 0 22519
0.14450000 0.14449900 10316.58775336 0 44.07408752 0 2927.55470807 0 192.77720328 0 -94.87786970 0 22218
0.14550000 0.14550500 10422.30904267 0 103.24296135 0 2762.11841439 0 90.60420969 0 453.47356931 0 23559
0.14650000 0.14650700 10332.53689457 0 -17.43902170 0 2530.17930381 0 131.94531537 0 -49.68745321 0 23044
0.14750000 0.14750500 10403.39855187 0 -17.28673956 0 2511.37972499 0 306.24902101 0 250.49579220 0 23649
0.14850000 0.14849900 10514.37706854 0 -86.98249024 0 1939.19596562 0 354.86728284 0 -55.95653046 0 23640
0.14950000 0.14949500 10266.68845829 0 24.66859660 0 1826.58704301 0 110.74382694 0 -27.64702663 0 24457
0.15050000 0.15050000 10389.83401800 0 235.80993832 0 1730.78128377 0 -261.25979883 0 108.42133030 0 24591
0.15150000 0.15149900 10043.57794048 0 117.18847784 0 1816.20568267 0 -86.06868653 0 -33.06352357 0 25020
0.15250000 0.15250500 9958.57500707 0 116.10154053 0 2027.39316376 0 111.77264637 0 -358.78802096 0 25297
0.15350000 0.15350100 9693.61740317 0 254.84686876 0 2058.86998070 0 -263.98046944 0 -110.43127701 0 25452
0.15450000 0.15450400 9443.00071693 0 288.00732939 0 2319.84584489 0 -294.57442711 0 -415.57494933 0 26061
0.15550000 0.15549900 9186.48351391 0 131.92756946 0 2950.93495124 0 -370.08662329 0 -437.07079814 0 26128
0.15650000 0.15649500 8898.26767001 0 238.80456149 0 2844.73674046 0 -442.77389161 0 -967.21892107 0 26331
0.15750000 0.15749700 9052.98986744 0 82.82440051 0 3465.43339528 0 29.52143892 0 -878.21650204 0 27345
0.15850000 0.15849900 8896.42653132 0 -77.90246004 0 3141.04915813 0 68.83695930 0 -909.83084982 0 26980
0.15950000 0.15949700 9085.05451782 0 -85.17562335 0 3123.10360147 0 251.99199466 0 -803.03593264 0 27777
0.16050000 0.16050000 9004.16641848 0 61.81423522 0 3036.28171176 0 141.72553284 0 -698.34723377 0 28224
0.16150000 0.16150500 9183.61089390 0 -15.13061088 0 2756.94991662 0 319.48858281 0 -310.88181398 0 28075
0.16250000 0.16249700 9171.25530050 0 -91.00704197 0 2623.78900606 0 541.72844166 0 -48.05693634 0 28590
0.16350000 0.16349900 9228.95170703 0 51.28325463 0 2058.29323845 0 218.54649027 0 284.87295714 0 29163
0.16450000 0.16449100 9066.16620942 0 191.22998130 0 2457.49869021 0 -15.58424083 0 -76.94639886 0 28996
0.16550000 0.16550500 8863.97368905 0 175.96183958 0 2246.63285383 0 -273.87381712 0 310.46589409 0 30777
0.16650000 0.16650700 8553.86382238 0 240.87196060 0 2783.44678613 0 -201.40060890 0 182.80067162 0 29211
0.16750000 0.16749900 8603.28619598 0 8.02104272 0 2747.48912562 0 24.42614304 0 145.23035108 0 30922
0.16850000 0.16850800 8396.61283205 0 15.81515955 0 2450.74415127 0 258.28070333 0 2.72883373 0 30867
0.16950000 0.16949900 8404.38776111 0 105.34285767 0 2694.56193378 0 136.77109517 0 103.61895293 0 30852
0.17050000 0.17049200 8340.74647302 0 61.69056837 0 2481.05639253 0 40.59477904 0 162.83762623 0 31257
0.17150000 0.17149500 8226.27422932 0 89.82460946 0 2528.68199223 0 165.85221357 0 293.08487936 0 32608
0.17250000 0.17250900 8168.38927244 0 53.38037814 0 2150.16162278 0 120.78424389 0 634.38984657 0 32361
0.17350000 0.17350400 8110.34903881 0 -35.69601917 0 2267.27357135 0 409.31064130 0 469.97505212 0 32508
0.17450000 0.17449800 8140.53927691 0 72.59620959 0 1981.28705804 0 35.55238817 0 535.18130810 0 32791
0.17550000 0.17549800 7975.18062160 0 170.97634656 0 2300.03696714 0 -207.48967603 0 479.16299968 0 33633
0.17650000 0.17650100 7907.74614416 0 86.89331702 0 2214.75675380 0 -253.08669580 0 388.30280516 0 33984
0.17750000 0.17750300 7867.19672812 0 9.36763603 0 2273.68428319 0 15.39535775 0 217.66584923 0 34069
0.17850000 0.17849800 7823.86342164 0 39.37042181 0 2330.26047882 0 -61.82443912 0 -88.36412065 0 34536
