### header ###
fiducial parameters:
Omega_m = 0.31
Omega_nu = 0
Omega_de = 0.69
Omega_k = 0
H_0 = 100
w_de = -1
zeff = 0
beta = 0
fgrowth = 0
b_1 = 2
gamma = 0.55
Lx = 3500 Ly = 3500 Lz = 3500
nx = 700 ny = 700 nz = 700
xoffset = 1379.75464 yoffset = 22.6059522 zoffset = 368.141391
bins = 400 dk = 0.001
kx_ny = 0.628318531 ky_ny = 0.628318531 kz_ny = 0.628318531
############################
A(data) = 3.35630039 (not used)
A(ran) = 3.35845173 (used)
Ngal = 188691
weighted Ngal = 0
Nran = 9399747
weighted Nran = 0
SN(data) = 6635.84072
SN(ran) = 133.583703
SN(data+ran) = 6769.42442
############################
13 columns: k_central k_mean P_0(k) sigma^{lin}_{P_0(k)} P^img_1(k) sigma^{lin}_{P_1(k)} P_2(k) sigma^{lin}_{P_2(k)} P^img_3(k) sigma^{lin}_{P_3(k)} P_4(k) sigma^{lin}_{P_4(k)} N_modes
### header ###
0.00050000 0 0 0 0 0 0 0 0 0 0 0 0
0.00150000 0.00179520 47825.35215271 0 -8469.42654001 0 -2834.56611286 0 -25046.36277242 0 -94181.67526962 0 3
0.00250000 0.00253879 104722.74884921 0 -18408.50322284 0 -43387.32060584 0 22554.39264209 0 169754.09665163 0 6
0.00350000 0.00331552 113521.72812414 0 -31040.71107505 0 -38318.42177657 0 -28566.81959575 0 -42863.59428595 0 7
0.00450000 0.00420575 128975.09283210 0 -25978.79969985 0 -51656.47340256 0 -30660.61575564 0 3433.52402166 0 24
0.00550000 0.00557378 141782.09794821 0 10120.36229695 0 -20522.92900905 0 -77255.62143087 0 -49690.11509561 0 45
0.00650000 0.00659388 122524.45268701 0 23523.09778355 0 -35670.84215306 0 -40769.24356622 0 -16449.02145800 0 40
0.00750000 0.00754703 107299.01207634 0 2235.41965372 0 46097.34366817 0 -12534.05075922 0 18662.71345690 0 57
0.00850000 0.00846663 102708.69839538 0 -10964.25819915 0 2975.60177325 0 19644.39529878 0 -47081.68739733 0 75
0.00950000 0.00948925 135587.66445263 0 -11151.86579553 0 -2340.37565044 0 31458.84920000 0 -24801.02549592 0 112
0.01050000 0.01054430 118988.57909992 0 7497.41622186 0 -14734.10058587 0 -35010.47228676 0 -11814.23207728 0 105
0.01150000 0.01145670 117443.57536503 0 15123.29068678 0 19022.06823802 0 -25015.52924490 0 -11613.70323645 0 144
0.01250000 0.01249090 103336.79287856 0 6988.86265939 0 13035.59468522 0 -9784.69831251 0 14294.11280293 0 169
0.01350000 0.01339930 88238.67920885 0 11529.96469949 0 19658.25929497 0 17388.77857542 0 4047.47722872 0 180
0.01450000 0.01448870 95456.38653488 0 -4605.48643839 0 22655.43344629 0 25905.48688802 0 7348.87182114 0 267
0.01550000 0.01550050 93502.78310442 0 -630.82180851 0 -3407.41534404 0 2637.23153676 0 -14223.12914246 0 238
0.01650000 0.01653350 84197.15795289 0 11774.52559220 0 24174.04013244 0 -16141.57347860 0 17891.54253309 0 315
0.01750000 0.01747870 75259.20598019 0 3823.27977361 0 12162.82839736 0 -683.65805253 0 7815.17901443 0 297
0.01850000 0.01844180 75312.55463752 0 -6628.40984977 0 16188.60015366 0 9500.94112979 0 5249.41915081 0 388
0.01950000 0.01947590 83088.26008201 0 -5762.96375190 0 7789.96872377 0 3626.89904045 0 -24233.37803611 0 399
0.02050000 0.02045430 84819.48501365 0 1765.65200698 0 6800.52304401 0 -2387.20268395 0 -9229.31771652 0 462
0.02150000 0.02154770 85334.33837599 0 3992.38725348 0 9212.33709400 0 -14682.19378415 0 -13407.14978298 0 571
0.02250000 0.02255340 75140.53017285 0 6604.87432985 0 14050.88285386 0 -5862.00814065 0 -31969.93155537 0 510
0.02350000 0.02348930 76075.18533968 0 2731.75071715 0 26524.70841364 0 -8520.72332590 0 -17552.70646632 0 555
0.02450000 0.02439640 69783.48204686 0 3476.03657956 0 24177.03475561 0 5010.17094144 0 -31064.66806046 0 592
0.02550000 0.02547300 68701.09213668 0 1846.31828238 0 30178.59233627 0 553.91433975 0 -7790.77838114 0 837
0.02650000 0.02652900 63936.42483969 0 3144.83125629 0 26521.27014259 0 2050.35194144 0 -18933.00592652 0 723
0.02750000 0.02749970 62939.65896996 0 370.40826800 0 31000.89367801 0 7176.61444133 0 3937.78529091 0 826
0.02850000 0.02848090 63870.65404179 0 -1097.87322112 0 27474.33669635 0 8964.36011263 0 -3815.84867166 0 831
0.02950000 0.02946900 64293.00682158 0 -1342.10137792 0 24240.36549019 0 7170.92465730 0 9321.45228957 0 996
0.03050000 0.03053250 62762.86529060 0 2842.72923381 0 20336.26416441 0 3082.87583014 0 4659.34529077 0 1041
0.03150000 0.03150510 63121.77642385 0 3098.42568826 0 24427.91763058 0 -5538.89939115 0 8274.70948639 0 1036
0.03250000 0.03246190 58428.64734718 0 3103.53873005 0 27146.81365047 0 -3290.76922573 0 11274.97808165 0 1059
0.03350000 0.03345080 54676.27359565 0 1945.66213344 0 38289.80648844 0 -1195.39811588 0 6855.29137455 0 1302
0.03450000 0.03451200 52670.43062757 0 3264.03944109 0 37000.23301927 0 -2355.30440153 0 3989.51463347 0 1339
0.03550000 0.03553350 52657.67575108 0 983.36992206 0 40643.35848085 0 4715.06746423 0 7343.17094590 0 1365
0.03650000 0.03647120 50102.37488618 0 -1357.93960716 0 39927.97627769 0 7863.18171482 0 12057.57293832 0 1308
0.03750000 0.03744890 51475.68689230 0 497.88050365 0 35325.01863221 0 9679.76449818 0 22062.16532153 0 1579
0.03850000 0.03847530 54284.19978353 0 -1481.70627390 0 31022.74333600 0 9954.74854412 0 21644.02719658 0 1662
0.03950000 0.03950240 51942.73719579 0 -249.65064299 0 26751.30156730 0 6050.89122468 0 28016.69622712 0 1683
0.04050000 0.04050350 51060.65430250 0 2736.32029029 0 28253.71510590 0 2239.94486207 0 28125.83360509 0 1822
0.04150000 0.04152450 49962.73671660 0 1678.25337502 0 25646.06379141 0 2687.86285083 0 32338.38111799 0 1887
0.04250000 0.04250150 45298.66657593 0 941.46737999 0 28368.39808235 0 -1285.49190869 0 23759.45119051 0 1920
0.04350000 0.04349210 46048.65331357 0 2008.97068563 0 26057.99084606 0 5.25567459 0 25513.52398787 0 2005
0.04450000 0.04448520 42296.94503386 0 1441.00158110 0 27577.59573994 0 682.86059547 0 15636.48036957 0 2151
0.04550000 0.04548030 43488.47232201 0 1486.02074952 0 27345.78972372 0 -2191.28778106 0 15005.16943928 0 2274
0.04650000 0.04648670 38971.47145288 0 1744.33472644 0 27008.72824846 0 -482.24857067 0 9434.07230339 0 2311
0.04750000 0.04749250 38019.62493078 0 1217.23668267 0 27620.96232001 0 1868.21230516 0 6879.76964621 0 2568
0.04850000 0.04851840 36778.85272818 0 -191.99194653 0 24995.45417842 0 2715.99012629 0 4187.47031660 0 2493
0.04950000 0.04949480 37499.66961785 0 -743.66919186 0 21677.41169939 0 2974.58138313 0 953.37156168 0 2644
0.05050000 0.05050630 37014.76248727 0 156.14297976 0 19011.75342486 0 3790.47201304 0 4615.19123572 0 2829
0.05150000 0.05149060 36831.86864960 0 303.84001304 0 17344.41378763 0 580.77943700 0 -779.88194989 0 2784
0.05250000 0.05249300 35799.50003766 0 1344.04233738 0 17672.82412927 0 -1946.09469013 0 1615.33301474 0 3055
0.05350000 0.05348950 34332.35650535 0 1657.13573603 0 17904.29740958 0 -362.05659670 0 -2214.45729149 0 3009
0.05450000 0.05448610 33565.84388425 0 -640.84825055 0 18039.61001235 0 1822.08401705 0 2033.89260517 0 3336
0.05550000 0.05550870 33042.67212421 0 -407.13454846 0 15457.46845083 0 1956.54259765 0 -1748.11682460 0 3349
0.05650000 0.05647670 35671.28580093 0 -705.11730038 0 15360.86412541 0 2252.32263787 0 -245.51584477 0 3324
0.05750000 0.05747970 35084.56148237 0 -329.90765322 0 13424.00840234 0 -145.58970586 0 -2432.19966997 0 3639
0.05850000 0.05849280 36333.43025874 0 522.11365986 0 13356.46301293 0 -159.47366620 0 -595.84128245 0 3846
0.05950000 0.05951020 34198.70758212 0 1207.66497971 0 15434.62058512 0 -2314.24479043 0 -3223.96694652 0 3787
0.06050000 0.06049470 33069.40190885 0 1675.53603177 0 16897.66037456 0 -1523.88609590 0 -1902.11809423 0 3930
0.06150000 0.06148310 31655.71794583 0 1093.61420149 0 17972.73009475 0 492.86506439 0 -4006.90563029 0 4083
0.06250000 0.06249100 30785.72445721 0 237.53351032 0 16737.17075472 0 235.64689772 0 -5203.64578100 0 4303
0.06350000 0.06350600 30383.44674390 0 75.30967093 0 18287.60917611 0 1422.00236073 0 -3792.76789081 0 4470
0.06450000 0.06451750 30590.40847895 0 137.95563500 0 16842.42621375 0 696.53715043 0 -3989.01552961 0 4479
0.06550000 0.06550280 30255.12159521 0 157.46505043 0 15039.66306179 0 949.60610031 0 -3373.38755180 0 4636
0.06650000 0.06648880 29886.00656077 0 250.08763615 0 16025.67047049 0 1526.04887930 0 -2696.28106931 0 4653
0.06750000 0.06749660 29316.80633339 0 337.16573251 0 14241.65144137 0 723.55752443 0 -3509.12162005 0 5220
0.06850000 0.06852730 29477.07412929 0 565.78968432 0 14577.27106102 0 647.90890653 0 -1618.62710023 0 5029
0.06950000 0.06949320 27925.74841214 0 871.16360990 0 13839.81737593 0 348.88801856 0 -2515.83838616 0 5040
0.07050000 0.07048030 27382.39067365 0 486.98783912 0 15725.65359304 0 123.25536257 0 452.59514651 0 5475
0.07150000 0.07148790 27120.30568976 0 226.27039982 0 13806.21104918 0 686.96544746 0 -2078.88959119 0 5509
0.07250000 0.07249820 26762.17094031 0 -373.03466344 0 12756.54017000 0 2481.58876998 0 835.57084977 0 5916
0.07350000 0.07351270 26577.39159915 0 -97.80860758 0 10518.54735859 0 2172.78766455 0 99.77552045 0 5721
0.07450000 0.07449140 27144.81723502 0 -136.58698130 0 9565.91336151 0 1808.75239832 0 1100.77135088 0 6028
0.07550000 0.07549160 26905.35829291 0 -161.31591401 0 7840.02329559 0 1189.28686636 0 694.63944663 0 6183
0.07650000 0.07648840 26630.62934450 0 229.26391388 0 8084.01853726 0 183.35301323 0 333.23723055 0 6330
0.07750000 0.07749960 25861.12210023 0 613.45077585 0 7344.98990220 0 -561.91885659 0 404.66232066 0 6583
0.07850000 0.07848650 25600.25714801 0 321.86209896 0 7370.42201681 0 -1284.87080166 0 -1740.68572264 0 6549
0.07950000 0.07947320 25706.73263871 0 -67.34197686 0 8016.96116051 0 219.83417823 0 -3064.58644637 0 6828
0.08050000 0.08048110 25844.70712875 0 19.33606002 0 8225.78621665 0 -1336.14540516 0 -3819.65295221 0 7147
0.08150000 0.08149960 25469.93558387 0 513.71207817 0 8500.34879710 0 -679.71956849 0 -3639.98665285 0 7386
0.08250000 0.08250610 25202.74864939 0 576.72782275 0 9264.26607811 0 -222.79774606 0 -3424.01886587 0 7227
0.08350000 0.08350160 24304.36169658 0 485.27314008 0 10234.00270088 0 -239.66745661 0 -4917.71472368 0 7798
0.08450000 0.08449610 23867.70127273 0 763.33942964 0 10771.68174654 0 378.93961669 0 -1983.82694214 0 7371
0.08550000 0.08548940 22988.61300261 0 382.29692201 0 10920.54779198 0 1101.80948691 0 -1924.21175855 0 8256
0.08650000 0.08650700 22302.95520727 0 47.18161908 0 9103.12207765 0 2019.60714350 0 756.14124283 0 8037
0.08750000 0.08749060 22646.33866479 0 154.34176937 0 9289.87565186 0 1263.03223487 0 1021.77430062 0 8155
0.08850000 0.08849210 21691.27569558 0 715.03283046 0 8478.87623981 0 727.70119561 0 2678.20241828 0 8718
0.08950000 0.08949900 20985.98648164 0 369.49213513 0 8495.46867045 0 795.64143164 0 2531.47697386 0 8571
0.09050000 0.09049190 20196.29325893 0 453.83846968 0 7370.86566468 0 -111.99114295 0 2163.44887672 0 8932
0.09150000 0.09150830 19621.65834504 0 506.99968578 0 8051.58787738 0 62.83296166 0 2729.34392741 0 9285
0.09250000 0.09250820 19210.39676220 0 177.20516276 0 7767.79742107 0 494.43446875 0 2569.26468186 0 9204
0.09350000 0.09350330 18763.75426109 0 161.50668260 0 6543.47346354 0 208.51117527 0 1560.06558034 0 9349
0.09450000 0.09448040 18561.22900482 0 337.62823542 0 7246.79953562 0 532.96417783 0 1705.94809380 0 9564
0.09550000 0.09549270 18414.93611707 0 246.14027915 0 6759.67416565 0 26.83969841 0 2336.39391073 0 10155
0.09650000 0.09649430 17715.08158964 0 -100.39662748 0 6355.51094886 0 855.05364633 0 1155.89127235 0 9913
0.09750000 0.09749140 18063.01243791 0 178.67474636 0 6171.97382176 0 182.08972590 0 2770.68081844 0 10476
0.09850000 0.09850240 17705.98680814 0 349.30837493 0 6591.07688084 0 -378.47822290 0 960.54423874 0 10575
0.09950000 0.09950330 16944.35431371 0 401.58894998 0 6790.44114599 0 427.12975831 0 3094.55486052 0 10882
0.10050000 0.10051200 16894.55483941 0 343.83597835 0 7374.68103643 0 -81.01831000 0 2628.32530561 0 10875
0.10150000 0.10150300 16475.97306658 0 -100.08474302 0 6284.47183241 0 767.75039867 0 2768.21857272 0 11118
0.10250000 0.10250800 16855.07017827 0 -387.24803233 0 6179.47147090 0 1980.22230314 0 3813.19787559 0 11575
0.10350000 0.10349800 17126.58267957 0 -284.95503199 0 4772.73059717 0 702.74822072 0 3131.98765022 0 11364
0.10450000 0.10450100 17385.78395225 0 116.68382837 0 4680.34092659 0 279.01680515 0 3478.12172458 0 12093
0.10550000 0.10551000 17190.80070990 0 389.16348204 0 4461.26760447 0 -783.42447820 0 2724.78544547 0 12067
0.10650000 0.10649700 16693.13870283 0 232.41492293 0 5107.81783937 0 -455.22043282 0 3034.97295052 0 12054
0.10750000 0.10749900 16042.75091379 0 494.13500644 0 4927.61916255 0 -465.04945156 0 1751.32218052 0 12807
0.10850000 0.10850100 15807.06297864 0 91.84365095 0 5213.45039910 0 260.20058952 0 1201.24317667 0 12736
0.10950000 0.10950300 15646.24062289 0 308.32196572 0 4982.48731385 0 122.36141209 0 807.24060541 0 12933
0.11050000 0.11050200 15138.70745054 0 313.40838864 0 4988.99784646 0 -330.44890364 0 268.14299566 0 13428
0.11150000 0.11150900 14924.20370156 0 -39.22479439 0 4648.88629204 0 48.46664516 0 785.40536597 0 13453
0.11250000 0.11250000 15353.98758330 0 9.74370525 0 4678.44433191 0 346.75850875 0 -63.29956831 0 13668
0.11350000 0.11349100 15048.42510738 0 38.63418815 0 3988.59406413 0 198.73428516 0 -25.61933401 0 13791
0.11450000 0.11448600 14800.09320771 0 69.30988794 0 4205.17186693 0 71.99417942 0 -639.41970438 0 14205
0.11550000 0.11549300 14804.75151043 0 376.82341632 0 4915.71830822 0 -454.89213340 0 278.57537551 0 14776
0.11650000 0.11649800 14320.62076364 0 308.55709910 0 4839.87670349 0 51.63739654 0 -506.66584075 0 14553
0.11750000 0.11747300 13987.77394322 0 104.35019554 0 5230.07610333 0 404.09445137 0 737.35940991 0 14568
0.11850000 0.11849100 13811.64573568 0 71.77213366 0 4638.42729332 0 211.68436671 0 510.55663264 0 16015
0.11950000 0.11950300 13956.60767980 0 110.70123674 0 4929.21629491 0 282.47171300 0 762.00183129 0 15270
0.12050000 0.12050700 13678.55137230 0 322.14936096 0 5027.14047277 0 72.75159726 0 1380.44364577 0 15999
0.12150000 0.12150000 13410.25531813 0 162.52596360 0 5200.29623952 0 -30.88077602 0 1913.38675033 0 15670
0.12250000 0.12250700 13421.90107492 0 -177.02104889 0 5059.38258230 0 819.90231584 0 2341.65113809 0 16887
0.12350000 0.12352200 13738.11109992 0 -164.29722775 0 4496.50433717 0 721.92822760 0 2067.92039741 0 16407
0.12450000 0.12449800 13644.27957373 0 81.74156695 0 4321.23015180 0 -7.16678764 0 2752.31379629 0 16306
0.12550000 0.12549900 13568.30487464 0 277.80786468 0 4704.88574544 0 -261.75668446 0 2581.26535696 0 17523
0.12650000 0.12650100 13360.12310792 0 114.14172603 0 5074.81043725 0 -28.35830509 0 2767.30909457 0 17154
0.12750000 0.12750600 13189.87323477 0 32.40958660 0 4623.80909574 0 395.23480325 0 2833.34608120 0 18007
0.12850000 0.12850300 13361.89769943 0 7.49984519 0 4503.90216554 0 294.89718094 0 2770.50335929 0 17496
0.12950000 0.12949900 13375.65078365 0 -13.13386269 0 4450.88624412 0 193.86081322 0 2579.42421826 0 18405
0.13050000 0.13049000 13145.73027091 0 216.14302789 0 4613.89356567 0 -158.18708735 0 1998.48950451 0 18100
0.13150000 0.13148800 12928.78645860 0 267.10929610 0 4287.32436273 0 -371.28336344 0 2433.69698156 0 19059
0.13250000 0.13249300 12584.29388139 0 84.85841511 0 4491.01419468 0 -34.27667870 0 1568.39506925 0 18957
0.13350000 0.13349100 12520.74132288 0 222.66132433 0 4845.28920760 0 106.74256673 0 1157.89877900 0 19468
0.13450000 0.13450700 12412.15850476 0 131.61590683 0 4590.34695455 0 -1.57877643 0 1497.78850948 0 19953
0.13550000 0.13551000 12153.62270389 0 72.78586906 0 4378.32763369 0 357.61679056 0 1138.12317484 0 19956
0.13650000 0.13649900 12124.23103198 0 -53.37516528 0 4370.71907258 0 401.85181135 0 1931.45431015 0 19723
0.13750000 0.13749600 12192.88554109 0 66.83011812 0 3769.17691490 0 -202.03058889 0 213.23602517 0 20946
0.13850000 0.13851100 11885.54847365 0 307.64096623 0 4249.35919558 0 -151.87508717 0 1034.62677964 0 20955
0.13950000 0.13949800 11564.45832200 0 473.23142755 0 4738.62516655 0 -845.52408991 0 -181.07377226 0 20506
0.14050000 0.14048300 11150.20211599 0 191.27434609 0 4684.44466946 0 -338.33252643 0 433.77449441 0 21447
0.14150000 0.14148400 10974.89465702 0 -65.37495308 0 4897.05182376 0 461.33611882 0 -530.63502647 0 21771
0.14250000 0.14249400 11209.65093163 0 -73.50457862 0 4483.31690400 0 523.43683965 0 72.93881667 0 22470
0.14350000 0.14350900 11200.55615013 0 -73.60284663 0 3643.73547741 0 614.12068414 0 44.22792242 0 22519
0.14450000 0.14449900 11171.38630216 0 22.21799664 0 3995.99189249 0 390.19163600 0 270.29136051 0 22218
0.14550000 0.14550500 11031.22684632 0 251.90881069 0 3338.08427192 0 -102.33681056 0 519.28318640 0 23559
0.14650000 0.14650700 10858.96946652 0 113.61489418 0 3621.51980993 0 118.58153217 0 339.05678159 0 23044
0.14750000 0.14750500 10620.91910642 0 50.45906778 0 3916.47910157 0 246.22568137 0 910.90447768 0 23649
0.14850000 0.14849900 10565.04165620 0 101.43820178 0 3096.71764393 0 101.20539756 0 174.81722806 0 23640
0.14950000 0.14949500 10439.73331307 0 121.68373996 0 3444.67067459 0 220.87120515 0 671.34682392 0 24457
0.15050000 0.15050000 10264.81404600 0 192.37681107 0 3233.72719983 0 -92.40664011 0 531.50124896 0 24591
0.15150000 0.15149900 10089.71731978 0 169.21950096 0 3281.36389072 0 127.76393413 0 893.35709499 0 25020
0.15250000 0.15250500 9678.89938482 0 180.50701209 0 3279.23438091 0 57.55177732 0 674.34699269 0 25297
0.15350000 0.15350100 9713.00481544 0 68.47438807 0 2883.33410584 0 505.01436152 0 1116.92789747 0 25452
0.15450000 0.15450400 9505.92107722 0 43.70430701 0 3151.47488326 0 337.26222592 0 794.98816014 0 26061
0.15550000 0.15549900 9429.26981511 0 184.13937909 0 2968.34813045 0 -329.22110813 0 1348.39008659 0 26128
0.15650000 0.15649500 9287.35795015 0 164.49465106 0 3098.20386432 0 -296.62629854 0 1213.26603417 0 26331
0.15750000 0.15749700 9095.01441268 0 209.41399870 0 3528.89722421 0 -227.13884054 0 784.42712240 0 27345
0.15850000 0.15849900 8970.18299103 0 38.04092003 0 3379.92026680 0 -136.97628231 0 642.97886948 0 26980
0.15950000 0.15949700 8953.90111391 0 78.39657286 0 3994.98259357 0 -42.01933237 0 596.30489448 0 27777
0.16050000 0.16050000 8719.92122309 0 78.50537750 0 3403.15632441 0 83.98409606 0 666.35689441 0 28224
0.16150000 0.16150500 9021.51305050 0 -113.21117461 0 3239.70535498 0 754.21470192 0 592.18895130 0 28075
0.16250000 0.16249700 8967.62092453 0 -211.21853644 0 2873.88440604 0 388.31611459 0 390.77836032 0 28590
0.16350000 0.16349900 9174.17228530 0 14.53556816 0 2189.15827125 0 315.85954317 0 740.84093664 0 29163
0.16450000 0.16449100 9039.23678323 0 183.68574914 0 2146.80099010 0 -78.32370370 0 299.25713046 0 28996
0.16550000 0.16550500 8782.22047634 0 153.14281098 0 2383.79768649 0 -260.40023107 0 422.13095585 0 30777
0.16650000 0.16650700 8616.97273301 0 197.32681226 0 2289.87743073 0 32.53225524 0 -49.39032004 0 29211
0.16750000 0.16749900 8375.17354834 0 171.71391115 0 2436.28123045 0 -244.08064388 0 126.70916130 0 30922
0.16850000 0.16850800 8277.33810006 0 138.75087382 0 2517.18042099 0 76.38906621 0 -205.36349357 0 30867
0.16950000 0.16949900 8135.78115341 0 -9.40092072 0 2760.94274752 0 155.72595075 0 564.22804379 0 30852
0.17050000 0.17049200 8105.26927061 0 11.28961846 0 2192.61872469 0 228.86130343 0 -64.39815137 0 31257
0.17150000 0.17149500 8169.03256187 0 125.37599942 0 2744.92705912 0 -69.04425377 0 323.32613696 0 32608
0.17250000 0.17250900 8016.19586792 0 119.57308518 0 2569.24249946 0 -190.93051898 0 372.99917161 0 32361
0.17350000 0.17350400 7908.08997126 0 115.16987999 0 2845.96786332 0 -72.18528075 0 259.36874975 0 32508
0.17450000 0.17449800 7943.31561277 0 3.00564783 0 2862.01682531 0 184.16488885 0 163.58960939 0 32791
0.17550000 0.17549800 7872.26540512 0 -61.82177723 0 2660.43432077 0 204.35530377 0 139.52171201 0 33633
0.17650000 0.17650100 7907.28031389 0 80.05548319 0 2633.38289142 0 12.24712149 0 525.67393408 0 33984
0.17750000 0.17750300 7862.28332787 0 44.82906530 0 2298.30674041 0 49.41993354 0 289.02328303 0 34069
