### header ###
fiducial parameters:
Omega_m = 0.31
Omega_nu = 0
Omega_de = 0.69
Omega_k = 0
H_0 = 100
w_de = -1
zeff = 0
beta = 0
fgrowth = 0
b_1 = 2
gamma = 0.55
Lx = 3500 Ly = 3500 Lz = 3500
nx = 700 ny = 700 nz = 700
xoffset = 1379.75464 yoffset = 22.6059522 zoffset = 368.141391
bins = 400 dk = 0.001
kx_ny = 0.628318531 ky_ny = 0.628318531 kz_ny = 0.628318531
############################
A(data) = 3.3911671 (not used)
A(ran) = 3.39649127 (used)
Ngal = 190435
weighted Ngal = 0
Nran = 9399747
weighted Nran = 0
SN(data) = 6564.9487
SN(ran) = 135.096741
SN(data+ran) = 6700.04544
############################
13 columns: k_central k_mean P_0(k) sigma^{lin}_{P_0(k)} P^img_1(k) sigma^{lin}_{P_1(k)} P_2(k) sigma^{lin}_{P_2(k)} P^img_3(k) sigma^{lin}_{P_3(k)} P_4(k) sigma^{lin}_{P_4(k)} N_modes
### header ###
0.00050000 0 0 0 0 0 0 0 0 0 0 0 0
0.00150000 0.00179520 82376.75979778 0 -58335.70311675 0 -73897.87246677 0 76763.39411031 0 119304.67821295 0 3
0.00250000 0.00253879 111230.28683464 0 -45686.52573321 0 -21075.82517692 0 -73959.76134574 0 -65998.61108828 0 6
0.00350000 0.00331552 146740.97210376 0 -22332.67961509 0 -56971.15315621 0 -30692.89113876 0 22323.58483360 0 7
0.00450000 0.00420575 162941.88348603 0 -6899.78925670 0 -35088.33248934 0 -50905.71028114 0 27656.56506221 0 24
0.00550000 0.00557378 155225.73776915 0 18789.59674998 0 -2353.17489172 0 -36233.60948621 0 37464.17778761 0 45
0.00650000 0.00659388 123767.77586491 0 16778.98456721 0 -10753.83601065 0 43143.09244904 0 -4759.04406013 0 40
0.00750000 0.00754703 109600.65726704 0 9089.40226702 0 37475.26898456 0 11846.28563646 0 40886.47751796 0 57
0.00850000 0.00846663 79268.11911713 0 15874.71928002 0 17966.62993643 0 21573.37627202 0 37384.43208156 0 75
0.00950000 0.00948925 78932.16676157 0 8427.81236906 0 41744.60342584 0 24394.20039186 0 32671.44976235 0 112
0.01050000 0.01054430 75119.78963456 0 -7251.84603023 0 2078.72322323 0 23388.11791669 0 46706.13946866 0 105
0.01150000 0.01145670 76813.96996840 0 -13221.92679395 0 -2641.40182681 0 16548.17675872 0 57883.29319323 0 144
0.01250000 0.01249090 96462.24718611 0 -1332.47421897 0 -2900.81383223 0 -18642.52747845 0 884.71927081 0 169
0.01350000 0.01339930 105377.57311703 0 7808.42447549 0 6217.25917890 0 -30806.02134763 0 19526.60678719 0 180
0.01450000 0.01448870 86772.20114836 0 5961.38526531 0 29158.20221703 0 -11369.25325571 0 17321.34409798 0 267
0.01550000 0.01550050 78698.47524187 0 4417.72356525 0 55007.78947244 0 2077.92465705 0 16114.62187001 0 238
0.01650000 0.01653350 86038.85120614 0 4918.13618916 0 59145.91505382 0 12213.73699135 0 -3526.73444081 0 315
0.01750000 0.01747870 82086.50317364 0 5174.89739851 0 72127.27378596 0 3732.86433609 0 19354.47141056 0 297
0.01850000 0.01844180 73164.85526046 0 3612.53594040 0 72842.87781306 0 7630.87659474 0 30371.91189907 0 388
0.01950000 0.01947590 76224.14011469 0 -3945.26075765 0 60140.57359613 0 22336.11788615 0 32768.27591171 0 399
0.02050000 0.02045430 84462.45938389 0 -9211.62725739 0 43826.42109302 0 36010.12186770 0 47183.06093743 0 462
0.02150000 0.02154770 93502.11763260 0 -3029.26098409 0 35578.11974657 0 13689.53165728 0 32193.86282176 0 571
0.02250000 0.02255340 89753.07124016 0 3292.99855632 0 16245.27617006 0 788.55415679 0 29242.93896171 0 510
0.02350000 0.02348930 83322.94980943 0 9518.38758259 0 35157.43064632 0 -14661.34233389 0 33689.95437810 0 555
0.02450000 0.02439640 72595.98776899 0 7170.93574849 0 25891.51197987 0 -1243.38972508 0 22070.26189530 0 592
0.02550000 0.02547300 69175.90627803 0 1011.52048904 0 42308.81261460 0 7626.55102793 0 15762.92001478 0 837
0.02650000 0.02652900 69471.48667670 0 -239.05744078 0 30905.62029622 0 9632.14998968 0 11900.07794166 0 723
0.02750000 0.02749970 67558.14429117 0 -1719.93409315 0 23770.32056352 0 6564.45800817 0 11553.14530112 0 826
0.02850000 0.02848090 67823.11298626 0 1512.06287995 0 19294.91168294 0 -4750.61475045 0 6555.65159779 0 831
0.02950000 0.02946900 68265.31900858 0 1896.90523166 0 19831.28196736 0 3595.77714181 0 5359.22200059 0 996
0.03050000 0.03053250 64551.65353441 0 1513.98165702 0 24322.10761170 0 -5118.02174056 0 2218.76067590 0 1041
0.03150000 0.03150510 63797.23031799 0 3573.39510637 0 22629.59095740 0 -584.67244713 0 -2222.21003815 0 1036
0.03250000 0.03246190 58880.39179888 0 2658.48227011 0 38653.93048425 0 -1446.70245634 0 2198.45269429 0 1059
0.03350000 0.03345080 54905.63954854 0 2392.39336413 0 24755.99523631 0 3493.34993799 0 354.38592489 0 1302
0.03450000 0.03451200 56013.42829973 0 693.67007601 0 36173.16246284 0 3155.17934304 0 8306.96268711 0 1339
0.03550000 0.03553350 52676.97443377 0 1419.79521254 0 27855.98478334 0 3594.60147493 0 6867.50278239 0 1365
0.03650000 0.03647120 53442.48884713 0 991.95783586 0 31511.42147353 0 4375.62138163 0 6554.39829254 0 1308
0.03750000 0.03744890 49339.63327205 0 2147.30009396 0 30919.37338044 0 1094.25749091 0 9408.95074230 0 1579
0.03850000 0.03847530 47403.22119686 0 1644.22558279 0 30035.73771957 0 -1004.50530697 0 7016.23573346 0 1662
0.03950000 0.03950240 46739.19123557 0 758.87633199 0 28947.91312289 0 2678.41315103 0 6161.96956211 0 1683
0.04050000 0.04050350 43095.62212611 0 903.43677478 0 26950.27764055 0 1687.76962200 0 474.79084984 0 1822
0.04150000 0.04152450 44359.24219442 0 1899.80003406 0 28012.59248425 0 -1073.34282083 0 2734.73424913 0 1887
0.04250000 0.04250150 41391.57062698 0 447.32904620 0 25056.67758558 0 3714.53058754 0 -2420.25445086 0 1920
0.04350000 0.04349210 40713.34393360 0 -65.47344291 0 25419.80337366 0 2913.19160803 0 2111.13170072 0 2005
0.04450000 0.04448520 40761.14699244 0 -697.19707664 0 19756.19456402 0 3960.05641438 0 73.23772442 0 2151
0.04550000 0.04548030 42994.47040994 0 -249.04839099 0 19089.83545137 0 2972.57387649 0 -338.16172199 0 2274
0.04650000 0.04648670 41839.54407172 0 -151.73866545 0 16000.71527735 0 1578.00004581 0 758.38388285 0 2311
0.04750000 0.04749250 43010.44173354 0 -412.62801830 0 13690.86260092 0 2595.62845700 0 604.73198593 0 2568
0.04850000 0.04851840 42380.01809901 0 195.27050435 0 16439.37211666 0 554.17387376 0 2720.77043217 0 2493
0.04950000 0.04949480 40340.23606826 0 2247.74197353 0 14167.56224575 0 -1104.54568520 0 397.64935683 0 2644
0.05050000 0.05050630 39845.45777240 0 1828.81637360 0 18696.98525547 0 -1431.66279327 0 3444.03847636 0 2829
0.05150000 0.05149060 37758.20541871 0 -157.38075734 0 17519.21105153 0 1816.48296259 0 3995.99189249 0 2784
0.05250000 0.05249300 37474.60351275 0 795.99634994 0 18698.31619910 0 2093.69633911 0 3773.34720495 0 3055
0.05350000 0.05348950 37265.97809815 0 826.03352951 0 17104.28937370 0 -1243.77791697 0 1612.99277218 0 3009
0.05450000 0.05448610 35019.89980417 0 1058.61925688 0 18171.48434406 0 68.85137786 0 4993.03504215 0 3336
0.05550000 0.05550870 35266.67893626 0 405.86238817 0 18235.59146242 0 1691.30771383 0 2889.37880818 0 3349
0.05650000 0.05647670 34368.40289543 0 -436.34765210 0 16168.30326324 0 2456.16774658 0 2727.00368486 0 3324
0.05750000 0.05747970 34490.73879777 0 236.85251083 0 14146.82170746 0 1239.36362059 0 2550.82002133 0 3639
0.05850000 0.05849280 33679.86138888 0 242.99925218 0 13579.72880750 0 607.20643197 0 -805.52368812 0 3846
0.05950000 0.05951020 33859.76060338 0 786.40246458 0 13824.84426005 0 -1930.99957108 0 68.06401378 0 3787
0.06050000 0.06049470 32672.44797007 0 496.83904025 0 13114.89674340 0 220.93220673 0 -3708.98498906 0 3930
0.06150000 0.06148310 33036.57196588 0 -234.88604161 0 15473.99433428 0 -620.00345500 0 -1950.44243933 0 4083
0.06250000 0.06249100 32916.67612687 0 13.46094209 0 12796.02483113 0 1238.52068962 0 -4922.49502956 0 4303
0.06350000 0.06350600 33401.80508139 0 228.22799608 0 12671.58160137 0 439.84914297 0 -4683.70155926 0 4470
0.06450000 0.06451750 32062.54304989 0 1137.82371252 0 13669.45659081 0 -2449.36884285 0 -5080.20075897 0 4479
0.06550000 0.06550280 30711.74617357 0 1319.56406572 0 15204.81098435 0 -393.76189230 0 -3917.28875895 0 4636
0.06650000 0.06648880 30202.88205758 0 775.49981798 0 17589.86197609 0 -1017.18365420 0 -2122.86618709 0 4653
0.06750000 0.06749660 29118.93937983 0 -13.95183847 0 17354.28495291 0 1395.72731516 0 -3695.30954322 0 5220
0.06850000 0.06852730 29334.88498441 0 268.70088287 0 16937.69959554 0 1469.72778120 0 -1375.19750961 0 5029
0.06950000 0.06949320 29570.24018366 0 -333.72524321 0 15899.11991331 0 2080.86382424 0 -1013.59343375 0 5040
0.07050000 0.07048030 29847.52010736 0 -249.17815800 0 15448.37366933 0 2076.99299651 0 1697.15277462 0 5475
0.07150000 0.07148790 29805.37355896 0 -359.40358239 0 13718.25785738 0 2996.41994993 0 1031.15634411 0 5509
0.07250000 0.07249820 30080.43524327 0 447.72722017 0 11825.43418619 0 334.57261066 0 2372.49575680 0 5916
0.07350000 0.07351270 29174.39536457 0 817.67298525 0 12918.36073347 0 -189.15370923 0 1879.72496759 0 5721
0.07450000 0.07449140 27652.35040737 0 1040.61824423 0 12390.08702283 0 -1071.50168213 0 1531.57229538 0 6028
0.07550000 0.07549160 27294.10474594 0 918.02946260 0 13601.13481761 0 -205.85594272 0 1488.57172481 0 6183
0.07650000 0.07648840 25538.25735707 0 635.50118450 0 13482.12627435 0 -649.49827505 0 -324.41196514 0 6330
0.07750000 0.07749960 25030.05871290 0 266.05008680 0 12851.14807997 0 1419.08537593 0 65.53854824 0 6583
0.07850000 0.07848650 24988.24490041 0 -271.05221662 0 12279.17505335 0 1747.05206969 0 -944.70490038 0 6549
0.07950000 0.07947320 25205.52144862 0 31.31710370 0 9475.50901518 0 1749.68068337 0 242.10530170 0 6828
0.08050000 0.08048110 24877.88749077 0 310.41709283 0 9285.84954737 0 684.59747691 0 -211.34497609 0 7147
0.08150000 0.08149960 23875.90875847 0 709.02029259 0 8914.50518235 0 434.11499415 0 965.22805121 0 7386
0.08250000 0.08250610 23108.95248950 0 621.14473917 0 8919.57385935 0 -117.70089113 0 1807.53236665 0 7227
0.08350000 0.08350160 22377.70987470 0 370.60790955 0 9062.12901373 0 702.19809735 0 2233.98888931 0 7798
0.08450000 0.08449610 22489.39822797 0 -157.26097241 0 8620.61064561 0 1534.12327068 0 2836.88417302 0 7371
0.08550000 0.08548940 22304.50797485 0 -233.64160931 0 7314.21183067 0 1466.98825555 0 2147.06717883 0 8256
0.08650000 0.08650700 22598.64651791 0 14.52614064 0 6811.51442019 0 228.72820906 0 4868.85800112 0 8037
0.08750000 0.08749060 22527.77376941 0 176.19142736 0 7556.77630793 0 -784.77094951 0 2366.77269918 0 8155
0.08850000 0.08849210 22150.56216120 0 385.78843081 0 8339.41552938 0 -637.31348608 0 3556.96904369 0 8718
0.08950000 0.08949900 22016.02594222 0 529.27080925 0 8910.26834511 0 -1505.28615862 0 1203.20631853 0 8571
0.09050000 0.09049190 21440.50373258 0 226.98467290 0 9361.66896971 0 134.78688003 0 1636.86102801 0 8932
0.09150000 0.09150830 21179.63878036 0 307.06866047 0 10170.57214554 0 260.91929909 0 996.00501363 0 9285
0.09250000 0.09250820 21060.85206104 0 484.77625445 0 9750.70379386 0 259.36320416 0 1183.07579607 0 9204
0.09350000 0.09350330 20401.14766656 0 107.05134565 0 10379.51920484 0 1357.32959133 0 2316.44084742 0 9349
0.09450000 0.09448040 20442.40691921 0 -66.86727363 0 8112.35654546 0 1690.97497792 0 2938.08025398 0 9564
0.09550000 0.09549270 19913.46773675 0 6.97680653 0 7411.63690467 0 1801.19929319 0 4457.23040878 0 10155
0.09650000 0.09649430 19939.97569745 0 134.50072715 0 6513.69359974 0 740.04680693 0 3768.40053111 0 9913
0.09750000 0.09749140 19665.02492511 0 314.47203443 0 5740.71481082 0 -0.38028942 0 3749.49004032 0 10476
0.09850000 0.09850240 19124.10724994 0 520.84926341 0 6512.04101139 0 -1064.93458442 0 3089.43072753 0 10575
0.09950000 0.09950330 18511.42953052 0 440.65547299 0 6000.48173455 0 -1381.33094152 0 1506.04036001 0 10882
0.10050000 0.10051200 18351.05082265 0 38.72025584 0 6849.97869121 0 14.64470554 0 -189.89571031 0 10875
0.10150000 0.10150300 18142.20358412 0 -44.01962974 0 6001.57976305 0 83.59812241 0 -1668.43766572 0 11118
0.10250000 0.10250800 17835.86472441 0 360.06239949 0 7191.36573327 0 -680.73552213 0 -2441.01717155 0 11575
0.10350000 0.10349800 17635.22497161 0 461.44813991 0 6609.73227411 0 -497.74962752 0 -3632.10081182 0 11364
0.10450000 0.10450100 16874.36886096 0 567.94248565 0 7750.49515383 0 -646.59792705 0 -2443.51269086 0 12093
0.10550000 0.10551000 16416.96789882 0 394.41738203 0 7541.35954417 0 -97.69037542 0 -3252.42695788 0 12067
0.10650000 0.10649700 15926.73699371 0 196.70237788 0 8388.80462939 0 324.82233942 0 -2752.05869876 0 12054
0.10750000 0.10749900 15997.16609433 0 114.08959741 0 7594.06491207 0 628.20761339 0 -2537.00038994 0 12807
0.10850000 0.10850100 15665.87204149 0 66.25470683 0 7817.82981050 0 521.47813427 0 -1598.72949290 0 12736
0.10950000 0.10950300 15519.80097768 0 129.04829473 0 7377.66456841 0 85.47641661 0 -1906.77639694 0 12933
0.11050000 0.11050200 15731.31010348 0 47.67961382 0 7445.19886663 0 210.61184797 0 -2131.46186472 0 13428
0.11150000 0.11150900 15494.95669651 0 -67.45898899 0 6832.55442080 0 708.59771799 0 -819.03276600 0 13453
0.11250000 0.11250000 15461.90492961 0 -161.63866784 0 5409.48730516 0 1371.85905933 0 -1242.11423743 0 13668
0.11350000 0.11349100 15597.77209222 0 -126.80343647 0 5005.03571725 0 511.25648717 0 -541.31917649 0 13791
0.11450000 0.11448600 15674.96682298 0 184.05175864 0 4920.77589403 0 526.73979811 0 -1052.99047443 0 14205
0.11550000 0.11549300 15453.36470796 0 102.90567805 0 4171.12189230 0 -184.13383350 0 -814.44655606 0 14776
0.11650000 0.11649800 15066.39284644 0 332.50410243 0 4439.57322324 0 -327.51750028 0 -1430.13220809 0 14553
0.11750000 0.11747300 14716.57649469 0 262.95009725 0 4380.82315300 0 -437.06747078 0 -2045.24999084 0 14568
0.11850000 0.11849100 14578.15835677 0 210.86361814 0 5070.15213453 0 -61.98049226 0 -1547.72107814 0 16015
0.11950000 0.11950300 14149.59450669 0 148.23162897 0 4686.64072646 0 -98.86471136 0 -2328.55243449 0 15270
0.12050000 0.12050700 14452.49509535 0 86.32700050 0 4870.47731587 0 315.41145881 0 -2351.11192908 0 15999
0.12150000 0.12150000 13817.30224613 0 262.45875722 0 5218.57453209 0 -149.20654519 0 -2194.09385389 0 15670
0.12250000 0.12250700 13520.61272776 0 500.13978046 0 5754.65644539 0 -262.45432074 0 -453.50018818 0 16887
0.12350000 0.12352200 13290.69221502 0 151.25398014 0 5636.59065387 0 461.75536607 0 -1289.41819241 0 16407
0.12450000 0.12449800 13402.15874435 0 -188.96515889 0 5743.03287099 0 899.06462494 0 217.58599261 0 16306
0.12550000 0.12549900 13184.54946023 0 -62.13676722 0 4865.49736844 0 643.91829386 0 -295.56043452 0 17523
0.12650000 0.12650100 13425.33934598 0 71.57282485 0 5082.52991033 0 97.96976268 0 861.48875880 0 17154
0.12750000 0.12750600 13096.92900434 0 222.74229007 0 4494.07536504 0 178.11242267 0 695.72971129 0 18007
0.12850000 0.12850300 13064.20997334 0 82.62764267 0 4681.31695192 0 131.60925211 0 465.05277892 0 17496
0.12950000 0.12949900 12879.20880825 0 3.58257862 0 4286.98053562 0 251.71471474 0 574.55172991 0 18405
0.13050000 0.13049000 12893.07280443 0 -42.36892690 0 3775.01088449 0 566.29100642 0 319.00944310 0 18100
0.13150000 0.13148800 12667.47785850 0 -12.81887270 0 3408.56882852 0 162.16660882 0 137.24247104 0 19059
0.13250000 0.13249300 12945.64507797 0 76.15315645 0 3059.18503346 0 66.55938201 0 -282.64473567 0 18957
0.13350000 0.13349100 12611.57822588 0 186.30438074 0 3030.31464780 0 48.64887353 0 -202.21913924 0 19468
0.13450000 0.13450700 12368.45918878 0 326.02129781 0 2840.72172717 0 -273.19059939 0 -458.11190787 0 19953
0.13550000 0.13551000 11956.31031018 0 232.35392135 0 3538.21382965 0 -334.30531281 0 -324.66928091 0 19956
0.13650000 0.13649900 11790.16417990 0 256.56378605 0 3596.56461679 0 -50.02318374 0 -29.42183997 0 19723
0.13750000 0.13749600 11389.88288204 0 238.98423888 0 4344.31093265 0 -192.34686484 0 -529.28855516 0 20946
0.13850000 0.13851100 11353.83649196 0 141.71665989 0 3921.82505850 0 -33.92519867 0 -26.14117482 0 20955
0.13950000 0.13949800 11309.80444007 0 -59.44959203 0 4476.04107880 0 365.88971436 0 218.34573960 0 20506
0.14050000 0.14048300 11113.60116606 0 92.10063399 0 4110.79687210 0 209.63249528 0 744.30915392 0 21447
0.14150000 0.14148400 11258.11946229 0 144.46616761 0 4369.73195605 0 -74.63599162 0 589.41726118 0 21771
0.14250000 0.14249400 11134.89626420 0 152.97200655 0 4396.84993259 0 29.72074773 0 456.96064163 0 22470
0.14350000 0.14350900 10725.97492391 0 194.34660764 0 4744.51459213 0 6.09249430 0 730.36641024 0 22519
0.14450000 0.14449900 10709.80395876 0 67.81967472 0 4629.39905901 0 38.01685213 0 1084.22550327 0 22218
0.14550000 0.14550500 10643.48969221 0 -90.01837267 0 4470.02965006 0 612.88512480 0 927.72205961 0 23559
0.14650000 0.14650700 10758.82704928 0 70.12320541 0 4463.27511112 0 38.59991636 0 830.98796719 0 23044
0.14750000 0.14750500 10734.72587831 0 56.32220722 0 3861.58876787 0 71.39625300 0 528.78501482 0 23649
0.14850000 0.14849900 10673.87957185 0 3.03384165 0 4203.57473457 0 30.91416052 0 899.85209992 0 23640
0.14950000 0.14949500 10624.93411972 0 0.08017826 0 3745.88540131 0 -68.18047135 0 288.05280330 0 24457
0.15050000 0.15050000 10675.48779541 0 -5.90961156 0 4043.00747635 0 208.37697178 0 -93.64574863 0 24591
0.15150000 0.15149900 10739.20672187 0 53.25504762 0 3458.63449155 0 40.72310419 0 70.05233266 0 25020
0.15250000 0.15250500 10549.25888294 0 155.04606038 0 3557.25741481 0 100.55523160 0 61.06846313 0 25297
0.15350000 0.15350100 10340.61128595 0 193.61791601 0 3619.71194482 0 47.02911512 0 -67.64842663 0 25452
0.15450000 0.15450400 10084.52663961 0 218.60083713 0 3332.11720796 0 212.15574258 0 252.42122399 0 26061
0.15550000 0.15549900 9845.25624785 0 204.14346191 0 3586.61581313 0 192.43115793 0 192.75169352 0 26128
0.15650000 0.15649500 9620.75933042 0 18.20242878 0 3234.61449559 0 196.26649384 0 476.25377872 0 26331
0.15750000 0.15749700 9550.04185868 0 113.79235333 0 3297.46830869 0 -75.93088887 0 142.76255976 0 27345
0.15850000 0.15849900 9511.16721337 0 187.24158688 0 3423.38666764 0 -207.21683258 0 578.34824663 0 26980
0.15950000 0.15949700 9272.88393814 0 74.26077643 0 3415.48973542 0 -40.63337640 0 168.14920045 0 27777
0.16050000 0.16050000 9311.61439788 0 -1.87534394 0 3548.30681887 0 218.79049660 0 797.66668420 0 28224
0.16150000 0.16150500 9260.86108065 0 32.53048065 0 3170.68483638 0 211.81191548 0 -30.84850063 0 28075
0.16250000 0.16249700 9309.57361764 0 55.38134099 0 3357.99297044 0 337.20455170 0 1022.54181144 0 28590
0.16350000 0.16349900 9213.86767918 0 62.38887013 0 3070.90842863 0 229.54784852 0 688.21542536 0 29163
0.16450000 0.16449100 9110.61972678 0 95.98233109 0 2924.32716976 0 80.93712243 0 1119.12395447 0 28996
0.16550000 0.16550500 8965.94615379 0 32.70328150 0 2903.70863464 0 337.57167032 0 1423.97659379 0 30777
0.16650000 0.16650700 8943.96340144 0 -2.60097441 0 2612.57580594 0 371.78579466 0 1429.79947219 0 29211
0.16750000 0.16749900 8879.67882393 0 113.09693528 0 2609.19299087 0 247.71412000 0 1621.39989947 0 30922
0.16850000 0.16850800 8844.00953454 0 147.22343917 0 2708.25956201 0 -242.28497909 0 1288.80817658 0 30867
0.16950000 0.16949900 8626.69971274 0 183.77336959 0 2603.55866282 0 -170.18554421 0 1585.16495904 0 30852
0.17050000 0.17049200 8468.20650835 0 117.62547099 0 3029.03916015 0 -291.16499317 0 1340.78152548 0 31257
0.17150000 0.17149500 8382.70447107 0 39.99907085 0 2972.92879479 0 137.47649529 0 1527.24672857 0 32608
0.17250000 0.17250900 8468.08450518 0 -148.02976919 0 2703.83417443 0 735.40181365 0 1401.11763688 0 32361
0.17350000 0.17350400 8598.00678623 0 -140.41011689 0 2223.04187792 0 414.64661615 0 1340.31569521 0 32508
0.17450000 0.17449800 8588.70127199 0 134.15579093 0 1955.95476421 0 -94.09782582 0 1105.43519920 0 32791
0.17550000 0.17549800 8486.61789528 0 190.85842620 0 2205.47342196 0 -361.33566890 0 1118.42520906 0 33633
0.17650000 0.17650100 8193.43319515 0 186.78906604 0 2179.29819716 0 -262.06945621 0 835.64626991 0 33984
0.17750000 0.17750300 8046.98503065 0 74.18358170 0 2263.01455172 0 -70.98732056 0 447.63738147 0 34069
