### header ###
fiducial parameters:
Omega_m = 0.31
Omega_nu = 0
Omega_de = 0.69
Omega_k = 0
H_0 = 100
w_de = -1
zeff = 0
beta = 0
fgrowth = 0
b_1 = 2
gamma = 0.55
Lx = 3500 Ly = 3500 Lz = 3500
nx = 700 ny = 700 nz = 700
xoffset = 1379.75464 yoffset = 22.6059522 zoffset = 368.141391
bins = 400 dk = 0.001
kx_ny = 0.628318531 ky_ny = 0.628318531 kz_ny = 0.628318531
############################
A(data) = 3.36512029 (not used)
A(ran) = 3.37114462 (used)
Ngal = 189239
weighted Ngal = 0
Nran = 9399747
weighted Nran = 0
SN(data) = 6603.91917
SN(ran) = 134.088568
SN(data+ran) = 6738.00774
############################
13 columns: k_central k_mean P_0(k) sigma^{lin}_{P_0(k)} P^img_1(k) sigma^{lin}_{P_1(k)} P_2(k) sigma^{lin}_{P_2(k)} P^img_3(k) sigma^{lin}_{P_3(k)} P_4(k) sigma^{lin}_{P_4(k)} N_modes
### header ###
0.00050000 0 0 0 0 0 0 0 0 0 0 0 0
0.00150000 0.00179520 46745.06956995 0 -31250.55652131 0 -18177.58450238 0 -8690.68482793 0 125352.70790881 0 3
0.00250000 0.00253879 74313.68144036 0 -26965.91622824 0 -37794.80636864 0 -5318.70585814 0 -24501.67409029 0 6
0.00350000 0.00331552 84864.84800917 0 -5544.85536392 0 438.73115032 0 -67906.29696337 0 32627.19588653 0 7
0.00450000 0.00420575 85004.59709072 0 9102.27914668 0 -12697.53500223 0 -28218.00145173 0 1372.30270721 0 24
0.00550000 0.00557378 64858.65786594 0 3953.31296663 0 17057.70634652 0 16482.29504885 0 17910.28665593 0 45
0.00650000 0.00659388 49429.13923142 0 646.04669456 0 -26395.82870511 0 17722.17995569 0 -18163.27685832 0 40
0.00750000 0.00754703 68299.47989519 0 -10456.23701413 0 7739.67014561 0 6508.69146991 0 25778.49268297 0 57
0.00850000 0.00846663 58054.31945017 0 4577.60316926 0 -31057.23695850 0 -5400.70307718 0 -2103.96678749 0 75
0.00950000 0.00948925 54172.40051830 0 3751.08717268 0 -7881.24927465 0 -6075.21421959 0 12165.26846069 0 112
0.01050000 0.01054430 63594.81597369 0 -2541.74742223 0 -20765.93713419 0 -8379.51020635 0 1096.82510301 0 105
0.01150000 0.01145670 52498.62798684 0 3504.25258459 0 -6855.60192806 0 -15363.63692465 0 -13875.08738223 0 144
0.01250000 0.01249090 49496.01914902 0 7378.96223846 0 4716.11003675 0 -14420.99609602 0 -2882.11407418 0 169
0.01350000 0.01339930 42055.04602842 0 2340.49765360 0 5703.22656514 0 2510.50352043 0 -8483.82291365 0 180
0.01450000 0.01448870 46826.36804358 0 -5034.01701487 0 8234.52607984 0 11807.68827108 0 8269.47444143 0 267
0.01550000 0.01550050 51770.71273113 0 -7840.76640579 0 7486.53575766 0 15886.47594879 0 -8942.59918422 0 238
0.01650000 0.01653350 60533.64561598 0 -1956.44277688 0 81.73768503 0 -3523.21853138 0 8775.48811980 0 315
0.01750000 0.01747870 62727.92802022 0 1715.36452001 0 -2853.84261316 0 -14667.33158024 0 -11762.54709950 0 297
0.01850000 0.01844180 57129.31362469 0 2660.02394649 0 8018.87993758 0 -9605.04310434 0 -2383.46495058 0 388
0.01950000 0.01947590 60963.42949772 0 -147.62715874 0 16911.52437074 0 -4810.44066679 0 -10954.67540499 0 399
0.02050000 0.02045430 58870.85336950 0 1283.22930452 0 20597.12911664 0 -1720.57738258 0 -12681.56367863 0 462
0.02150000 0.02154770 58432.08561823 0 3365.66807873 0 22574.35679660 0 -8737.45640546 0 -18581.96954311 0 571
0.02250000 0.02255340 55635.32939577 0 2062.99590596 0 26171.56470281 0 -2597.11467740 0 -13549.89348770 0 510
0.02350000 0.02348930 51360.11662010 0 865.75443314 0 30182.47425520 0 8991.54463635 0 -10073.36889548 0 555
0.02450000 0.02439640 54709.99083438 0 -1563.28202746 0 20683.19680495 0 8708.96312050 0 -19932.76641944 0 592
0.02550000 0.02547300 53065.38815089 0 -366.35110816 0 19505.53351299 0 4160.04178655 0 -9126.09194653 0 837
0.02650000 0.02652900 55631.78021274 0 -326.59582182 0 13801.10909858 0 1877.60654897 0 -11400.97407899 0 723
0.02750000 0.02749970 54409.30848511 0 -2083.52571151 0 10422.38668105 0 2688.25104272 0 -2429.58214749 0 826
0.02850000 0.02848090 56940.87418854 0 -1007.01302660 0 5952.56776373 0 5267.73071697 0 -16224.86836768 0 831
0.02950000 0.02946900 58418.55435795 0 -84.21135468 0 4710.28715835 0 -2135.48796921 0 -9428.40470175 0 996
0.03050000 0.03053250 55658.84273330 0 1067.28037257 0 -1604.56346250 0 -3732.46505300 0 -14024.26398118 0 1041
0.03150000 0.03150510 54377.25492593 0 3252.80405858 0 10476.19007744 0 -4937.56796621 0 -16985.83539029 0 1036
0.03250000 0.03246190 49226.28123924 0 1759.31893352 0 7200.90416265 0 -1277.39533492 0 -14200.39218872 0 1059
0.03350000 0.03345080 51745.53571405 0 -91.26335953 0 9782.70189706 0 -2048.75480908 0 -21722.66378294 0 1302
0.03450000 0.03451200 47060.17047525 0 1528.04529475 0 10208.69258945 0 -3851.34050189 0 -16635.13174279 0 1339
0.03550000 0.03553350 49035.40173976 0 3472.95322681 0 18400.51756104 0 -8299.33194361 0 -25098.82413398 0 1365
0.03650000 0.03647120 45100.02323859 0 1577.01292928 0 14473.45745758 0 -5105.72160314 0 -24078.65583868 0 1308
0.03750000 0.03744890 42763.32986554 0 864.93035721 0 24127.67892919 0 2080.29817320 0 -18074.88001864 0 1579
0.03850000 0.03847530 43938.88583008 0 -1244.45447998 0 16975.07692925 0 4890.15309926 0 -18034.61897372 0 1662
0.03950000 0.03950240 46128.06628372 0 -1980.38867109 0 16495.60448518 0 7039.74907099 0 -18240.80432499 0 1683
0.04050000 0.04050350 45914.33891853 0 755.17519957 0 10606.78892151 0 285.50515536 0 -19166.36471032 0 1822
0.04150000 0.04152450 44250.88120023 0 1387.29800548 0 11754.22870179 0 -860.06132175 0 -8780.54570561 0 1887
0.04250000 0.04250150 44448.52632985 0 505.97375006 0 10897.48919352 0 -167.78762743 0 -14266.38481056 0 1920
0.04350000 0.04349210 42105.28915060 0 110.35696599 0 11594.07181786 0 1500.73876787 0 -6411.49931106 0 2005
0.04450000 0.04448520 42827.21515996 0 653.81940538 0 7411.54817509 0 2878.02142250 0 -12265.53288110 0 2151
0.04550000 0.04548030 39863.64733539 0 1079.94651949 0 9368.58987660 0 276.46139337 0 -4565.23648466 0 2274
0.04650000 0.04648670 40009.27475132 0 1817.85827101 0 11356.83111513 0 7.78263744 0 -3852.26107124 0 2311
0.04750000 0.04749250 37448.42828795 0 1524.90648602 0 12908.93321607 0 -1544.09425674 0 -3811.07945697 0 2568
0.04850000 0.04851840 36089.20210194 0 122.55661716 0 11208.76363587 0 1562.13963417 0 681.17140617 0 2493
0.04950000 0.04949480 35837.98649107 0 429.78942734 0 14196.95391766 0 640.00421046 0 -660.15691532 0 2644
0.05050000 0.05050630 37029.73560315 0 321.63583854 0 13480.01894693 0 -212.43856811 0 2012.47550386 0 2829
0.05150000 0.05149060 35550.16993026 0 -176.94673787 0 14664.33695706 0 2305.59365681 0 3497.04330658 0 2784
0.05250000 0.05249300 36134.67600943 0 -10.09729261 0 13667.57108733 0 1594.62575003 0 4313.44413154 0 3055
0.05350000 0.05348950 35765.22823909 0 721.40583222 0 13723.13798404 0 -133.96169498 0 1931.50976614 0 3009
0.05450000 0.05448610 35365.94514895 0 1118.01483477 0 13942.52185967 0 -1836.39166111 0 4276.01134184 0 3336
0.05550000 0.05550870 33892.81237029 0 626.34318318 0 16412.08777216 0 -1636.77229844 0 512.66396006 0 3349
0.05650000 0.05647670 33331.26506880 0 753.97402294 0 16806.71255958 0 -799.53666000 0 457.80911819 0 3324
0.05750000 0.05747970 32824.61919220 0 357.87077897 0 16986.05721423 0 69.09172409 0 -3868.84241068 0 3639
0.05850000 0.05849280 32615.77195367 0 546.72058941 0 18763.97608503 0 -674.69969275 0 -2198.96288935 0 3846
0.05950000 0.05951020 32149.71985790 0 -386.01469123 0 14785.45282774 0 4262.83499987 0 -1289.73983712 0 3787
0.06050000 0.06049470 32306.10573487 0 -161.88378330 0 16831.22410484 0 2322.26372582 0 -82.63041547 0 3930
0.06150000 0.06148310 32256.08443664 0 243.30869657 0 10780.56579529 0 1624.77162334 0 -1310.18091310 0 4083
0.06250000 0.06249100 31215.61925093 0 829.37530715 0 14944.38968000 0 1417.48824357 0 2917.10680055 0 4303
0.06350000 0.06350600 30460.53056269 0 1387.50873822 0 11848.17113994 0 -1323.75653816 0 2286.72753080 0 4470
0.06450000 0.06451750 28683.27716371 0 644.88433712 0 14088.92565939 0 1484.29052279 0 3362.81764111 0 4479
0.06550000 0.06550280 27590.01788052 0 552.32497123 0 12463.84348253 0 1116.48424960 0 3703.21756665 0 4636
0.06650000 0.06648880 27492.85899525 0 -185.03443869 0 12148.07710542 0 1377.42684020 0 3623.90441727 0 4653
0.06750000 0.06749660 27933.17951410 0 -134.15468181 0 11251.13200822 0 1890.64979658 0 3962.28574496 0 5220
0.06850000 0.06852730 27777.90275682 0 90.88714613 0 10160.95607778 0 -690.88285822 0 4492.40059430 0 5029
0.06950000 0.06949320 27965.78763313 0 -54.51400938 0 10587.24623249 0 1140.77397091 0 3673.83698593 0 5040
0.07050000 0.07048030 28201.69739222 0 -314.16591740 0 10344.01628341 0 353.41544516 0 5532.48867932 0 5475
0.07150000 0.07148790 28229.64720852 0 -136.47052373 0 9653.47836142 0 910.48523044 0 1985.19115937 0 5509
0.07250000 0.07249820 28643.12703075 0 521.91623655 0 10322.73227647 0 123.76001203 0 4885.94953562 0 5916
0.07350000 0.07351270 27628.94798181 0 -3.82034061 0 9282.66637385 0 59.76757664 0 2204.65267338 0 5721
0.07450000 0.07449140 28052.29896932 0 344.32288190 0 10029.56975873 0 837.60164793 0 3747.59344564 0 6028
0.07550000 0.07549160 27148.14459410 0 680.69781206 0 10144.28600877 0 -1075.58546085 0 3453.68781771 0 6183
0.07650000 0.07648840 26484.66919266 0 629.69050642 0 9965.30736361 0 406.67648202 0 2643.84189014 0 6330
0.07750000 0.07749960 25714.82921248 0 219.66004644 0 9891.40671835 0 -439.04059472 0 1519.11688121 0 6583
0.07850000 0.07848650 25723.36943413 0 56.48735515 0 8954.37803537 0 641.64238025 0 -204.73240447 0 6549
0.07950000 0.07947320 25181.45355124 0 503.40946533 0 9492.73364404 0 413.24690709 0 673.76248661 0 6828
0.08050000 0.08048110 24676.91500207 0 295.60590842 0 7327.41035504 0 688.94300788 0 -847.11345843 0 7147
0.08150000 0.08149960 24494.24298833 0 -322.29021916 0 7257.05889280 0 1281.07761231 0 481.95909043 0 7386
0.08250000 0.08250610 24406.95526835 0 203.62217565 0 5215.35808498 0 1500.33948478 0 -340.28568621 0 7227
0.08350000 0.08350160 24022.86711803 0 380.06093671 0 5090.36029537 0 726.93701214 0 33.01472231 0 7798
0.08450000 0.08449610 23258.79456027 0 665.62043893 0 5457.46782316 0 -1009.65273147 0 1629.36337888 0 7371
0.08550000 0.08548940 22354.97292096 0 809.67068666 0 4969.97644370 0 -581.41052610 0 -895.69955579 0 8256
0.08650000 0.08650700 21650.68191475 0 621.87564905 0 7411.91418459 0 -820.97927106 0 530.60064376 0 8037
0.08750000 0.08749060 20314.96906627 0 532.01255314 0 5961.67363643 0 -330.51545082 0 -1921.06185861 0 8155
0.08850000 0.08849210 20587.81251120 0 372.86718636 0 8205.10113434 0 125.70873533 0 -743.66475538 0 8718
0.08950000 0.08949900 19569.75154332 0 520.38121490 0 7734.64583339 0 -437.97694893 0 -1605.69476459 0 8571
0.09050000 0.09049190 19219.82427961 0 255.29051664 0 7699.57546864 0 720.83241734 0 -788.58632126 0 8932
0.09150000 0.09150830 18831.29965051 0 98.54550671 0 7847.52094473 0 -52.15779550 0 -1473.39896739 0 9285
0.09250000 0.09250820 18594.83533157 0 52.99240807 0 6408.30504633 0 1235.80334636 0 -1447.96685279 0 9204
0.09350000 0.09350330 18689.99780139 0 205.69844772 0 7102.95780240 0 61.39354612 0 -1121.68602096 0 9349
0.09450000 0.09448040 18124.45766900 0 61.07112502 0 5401.79001448 0 116.71488373 0 -2012.68623660 0 9564
0.09550000 0.09549270 18214.85092413 0 43.91348699 0 5691.80263228 0 445.96815633 0 -1453.09098578 0 10155
0.09650000 0.09649430 18077.54190591 0 -43.80789879 0 5055.55611935 0 147.47410022 0 -2611.02303837 0 9913
0.09750000 0.09749140 18273.52335598 0 163.69719400 0 4820.99948629 0 292.59575757 0 -2550.40964705 0 10476
0.09850000 0.09850240 17874.46208979 0 49.60704203 0 3900.86269627 0 44.00221656 0 -1649.69354288 0 10575
0.09950000 0.09950330 17774.97405316 0 126.38862570 0 4652.42438387 0 30.56800426 0 -1912.82109928 0 10882
0.10050000 0.10051200 17921.37785288 0 149.20321783 0 4973.35925876 0 -174.55103933 0 -2630.79864253 0 10875
0.10150000 0.10150300 17442.45996865 0 397.58170052 0 5654.38093378 0 -1177.88511590 0 -2936.71603675 0 11118
0.10250000 0.10250800 16930.15758161 0 404.99616568 0 6253.25011300 0 -657.26765851 0 -2211.91740738 0 11575
0.10350000 0.10349800 16811.03812639 0 130.01101063 0 7099.71917289 0 -300.68234927 0 -2309.77503806 0 11364
0.10450000 0.10450100 17094.30729645 0 147.87338331 0 6788.73310166 0 483.22570512 0 -3196.51623407 0 12093
0.10550000 0.10551000 16811.81451018 0 84.32271030 0 7369.27962352 0 36.60627370 0 -2545.47406440 0 12067
0.10650000 0.10649700 16413.86236367 0 240.80208606 0 6776.85442973 0 461.29397227 0 -1445.67097502 0 12054
0.10750000 0.10749900 16164.75408022 0 213.10514904 0 6600.89259014 0 715.86467023 0 -1592.97316169 0 12807
0.10850000 0.10850100 15978.08923558 0 272.65822194 0 5871.13619574 0 459.28424739 0 -788.43991746 0 12736
0.10950000 0.10950300 15278.12379618 0 183.26095630 0 5485.80583136 0 859.54003549 0 -917.56363233 0 12933
0.11050000 0.11050200 15244.62838139 0 163.65504745 0 4458.32843728 0 934.67845834 0 -312.35472493 0 13428
0.11150000 0.11150900 14867.52768515 0 65.98896175 0 3981.72861321 0 1049.60211376 0 504.96334202 0 13453
0.11250000 0.11250000 14480.33399969 0 185.30284565 0 3249.27705795 0 384.14582454 0 -257.43000853 0 13668
0.11350000 0.11349100 14221.13272701 0 201.51373911 0 3186.72270716 0 -34.91198246 0 233.83237790 0 13791
0.11450000 0.11448600 13860.89065013 0 436.15466527 0 3562.79192209 0 -859.97702865 0 -127.69627782 0 14205
0.11550000 0.11549300 13660.02907340 0 241.81138498 0 3766.57048362 0 -638.31058469 0 -556.06270460 0 14776
0.11650000 0.11649800 13501.64678098 0 -21.84244871 0 4757.05873588 0 -195.88162930 0 -1036.73743442 0 14553
0.11750000 0.11747300 13437.65057459 0 59.75992372 0 4297.62808469 0 -258.36943291 0 -1435.58907699 0 14568
0.11850000 0.11849100 13712.49043497 0 57.53857879 0 5305.06368590 0 273.13847077 0 -718.74949055 0 16015
0.11950000 0.11950300 13553.10993482 0 -104.24704741 0 4831.21447868 0 1.50763749 0 -1384.69157420 0 15270
0.12050000 0.12050700 13767.28094789 0 81.39041965 0 4825.53578584 0 469.48925770 0 -400.08387456 0 15999
0.12150000 0.12150000 13657.36718613 0 61.77009225 0 4690.31191265 0 -47.13037775 0 -781.21178441 0 15670
0.12250000 0.12250700 13648.05058070 0 131.27984356 0 4536.65447013 0 126.70361570 0 102.77291643 0 16887
0.12350000 0.12352200 13471.25690134 0 16.43593385 0 4827.48783650 0 427.46249422 0 -348.18483668 0 16407
0.12450000 0.12449800 13300.34155637 0 270.74942694 0 4408.31823024 0 -196.37740581 0 -200.40351030 0 16306
0.12550000 0.12549900 12991.22989742 0 208.41246361 0 4705.22957254 0 -198.69324773 0 -1027.81567559 0 17523
0.12650000 0.12650100 12731.58497686 0 119.56421222 0 4346.22970972 0 93.58574526 0 -721.34704888 0 17154
0.12750000 0.12750600 12502.77358382 0 204.30206603 0 4423.53535245 0 78.46611467 0 -823.77758006 0 18007
0.12850000 0.12850300 12388.86699116 0 1.75192111 0 3880.63235303 0 465.04057860 0 -946.34750665 0 17496
0.12950000 0.12949900 12129.22207061 0 155.74258755 0 4144.39210766 0 498.77334500 0 -637.53087354 0 18405
0.13050000 0.13049000 12037.49787184 0 34.92584645 0 2861.53990384 0 178.13349595 0 -1191.42746738 0 18100
0.13150000 0.13148800 12071.32602254 0 18.17647538 0 3113.01061225 0 642.75039083 0 -522.48632408 0 19059
0.13250000 0.13249300 12059.79117771 0 15.56472033 0 2898.24067454 0 -114.93474662 0 -381.03807116 0 18957
0.13350000 0.13349100 11860.37145658 0 116.31338240 0 2902.65497093 0 -58.08748213 0 -532.30314250 0 19468
0.13450000 0.13450700 11734.37545925 0 171.18818842 0 3022.98336662 0 -114.12176188 0 -994.58201306 0 19953
0.13550000 0.13551000 11781.95669416 0 77.03978674 0 2835.53104699 0 -313.56255628 0 -758.87744111 0 19956
0.13650000 0.13649900 11623.13075386 0 -22.90221258 0 3269.07484450 0 -12.66969610 0 -884.41537201 0 19723
0.13750000 0.13749600 11845.95290055 0 27.03701080 0 3277.67052214 0 36.03308065 0 -1254.45873963 0 20946
0.13850000 0.13851100 11788.61141233 0 57.84480674 0 3466.65342694 0 66.90087996 0 -566.16567590 0 20955
0.13950000 0.13949800 11661.17355939 0 192.88146053 0 3294.69550945 0 -88.58794100 0 -1152.04262701 0 20506
0.14050000 0.14048300 11327.99400307 0 173.73361812 0 3771.55043105 0 220.96769856 0 130.10861316 0 21447
0.14150000 0.14148400 11260.11587774 0 91.95045918 0 3256.73034230 0 176.70273154 0 -401.92723149 0 21771
0.14250000 0.14249400 11256.67760669 0 66.34587646 0 3779.14790096 0 650.92127562 0 575.80725340 0 22470
0.14350000 0.14350900 11023.50737325 0 100.29680671 0 3263.19651012 0 55.36858611 0 192.56979789 0 22519
0.14450000 0.14449900 10891.40012640 0 159.74429141 0 3230.71039426 0 322.34900250 0 658.86146351 0 22218
0.14550000 0.14550500 10601.89770365 0 249.78262823 0 3234.60340439 0 -545.10016553 0 378.00351967 0 23559
0.14650000 0.14650700 10427.57736122 0 58.56928372 0 3078.30625699 0 333.17733809 0 618.31315659 0 23044
0.14750000 0.14750500 10370.60188250 0 39.11876255 0 3260.33498131 0 277.14350198 0 723.49319549 0 23649
0.14850000 0.14849900 10432.34657591 0 -16.01968122 0 2860.05368345 0 278.40678932 0 636.78443599 0 23640
0.14950000 0.14949500 10189.06117085 0 135.83721638 0 2576.09685918 0 484.58215851 0 900.41553273 0 24457
0.15050000 0.15050000 9982.26580375 0 259.10921575 0 2757.37138210 0 -258.53358262 0 1034.14098521 0 24591
0.15150000 0.15149900 9776.52410036 0 182.18178283 0 2562.88724361 0 192.44224913 0 1881.77683902 0 25020
0.15250000 0.15250500 9577.01564965 0 125.55456769 0 3061.14817532 0 302.06985800 0 1844.46605249 0 25297
0.15350000 0.15350100 9400.69889177 0 62.76674721 0 2516.72568192 0 162.48381705 0 1843.75621588 0 25452
0.15450000 0.15450400 9548.38927033 0 -98.92371652 0 2741.05623139 0 394.61813270 0 2207.51420220 0 26061
0.15550000 0.15549900 9405.81193356 0 53.59920746 0 2513.19868129 0 -194.92556813 0 1931.99777880 0 26128
0.15650000 0.15649500 9419.97539206 0 102.93274057 0 2318.52599245 0 -228.30563446 0 1775.39007790 0 26331
0.15750000 0.15749700 9503.65847304 0 17.84839778 0 2684.79058927 0 115.31628379 0 1071.94754825 0 27345
0.15850000 0.15849900 9396.07386264 0 19.63352593 0 2363.37879291 0 42.62269349 0 1380.27727781 0 26980
0.15950000 0.15949700 9345.66437251 0 38.88862021 0 2465.65071997 0 61.44933484 0 1062.06640089 0 27777
0.16050000 0.16050000 9297.32893621 0 62.02973717 0 2200.50456572 0 197.67618497 0 1162.08016025 0 28224
0.16150000 0.16150500 9245.08939858 0 64.15835969 0 1898.94601190 0 -46.93195624 0 492.21179289 0 28075
0.16250000 0.16249700 9202.67666145 0 145.85811283 0 2186.01946251 0 -120.24853907 0 383.30400269 0 28590
0.16350000 0.16349900 8829.75734646 0 320.20174678 0 2417.31528367 0 -474.37825731 0 634.56176012 0 29163
0.16450000 0.16449100 8615.97452529 0 211.70987647 0 2405.60297969 0 -314.10047933 0 -159.92064144 0 28996
0.16550000 0.16550500 8476.25871733 0 141.27855761 0 3075.45581938 0 -397.88670844 0 -293.15808126 0 30777
0.16650000 0.16650700 8246.02765108 0 68.21363403 0 2664.90407314 0 134.23786578 0 -902.93988915 0 29211
0.16750000 0.16749900 8308.42672511 0 -59.12828005 0 2859.79858592 0 317.05073772 0 -523.92817968 0 30922
0.16850000 0.16850800 8261.18931731 0 4.92514583 0 2343.92483346 0 115.53921685 0 -573.60786905 0 30867
0.16950000 0.16949900 8359.85660536 0 47.39013358 0 2175.18336309 0 736.35011099 0 -52.03102312 0 30852
0.17050000 0.17049200 8352.69169213 0 -85.27622050 0 1881.94320698 0 273.15954404 0 301.52749847 0 31257
0.17150000 0.17149500 8255.11134138 0 -17.07157034 0 1499.41891543 0 592.78676681 0 538.66061659 0 32608
0.17250000 0.17250900 8333.50392141 0 106.29503693 0 1627.50005779 0 -124.66283546 0 786.39802810 0 32361
0.17350000 0.17350400 8024.49208324 0 265.39016058 0 1467.30990027 0 -133.76981727 0 488.30214596 0 32508
0.17450000 0.17449800 7898.27426197 0 117.61659804 0 1821.59600438 0 -90.68517543 0 1351.20725061 0 32791
0.17550000 0.17549800 7614.40616727 0 84.36319317 0 1783.83047877 0 -15.99139867 0 542.68339372 0 33633
0.17650000 0.17650100 7668.94158267 0 76.19020105 0 1958.96047859 0 6.10877618 0 864.54882004 0 33984
0.17750000 0.17750300 7574.20057834 0 84.29365137 0 1949.06713091 0 -17.39066408 0 521.11323389 0 34069
