### header ###
fiducial parameters:
Omega_m = 0.31
Omega_nu = 0
Omega_de = 0.69
Omega_k = 0
H_0 = 100
w_de = -1
zeff = 0
beta = 0
fgrowth = 0
b_1 = 2
gamma = 0.55
Lx = 3500 Ly = 3500 Lz = 3500
nx = 700 ny = 700 nz = 700
xoffset = 1379.75464 yoffset = 22.6059522 zoffset = 368.141391
bins = 400 dk = 0.001
kx_ny = 0.628318531 ky_ny = 0.628318531 kz_ny = 0.628318531
############################
A(data) = 3.37330724 (not used)
A(ran) = 3.37579933 (used)
Ngal = 189686
weighted Ngal = 0
Nran = 9399747
weighted Nran = 0
SN(data) = 6623.75763
SN(ran) = 134.273711
SN(data+ran) = 6758.03134
############################
13 columns: k_central k_mean P_0(k) sigma^{lin}_{P_0(k)} P^img_1(k) sigma^{lin}_{P_1(k)} P_2(k) sigma^{lin}_{P_2(k)} P^img_3(k) sigma^{lin}_{P_3(k)} P_4(k) sigma^{lin}_{P_4(k)} N_modes
### header ###
0.00050000 0 0 0 0 0 0 0 0 0 0 0 0
0.00150000 0.00179520 15978.53288346 0 -17871.35655464 0 -14308.19862305 0 4100.77043006 0 43809.56247366 0 3
0.00250000 0.00253879 34828.46574484 0 -23490.71148846 0 -27000.18802681 0 2591.97945321 0 -17836.30837228 0 6
0.00350000 0.00331552 48112.39232973 0 -12271.52212745 0 -4019.51632122 0 -50259.53714693 0 480.96975566 0 7
0.00450000 0.00420575 60258.25119575 0 -297.29398860 0 -13231.57613529 0 -36232.16763061 0 2657.26223845 0 24
0.00550000 0.00557378 54267.56298811 0 -8795.39681832 0 6596.79993847 0 -1562.56109966 0 4645.79184810 0 45
0.00650000 0.00659388 77008.95321075 0 -13861.00156210 0 -43626.55772402 0 17351.17941777 0 -14124.41748962 0 40
0.00750000 0.00754703 85714.54460738 0 -7279.50747542 0 -5199.03184307 0 -24758.65712358 0 -13392.39849104 0 57
0.00850000 0.00846663 83763.82488812 0 9490.48213106 0 -9073.13148110 0 -24854.37415324 0 -17541.28253346 0 75
0.00950000 0.00948925 78157.44665473 0 2672.54590784 0 5736.77743591 0 2265.29933830 0 8625.01385080 0 112
0.01050000 0.01054430 74685.34745009 0 -2386.44848256 0 -10804.77787823 0 10228.51255839 0 15599.65759571 0 105
0.01150000 0.01145670 83646.81276032 0 -7039.26105833 0 -10912.20721187 0 14937.73496184 0 -24187.01683287 0 144
0.01250000 0.01249090 90840.78492487 0 -3666.09533046 0 -24837.07188600 0 -10458.42197993 0 -995.30404998 0 169
0.01350000 0.01339930 78474.32215155 0 5060.69134354 0 -17672.60230533 0 -19473.14721790 0 -8267.94385625 0 180
0.01450000 0.01448870 83874.29320973 0 9998.91369037 0 -6524.57406394 0 -25529.38439951 0 -11206.21266058 0 267
0.01550000 0.01550050 64723.01252726 0 7929.75107890 0 14019.93841437 0 -11332.09774594 0 -33925.97504916 0 238
0.01650000 0.01653350 62231.26422087 0 3577.25484291 0 23302.16114034 0 301.84359759 0 -3032.59943437 0 315
0.01750000 0.01747870 66807.82481762 0 -3850.53084451 0 21618.62835557 0 17850.50510438 0 -9390.55044656 0 297
0.01850000 0.01844180 60843.97730659 0 -2822.92035606 0 7595.28494373 0 15314.17018626 0 3603.59643566 0 388
0.01950000 0.01947590 71188.40396429 0 57.71137964 0 8018.76902561 0 2951.63369665 0 11014.32386217 0 399
0.02050000 0.02045430 66898.55080866 0 2434.97246921 0 12512.64474911 0 -1852.30752873 0 21059.18838150 0 462
0.02150000 0.02154770 62463.40297300 0 2648.40037208 0 18705.52547712 0 5198.20000330 0 22873.93002617 0 571
0.02250000 0.02255340 64613.43150141 0 924.22944170 0 34593.22145757 0 -865.24091073 0 23944.34144364 0 510
0.02350000 0.02348930 58396.59378800 0 4818.40414620 0 22986.94932307 0 -1411.92046271 0 19581.73003603 0 555
0.02450000 0.02439640 57990.76689166 0 3002.34264910 0 34527.22883573 0 -1337.77581111 0 18032.51164630 0 592
0.02550000 0.02547300 53829.68253260 0 0.41518898 0 27379.17422653 0 6651.70136336 0 23509.67743524 0 837
0.02650000 0.02652900 55459.75574808 0 -2730.49741190 0 29511.23501589 0 9001.65980797 0 15894.46161059 0 723
0.02750000 0.02749970 60393.56379852 0 -2351.18956746 0 17973.95012641 0 7505.64589000 0 15969.43810196 0 826
0.02850000 0.02848090 60722.52870001 0 -1802.89624633 0 10452.49928076 0 5229.03353082 0 7150.47249013 0 831
0.02950000 0.02946900 63056.78200973 0 -2035.67828788 0 7731.27410952 0 4506.30895528 0 13917.12301866 0 996
0.03050000 0.03053250 66299.95890936 0 -1813.92089609 0 -3278.92382739 0 2293.37115777 0 5535.73840002 0 1041
0.03150000 0.03150510 66819.91422229 0 848.58304203 0 3079.70374781 0 -842.31207928 0 3457.85810776 0 1036
0.03250000 0.03246190 61295.83267026 0 2056.37446138 0 -2528.70417462 0 -2836.42943395 0 3529.26323371 0 1059
0.03350000 0.03345080 60385.13448884 0 3360.04484187 0 189.07052526 0 -1828.71655282 0 4251.83253250 0 1302
0.03450000 0.03451200 58229.00580211 0 1404.53372554 0 6085.66212711 0 233.23788974 0 3753.90433670 0 1339
0.03550000 0.03553350 55210.20381674 0 1983.46093264 0 3993.25236684 0 -982.32291307 0 -1355.28881109 0 1365
0.03650000 0.03647120 51403.70502411 0 1951.81774775 0 10020.09787654 0 -2084.80119916 0 2378.69573589 0 1308
0.03750000 0.03744890 50127.33007931 0 1422.01345193 0 8741.48250995 0 -3723.91374015 0 -1856.43345400 0 1579
0.03850000 0.03847530 48966.19267080 0 1130.74752887 0 13755.41336716 0 96.19306384 0 2790.34551063 0 1662
0.03950000 0.03950240 47700.68709901 0 1224.39050471 0 12728.70126566 0 1244.25483844 0 101.79289826 0 1683
0.04050000 0.04050350 48045.06876425 0 596.00543217 0 16660.97423168 0 -637.88468272 0 -815.37378013 0 1822
0.04150000 0.04152450 45340.81312433 0 1474.02007442 0 14300.65660913 0 1634.60951503 0 6561.05301071 0 1887
0.04250000 0.04250150 44526.05379652 0 611.70613057 0 17150.76148891 0 1429.25600354 0 8150.01115910 0 1920
0.04350000 0.04349210 44080.96406299 0 889.09142064 0 15480.31631654 0 2160.77589826 0 5237.13010459 0 2005
0.04450000 0.04448520 43508.88012440 0 1308.18449765 0 17789.61443313 0 -332.05823631 0 4914.66464451 0 2151
0.04550000 0.04548030 40832.01974094 0 1192.99132614 0 17388.00219164 0 -2741.74388560 0 5912.62836352 0 2274
0.04650000 0.04648670 39090.92364401 0 1410.62279266 0 19453.29397537 0 -1555.48491600 0 4475.49761015 0 2311
0.04750000 0.04749250 39712.03067311 0 289.86510488 0 19154.38621761 0 518.22508621 0 -1228.98226024 0 2568
0.04850000 0.04851840 39678.20252242 0 -636.04908963 0 19215.05506492 0 847.15227762 0 -3122.33830888 0 2493
0.04950000 0.04949480 39917.55055256 0 -4.16593121 0 16406.09852581 0 626.27441776 0 -8255.77681320 0 2644
0.05050000 0.05050630 39567.06872900 0 352.71559063 0 16593.65066621 0 -1126.07813496 0 -3920.72703000 0 2829
0.05150000 0.05149060 39885.16425747 0 -193.07888383 0 14643.37459483 0 2065.99052914 0 -7373.88247025 0 2784
0.05250000 0.05249300 38417.79890122 0 704.15791185 0 15328.03418244 0 1132.58866756 0 -7015.84754157 0 3055
0.05350000 0.05348950 39345.02296609 0 -88.68742904 0 11541.49954432 0 2023.73306876 0 -8668.71316678 0 3009
0.05450000 0.05448610 37974.37284723 0 242.86726693 0 12203.42217819 0 1352.80438297 0 -5296.55673784 0 3336
0.05550000 0.05550870 38252.87280260 0 -19.24222850 0 10368.61655824 0 1173.67046106 0 -5433.99885042 0 3349
0.05650000 0.05647670 36676.14824444 0 791.25486324 0 11568.89480078 0 -1497.47795596 0 -4380.67896744 0 3324
0.05750000 0.05747970 37159.72443139 0 915.30879199 0 9274.39234092 0 -550.20322525 0 -7014.41677716 0 3639
0.05850000 0.05849280 36055.15212731 0 91.41286886 0 12206.41680137 0 1048.07152858 0 -6819.26716686 0 3846
0.05950000 0.05951020 35586.54905625 0 527.13908120 0 10637.56699304 0 -1307.74084977 0 -5354.23096197 0 3787
0.06050000 0.06049470 34544.86383887 0 1178.25112540 0 14577.04923708 0 -72.74904629 0 -5587.93357286 0 3930
0.06150000 0.06148310 33459.36839355 0 1229.59227607 0 14239.32229001 0 -1273.85724309 0 -5997.97512404 0 4083
0.06250000 0.06249100 32723.24565210 0 1010.27162026 0 14958.14276422 0 15.40811262 0 -4495.27321431 0 4303
0.06350000 0.06350600 30576.21174686 0 336.24959964 0 15299.86254220 0 1404.91082623 0 -3611.16063198 0 4470
0.06450000 0.06451750 30302.81374209 0 553.86553848 0 14863.09120637 0 1599.04004642 0 212.54615272 0 4479
0.06550000 0.06550280 30356.38422335 0 -577.57186284 0 12575.86457171 0 3822.44793384 0 -93.91959029 0 4636
0.06650000 0.06648880 30727.38476126 0 -349.72651305 0 10067.29091955 0 2110.95424156 0 -357.33174680 0 4653
0.06750000 0.06749660 30596.61954924 0 367.00881614 0 9719.62626001 0 -113.18122838 0 -202.38217983 0 5220
0.06850000 0.06852730 29639.11651670 0 687.80505107 0 8266.09162636 0 -1409.24748424 0 -1854.85850403 0 5029
0.06950000 0.06949320 29548.50143764 0 709.29313604 0 10716.64722728 0 -898.65203241 0 -1271.52809174 0 5040
0.07050000 0.07048030 28403.33535273 0 279.35730489 0 9287.50213571 0 -672.84413550 0 -4249.15955403 0 5475
0.07150000 0.07148790 28554.84110305 0 206.93622530 0 10301.67009346 0 -129.15809758 0 -5359.41055094 0 5509
0.07250000 0.07249820 28292.97794310 0 283.73056385 0 10022.28284234 0 -1101.35142048 0 -8181.12196654 0 5916
0.07350000 0.07351270 27392.92731075 0 925.30750604 0 10754.23529374 0 -1674.37145609 0 -7754.93163261 0 5721
0.07450000 0.07449140 26263.95437339 0 733.52074665 0 11341.52526334 0 -247.33147371 0 -8255.51062447 0 6028
0.07550000 0.07549160 25864.11672341 0 -167.84086518 0 10882.07242976 0 1911.15741974 0 -8280.09980810 0 6183
0.07650000 0.07648840 26686.52897712 0 -38.18710200 0 9852.96462973 0 2450.40032416 0 -6901.08692674 0 6330
0.07750000 0.07749960 25741.44808516 0 272.49739958 0 8302.67039389 0 1094.62904601 0 -4822.61880104 0 6583
0.07850000 0.07848650 25128.88127771 0 696.94863383 0 8825.53160043 0 380.05317287 0 -4257.93269082 0 6549
0.07950000 0.07947320 24764.20272205 0 260.17397065 0 7961.53844936 0 -144.54602423 0 -2265.25497351 0 6828
0.08050000 0.08048110 23627.57685880 0 340.38217962 0 9247.87328902 0 665.46848953 0 -2925.34755988 0 7147
0.08150000 0.08149960 24041.16759300 0 247.63315426 0 7368.07068305 0 354.21512046 0 -1573.94066773 0 7386
0.08250000 0.08250610 23615.82019003 0 177.22956339 0 8870.78368398 0 184.82259683 0 -1706.53592724 0 7227
0.08350000 0.08350160 23178.16155846 0 399.63024460 0 7718.79651295 0 324.64709851 0 -753.96625910 0 7798
0.08450000 0.08449610 22586.11346536 0 385.40689363 0 8170.51878226 0 -73.33000318 0 -1019.29319986 0 7371
0.08550000 0.08548940 22238.40444103 0 389.02927856 0 8897.72420136 0 -308.53602583 0 -1457.43873498 0 8256
0.08650000 0.08650700 21932.39831723 0 314.96448358 0 8597.57422955 0 1068.17543217 0 -1086.31286654 0 8037
0.08750000 0.08749060 21385.15865981 0 144.53382391 0 8331.69605631 0 363.11580601 0 -447.95680794 0 8155
0.08850000 0.08849210 21184.51890701 0 253.59245438 0 7248.67394790 0 661.53111462 0 -576.92746430 0 8718
0.08950000 0.08949900 20874.85268822 0 356.14055225 0 7197.93172187 0 206.91404291 0 -303.58602463 0 8571
0.09050000 0.09049190 19483.46203106 0 660.32993799 0 7306.29271605 0 -101.10213852 0 -199.99313601 0 8932
0.09150000 0.09150830 19501.87341800 0 427.96714368 0 6826.03279700 0 342.81004263 0 -168.39098855 0 9285
0.09250000 0.09250820 19000.44040397 0 -4.23133600 0 6953.78120345 0 458.36367804 0 -726.97139485 0 9204
0.09350000 0.09350330 18671.03185461 0 237.52352824 0 6331.36541311 0 203.69981403 0 -742.23953657 0 9349
0.09450000 0.09448040 18347.05799175 0 480.74571348 0 6956.84237380 0 -500.18636349 0 -1611.42891341 0 9564
0.09550000 0.09549270 17948.32946146 0 213.37799249 0 7086.08809184 0 -155.87790015 0 -512.69279717 0 10155
0.09650000 0.09649430 17669.38585821 0 193.58686065 0 7279.11928353 0 -331.60904284 0 -1677.92063911 0 9913
0.09750000 0.09749140 17410.40640947 0 355.53940937 0 7115.45758136 0 -44.99354775 0 -1584.67694637 0 10476
0.09850000 0.09850240 17468.08063360 0 157.73123916 0 7901.75689781 0 99.47483810 0 -1817.56989989 0 10575
0.09950000 0.09950330 16968.64403502 0 62.62211800 0 7448.17130741 0 609.04978890 0 -875.53575973 0 10882
0.10050000 0.10051200 16779.20639115 0 222.93638602 0 7113.16170359 0 282.22992490 0 -776.82854337 0 10875
0.10150000 0.10150300 16483.51508051 0 345.17579494 0 7454.08291539 0 532.81333755 0 -206.04005659 0 11118
0.10250000 0.10250800 16228.63937464 0 178.93317125 0 7597.62518629 0 437.48449978 0 647.27227182 0 11575
0.10350000 0.10349800 15939.49187020 0 158.88250540 0 7257.67999983 0 49.67880207 0 -45.49841903 0 11364
0.10450000 0.10450100 15769.46382098 0 200.46783924 0 6671.54351470 0 718.44115528 0 450.91593929 0 12093
0.10550000 0.10551000 15344.00550605 0 131.93644242 0 6859.91640367 0 283.42111946 0 229.45468246 0 12067
0.10650000 0.10649700 15256.60687410 0 129.01058466 0 5823.97642631 0 82.56708474 0 1114.49892534 0 12054
0.10750000 0.10749900 15083.91693761 0 67.07223895 0 5892.07637558 0 489.21273323 0 -228.52967664 0 12807
0.10850000 0.10850100 15042.32494906 0 242.03099068 0 5820.64906723 0 127.70071430 0 277.52836652 0 12736
0.10950000 0.10950300 14373.63668505 0 58.25617923 0 5211.73126358 0 435.95169637 0 -263.17857591 0 12933
0.11050000 0.11050200 14592.13326493 0 35.17173829 0 4694.53765868 0 347.53045606 0 -161.12625455 0 13428
0.11150000 0.11150900 14742.30807161 0 -77.63926593 0 4881.59069522 0 51.58959348 0 -444.80912625 0 13453
0.11250000 0.11250000 14405.57933226 0 3.19081536 0 4053.97667014 0 518.73195391 0 -836.36608859 0 13668
0.11350000 0.11349100 14521.37142840 0 0.91219660 0 4360.38207703 0 -175.75221596 0 -157.07907678 0 13791
0.11450000 0.11448600 14556.53052273 0 90.90489204 0 3798.96786990 0 -172.47254902 0 -1344.35289090 0 14205
0.11550000 0.11549300 14608.54823641 0 -5.46219267 0 4507.38480138 0 81.29159709 0 -449.35540788 0 14776
0.11650000 0.11649800 14417.66873693 0 246.38761285 0 4247.01895302 0 -593.55427764 0 -1310.01454515 0 14553
0.11750000 0.11747300 14459.92619731 0 121.15912634 0 5164.18330226 0 -509.24343492 0 -1518.91723967 0 14568
0.11850000 0.11849100 14317.29340455 0 105.90629048 0 5228.64533892 0 -194.03272677 0 -1621.48862904 0 16015
0.11950000 0.11950300 14211.15064976 0 156.31489331 0 5441.82923546 0 -215.30342428 0 -1764.18796898 0 15270
0.12050000 0.12050700 14302.43120064 0 45.88006712 0 5657.56410730 0 336.60895442 0 -1516.74336506 0 15999
0.12150000 0.12150000 14483.32862287 0 -42.27021525 0 5083.86085396 0 452.68054872 0 -1803.83899807 0 15670
0.12250000 0.12250700 14070.18153655 0 164.69872908 0 5609.05121185 0 339.31409736 0 -899.72787852 0 16887
0.12350000 0.12352200 13897.71342400 0 265.10955329 0 5236.17626165 0 -153.51103872 0 -329.72021200 0 16407
0.12450000 0.12449800 13764.95179653 0 220.20906069 0 5512.28051848 0 354.01547891 0 41.51645750 0 16306
0.12550000 0.12549900 13524.82738260 0 130.43691259 0 5648.86860890 0 198.03110327 0 202.35112448 0 17523
0.12650000 0.12650100 13434.65595141 0 57.40182433 0 5253.03488101 0 273.42462365 0 935.22858171 0 17154
0.12750000 0.12750600 13153.60502074 0 152.24220579 0 5510.32846782 0 -32.70305967 0 502.54989756 0 18007
0.12850000 0.12850300 13205.62273443 0 132.85590264 0 5401.74564969 0 -249.37114482 0 -341.22954707 0 17496
0.12950000 0.12949900 12835.50949227 0 165.19450559 0 5693.38867345 0 -75.92966884 0 370.91291746 0 18405
0.13050000 0.13049000 12786.37548979 0 107.53680734 0 5277.82370619 0 306.05825243 0 -460.94238133 0 18100
0.13150000 0.13148800 12674.13257667 0 12.97204213 0 5326.61388157 0 269.14563986 0 158.22036095 0 19059
0.13250000 0.13249300 12659.60310867 0 58.69738705 0 4719.06029514 0 360.80883704 0 -577.53193453 0 18957
0.13350000 0.13349100 12588.50853623 0 -4.05459778 0 4347.27228223 0 499.81259016 0 119.43666346 0 19468
0.13450000 0.13450700 12433.45360290 0 -31.78215759 0 3513.40282208 0 731.38125476 0 -572.95681579 0 19953
0.13550000 0.13551000 12532.94163952 0 92.38978149 0 3889.82695530 0 52.30286836 0 -305.51700202 0 19956
0.13650000 0.13649900 12052.80372363 0 253.67009276 0 2940.60904688 0 -163.12599736 0 -469.72771843 0 19723
0.13750000 0.13749600 12028.29217838 0 251.23224767 0 3830.71087557 0 -63.62576041 0 -586.29619836 0 20946
0.13850000 0.13851100 11435.91134937 0 167.41939969 0 3146.26202070 0 -39.06097741 0 -471.98921349 0 20955
0.13950000 0.13949800 11452.43723283 0 54.19070099 0 3468.90493992 0 626.94321693 0 -628.48045683 0 20506
0.14050000 0.14048300 11328.32673898 0 94.84714709 0 2705.23166525 0 291.28255985 0 187.67858004 0 21447
0.14150000 0.14148400 11140.55277464 0 64.10445647 0 3035.31677762 0 319.90006622 0 225.10471502 0 21771
0.14250000 0.14249400 11002.06808955 0 235.49827568 0 3016.63920196 0 -7.61333032 0 981.68849661 0 22470
0.14350000 0.14350900 10891.10066408 0 211.03553169 0 3185.40285473 0 -137.98003563 0 637.48539963 0 22519
0.14450000 0.14449900 10581.20153015 0 139.90103095 0 3330.24279567 0 -8.79846908 0 897.93443197 0 22218
0.14550000 0.14550500 10395.57925802 0 53.00361018 0 3103.89364835 0 324.28330725 0 872.93598317 0 23559
0.14650000 0.14650700 10387.23867792 0 20.30920164 0 3297.87868298 0 -36.27808519 0 730.31095425 0 23044
0.14750000 0.14750500 10414.98885268 0 27.22012646 0 2527.53959894 0 122.86827979 0 577.57075372 0 23649
0.14850000 0.14849900 10192.88763380 0 100.82119850 0 3128.39410241 0 111.15597582 0 273.80948818 0 23640
0.14950000 0.14949500 10332.03779071 0 36.21730543 0 2440.14096699 0 -23.33088734 0 154.66452320 0 24457
0.15050000 0.15050000 10084.41572764 0 19.54579456 0 2668.94126883 0 267.65720123 0 -149.45831536 0 24591
0.15150000 0.15149900 10156.20904549 0 18.02264048 0 2112.27409400 0 141.80428034 0 170.73899494 0 25020
0.15250000 0.15250500 10058.86160987 0 7.25871148 0 2179.69748025 0 6.08271187 0 -369.10172500 0 25297
0.15350000 0.15350100 10208.78131902 0 132.37676294 0 2408.79724441 0 -181.95330417 0 -92.19457642 0 25452
0.15450000 0.15450400 9761.32916054 0 263.65106090 0 2518.93283011 0 -467.24994503 0 -150.05058527 0 26061
0.15550000 0.15549900 9746.85514852 0 251.75020657 0 2976.06760353 0 -226.57429862 0 69.43998768 0 26128
0.15650000 0.15649500 9570.78239697 0 -61.56557058 0 2777.23571583 0 394.93645005 0 13.49876307 0 26331
0.15750000 0.15749700 9508.57187329 0 120.41712527 0 3194.46436263 0 153.26481415 0 -220.62719881 0 27345
0.15850000 0.15849900 9433.63974670 0 247.39358441 0 2872.17636171 0 -111.50534852 0 270.62853290 0 26980
0.15950000 0.15949700 9157.35803072 0 131.87433171 0 2871.75489623 0 -168.31556841 0 -30.33830557 0 27777
0.16050000 0.16050000 9028.22322466 0 3.83327294 0 3253.11461210 0 151.80410351 0 360.11563723 0 28224
0.16150000 0.16150500 8953.56837800 0 84.17286823 0 2476.59773136 0 21.54132271 0 -543.59509011 0 28075
0.16250000 0.16249700 8930.76487707 0 12.78238266 0 2819.69281775 0 169.80511616 0 -823.06219785 0 28590
0.16350000 0.16349900 8773.22551562 0 66.61250884 0 2416.31707594 0 -88.41580562 0 -760.83836473 0 29163
0.16450000 0.16449100 8652.68638719 0 92.90341482 0 2238.30336492 0 -16.03066151 0 -973.94129554 0 28996
0.16550000 0.16550500 8656.83449485 0 57.01917804 0 2206.36071771 0 76.31719526 0 -1052.24514599 0 30777
0.16650000 0.16650700 8557.32427583 0 87.35770544 0 2122.59999836 0 77.80674301 0 -1508.22532581 0 29211
0.16750000 0.16749900 8407.91476174 0 159.02114536 0 2217.49627945 0 44.72724811 0 -788.75047097 0 30922
0.16850000 0.16850800 8195.85107609 0 256.64918826 0 2472.24998215 0 -214.23756025 0 -961.38495147 0 30867
0.16950000 0.16949900 7967.78279324 0 81.83850401 0 2546.94919360 0 49.91615369 0 -377.34026609 0 30852
0.17050000 0.17049200 7943.54852791 0 55.32144852 0 2787.47289062 0 126.70139746 0 -766.10779240 0 31257
0.17150000 0.17149500 7929.04124230 0 13.63540662 0 2555.35632089 0 121.68817644 0 -200.48225780 0 32608
0.17250000 0.17250900 8023.23877798 0 -70.16679381 0 2446.50731404 0 437.63312182 0 -87.92624019 0 32361
0.17350000 0.17350400 7993.91365325 0 2.74622473 0 2376.25567257 0 -3.35702804 0 -90.63936879 0 32508
0.17450000 0.17449800 7972.94019982 0 174.09630026 0 2312.05982463 0 -22.15400043 0 168.82243611 0 32791
0.17550000 0.17549800 7844.96996943 0 25.18001170 0 2265.21060872 0 217.74016025 0 125.58229569 0 33633
0.17650000 0.17650100 7726.07233815 0 44.94153003 0 2033.79278440 0 123.37182013 0 434.61742537 0 33984
0.17750000 0.17750300 7812.70567751 0 -4.84853893 0 1950.08752103 0 316.13238662 0 383.27294734 0 34069
0.17850000 0.17849800 7792.67497582 0 -49.87034705 0 1773.74858075 0 -2.86231629 0 347.88204700 0 34536
