### header ###
fiducial parameters:
Omega_m = 0.31
Omega_nu = 0
Omega_de = 0.69
Omega_k = 0
H_0 = 100
w_de = -1
zeff = 0
beta = 0
fgrowth = 0
b_1 = 2
gamma = 0.55
Lx = 3500 Ly = 3500 Lz = 3500
nx = 700 ny = 700 nz = 700
xoffset = 1379.75464 yoffset = 22.6059522 zoffset = 368.141391
bins = 400 dk = 0.001
kx_ny = 0.628318531 ky_ny = 0.628318531 kz_ny = 0.628318531
############################
A(data) = 3.34766377 (not used)
A(ran) = 3.3464238 (used)
Ngal = 188141
weighted Ngal = 0
Nran = 9399747
weighted Nran = 0
SN(data) = 6697.70568
SN(ran) = 133.105288
SN(data+ran) = 6830.81097
############################
13 columns: k_central k_mean P_0(k) sigma^{lin}_{P_0(k)} P^img_1(k) sigma^{lin}_{P_1(k)} P_2(k) sigma^{lin}_{P_2(k)} P^img_3(k) sigma^{lin}_{P_3(k)} P_4(k) sigma^{lin}_{P_4(k)} N_modes
### header ###
0.00050000 0 0 0 0 0 0 0 0 0 0 0 0
0.00150000 0.00179520 45060.42766548 0 -39198.95190229 0 -79740.27137122 0 83189.85544605 0 -10255.48634937 0 3
0.00250000 0.00253879 89226.90485694 0 -51953.16292093 0 -51765.83260447 0 -27853.65563198 0 36273.31597128 0 6
0.00350000 0.00331552 120386.06991540 0 -38336.72225153 0 -71761.92975848 0 -75913.91933605 0 -64985.20842312 0 7
0.00450000 0.00420575 148166.19091161 0 -8773.50279554 0 -53909.76097456 0 -86305.03993290 0 -7337.92480975 0 24
0.00550000 0.00557378 112369.35276122 0 29892.55036697 0 -917.65679838 0 -80046.05567108 0 -1479.87622641 0 45
0.00650000 0.00659388 89030.81249489 0 35492.05205825 0 55533.51220778 0 -10435.60738781 0 -6635.41948624 0 40
0.00750000 0.00754703 51618.54150900 0 12679.89999909 0 50611.46082610 0 29757.57050011 0 2743.08592043 0 57
0.00850000 0.00846663 47480.97048746 0 -5312.79425017 0 50099.04752709 0 47795.29500898 0 9242.27223456 0 75
0.00950000 0.00948925 56219.39182706 0 -9928.27385700 0 23741.81618737 0 48471.74711085 0 35372.59986712 0 112
0.01050000 0.01054430 64078.05942472 0 -7735.85477386 0 -5705.86627001 0 10452.88747266 0 10300.66079454 0 105
0.01150000 0.01145670 70434.31348378 0 450.28374106 0 5612.43402692 0 -4754.59649016 0 49482.37697677 0 144
0.01250000 0.01249090 71545.54050602 0 -2013.72880912 0 -4784.17671242 0 4905.76950456 0 25052.68475468 0 169
0.01350000 0.01339930 72659.09667962 0 -5020.26393066 0 6018.54929438 0 -7193.80579660 0 51259.96311166 0 180
0.01450000 0.01448870 83141.38691539 0 -3550.81342938 0 2035.88902062 0 3896.63695023 0 21852.20896330 0 267
0.01550000 0.01550050 84053.52695241 0 2042.67683315 0 16283.31897559 0 -10572.38402858 0 7493.65630610 0 238
0.01650000 0.01653350 93686.89697376 0 -2173.07603567 0 11848.28205191 0 -2437.09088783 0 22402.11050799 0 315
0.01750000 0.01747870 86247.25479680 0 1688.66800896 0 33251.29753880 0 -9471.39418112 0 -606.46332177 0 297
0.01850000 0.01844180 90755.38270837 0 8821.94914381 0 34046.75818393 0 -12464.17621844 0 -831.81204312 0 388
0.01950000 0.01947590 82522.71994962 0 4370.15342154 0 44787.25148465 0 -16575.68292715 0 -12964.72193672 0 399
0.02050000 0.02045430 79666.18217560 0 1456.97290471 0 55973.49999072 0 13470.03686968 0 -5112.95306356 0 462
0.02150000 0.02154770 76773.04345166 0 3064.08734251 0 53232.53248890 0 8303.82387838 0 -3429.46464357 0 571
0.02250000 0.02255340 80328.21572144 0 2249.79384496 0 46162.78173017 0 6601.09223169 0 -5992.25206641 0 510
0.02350000 0.02348930 68801.80020497 0 2909.14332114 0 41598.86509794 0 10197.02465026 0 -12167.04305220 0 555
0.02450000 0.02439640 65700.25789037 0 2668.59744173 0 43535.16626116 0 -4382.55337973 0 -5983.39020005 0 592
0.02550000 0.02547300 63584.05751265 0 2820.35828957 0 40668.64640990 0 1321.16119808 0 -1200.82171119 0 837
0.02650000 0.02652900 60222.20480567 0 2819.41553783 0 38636.73912898 0 9368.65642378 0 -6235.79256900 0 723
0.02750000 0.02749970 60385.91087263 0 -1982.39617774 0 34903.66406015 0 6884.64977287 0 495.40494849 0 826
0.02850000 0.02848090 56853.69738053 0 2739.42582544 0 30212.08775105 0 8547.14255703 0 -2251.52407169 0 831
0.02950000 0.02946900 58375.74233773 0 1127.28707542 0 27910.33164839 0 -404.86750780 0 4559.80179816 0 996
0.03050000 0.03053250 54157.64922635 0 -623.30197698 0 28858.96172337 0 4589.40420281 0 7156.06245339 0 1041
0.03150000 0.03150510 58195.51038732 0 713.28153046 0 29021.11502275 0 7540.17278610 0 7468.25746509 0 1036
0.03250000 0.03246190 56695.09326417 0 -1556.08384064 0 23504.57548464 0 4066.79809381 0 17153.86702406 0 1059
0.03350000 0.03345080 56011.21006034 0 2740.45730675 0 28427.73598602 0 5503.13028100 0 15359.64409375 0 1302
0.03450000 0.03451200 55356.27488055 0 2554.86830822 0 24738.02749725 0 110.81802704 0 27342.35145267 0 1339
0.03550000 0.03553350 50836.50121218 0 2396.68565734 0 30947.65593266 0 5381.52639766 0 30243.58675038 0 1365
0.03650000 0.03647120 48195.13265896 0 1466.76643161 0 29371.48593434 0 3473.07522997 0 33114.76490437 0 1308
0.03750000 0.03744890 47906.87245027 0 -182.46017188 0 27372.40859640 0 8099.64603376 0 30185.24705444 0 1579
0.03850000 0.03847530 48385.45759859 0 -257.58528528 0 26073.74034573 0 2101.50454176 0 33188.29954014 0 1662
0.03950000 0.03950240 48121.37619925 0 1025.14935185 0 26502.41510778 0 3799.57788573 0 32925.99273231 0 1683
0.04050000 0.04050350 46945.70932274 0 1502.94591606 0 26962.47795719 0 -2258.31188422 0 29313.81171021 0 1822
0.04150000 0.04152450 41785.97359046 0 2031.72982176 0 23435.36641569 0 -983.96330110 0 22584.11704991 0 1887
0.04250000 0.04250150 44408.15437296 0 1352.82656537 0 31435.77951035 0 1559.04519022 0 22494.50017857 0 1920
0.04350000 0.04349210 40284.78008352 0 596.80510747 0 26120.98884473 0 3043.32462182 0 17272.76465534 0 2005
0.04450000 0.04448520 41689.25835307 0 269.15894930 0 26878.29577235 0 1331.33182568 0 17385.67304028 0 2151
0.04550000 0.04548030 37875.77210636 0 220.38319248 0 19396.61795896 0 2322.68519131 0 12010.76808720 0 2274
0.04650000 0.04648670 39739.42592957 0 936.19018848 0 23054.38380051 0 1687.74743961 0 13181.33301312 0 2311
0.04750000 0.04749250 38214.27543722 0 122.13626079 0 19652.82460846 0 -1194.25572260 0 7339.67721886 0 2568
0.04850000 0.04851840 37482.92191046 0 875.50248614 0 22708.44936770 0 95.40614341 0 5600.38898704 0 2493
0.04950000 0.04949480 38683.98762798 0 -378.17765146 0 18754.21583172 0 220.85456835 0 1543.41769372 0 2644
0.05050000 0.05050630 37490.02027650 0 -333.36699755 0 18101.27706738 0 726.86491936 0 -1767.72606080 0 2829
0.05150000 0.05149060 38881.52184563 0 259.41311454 0 18898.40139205 0 1072.41781500 0 -1194.77700885 0 2784
0.05250000 0.05249300 38897.04952136 0 -806.42207507 0 12907.49136046 0 1602.95523894 0 -2628.25875843 0 3055
0.05350000 0.05348950 38219.82103570 0 -197.39446857 0 15351.88025588 0 3469.49277336 0 -4375.58810804 0 3009
0.05450000 0.05448610 38965.37129456 0 435.73098155 0 10384.55460826 0 353.04278094 0 224.85405397 0 3336
0.05550000 0.05550870 38009.19920565 0 1215.91683024 0 12171.14679507 0 466.51016220 0 -3859.54798763 0 3349
0.05650000 0.05647670 35865.38174753 0 1392.49977685 0 10847.56771606 0 -1820.74198222 0 -2498.54721012 0 3324
0.05750000 0.05747970 34727.75767655 0 853.03061201 0 13313.09643286 0 1198.39273906 0 297.74872767 0 3639
0.05850000 0.05849280 33558.30187033 0 196.43397091 0 10251.99262233 0 2618.34322835 0 -1332.56294854 0 3846
0.05950000 0.05951020 33468.90682293 0 81.87588134 0 9079.76401687 0 1993.91993137 0 -52.54343642 0 3787
0.06050000 0.06049470 33959.69228788 0 288.67612857 0 9189.32286033 0 577.91790818 0 447.43773993 0 3930
0.06150000 0.06148310 32460.60610836 0 252.22047332 0 9176.20197434 0 581.34730628 0 1445.44915108 0 4083
0.06250000 0.06249100 32420.12323950 0 531.40919202 0 9333.09804637 0 -734.26940244 0 991.33229235 0 4303
0.06350000 0.06350600 31563.10645131 0 439.87021625 0 9821.27708005 0 -382.52540067 0 1384.63611821 0 4470
0.06450000 0.06451750 31457.18552046 0 72.98617608 0 10709.70413799 0 704.11132882 0 1793.60182328 0 4479
0.06550000 0.06550280 32064.98311322 0 -409.19307461 0 9054.26535509 0 1636.77229844 0 1283.28476050 0 4636
0.06650000 0.06648880 32260.18817951 0 -166.81160210 0 9754.45261843 0 711.05996371 0 1308.00703850 0 4653
0.06750000 0.06749660 32058.99386687 0 384.22679028 0 7688.69500443 0 -115.91853578 0 1279.26974720 0 5220
0.06850000 0.06852730 32071.52691942 0 333.10302707 0 9606.01912967 0 246.17688010 0 2216.27624778 0 5029
0.06950000 0.06949320 30344.96029049 0 796.71173214 0 9295.11069682 0 -294.52008024 0 2090.75717192 0 5040
0.07050000 0.07048030 30284.51326712 0 1203.80524317 0 10916.61041706 0 -684.71282536 0 4511.22235552 0 5475
0.07150000 0.07148790 29314.47718203 0 175.66792286 0 10620.73055607 0 1068.44938473 0 1580.38465315 0 5509
0.07250000 0.07249820 28784.09614397 0 223.85917360 0 9476.93977959 0 2117.14312946 0 5532.61068248 0 5916
0.07350000 0.07351270 27992.07376989 0 630.59111161 0 9746.66659817 0 909.26630789 0 4869.42365216 0 5721
0.07450000 0.07449140 27242.19794422 0 719.29850480 0 8464.97897003 0 -304.18162190 0 4141.29766371 0 6028
0.07550000 0.07549160 25929.44387343 0 936.81240463 0 11033.85546000 0 -1672.71886775 0 3956.87324085 0 6183
0.07650000 0.07648840 25279.05608439 0 478.98775877 0 10355.46239866 0 -476.00866326 0 2193.56147643 0 6330
0.07750000 0.07749960 24711.85227246 0 172.20525118 0 10026.27567324 0 19.33117990 0 598.31240113 0 6583
0.07850000 0.07848650 25050.91016316 0 -367.83621943 0 10094.63072003 0 235.22099576 0 -1090.85471169 0 6549
0.07950000 0.07947320 25369.33842755 0 -321.39848693 0 8191.45896209 0 1141.66126667 0 -1283.39567247 0 6828
0.08050000 0.08048110 25213.72893436 0 168.97216727 0 7229.17562367 0 937.38027392 0 -2339.06688920 0 7147
0.08150000 0.08149960 24835.63003040 0 334.31307665 0 7076.20583536 0 678.46959060 0 -953.38154375 0 7386
0.08250000 0.08250610 24251.34577517 0 403.21935593 0 6664.43405746 0 1105.06918970 0 294.33707549 0 7227
0.08350000 0.08350160 24213.85752948 0 581.64898684 0 6948.23560497 0 1034.36280915 0 2249.23928511 0 7798
0.08450000 0.08449610 22872.59908253 0 448.73873733 0 6191.71615233 0 -250.27175002 0 3288.69517191 0 7371
0.08550000 0.08548940 22444.14614442 0 755.69204935 0 7656.00924703 0 243.93091272 0 2791.80954862 0 8256
0.08650000 0.08650700 21687.83742452 0 565.41369274 0 7997.96194014 0 -751.44412092 0 4966.80436137 0 8037
0.08750000 0.08749060 21013.04900219 0 343.24703579 0 8365.84585171 0 779.76549233 0 3765.15081041 0 8155
0.08850000 0.08849210 20561.74819837 0 277.97312351 0 8598.11769820 0 693.01236804 0 5071.91563485 0 8718
0.08950000 0.08949900 19826.29092873 0 460.53977088 0 8636.84815794 0 409.67110520 0 5432.17989412 0 8571
0.09050000 0.09049190 19997.53900961 0 118.89874040 0 8650.91179567 0 1101.24272675 0 6381.06506663 0 8932
0.09150000 0.09150830 19753.75450069 0 -361.07835313 0 6769.97788762 0 1689.30020718 0 5578.15113715 0 9285
0.09250000 0.09250820 19461.27963717 0 311.13247503 0 6706.38096432 0 603.52970018 0 5782.17370502 0 9204
0.09350000 0.09350330 19290.47520417 0 403.71069596 0 5904.58724573 0 -676.42548300 0 6083.55479969 0 9349
0.09450000 0.09448040 18461.96279213 0 402.65037753 0 6863.90923457 0 -460.27025480 0 4202.28815573 0 9564
0.09550000 0.09549270 18110.37184887 0 591.99485535 0 6584.35561549 0 -980.62817818 0 3847.25894141 0 10155
0.09650000 0.09649430 17336.98268568 0 465.12265346 0 7300.43656406 0 -533.84925535 0 1886.22440900 0 9913
0.09750000 0.09749140 17557.36476904 0 71.47300408 0 6987.28770943 0 309.64181816 0 2136.14234983 0 10476
0.09850000 0.09850240 16656.75957684 0 44.70417842 0 6722.90684777 0 -63.55045119 0 975.45080744 0 10575
0.09950000 0.09950330 17147.98868968 0 219.28405486 0 6831.03492682 0 291.21379443 0 1476.98142400 0 10882
0.10050000 0.10051200 16828.45130560 0 -145.08949288 0 6021.52173516 0 780.69382551 0 86.81700958 0 10875
0.10150000 0.10150300 16651.87945018 0 180.28740639 0 6184.59560389 0 84.50726782 0 685.54022865 0 11118
0.10250000 0.10250800 16429.39003940 0 386.12893056 0 5803.86808625 0 -161.24160299 0 466.01771305 0 11575
0.10350000 0.10349800 16118.94743682 0 249.37890866 0 6368.18818697 0 19.17945232 0 453.33714758 0 11364
0.10450000 0.10450100 15662.98833028 0 143.42248598 0 6448.88773597 0 416.93583920 0 243.32866073 0 12093
0.10550000 0.10551000 15734.08290272 0 -120.44596238 0 5302.78999052 0 440.12753202 0 1067.39904838 0 12067
0.10650000 0.10649700 15784.32602489 0 -182.27938537 0 5020.69648734 0 982.31847659 0 1003.25754731 0 12054
0.10750000 0.10749900 15934.72265551 0 162.19655505 0 4102.07919130 0 -68.96805725 0 100.45419079 0 12807
0.10850000 0.10850100 15694.48732961 0 341.77967044 0 4674.22967707 0 176.83804414 0 1203.28395691 0 12736
0.10950000 0.10950300 15299.08615841 0 145.85811283 0 4167.52834449 0 4.94761659 0 456.94955043 0 12933
0.11050000 0.11050200 14943.94603213 0 70.44573742 0 4188.22451800 0 239.70516668 0 1211.26961872 0 13428
0.11150000 0.11150900 15226.43881840 0 71.17786733 0 3634.56305754 0 605.79230435 0 457.41094422 0 13453
0.11250000 0.11250000 14629.62151061 0 253.82758776 0 3876.31787742 0 -72.45923331 0 377.46116014 0 13668
0.11350000 0.11349100 14599.00980704 0 282.30312680 0 3340.29142011 0 -173.05483686 0 891.46715503 0 13791
0.11450000 0.11448600 14140.94337308 0 110.36195703 0 4686.48544970 0 -330.54650617 0 -479.10865281 0 14205
0.11550000 0.11549300 14197.61938948 0 316.37306559 0 4241.61754011 0 -373.42174621 0 404.22976397 0 14776
0.11650000 0.11649800 13830.27894656 0 32.33228096 0 4498.62275579 0 -277.95759584 0 -466.55563611 0 14553
0.11750000 0.11747300 13960.82233464 0 5.62823898 0 4928.79482943 0 144.87543278 0 -333.33816044 0 14568
0.11850000 0.11849100 14052.10288552 0 43.41759957 0 4942.24845132 0 -81.58861934 0 -543.30450075 0 16015
0.11950000 0.11950300 13973.57721113 0 26.03225927 0 4965.37359696 0 0.70758398 0 -1332.51858375 0 15270
0.12050000 0.12050700 13818.30045385 0 229.76301774 0 5198.85438392 0 -174.30148740 0 -28.66142751 0 15999
0.12150000 0.12150000 13890.50414598 0 150.57298065 0 5830.53132371 0 137.29016318 0 -83.81650807 0 15670
0.12250000 0.12250700 13623.42812347 0 -99.88953796 0 5060.71352593 0 614.13177534 0 -27.13339330 0 16887
0.12350000 0.12352200 13613.44604622 0 222.57148564 0 5061.87810161 0 648.84056707 0 367.96931379 0 16407
0.12450000 0.12449800 13606.45859214 0 23.84806985 0 4705.39594050 0 -96.16644496 0 956.10665084 0 16306
0.12550000 0.12549900 13438.53787034 0 49.38377624 0 4645.04873790 0 527.23668373 0 1088.26935368 0 17523
0.12650000 0.12650100 13467.04224650 0 11.23216606 0 4821.06603347 0 641.52037708 0 1414.39379963 0 17154
0.12750000 0.12750600 13464.49127120 0 25.09161486 0 4158.26719504 0 89.99541389 0 1548.71928587 0 18007
0.12850000 0.12850300 13365.89053033 0 -5.44809576 0 4102.04591771 0 288.37001153 0 1764.95326157 0 17496
0.12950000 0.12949900 13300.00882046 0 213.31366355 0 3968.40808568 0 43.59439325 0 1696.56494118 0 18405
0.13050000 0.13049000 13317.08926376 0 19.91258044 0 4450.86406173 0 -216.79408115 0 1587.66047835 0 18100
0.13150000 0.13148800 12907.60227243 0 260.35808452 0 4620.73683419 0 -536.14956960 0 1378.73560144 0 19059
0.13250000 0.13249300 12882.20343142 0 200.99467110 0 4530.63195018 0 1.45502085 0 1063.43838195 0 18957
0.13350000 0.13349100 12535.15987891 0 73.82699972 0 5196.48086777 0 313.09894425 0 1427.89178631 0 19468
0.13450000 0.13450700 12578.74828292 0 154.38502504 0 4399.38981669 0 385.13183195 0 931.93338710 0 19953
0.13550000 0.13551000 12295.36820089 0 -8.81182288 0 4351.93058495 0 477.08118201 0 833.12524084 0 19956
0.13650000 0.13649900 12077.20435692 0 412.57478056 0 3930.77565443 0 -106.83406910 0 939.87579323 0 19723
0.13750000 0.13749600 11669.15922119 0 140.74174367 0 3705.77963314 0 43.75721202 0 665.14573570 0 20946
0.13850000 0.13851100 11524.19727708 0 -83.80220043 0 3079.61501823 0 562.59763784 0 286.17395454 0 20955
0.13950000 0.13949800 11454.21182434 0 43.94387687 0 2525.70955144 0 606.29584470 0 -42.41273713 0 20506
0.14050000 0.14048300 11414.39442729 0 -62.19011588 0 1591.50912369 0 304.92584122 0 -96.62939152 0 21447
0.14150000 0.14148400 11257.56490245 0 69.14474001 0 1486.46439739 0 226.32031021 0 -799.67973645 0 21771
0.14250000 0.14249400 11295.71861995 0 176.32563084 0 871.56178387 0 -250.31611480 0 -622.22723999 0 22470
0.14350000 0.14350900 11080.77122309 0 3.51584289 0 696.15561325 0 238.36756833 0 -1072.41005116 0 22519
0.14450000 0.14449900 10874.33077429 0 85.91230065 0 963.81725096 0 293.92559209 0 -377.51217965 0 22218
0.14550000 0.14550500 10921.67909407 0 139.02593551 0 598.51093356 0 -1.68275640 0 -629.35444315 0 23559
0.14650000 0.14650700 10717.12414875 0 123.57257080 0 1132.15611088 0 -171.10944092 0 -618.81447869 0 23044
0.14750000 0.14750500 10592.38145667 0 164.13751452 0 1438.51715299 0 -217.63590300 0 252.28258402 0 23649
0.14850000 0.14849900 10427.27789890 0 101.72457649 0 1806.68943568 0 -352.90081362 0 -365.06896579 0 23640
0.14950000 0.14949500 10414.03500975 0 151.38041979 0 2094.56145247 0 -351.53105080 0 -157.00698400 0 24457
0.15050000 0.15050000 10290.32379899 0 84.37628078 0 2447.27260663 0 -116.00171976 0 -568.50480933 0 24591
0.15150000 0.15149900 10343.23989963 0 13.19453154 0 2505.78976172 0 -111.00069906 0 -393.59441522 0 25020
0.15250000 0.15250500 10226.06140387 0 146.23077704 0 2344.62357887 0 6.31681376 0 -721.36368567 0 25297
0.15350000 0.15350100 10292.89695668 0 0.97227873 0 2465.02961294 0 -48.45699582 0 -850.98872265 0 25452
0.15450000 0.15450400 9909.36336621 0 274.77885879 0 2805.92864234 0 -14.00718354 0 -828.60779633 0 26061
0.15550000 0.15549900 9705.37407194 0 286.65863984 0 2479.39271299 0 -95.83714733 0 -916.54878781 0 26128
0.15650000 0.15649500 9400.68780057 0 115.19428062 0 2718.71856074 0 169.42690634 0 -471.99586821 0 26331
0.15750000 0.15749700 9367.88004000 0 44.87287553 0 2601.01877872 0 312.72849827 0 -567.40234436 0 27345
0.15850000 0.15849900 9199.94822701 0 91.24528088 0 2620.98293323 0 164.86287880 0 -321.71902252 0 26980
0.15950000 0.15949700 9039.20350963 0 219.71217507 0 2349.37061116 0 -198.42927724 0 -149.45387888 0 27777
0.16050000 0.16050000 8799.36746683 0 109.69415606 0 2679.18953481 0 -42.03951835 0 -40.77345822 0 28224
0.16150000 0.16150500 8863.94041546 0 -42.68114410 0 2528.03870280 0 268.50678692 0 87.42624903 0 28075
0.16250000 0.16249700 8947.52367566 0 -2.31691777 0 2568.86539877 0 153.39125379 0 -230.33421438 0 28590
0.16350000 0.16349900 8838.56375684 0 57.18987156 0 2365.14229322 0 76.80054962 0 233.90890716 0 29163
0.16450000 0.16449100 8814.78423058 0 201.42944602 0 2551.11948365 0 -21.69415941 0 322.00406628 0 28996
0.16550000 0.16550500 8659.19691979 0 -33.62218716 0 2271.12221669 0 415.55498518 0 637.35563263 0 30777
0.16650000 0.16650700 8609.16453036 0 -76.24532430 0 2146.71226053 0 510.81394841 0 900.56082741 0 29211
0.16750000 0.16749900 8754.20411285 0 123.75335731 0 1897.64834186 0 220.26451667 0 1227.79550217 0 30922
0.16850000 0.16850800 8474.17357230 0 100.77461547 0 1743.92435215 0 -3.73551513 0 663.71608042 0 30867
0.16950000 0.16949900 8542.58407508 0 54.26379198 0 1784.60686256 0 -178.90322501 0 1150.27912670 0 30852
0.17050000 0.17049200 8293.97489549 0 128.51591728 0 1828.77200881 0 -257.26142233 0 426.85136927 0 31257
0.17150000 0.17149500 8319.04100059 0 64.50906334 0 2055.84208393 0 58.97278147 0 447.24364398 0 32608
0.17250000 0.17250900 8223.39051811 0 15.05241794 0 1754.78263397 0 -159.69438102 0 -3.84119206 0 32361
0.17350000 0.17350400 8109.09573356 0 77.39581416 0 2005.32168183 0 108.49419946 0 235.37294516 0 32508
0.17450000 0.17449800 8123.64738395 0 155.59063815 0 2005.01112831 0 -97.94469657 0 -40.10465905 0 32791
0.17550000 0.17549800 7987.79131253 0 106.55778738 0 2037.45287939 0 -103.16510115 0 104.19236781 0 33633
0.17650000 0.17650100 7756.95023045 0 159.08214695 0 2439.08730328 0 -132.79379194 0 312.06302645 0 33984
0.17750000 0.17750300 7801.15974149 0 89.27415336 0 2295.00156372 0 19.18477610 0 347.60698531 0 34069
0.17850000 0.17849800 7667.03389679 0 -39.79477100 0 2542.23543490 0 163.37665841 0 173.15909411 0 34536
