### header ###
fiducial parameters:
Omega_m = 0.31
Omega_nu = 0
Omega_de = 0.69
Omega_k = 0
H_0 = 100
w_de = -1
zeff = 0
beta = 0
fgrowth = 0
b_1 = 2
gamma = 0.55
Lx = 3500 Ly = 3500 Lz = 3500
nx = 700 ny = 700 nz = 700
xoffset = 1379.75464 yoffset = 22.6059522 zoffset = 368.141391
bins = 400 dk = 0.001
kx_ny = 0.628318531 ky_ny = 0.628318531 kz_ny = 0.628318531
############################
A(data) = 3.2872726 (not used)
A(ran) = 3.2882986 (used)
Ngal = 184634
weighted Ngal = 0
Nran = 9399747
weighted Nran = 0
SN(data) = 6685.28127
SN(ran) = 130.793336
SN(data+ran) = 6816.07461
############################
13 columns: k_central k_mean P_0(k) sigma^{lin}_{P_0(k)} P^img_1(k) sigma^{lin}_{P_1(k)} P_2(k) sigma^{lin}_{P_2(k)} P^img_3(k) sigma^{lin}_{P_3(k)} P_4(k) sigma^{lin}_{P_4(k)} N_modes
### header ###
0.00050000 0 0 0 0 0 0 0 0 0 0 0 0
0.00150000 0.00179520 14628.73421486 0 -19047.68890297 0 -18661.38251326 0 -8125.76580257 0 -53780.43761814 0 3
0.00250000 0.00253879 36596.06980248 0 -26594.13930654 0 -32475.57922424 0 2902.46642058 0 28872.38207167 0 6
0.00350000 0.00331552 53707.01389435 0 -23451.67047520 0 -25400.61560294 0 -46485.97920924 0 -36150.64733304 0 7
0.00450000 0.00420575 67527.42167562 0 -7303.78610554 0 -36366.92567353 0 -26587.92823625 0 5086.02363736 0 24
0.00550000 0.00557378 72360.63256975 0 -2693.17553416 0 -32550.11206774 0 -17510.67082988 0 3706.43401376 0 45
0.00650000 0.00659388 69673.79010904 0 -1547.43270702 0 3717.04828924 0 -16914.85172983 0 -22151.78219287 0 40
0.00750000 0.00754703 75452.08189512 0 -4830.17190616 0 -29701.55995552 0 7669.04140344 0 -6414.20556311 0 57
0.00850000 0.00846663 74158.40468308 0 -3568.75898604 0 -16118.17105303 0 -16140.57527087 0 -23201.23124811 0 75
0.00950000 0.00948925 75142.85932421 0 -1542.28639164 0 -28780.54696094 0 -17256.12785992 0 -7420.68732137 0 112
0.01050000 0.01054430 75241.68188902 0 9813.01413832 0 -6678.51987758 0 -26433.20603882 0 -29724.96238108 0 105
0.01150000 0.01145670 67789.61757148 0 3078.91627283 0 -6966.60262712 0 -19918.90242325 0 -18057.57775140 0 144
0.01250000 0.01249090 63500.09715175 0 1207.33224380 0 8466.03263374 0 -8145.02012047 0 -32174.12049119 0 169
0.01350000 0.01339930 69777.82553641 0 -1351.88381362 0 18222.72567396 0 -1015.07965414 0 -19537.14342429 0 180
0.01450000 0.01448870 67042.62545701 0 3098.33695868 0 16100.53604989 0 -17542.05891725 0 -37332.30345590 0 267
0.01550000 0.01550050 65702.36521779 0 5729.02468924 0 33222.23860280 0 -13262.63148675 0 -36631.78345665 0 238
0.01650000 0.01653350 60222.75936552 0 4726.42484991 0 42507.78868785 0 -3172.24869515 0 -15438.05885617 0 315
0.01750000 0.01747870 60363.17391888 0 58.98564726 0 45840.58245882 0 11312.79906325 0 -13235.12531831 0 297
0.01850000 0.01844180 67830.21135231 0 -4911.65893014 0 40087.02404193 0 18280.28898612 0 -2031.91837211 0 388
0.01950000 0.01947590 69634.63818381 0 -266.56693657 0 45272.04770325 0 8974.09818355 0 4216.85089732 0 399
0.02050000 0.02045430 68241.47293515 0 2562.82069643 0 29315.91903763 0 6299.66677223 0 6770.82081859 0 462
0.02150000 0.02154770 66355.08215819 0 2708.73648348 0 43474.60832583 0 3335.87712372 0 18882.87371632 0 571
0.02250000 0.02255340 63218.49166123 0 1361.00077752 0 35243.72015858 0 -4458.77208515 0 7143.77340717 0 510
0.02350000 0.02348930 63309.55038818 0 2426.52097714 0 44467.71410057 0 4636.70815780 0 9421.12887655 0 555
0.02450000 0.02439640 58076.16910816 0 2507.27598212 0 35251.81673235 0 -1784.99505445 0 -3.22530898 0 592
0.02550000 0.02547300 55674.81405690 0 3657.11146093 0 39663.56214245 0 4809.00990239 0 8331.20804364 0 837
0.02650000 0.02652900 53003.27744798 0 1677.95391271 0 37379.10830702 0 9678.64428729 0 2527.52850774 0 723
0.02750000 0.02749970 49378.00881349 0 -862.44038350 0 30539.38897299 0 9792.01850250 0 11312.68815128 0 826
0.02850000 0.02848090 50930.33273836 0 -1294.34268386 0 21385.04774784 0 7705.55362379 0 7515.17322818 0 831
0.02950000 0.02946900 53118.51498428 0 -3267.15606743 0 12690.88028406 0 7190.46734632 0 7885.03137281 0 996
0.03050000 0.03053250 55866.58085214 0 -2067.64311748 0 9222.70736314 0 2106.31812124 0 -1327.58300111 0 1041
0.03150000 0.03150510 57290.02506847 0 1328.31502011 0 6258.80680267 0 -1393.76417330 0 1991.21367931 0 1036
0.03250000 0.03246190 55400.97240425 0 220.24787988 0 4692.74088478 0 -2363.68934642 0 -3080.52449638 0 1059
0.03350000 0.03345080 56571.20459426 0 -52.80241587 0 7470.39806610 0 292.80981767 0 -8080.56917501 0 1302
0.03450000 0.03451200 54011.02360270 0 2212.82688553 0 4981.04545825 0 -4132.06978785 0 -7287.75932595 0 1339
0.03550000 0.03553350 52668.10147621 0 2404.99296386 0 7693.96332298 0 -1521.09111427 0 -5784.34757962 0 1365
0.03650000 0.03647120 48695.78928920 0 638.43036961 0 8272.48015580 0 2358.63176062 0 -3328.90076084 0 1308
0.03750000 0.03744890 48555.37473584 0 1384.65830061 0 11311.02447174 0 -344.82753136 0 -8548.68423340 0 1579
0.03850000 0.03847530 46146.36675868 0 1687.47015969 0 11738.36829015 0 -2245.03572147 0 -3045.73141156 0 1662
0.03950000 0.03950240 46063.84825339 0 543.96220873 0 15970.10357378 0 -3132.85276359 0 -6856.87741571 0 1683
0.04050000 0.04050350 46048.09875372 0 -643.72752528 0 16535.08914632 0 881.81226809 0 -8622.97307056 0 1822
0.04150000 0.04152450 46448.60187552 0 1929.75735702 0 19358.02059358 0 -5337.79380809 0 -4722.12146549 0 1887
0.04250000 0.04250150 45624.30411833 0 1225.23343567 0 21101.77857778 0 -1788.25586636 0 -12114.35986670 0 1920
0.04350000 0.04349210 44435.66054139 0 674.42795843 0 25971.36859790 0 -22.65177335 0 -9232.80035237 0 2005
0.04450000 0.04448520 44163.37165631 0 565.28947134 0 22494.94382645 0 2520.35250332 0 -5379.59652939 0 2151
0.04550000 0.04548030 42299.49600916 0 313.93300226 0 22511.80244581 0 4702.83387400 0 -1606.48223957 0 2274
0.04650000 0.04648670 41377.92845473 0 323.61561720 0 20142.50095373 0 5046.37260827 0 -2799.08537382 0 2311
0.04750000 0.04749250 40731.20076068 0 1934.82603403 0 20319.73828096 0 1068.42942058 0 756.08135036 0 2568
0.04850000 0.04851840 38314.09620976 0 1752.44239141 0 19712.82798395 0 -2315.53136927 0 5068.52172858 0 2493
0.04950000 0.04949480 36051.04838444 0 1219.45492206 0 21315.50594297 0 1449.83017387 0 4361.39137595 0 2644
0.05050000 0.05050630 35009.36316706 0 563.21985399 0 19503.86983345 0 4084.13363464 0 6277.14055123 0 2829
0.05150000 0.05149060 35359.40134275 0 -905.30120498 0 16370.49578361 0 3904.35642330 0 4615.51288043 0 2784
0.05250000 0.05249300 36031.41696584 0 -893.88392685 0 16906.86606802 0 2562.47686933 0 9271.43099134 0 3055
0.05350000 0.05348950 37401.06887698 0 -431.97661138 0 13283.81567292 0 665.34759549 0 5428.19815441 0 3009
0.05450000 0.05448610 37448.76102386 0 92.67903991 0 13602.35484927 0 1225.32216525 0 7990.09828150 0 3336
0.05550000 0.05550870 36694.22689547 0 730.70801910 0 12811.55250686 0 -2647.90126822 0 3893.60905346 0 3349
0.05650000 0.05647670 37079.97872533 0 1035.49965684 0 16870.26511809 0 -1107.87858988 0 3771.41733668 0 3324
0.05750000 0.05747970 35101.19827780 0 1086.50585336 0 16709.88641022 0 -311.69812608 0 1935.00349318 0 3639
0.05850000 0.05849280 33507.06054043 0 1080.75839511 0 18260.54665555 0 -405.15144244 0 -222.82547405 0 3846
0.05950000 0.05951020 33222.23860280 0 825.07525010 0 17717.41074100 0 -416.26704002 0 4215.51995369 0 3787
0.06050000 0.06049470 31269.85520400 0 99.94499394 0 16550.06226220 0 2946.17682775 0 -1311.35657998 0 3930
0.06150000 0.06148310 32195.52650130 0 542.06561405 0 16107.52350396 0 2163.52651510 0 3678.31782950 0 4083
0.06250000 0.06249100 30869.90664205 0 -101.41468845 0 14036.57520979 0 3075.54454895 0 2049.16518337 0 4303
0.06350000 0.06350600 30748.45803547 0 -325.36469895 0 11583.20244485 0 2075.01876345 0 4439.92814154 0 4470
0.06450000 0.06451750 30711.96799751 0 271.76427146 0 9756.58212825 0 1120.37725972 0 2740.19111803 0 4479
0.06550000 0.06550280 30044.27794122 0 731.91030485 0 7877.85536838 0 -239.00642128 0 2962.65834642 0 4636
0.06650000 0.06648880 28891.34801846 0 518.70089856 0 9692.02027081 0 -82.79079418 0 3079.44865028 0 4653
0.06750000 0.06749660 28394.57330714 0 556.25790966 0 9044.43855459 0 551.60958902 0 1384.39211188 0 5220
0.06850000 0.06852730 27925.74841214 0 387.72828116 0 9128.72056020 0 -486.00072260 0 2237.36061318 0 5029
0.06950000 0.06949320 26892.27068051 0 285.86118278 0 9224.48195466 0 401.95163212 0 641.18542294 0 5040
0.07050000 0.07048030 27625.17697485 0 -446.57595392 0 7952.96495412 0 623.28534018 0 2230.76135100 0 5475
0.07150000 0.07148790 28129.05005220 0 -709.33084611 0 8291.67901772 0 1776.08882330 0 1037.79220725 0 5509
0.07250000 0.07249820 28812.82234406 0 -166.31804384 0 6663.12529622 0 537.45167612 0 1259.59396382 0 5916
0.07350000 0.07351270 29010.91112156 0 437.25380289 0 5484.95180920 0 195.02427978 0 -127.38239695 0 5721
0.07450000 0.07449140 28122.28442207 0 402.12687303 0 7410.66087933 0 -875.75869279 0 2153.21170194 0 6028
0.07550000 0.07549160 27744.18551810 0 760.63539583 0 7167.47529505 0 -371.28003608 0 771.21861596 0 6183
0.07650000 0.07648840 27608.65109139 0 582.48193573 0 9711.60732462 0 -543.93004426 0 1623.37413252 0 6330
0.07750000 0.07749960 25385.42066312 0 843.07071715 0 8855.00091072 0 -1060.38608455 0 -522.24453598 0 6583
0.07850000 0.07848650 25672.90448802 0 815.08319077 0 10441.46353980 0 -361.00404211 0 897.65049733 0 6549
0.07950000 0.07947320 24009.11403382 0 518.82511996 0 10618.32376634 0 265.41123385 0 343.63079121 0 6828
0.08050000 0.08048110 23811.69072814 0 631.03697773 0 10627.82892212 0 -148.61205703 0 -830.07627080 0 7147
0.08150000 0.08149960 23031.64684677 0 206.56910668 0 11058.31154927 0 828.74421805 0 -795.19001992 0 7386
0.08250000 0.08250610 22269.23796855 0 530.23463426 0 9204.77289768 0 635.93706854 0 -2597.83560520 0 7227
0.08350000 0.08350160 21863.18924828 0 411.56215428 0 9388.80912864 0 596.30933096 0 -1202.50757313 0 7798
0.08450000 0.08449610 20904.24436013 0 227.60799817 0 7908.67780470 0 1134.04161436 0 -1654.38511919 0 7371
0.08550000 0.08548940 20731.99807153 0 624.94347412 0 7989.88754876 0 -82.62287346 0 -1933.46181680 0 8256
0.08650000 0.08650700 19529.93414628 0 283.88916797 0 7562.25535922 0 827.51864079 0 -229.79740045 0 8037
0.08750000 0.08749060 19361.12612873 0 404.14990736 0 7200.49378836 0 -159.24962402 0 -1562.52782607 0 8155
0.08850000 0.08849210 19403.05085319 0 10.89339654 0 7250.20453308 0 464.17546524 0 763.80082344 0 8718
0.08950000 0.08949900 18808.89543267 0 161.71076062 0 6706.09259320 0 585.76936650 0 -843.48109143 0 8571
0.09050000 0.09049190 18916.81277898 0 226.46227753 0 7947.49699402 0 56.88419817 0 1389.67152163 0 8932
0.09150000 0.09150830 18608.92115170 0 132.41114565 0 6889.82936184 0 -214.62464303 0 563.48604272 0 9285
0.09250000 0.09250820 18769.18894760 0 180.34840798 0 8172.88120721 0 681.84796919 0 1565.05661897 0 9204
0.09350000 0.09350330 18230.26768789 0 105.68468836 0 7606.75324138 0 140.77390815 0 1933.82782630 0 9349
0.09450000 0.09448040 18601.60096171 0 18.42236722 0 7311.87158812 0 537.15997764 0 1135.73856750 0 9564
0.09550000 0.09549270 18277.95983476 0 219.70219299 0 7463.16660569 0 253.32072006 0 1522.14477798 0 10155
0.09650000 0.09649430 17975.83562989 0 402.95871280 0 7448.63713768 0 -601.31256991 0 779.37730043 0 9913
0.09750000 0.09749140 17481.61189388 0 260.72631226 0 7969.83466468 0 -102.86619339 0 677.63553259 0 10476
0.09850000 0.09850240 16986.94450999 0 153.85042935 0 7046.21523881 0 925.62471427 0 -407.80667499 0 10575
0.09950000 0.09950330 16794.29041900 0 173.92771406 0 6615.48860533 0 55.78982977 0 381.08132682 0 10882
0.10050000 0.10051200 16552.50232553 0 43.98679980 0 5805.90886649 0 810.60456544 0 -400.12713022 0 10875
0.10150000 0.10150300 16619.04950722 0 169.40805131 0 5822.88948901 0 675.14334063 0 561.89889243 0 11118
0.10250000 0.10250800 16197.25128728 0 18.95663018 0 4657.22687215 0 288.48425086 0 -554.96689434 0 11575
0.10350000 0.10349800 16087.11570158 0 239.86155256 0 5450.61346345 0 -317.07624748 0 -39.22191068 0 11364
0.10450000 0.10450100 15850.65138264 0 244.89030126 0 5214.29333007 0 -234.99473534 0 -640.71626530 0 12093
0.10550000 0.10551000 15588.12275088 0 253.13216971 0 5705.36716615 0 -460.32681990 0 -1087.79021397 0 12067
0.10650000 0.10649700 15388.59211778 0 143.22173531 0 5990.28892455 0 -301.75375889 0 -504.94115962 0 12054
0.10750000 0.10749900 15459.79760219 0 34.18129440 0 6049.95956413 0 312.55547560 0 -868.16344112 0 12807
0.10850000 0.10850100 15148.80043976 0 48.68625086 0 6033.27840392 0 324.48738528 0 -85.03032867 0 12736
0.10950000 0.10950300 15502.16597453 0 -114.38351413 0 6223.27060765 0 778.12732254 0 512.83587361 0 12933
0.11050000 0.11050200 15423.30756423 0 179.88257770 0 6002.52251479 0 640.65859108 0 1220.80804809 0 13428
0.11150000 0.11150900 15087.90976851 0 286.42128823 0 6084.17590672 0 69.03926273 0 1522.24459875 0 13453
0.11250000 0.11250000 14672.21170690 0 384.96879135 0 5584.68385216 0 -265.65856754 0 831.38281380 0 13668
0.11350000 0.11349100 14254.07358195 0 237.38156092 0 6700.19207642 0 34.43517190 0 1999.58753301 0 13791
0.11450000 0.11448600 14166.12039015 0 -65.13150131 0 5431.80279342 0 615.23867680 0 776.83076161 0 14205
0.11550000 0.11549300 14104.78607102 0 -60.71665037 0 5588.70995665 0 164.64327310 0 979.32496254 0 14776
0.11650000 0.11649800 14109.44437374 0 33.19883618 0 4352.45187121 0 329.49173334 0 -716.62219898 0 14553
0.11750000 0.11747300 14077.72355047 0 218.23150027 0 4407.77476159 0 -351.17280513 0 -116.20025219 0 14568
0.11850000 0.11849100 13817.96771794 0 172.91286954 0 4609.33508373 0 9.92961589 0 -519.62479526 0 16015
0.11950000 0.11950300 13722.02886434 0 -78.16410137 0 4408.81733410 0 399.80992199 0 -804.73510401 0 15270
0.12050000 0.12050700 13905.36634990 0 -133.33947883 0 3408.16954543 0 824.22233705 0 -567.59089471 0 15999
0.12150000 0.12150000 13842.14652729 0 94.05002276 0 3621.50871873 0 392.79141256 0 -169.77960640 0 15670
0.12250000 0.12250700 13873.64552662 0 62.25588668 0 3206.26539619 0 172.68328177 0 914.56235444 0 16887
0.12350000 0.12352200 13484.78816162 0 239.68298429 0 3777.42876543 0 -63.34493131 0 263.53460333 0 16407
0.12450000 0.12449800 13438.53787034 0 258.51361847 0 3873.43416621 0 -257.88696584 0 1315.73760277 0 16306
0.12550000 0.12549900 13191.31509037 0 79.31736403 0 3950.09651952 0 154.61683106 0 1020.44224786 0 17523
0.12650000 0.12650100 13174.45647101 0 38.37177043 0 3905.09953350 0 458.14739970 0 1142.92566312 0 17154
0.12750000 0.12750600 12949.63790887 0 52.04832539 0 3665.80695934 0 -69.72248046 0 803.99199382 0 18007
0.12850000 0.12850300 12977.47681321 0 111.52753091 0 3486.58430786 0 157.02472991 0 1205.39128433 0 17496
0.12950000 0.12949900 12911.70601530 0 74.63898625 0 3871.87030744 0 -255.49681290 0 467.04808525 0 18405
0.13050000 0.13049000 12811.44159489 0 329.29763739 0 3786.92283002 0 -794.37148959 0 -345.03050026 0 18100
0.13150000 0.13148800 12226.93551572 0 446.46504195 0 5037.86566022 0 -708.81177809 0 -212.04039414 0 19059
0.13250000 0.13249300 11943.44452172 0 203.18629161 0 4530.50994702 0 -493.63812081 0 -1159.30736101 0 18957
0.13350000 0.13349100 11763.87804313 0 115.53810773 0 5514.32129872 0 362.46697099 0 -896.42159271 0 19468
0.13450000 0.13450700 11797.15163398 0 -114.09847037 0 5099.17779695 0 525.98226935 0 -962.28999314 0 19953
0.13550000 0.13551000 11828.09607346 0 1.03294425 0 4899.49188709 0 281.98591857 0 -444.54737400 0 19956
0.13650000 0.13649900 11932.24241281 0 -186.16241342 0 4133.98856492 0 754.13928178 0 -328.37374069 0 19723
0.13750000 0.13749600 11951.20835959 0 59.66187754 0 3969.52829657 0 281.81844150 0 -735.51827122 0 20946
0.13850000 0.13851100 12049.92001243 0 92.90053111 0 3727.70692951 0 65.22710743 0 290.77680127 0 20955
0.13950000 0.13949800 11612.81594070 0 217.68581338 0 3481.22725973 0 286.66418544 0 -295.62143610 0 20506
0.14050000 0.14048300 11362.93127345 0 249.35450803 0 3353.46776208 0 113.19897429 0 367.10530955 0 21447
0.14150000 0.14148400 11056.04894509 0 258.20861055 0 3176.39680280 0 165.37418298 0 -427.47913102 0 21771
0.14250000 0.14249400 10688.68631977 0 236.64954193 0 3323.08897364 0 80.15230934 0 408.11501027 0 22470
0.14350000 0.14350900 10463.35756257 0 148.72185988 0 3181.52093579 0 -8.25178398 0 392.81692232 0 22519
0.14450000 0.14449900 10269.45016633 0 34.42075335 0 3143.94396053 0 184.95901855 0 279.03566018 0 22218
0.14550000 0.14550500 10290.87835883 0 -19.83771486 0 2792.47502044 0 267.56292606 0 -97.38669845 0 23559
0.14650000 0.14650700 10275.06231198 0 122.81504205 0 2921.58764412 0 -309.59967161 0 -318.58686850 0 23044
0.14750000 0.14750500 10163.73996822 0 93.04183296 0 2956.60255288 0 -120.83304515 0 247.17397871 0 23649
0.14850000 0.14849900 10079.51341859 0 -33.09724081 0 2938.67917861 0 275.84583194 0 -575.70188703 0 23640
0.14950000 0.14949500 10164.23907208 0 -12.19521469 0 2634.09272802 0 183.99075705 0 56.70529717 0 24457
0.15050000 0.15050000 10014.11972138 0 159.02114536 0 2511.71246089 0 257.34682455 0 -533.84481887 0 24591
0.15150000 0.15149900 9974.14704758 0 187.36580829 0 2653.36922832 0 52.72178287 0 734.84503557 0 25020
0.15250000 0.15250500 9601.02809105 0 106.09561721 0 2565.61567806 0 115.71223952 0 209.12119110 0 25297
0.15350000 0.15350100 9478.09326407 0 170.40736815 0 2562.26613658 0 150.16149724 0 369.32465806 0 25452
0.15450000 0.15450400 9164.16802565 0 263.94941409 0 2541.03758563 0 -126.20118448 0 648.09856599 0 26061
0.15550000 0.15549900 9174.48283881 0 -3.58362119 0 2628.66913271 0 271.48033682 0 589.67790431 0 26128
0.15650000 0.15649500 8901.15138122 0 10.26342765 0 2336.73773784 0 427.15415895 0 542.40056820 0 26331
0.15750000 0.15749700 9099.30670590 0 50.92212525 0 2108.09271275 0 176.11046162 0 662.25426066 0 27345
0.15850000 0.15849900 8833.00706717 0 35.30394536 0 1849.29072316 0 261.73672030 0 980.57937691 0 26980
0.15950000 0.15949700 8803.39357132 0 188.62576826 0 2021.17100227 0 -339.97956917 0 644.02255112 0 27777
0.16050000 0.16050000 8614.98740876 0 207.67157166 0 2137.41783748 0 -108.29233968 0 985.85545930 0 28224
0.16150000 0.16150500 8438.89247481 0 97.23541453 0 2231.13845170 0 -38.19974597 0 682.33043625 0 28075
0.16250000 0.16249700 8329.62200248 0 -34.21933721 0 2207.45874621 0 271.43042644 0 1067.31919176 0 28590
0.16350000 0.16349900 8408.36950081 0 54.44036384 0 2133.02572349 0 127.32472273 0 1203.55014564 0 29163
0.16450000 0.16449100 8439.83522655 0 -6.73675975 0 2442.83612785 0 92.39920901 0 852.09007850 0 28996
0.16550000 0.16550500 8390.24648500 0 96.56750265 0 2092.88668174 0 -95.71325866 0 1222.49391003 0 30777
0.16650000 0.16650700 8292.13375679 0 36.28529446 0 2379.15047497 0 -283.28137037 0 677.75309927 0 29211
0.16750000 0.16749900 8389.18173009 0 27.00662092 0 2289.95506911 0 -119.25920431 0 758.14653123 0 30922
0.16850000 0.16850800 8295.62748383 0 126.75463520 0 2492.77978770 0 -102.89491959 0 47.25848108 0 30867
0.16950000 0.16949900 8180.21248839 0 80.34573981 0 2296.01086265 0 -56.71572289 0 312.86491999 0 30852
0.17050000 0.17049200 8146.39542889 0 55.98470210 0 2326.53383665 0 59.64834628 0 -400.19256829 0 31257
0.17150000 0.17149500 8130.21337255 0 -11.20499263 0 2162.38412181 0 236.08943648 0 3.91156570 0 32608
0.17250000 0.17250900 8074.77957020 0 -38.57939764 0 1946.32760526 0 393.46353910 0 226.91147100 0 32361
0.17350000 0.17350400 8110.57086275 0 -3.63276628 0 1722.90653394 0 126.25996782 0 -325.86158458 0 32508
0.17450000 0.17449800 8076.72052967 0 88.82030158 0 1684.85263721 0 -42.18947134 0 32.25841359 0 32791
0.17550000 0.17549800 7905.38371921 0 228.45425650 0 1707.63395574 0 -326.50709224 0 -481.54427966 0 33633
0.17650000 0.17650100 7701.64952247 0 193.28961658 0 2088.92712443 0 -254.46311334 0 -178.38526612 0 33984
0.17750000 0.17750300 7518.78895838 0 92.90751856 0 2139.96881278 0 34.53255261 0 -327.46758990 0 34069
0.17850000 0.17849800 7423.75958293 0 -7.94932704 0 2069.00733471 0 255.02321879 0 -81.87455040 0 34536
