### header ###
fiducial parameters:
Omega_m = 0.31
Omega_nu = 0
Omega_de = 0.69
Omega_k = 0
H_0 = 100
w_de = -1
zeff = 0
beta = 0
fgrowth = 0
b_1 = 2
gamma = 0.55
Lx = 3500 Ly = 3500 Lz = 3500
nx = 700 ny = 700 nz = 700
xoffset = 1379.75464 yoffset = 22.6059522 zoffset = 368.141391
bins = 400 dk = 0.001
kx_ny = 0.628318531 ky_ny = 0.628318531 kz_ny = 0.628318531
############################
A(data) = 3.32744058 (not used)
A(ran) = 3.32625991 (used)
Ngal = 186777
weighted Ngal = 0
Nran = 9399747
weighted Nran = 0
SN(data) = 6642.67283
SN(ran) = 132.303261
SN(data+ran) = 6774.97609
############################
13 columns: k_central k_mean P_0(k) sigma^{lin}_{P_0(k)} P^img_1(k) sigma^{lin}_{P_1(k)} P_2(k) sigma^{lin}_{P_2(k)} P^img_3(k) sigma^{lin}_{P_3(k)} P_4(k) sigma^{lin}_{P_4(k)} N_modes
### header ###
0.00050000 0 0 0 0 0 0 0 0 0 0 0 0
0.00150000 0.00179520 23964.19468618 0 -33616.86339022 0 -45979.77698052 0 35587.43635201 0 15370.18073085 0 3
0.00250000 0.00253879 36044.06093036 0 -23216.64801187 0 -10694.80866049 0 -51126.20327647 0 -486.64401202 0 6
0.00350000 0.00331552 59111.31051934 0 -13981.56287293 0 -54329.78460299 0 -5985.33115952 0 -20672.21651998 0 7
0.00450000 0.00420575 65411.55403381 0 -4873.60503341 0 -21810.17332686 0 -41825.34733963 0 -4870.64368383 0 24
0.00550000 0.00557378 69536.48109082 0 3519.80244272 0 -20207.71719178 0 -25345.71417805 0 -1995.74997886 0 45
0.00650000 0.00659388 58931.18948090 0 -3360.77686087 0 13248.87840253 0 2971.06547370 0 10613.65437242 0 40
0.00750000 0.00754703 64484.44088091 0 -2888.24750609 0 -15330.14150986 0 2802.87856318 0 -11122.14138771 0 57
0.00850000 0.00846663 73648.09871150 0 -7606.15431674 0 -7344.80135186 0 9983.67438576 0 -2138.22749486 0 75
0.00950000 0.00948925 74888.53817819 0 586.13537600 0 -14686.96299884 0 -9389.19732053 0 -13684.98426653 0 112
0.01050000 0.01054430 77865.74817500 0 -2058.39305923 0 -11414.50533926 0 -4610.42202103 0 11499.57481986 0 105
0.01150000 0.01145670 70563.74775216 0 1208.21953955 0 -11105.50459229 0 -4441.25908517 0 -300.73669613 0 144
0.01250000 0.01249090 81099.05390934 0 -2536.93384275 0 -8948.03387072 0 2523.23621452 0 2060.00128278 0 169
0.01350000 0.01339930 78266.69494467 0 -4544.80649988 0 4449.12274381 0 -6227.06379700 0 -6147.47336770 0 180
0.01450000 0.01448870 77356.99497098 0 10147.71318863 0 12953.85256371 0 -30878.66868764 0 -22359.18757580 0 267
0.01550000 0.01550050 65600.54802980 0 16372.60311103 0 28341.55738573 0 -21710.01981842 0 -16560.82072324 0 238
0.01650000 0.01653350 53418.19912582 0 4592.80920027 0 47948.02079095 0 -2045.08362289 0 -693.29075708 0 315
0.01750000 0.01747870 55360.60044736 0 -4375.61029044 0 53274.67903731 0 20959.47852093 0 287.33187550 0 297
0.01850000 0.01844180 57560.65027401 0 -2927.06669541 0 36593.18609127 0 20098.91254972 0 -17141.77761939 0 388
0.01950000 0.01947590 64021.05067241 0 -947.67290468 0 30105.50134838 0 7262.02774903 0 9391.52647189 0 399
0.02050000 0.02045430 62988.68206047 0 -1906.94276490 0 19570.30610317 0 9903.51830542 0 19241.23028972 0 462
0.02150000 0.02154770 63982.89695491 0 1429.92147535 0 30009.56249478 0 3.26514856 0 9666.78779775 0 571
0.02250000 0.02255340 66226.42427359 0 2390.49676945 0 19572.52434256 0 -5226.82638262 0 772.62608885 0 510
0.02350000 0.02348930 59509.70631372 0 3007.86606518 0 39631.73040721 0 -5969.91439576 0 3579.29562315 0 555
0.02450000 0.02439640 60157.65403943 0 2023.10087054 0 29301.50048160 0 -4621.33575883 0 1211.91290814 0 592
0.02550000 0.02547300 58633.39084284 0 868.34200939 0 44005.43301177 0 1012.87250594 0 -3180.57818405 0 837
0.02650000 0.02652900 60402.54766805 0 1872.37150401 0 39534.34969800 0 1593.12843845 0 -8294.07471626 0 723
0.02750000 0.02749970 54657.64038478 0 1829.16020070 0 45200.62039491 0 1781.45696263 0 1155.79145158 0 826
0.02850000 0.02848090 55263.33065012 0 2110.54386728 0 44159.71156132 0 906.20070106 0 -2927.59907286 0 831
0.02950000 0.02946900 54506.24554644 0 -750.08655841 0 39355.67051516 0 7176.84735647 0 3306.37453984 0 996
0.03050000 0.03053250 55214.64029552 0 -111.74713661 0 37182.68320907 0 11106.94644789 0 3066.19466993 0 1041
0.03150000 0.03150510 54738.27338659 0 -994.23153123 0 31103.04360190 0 5667.31326942 0 5139.74939538 0 1036
0.03250000 0.03246190 55143.98937096 0 138.43699295 0 23227.07373700 0 6575.68229948 0 1711.07222679 0 1059
0.03350000 0.03345080 56614.23843842 0 -181.94332210 0 19919.01333522 0 4505.76548662 0 2398.60443442 0 1302
0.03450000 0.03451200 51781.80392808 0 2511.35754259 0 17511.77994958 0 -3601.33383148 0 -838.50447136 0 1339
0.03550000 0.03553350 50475.92639939 0 3170.51846842 0 17134.79016531 0 -2333.76529706 0 -1088.56216128 0 1365
0.03650000 0.03647120 45299.66478366 0 409.09103560 0 17171.28020327 0 1239.68526530 0 -8064.68658098 0 1308
0.03750000 0.03744890 47277.55793543 0 390.02526804 0 17827.21359079 0 115.30741083 0 -4947.31712833 0 1579
0.03850000 0.03847530 45153.15007197 0 -25.16404037 0 14721.12388544 0 5345.71292271 0 -10130.74365729 0 1662
0.03950000 0.03950240 44662.58643095 0 301.45984217 0 14229.34021275 0 1105.97977697 0 -6252.35172605 0 1683
0.04050000 0.04050350 45263.17474570 0 0.77223235 0 11027.65548091 0 -624.24916520 0 -9169.07033470 0 1822
0.04150000 0.04152450 45098.35955905 0 511.15001168 0 10774.51000176 0 3204.34661911 0 -1371.34886427 0 1887
0.04250000 0.04250150 43837.51228997 0 546.69618877 0 9632.80437030 0 1389.58279205 0 -3748.21455267 0 1920
0.04350000 0.04349210 42568.67935910 0 12.44887037 0 7997.74011620 0 4024.42972147 0 2862.34956122 0 2005
0.04450000 0.04448520 44537.47772937 0 290.84556669 0 7539.41858471 0 2007.29591489 0 2936.26129768 0 2151
0.04550000 0.04548030 42426.82295013 0 812.73074789 0 5438.77915630 0 -566.99973391 0 1296.45001128 0 2274
0.04650000 0.04648670 41023.89744815 0 1944.71938170 0 9681.07325942 0 -3570.98831663 0 3879.55650693 0 2311
0.04750000 0.04749250 38212.61175768 0 2163.10504961 0 11857.59865734 0 -3827.77170838 0 -8.38913737 0 2568
0.04850000 0.04851840 36168.06051225 0 1031.96932885 0 14016.05649544 0 1086.00453126 0 1930.97738869 0 2493
0.04950000 0.04949480 35642.67051281 0 -21.39536256 0 14617.64301791 0 275.40883878 0 -2413.64409748 0 2644
0.05050000 0.05050630 37465.39781928 0 -143.02098465 0 11846.39654843 0 3545.85566435 0 2459.51728806 0 2829
0.05150000 0.05149060 36157.41296318 0 -944.29008962 0 14157.80199244 0 3437.16193425 0 870.96285923 0 2784
0.05250000 0.05249300 36537.61919456 0 171.30797334 0 6808.30906427 0 1906.24401949 0 3966.00129594 0 3055
0.05350000 0.05348950 36998.90207564 0 14.63017607 0 9234.59712627 0 774.61584958 0 3952.64749482 0 3009
0.05450000 0.05448610 35204.56823335 0 1472.16784453 0 7548.41354543 0 -817.09735213 0 5864.69221031 0 3336
0.05550000 0.05550870 34671.19257211 0 741.66279433 0 9967.29268787 0 1297.70331653 0 7606.36504948 0 3349
0.05650000 0.05647670 33130.84713994 0 310.66442652 0 8214.67283731 0 -186.14466750 0 4500.95190715 0 3324
0.05750000 0.05747970 33049.99231419 0 688.66350971 0 10674.95541795 0 642.94115941 0 6269.73163166 0 3639
0.05850000 0.05849280 32191.97731828 0 710.29910760 0 9458.76130779 0 -316.21002499 0 5131.95228393 0 3846
0.05950000 0.05951020 31349.71182203 0 667.99617332 0 12177.46877733 0 -790.65261125 0 3854.43494584 0 3787
0.06050000 0.06049470 31006.66110042 0 1030.92564722 0 12443.43568015 0 -2173.67496031 0 2801.68071391 0 3930
0.06150000 0.06148310 29890.11030364 0 527.34205010 0 14578.26926874 0 -1120.31071254 0 1713.87829962 0 4083
0.06250000 0.06249100 29654.20054455 0 -3.60716780 0 14869.41318863 0 631.36305892 0 3698.13779845 0 4303
0.06350000 0.06350600 29661.40982257 0 -422.04555363 0 13107.57655341 0 2695.57123271 0 1321.77121391 0 4470
0.06450000 0.06451750 31165.04339284 0 -407.13787581 0 13417.13186023 0 2233.23468792 0 3037.12464273 0 4479
0.06550000 0.06550280 30703.20595192 0 -233.29112749 0 8657.57760504 0 2271.96514766 0 3168.18931706 0 4636
0.06650000 0.06648880 30400.30536326 0 563.81766950 0 11015.51062025 0 102.11720486 0 5912.46199557 0 4653
0.06750000 0.06749660 30433.35713017 0 409.93840304 0 7593.68781137 0 761.69571426 0 4693.85000447 0 5220
0.06850000 0.06852730 29032.87169151 0 397.95880122 0 10191.17958947 0 328.48021618 0 6562.93851419 0 5029
0.06950000 0.06949320 29561.92178595 0 394.01144423 0 9445.26332111 0 -1390.54772619 0 4830.44918609 0 5040
0.07050000 0.07048030 28658.76561845 0 433.51163304 0 10758.23921584 0 245.67555800 0 3334.74582163 0 5475
0.07150000 0.07148790 28473.98627729 0 614.00200834 0 11120.14497226 0 -999.31573592 0 2319.30237624 0 5509
0.07250000 0.07249820 27817.83106584 0 229.38148056 0 10944.09440310 0 -1439.77045824 0 2283.03416222 0 5916
0.07350000 0.07351270 28151.89791792 0 -5.35638265 0 11617.91789129 0 183.81551614 0 223.10940869 0 5721
0.07450000 0.07449140 28147.68326308 0 82.32130381 0 11805.47003169 0 1197.81599682 0 -226.13175986 0 6028
0.07550000 0.07549160 27038.56356825 0 491.43429998 0 11415.72537093 0 -190.98930233 0 -577.09050489 0 6183
0.07650000 0.07648840 27335.91855844 0 608.59615894 0 11293.94402844 0 60.34354250 0 -982.02123251 0 6330
0.07750000 0.07749960 26268.94541202 0 66.54463071 0 11006.72639226 0 1261.10236660 0 -1056.66276974 0 6583
0.07850000 0.07848650 25688.21033981 0 621.84903018 0 10302.09155895 0 -198.11983285 0 -2399.08135589 0 6549
0.07950000 0.07947320 25282.82709135 0 723.33791873 0 9507.74003352 0 238.23336485 0 -1246.59508100 0 6828
0.08050000 0.08048110 23585.43031040 0 852.32188452 0 9889.48794128 0 -616.21581125 0 -3628.88436470 0 7147
0.08150000 0.08149960 22742.38843036 0 658.90028270 0 10229.99877878 0 733.98214044 0 -1354.53460970 0 7386
0.08250000 0.08250610 22218.55119850 0 31.82541326 0 8389.89156670 0 758.66559925 0 -3757.77516444 0 7227
0.08350000 0.08350160 21904.44850092 0 -61.87235309 0 9012.44045140 0 1370.38393013 0 -1841.01669024 0 7798
0.08450000 0.08449610 21811.83700641 0 541.39126927 0 8750.03382280 0 -25.50997480 0 -2059.29144618 0 7371
0.08550000 0.08548940 21165.66387220 0 586.06661058 0 8287.36454211 0 -778.60646224 0 -1360.77895358 0 8256
0.08650000 0.08650700 20447.39795783 0 359.82837523 0 9565.80244954 0 378.37840213 0 -677.87621156 0 8037
0.08750000 0.08749060 20734.54904682 0 10.15735144 0 9237.04828080 0 -318.93069561 0 -1001.00714345 0 8155
0.08850000 0.08849210 20302.54692569 0 287.21098145 0 10808.83725631 0 842.12241981 0 1147.49523626 0 8718
0.08950000 0.08949900 20154.59035840 0 244.41005243 0 10219.34013852 0 16.29906848 0 1201.78664532 0 8571
0.09050000 0.09049190 19790.46636259 0 34.63891719 0 10415.67650689 0 622.95482251 0 1171.87368716 0 8932
0.09150000 0.09150830 19634.96778138 0 542.45158770 0 10732.87364842 0 -103.50726458 0 1787.52384736 0 9285
0.09250000 0.09250820 19144.29322839 0 503.53035937 0 10882.47171285 0 -85.59464877 0 2227.18998558 0 9204
0.09350000 0.09350330 18823.09216477 0 130.44245819 0 10830.63145832 0 473.92462736 0 3043.79045209 0 9349
0.09450000 0.09448040 18430.90744068 0 -92.42083684 0 9731.23874322 0 1677.25516730 0 608.78692753 0 9564
0.09550000 0.09549270 18788.70945423 0 -239.32806599 0 8645.80984508 0 615.55366679 0 1257.91919308 0 10155
0.09650000 0.09649430 18520.85704793 0 205.00302967 0 7583.42845420 0 792.29743576 0 173.97651533 0 9913
0.09750000 0.09749140 18125.12314082 0 292.04896156 0 7474.33544101 0 149.82210662 0 1540.97763040 0 10476
0.09850000 0.09850240 17926.81253938 0 189.21471082 0 6946.43883107 0 351.37577404 0 -288.42657664 0 10575
0.09950000 0.09950330 17454.32754939 0 129.25348188 0 5983.85603032 0 172.91065130 0 -1028.27706939 0 10882
0.10050000 0.10051200 17222.18879726 0 419.75965794 0 6872.48272981 0 -203.36375076 0 -366.03611816 0 10875
0.10150000 0.10150300 16888.78741700 0 -33.12064324 0 5335.46465673 0 580.65521559 0 -969.01125849 0 11118
0.10250000 0.10250800 17062.03191333 0 -283.29246157 0 5681.89819341 0 1331.42055526 0 336.27178203 0 11575
0.10350000 0.10349800 16935.03770827 0 247.35809258 0 4843.84735200 0 478.42099860 0 -968.91254684 0 11364
0.10450000 0.10450100 16764.89874709 0 349.84740710 0 4410.17046013 0 263.40705456 0 1381.12020878 0 12093
0.10550000 0.10551000 16054.28575861 0 295.35413825 0 4612.27425092 0 248.78885698 0 777.12689657 0 12067
0.10650000 0.10649700 15802.84832380 0 375.14975470 0 5378.52068328 0 -118.50722115 0 2146.84535489 0 12054
0.10750000 0.10749900 15562.05843805 0 124.72494616 0 4531.24196601 0 319.77695393 0 831.12882539 0 12807
0.10850000 0.10850100 15290.98958464 0 190.62772931 0 5770.00666196 0 -394.29316063 0 2211.67340105 0 12736
0.10950000 0.10950300 15119.51967982 0 176.35114060 0 4459.88120485 0 -105.04539177 0 1312.38806129 0 12933
0.11050000 0.11050200 15067.16923022 0 -46.88892239 0 4440.17214787 0 767.27236808 0 1158.45333885 0 13428
0.11150000 0.11150900 15049.97787495 0 -21.67108972 0 4081.82666567 0 805.37062960 0 2021.38173501 0 13453
0.11250000 0.11250000 14831.37038310 0 -14.09757679 0 3669.72215186 0 842.66256110 0 984.81288679 0 13668
0.11350000 0.11349100 14889.59916708 0 169.63320260 0 3257.49563489 0 186.05593793 0 2008.57140254 0 13791
0.11450000 0.11448600 14312.63510183 0 270.56087659 0 2854.25298744 0 -233.83126878 0 854.88062366 0 14205
0.11550000 0.11549300 14306.86767942 0 359.48676637 0 3512.90371821 0 -641.38173712 0 1604.57455370 0 14776
0.11650000 0.11649800 13566.30845919 0 173.92660494 0 3208.73873311 0 -184.63737384 0 401.14641122 0 14553
0.11750000 0.11747300 13854.01410802 0 27.05719678 0 3833.49476600 0 -37.86201902 0 497.65091587 0 14568
0.11850000 0.11849100 13729.01631842 0 -84.23764082 0 2854.99609764 0 75.50365596 0 -647.74697505 0 16015
0.11950000 0.11950300 13745.87493778 0 102.58713888 0 3728.09512140 0 58.80718990 0 -695.54670654 0 15270
0.12050000 0.12050700 13783.03044756 0 118.23215947 0 3192.36812641 0 -456.44601009 0 -1060.62565441 0 15999
0.12150000 0.12150000 13571.29949781 0 194.56510422 0 3482.62475054 0 -65.03955529 0 -1385.77851150 0 15670
0.12250000 0.12250700 13436.20871899 0 27.75705131 0 3472.27666379 0 218.64076544 0 -858.69155893 0 16887
0.12350000 0.12352200 13284.03749686 0 118.17448524 0 3313.57272666 0 38.56741915 0 -1345.43982820 0 16407
0.12450000 0.12449800 13219.37581865 0 157.35413846 0 3608.03291444 0 257.71616141 0 -510.26493416 0 16306
0.12550000 0.12549900 13082.95409618 0 125.36490823 0 3163.26482562 0 309.93462576 0 -655.39990094 0 17523
0.12650000 0.12650100 12819.20543276 0 212.99756443 0 4136.28444269 0 225.65483839 0 551.31567230 0 17154
0.12750000 0.12750600 12551.35302646 0 139.04700878 0 2712.42985207 0 -23.49780985 0 262.10162068 0 18007
0.12850000 0.12850300 12358.03346365 0 56.03705255 0 3906.99612818 0 440.37153835 0 597.28202894 0 17496
0.12950000 0.12949900 12437.33552183 0 406.22174295 0 3896.34857911 0 -572.10944834 0 888.00559246 0 18405
0.13050000 0.13049000 11774.30376826 0 210.77045209 0 3645.15515062 0 7.70794932 0 776.64553862 0 18100
0.13150000 0.13148800 11691.78526297 0 50.17202760 0 4093.45024007 0 128.66232108 0 840.32342766 0 19059
0.13250000 0.13249300 11936.12433174 0 -176.75153281 0 3876.89461966 0 274.54483454 0 583.72969538 0 18957
0.13350000 0.13349100 12231.15017056 0 -181.08819081 0 3448.41949916 0 500.35716793 0 571.00920161 0 19468
0.13450000 0.13450700 12290.59898620 0 49.24491445 0 3598.39466429 0 -266.56139097 0 232.83638841 0 19953
0.13550000 0.13551000 12011.10082311 0 181.66604217 0 3414.99063155 0 -506.61371212 0 178.65367308 0 19956
0.13650000 0.13649900 11985.59107013 0 66.10486476 0 3770.09748425 0 -69.12200306 0 -297.42153736 0 19723
0.13750000 0.13749600 12095.50483188 0 56.83462052 0 3858.40559435 0 73.20755637 0 -440.71425634 0 20946
0.13850000 0.13851100 11948.10282444 0 -6.41218697 0 3737.17881170 0 450.63755025 0 -416.79165364 0 20955
0.13950000 0.13949800 11741.25200136 0 174.52331134 0 3494.99143514 0 -51.13962362 0 -127.51992779 0 20506
0.14050000 0.14048300 11566.01108958 0 177.97821919 0 3585.90597653 0 76.56042521 0 -15.03433929 0 21447
0.14150000 0.14148400 11596.62279315 0 48.99569525 0 3664.19873578 0 182.55333793 0 -35.43981252 0 21771
0.14250000 0.14249400 11328.65947488 0 263.90948578 0 3552.11109943 0 -140.39015273 0 -299.27376725 0 22470
0.14350000 0.14350900 10958.23567921 0 361.07613489 0 3762.11182244 0 -522.58503573 0 -130.80624945 0 22519
0.14450000 0.14449900 10685.91352054 0 190.71645888 0 4041.56562075 0 120.20417429 0 297.02447251 0 22218
0.14550000 0.14550500 10418.37166775 0 76.84247434 0 3946.52515410 0 399.47053136 0 -171.26249944 0 23559
0.14650000 0.14650700 10503.38569236 0 -5.29222008 0 3562.30390942 0 405.16807924 0 7.49566381 0 23044
0.14750000 0.14750500 10277.39146334 0 85.74914914 0 3705.16961731 0 366.29010657 0 530.94557999 0 23649
0.14850000 0.14849900 10345.59123338 0 80.97472159 0 3374.06411482 0 100.60414377 0 806.79473929 0 23640
0.14950000 0.14949500 9970.77532371 0 151.46914936 0 3233.22809597 0 209.33414208 0 742.31273847 0 24457
0.15050000 0.15050000 9947.13998301 0 214.56696880 0 3511.73914253 0 -150.97115462 0 643.05318050 0 24591
0.15150000 0.15149900 9728.64340313 0 122.21057181 0 3255.39939867 0 166.34244447 0 1102.89864245 0 25020
0.15250000 0.15250500 9368.61205900 0 143.16517021 0 3364.88060374 0 226.72070242 0 861.00629173 0 25297
0.15350000 0.15350100 9453.37098608 0 5.81051171 0 3034.68457940 0 11.70764567 0 595.47970943 0 25452
0.15450000 0.15450400 9212.88056265 0 -10.30533019 0 2881.92552383 0 354.17851951 0 689.97005271 0 26061
0.15550000 0.15549900 9417.57969352 0 73.86870262 0 2566.33660586 0 100.96571679 0 404.21312718 0 26128
0.15650000 0.15649500 9222.30808005 0 25.07298165 0 2197.98686402 0 12.02740488 0 -84.58745717 0 26331
0.15750000 0.15749700 9157.34693953 0 59.92995177 0 2230.88335417 0 76.72634951 0 -175.59915744 0 27345
0.15850000 0.15849900 8987.05270158 0 161.69301471 0 2251.82353400 0 -131.65805337 0 -178.66143692 0 26980
0.15950000 0.15949700 9015.42398338 0 112.44477290 0 2189.66846631 0 -58.94316797 0 -521.64450223 0 27777
0.16050000 0.16050000 8675.16824340 0 110.43726625 0 2407.21120325 0 -142.61504684 0 -559.39117280 0 28224
0.16150000 0.16150500 8581.29235243 0 252.81052500 0 2679.23389960 0 -356.44556016 0 -634.94773377 0 28075
0.16250000 0.16249700 8434.84418793 0 66.11018853 0 2657.15132648 0 134.43750733 0 -578.95271686 0 28590
0.16350000 0.16349900 8525.73654692 0 -118.24103243 0 2403.44019629 0 285.44415378 0 -216.71866101 0 29163
0.16450000 0.16449100 8591.95099270 0 -22.39578853 0 2514.80690484 0 327.20029205 0 -260.98030067 0 28996
0.16550000 0.16550500 8611.17203701 0 55.70265296 0 2288.83485822 0 87.10970627 0 -98.31891356 0 30777
0.16650000 0.16650700 8615.95234289 0 54.56403068 0 2733.72495021 0 25.68610301 0 77.02115353 0 29211
0.16750000 0.16749900 8455.01907518 0 71.48764446 0 2205.78397547 0 33.61908163 0 386.87647723 0 30922
0.16850000 0.16850800 8551.70103897 0 -42.71885417 0 2651.08444175 0 262.93678781 0 480.48839771 0 30867
0.16950000 0.16949900 8677.10920287 0 -12.37101016 0 2246.56630665 0 92.16219013 0 556.14145210 0 30852
0.17050000 0.17049200 8570.03478753 0 41.40421459 0 2135.98707308 0 118.40074566 0 566.27215139 0 31257
0.17150000 0.17149500 8660.31713069 0 36.87578979 0 2017.86582558 0 116.91674351 0 668.01281011 0 32608
0.17250000 0.17250900 8419.79343367 0 61.62280116 0 2088.74966527 0 78.32758562 0 595.90339316 0 32361
0.17350000 0.17350400 8413.23853627 0 124.13822184 0 2042.88756589 0 76.63584535 0 879.74597810 0 32508
0.17450000 0.17449800 8187.01139212 0 76.40925219 0 1852.96190935 0 185.67107339 0 723.22367940 0 32791
0.17550000 0.17549800 8199.21170876 0 -8.45002804 0 1527.92329159 0 431.61614748 0 1005.09424953 0 33633
0.17650000 0.17650100 8103.88287099 0 61.75722646 0 1375.27514799 0 221.01760895 0 818.39502218 0 33984
0.17750000 0.17750300 8122.57153785 0 125.04991823 0 1494.61642715 0 -179.47331254 0 717.61707935 0 34069
0.17850000 0.17849800 7783.87965664 0 225.12689742 0 1548.38654996 0 -498.25649522 0 698.00673402 0 34536
