### header ###
fiducial parameters:
Omega_m = 0.31
Omega_nu = 0
Omega_de = 0.69
Omega_k = 0
H_0 = 100
w_de = -1
zeff = 0
beta = 0
fgrowth = 0
b_1 = 2
gamma = 0.55
Lx = 3500 Ly = 3500 Lz = 3500
nx = 700 ny = 700 nz = 700
xoffset = 1379.75464 yoffset = 22.6059522 zoffset = 368.141391
bins = 400 dk = 0.001
kx_ny = 0.628318531 ky_ny = 0.628318531 kz_ny = 0.628318531
############################
A(data) = 3.35390562 (not used)
A(ran) = 3.35137188 (used)
Ngal = 187218
weighted Ngal = 0
Nran = 9399747
weighted Nran = 0
SN(data) = 6651.98816
SN(ran) = 133.302099
SN(data+ran) = 6785.29026
############################
13 columns: k_central k_mean P_0(k) sigma^{lin}_{P_0(k)} P^img_1(k) sigma^{lin}_{P_1(k)} P_2(k) sigma^{lin}_{P_2(k)} P^img_3(k) sigma^{lin}_{P_3(k)} P_4(k) sigma^{lin}_{P_4(k)} N_modes
### header ###
0.00050000 0 0 0 0 0 0 0 0 0 0 0 0
0.00150000 0.00179520 42019.33237425 0 -29827.77777679 0 -45171.67237087 0 70828.05097544 0 -70226.57536494 0 3
0.00250000 0.00253879 82527.71098824 0 -32307.65850245 0 -16499.70822805 0 -37495.01131513 0 88528.82492102 0 6
0.00350000 0.00331552 81318.88143286 0 -3866.73508326 0 -6137.00327778 0 -81017.20087586 0 -6352.98215596 0 7
0.00450000 0.00420575 73022.11155574 0 24468.40049944 0 -2248.82891083 0 -47186.38829652 0 22842.20920289 0 24
0.00550000 0.00557378 40977.75806884 0 8569.92387556 0 18315.44808045 0 2504.37008851 0 -4404.70250003 0 45
0.00650000 0.00659388 45589.14502400 0 -7820.15896186 0 21899.79019820 0 11875.23366049 0 -27620.51867213 0 40
0.00750000 0.00754703 56543.25477795 0 -9650.53919422 0 12119.23999335 0 1774.15895503 0 -31306.78888984 0 57
0.00850000 0.00846663 73228.29690701 0 -15161.22258034 0 411.89821754 0 -14596.45883174 0 -48577.66804170 0 75
0.00950000 0.00948925 88544.46350871 0 -10362.39439675 0 -11315.46095052 0 -7611.13426417 0 -43805.23690685 0 112
0.01050000 0.01054430 94339.28117825 0 -564.29791833 0 3915.21470512 0 -31562.33006753 0 -58431.30923444 0 105
0.01150000 0.01145670 112543.48455331 0 1621.93227692 0 22885.24304705 0 -26797.77368251 0 -42006.79932170 0 144
0.01250000 0.01249090 97343.66460759 0 1757.45561243 0 17610.82433833 0 255.85727680 0 -53371.72701060 0 169
0.01350000 0.01339930 114034.14142315 0 -4541.21295207 0 12456.30146861 0 3835.48009026 0 -13782.80862362 0 180
0.01450000 0.01448870 112480.26473070 0 147.53842916 0 19579.51179664 0 2614.51676541 0 -37395.96692638 0 267
0.01550000 0.01550050 110043.41784921 0 7573.87893362 0 38635.07544944 0 -9260.97199261 0 -43724.60390504 0 238
0.01650000 0.01653350 93623.01167934 0 12801.12678173 0 35646.44151977 0 -14864.31123804 0 -15881.81764607 0 315
0.01750000 0.01747870 87001.34527731 0 8974.12036594 0 62194.33053504 0 2227.41180952 0 -4612.21879493 0 297
0.01850000 0.01844180 81952.29969057 0 -601.51110233 0 56548.35672854 0 14603.33537385 0 7459.34014274 0 388
0.01950000 0.01947590 81017.42269980 0 1456.92853992 0 55438.12791403 0 23455.33057019 0 -2698.78767982 0 399
0.02050000 0.02045430 79229.52175175 0 1332.23021263 0 42437.02685132 0 15176.52843213 0 22528.55015320 0 462
0.02150000 0.02154770 76777.25810650 0 2954.17358075 0 35859.83614905 0 11400.64134308 0 26907.35470836 0 571
0.02250000 0.02255340 72986.50881353 0 6455.57572773 0 48441.57905515 0 -3036.73645083 0 40216.56922229 0 510
0.02350000 0.02348930 60006.81376094 0 5594.08918717 0 36516.65683233 0 4568.28656382 0 20303.87786932 0 555
0.02450000 0.02439640 60391.01282322 0 3494.20396016 0 43025.85849730 0 -533.29469550 0 28779.54875322 0 592
0.02550000 0.02547300 57267.06629079 0 -1413.87251337 0 34488.29873444 0 13214.93933987 0 27718.12120527 0 837
0.02650000 0.02652900 58131.51418093 0 -3245.78333091 0 23799.93405937 0 18742.34825098 0 19742.33056784 0 723
0.02750000 0.02749970 60193.92225345 0 -2922.12002157 0 6882.36498630 0 8854.26889172 0 20140.83727419 0 826
0.02850000 0.02848090 61933.79831872 0 -713.76954312 0 6213.12216244 0 3460.74181897 0 14867.08403728 0 831
0.02950000 0.02946900 60639.67745880 0 3085.78172374 0 3606.35814370 0 -6264.34130995 0 15129.83449298 0 996
0.03050000 0.03053250 54989.48899747 0 3374.13066200 0 6378.52518253 0 -8142.85733707 0 1855.20233114 0 1041
0.03150000 0.03150510 51380.30259855 0 2415.98434003 0 8386.43111325 0 -7227.52303532 0 -406.57777037 0 1036
0.03250000 0.03246190 52211.92054573 0 451.11003524 0 13762.95538108 0 5227.45858085 0 -1578.45478488 0 1059
0.03350000 0.03345080 52025.36661306 0 -1166.50554783 0 10971.83348667 0 1157.32203676 0 -11768.86908176 0 1302
0.03450000 0.03451200 54011.57816255 0 -1247.78183907 0 11456.20823979 0 -892.02393312 0 -8527.74405356 0 1339
0.03550000 0.03553350 53106.64740354 0 1219.39946608 0 9890.69688174 0 -4963.05553680 0 -14226.23467761 0 1365
0.03650000 0.03647120 51377.86253522 0 2094.17326058 0 10370.70170327 0 -1702.54309634 0 -4978.81612766 0 1308
0.03750000 0.03744890 50509.42181418 0 1002.79060792 0 13590.15453263 0 -2791.92046059 0 -13375.42895971 0 1579
0.03850000 0.03847530 49785.49938936 0 2133.23645623 0 18389.98092394 0 -1091.73978920 0 -9632.50490799 0 1662
0.03950000 0.03950240 48976.84021987 0 626.21341618 0 17265.00081748 0 4657.19359856 0 -10194.75095488 0 1683
0.04050000 0.04050350 48480.06550856 0 -1662.85879366 0 14734.10058587 0 5854.03357004 0 -4500.53044167 0 1822
0.04150000 0.04152450 47695.25241250 0 119.30245997 0 9315.98432948 0 3458.04665811 0 1508.55806172 0 1887
0.04250000 0.04250150 47717.10207049 0 1517.18701294 0 10072.06013424 0 -697.05621844 0 -2367.40489740 0 1920
0.04350000 0.04349210 45382.29420092 0 1194.96555920 0 7681.21953769 0 -574.77244473 0 -673.81128788 0 2005
0.04450000 0.04448520 44617.66708331 0 1849.91183019 0 14071.06883230 0 -1472.50058044 0 -3080.96814426 0 2151
0.04550000 0.04548030 40801.40803737 0 2204.89667972 0 14228.45291700 0 -6673.19610305 0 -6105.02735698 0 2274
0.04650000 0.04648670 40755.49048200 0 1300.76448689 0 18460.74276047 0 -2087.07489453 0 -8044.01258986 0 2311
0.04750000 0.04749250 37817.54332239 0 906.30384919 0 16149.78096434 0 -1644.05921483 0 -14854.21824882 0 2568
0.04850000 0.04851840 37985.57495615 0 743.79119502 0 18291.93474292 0 204.61594690 0 -13186.21313977 0 2493
0.04950000 0.04949480 36499.90912494 0 1189.33123115 0 17396.65332526 0 179.02190082 0 -18096.39694072 0 2644
0.05050000 0.05050630 35082.34324298 0 1244.07737929 0 18805.45716162 0 2775.80495143 0 -11116.59578923 0 2829
0.05150000 0.05149060 33014.27866002 0 -33.26139053 0 15687.61078750 0 1815.31838691 0 -10156.59723738 0 2784
0.05250000 0.05249300 34112.63989380 0 -527.91324674 0 12237.69397676 0 5074.14496543 0 -6240.81688122 0 3055
0.05350000 0.05348950 34868.50496582 0 -1706.95739273 0 11760.32886011 0 7373.32791041 0 -2881.93661503 0 3009
0.05450000 0.05448610 34886.47270488 0 -777.91326243 0 3468.02873536 0 3130.01341717 0 -762.04952344 0 3336
0.05550000 0.05550870 35139.46290727 0 989.43015208 0 4694.58202347 0 1911.01323418 0 4387.08967928 0 3349
0.05650000 0.05647670 34440.93932347 0 426.36557484 0 1439.43772233 0 -2140.52337263 0 1302.57235199 0 3324
0.05750000 0.05747970 34059.29123648 0 1249.74498093 0 5555.39200102 0 -265.65080371 0 4777.86582136 0 3639
0.05850000 0.05849280 32045.57351856 0 1294.67541977 0 3783.30709981 0 -1691.11916348 0 -480.14124325 0 3846
0.05950000 0.05951020 29693.57429372 0 1665.74250487 0 9288.88853533 0 -2725.25127574 0 2645.30592814 0 3787
0.06050000 0.06049470 29075.24006386 0 818.30629260 0 8740.46211983 0 -1271.07335266 0 210.64844892 0 3930
0.06150000 0.06148310 28516.79829751 0 -276.89395005 0 9546.00466299 0 1731.16947566 0 -274.18880712 0 4083
0.06250000 0.06249100 28169.42200910 0 202.95670384 0 7606.97506532 0 897.02828118 0 -1502.96809845 0 4303
0.06350000 0.06350600 28764.57563734 0 -152.42964702 0 7538.50910656 0 -158.85255917 0 -1808.69694233 0 4470
0.06450000 0.06451750 28395.68242684 0 198.90398047 0 7548.12517431 0 320.92267458 0 375.95053912 0 4479
0.06550000 0.06550280 27915.43359898 0 370.38941297 0 7155.95154142 0 215.60732307 0 -2935.04126601 0 4636
0.06650000 0.06648880 28233.41821549 0 -462.55282313 0 6523.94186572 0 589.88087321 0 -900.87914476 0 4653
0.06750000 0.06749660 28578.90900042 0 -950.19504287 0 5395.16856990 0 3041.41693594 0 -184.76492260 0 5220
0.06850000 0.06852730 29777.64556659 0 -420.74122887 0 3714.24221641 0 1256.05587199 0 1206.77768395 0 5029
0.06950000 0.06949320 30416.38759884 0 -325.65972479 0 4694.38238193 0 -88.20784568 0 -700.92039146 0 5040
0.07050000 0.07048030 30305.58654132 0 912.79774500 0 5878.37874735 0 -2315.53136927 0 1157.34421915 0 5475
0.07150000 0.07148790 29041.41191316 0 1485.37746009 0 7364.47713524 0 -3269.55176597 0 -1698.99391332 0 5509
0.07250000 0.07249820 28387.36402913 0 966.43366432 0 10419.62497301 0 -2059.62418209 0 -724.45258402 0 5916
0.07350000 0.07351270 26396.71600086 0 766.94295953 0 13009.86310830 0 -228.52745840 0 -1925.28760465 0 5721
0.07450000 0.07449140 26157.47888269 0 967.62596799 0 12197.43293184 0 -554.12507249 0 -2472.41635011 0 6028
0.07550000 0.07549160 25362.01823756 0 149.51488046 0 13284.81388064 0 2096.66877990 0 -70.87862683 0 6183
0.07650000 0.07648840 25093.27853551 0 -199.60605324 0 11985.03651028 0 2032.30656400 0 -110.64223157 0 6330
0.07750000 0.07749960 25330.29741429 0 -70.79333553 0 10743.44355911 0 1331.59801441 0 1161.96924828 0 6583
0.07850000 0.07848650 24744.23856755 0 116.00948360 0 8987.95108854 0 1264.21899295 0 349.79749671 0 6549
0.07950000 0.07947320 24061.57539538 0 554.01970612 0 8094.49971837 0 334.39182415 0 2197.09956826 0 6828
0.08050000 0.08048110 24277.18826406 0 120.97057599 0 6295.25247584 0 941.10469785 0 739.70852543 0 7147
0.08150000 0.08149960 22807.05010857 0 444.29560383 0 6704.35127528 0 380.12859301 0 -10.67519942 0 7386
0.08250000 0.08250610 22094.99526449 0 1151.19969604 0 5820.95962074 0 -930.81428532 0 -646.42712261 0 7227
0.08350000 0.08350160 20862.31963567 0 458.10414403 0 6089.35549569 0 562.79838850 0 -94.07131786 0 7798
0.08450000 0.08449610 20177.88187199 0 -86.37580177 0 5303.89911022 0 1685.64011219 0 547.76870752 0 7371
0.08550000 0.08548940 21210.58321984 0 -339.02018064 0 4163.87934070 0 1865.84988021 0 -258.61676660 0 8256
0.08650000 0.08650700 20320.40375278 0 44.33761436 0 2650.99571217 0 368.80004444 0 1157.25548958 0 8037
0.08750000 0.08749060 20504.40671015 0 485.08237149 0 3693.31312777 0 -567.20492105 0 868.96644378 0 8155
0.08850000 0.08849210 20336.70781229 0 228.89901350 0 3940.40281339 0 -1329.77905811 0 664.68656015 0 8718
0.08950000 0.08949900 20193.40954772 0 128.58357358 0 4968.55677049 0 -206.85969604 0 406.95487107 0 8571
0.09050000 0.09049190 20146.38287266 0 85.80682337 0 5551.38807892 0 -348.27578449 0 42.35339923 0 8932
0.09150000 0.09150830 19964.15450680 0 357.74544845 0 6347.73601980 0 -1159.16317545 0 -1127.98582083 0 9285
0.09250000 0.09250820 19924.44802173 0 142.10707002 0 6319.39801160 0 400.00512706 0 -626.48071402 0 9204
0.09350000 0.09350330 19228.69723716 0 379.65610802 0 7765.66791125 0 -466.54676315 0 316.71911093 0 9349
0.09450000 0.09448040 19285.70598948 0 305.08000886 0 6209.79480336 0 -98.95654647 0 -854.23955247 0 9564
0.09550000 0.09549270 18966.94498919 0 174.05637195 0 7865.08940070 0 880.71645783 0 -144.95528940 0 10155
0.09650000 0.09649430 18582.52410296 0 193.02120961 0 7156.89429316 0 59.81959436 0 110.48007827 0 9913
0.09750000 0.09749140 18236.58967015 0 466.29721122 0 7166.04453064 0 509.76028470 0 928.97092839 0 10476
0.09850000 0.09850240 17636.99956312 0 266.22421859 0 6886.18035805 0 355.28985744 0 1146.06447186 0 10575
0.09950000 0.09950330 17217.97414242 0 263.51907565 0 7458.43066459 0 558.28094399 0 2855.67266065 0 10882
0.10050000 0.10051200 17230.72901891 0 156.67757545 0 6979.91206346 0 733.33996014 0 2300.32533826 0 10875
0.10150000 0.10150300 17029.86744218 0 -9.49286674 0 7066.81159154 0 -284.09213687 0 1604.61891848 0 11118
0.10250000 0.10250800 16790.07576416 0 200.03195520 0 7168.26277003 0 -269.72349122 0 2841.64229651 0 11575
0.10350000 0.10349800 16638.45910188 0 119.86034718 0 7091.54496074 0 363.13466104 0 1333.86061858 0 11364
0.10450000 0.10450100 16925.94292677 0 -276.17967697 0 6527.81269345 0 1008.74990804 0 1835.49327416 0 12093
0.10550000 0.10551000 17228.73260346 0 0.32224585 0 5671.30610032 0 591.48022381 0 1784.11884989 0 12067
0.10650000 0.10649700 16522.00153392 0 335.77600553 0 5564.83060962 0 275.04726576 0 1826.47613104 0 12054
0.10750000 0.10749900 16563.81534641 0 314.72380460 0 5189.50450489 0 39.87562583 0 1902.32882697 0 12807
0.10850000 0.10850100 15780.55501793 0 193.05448320 0 5044.14327769 0 369.02186838 0 1929.33589154 0 12736
0.10950000 0.10950300 15687.83261144 0 16.58333585 0 4619.12861063 0 518.40143624 0 2212.49414963 0 12933
0.11050000 0.11050200 15603.76133858 0 82.24055990 0 3853.31473495 0 335.38559540 0 971.49901397 0 13428
0.11150000 0.11150900 15508.59886876 0 129.34553881 0 4399.88892056 0 220.75142022 0 1878.64912148 0 13453
0.11250000 0.11250000 15302.85716537 0 231.92469203 0 3380.41937067 0 59.09766835 0 1353.43658120 0 13668
0.11350000 0.11349100 15029.12642469 0 28.77666504 0 4228.13064462 0 41.21211506 0 2625.02012892 0 13791
0.11450000 0.11448600 14935.84945835 0 108.47079703 0 3535.31902725 0 727.93189251 0 1651.35722242 0 14205
0.11550000 0.11549300 14854.66189669 0 238.40195104 0 3882.73968045 0 -367.82401911 0 2536.60110685 0 14776
0.11650000 0.11649800 14638.60538014 0 213.48668622 0 4408.41805101 0 -56.18157085 0 2427.46372888 0 14553
0.11750000 0.11747300 14502.07274571 0 155.77475202 0 4516.97868674 0 -110.23252276 0 2737.96178744 0 14568
0.11850000 0.11849100 14187.30457632 0 126.64483235 0 4746.57755476 0 -88.42745138 0 2320.64441107 0 16015
0.11950000 0.11950300 14079.83087789 0 234.94371583 0 4582.64966387 0 -132.22703178 0 1986.10063752 0 15270
0.12050000 0.12050700 14035.35517813 0 -12.21739709 0 4658.95709887 0 579.32759932 0 2336.78210263 0 15999
0.12150000 0.12150000 13957.38406358 0 -102.14448921 0 4347.88229807 0 658.15717251 0 1895.64083521 0 15670
0.12250000 0.12250700 13867.21263239 0 197.43550600 0 3942.47686722 0 -129.34553881 0 2023.30051208 0 16887
0.12350000 0.12352200 13653.15253129 0 415.54611222 0 3847.61385972 0 -187.30924318 0 1554.44234349 0 16407
0.12450000 0.12449800 13159.48335513 0 249.04284540 0 4503.07032577 0 -453.75195835 0 1811.12591446 0 16306
0.12550000 0.12549900 12878.09968855 0 175.07232559 0 4008.56930983 0 -52.61408735 0 995.54251071 0 17523
0.12650000 0.12650100 12866.12119585 0 15.50394057 0 4650.11741491 0 319.05602613 0 1201.58700378 0 17154
0.12750000 0.12750600 13086.83601512 0 -309.72943862 0 3921.29268104 0 356.27253749 0 995.60351230 0 18007
0.12850000 0.12850300 13138.74281683 0 -34.78376822 0 3897.10278050 0 416.00528777 0 1032.11240529 0 17496
0.12950000 0.12949900 13314.42737649 0 201.30633373 0 4031.78318504 0 -325.71628990 0 664.96273095 0 18405
0.13050000 0.13049000 12966.49652823 0 158.35345531 0 3877.49354430 0 -148.68193157 0 1009.69044154 0 18100
0.13150000 0.13148800 13008.08851678 0 177.35822128 0 4537.56394828 0 67.78817572 0 1221.79516462 0 19059
0.13250000 0.13249300 12722.82293128 0 104.39711131 0 4481.59776847 0 144.06244804 0 1029.04901669 0 18957
0.13350000 0.13349100 12555.90041720 0 223.09277190 0 4276.23316578 0 295.06798537 0 1236.33572382 0 19468
0.13450000 0.13450700 12355.59340032 0 119.88142045 0 4199.68172444 0 99.28040942 0 1334.45954322 0 19953
0.13550000 0.13551000 11985.36924619 0 193.59795185 0 3746.04067807 0 439.90681720 0 1788.83260860 0 19956
0.13650000 0.13649900 11798.92622549 0 169.94486524 0 3804.06982050 0 307.05867839 0 1454.97648926 0 19723
0.13750000 0.13749600 11362.48762558 0 262.68169028 0 3380.21972912 0 23.92892468 0 1164.36494682 0 20946
0.13850000 0.13851100 11173.16089367 0 120.38052432 0 3203.67005610 0 384.64049192 0 1413.90578696 0 20955
0.13950000 0.13949800 10887.98403774 0 138.35048161 0 3131.01162489 0 -223.28908608 0 506.21775639 0 20506
0.14050000 0.14048300 10784.81372372 0 204.74016831 0 3006.75694548 0 -129.82356940 0 851.73626932 0 21447
0.14150000 0.14148400 10485.78396280 0 83.91111598 0 3079.80356858 0 -244.42114363 0 573.11874726 0 21771
0.14250000 0.14249400 10410.20854680 0 21.44882213 0 2957.58966941 0 -0.98104410 0 -32.09226746 0 22470
0.14350000 0.14350900 10742.29007463 0 -56.09572498 0 2935.14108679 0 403.98353940 0 240.58691684 0 22519
0.14450000 0.14449900 10613.47691327 0 -85.52044866 0 2832.94679811 0 85.24649610 0 -106.91780764 0 22218
0.14550000 0.14550500 10657.78624508 0 190.30164812 0 3107.50937856 0 -143.78738636 0 316.49506876 0 23559
0.14650000 0.14650700 10782.69530511 0 -16.65221219 0 3015.74081501 0 -107.80987261 0 80.18292104 0 23044
0.14750000 0.14750500 10542.31579365 0 116.32669183 0 3590.71955600 0 -67.25546553 0 404.10443345 0 23649
0.14850000 0.14849900 10729.21355342 0 147.77023518 0 3518.19421916 0 -386.21987837 0 56.07664812 0 23640
0.14950000 0.14949500 10396.17818266 0 189.49975458 0 4048.22033892 0 -263.55789484 0 -69.70961468 0 24457
0.15050000 0.15050000 10246.89067174 0 131.13787624 0 4076.18124643 0 117.63434395 0 203.03766957 0 24591
0.15150000 0.15149900 10190.50302645 0 -74.41183853 0 3793.53318340 0 655.08602007 0 376.36978636 0 25020
0.15250000 0.15250500 10303.10085787 0 -57.47668991 0 3649.93545651 0 400.06612864 0 401.49578393 0 25297
0.15350000 0.15350100 10209.19169331 0 169.76296961 0 3107.50937856 0 193.99390758 0 -46.04754419 0 25452
0.15450000 0.15450400 9856.73563669 0 265.38572410 0 3427.06894503 0 -98.19979410 0 602.62687675 0 26061
0.15550000 0.15549900 9631.14069076 0 189.05832494 0 3195.49584395 0 -315.22179935 0 184.21258099 0 26128
0.15650000 0.15649500 9382.68678792 0 117.21176935 0 3242.86634612 0 151.00997381 0 313.47049935 0 26331
0.15750000 0.15749700 9420.44122234 0 -87.91581447 0 3039.94180675 0 390.29589325 0 -112.71539811 0 27345
0.15850000 0.15849900 9438.53096456 0 0.51151713 0 2606.20945889 0 108.90379736 0 -159.97942478 0 26980
0.15950000 0.15949700 9482.77374919 0 52.07017505 0 2766.11124530 0 218.29361098 0 -221.95370597 0 27777
0.16050000 0.16050000 9326.98679685 0 101.60434792 0 2336.73773784 0 -282.21439723 0 -93.83895728 0 28224
0.16150000 0.16150500 9241.90622506 0 108.13262644 0 2684.66858611 0 -80.28340729 0 -215.35666202 0 28075
0.16250000 0.16249700 9184.66455761 0 28.39401875 0 2417.13782452 0 104.65109972 0 -939.07168145 0 28590
0.16350000 0.16349900 9109.54388068 0 90.65445282 0 2579.26894151 0 -131.54048669 0 -381.30647812 0 29163
0.16450000 0.16449100 8959.46889477 0 179.55095092 0 2655.67619728 0 -271.98942276 0 -1158.37570047 0 28996
0.16550000 0.16550500 8784.36107736 0 270.92688609 0 3044.00118483 0 -321.35744950 0 -792.85865032 0 30777
0.16650000 0.16650700 8547.83021124 0 102.08526221 0 3073.08230323 0 149.67903018 0 -948.04667802 0 29211
0.16750000 0.16749900 8512.63784332 0 -90.12218627 0 3048.70385234 0 264.67034190 0 -701.75888595 0 30922
0.16850000 0.16850800 8668.26951890 0 -22.00903849 0 2942.69419191 0 432.67202943 0 -693.60907443 0 30867
0.16950000 0.16949900 8564.26736512 0 181.73480760 0 2804.16514203 0 106.98158202 0 32.58371839 0 30852
0.17050000 0.17049200 8344.92785427 0 123.93525294 0 2915.74258332 0 -135.00870397 0 4.24365832 0 31257
0.17150000 0.17149500 8230.08960107 0 116.37327486 0 2827.53429400 0 211.72762238 0 543.90453450 0 32608
0.17250000 0.17250900 8182.47509257 0 88.85568250 0 3088.67652614 0 170.83881571 0 608.19243937 0 32361
0.17350000 0.17350400 8048.85944293 0 155.03607830 0 2930.95970554 0 -62.92657136 0 491.23465844 0 32508
0.17450000 0.17449800 7801.80303091 0 192.47885008 0 3247.83520235 0 -56.38209969 0 605.66142823 0 32791
0.17550000 0.17549800 7725.29595436 0 -7.86419101 0 2777.49081336 0 365.63794419 0 704.88438525 0 33633
0.17650000 0.17650100 7715.30278591 0 -116.31560064 0 2709.47959368 0 349.75313192 0 989.20500078 0 33984
0.17750000 0.17750300 7839.53528293 0 -54.08333821 0 2228.92021231 0 450.84051915 0 723.69061879 0 34069
