### header ###
fiducial parameters:
Omega_m = 0.31
Omega_nu = 0
Omega_de = 0.69
Omega_k = 0
H_0 = 100
w_de = -1
zeff = 0
beta = 0
fgrowth = 0
b_1 = 2
gamma = 0.55
Lx = 3500 Ly = 3500 Lz = 3500
nx = 700 ny = 700 nz = 700
xoffset = 1379.75464 yoffset = 22.6059522 zoffset = 368.141391
bins = 400 dk = 0.001
kx_ny = 0.628318531 ky_ny = 0.628318531 kz_ny = 0.628318531
############################
A(data) = 3.3596398 (not used)
A(ran) = 3.36803496 (used)
Ngal = 189098
weighted Ngal = 0
Nran = 9399747
weighted Nran = 0
SN(data) = 6619.21205
SN(ran) = 133.96488
SN(data+ran) = 6753.17693
############################
13 columns: k_central k_mean P_0(k) sigma^{lin}_{P_0(k)} P^img_1(k) sigma^{lin}_{P_1(k)} P_2(k) sigma^{lin}_{P_2(k)} P^img_3(k) sigma^{lin}_{P_3(k)} P_4(k) sigma^{lin}_{P_4(k)} N_modes
### header ###
0.00050000 0 0 0 0 0 0 0 0 0 0 0 0
0.00150000 0.00179520 29597.85726406 0 -18087.96763104 0 3248.62267733 0 -20571.28662775 0 154389.46151926 0 3
0.00250000 0.00253879 62972.37800095 0 -31635.31014345 0 -47066.27063357 0 37628.32750245 0 -17340.64278067 0 6
0.00350000 0.00331552 90629.05397513 0 -35828.55897366 0 -3040.19690428 0 -59188.94889798 0 -4709.78805449 0 7
0.00450000 0.00420575 117327.11779708 0 -12325.97990447 0 -17760.88823304 0 -33811.07024878 0 -1435.79980974 0 24
0.00550000 0.00557378 113850.02755381 0 18015.65302694 0 38926.77392918 0 -33353.55837466 0 24618.35348218 0 45
0.00650000 0.00659388 78622.16780687 0 28705.45955760 0 47283.65809375 0 333.35146988 0 -20573.50486714 0 40
0.00750000 0.00754703 71584.35969534 0 15459.57577825 0 102587.13887683 0 29092.54233110 0 62819.87404292 0 57
0.00850000 0.00846663 51451.06443508 0 8053.78393438 0 83340.69572455 0 47350.53801135 0 26168.01551979 0 75
0.00950000 0.00948925 58245.64259753 0 -8001.81058548 0 80652.63323218 0 51674.55205359 0 50706.40147198 0 112
0.01050000 0.01054430 72296.85818729 0 -5475.86811890 0 54129.92123398 0 33512.05157905 0 41804.60680133 0 105
0.01150000 0.01145670 72627.26494438 0 -4203.19763388 0 44322.08668464 0 3153.42693392 0 37175.03028317 0 144
0.01250000 0.01249090 84166.98989719 0 -2276.82309193 0 43868.12399355 0 16112.73636653 0 27644.14292163 0 169
0.01350000 0.01339930 83222.13082917 0 -1767.20477455 0 44749.54141502 0 -2017.77709600 0 28459.01316141 0 180
0.01450000 0.01448870 92617.48376401 0 1201.84210131 0 44144.62753347 0 -9584.56875478 0 13094.15620510 0 267
0.01550000 0.01550050 92010.90620291 0 -804.42344138 0 36188.35740266 0 9633.12601502 0 -15465.23228869 0 238
0.01650000 0.01653350 90894.13358220 0 -713.85161798 0 40554.51799330 0 3986.58655748 0 -1744.46782080 0 315
0.01750000 0.01747870 88978.35113333 0 2584.92545195 0 37087.29891531 0 -3674.85737605 0 -25588.83321515 0 297
0.01850000 0.01844180 88973.47100667 0 7030.82065745 0 46915.98491492 0 1467.72027455 0 -7054.42272455 0 388
0.01950000 0.01947590 79458.77679267 0 6344.84121740 0 42826.99333602 0 -6460.78859029 0 -21272.69392275 0 399
0.02050000 0.02045430 73026.65894649 0 1949.98770025 0 39351.56677229 0 10071.15065609 0 -14415.11776164 0 462
0.02150000 0.02154770 74601.83073707 0 -1889.64049766 0 42256.68398894 0 14481.22129545 0 3361.51997107 0 571
0.02250000 0.02255340 73513.89522842 0 2691.32330427 0 19910.80584948 0 3135.98048113 0 -16562.04075490 0 510
0.02350000 0.02348930 71354.88283048 0 2636.94316564 0 26113.66865474 0 6844.61055188 0 4603.39020216 0 555
0.02450000 0.02439640 66360.07319682 0 3191.64719861 0 20453.16538025 0 824.67929437 0 -830.06517960 0 592
0.02550000 0.02547300 63556.32952028 0 1903.44903786 0 26466.59054164 0 2366.88361114 0 9472.86931031 0 837
0.02650000 0.02652900 60246.05087911 0 1710.27366061 0 21047.32080076 0 3800.96428535 0 -891.47713711 0 723
0.02750000 0.02749970 59204.03292583 0 2015.96923090 0 21034.45501230 0 1739.13295507 0 4869.86730004 0 826
0.02850000 0.02848090 55550.03809123 0 1524.44065575 0 18093.62414148 0 2100.40651327 0 2273.07426736 0 831
0.02950000 0.02946900 54618.15572364 0 -60.54285131 0 16772.99532086 0 4940.82877812 0 1468.01973687 0 996
0.03050000 0.03053250 52996.17908194 0 1077.85693798 0 15225.32969870 0 -2939.13391769 0 -3084.22895616 0 1041
0.03150000 0.03150510 49183.02557114 0 2654.10124732 0 13620.43350030 0 1185.12766751 0 -7465.34048029 0 1036
0.03250000 0.03246190 50636.08328332 0 -157.35524758 0 10724.46652113 0 1280.38995810 0 -985.33639128 0 1059
0.03350000 0.03345080 48437.14257637 0 -1488.60499841 0 6878.49415856 0 4345.94133860 0 -11523.64271723 0 1302
0.03450000 0.03451200 51588.48436527 0 -959.07465515 0 3658.23167183 0 1922.96954449 0 -6696.56525502 0 1339
0.03550000 0.03553350 50474.04089591 0 364.87043336 0 1182.52123623 0 3004.79380362 0 -9946.35250803 0 1365
0.03650000 0.03647120 48949.55587538 0 1593.21716802 0 991.86356069 0 -3735.73695610 0 -3077.35241406 0 1308
0.03750000 0.03744890 46815.72049451 0 1626.41312049 0 2983.23251675 0 -53.38292912 0 -6642.52894349 0 1579
0.03850000 0.03847530 45076.73172500 0 1852.65135584 0 8404.54303786 0 -3915.85799454 0 -4521.80335741 0 1662
0.03950000 0.03950240 44108.13749551 0 1493.11911556 0 13277.05004278 0 -2916.24168719 0 474.11983242 0 1683
0.04050000 0.04050350 43849.82351858 0 -53.22399227 0 12002.33877752 0 2365.97413299 0 -2693.40844930 0 1822
0.04150000 0.04152450 44568.86581674 0 -837.77134324 0 13642.83771813 0 976.81835203 0 4155.91586129 0 1887
0.04250000 0.04250150 44574.52232718 0 -453.16190667 0 15865.51358655 0 -205.55426216 0 -1229.25954017 0 1920
0.04350000 0.04349210 48780.30420995 0 -1030.00618699 0 15437.39338435 0 3995.82552454 0 9336.96887410 0 2005
0.04450000 0.04448520 48104.73940383 0 -989.98249368 0 13149.61218984 0 3097.67148687 0 3780.44557100 0 2151
0.04550000 0.04548030 48992.25698363 0 1306.57627409 0 12013.98453431 0 -893.58557365 0 8078.86113068 0 2274
0.04650000 0.04648670 46768.58290748 0 2367.69326852 0 16207.45518847 0 -3112.15659008 0 6954.00302738 0 2311
0.04750000 0.04749250 44742.77578489 0 1937.37700932 0 17181.37319249 0 -299.93591171 0 7161.15331279 0 2568
0.04850000 0.04851840 41960.21629452 0 873.18442598 0 17819.00610504 0 1185.16094110 0 7194.18289730 0 2493
0.04950000 0.04949480 39557.64121159 0 1681.25908940 0 16123.38391560 0 1002.51665535 0 3340.77943277 0 2644
0.05050000 0.05050630 39214.81231392 0 975.73030560 0 16904.31509273 0 -444.60504823 0 1970.95006249 0 2829
0.05150000 0.05149060 36870.57692695 0 1288.22034314 0 18338.85050601 0 -754.39770667 0 -759.14030248 0 2784
0.05250000 0.05249300 35823.12428716 0 631.32202149 0 14867.08403728 0 1395.49440003 0 1232.22088975 0 3055
0.05350000 0.05348950 34947.25246415 0 -201.77881872 0 15089.35162412 0 1695.25617994 0 -1976.59548173 0 3009
0.05450000 0.05448610 35416.29918309 0 -384.74474918 0 13176.34197449 0 2074.07601171 0 135.20945464 0 3336
0.05550000 0.05550870 35974.18638959 0 -605.03366648 0 12117.13266593 0 3175.84224296 0 -1663.34680632 0 3349
0.05650000 0.05647670 35577.56518672 0 948.00453147 0 8581.78036510 0 43.12989392 0 -1594.94739475 0 3324
0.05750000 0.05747970 35543.07156421 0 173.52843097 0 10568.33574169 0 50.41880674 0 2093.54106236 0 3639
0.05850000 0.05849280 33598.00835540 0 521.51362610 0 10168.15426460 0 785.67488206 0 -435.95613285 0 3846
0.05950000 0.05951020 34633.48250249 0 925.65576962 0 11104.83912047 0 -18.50943312 0 2635.53458362 0 3787
0.06050000 0.06049470 33171.33000881 0 852.31855716 0 11314.79547870 0 -2127.74631374 0 -1245.99615636 0 3930
0.06150000 0.06148310 30908.17127152 0 1424.22060012 0 13164.58530572 0 -1325.46458249 0 -105.90706686 0 4083
0.06250000 0.06249100 30278.63493274 0 1066.45962400 0 14501.62909783 0 -1073.66890202 0 -886.58591925 0 4303
0.06350000 0.06350600 29126.03774588 0 -0.02880705 0 14378.73863565 0 370.25964596 0 -379.89789611 0 4470
0.06450000 0.06451750 29620.15056992 0 -133.07329010 0 14589.47137766 0 3174.63330249 0 -464.73113421 0 4479
0.06550000 0.06550280 29930.26043660 0 -344.76098418 0 13195.97339309 0 1016.82651766 0 -3452.07959415 0 4636
0.06650000 0.06648880 29986.82554103 0 74.70752984 0 11128.46336997 0 486.69503152 0 -356.29804724 0 4653
0.06750000 0.06749660 29594.86264088 0 448.07437463 0 12320.65612993 0 523.27268994 0 -659.60457371 0 5220
0.06850000 0.06852730 28684.82993128 0 636.90200267 0 11924.14583903 0 -202.51971068 0 -99.36303884 0 5029
0.06950000 0.06949320 28985.95592842 0 473.55196314 0 10673.00336729 0 415.33981596 0 -318.90296761 0 5040
0.07050000 0.07048030 27310.63062939 0 606.40010195 0 12477.26383084 0 1159.47372897 0 954.94762076 0 5475
0.07150000 0.07148790 26594.36113048 0 728.64616559 0 11384.89184341 0 104.63191195 0 269.19665937 0 5509
0.07250000 0.07249820 25843.04344921 0 760.36809798 0 12837.39499575 0 -389.65260383 0 2964.13347561 0 5916
0.07350000 0.07351270 25111.46809850 0 460.16710666 0 13253.20396934 0 327.92787457 0 1212.01272891 0 5721
0.07450000 0.07449140 24489.80650955 0 454.80451294 0 13394.28399452 0 -508.06000421 0 2566.41424424 0 6028
0.07550000 0.07549160 24755.88432434 0 26.54833266 0 13462.93850363 0 906.19848282 0 1705.36026036 0 6183
0.07650000 0.07648840 24685.34431175 0 -161.82832731 0 14707.92536107 0 141.01236888 0 2567.25717521 0 6330
0.07750000 0.07749960 24847.49761113 0 -209.01693385 0 12308.67763723 0 1052.22961832 0 1549.78404077 0 6583
0.07850000 0.07848650 25808.77165064 0 -335.95457380 0 13475.58246815 0 1191.19455224 0 2384.04169282 0 6549
0.07950000 0.07947320 25511.41666045 0 -402.24665796 0 10624.64574860 0 852.20209959 0 2885.18633573 0 6828
0.08050000 0.08048110 26391.17040239 0 83.45304955 0 12116.68901806 0 1778.65088980 0 3740.20670847 0 7147
0.08150000 0.08149960 25997.21108679 0 278.35576981 0 9494.85206266 0 626.45853163 0 4010.01116543 0 7386
0.08250000 0.08250610 25232.80579311 0 418.92670905 0 11425.15288833 0 1399.60923409 0 4539.52709013 0 7227
0.08350000 0.08350160 24630.77562277 0 687.71964885 0 9405.34610329 0 -1018.20848080 0 4248.30553187 0 7798
0.08450000 0.08449610 23766.77138050 0 752.01088108 0 10209.66861478 0 352.23423268 0 4644.87127875 0 7371
0.08550000 0.08548940 22920.62396532 0 804.62641028 0 11363.26400936 0 -1188.29974984 0 2580.69970591 0 8256
0.08650000 0.08650700 21822.48455548 0 782.47728998 0 11749.90313498 0 -731.00304494 0 1913.19819998 0 8037
0.08750000 0.08749060 20836.80988269 0 507.06734208 0 11820.33223560 0 -159.01338153 0 761.08791666 0 8155
0.08850000 0.08849210 20384.51087114 0 410.08591596 0 12504.32635140 0 270.39783600 0 908.19489827 0 8718
0.08950000 0.08949900 20277.81355650 0 93.34151710 0 11190.79589682 0 734.14961752 0 975.66154018 0 8571
0.09050000 0.09049190 19876.64496288 0 23.82111825 0 11352.83828423 0 1180.28081444 0 902.93101620 0 8932
0.09150000 0.09150830 19863.44643851 0 -254.75148446 0 9383.10825341 0 1983.77148616 0 1718.11513686 0 9285
0.09250000 0.09250820 20125.42051043 0 -168.03717936 0 8176.96276768 0 1308.39523039 0 2236.60641179 0 9204
0.09350000 0.09350330 20460.04192236 0 -63.63241513 0 6925.66501918 0 1575.06087862 0 4237.59143561 0 9349
0.09450000 0.09448040 19728.79930756 0 201.19542176 0 6857.16578683 0 950.54552469 0 2514.80690484 0 9564
0.09550000 0.09549270 19465.49429201 0 630.81737203 0 6589.00282702 0 -773.61320538 0 2972.38532614 0 10155
0.09650000 0.09649430 18681.23575580 0 779.10223875 0 6801.41033977 0 -1101.88712529 0 1788.05622481 0 9913
0.09750000 0.09749140 18053.03036065 0 371.04933918 0 7358.27715615 0 -100.82596771 0 2283.03416222 0 10476
0.09850000 0.09850240 16946.23981719 0 179.22154237 0 6660.38577057 0 362.92281918 0 1180.77991830 0 10575
0.09950000 0.09950330 17082.43971571 0 222.00028900 0 6691.89586110 0 426.31899182 0 493.81668908 0 10882
0.10050000 0.10051200 16611.50749329 0 292.36506067 0 5868.41885249 0 306.77696199 0 449.18238521 0 10875
0.10150000 0.10150300 16176.73257292 0 60.71043930 0 6037.50414996 0 799.97587140 0 206.63121738 0 11118
0.10250000 0.10250800 16267.12582805 0 169.57885574 0 5375.44842173 0 -116.20690691 0 1085.91136521 0 11575
0.10350000 0.10349800 15959.56693668 0 41.20557125 0 5388.09238625 0 329.04697634 0 -326.27417710 0 11364
0.10450000 0.10450100 16247.71623339 0 -47.56592906 0 5684.52680708 0 -344.70885555 0 471.14628252 0 12093
0.10550000 0.10551000 15887.80689242 0 213.70629192 0 5699.15609586 0 -99.12247077 0 -40.50238937 0 12067
0.10650000 0.10649700 15876.60478350 0 166.67961686 0 6108.27707769 0 -140.00196084 0 -36.40873949 0 12054
0.10750000 0.10749900 16314.26341508 0 -102.84489829 0 6098.38373001 0 322.63071891 0 1243.00153318 0 12807
0.10850000 0.10850100 16026.22503033 0 -27.61918773 0 6017.39580989 0 993.29099773 0 1459.61260958 0 12736
0.10950000 0.10950300 16181.94543549 0 120.10768087 0 5839.03827177 0 637.40110654 0 1353.34785162 0 12933
0.11050000 0.11050200 15653.44990090 0 414.02107264 0 5818.22009510 0 -652.01264940 0 2138.32731563 0 13428
0.11150000 0.11150900 15236.53180762 0 451.24312960 0 6500.30652502 0 -214.04568254 0 3030.00409428 0 13453
0.11250000 0.11250000 14954.59358120 0 178.19117017 0 6569.43795560 0 20.62762991 0 1776.64338315 0 13668
0.11350000 0.11349100 14910.33970537 0 22.18050839 0 6352.89342638 0 490.35623564 0 1977.80442220 0 13791
0.11450000 0.11448600 14874.73696317 0 -43.32265893 0 6148.74885535 0 296.97788949 0 1164.01002852 0 14205
0.11550000 0.11549300 14631.39610213 0 136.89420745 0 5676.31932134 0 180.48261146 0 1371.89233292 0 14776
0.11650000 0.11649800 14550.20854046 0 147.01381555 0 5409.39857559 0 -60.84597372 0 824.06262382 0 14553
0.11750000 0.11747300 13998.53240426 0 422.00451620 0 5263.90425402 0 241.46312140 0 369.90583678 0 14568
0.11850000 0.11849100 13734.22918098 0 342.18339001 0 5652.40670072 0 -110.58943747 0 629.69272466 0 16015
0.11950000 0.11950300 13355.79754111 0 127.16944597 0 4934.99480852 0 128.21645496 0 -116.75592115 0 15270
0.12050000 0.12050700 13084.39595179 0 109.48131599 0 5424.91516012 0 523.73962933 0 708.93267213 0 15999
0.12150000 0.12150000 12870.89041053 0 59.59233573 0 4787.42643312 0 51.36366580 0 280.41984156 0 15670
0.12250000 0.12250700 13073.19384287 0 -171.09058588 0 4232.32311706 0 832.97107321 0 705.08291767 0 16887
0.12350000 0.12352200 13297.56875713 0 -45.84668262 0 4087.25026098 0 373.19104932 0 714.95962856 0 16407
0.12450000 0.12449800 13296.12690153 0 46.07826681 0 3724.10229050 0 226.09404979 0 754.40768874 0 16306
0.12550000 0.12549900 13263.18604659 0 -46.00317941 0 3609.49695244 0 1.30525642 0 958.89719600 0 17523
0.12650000 0.12650100 13190.53870658 0 -21.13105934 0 3841.76879893 0 269.93311485 0 1373.35637092 0 17154
0.12750000 0.12750600 13384.19100530 0 172.05552002 0 3970.95906098 0 91.34765263 0 1257.91919308 0 18007
0.12850000 0.12850300 13155.04687635 0 153.78942776 0 3909.80220101 0 -125.15972108 0 1218.35689357 0 17496
0.12950000 0.12949900 12797.35577477 0 175.53593762 0 3905.31026624 0 -171.82704136 0 1050.54375638 0 18405
0.13050000 0.13049000 12596.49419804 0 280.60839191 0 4556.84044857 0 -380.96154190 0 914.54017204 0 18100
0.13150000 0.13148800 12602.37253242 0 171.83702344 0 4771.46620072 0 47.73329522 0 1193.59025078 0 19059
0.13250000 0.13249300 12378.21944209 0 84.06184535 0 4616.93255364 0 -153.32803397 0 384.53068908 0 18957
0.13350000 0.13349100 12247.12149417 0 139.75906362 0 4175.83565101 0 332.11812878 0 907.80448813 0 19468
0.13450000 0.13450700 12143.52971467 0 84.04177028 0 4335.46015748 0 466.82515219 0 1016.48823615 0 19953
0.13550000 0.13551000 11840.29639011 0 55.05869807 0 4210.88383336 0 452.85468052 0 1452.96898261 0 19956
0.13650000 0.13649900 11687.68152010 0 128.72997738 0 3652.44206702 0 745.44821985 0 1872.00549451 0 19723
0.13750000 0.13749600 11668.71557332 0 63.90947323 0 3359.41264365 0 209.78888116 0 1569.10490586 0 20946
0.13850000 0.13851100 11518.31894270 0 54.82922120 0 3062.76749007 0 78.34577518 0 2146.53480137 0 20955
0.13950000 0.13949800 11536.73032963 0 43.01033082 0 3042.84770035 0 214.69562669 0 1670.02370689 0 20506
0.14050000 0.14048300 11302.15151418 0 89.98665185 0 3126.55296372 0 -290.13683921 0 1593.83827505 0 21447
0.14150000 0.14148400 11308.80623235 0 165.40412921 0 2831.06129462 0 -215.76149071 0 1146.26411340 0 21771
0.14250000 0.14249400 11307.80802462 0 104.46199481 0 3108.99559895 0 -19.13142744 0 749.16709818 0 22470
0.14350000 0.14350900 10932.26009595 0 51.28802384 0 3247.59119602 0 -98.40986137 0 514.97758374 0 22519
0.14450000 0.14449900 11066.38594065 0 143.33375640 0 3348.59872662 0 -217.36527779 0 69.91990377 0 22218
0.14550000 0.14550500 10876.79302002 0 68.77983964 0 3344.63916931 0 31.67302021 0 125.38709062 0 23559
0.14650000 0.14650700 10736.92193530 0 126.89660252 0 3311.60958480 0 -60.21876653 0 -40.36641129 0 23044
0.14750000 0.14750500 10650.34405192 0 135.04863228 0 3217.93333538 0 82.53192564 0 180.12325668 0 23649
0.14850000 0.14849900 10683.68418995 0 -16.43770844 0 3522.47542118 0 343.40563991 0 235.26536055 0 23640
0.14950000 0.14949500 10700.49844452 0 5.03173223 0 3144.42088200 0 335.27024695 0 277.15237494 0 24457
0.15050000 0.15050000 10373.36359054 0 201.21538591 0 3072.22828107 0 1.61687469 0 470.68821609 0 24591
0.15150000 0.15149900 10157.58435391 0 343.49326037 0 3158.83943804 0 -451.20652865 0 519.91982110 0 25020
0.15250000 0.15250500 9956.52313563 0 68.01099786 0 3527.94338128 0 91.28432189 0 782.51278181 0 25297
0.15350000 0.15350100 9824.75971589 0 92.43669725 0 3417.19777975 0 328.52458097 0 508.35724828 0 25452
0.15450000 0.15450400 9755.38427898 0 12.09617030 0 3057.19970920 0 368.07468016 0 587.73916308 0 26061
0.15550000 0.15549900 9725.99260706 0 24.19699891 0 2835.63086777 0 209.42730814 0 872.05977861 0 26128
0.15650000 0.15649500 9703.45529486 0 -16.51290675 0 2670.58276598 0 145.79156564 0 848.81041157 0 26331
0.15750000 0.15749700 9584.93476428 0 157.92866247 0 2775.48330672 0 136.42172246 0 762.03621400 0 27345
0.15850000 0.15849900 9442.86762257 0 173.75247315 0 2295.67812674 0 -83.05676108 0 1019.83777763 0 26980
0.15950000 0.15949700 9366.43818440 0 -18.41560159 0 2829.70816860 0 251.33650492 0 1407.48398393 0 27777
0.16050000 0.16050000 9465.03892527 0 -44.52627562 0 2226.15850427 0 460.12052364 0 867.27170889 0 28224
0.16150000 0.16150500 9403.02804313 0 46.85465060 0 2237.37170438 0 111.61182401 0 1311.87786623 0 28075
0.16250000 0.16249700 9314.10991719 0 139.49842050 0 2098.77610732 0 -151.34492796 0 1296.29473452 0 28590
0.16350000 0.16349900 9168.98160513 0 194.09594659 0 2525.24372117 0 -90.44571649 0 1635.76299951 0 29163
0.16450000 0.16449100 8944.68432924 0 121.86563559 0 2311.61617675 0 29.42028720 0 1558.01370891 0 28996
0.16550000 0.16550500 8796.90522110 0 134.02602392 0 2791.97591658 0 17.47251711 0 1112.89070178 0 30777
0.16650000 0.16650700 8575.44729164 0 204.93870073 0 2549.91054318 0 -239.27261000 0 1341.94610116 0 29211
0.16750000 0.16749900 8385.04471363 0 154.82090908 0 3013.73330836 0 -74.89752205 0 1600.34880766 0 30922
0.16850000 0.16850800 8433.62415626 0 -51.92931685 0 2736.95248852 0 265.22822910 0 1318.67676996 0 30867
0.16950000 0.16949900 8482.36996685 0 -56.75731488 0 2498.10356224 0 250.12090974 0 1047.20641522 0 30852
0.17050000 0.17049200 8448.93000805 0 85.16586309 0 2714.93646258 0 -150.67723790 0 974.89181112 0 31257
0.17150000 0.17149500 8355.80831847 0 149.09119674 0 2520.24159135 0 -349.40154098 0 555.58800137 0 32608
0.17250000 0.17250900 8240.40441423 0 93.09606891 0 2836.44052514 0 -85.09365940 0 693.52810869 0 32361
0.17350000 0.17350400 8113.62094191 0 185.96388099 0 2832.75824776 0 -187.16616674 0 66.02966644 0 32508
0.17450000 0.17449800 7984.54159183 0 85.09998138 0 3121.97229938 0 -34.68660934 0 381.29095045 0 32791
0.17550000 0.17549800 7928.49777365 0 23.93203022 0 2971.91949587 0 230.07911685 0 -103.61152183 0 33633
0.17650000 0.17650100 7911.73897506 0 -37.98856958 0 2562.19958940 0 241.51635915 0 177.00995770 0 33984
0.17750000 0.17750300 7909.35436772 0 -29.89787414 0 2586.79986423 0 453.21403530 0 280.13257956 0 34069
0.17850000 0.17849800 7942.10667230 0 49.09662515 0 2292.98296588 0 80.73992095 0 211.27066507 0 34536
