### header ###
fiducial parameters:
Omega_m = 0.31
Omega_nu = 0
Omega_de = 0.69
Omega_k = 0
H_0 = 100
w_de = -1
zeff = 0
beta = 0
fgrowth = 0
b_1 = 2
gamma = 0.55
Lx = 3500 Ly = 3500 Lz = 3500
nx = 700 ny = 700 nz = 700
xoffset = 1379.75464 yoffset = 22.6059522 zoffset = 368.141391
bins = 400 dk = 0.001
kx_ny = 0.628318531 ky_ny = 0.628318531 kz_ny = 0.628318531
############################
A(data) = 3.33755705 (not used)
A(ran) = 3.34245361 (used)
Ngal = 187520
weighted Ngal = 0
Nran = 9399747
weighted Nran = 0
SN(data) = 6652.54718
SN(ran) = 132.947372
SN(data+ran) = 6785.49455
############################
13 columns: k_central k_mean P_0(k) sigma^{lin}_{P_0(k)} P^img_1(k) sigma^{lin}_{P_1(k)} P_2(k) sigma^{lin}_{P_2(k)} P^img_3(k) sigma^{lin}_{P_3(k)} P_4(k) sigma^{lin}_{P_4(k)} N_modes
### header ###
0.00050000 0 0 0 0 0 0 0 0 0 0 0 0
0.00150000 0.00179520 53571.59037961 0 -35688.58806817 0 -83093.14020866 0 102280.80001712 0 -8095.57556448 0 3
0.00250000 0.00253879 77542.66160789 0 -18786.60212681 0 1109.50788672 0 -75461.06576465 0 8101.50935484 0 6
0.00350000 0.00331552 74703.86974900 0 6521.64598795 0 -34368.40289543 0 -37413.93466544 0 36790.05483710 0 7
0.00450000 0.00420575 63869.76674603 0 10364.16898827 0 -13156.15599604 0 -28819.58797420 0 7947.90736831 0 24
0.00550000 0.00557378 55928.02608323 0 -684.42667248 0 -11961.85590866 0 -2142.22032576 0 14314.96425319 0 45
0.00650000 0.00659388 49671.92553261 0 -1738.23456812 0 9600.10752170 0 -8479.98535951 0 -61972.61750804 0 40
0.00750000 0.00754703 67783.18467725 0 -8556.43698007 0 -4928.46209352 0 11005.52854299 0 20787.12132036 0 57
0.00850000 0.00846663 69043.92103435 0 -12189.22544610 0 -12786.70822570 0 -2605.01160962 0 -14841.57428429 0 75
0.00950000 0.00948925 84795.41711628 0 3241.01411622 0 4491.04746827 0 -28352.75949465 0 10763.28571045 0 112
0.01050000 0.01054430 84976.53636244 0 6005.68350592 0 25635.52715430 0 -2516.49276678 0 -5863.92691772 0 105
0.01150000 0.01145670 77150.80961971 0 -1481.90591545 0 14564.84892044 0 18961.95395056 0 26502.63693172 0 144
0.01250000 0.01249090 84147.24756662 0 -7254.24172877 0 31953.18384798 0 24639.87040426 0 34406.77843687 0 169
0.01350000 0.01339930 106590.28459135 0 -4259.86255909 0 19003.65685108 0 10052.52853642 0 23543.61649790 0 180
0.01450000 0.01448870 95121.09965113 0 3881.48637520 0 23100.52317982 0 11229.72599811 0 47115.95919590 0 267
0.01550000 0.01550050 78546.19310777 0 1680.83762391 0 -1265.70521334 0 3808.78357920 0 17775.97226089 0 238
0.01650000 0.01653350 92121.81817239 0 1229.33717854 0 22005.93295300 0 8822.90298675 0 56284.38624118 0 315
0.01750000 0.01747870 89119.43115851 0 -2325.25834900 0 -5918.15177960 0 15457.46845083 0 21715.34359296 0 297
0.01850000 0.01844180 81528.94870306 0 4461.76670833 0 15371.06802660 0 3238.48532332 0 36869.68963119 0 388
0.01950000 0.01947590 83067.96319159 0 2815.94399318 0 4366.64860330 0 -7967.52769571 0 27210.92076883 0 399
0.02050000 0.02045430 72264.02824433 0 2895.77842882 0 3738.94231202 0 615.83094671 0 20747.96939513 0 462
0.02150000 0.02154770 76483.00865146 0 -1063.80882793 0 9428.94817040 0 6347.11491277 0 28177.07493499 0 571
0.02250000 0.02255340 73809.58653906 0 1471.91274700 0 14325.16815439 0 373.13337509 0 9608.19300428 0 510
0.02350000 0.02348930 86175.93840042 0 -4779.48513611 0 -5869.87179929 0 13095.48714874 0 29578.78040531 0 555
0.02450000 0.02439640 73228.18599504 0 673.55840859 0 13021.95251297 0 -3421.16842825 0 2151.04891853 0 592
0.02550000 0.02547300 76981.55795428 0 10112.02171685 0 8428.96585354 0 -17483.94104524 0 23537.40542761 0 837
0.02650000 0.02652900 64295.66870885 0 5632.02108073 0 34482.64222399 0 -5566.90466345 0 12022.41384400 0 723
0.02750000 0.02749970 57684.76076786 0 5578.98297693 0 35736.72386293 0 -1819.16703225 0 16264.90758866 0 826
0.02850000 0.02848090 56379.10506311 0 625.01113043 0 34314.61059023 0 8969.32896886 0 6866.03874439 0 831
0.02950000 0.02946900 52993.18445876 0 -1649.88209323 0 31033.27997310 0 15734.52655060 0 23915.72615551 0 996
0.03050000 0.03053250 54866.59853528 0 668.57291556 0 19584.72465920 0 7615.94784365 0 16557.71518809 0 1041
0.03150000 0.03150510 52718.78824626 0 245.23745572 0 18607.25747216 0 11185.91577016 0 26371.53898379 0 1036
0.03250000 0.03246190 53360.30307775 0 -819.35773807 0 12512.20110123 0 4697.31045792 0 28206.57751887 0 1059
0.03350000 0.03345080 53961.66777628 0 -1330.05633803 0 4276.63244887 0 5564.61987688 0 29075.90553567 0 1302
0.03450000 0.03451200 53738.51289368 0 1103.56744163 0 4014.32564105 0 112.14863794 0 25161.04574886 0 1339
0.03550000 0.03553350 52510.16283167 0 2224.76101345 0 8723.80314202 0 -3915.99108890 0 19475.14363335 0 1365
0.03650000 0.03647120 49422.15177734 0 2164.15871332 0 6282.32014020 0 -2907.11363210 0 20387.50549431 0 1308
0.03750000 0.03744890 49130.34238563 0 1307.09756035 0 15471.33244701 0 -635.59878703 0 12006.88616827 0 1579
0.03850000 0.03847530 48084.66433735 0 366.15590309 0 17181.48410446 0 -3669.93288461 0 10999.19546954 0 1662
0.03950000 0.03950240 45113.99814674 0 2643.22078311 0 17470.18796102 0 -3218.70971916 0 9103.07771286 0 1683
0.04050000 0.04050350 43477.60294900 0 2319.89020967 0 22965.76513690 0 -1875.39940078 0 8046.54138277 0 1822
0.04150000 0.04152450 41196.58738463 0 1196.18559087 0 22152.00401681 0 2901.15765934 0 10873.04419545 0 1887
0.04250000 0.04250150 41945.02135470 0 188.93743089 0 26294.78790091 0 5157.87241120 0 9283.77549354 0 1920
0.04350000 0.04349210 39129.52100939 0 -19.94041935 0 20080.16842688 0 4479.19097874 0 11889.43039259 0 2005
0.04450000 0.04448520 40407.55963373 0 -133.81972766 0 17666.83488292 0 4572.92268415 0 14548.43394895 0 2151
0.04550000 0.04548030 40517.69521943 0 -701.02686695 0 14596.23700780 0 1401.84965588 0 13227.02874454 0 2274
0.04650000 0.04648670 39542.44627177 0 1073.55022621 0 15559.61837472 0 -367.51790208 0 7828.15571486 0 2311
0.04750000 0.04749250 38529.48725449 0 1866.83699673 0 15161.77714019 0 -3334.04707623 0 5349.21774095 0 2568
0.04850000 0.04851840 36274.64691492 0 633.90737950 0 13780.36856029 0 -2018.99712767 0 3241.50212889 0 2493
0.04950000 0.04949480 36080.77279226 0 -481.74281209 0 16277.10790530 0 2966.39607979 0 -759.75697303 0 2644
0.05050000 0.05050630 37920.46963006 0 -1083.78518275 0 10225.42920564 0 2100.37323968 0 -2000.98502382 0 2829
0.05150000 0.05149060 37166.04641365 0 321.53712689 0 10101.38525897 0 2966.19643824 0 -4600.06284308 0 2784
0.05250000 0.05249300 37486.47109348 0 708.92934478 0 9180.23917003 0 1025.17264336 0 1413.41777429 0 3055
0.05350000 0.05348950 34222.11000768 0 496.14473132 0 5336.50722924 0 1838.42135015 0 -88.66247384 0 3009
0.05450000 0.05448610 35485.84098796 0 60.72219596 0 6455.93064603 0 2973.94918491 0 4304.49353561 0 3336
0.05550000 0.05550870 34418.75692957 0 0.22024788 0 4291.76084151 0 1310.30291627 0 2710.43343662 0 3349
0.05650000 0.05647670 34646.12646701 0 788.13712778 0 4323.13783768 0 1003.34849513 0 3627.80851860 0 3324
0.05750000 0.05747970 32590.92767250 0 819.52410603 0 4113.42548578 0 -2223.56316418 0 3680.95753437 0 3639
0.05850000 0.05849280 31315.99458331 0 1634.72042700 0 5874.61883158 0 -1880.29061863 0 2717.22124915 0 3846
0.05950000 0.05951020 30702.09683222 0 902.44744001 0 7382.75542781 0 -103.72265562 0 2790.37878422 0 3787
0.06050000 0.06049470 28911.64490887 0 153.95025012 0 6771.06482492 0 -1417.69897632 0 -474.49915136 0 3930
0.06150000 0.06148310 29261.90490850 0 56.25288724 0 7765.45717851 0 1275.33237229 0 -1436.01054248 0 4083
0.06250000 0.06249100 29508.01856878 0 -430.09776262 0 6006.55971048 0 206.33286419 0 -3359.02445175 0 4303
0.06350000 0.06350600 30123.02543956 0 -338.06966506 0 4304.95936588 0 -880.04654953 0 -5991.37586185 0 4470
0.06450000 0.06451750 30240.48121524 0 4.80584891 0 3843.48793445 0 -855.16677654 0 -7275.75865085 0 4479
0.06550000 0.06550280 29639.11651670 0 572.78268400 0 4816.80701384 0 -2041.78953740 0 -8274.34347689 0 4636
0.06650000 0.06648880 29924.60392615 0 -210.52644575 0 5113.57417058 0 1328.65884722 0 -9308.58650111 0 4653
0.06750000 0.06749660 29659.08067121 0 232.71438525 0 4865.10917655 0 -951.15886789 0 -9449.32269919 0 5220
0.06850000 0.06852730 29598.85547178 0 755.18629077 0 5780.57657266 0 -953.05878992 0 -7843.41720186 0 5029
0.06950000 0.06949320 28556.50478259 0 261.06570289 0 6501.12727359 0 545.88874964 0 -6822.37270200 0 5040
0.07050000 0.07048030 28662.86936132 0 47.78376016 0 8092.32584377 0 -322.73941264 0 -4891.93878197 0 5475
0.07150000 0.07148790 29008.13832232 0 574.34876101 0 8352.54750657 0 24.37290529 0 -7337.94699214 0 5509
0.07250000 0.07249820 28261.03529589 0 524.91640533 0 11462.86295796 0 -1414.48252920 0 -1872.00549451 0 5916
0.07350000 0.07351270 27019.70853344 0 579.40745593 0 10124.52149581 0 409.83525491 0 -3195.55129993 0 5721
0.07450000 0.07449140 28103.20756331 0 22.65498980 0 11924.47857494 0 1145.41009124 0 -267.37326659 0 6028
0.07550000 0.07549160 26895.37621565 0 -65.61152831 0 8969.20696569 0 1814.03180806 0 -1212.12364088 0 6183
0.07650000 0.07648840 27589.79605658 0 208.26938717 0 10912.29594145 0 547.17200112 0 277.53058476 0 6330
0.07750000 0.07749960 26698.28564588 0 436.62604114 0 8573.16250507 0 71.54598415 0 835.34237111 0 6583
0.07850000 0.07848650 26203.61826199 0 559.07951017 0 10635.12692971 0 -281.53339774 0 -713.99136706 0 6549
0.07950000 0.07947320 25757.19758483 0 254.09710384 0 8605.55989135 0 -107.35213891 0 208.54001238 0 6828
0.08050000 0.08048110 25380.76236040 0 -208.56441301 0 8928.14735459 0 1315.82633235 0 -2128.23432641 0 7147
0.08150000 0.08149960 24850.93588219 0 769.43071501 0 8971.30320192 0 -508.33617501 0 -2287.79228571 0 7386
0.08250000 0.08250610 24165.83264670 0 898.51117421 0 8528.33188700 0 -948.48588942 0 -2445.94166299 0 7227
0.08350000 0.08350160 23085.99371182 0 422.84855629 0 9169.25888505 0 159.61008792 0 -2829.85235416 0 7798
0.08450000 0.08449610 22683.38326260 0 317.08733867 0 8474.98322968 0 975.60830244 0 -1270.27478648 0 7371
0.08550000 0.08548940 22716.43502950 0 -153.76724537 0 8327.53685745 0 1685.50701783 0 -1810.85972574 0 8256
0.08650000 0.08650700 22166.20074890 0 -49.23105045 0 6618.39449893 0 1438.88316249 0 -254.64279073 0 8037
0.08750000 0.08749060 22752.48141958 0 212.71806627 0 7342.49438289 0 741.29678483 0 708.98812812 0 8155
0.08850000 0.08849210 21949.14602462 0 129.53298004 0 5756.89686717 0 352.43720159 0 1544.17189512 0 8718
0.08950000 0.08949900 21867.84755099 0 295.35857473 0 6006.44879851 0 248.12227605 0 2299.00548582 0 8571
0.09050000 0.09049190 21482.53936901 0 289.08095726 0 6572.54349074 0 -712.70589734 0 1433.75902950 0 8932
0.09150000 0.09150830 21504.05629109 0 309.38672063 0 5973.70758512 0 124.12491241 0 1282.47510312 0 9285
0.09250000 0.09250820 20864.42696309 0 374.27687750 0 7165.39015002 0 -12.82974207 0 695.75965752 0 9204
0.09350000 0.09350330 19823.62904147 0 886.57704630 0 6737.62486612 0 -880.61663706 0 283.40226442 0 9349
0.09450000 0.09448040 19291.25158795 0 626.72028388 0 6835.85959749 0 139.69695292 0 -104.09354525 0 9564
0.09550000 0.09549270 18240.36067711 0 122.80727821 0 6803.92804148 0 1092.26662106 0 1404.52263434 0 10155
0.09650000 0.09649430 18071.88539546 0 55.42237841 0 6150.73417961 0 786.04532804 0 -175.44055333 0 9913
0.09750000 0.09749140 18043.38101931 0 81.62366752 0 5013.60921249 0 836.63227732 0 406.34707347 0 10476
0.09850000 0.09850240 17812.57321081 0 183.75673280 0 4052.54590573 0 309.33237377 0 -296.34680038 0 10575
0.09950000 0.09950330 17210.76486440 0 18.80290619 0 3859.82526756 0 105.07178882 0 -16.14811728 0 10882
0.10050000 0.10051200 17457.87673241 0 231.33242211 0 3591.67339894 0 332.25676874 0 106.42890768 0 10875
0.10150000 0.10150300 16919.84276845 0 233.35989291 0 3610.22897143 0 -57.26662264 0 -1480.46405985 0 11118
0.10250000 0.10250800 16897.99311046 0 119.32242413 0 3121.41773953 0 416.80385396 0 405.17584307 0 11575
0.10350000 0.10349800 16550.17317417 0 -25.68998493 0 3154.91315432 0 612.95278110 0 -826.55259753 0 11364
0.10450000 0.10450100 16707.11361099 0 84.93394617 0 3087.86686876 0 65.22466737 0 -103.70712794 0 12093
0.10550000 0.10551000 16440.81397226 0 267.44092289 0 2824.26239090 0 -274.65020091 0 -644.05138823 0 12067
0.10650000 0.10649700 15869.17368155 0 542.96178276 0 4091.03235914 0 -1118.21447632 0 -39.22956361 0 12054
0.10750000 0.10749900 15672.41584769 0 459.04245929 0 4509.05957212 0 -1099.80974410 0 -953.82186427 0 12807
0.10850000 0.10850100 15117.52326437 0 117.82067606 0 4608.46997037 0 432.79957819 0 -790.98867452 0 12736
0.10950000 0.10950300 15147.80223204 0 -141.56249225 0 4847.00834313 0 568.32291370 0 -557.76409421 0 12933
0.11050000 0.11050200 15175.53022441 0 146.64336957 0 4865.65264520 0 129.69934799 0 -1063.11562812 0 13428
0.11150000 0.11150900 15352.65663967 0 345.35436321 0 5070.93960952 0 -136.09785951 0 -350.55835282 0 13453
0.11250000 0.11250000 14560.63426560 0 213.25709844 0 5225.76162772 0 -310.71988250 0 -395.72836151 0 13668
0.11350000 0.11349100 14476.23025682 0 187.33364381 0 5805.98650486 0 83.54311007 0 1067.89038841 0 13791
0.11450000 0.11448600 14355.89076993 0 28.57602529 0 5711.27877412 0 -240.73110240 0 -768.68316833 0 14205
0.11550000 0.11549300 14622.96679245 0 59.04886708 0 5535.82712960 0 504.44094664 0 104.64133946 0 14776
0.11650000 0.11649800 14558.74876211 0 -15.39058853 0 6622.01022913 0 -145.76938325 0 75.86123615 0 14553
0.11750000 0.11747300 14422.99251147 0 85.73173596 0 4598.09970122 0 214.63906158 0 -89.40159121 0 14568
0.11850000 0.11849100 14378.62772368 0 188.53482044 0 6086.23886935 0 232.62232831 0 124.98891665 0 16015
0.11950000 0.11950300 14071.95612806 0 166.26147873 0 4847.58508537 0 -310.35387301 0 -363.94875490 0 15270
0.12050000 0.12050700 13949.84204966 0 102.26094677 0 5877.68000194 0 1036.11521827 0 69.68987234 0 15999
0.12150000 0.12150000 13755.96792700 0 45.13451686 0 4841.79548056 0 -205.52986153 0 -31.71450129 0 15670
0.12250000 0.12250700 13578.84151174 0 306.11149017 0 4947.96041775 0 26.64216419 0 -28.44969656 0 16887
0.12350000 0.12352200 13334.16970706 0 156.51675309 0 4856.38040455 0 73.40176323 0 -540.32873261 0 16407
0.12450000 0.12449800 13193.42241779 0 79.39411511 0 4925.65602069 0 118.63144256 0 -282.64473567 0 16306
0.12550000 0.12549900 13047.90591383 0 11.29250217 0 4710.57552947 0 14.98387434 0 -351.50886840 0 17523
0.12650000 0.12650100 13042.47122732 0 103.86539933 0 4479.65680901 0 452.77815126 0 -196.60144798 0 17154
0.12750000 0.12750600 12883.09072718 0 78.28410812 0 4074.97230596 0 155.74591491 0 -417.43161570 0 18007
0.12850000 0.12850300 12899.06205078 0 -44.01718968 0 4200.62447619 0 345.08041065 0 -412.01245687 0 17496
0.12950000 0.12949900 12864.67934024 0 68.08808168 0 4085.10965997 0 -76.21548898 0 -863.76578153 0 18405
0.13050000 0.13049000 12698.08956208 0 97.20413735 0 3972.78910847 0 -259.46746141 0 -790.65039301 0 18100
0.13150000 0.13148800 12649.39920748 0 151.92056108 0 4249.40356036 0 -263.15528439 0 -1068.33514540 0 19059
0.13250000 0.13249300 12506.43367882 0 92.69900406 0 4003.12353213 0 -213.56099724 0 -1858.61841980 0 18957
0.13350000 0.13349100 12688.77295664 0 -4.12971845 0 3527.82137811 0 246.10035084 0 -2294.32500071 0 19468
0.13450000 0.13450700 12299.58285573 0 82.44419428 0 3954.54408949 0 4.94656293 0 -2012.09840316 0 19953
0.13550000 0.13551000 12158.83556646 0 131.96971601 0 3370.55929658 0 185.85962374 0 -2148.63103760 0 19956
0.13650000 0.13649900 12197.32201987 0 158.64848115 0 3434.52222938 0 357.44931349 0 -1868.81122979 0 19723
0.13750000 0.13749600 11925.14404676 0 44.68942713 0 3194.70836897 0 255.73194627 0 -2513.77542353 0 20946
0.13850000 0.13851100 11719.62416731 0 197.20813646 0 3149.80011252 0 93.79481432 0 -1614.19062145 0 20955
0.13950000 0.13949800 11491.03459821 0 176.79146112 0 3033.93037800 0 -17.88300231 0 -1584.21111610 0 20506
0.14050000 0.14048300 11428.48024742 0 16.98372806 0 2517.28024176 0 518.84619324 0 -1137.03623754 0 21447
0.14150000 0.14148400 11360.04756225 0 -43.20254126 0 2638.54029800 0 386.95078825 0 -1309.63744445 0 21771
0.14250000 0.14249400 11335.53601699 0 191.65810150 0 2408.43123491 0 -112.78194529 0 -1208.72973461 0 22470
0.14350000 0.14350900 10987.64953351 0 135.27932918 0 2691.78913455 0 -20.51183781 0 -1189.66396706 0 22519
0.14450000 0.14449900 10968.00702372 0 257.69176078 0 2573.98953176 0 -332.78249147 0 -1289.42928361 0 22218
0.14550000 0.14550500 10579.89276891 0 117.49681311 0 2733.74713260 0 -50.50043794 0 -1196.48505318 0 23559
0.14650000 0.14650700 10569.89960046 0 -8.73778914 0 2662.85220171 0 330.17162371 0 -1421.51434807 0 23044
0.14750000 0.14750500 10615.40678154 0 -25.14629446 0 2265.72080378 0 381.02697996 0 -1227.51822224 0 23649
0.14850000 0.14849900 10558.37584683 0 197.46434311 0 1988.44088007 0 126.78569055 0 -1467.94209849 0 23640
0.14950000 0.14949500 10338.96978880 0 194.08263716 0 2095.04946514 0 -32.45184406 0 -365.32739068 0 24457
0.15050000 0.15050000 10005.41313178 0 140.83158237 0 2257.13621734 0 196.69794140 0 -796.33684969 0 24591
0.15150000 0.15149900 10015.55048579 0 -28.29575074 0 1925.83107330 0 589.23647467 0 206.08109402 0 25020
0.15250000 0.15250500 9816.03094389 0 39.03191848 0 2168.26245620 0 170.83216099 0 161.43791718 0 25297
0.15350000 0.15350100 9967.52560300 0 259.71146774 0 1965.64847035 0 -147.36984297 0 306.79359878 0 25452
0.15450000 0.15450400 9560.65613416 0 116.55406137 0 2325.29162259 0 -221.08637437 0 895.16496009 0 26061
0.15550000 0.15549900 9450.08799178 0 188.24201284 0 2396.27528306 0 -59.58080089 0 720.00834141 0 26128
0.15650000 0.15649500 9390.39516980 0 4.48936161 0 2672.15771595 0 277.05920889 0 1140.46341740 0 26331
0.15750000 0.15749700 9322.67232124 0 -25.02551132 0 2374.33689549 0 334.93307456 0 714.63909296 0 27345
0.15850000 0.15849900 9400.92071571 0 120.77869829 0 2579.74586297 0 -31.32398025 0 1178.32876378 0 26980
0.15950000 0.15949700 9094.01620495 0 160.04264460 0 2229.45258976 0 -174.78506359 0 849.57792240 0 27777
0.16050000 0.16050000 8985.32247486 0 106.00799675 0 2447.76061929 0 -14.08881475 0 1207.45424697 0 28224
0.16150000 0.16150500 9077.47923030 0 -6.93773224 0 2206.38290011 0 79.08001242 0 580.25704162 0 28075
0.16250000 0.16249700 9020.53702517 0 -47.20369056 0 2097.71135241 0 383.98278395 0 739.83385595 0 28590
0.16350000 0.16349900 9060.25460144 0 -22.51257883 0 1817.18170800 0 139.84668408 0 642.53522160 0 29163
0.16450000 0.16449100 9010.74349827 0 146.01228046 0 1613.52514963 0 -71.74551479 0 626.09252213 0 28996
0.16550000 0.16550500 8729.60383802 0 167.75768120 0 1949.30004604 0 -112.47582825 0 247.25050797 0 30777
0.16650000 0.16650700 8607.47866843 0 140.60088547 0 2045.84891548 0 55.11936691 0 565.65658996 0 29211
0.16750000 0.16749900 8578.15354369 0 -11.97549808 0 1806.23469661 0 125.47914755 0 636.45170008 0 30922
0.16850000 0.16850800 8685.23905023 0 19.16836113 0 2029.64467674 0 42.76576993 0 236.37780760 0 30867
0.16950000 0.16949900 8498.59638798 0 226.51329703 0 2027.64826129 0 -279.53143669 0 615.27084127 0 30852
0.17050000 0.17049200 8241.12534203 0 151.38263803 0 2370.51043255 0 -350.66150095 0 117.19291431 0 31257
0.17150000 0.17149500 8137.50028894 0 253.88193462 0 2696.00378939 0 -564.69941966 0 34.19072192 0 32608
0.17250000 0.17250900 7965.26509153 0 100.77428274 0 2927.01123942 0 -49.62900260 0 156.74412263 0 32361
0.17350000 0.17350400 7939.94388890 0 -86.54527526 0 2912.75905135 0 403.20937386 0 0.35253591 0 32508
0.17450000 0.17449800 8014.87601548 0 -79.41696298 0 2511.23553943 0 424.58321949 0 15.79264442 0 32791
0.17550000 0.17549800 8103.15085199 0 34.10687247 0 2497.83737351 0 110.13225834 0 41.96476369 0 33633
0.17650000 0.17650100 7938.91240758 0 109.66820266 0 2339.33307793 0 114.81274345 0 556.93780004 0 33984
0.17750000 0.17750300 8008.83131315 0 -6.74251608 0 2007.95029551 0 217.98638482 0 333.72967969 0 34069
0.17850000 0.17849800 7814.11425952 0 47.02556594 0 2157.20453284 0 99.02287183 0 19.55832761 0 34536
