### header ###
fiducial parameters:
Omega_m = 0.31
Omega_nu = 0
Omega_de = 0.69
Omega_k = 0
H_0 = 100
w_de = -1
zeff = 0
beta = 0
fgrowth = 0
b_1 = 2
gamma = 0.55
Lx = 3500 Ly = 3500 Lz = 3500
nx = 700 ny = 700 nz = 700
xoffset = 1379.75464 yoffset = 22.6059522 zoffset = 368.141391
bins = 400 dk = 0.001
kx_ny = 0.628318531 ky_ny = 0.628318531 kz_ny = 0.628318531
############################
A(data) = 3.33852418 (not used)
A(ran) = 3.33719261 (used)
Ngal = 187410
weighted Ngal = 0
Nran = 9399747
weighted Nran = 0
SN(data) = 6621.30351
SN(ran) = 132.738114
SN(data+ran) = 6754.04163
############################
13 columns: k_central k_mean P_0(k) sigma^{lin}_{P_0(k)} P^img_1(k) sigma^{lin}_{P_1(k)} P_2(k) sigma^{lin}_{P_2(k)} P^img_3(k) sigma^{lin}_{P_3(k)} P_4(k) sigma^{lin}_{P_4(k)} N_modes
### header ###
0.00050000 0 0 0 0 0 0 0 0 0 0 0 0
0.00150000 0.00179520 7065.56937749 0 -16956.11098247 0 -24878.22022668 0 21896.90648700 0 33363.65136389 0 3
0.00250000 0.00253879 19740.77780026 0 -20783.12848946 0 -27326.38012906 0 -2806.48320219 0 3573.23982961 0 6
0.00350000 0.00331552 40923.41120380 0 -24794.70351366 0 -52240.97948173 0 -2458.21961801 0 -22271.67803188 0 7
0.00450000 0.00420575 59776.44960032 0 -19868.32656517 0 -52702.70601069 0 -30058.14193741 0 -18032.17891039 0 24
0.00550000 0.00557378 63959.05088147 0 4976.74207383 0 -47927.39116463 0 -50327.08253635 0 -9438.43114379 0 45
0.00650000 0.00659388 65515.58946118 0 4018.98394376 0 -39212.37225059 0 -31287.82294306 0 -19513.07552692 0 40
0.00750000 0.00754703 46565.83582727 0 5341.34299111 0 -11573.77492744 0 -33366.42416312 0 -15827.91442890 0 57
0.00850000 0.00846663 54753.57923838 0 -2784.46717625 0 -17535.18237514 0 -2846.52242317 0 -33146.04207976 0 75
0.00950000 0.00948925 50804.78038891 0 -796.47105317 0 -1596.28942958 0 -9674.76236836 0 -23369.37379384 0 112
0.01050000 0.01054430 50413.48296057 0 1107.71000369 0 -3671.54110816 0 -4249.32592198 0 -7395.41048353 0 105
0.01150000 0.01145670 52248.52149566 0 563.91970852 0 6535.63198730 0 271.43153555 0 -7054.15653583 0 144
0.01250000 0.01249090 57777.48317435 0 -3840.23821375 0 -3775.73181230 0 10658.51826408 0 6501.61528626 0 169
0.01350000 0.01339930 60074.02641444 0 -6823.55946008 0 1199.25785242 0 20969.34968622 0 27614.41851381 0 180
0.01450000 0.01448870 66804.05381066 0 -1906.69875857 0 -5644.96450757 0 254.27789035 0 12876.32509704 0 267
0.01550000 0.01550050 74810.45615167 0 -448.94281535 0 -6741.88388575 0 -2880.92731610 0 8817.26865870 0 238
0.01650000 0.01653350 73376.80803414 0 -453.61331839 0 3810.23652600 0 -4822.26388274 0 12344.28037943 0 315
0.01750000 0.01747870 75351.37382683 0 -2585.70183574 0 2012.25367992 0 -3277.07159750 0 6290.63853791 0 297
0.01850000 0.01844180 78883.03275909 0 -1558.91209586 0 7529.08158915 0 -4342.56961473 0 -193.16872253 0 388
0.01950000 0.01947590 80844.84367529 0 -1549.79513197 0 11484.49079201 0 -1864.31929503 0 -16260.13837397 0 399
0.02050000 0.02045430 81545.91823439 0 -343.66961040 0 4049.47364417 0 883.84195713 0 517.42541091 0 462
0.02150000 0.02154770 82374.65247036 0 -2572.54767616 0 2280.54973410 0 4801.22388213 0 -7294.43622651 0 571
0.02250000 0.02255340 86589.75095856 0 406.86392325 0 3298.04505093 0 3050.95536532 0 -8601.02359180 0 510
0.02350000 0.02348930 85245.38697647 0 2458.76308666 0 1467.08807633 0 -5933.14707788 0 -17203.22285048 0 555
0.02450000 0.02439640 79892.10985744 0 4527.17149673 0 11464.74846144 0 -14188.63551995 0 -16682.60206573 0 592
0.02550000 0.02547300 71869.51436888 0 6032.39110817 0 15879.15575880 0 -5503.17464578 0 -4961.30312768 0 837
0.02650000 0.02652900 69727.80423818 0 2854.75209131 0 24333.42063258 0 3980.58621993 0 -9889.58776205 0 723
0.02750000 0.02749970 66123.16523000 0 -786.80951151 0 18999.10946034 0 10748.32368577 0 -2709.11358418 0 826
0.02850000 0.02848090 64814.29307815 0 3063.46623548 0 22779.87667605 0 7373.66064631 0 7105.46441291 0 831
0.02950000 0.02946900 62383.10270709 0 151.44585785 0 17833.75739699 0 3051.26591883 0 15742.40130043 0 996
0.03050000 0.03053250 61486.60125777 0 649.86650279 0 17351.62306565 0 6603.23283270 0 26425.22037702 0 1041
0.03150000 0.03150510 59600.76504066 0 2755.13096032 0 18596.38809915 0 3586.52708356 0 25589.60959894 0 1036
0.03250000 0.03246190 59016.92443331 0 2682.00669884 0 18771.73992290 0 -3323.38843596 0 42889.99133469 0 1059
0.03350000 0.03345080 54321.46620528 0 1723.98238004 0 26753.63071866 0 3674.73537289 0 27011.94469558 0 1302
0.03450000 0.03451200 54907.63596399 0 1605.91658853 0 23093.42481377 0 3206.14339302 0 40417.09806311 0 1339
0.03550000 0.03553350 51455.05726598 0 1141.65017547 0 27205.26425839 0 2326.15673595 0 30913.60595802 0 1365
0.03650000 0.03647120 49917.04098517 0 2148.55339922 0 29966.30682668 0 2948.73889425 0 38255.75651381 0 1308
0.03750000 0.03744890 48710.42966917 0 687.16508900 0 26326.50872418 0 5759.14838015 0 38501.20470227 0 1579
0.03850000 0.03847530 48090.43175977 0 -825.88823483 0 24913.60114494 0 6139.87589779 0 38164.69778686 0 1662
0.03950000 0.03950240 48052.16713030 0 -241.42208397 0 20324.06384777 0 6484.03573910 0 31598.93101746 0 1683
0.04050000 0.04050350 49295.49030819 0 717.02037295 0 18882.09733253 0 3086.90193463 0 33120.86506269 0 1822
0.04150000 0.04152450 45518.38318747 0 1476.30486099 0 13266.18066977 0 -330.27144448 0 28500.38332603 0 1887
0.04250000 0.04250150 44542.24694406 0 1494.52769758 0 13988.88306292 0 -1265.41684222 0 25221.49277223 0 1920
0.04350000 0.04349210 43924.35636208 0 249.94123235 0 15895.79255422 0 539.43589125 0 20800.76349261 0 2005
0.04450000 0.04448520 41860.95008183 0 135.99138402 0 14705.59620971 0 1099.32505880 0 13160.59247482 0 2151
0.04550000 0.04548030 41232.85559865 0 1333.47242669 0 11275.53264150 0 -39.62840305 0 12157.39371086 0 2274
0.04650000 0.04648670 39655.90921655 0 755.22178260 0 13162.25615436 0 -1765.58545979 0 6067.51692890 0 2311
0.04750000 0.04749250 38817.08199136 0 929.16058786 0 13168.57813662 0 -2394.37868838 0 3724.23538487 0 2568
0.04850000 0.04851840 39336.03909657 0 1296.79383838 0 15105.98841954 0 -1869.82052871 0 1975.20908212 0 2493
0.04950000 0.04949480 37011.54604016 0 -357.09550430 0 13063.76632546 0 1967.97762170 0 -2888.76879235 0 2644
0.05050000 0.05050630 37341.39823740 0 -339.30189704 0 13008.53216466 0 3436.11936174 0 -456.40940914 0 2829
0.05150000 0.05149060 38457.28356236 0 37.28527678 0 8581.81363869 0 541.02525978 0 -1998.98860837 0 2784
0.05250000 0.05249300 36748.01920067 0 861.19595120 0 10252.07026071 0 -754.36886955 0 -2875.47044721 0 3055
0.05350000 0.05348950 36242.70426771 0 1509.87791415 0 10768.17692830 0 -1607.31407934 0 -5295.94672200 0 3009
0.05450000 0.05448610 34083.91369370 0 680.26747362 0 11715.85316035 0 -1783.38683090 0 217.19558248 0 3336
0.05550000 0.05550870 33475.22880519 0 546.59858624 0 11417.16722653 0 1019.65699112 0 -7450.11226688 0 3349
0.05650000 0.05647670 33213.03290933 0 605.83001442 0 14826.60116841 0 771.51696915 0 -2148.49794323 0 3324
0.05750000 0.05747970 31548.35515937 0 408.12277410 0 10877.53613021 0 6.83425137 0 -5515.72988073 0 3639
0.05850000 0.05849280 32241.77679257 0 496.83571289 0 13424.11931431 0 447.48986855 0 -44.28249111 0 3846
0.05950000 0.05951020 31904.93714126 0 -224.14865384 0 12016.20277370 0 865.76885170 0 -1049.71635309 0 3787
0.06050000 0.06049470 32221.59081413 0 -74.44843948 0 11511.66422453 0 2296.98688798 0 1247.31600880 0 3930
0.06150000 0.06148310 32848.24344170 0 -221.18841338 0 13572.74135342 0 751.22562434 0 1777.38649335 0 4083
0.06250000 0.06249100 32082.28538046 0 621.47969332 0 11162.95699248 0 231.39896929 0 679.85044462 0 4303
0.06350000 0.06350600 31332.63137873 0 896.42159271 0 12375.11390695 0 706.86970950 0 3398.66438965 0 4470
0.06450000 0.06451750 29968.19233016 0 1060.80755004 0 12166.37758038 0 -1949.57732597 0 1108.28785505 0 4479
0.06550000 0.06550280 29497.03828380 0 919.13303670 0 15049.42331510 0 -496.44419364 0 2687.65211808 0 4636
0.06650000 0.06648880 28032.55663875 0 473.56527258 0 13930.87610288 0 505.87392929 0 -411.53664452 0 4653
0.06750000 0.06749660 27619.29864046 0 -138.88951378 0 12486.02587643 0 1785.78252944 0 1567.38577033 0 5220
0.06850000 0.06852730 28935.04733443 0 -1218.26816399 0 10702.77213990 0 3573.70565988 0 2083.70317066 0 5029
0.06950000 0.06949320 28798.84743591 0 -461.16864175 0 8495.03611376 0 1999.35461787 0 119.86034718 0 5040
0.07050000 0.07048030 29868.03882172 0 630.24950274 0 6665.95355144 0 -248.62803463 0 1966.52467490 0 5475
0.07150000 0.07148790 28282.44130600 0 700.83720748 0 6706.68042664 0 -689.44654822 0 154.88634714 0 5509
0.07250000 0.07249820 27746.18193355 0 377.92255393 0 8858.05098988 0 -700.10851584 0 1910.11484723 0 5916
0.07350000 0.07351270 27554.08240241 0 676.56301384 0 10039.44092402 0 -1255.49022095 0 51.13407803 0 5721
0.07450000 0.07449140 26453.94657711 0 1270.91807590 0 11217.41476949 0 -1331.12109294 0 -1016.22870214 0 6028
0.07550000 0.07549160 25190.43742077 0 798.35433841 0 11927.14046221 0 -961.60566629 0 420.35969170 0 6183
0.07650000 0.07648840 24660.72185453 0 567.28588679 0 14186.86092844 0 -214.45162035 0 -211.90951801 0 6330
0.07750000 0.07749960 24069.33923325 0 300.65240303 0 14737.76068086 0 603.28458472 0 1662.75897289 0 6583
0.07850000 0.07848650 23701.88787835 0 -136.86980682 0 12847.04433710 0 2107.52706171 0 176.70716802 0 6549
0.07950000 0.07947320 24028.52362848 0 -26.69695470 0 13547.45342438 0 2018.56457099 0 4449.05619663 0 6828
0.08050000 0.08048110 24215.41029705 0 -21.08469813 0 11322.33749262 0 805.40612143 0 1555.24090967 0 7147
0.08150000 0.08149960 24045.93680769 0 135.87048997 0 12108.03788444 0 283.22591439 0 4756.01616337 0 7386
0.08250000 0.08250610 23583.21207101 0 -4.24888227 0 9688.84818848 0 1076.03132697 0 2874.41678350 0 7227
0.08350000 0.08350160 23724.73574407 0 71.47145131 0 10284.98893325 0 1178.61713490 0 3433.52402166 0 7798
0.08450000 0.08449610 23698.00595942 0 65.66764977 0 8094.75481590 0 262.55303240 0 3191.05936517 0 7371
0.08550000 0.08548940 22918.51663790 0 585.08282141 0 8977.12608032 0 834.19332311 0 1953.37051532 0 8256
0.08650000 0.08650700 22441.48425716 0 317.29474406 0 9137.11659629 0 -637.88690096 0 3533.88826284 0 8037
0.08750000 0.08749060 22019.57512525 0 87.76475236 0 7083.24874542 0 1360.88986555 0 1976.95040004 0 8155
0.08850000 0.08849210 22222.32220546 0 -11.70387467 0 7698.07815705 0 238.87110867 0 1780.83585560 0 8718
0.08950000 0.08949900 21291.32713362 0 488.44300416 0 6875.22225546 0 -280.05161382 0 747.00875126 0 8571
0.09050000 0.09049190 20922.21209919 0 624.52089952 0 7893.44959129 0 -342.12460666 0 2227.97746057 0 8932
0.09150000 0.09150830 20512.61419589 0 329.78675918 0 8090.37379311 0 89.05000027 0 1095.53963328 0 9285
0.09250000 0.09250820 20045.23115649 0 155.26012048 0 7468.60129219 0 225.76796860 0 -28.28798690 0 9204
0.09350000 0.09350330 20144.83010509 0 29.71664398 0 7801.34829183 0 894.98750094 0 1352.78220058 0 9349
0.09450000 0.09448040 19404.38179682 0 220.05711129 0 6637.79300239 0 151.15637761 0 336.86294283 0 9564
0.09550000 0.09549270 19390.62871261 0 477.55144876 0 6607.73585866 0 47.41264871 0 1095.58177983 0 10155
0.09650000 0.09649430 18663.48984068 0 188.82540980 0 7550.97561193 0 258.88295533 0 -294.37256732 0 9913
0.09750000 0.09749140 18375.22963200 0 396.58016544 0 5927.16892272 0 28.04253872 0 690.00776278 0 10476
0.09850000 0.09850240 17859.82170981 0 141.87082752 0 6353.14852391 0 348.38225998 0 -354.54785637 0 10575
0.09950000 0.09950330 17441.01811305 0 351.65638132 0 4917.77017966 0 464.93521223 0 -585.41888468 0 10882
0.10050000 0.10051200 17318.90403465 0 343.92692617 0 6074.41565341 0 344.55690615 0 178.89989766 0 10875
0.10150000 0.10150300 16454.34523254 0 242.16852153 0 4753.64264722 0 170.29312882 0 -292.70001482 0 11118
0.10250000 0.10250800 16445.58318695 0 245.32507618 0 5065.30528147 0 500.86403563 0 1080.12176040 0 11575
0.10350000 0.10349800 15995.61332676 0 94.20374675 0 4458.47262284 0 686.19793663 0 384.25895475 0 11364
0.10450000 0.10450100 16147.45181298 0 10.33646318 0 5316.98672261 0 707.55181811 0 2506.03376806 0 12093
0.10550000 0.10551000 15578.80614544 0 246.06485901 0 4571.79138206 0 138.81742100 0 2248.84000202 0 12067
0.10650000 0.10649700 15798.07910911 0 111.62291521 0 4988.46546901 0 173.78131026 0 4205.09422856 0 12054
0.10750000 0.10749900 15623.83640505 0 -16.91551720 0 4789.81104047 0 428.67476205 0 3320.59345433 0 12807
0.10850000 0.10850100 15712.12233276 0 172.77312046 0 5233.86929268 0 -12.30801217 0 3757.17623980 0 12736
0.10950000 0.10950300 15276.34920466 0 187.42126427 0 5050.22125362 0 66.10453202 0 3671.24164585 0 12933
0.11050000 0.11050200 15561.17114230 0 69.45706812 0 5140.47032318 0 -86.97494823 0 3149.77793013 0 13428
0.11150000 0.11150900 15114.41772922 0 158.11166722 0 4820.15655532 0 8.83457093 0 3450.28282024 0 13453
0.11250000 0.11250000 14874.40422726 0 288.88353395 0 4961.11457733 0 -52.81017971 0 1811.83575107 0 13668
0.11350000 0.11349100 14704.04344214 0 114.11954364 0 4944.43341712 0 224.86181781 0 2663.61749430 0 13791
0.11450000 0.11448600 14370.75297384 0 218.08509647 0 5104.76776021 0 -179.98128936 0 1759.97331414 0 14205
0.11550000 0.11549300 14301.76572882 0 128.16654457 0 4626.91463089 0 40.58501878 0 1636.59483929 0 14776
0.11650000 0.11649800 14086.26377212 0 30.70509146 0 5174.39829465 0 322.53089813 0 1553.25558542 0 14553
0.11750000 0.11747300 14015.28011165 0 35.15598879 0 3988.87134405 0 116.54075193 0 961.48144489 0 14568
0.11850000 0.11849100 14036.90794570 0 -64.12575157 0 4119.73637684 0 276.14862162 0 1654.29638962 0 16015
0.11950000 0.11950300 14334.59567179 0 -67.87446523 0 4012.09631046 0 500.86181739 0 607.07111936 0 15270
0.12050000 0.12050700 14103.67695133 0 205.02410295 0 3819.27585151 0 -96.34689874 0 707.14809855 0 15999
0.12150000 0.12150000 13830.38985853 0 295.57707131 0 3680.83553121 0 -169.69864067 0 404.87194428 0 15670
0.12250000 0.12250700 13526.60197411 0 128.06117820 0 3933.54845367 0 77.26538168 0 1456.29634170 0 16887
0.12350000 0.12352200 13487.00640101 0 47.71277650 0 3497.22076573 0 475.38422888 0 851.80725298 0 16407
0.12450000 0.12449800 13466.70951059 0 -142.46198832 0 2942.71637430 0 578.68430989 0 695.57776189 0 16306
0.12550000 0.12549900 13282.04108140 0 172.51358645 0 2688.15122195 0 69.17257892 0 117.23395174 0 17523
0.12650000 0.12650100 13167.35810496 0 112.14974706 0 2567.07971606 0 -274.19768007 0 808.29205088 0 17154
0.12750000 0.12750600 13071.97381121 0 89.97877710 0 2698.16657279 0 -251.62820340 0 -480.90764496 0 18007
0.12850000 0.12850300 12897.39837124 0 154.60241250 0 2706.11896100 0 -421.58415984 0 -1130.15969543 0 17496
0.12950000 0.12949900 12894.51466003 0 31.49944298 0 3143.53358625 0 -507.83707115 0 -1528.41130425 0 18405
0.13050000 0.13049000 13057.66616714 0 14.26616299 0 3422.14445359 0 -415.59158613 0 -2200.54893051 0 18100
0.13150000 0.13148800 12786.26457782 0 25.38042962 0 3013.92185871 0 51.13618535 0 -1823.50369026 0 19059
0.13250000 0.13249300 12932.77928951 0 -2.41616180 0 3464.94538261 0 75.82197331 0 -2450.92161042 0 18957
0.13350000 0.13349100 13113.12215188 0 95.54234331 0 2846.13423128 0 276.64883460 0 -2259.12154160 0 19468
0.13450000 0.13450700 12741.34523018 0 212.29549167 0 3137.35578955 0 339.28636936 0 -1704.21786708 0 19953
0.13550000 0.13551000 12561.44601568 0 248.09454806 0 3233.13936639 0 -124.04394667 0 -1319.18696502 0 19956
0.13650000 0.13649900 11972.83619364 0 287.37069469 0 3047.06235519 0 159.07216487 0 -819.21687987 0 19723
0.13750000 0.13749600 11949.43376808 0 174.33032451 0 3484.90953712 0 48.62968576 0 -1314.53975350 0 20946
0.13850000 0.13851100 11781.29122234 0 33.12197418 0 2961.72668587 0 538.98115218 0 -233.15914225 0 20955
0.13950000 0.13949800 11632.11462339 0 22.14623659 0 2922.79658458 0 494.68845716 0 -238.64263002 0 20506
0.14050000 0.14048300 11582.31514909 0 125.13421133 0 2760.97602111 0 128.33734901 0 238.41415136 0 21447
0.14150000 0.14148400 11330.76680230 0 118.43956485 0 2631.41974956 0 86.52764026 0 303.67253596 0 21771
0.14250000 0.14249400 11328.54856291 0 272.01160516 0 2688.94978813 0 -262.26577040 0 385.47787729 0 22470
0.14350000 0.14350900 10900.16217199 0 95.46514858 0 2904.83993672 0 9.31137039 0 549.04641341 0 22519
0.14450000 0.14449900 10873.70966726 0 88.81775060 0 3132.86385478 0 235.74450025 0 1.46051100 0 22218
0.14550000 0.14550500 10896.33570904 0 -0.43821874 0 2827.07955492 0 137.68279156 0 650.95233097 0 23559
0.14650000 0.14650700 10764.53901570 0 5.16314073 0 2603.14828854 0 91.30118051 0 -125.95052342 0 23044
0.14750000 0.14750500 10828.19139499 0 12.56033690 0 2597.66923724 0 290.85111229 0 769.62813831 0 23649
0.14850000 0.14849900 10684.73785366 0 99.45565033 0 2499.14613475 0 -164.18520666 0 -290.02703636 0 23640
0.14950000 0.14949500 10638.12155289 0 251.55611062 0 2515.53892384 0 -389.38197862 0 -108.88139314 0 24457
0.15050000 0.15050000 10185.13488713 0 352.31963490 0 2819.74827374 0 -216.93937583 0 -760.02648912 0 24591
0.15150000 0.15149900 9889.25502614 0 232.37388550 0 2961.39394996 0 -365.16989568 0 -508.25964575 0 25020
0.15250000 0.15250500 9583.49290867 0 6.99841218 0 2801.99126742 0 363.64818346 0 -737.74316533 0 25297
0.15350000 0.15350100 9759.32165389 0 -70.07052222 0 2749.13062277 0 571.10791326 0 -962.67818504 0 25452
0.15450000 0.15450400 9552.57065158 0 -2.10384478 0 2132.09406295 0 113.21672021 0 -702.42990336 0 26061
0.15550000 0.15549900 9770.66794837 0 115.39835865 0 1918.23360339 0 149.83208869 0 -509.31552770 0 26128
0.15650000 0.15649500 9614.88099604 0 35.55172270 0 1910.70268066 0 -7.50402658 0 -812.89157025 0 26331
0.15750000 0.15749700 9411.15789049 0 168.75256157 0 2028.11409156 0 -17.00957055 0 -550.22762588 0 27345
0.15850000 0.15849900 9236.36062659 0 237.13977283 0 2288.32466316 0 -245.47480734 0 -556.05826812 0 26980
0.15950000 0.15949700 9144.44787748 0 97.44958554 0 2312.96930278 0 -254.82246812 0 -902.10583114 0 27777
0.16050000 0.16050000 8831.22138446 0 132.29136072 0 2915.50966819 0 -56.59238878 0 -987.13871079 0 28224
0.16150000 0.16150500 8907.08517159 0 115.91188107 0 2456.63357685 0 -180.95287821 0 -961.70770530 0 28075
0.16250000 0.16249700 8812.43289683 0 -35.97707010 0 2824.85022433 0 100.11114007 0 -1371.78142095 0 28590
0.16350000 0.16349900 8709.26258282 0 133.30842348 0 2939.59974796 0 73.73760467 0 -737.64999927 0 29163
0.16450000 0.16449100 8743.19055428 0 69.25642837 0 2538.61970469 0 97.72619999 0 -886.68684915 0 28996
0.16550000 0.16550500 8607.84467792 0 82.41779723 0 2823.51928070 0 152.56385050 0 -435.91509542 0 30777
0.16650000 0.16650700 8573.07377549 0 81.53726710 0 2500.39944001 0 255.82178497 0 -366.06384616 0 29211
0.16750000 0.16749900 8389.74738113 0 3.56963519 0 2747.43366964 0 231.10283433 0 293.63056625 0 30922
0.16850000 0.16850800 8600.06974886 0 -9.19314932 0 2534.78215055 0 220.24787988 0 215.21358558 0 30867
0.16950000 0.16949900 8405.74088713 0 105.89054098 0 2621.14930118 0 130.37258365 0 986.04068229 0 30852
0.17050000 0.17049200 8396.60174085 0 74.26232920 0 2567.23499282 0 136.78662284 0 760.62430463 0 31257
0.17150000 0.17149500 8274.98676631 0 130.47684090 0 2623.15680783 0 -88.04347414 0 648.66532616 0 32608
0.17250000 0.17250900 8136.05843334 0 159.69659926 0 2707.89355251 0 -41.43771001 0 1112.23632116 0 32361
0.17350000 0.17350400 7919.30317138 0 48.47928912 0 2591.02561027 0 -131.37855521 0 732.89963962 0 32508
0.17450000 0.17449800 7956.82469065 0 63.10458507 0 3003.96196385 0 36.70520718 0 894.20446244 0 32791
0.17550000 0.17549800 8033.74214149 0 -58.00784733 0 2263.83530030 0 98.68935953 0 121.47411634 0 33633
0.17650000 0.17650100 7807.59263572 0 167.52698430 0 2840.87700392 0 -64.73920567 0 367.66319676 0 33984
0.17750000 0.17750300 7902.06745132 0 117.83065814 0 2332.23471188 0 -177.12308790 0 166.85042129 0 34069
0.17850000 0.17849800 7598.19083733 0 -25.09361127 0 2684.21384703 0 181.04271691 0 -10.56105992 0 34536
