### header ###
fiducial parameters:
Omega_m = 0.31
Omega_nu = 0
Omega_de = 0.69
Omega_k = 0
H_0 = 100
w_de = -1
zeff = 0
beta = 0
fgrowth = 0
b_1 = 2
gamma = 0.55
Lx = 3500 Ly = 3500 Lz = 3500
nx = 700 ny = 700 nz = 700
xoffset = 1379.75464 yoffset = 22.6059522 zoffset = 368.141391
bins = 400 dk = 0.001
kx_ny = 0.628318531 ky_ny = 0.628318531 kz_ny = 0.628318531
############################
A(data) = 3.32156954 (not used)
A(ran) = 3.32295467 (used)
Ngal = 187070
weighted Ngal = 0
Nran = 9399747
weighted Nran = 0
SN(data) = 6624.18835
SN(ran) = 132.171794
SN(data+ran) = 6756.36014
############################
13 columns: k_central k_mean P_0(k) sigma^{lin}_{P_0(k)} P^img_1(k) sigma^{lin}_{P_1(k)} P_2(k) sigma^{lin}_{P_2(k)} P^img_3(k) sigma^{lin}_{P_3(k)} P_4(k) sigma^{lin}_{P_4(k)} N_modes
### header ###
0.00050000 0 0 0 0 0 0 0 0 0 0 0 0
0.00150000 0.00179520 60963.87314560 0 -56054.35481647 0 -96276.69146117 0 109277.01614009 0 32941.96405592 0 3
0.00250000 0.00253879 104659.08537873 0 -55106.50112527 0 -36501.57280448 0 -96065.18233537 0 23781.52267244 0 6
0.00350000 0.00331552 132586.38655844 0 -30735.14859913 0 -111937.90519994 0 -34079.92086280 0 -49467.29294892 0 7
0.00450000 0.00420575 150133.76925023 0 -11164.50976005 0 -89046.89473047 0 -61773.75234676 0 3116.28251535 0 24
0.00550000 0.00557378 140277.02252234 0 5547.82780470 0 -86914.83394111 0 -44996.54237106 0 9552.22682448 0 45
0.00650000 0.00659388 115427.19575985 0 7937.61473754 0 -26126.75626714 0 -29827.33412892 0 -32275.71585524 0 40
0.00750000 0.00754703 107933.31762981 0 2099.00902245 0 -76088.60568798 0 -13105.58013796 0 -9674.45181484 0 57
0.00850000 0.00846663 100573.19933497 0 -1105.35977906 0 -52216.35702451 0 -18095.39873299 0 -23529.30885384 0 75
0.00950000 0.00948925 90085.69623664 0 8948.11150910 0 -73148.32937701 0 -31769.84636243 0 -13334.39153100 0 112
0.01050000 0.01054430 76976.12326778 0 8640.70789448 0 -35374.15263469 0 -28758.58639099 0 -23694.56768837 0 105
0.01150000 0.01145670 69193.54128118 0 7377.84202756 0 -32562.75603226 0 -28095.00007757 0 -17589.30741625 0 144
0.01250000 0.01249090 66747.04505834 0 -3929.51125798 0 -33061.19442311 0 1837.12368011 0 -27064.62788108 0 169
0.01350000 0.01339930 67552.37686875 0 -5402.86586058 0 -16612.72752496 0 -7737.70700375 0 -34329.36188217 0 180
0.01450000 0.01448870 78522.34703433 0 860.73566653 0 -26121.98705245 0 -10157.34034758 0 -25545.24481115 0 267
0.01550000 0.01550050 75348.82285154 0 104.08456138 0 -9400.77653015 0 -16289.75186982 0 -29608.17207722 0 238
0.01650000 0.01653350 71916.98469182 0 3070.20968322 0 -4564.48228327 0 -12545.36378010 0 -16218.99003329 0 315
0.01750000 0.01747870 74820.66005286 0 3099.74554070 0 5592.35896045 0 -5376.90136853 0 -25006.54537537 0 297
0.01850000 0.01844180 67616.48398711 0 2505.49029941 0 4554.42256764 0 1588.29267658 0 -24802.24552758 0 388
0.01950000 0.01947590 69659.03881710 0 519.30204143 0 16408.87132505 0 4388.60917326 0 -7751.78173267 0 399
0.02050000 0.02045430 66431.16776926 0 -197.90577275 0 12393.08164600 0 3147.52641715 0 -1905.16817339 0 462
0.02150000 0.02154770 65911.98884011 0 1889.14139380 0 7835.49808724 0 2119.28373047 0 -4970.36463559 0 571
0.02250000 0.02255340 64651.69613088 0 1150.95568971 0 16112.51454259 0 -1866.17152492 0 928.56166322 0 510
0.02350000 0.02348930 60813.14377907 0 2844.49273413 0 7389.04413648 0 389.30877672 0 778.55655186 0 555
0.02450000 0.02439640 58794.76775844 0 2275.12613879 0 21549.97384646 0 3931.52985583 0 5545.06609666 0 592
0.02550000 0.02547300 57208.06112302 0 -439.74821308 0 5949.20713106 0 4596.56911604 0 9067.77443297 0 837
0.02650000 0.02652900 58326.27559934 0 -1898.30272248 0 7576.20808498 0 12121.45823274 0 14024.26398118 0 723
0.02750000 0.02749970 56793.47218110 0 -1236.90137486 0 -97.42296667 0 7615.02727430 0 13741.54937097 0 826
0.02850000 0.02848090 64020.05246468 0 -840.19144242 0 -1740.02025083 0 -2533.60648367 0 12276.18043017 0 831
0.02950000 0.02946900 58734.32073507 0 3637.03639446 0 6023.88416011 0 -10693.57753763 0 7432.48835493 0 996
0.03050000 0.03053250 54517.44765535 0 3728.20603337 0 7340.70870018 0 -11451.43902510 0 4858.05517529 0 1041
0.03150000 0.03150510 50219.49792595 0 4346.73990478 0 18479.93053119 0 -5333.41278529 0 -821.01476290 0 1036
0.03250000 0.03246190 48096.97556597 0 2333.56565551 0 27065.84791275 0 -3408.16954543 0 -2075.40695535 0 1059
0.03350000 0.03345080 46701.48116594 0 1310.02563634 0 29442.58050678 0 3063.46623548 0 -1391.95630820 0 1302
0.03450000 0.03451200 44217.71852136 0 1297.78095491 0 29317.58271718 0 1685.04118756 0 -868.83556766 0 1339
0.03550000 0.03553350 44793.35164297 0 -417.26524775 0 28237.41104639 0 4580.73088680 0 3597.61828050 0 1365
0.03650000 0.03647120 47246.61349595 0 -2130.96276086 0 25994.66011149 0 7968.55917703 0 2834.33319772 0 1308
0.03750000 0.03744890 47786.08931551 0 -308.95527307 0 22425.18019764 0 127.60089353 0 1995.36178697 0 1579
0.03850000 0.03847530 47721.87128518 0 587.21676771 0 22964.32328129 0 303.29210791 0 5742.33412558 0 1662
0.03950000 0.03950240 47232.30585188 0 740.52705576 0 21723.10743082 0 -644.20888322 0 662.34742671 0 1683
0.04050000 0.04050350 45914.00618262 0 903.32919017 0 20632.73185884 0 1604.77419524 0 367.53342975 0 1822
0.04150000 0.04152450 45039.79803916 0 58.62895436 0 18035.94991735 0 3662.18013794 0 -1997.52457037 0 1887
0.04250000 0.04250150 45459.82166759 0 -4.10166882 0 14014.39281590 0 4714.81236670 0 -1908.95027155 0 1920
0.04350000 0.04349210 44771.16924907 0 -230.36970621 0 10701.78502337 0 2550.02145515 0 -1256.72134381 0 2005
0.04450000 0.04448520 42446.34345676 0 1541.27709271 0 9585.05676744 0 -417.92073749 0 -3493.52739715 0 2151
0.04550000 0.04548030 41439.26277386 0 1947.69182249 0 8786.43513118 0 -308.51051607 0 1307.29720189 0 2274
0.04650000 0.04648670 38299.23400585 0 503.84091289 0 8769.04413437 0 1235.08241856 0 -1916.71410941 0 2311
0.04750000 0.04749250 38254.31465821 0 1346.03875283 0 9642.27625250 0 -1709.59709760 0 -6149.17032084 0 2568
0.04850000 0.04851840 35417.85195067 0 1487.82861462 0 10480.81510657 0 -1438.77225052 0 -5443.07144952 0 2493
0.04950000 0.04949480 34985.62800560 0 828.56010418 0 10661.85671436 0 -619.24370801 0 -3575.45806900 0 2644
0.05050000 0.05050630 34169.64864611 0 -1104.09205525 0 9243.37026306 0 2714.19335238 0 -1559.87702999 0 2829
0.05150000 0.05149060 35398.55326798 0 -729.98487306 0 10855.66428983 0 2469.88755720 0 -3327.86927953 0 2784
0.05250000 0.05249300 36254.23911253 0 677.76640871 0 6222.31676471 0 1397.54627146 0 -2978.54094045 0 3055
0.05350000 0.05348950 34568.93173625 0 929.64860052 0 10266.12280724 0 -588.64864123 0 2058.12687050 0 3009
0.05450000 0.05448610 33415.22542970 0 558.34749117 0 8025.54574695 0 1069.06383704 0 3976.31610910 0 3336
0.05550000 0.05550870 33938.84083762 0 137.92014317 0 10733.93840332 0 1631.41525031 0 3609.41931406 0 3349
0.05650000 0.05647670 32256.63899649 0 740.02462454 0 9236.26080581 0 220.69818247 0 4177.71006329 0 3324
0.05750000 0.05747970 32039.25153630 0 469.38943693 0 8906.73025329 0 826.19878835 0 6389.49437631 0 3639
0.05850000 0.05849280 31828.85153019 0 63.89416738 0 9388.54293991 0 518.37814473 0 4933.06494025 0 3846
0.05950000 0.05951020 32457.16783731 0 -73.32867224 0 7442.06005789 0 -83.00563066 0 3502.98818814 0 3787
0.06050000 0.06049470 31276.62083414 0 461.93282522 0 9699.80629107 0 -826.51156010 0 1623.58486527 0 3930
0.06150000 0.06148310 30660.83757957 0 637.51312763 0 7469.16694324 0 -1667.58364356 0 2024.46508776 0 4083
0.06250000 0.06249100 31298.91414001 0 144.28316286 0 9631.92816574 0 470.72370792 0 384.41644975 0 4303
0.06350000 0.06350600 31363.35399428 0 -531.56890526 0 8235.35791962 0 342.05362300 0 -576.55812744 0 4470
0.06450000 0.06451750 31185.78393113 0 -258.87740973 0 7684.16979608 0 2557.29728035 0 -482.99389910 0 4479
0.06550000 0.06550280 31386.31277196 0 437.13623620 0 8054.13885268 0 -1423.18911881 0 -1443.97402189 0 4636
0.06650000 0.06648880 31276.84265808 0 761.89424668 0 9761.07406301 0 -2316.08592912 0 -2645.35029292 0 4653
0.06750000 0.06749660 30589.96483108 0 759.86677588 0 11098.07349033 0 -1410.07932401 0 -3548.98338189 0 5220
0.06850000 0.06852730 28966.10268589 0 1029.78547217 0 11964.85053183 0 -2226.20286905 0 -3439.02525534 0 5029
0.06950000 0.06949320 28902.99377525 0 642.11042876 0 13466.15495075 0 1021.24414140 0 -3380.35282349 0 5040
0.07050000 0.07048030 28110.52775330 0 -255.49126730 0 13368.33059366 0 790.17679890 0 -4015.67876707 0 5475
0.07150000 0.07148790 28578.90900042 0 -438.60027420 0 11679.03038648 0 3097.10583582 0 -3944.40673548 0 5509
0.07250000 0.07249820 28549.51732851 0 403.82715353 0 10183.00537731 0 794.08090023 0 -2338.22395823 0 5916
0.07350000 0.07351270 27494.30085086 0 453.71203004 0 10101.61817411 0 733.42647148 0 -649.85984807 0 5721
0.07450000 0.07449140 27442.83769702 0 232.58350912 0 9513.36327037 0 1485.21109214 0 -10.47460404 0 6028
0.07550000 0.07549160 26825.39076291 0 492.80406280 0 9121.58892057 0 1145.78719193 0 1484.54562032 0 6183
0.07650000 0.07648840 26480.12180191 0 547.28291309 0 9410.65878663 0 236.29240538 0 488.82897782 0 6330
0.07750000 0.07749960 25324.97363975 0 137.23692544 0 8142.04767969 0 1310.10327472 0 4013.16106537 0 6583
0.07850000 0.07848650 25343.82867457 0 -81.65183917 0 7792.48642547 0 1128.42946871 0 4449.45547972 0 6549
0.07950000 0.07947320 25514.85493151 0 188.60136763 0 7147.83278525 0 1042.67898862 0 4600.08502547 0 6828
0.08050000 0.08048110 25297.91111920 0 87.12534486 0 7222.73163824 0 737.65221751 0 3529.41851047 0 7147
0.08150000 0.08149960 25186.77732578 0 783.58086408 0 6504.04425839 0 -1604.69655686 0 4659.00146366 0 7386
0.08250000 0.08250610 23264.00742284 0 1089.56813284 0 8138.63159103 0 -1265.17283588 0 684.58749483 0 7227
0.08350000 0.08350160 22808.27014023 0 907.65586610 0 9752.06801109 0 -1349.14428798 0 1813.14451231 0 7798
0.08450000 0.08449610 21334.91553763 0 389.62931231 0 9094.16039051 0 -68.01499069 0 9.44792521 0 7371
0.08550000 0.08548940 21120.85543653 0 555.23641042 0 10176.48375351 0 523.65533623 0 -1992.27843422 0 8256
0.08650000 0.08650700 19955.50337318 0 247.76624863 0 8218.82094497 0 -106.34882923 0 -1412.12010425 0 8037
0.08750000 0.08749060 20096.02883852 0 26.07651314 0 8449.01873763 0 1608.12373672 0 -1795.55387395 0 8155
0.08850000 0.08849210 19906.25845873 0 -254.18250606 0 6361.07872973 0 962.67485768 0 -1150.76713936 0 8718
0.08950000 0.08949900 20370.64687495 0 63.14739709 0 6782.44439299 0 591.54788011 0 -1508.38060256 0 8571
0.09050000 0.09049190 20260.95493714 0 -128.02790461 0 5148.94399765 0 247.74850271 0 -1303.26000620 0 8932
0.09150000 0.09150830 19384.30673035 0 858.96218413 0 7212.54991944 0 -842.09136446 0 -1441.33431701 0 9285
0.09250000 0.09250820 19247.88500788 0 654.61464420 0 6191.66069635 0 -887.98895567 0 -1841.12760221 0 9204
0.09350000 0.09350330 18512.31682628 0 172.32836346 0 8013.02378559 0 -200.46894836 0 -638.19412712 0 9349
0.09450000 0.09448040 18280.51081006 0 103.51591571 0 7817.91854008 0 732.30071499 0 -1991.74605676 0 9564
0.09550000 0.09549270 18664.48804841 0 -15.89756715 0 8361.30955216 0 723.49208637 0 -225.99644726 0 10155
0.09650000 0.09649430 18061.68149427 0 344.72771059 0 6327.09530228 0 498.02358009 0 -1109.75189305 0 9913
0.09750000 0.09749140 17928.69804286 0 -80.85249660 0 7849.96100806 0 539.69764350 0 1307.18628992 0 10476
0.09850000 0.09850240 17877.12397705 0 -177.55342635 0 5842.77600514 0 786.36919099 0 279.89522795 0 10575
0.09950000 0.09950330 18015.43120300 0 -36.64986211 0 5720.45119400 0 1277.85007400 0 1285.04826081 0 10882
0.10050000 0.10051200 18028.29699146 0 -17.97783205 0 5076.32993123 0 326.46605481 0 1380.24400422 0 10875
0.10150000 0.10150300 17951.21317267 0 86.83198270 0 4071.78913243 0 258.23744767 0 708.51453401 0 11118
0.10250000 0.10250800 18343.06516085 0 -33.44494984 0 4669.71555991 0 287.89530830 0 1353.71386112 0 11575
0.10350000 0.10349800 17440.13081729 0 247.35254698 0 3661.11538303 0 -312.77175394 0 197.44992455 0 11364
0.10450000 0.10450100 17820.55887262 0 352.53813148 0 4912.74586744 0 -549.66197484 0 1024.19772715 0 12093
0.10550000 0.10551000 17060.03549788 0 381.53162942 0 5234.41276134 0 -657.45953622 0 -234.99806270 0 12067
0.10650000 0.10649700 16958.99469368 0 309.63959992 0 5176.42798369 0 197.31350283 0 551.34894589 0 12054
0.10750000 0.10749900 16226.86478313 0 348.23031058 0 6055.60498338 0 -201.97069643 0 119.65072356 0 12807
0.10850000 0.10850100 16079.24095175 0 184.90799904 0 5463.51252550 0 115.86751628 0 -474.66108284 0 12736
0.10950000 0.10950300 15815.27046438 0 48.86426457 0 5766.59057330 0 286.52110900 0 -122.73629455 0 12933
0.11050000 0.11050200 15920.19318751 0 -74.13877326 0 5162.78581144 0 637.52865530 0 -329.89101643 0 13428
0.11150000 0.11150900 15766.58010978 0 141.44714380 0 4771.03364404 0 498.50826539 0 -666.70959447 0 13453
0.11250000 0.11250000 15821.48153467 0 -0.24650074 0 4437.70990215 0 -84.77523114 0 -785.09037598 0 13668
0.11350000 0.11349100 15289.99137691 0 313.40949776 0 4601.00559482 0 164.56341648 0 -733.23237553 0 13791
0.11450000 0.11448600 15277.23650042 0 282.56820641 0 3873.40089262 0 -271.55908432 0 -1521.53476214 0 14205
0.11550000 0.11549300 14771.92156746 0 75.44975274 0 3847.22566782 0 126.21449391 0 -626.61380839 0 14776
0.11650000 0.11649800 14644.37280256 0 139.31763399 0 4623.22126231 0 174.73071672 0 -964.04018402 0 14553
0.11750000 0.11747300 14702.71249850 0 295.17113350 0 3914.13885901 0 -97.57147779 0 -1150.64513620 0 14568
0.11850000 0.11849100 14145.60167579 0 196.20216489 0 4380.13549879 0 -177.21403572 0 -1214.14223872 0 16015
0.11950000 0.11950300 14149.15085882 0 210.62515741 0 4834.83020888 0 -362.41373324 0 -856.96798692 0 15270
0.12050000 0.12050700 13525.49285442 0 295.38408448 0 4939.34255772 0 135.55771822 0 -667.88637047 0 15999
0.12150000 0.12150000 13538.46955485 0 90.81849162 0 5256.38442249 0 -43.62289763 0 -1124.63627935 0 15670
0.12250000 0.12250700 13351.25015036 0 119.92911260 0 4916.33941525 0 187.99024267 0 -446.14894284 0 16887
0.12350000 0.12352200 13456.72743334 0 -100.51275231 0 4791.11980171 0 359.73520918 0 -279.26192060 0 16407
0.12450000 0.12449800 13373.21072032 0 74.67780544 0 4462.07726185 0 500.81745260 0 -471.16735580 0 16306
0.12550000 0.12549900 13430.77403248 0 24.86945818 0 4470.69512187 0 168.80690843 0 -787.26425058 0 17523
0.12650000 0.12650100 13363.22864307 0 30.56900247 0 4150.11516528 0 -328.71867691 0 -613.08365723 0 17154
0.12750000 0.12750600 13243.55462799 0 48.68137073 0 4250.32412971 0 397.12474321 0 -513.81633542 0 18007
0.12850000 0.12850300 13055.22610381 0 250.54792082 0 4243.99105625 0 -195.92155761 0 -757.90917962 0 17496
0.12950000 0.12949900 12826.41471077 0 356.73504040 0 4319.07845959 0 -155.73593283 0 -932.76300863 0 18405
0.13050000 0.13049000 12421.47511019 0 174.88932084 0 4541.94497107 0 109.17464439 0 -570.46351472 0 18100
0.13150000 0.13148800 12380.54859345 0 46.71922708 0 4636.35323949 0 108.56917595 0 -348.29353041 0 19059
0.13250000 0.13249300 12217.50799831 0 25.03260969 0 4175.53618869 0 168.18580140 0 -1154.17213683 0 18957
0.13350000 0.13349100 12376.44485058 0 110.58289367 0 4923.45996369 0 -65.13970880 0 -377.37908528 0 19468
0.13450000 0.13450700 11968.39971486 0 181.73258936 0 4132.74635086 0 -227.27858962 0 -535.80796073 0 19953
0.13550000 0.13551000 12133.88037332 0 9.86444402 0 4748.05268396 0 464.54591122 0 35.55837742 0 19956
0.13650000 0.13649900 11878.45010761 0 -12.75776020 0 4071.35657575 0 814.68723504 0 -522.95548171 0 19723
0.13750000 0.13749600 11871.12991762 0 262.72494595 0 4061.36340730 0 74.55846416 0 277.87108450 0 20946
0.13850000 0.13851100 11446.89163435 0 282.17557804 0 3946.25896537 0 -73.26190323 0 239.93142710 0 20955
0.13950000 0.13949800 11120.92135604 0 196.00363247 0 4322.90492254 0 17.74990795 0 289.19076011 0 20506
0.14050000 0.14048300 11049.83787480 0 87.62333960 0 3908.51562216 0 -229.18072990 0 -14.35455983 0 21447
0.14150000 0.14148400 10944.07222070 0 80.14210544 0 3721.14094092 0 145.87364050 0 170.46393326 0 21771
0.14250000 0.14249400 10756.27607398 0 -48.13768026 0 3907.45086725 0 331.33952675 0 26.96236705 0 22470
0.14350000 0.14350900 10909.94460769 0 -68.65073810 0 3170.81793074 0 377.09625976 0 -276.94386044 0 22519
0.14450000 0.14449900 11051.66792230 0 37.53028132 0 3485.84119766 0 191.45402348 0 -337.37979261 0 22218
0.14550000 0.14550500 10919.64940502 0 140.94138522 0 2930.18332175 0 -77.19495258 0 134.06595223 0 23559
0.14650000 0.14650700 10664.50751043 0 110.43937358 0 3262.05411684 0 -38.91512817 0 -267.69380218 0 23044
0.14750000 0.14750500 10542.36015844 0 80.49502732 0 3352.49173675 0 -148.42128844 0 72.10298406 0 23649
0.14850000 0.14849900 10609.49517356 0 97.91475034 0 3249.38796992 0 68.02608189 0 -191.74461284 0 23640
0.14950000 0.14949500 10419.19241633 0 202.53523835 0 3454.03164481 0 78.45635441 0 -330.59863479 0 24457
0.15050000 0.15050000 10187.26439694 0 234.19506004 0 3422.56591907 0 45.87818162 0 246.77136826 0 24591
0.15150000 0.15149900 9727.44555386 0 91.95700299 0 3383.71345616 0 404.23863693 0 231.35238626 0 25020
0.15250000 0.15250500 9870.71054484 0 83.29067443 0 3316.66717061 0 299.53108302 0 885.87053705 0 25297
0.15350000 0.15350100 9645.02686934 0 83.64326358 0 2742.60899896 0 348.24583826 0 428.21780473 0 25452
0.15450000 0.15450400 9446.90481825 0 211.03553169 0 3113.84245202 0 -41.64311897 0 1397.34662992 0 26061
0.15550000 0.15549900 9188.74611809 0 181.97215921 0 2672.41281348 0 6.68620608 0 803.62487520 0 26128
0.15650000 0.15649500 9132.79102948 0 -47.18361550 0 2789.84640677 0 280.40542301 0 1159.04117229 0 26331
0.15750000 0.15749700 8990.91243812 0 60.17295989 0 2733.19257275 0 176.80033407 0 604.60443716 0 27345
0.15850000 0.15849900 9053.89934559 0 45.50640469 0 2156.88288813 0 113.08917144 0 1132.95467706 0 26980
0.15950000 0.15949700 8778.64911093 0 86.09996370 0 2538.99680539 0 65.97753781 0 879.83914415 0 27777
0.16050000 0.16050000 8917.59962629 0 107.49355167 0 2201.99078612 0 -39.22634716 0 904.54034887 0 28224
0.16150000 0.16150500 8832.68542246 0 14.15003815 0 2420.03262692 0 232.01674896 0 723.64847225 0 28075
0.16250000 0.16249700 8851.51827488 0 -77.94726847 0 1902.31773577 0 27.66610349 0 633.65228197 0 28590
0.16350000 0.16349900 8740.62848779 0 79.26024437 0 2345.68833378 0 -180.15874851 0 621.02162688 0 29163
0.16450000 0.16449100 8767.35827243 0 134.97210302 0 1941.52511698 0 -111.86026682 0 -156.35482162 0 28996
0.16550000 0.16550500 8704.44900334 0 84.69803641 0 2502.05202835 0 -357.40827606 0 -325.44677381 0 30777
0.16650000 0.16650700 8486.05224424 0 218.82377019 0 2415.23013864 0 -501.50954329 0 -1105.05809850 0 29211
0.16750000 0.16749900 8460.95286554 0 58.89447762 0 2933.65486640 0 -6.62866495 0 -744.40231998 0 30922
0.16850000 0.16850800 8298.06754716 0 61.50589994 0 2613.94002317 0 -12.33496377 0 -1500.55021752 0 30867
0.16950000 0.16949900 8304.82208610 0 25.14474169 0 2824.10711414 0 -32.42921802 0 -1048.47081167 0 30852
0.17050000 0.17049200 8259.15962827 0 119.85258334 0 2777.51299576 0 69.74832295 0 -1375.46369834 0 31257
0.17150000 0.17149500 8155.87840228 0 82.26928610 0 2676.60528592 0 22.86738622 0 -1081.07449422 0 32608
0.17250000 0.17250900 8009.99588882 0 81.17292128 0 2573.54588388 0 281.33153795 0 -690.44808330 0 32361
0.17350000 0.17350400 8021.77473998 0 -37.49456767 0 2527.66160211 0 292.49260944 0 -821.72459950 0 32508
0.17450000 0.17449800 8057.94313323 0 33.21502932 0 2331.85761118 0 479.31827643 0 -291.89146657 0 32791
0.17550000 0.17549800 8011.34901485 0 21.88625894 0 1938.51940261 0 340.18364720 0 -18.60892115 0 33633
0.17650000 0.17650100 7831.34997958 0 82.49743202 0 2103.50095722 0 137.10937667 0 577.87465252 0 33984
0.17750000 0.17750300 7972.38563997 0 36.98337440 0 1592.93988810 0 136.38623063 0 638.67215771 0 34069
0.17850000 0.17849800 7842.45226772 0 -31.25521482 0 2036.69867800 0 136.39399447 0 518.78630077 0 34536
