### header ###
fiducial parameters:
Omega_m = 0.31
Omega_nu = 0
Omega_de = 0.69
Omega_k = 0
H_0 = 100
w_de = -1
zeff = 0
beta = 0
fgrowth = 0
b_1 = 2
gamma = 0.55
Lx = 3500 Ly = 3500 Lz = 3500
nx = 700 ny = 700 nz = 700
xoffset = 1379.75464 yoffset = 22.6059522 zoffset = 368.141391
bins = 400 dk = 0.001
kx_ny = 0.628318531 ky_ny = 0.628318531 kz_ny = 0.628318531
############################
A(data) = 3.37632987 (not used)
A(ran) = 3.38227289 (used)
Ngal = 189925
weighted Ngal = 0
Nran = 9399747
weighted Nran = 0
SN(data) = 6645.16392
SN(ran) = 134.531199
SN(data+ran) = 6779.69512
############################
13 columns: k_central k_mean P_0(k) sigma^{lin}_{P_0(k)} P^img_1(k) sigma^{lin}_{P_1(k)} P_2(k) sigma^{lin}_{P_2(k)} P^img_3(k) sigma^{lin}_{P_3(k)} P_4(k) sigma^{lin}_{P_4(k)} N_modes
### header ###
0.00050000 0 0 0 0 0 0 0 0 0 0 0 0
0.00150000 0.00179520 10741.83533555 0 -13673.44942171 0 5167.58829972 0 -21750.50268728 0 58464.69373726 0 3
0.00250000 0.00253879 33113.10122483 0 -26580.05348642 0 -38293.46658343 0 8933.55985870 0 -13802.88369009 0 6
0.00350000 0.00331552 56450.31054752 0 -32750.30817265 0 -28231.53271201 0 -34260.70737306 0 9540.07087262 0 7
0.00450000 0.00420575 80820.66486594 0 -23666.39604812 0 -56297.58476554 0 -19541.24716716 0 -11345.85083015 0 24
0.00550000 0.00557378 97809.60579138 0 -6852.29675137 0 -48288.29871332 0 -38806.21261835 0 -2876.06937184 0 45
0.00650000 0.00659388 97036.32754015 0 5118.03283176 0 -16312.82155948 0 -49816.77656476 0 -49915.37730563 0 40
0.00750000 0.00754703 93595.39459894 0 11945.33002521 0 -1982.14108021 0 -36093.52766875 0 -12948.63970114 0 57
0.00850000 0.00846663 77339.35996783 0 15797.63546123 0 9129.84077110 0 -23626.68956304 0 -27889.81293403 0 75
0.00950000 0.00948925 58474.12125466 0 13513.29253778 0 38053.12034557 0 -13040.47481187 0 -13522.94187912 0 112
0.01050000 0.01054430 52488.20226171 0 -1147.12922676 0 23484.72224211 0 24741.13303240 0 -24761.54083478 0 105
0.01150000 0.01145670 55834.52729296 0 -4871.09842290 0 35471.31151996 0 10026.10930528 0 -10566.13968469 0 144
0.01250000 0.01249090 57161.03444796 0 183.42732425 0 9257.92191345 0 2631.92994462 0 -18045.82108264 0 169
0.01350000 0.01339930 59370.40088005 0 -2701.68248222 0 15031.45557605 0 -1001.93991311 0 -7178.18939130 0 180
0.01450000 0.01448870 70248.42502293 0 -9916.23990832 0 356.73393128 0 16193.48028031 0 7527.22935926 0 267
0.01550000 0.01550050 87328.64649925 0 -11227.72958266 0 -13835.38089715 0 15792.75533457 0 3552.83202723 0 238
0.01650000 0.01653350 96646.36105545 0 -11241.92631475 0 -24814.33493226 0 8065.32987040 0 16761.90412391 0 315
0.01750000 0.01747870 112957.18619948 0 -4776.96743440 0 -14381.95508276 0 -857.01789731 0 12865.23390009 0 297
0.01850000 0.01844180 107101.03421082 0 941.69696777 0 -27206.70611399 0 -7400.54570772 0 2663.24039360 0 388
0.01950000 0.01947590 108641.49055496 0 10522.36273034 0 -688.50712384 0 -22798.06623904 0 3559.28710385 0 399
0.02050000 0.02045430 93160.84150250 0 10500.53525474 0 21025.02749490 0 -28325.25332622 0 -5427.94305688 0 462
0.02150000 0.02154770 80415.05979355 0 9768.74917130 0 35455.56202029 0 -15107.20845120 0 -8733.96267842 0 571
0.02250000 0.02255340 74804.02325744 0 5371.83269152 0 54101.63868177 0 4707.49217672 0 -3310.79992742 0 510
0.02350000 0.02348930 75696.19913995 0 -4836.00587576 0 29539.62848008 0 16485.62240793 0 -16996.70476330 0 555
0.02450000 0.02439640 77407.01626922 0 -3585.37359907 0 38866.43781778 0 16888.23285715 0 -16133.36599285 0 592
0.02550000 0.02547300 77559.40931529 0 3611.94810696 0 18949.42089801 0 -3626.22247743 0 -5742.40067276 0 837
0.02650000 0.02652900 70751.18898059 0 4372.54912008 0 27483.09874194 0 -4437.67662856 0 -15326.03776699 0 723
0.02750000 0.02749970 68256.11331512 0 3842.11262603 0 33229.55879278 0 -1591.59785327 0 -5464.21127091 0 826
0.02850000 0.02848090 62536.27213695 0 2504.81373639 0 33419.66190848 0 4206.86882007 0 -11839.18727041 0 831
0.02950000 0.02946900 61206.10488695 0 1676.92243139 0 32621.42846411 0 5476.10103403 0 2525.79828102 0 996
0.03050000 0.03053250 59721.65908740 0 -1222.47172763 0 20717.91225140 0 13551.11351937 0 3849.89864629 0 1041
0.03150000 0.03150510 59869.61565469 0 811.30109261 0 21582.58196549 0 6365.93667399 0 3667.50391247 0 1036
0.03250000 0.03246190 60139.68630038 0 1650.65847702 0 17285.74135577 0 784.52028846 0 19123.88542600 0 1059
0.03350000 0.03345080 54365.05460929 0 878.15106397 0 12869.78129084 0 7859.14451913 0 13400.82780072 0 1302
0.03450000 0.03451200 53615.40060756 0 55.77175112 0 13198.30254445 0 3838.80744934 0 22365.17682215 0 1339
0.03550000 0.03553350 54460.77163895 0 -479.71201393 0 3953.92298247 0 5152.78155180 0 13605.46038442 0 1365
0.03650000 0.03647120 53939.15264647 0 1917.88977629 0 12099.27583885 0 2413.45554713 0 20455.60544358 0 1308
0.03750000 0.03744890 48941.68112554 0 2741.14496097 0 4031.66118188 0 -3753.85997191 0 16651.99036215 0 1579
0.03850000 0.03847530 48759.00911181 0 1334.62591117 0 17248.47493403 0 -4158.18955666 0 16863.27766402 0 1662
0.03950000 0.03950240 46774.68306580 0 1893.13422470 0 14846.23258701 0 -4250.14667056 0 7064.24952505 0 1683
0.04050000 0.04050350 44070.76016179 0 2077.34791481 0 21658.33484064 0 -3811.84474956 0 3105.65714867 0 1822
0.04150000 0.04152450 45929.09021047 0 236.04396257 0 19606.13066931 0 -2258.38952260 0 7199.38466867 0 1887
0.04250000 0.04250150 42207.88272237 0 -1501.85897876 0 21976.54128109 0 4074.66175244 0 -3656.90072819 0 1920
0.04350000 0.04349210 46333.14251529 0 369.93245565 0 19213.16956144 0 1708.78744022 0 -2047.65678058 0 2005
0.04450000 0.04448520 44392.62669723 0 1775.09061558 0 18309.68065803 0 -203.90721941 0 -4811.31687135 0 2151
0.04550000 0.04548030 41260.13994314 0 1781.98934008 0 21417.21221899 0 1695.83292219 0 3809.70414855 0 2274
0.04650000 0.04648670 40348.99811385 0 93.92946145 0 15214.01667782 0 3694.83262176 0 2034.32516185 0 2311
0.04750000 0.04749250 40002.39820922 0 85.33677844 0 16149.55914040 0 5708.02905342 0 2988.87793600 0 2568
0.04850000 0.04851840 38540.57845144 0 1005.91388898 0 11875.89913231 0 1625.83637825 0 5502.36498841 0 2493
0.04950000 0.04949480 37653.39360755 0 1317.47892069 0 12764.30400786 0 702.00400140 0 4843.81407841 0 2644
0.05050000 0.05050630 34527.33974769 0 1732.46714571 0 13830.50077049 0 -3937.10872789 0 4994.03324988 0 2829
0.05150000 0.05149060 34163.43757582 0 1256.16678396 0 14190.74284737 0 -1297.90295808 0 4915.31902513 0 2784
0.05250000 0.05249300 32495.98702663 0 -40.16821160 0 16333.11844989 0 1301.47432350 0 113.43965327 0 3055
0.05350000 0.05348950 33300.32062931 0 -171.14382363 0 15566.49491683 0 2122.82182230 0 2326.98857572 0 3009
0.05450000 0.05448610 33843.90019175 0 -294.40473179 0 14853.33095306 0 1632.06963093 0 2023.20069131 0 3336
0.05550000 0.05550870 33461.36480900 0 -246.23677257 0 12305.68301405 0 1898.59109360 0 2101.46017698 0 3349
0.05650000 0.05647670 33354.00202254 0 647.07263028 0 13142.62473577 0 278.07959901 0 4944.57760268 0 3324
0.05750000 0.05747970 33638.82396017 0 546.06953615 0 13379.86543849 0 213.32253650 0 2135.16632450 0 3639
0.05850000 0.05849280 32381.52587412 0 155.59618375 0 12353.81880881 0 778.22603419 0 3609.57459081 0 3846
0.05950000 0.05951020 32201.73757159 0 514.61379248 0 13140.40649638 0 -57.87453115 0 4305.48065213 0 3787
0.06050000 0.06049470 32260.85365133 0 9.98699065 0 12153.17905601 0 206.54803341 0 2443.42396128 0 3930
0.06150000 0.06148310 31117.90580581 0 -28.63225766 0 10867.69823852 0 2921.08854025 0 4121.00077329 0 4083
0.06250000 0.06249100 31950.63287268 0 -212.88776158 0 9807.53508703 0 1296.20600494 0 2836.71780507 0 4303
0.06350000 0.06350600 31901.16613429 0 276.70983618 0 9911.43742004 0 896.62899809 0 4175.76910382 0 4470
0.06450000 0.06451750 31003.66647724 0 873.18331686 0 10273.84228032 0 -541.44561614 0 4670.61394687 0 4479
0.06550000 0.06550280 30397.64347599 0 427.45583950 0 9554.94416773 0 -239.41014085 0 4666.34383604 0 4636
0.06650000 0.06648880 29990.70745996 0 215.82692877 0 10323.14265076 0 621.45972916 0 3006.62385112 0 4653
0.06750000 0.06749660 29672.50101952 0 515.08960483 0 10701.38574028 0 -682.67315424 0 3008.44280742 0 5220
0.06850000 0.06852730 28454.90941854 0 1098.02295228 0 11234.38430082 0 -1140.01976952 0 2227.96636937 0 5029
0.06950000 0.06949320 28401.56076122 0 339.34182535 0 11819.55585181 0 69.94785359 0 2113.95995594 0 5040
0.07050000 0.07048030 27681.85299125 0 -47.55705610 0 12114.13804276 0 690.95716924 0 1627.78842891 0 5475
0.07150000 0.07148790 28079.58331382 0 -302.06985800 0 11004.86307118 0 843.55651157 0 460.52091585 0 5509
0.07250000 0.07249820 28223.65796217 0 147.15023727 0 10268.41868501 0 643.98927752 0 1500.51694393 0 5916
0.07350000 0.07351270 28683.72081158 0 204.31759370 0 11071.87608314 0 -587.21898594 0 1065.93168303 0 5721
0.07450000 0.07449140 27527.13079382 0 422.60011348 0 10068.63295438 0 823.11876296 0 629.57626709 0 6028
0.07550000 0.07549160 27638.48641118 0 401.17857569 0 10832.46150581 0 -268.24503467 0 927.74535113 0 6183
0.07650000 0.07648840 26603.89955985 0 40.57714404 0 9934.31855934 0 1032.58710852 0 1577.80040426 0 6330
0.07750000 0.07749960 26826.83261851 0 4.80866608 0 10173.98823420 0 1890.46124623 0 3528.24284359 0 6583
0.07850000 0.07848650 26217.70408212 0 464.02684320 0 9747.58716752 0 368.42516199 0 1212.01272891 0 6549
0.07950000 0.07947320 25670.02077681 0 984.19067064 0 9382.32077843 0 159.70325398 0 2961.13885243 0 6828
0.08050000 0.08048110 24751.33693359 0 418.74148606 0 10366.48704843 0 -492.49129105 0 2832.11495833 0 7147
0.08150000 0.08149960 24213.52479357 0 317.74171929 0 8613.51227957 0 535.73808619 0 3042.23768452 0 7386
0.08250000 0.08250610 23829.21481932 0 49.87367441 0 9017.60894918 0 1188.23320265 0 2070.68210545 0 7227
0.08350000 0.08350160 23747.91634569 0 -32.95139157 0 6912.47758601 0 1616.78596154 0 2122.51126878 0 7798
0.08450000 0.08449610 23326.78359756 0 679.43896121 0 6655.58328230 0 -176.86466302 0 2637.91919097 0 7371
0.08550000 0.08548940 22033.66094537 0 772.24787903 0 7581.96441620 0 -766.54478556 0 854.53346919 0 8256
0.08650000 0.08650700 21496.07062929 0 648.09634775 0 8077.09763036 0 -171.27469975 0 2358.95340533 0 8037
0.08750000 0.08749060 20671.44013619 0 551.03728326 0 8679.90418450 0 -762.62515656 0 1269.04366362 0 8155
0.08850000 0.08849210 20189.97127667 0 -3.69658503 0 8552.01159249 0 788.58077566 0 2693.57481725 0 8718
0.08950000 0.08949900 20178.10369593 0 176.39439626 0 8660.18403632 0 559.52648540 0 945.79738328 0 8571
0.09050000 0.09049190 19927.77538081 0 477.16325687 0 7646.48190885 0 -521.21416379 0 1776.84302470 0 8932
0.09150000 0.09150830 19430.88975753 0 137.91348845 0 8628.13047714 0 1045.80448792 0 1861.42449262 0 9285
0.09250000 0.09250820 18869.12063210 0 380.65098838 0 7756.15166427 0 -436.12360992 0 839.73670334 0 9204
0.09350000 0.09350330 18759.98325413 0 66.34598738 0 8357.09489732 0 390.03857748 0 852.91859092 0 9349
0.09450000 0.09448040 18429.24376114 0 148.33699534 0 7474.43526179 0 583.26941071 0 2.49479839 0 9564
0.09550000 0.09549270 18554.68519862 0 -92.42915524 0 6370.40642636 0 200.87599529 0 144.52273271 0 10155
0.09650000 0.09649430 18379.66611078 0 94.10725334 0 6445.48273851 0 538.57188701 0 -1782.12243444 0 9913
0.09750000 0.09749140 18255.66652890 0 288.12045960 0 5591.08347280 0 -24.11891688 0 -13.95150573 0 10476
0.09850000 0.09850240 17520.87473108 0 477.55366700 0 5557.80988195 0 -697.84480255 0 -2113.12811617 0 10575
0.09950000 0.09950330 17456.87852469 0 231.82819861 0 6191.39450762 0 91.75802691 0 -1546.32358732 0 10882
0.10050000 0.10051200 16928.16116616 0 61.07700335 0 5546.16412516 0 -47.12527580 0 -2414.62012281 0 10875
0.10150000 0.10150300 17151.20513679 0 -45.37142483 0 6102.43201690 0 150.60070864 0 -2896.59917739 0 11118
0.10250000 0.10250800 16975.85331304 0 138.92278737 0 5225.55089497 0 573.68772567 0 -1829.50402781 0 11575
0.10350000 0.10349800 16814.92004532 0 -28.83999578 0 5402.95459016 0 740.63020389 0 -2676.73838029 0 11364
0.10450000 0.10450100 16793.29221127 0 292.18649240 0 5530.13734557 0 -241.94226111 0 -1650.82484497 0 12093
0.10550000 0.10551000 16377.81597359 0 393.77520173 0 4822.40806830 0 -53.73995475 0 -2158.60202365 0 12067
0.10650000 0.10649700 15986.29672132 0 34.96034008 0 5236.71973030 0 686.47299831 0 -462.09253845 0 12054
0.10750000 0.10749900 16152.22102767 0 -173.47741147 0 4150.84718428 0 736.06395811 0 -824.45414307 0 12807
0.10850000 0.10850100 16161.53763310 0 -154.21976621 0 4349.75671035 0 968.22821999 0 -560.37828933 0 12736
0.10950000 0.10950300 16138.35703148 0 262.14820371 0 3322.58986978 0 134.79575299 0 -383.54246343 0 12933
0.11050000 0.11050200 15863.62808307 0 267.22242631 0 3525.27040281 0 -190.15524432 0 -55.96850895 0 13428
0.11150000 0.11150900 15626.49829232 0 5.36431286 0 3175.22113593 0 536.62094547 0 512.63290471 0 13453
0.11250000 0.11250000 15282.56027496 0 177.04434041 0 3782.15361533 0 207.82463018 0 70.15614626 0 13668
0.11350000 0.11349100 15606.20140191 0 204.98084728 0 3169.30952795 0 -501.78238673 0 -51.67843397 0 13791
0.11450000 0.11448600 15132.05273237 0 139.03259022 0 3796.86054248 0 -320.43909839 0 -489.52328675 0 14205
0.11550000 0.11549300 14757.05936355 0 370.38275825 0 3834.45970014 0 -449.79018280 0 -293.18248189 0 14776
0.11650000 0.11649800 14489.42878119 0 168.11925422 0 4350.64400611 0 -144.73568370 0 -837.57281082 0 14553
0.11750000 0.11747300 14533.90448095 0 35.21044657 0 4082.75832622 0 733.07598965 0 -510.11742124 0 14568
0.11850000 0.11849100 14193.95929449 0 180.64343382 0 3652.23133428 0 310.67219036 0 -868.65810851 0 16015
0.11950000 0.11950300 13800.99818661 0 363.93100898 0 3600.31344136 0 -204.01924050 0 -505.54008426 0 15270
0.12050000 0.12050700 13362.11952337 0 284.98275999 0 3736.52443108 0 78.34355694 0 -441.79453892 0 15999
0.12150000 0.12150000 13252.87123343 0 93.65617436 0 3715.99462553 0 -79.25846978 0 -394.25323232 0 15670
0.12250000 0.12250700 13009.30854845 0 32.22458544 0 3617.43824945 0 532.51054788 0 -314.96448358 0 16887
0.12350000 0.12352200 13106.13469781 0 -44.40183239 0 3148.63553684 0 362.73759619 0 -250.67214223 0 16407
0.12450000 0.12449800 13122.21693338 0 -73.58343703 0 2668.06506427 0 490.87974013 0 377.06520441 0 16306
0.12550000 0.12549900 13079.73764907 0 28.48019735 0 2735.99864558 0 701.64464662 0 297.97387897 0 17523
0.12650000 0.12650100 13176.00923858 0 14.26538660 0 2233.23468792 0 119.46660969 0 997.14740691 0 17154
0.12750000 0.12750600 13052.89695245 0 218.11282447 0 2447.49443056 0 -125.36601735 0 1081.17209675 0 18007
0.12850000 0.12850300 12872.11044220 0 206.30735443 0 2793.78378168 0 -377.69407528 0 1414.64889715 0 17496
0.12950000 0.12949900 12550.46573070 0 213.63863562 0 3082.87583014 0 -422.68884306 0 626.77684898 0 18405
0.13050000 0.13049000 12424.46973337 0 250.70097934 0 3293.57529856 0 -127.66854983 0 369.84816256 0 18100
0.13150000 0.13148800 12177.91242521 0 72.96654466 0 3574.13821656 0 -207.40649205 0 702.72271096 0 19059
0.13250000 0.13249300 12155.95185525 0 -0.87181134 0 3378.45622881 0 315.56562645 0 87.13499420 0 18957
0.13350000 0.13349100 12042.59982244 0 -14.59313147 0 3039.19869656 0 392.68826443 0 -53.35952669 0 19468
0.13450000 0.13450700 12054.35649121 0 148.77731586 0 2510.54788521 0 126.53613862 0 78.99095011 0 19953
0.13550000 0.13551000 11614.70144418 0 163.24800052 0 2540.25011064 0 204.49838021 0 292.47375440 0 19956
0.13650000 0.13649900 11621.35616235 0 186.58498802 0 2592.38982750 0 121.74806890 0 560.09324557 0 19723
0.13750000 0.13749600 11418.05452229 0 72.08202170 0 2445.57565349 0 -93.57764868 0 -112.70097955 0 20946
0.13850000 0.13851100 11282.40918361 0 222.85542028 0 3033.30927098 0 -410.60831134 0 61.03640957 0 20955
0.13950000 0.13949800 11014.01330866 0 143.00878433 0 2757.26047013 0 -175.71561501 0 -58.27292694 0 20506
0.14050000 0.14048300 11050.71407936 0 43.36203268 0 3371.14713002 0 -247.71522912 0 -73.09586802 0 21447
0.14150000 0.14148400 11029.00860693 0 54.65287117 0 3260.30170772 0 -53.75770066 0 -292.12549082 0 21771
0.14250000 0.14249400 11141.10733449 0 -33.91954215 0 3639.35445462 0 266.91630928 0 248.93415166 0 22470
0.14350000 0.14350900 11017.37394134 0 101.55133199 0 3511.69477775 0 213.09738521 0 151.51018679 0 22519
0.14450000 0.14449900 11117.03943711 0 39.06763213 0 3692.04873132 0 198.48473323 0 428.86774888 0 22218
0.14550000 0.14550500 10867.52077937 0 170.85212515 0 3497.39822488 0 -70.66334670 0 476.05635541 0 23559
0.14650000 0.14650700 10612.65616469 0 251.53281911 0 3715.93916955 0 -88.54169071 0 825.92705402 0 23044
0.14750000 0.14750500 10488.91168034 0 141.03233303 0 3873.47853100 0 33.85122038 0 1326.52933740 0 23649
0.14850000 0.14849900 10245.13826262 0 117.52232286 0 3829.11374321 0 253.46712386 0 792.25528921 0 23640
0.14950000 0.14949500 10154.78937228 0 58.89359032 0 3463.68098616 0 325.06967312 0 1469.71669000 0 24457
0.15050000 0.15050000 10066.60326534 0 34.96522020 0 3244.99585593 0 363.24113653 0 1458.13748039 0 24591
0.15150000 0.15149900 10107.57414687 0 -20.66101441 0 3057.03334125 0 292.42495314 0 1396.73661408 0 25020
0.15250000 0.15250500 10086.20141035 0 158.49985911 0 3083.44148118 0 -113.94873921 0 1025.89024380 0 25297
0.15350000 0.15350100 9729.67488445 0 191.59931816 0 3030.61411012 0 -252.06076008 0 691.80564581 0 25452
0.15450000 0.15450400 9652.87943678 0 122.61207314 0 3224.27750003 0 -242.08422843 0 1097.21773138 0 26061
0.15550000 0.15549900 9394.39909190 0 184.75383140 0 3432.39271957 0 -41.14778612 0 201.73556305 0 26128
0.15650000 0.15649500 9357.47649726 0 62.00223100 0 3063.25550274 0 346.13740172 0 432.06201360 0 26331
0.15750000 0.15749700 9224.22685713 0 0.23991035 0 3220.10720998 0 96.91066428 0 206.83973189 0 27345
0.15850000 0.15849900 9214.91025169 0 174.73958968 0 3060.21651477 0 105.45376964 0 795.47395456 0 26980
0.15950000 0.15949700 8909.02613105 0 202.14150086 0 3046.41906577 0 -20.74386565 0 556.88234405 0 27777
0.16050000 0.16050000 8904.35673714 0 98.13690701 0 3147.55969074 0 224.27952997 0 1096.72195487 0 28224
0.16150000 0.16150500 8655.90283430 0 17.41273556 0 2834.64375124 0 248.18993235 0 806.12815835 0 28075
0.16250000 0.16249700 8804.21431989 0 36.49647085 0 3220.62849623 0 72.85019800 0 1174.08083535 0 28590
0.16350000 0.16349900 8526.65711626 0 93.47483329 0 2800.77123576 0 61.87146579 0 1369.59645515 0 29163
0.16450000 0.16449100 8549.77117070 0 157.41403093 0 3278.39144994 0 -199.65374538 0 1225.69926595 0 28996
0.16550000 0.16550500 8368.08627349 0 152.88993169 0 3418.06289311 0 -257.68399694 0 1268.61110694 0 30777
0.16650000 0.16650700 8195.87325848 0 55.37535174 0 3524.01709756 0 298.77244515 0 1367.21184781 0 29211
0.16750000 0.16749900 8274.02183218 0 5.53499529 0 3429.32045801 0 127.42454350 0 1451.64913017 0 30922
0.16850000 0.16850800 8247.94642815 0 56.84870634 0 3158.06305425 0 123.98959980 0 1094.35731168 0 30867
0.16950000 0.16949900 8227.67172013 0 39.34613209 0 3414.60243966 0 159.96389711 0 1245.45268771 0 30852
0.17050000 0.17049200 8101.04352457 0 -12.92312995 0 2933.02266817 0 189.30011303 0 1150.83368654 0 31257
0.17150000 0.17149500 8138.64268223 0 27.44660870 0 2952.95354909 0 181.14142856 0 979.27948863 0 32608
0.17250000 0.17250900 8134.36148021 0 35.11228947 0 2343.78064790 0 -97.25604415 0 711.09101906 0 32361
0.17350000 0.17350400 8026.77686981 0 37.32209955 0 2538.58643110 0 146.19195785 0 689.43434790 0 32508
0.17450000 0.17449800 8035.90492490 0 27.38660533 0 2052.12653295 0 52.61830200 0 117.45355744 0 32791
0.17550000 0.17549800 7873.91799347 0 142.13479801 0 2313.19112672 0 -209.59922169 0 -78.18218002 0 33633
0.17650000 0.17650100 7866.89726580 0 61.89597734 0 2063.63919538 0 54.13624322 0 -191.61706408 0 33984
0.17750000 0.17750300 7730.95246480 0 -20.36587766 0 2207.32565185 0 362.13756244 0 44.18045210 0 34069
0.17850000 0.17849800 7862.98207328 0 -43.23814401 0 1815.47366367 0 275.54858786 0 443.78429965 0 34536
