### header ###
fiducial parameters:
Omega_m = 0.31
Omega_nu = 0
Omega_de = 0.69
Omega_k = 0
H_0 = 100
w_de = -1
zeff = 0
beta = 0
fgrowth = 0
b_1 = 2
gamma = 0.55
Lx = 3500 Ly = 3500 Lz = 3500
nx = 700 ny = 700 nz = 700
xoffset = 1379.75464 yoffset = 22.6059522 zoffset = 368.141391
bins = 400 dk = 0.001
kx_ny = 0.628318531 ky_ny = 0.628318531 kz_ny = 0.628318531
############################
A(data) = 3.33174153 (not used)
A(ran) = 3.33156002 (used)
Ngal = 187717
weighted Ngal = 0
Nran = 9399747
weighted Nran = 0
SN(data) = 6647.11386
SN(ran) = 132.514075
SN(data+ran) = 6779.62794
############################
13 columns: k_central k_mean P_0(k) sigma^{lin}_{P_0(k)} P^img_1(k) sigma^{lin}_{P_1(k)} P_2(k) sigma^{lin}_{P_2(k)} P^img_3(k) sigma^{lin}_{P_3(k)} P_4(k) sigma^{lin}_{P_4(k)} N_modes
### header ###
0.00050000 0 0 0 0 0 0 0 0 0 0 0 0
0.00150000 0.00179520 23122.26192584 0 -29101.96984850 0 -34951.24529506 0 32027.05121966 0 -366.51193051 0 3
0.00250000 0.00253879 42810.91110044 0 -26430.10050368 0 -27500.06827327 0 -16373.93405466 0 37138.87298112 0 6
0.00350000 0.00331552 65502.61276075 0 -25529.27348754 0 -71600.10919501 0 21138.93408756 0 -5374.42803161 0 7
0.00450000 0.00420575 91336.00686861 0 -36293.05830185 0 -79663.63120030 0 -16650.10485867 0 -1195.08756237 0 24
0.00550000 0.00557378 120022.27865550 0 -9042.83033104 0 -97374.38722313 0 -48980.05666698 0 -23453.00141883 0 45
0.00650000 0.00659388 113013.75130391 0 48.23328638 0 -80536.95204801 0 -56416.81513274 0 -40492.07455448 0 40
0.00750000 0.00754703 91314.71177047 0 14876.62246665 0 -34091.01205975 0 -79280.65216968 0 2880.20638830 0 57
0.00850000 0.00846663 87642.08372501 0 15966.55439075 0 -46226.33428868 0 -37732.03019391 0 -41733.29040496 0 75
0.00950000 0.00948925 76386.18250210 0 5016.39310292 0 -3312.64106612 0 -24153.52141808 0 -34906.32594742 0 112
0.01050000 0.01054430 68936.33642395 0 -1259.83797015 0 6573.97425515 0 184.57748137 0 -42637.77751608 0 105
0.01150000 0.01145670 68478.04816605 0 4005.29740673 0 14078.49993426 0 -9267.84853472 0 -38281.82082664 0 144
0.01250000 0.01249090 68473.83351121 0 6500.73908170 0 16835.66058362 0 1624.48325222 0 -7940.45408396 0 169
0.01350000 0.01339930 65191.06103848 0 5083.99394832 0 42650.31056863 0 2536.46801248 0 -5911.95180051 0 180
0.01450000 0.01448870 62344.28351778 0 -1381.92986616 0 29013.35118489 0 11157.18957006 0 2738.39434412 0 267
0.01550000 0.01550050 59193.16355282 0 -885.27937625 0 27097.56873602 0 10668.10105824 0 2013.67335313 0 238
0.01650000 0.01653350 68096.28916709 0 -5534.06362929 0 10784.08170473 0 16712.77012143 0 36558.24882088 0 315
0.01750000 0.01747870 72069.59956183 0 -3601.62220260 0 23477.29114015 0 21632.60326372 0 19820.07985844 0 297
0.01850000 0.01844180 70931.75366691 0 1312.11078137 0 5002.20746203 0 -4476.50690908 0 27842.78625897 0 388
0.01950000 0.01947590 73879.90472771 0 5771.23778483 0 10293.67334046 0 -7302.32206754 0 11035.81860186 0 399
0.02050000 0.02045430 61601.17332225 0 6431.29709761 0 15715.89333972 0 -10724.30015318 0 19659.14659072 0 462
0.02150000 0.02154770 59953.13236771 0 1958.94938739 0 26636.50767888 0 4604.05567398 0 14015.28011165 0 571
0.02250000 0.02255340 58998.95669425 0 247.30374571 0 29346.08709333 0 1465.43548798 0 1664.57792919 0 510
0.02350000 0.02348930 55284.40392432 0 2839.69024585 0 26575.94974354 0 -1045.76677785 0 8720.57560371 0 555
0.02450000 0.02439640 55295.05147339 0 629.73930769 0 27006.73183301 0 -3062.93385802 0 -3802.42832335 0 592
0.02550000 0.02547300 57196.52627820 0 -1565.31171650 0 31991.89212533 0 2372.92831348 0 6001.34684791 0 837
0.02650000 0.02652900 57933.75813935 0 -77.44051168 0 26198.29448746 0 3789.41834933 0 -13227.25056848 0 723
0.02750000 0.02749970 61895.53368925 0 116.96998126 0 31053.68777548 0 -2817.88495265 0 -2456.92194797 0 826
0.02850000 0.02848090 56869.00323232 0 2905.48322615 0 33951.92845002 0 -14.19972672 0 -12042.15617456 0 831
0.02950000 0.02946900 58206.82340821 0 1547.45488941 0 31052.35683185 0 -3479.64121857 0 -5422.86328868 0 996
0.03050000 0.03053250 56913.03528420 0 117.31380836 0 35193.47703641 0 4745.80117098 0 -11558.46907565 0 1041
0.03150000 0.03150510 56079.64274551 0 266.38393182 0 33168.88994548 0 2697.43455379 0 -13699.62464651 0 1036
0.03250000 0.03246190 53197.04065867 0 2084.30209530 0 31159.38688240 0 1827.27469722 0 -6212.46778182 0 1059
0.03350000 0.03345080 51954.38295259 0 2938.83445537 0 30227.83725072 0 -2468.36806322 0 -14170.55686893 0 1302
0.03450000 0.03451200 50584.73104145 0 871.80357196 0 29949.11547141 0 1176.01070362 0 -8595.76636445 0 1339
0.03550000 0.03553350 48390.11590131 0 -1007.45556536 0 28697.47389580 0 6202.07533028 0 -12691.43484391 0 1365
0.03650000 0.03647120 49853.26660272 0 -1234.97150659 0 23939.46131698 0 6472.94454215 0 -4663.04975055 0 1308
0.03750000 0.03744890 50297.13630459 0 -479.96822058 0 19262.85812376 0 2331.80215520 0 -9950.76680442 0 1579
0.03850000 0.03847530 51569.96206636 0 2115.65690907 0 19406.48912424 0 1969.64130125 0 -5012.97701426 0 1662
0.03950000 0.03950240 46434.95970328 0 2630.22190029 0 23112.83440843 0 -4430.09024985 0 -4685.14341487 0 1683
0.04050000 0.04050350 44926.55691832 0 1909.38282823 0 23902.52763115 0 -2354.63892971 0 -2706.04132262 0 1822
0.04150000 0.04152450 42954.43118895 0 600.30438010 0 26577.16977521 0 4736.71748068 0 -1371.11594913 0 1887
0.04250000 0.04250150 43519.08402559 0 140.16721967 0 25740.33896547 0 3846.10545693 0 -3022.12934445 0 1920
0.04350000 0.04349210 41110.18696040 0 550.45499542 0 23985.48978432 0 793.45202936 0 3763.76441079 0 2005
0.04450000 0.04448520 42437.69232314 0 928.27329210 0 25676.23184710 0 2008.08338987 0 3228.28142213 0 2151
0.04550000 0.04548030 40402.23585920 0 724.34499941 0 23552.15671955 0 2259.58737187 0 4410.85811434 0 2274
0.04650000 0.04648670 41329.45992407 0 -59.30518464 0 21034.78774821 0 1831.96627353 0 4985.95885850 0 2311
0.04750000 0.04749250 39567.06872900 0 979.70649971 0 21770.02319391 0 251.02262405 0 1874.92247931 0 2568
0.04850000 0.04851840 38488.67164972 0 1305.67788714 0 21176.86598112 0 -633.95618076 0 2506.17795362 0 2493
0.04950000 0.04949480 36626.57059408 0 758.84749488 0 20771.81546857 0 -44.73135185 0 -15.20847108 0 2644
0.05050000 0.05050630 36926.03291169 0 451.40506107 0 22453.01910198 0 929.25708127 0 1043.50528280 0 2829
0.05150000 0.05149060 35008.91951919 0 926.45100844 0 20136.62261935 0 -281.79847734 0 -5056.34359433 0 2784
0.05250000 0.05249300 34636.58803763 0 781.06870797 0 20626.96443643 0 800.35408122 0 -2461.82425702 0 3055
0.05350000 0.05348950 33557.74731048 0 146.58236799 0 19195.42364632 0 1912.17780986 0 -1916.24827914 0 3009
0.05450000 0.05448610 35231.07619406 0 -730.16122309 0 18810.33728828 0 2985.61712410 0 2002.51560900 0 3336
0.05550000 0.05550870 33703.37472641 0 -259.39536863 0 15588.89913467 0 3252.70423781 0 -2483.19699354 0 3349
0.05650000 0.05647670 35609.95148181 0 672.45816185 0 15987.73857692 0 -243.92869448 0 3126.50859893 0 3324
0.05750000 0.05747970 33643.59317486 0 883.29959760 0 15769.24199704 0 3.14123771 0 1264.09698978 0 3639
0.05850000 0.05849280 32429.43984494 0 1066.45296928 0 17353.06492125 0 297.51692166 0 3688.90992258 0 3846
0.05950000 0.05951020 31598.59828155 0 1085.71616014 0 16778.76274327 0 -811.80019647 0 4020.30379620 0 3787
0.06050000 0.06049470 30309.80119616 0 301.50753432 0 16266.34944426 0 1910.20357680 0 2441.05044514 0 3930
0.06150000 0.06148310 29949.89185519 0 622.17289313 0 17789.05987328 0 1056.19915770 0 1095.66607292 0 4083
0.06250000 0.06249100 28891.79166633 0 117.03098284 0 14720.01476574 0 358.01940101 0 1496.80139295 0 4303
0.06350000 0.06350600 30229.83366617 0 -708.01432103 0 14814.28993980 0 3529.56269603 0 4938.24452923 0 4470
0.06450000 0.06451750 29608.94846101 0 -887.40666783 0 9954.90382088 0 2308.73246555 0 -246.07927757 0 4479
0.06550000 0.06550280 31246.12004253 0 -376.36756812 0 10986.25204270 0 2308.25554408 0 3922.10233842 0 4636
0.06650000 0.06648880 30625.90030919 0 347.03911603 0 7256.63742731 0 429.19826654 0 870.81201895 0 4653
0.06750000 0.06749660 30966.06731959 0 357.87077897 0 8820.19673470 0 -615.92522189 0 4717.35225081 0 5220
0.06850000 0.06852730 30124.02364728 0 41.75680374 0 8972.17940648 0 298.75248100 0 1153.22938509 0 5029
0.06950000 0.06949320 30382.78127208 0 600.17239486 0 10329.86391611 0 -1859.69426590 0 2603.07065016 0 5040
0.07050000 0.07048030 29351.29995590 0 1006.48064914 0 10169.74030576 0 -114.59202863 0 1626.16911415 0 5475
0.07150000 0.07148790 28487.96118545 0 293.84351723 0 10707.33062184 0 1077.66062380 0 2943.25984295 0 5509
0.07250000 0.07249820 28334.34810772 0 0.06523642 0 10788.12999161 0 1847.09466617 0 4040.33449789 0 5916
0.07350000 0.07351270 28659.87473815 0 -99.47062345 0 9951.18826990 0 2668.54198574 0 4659.94421540 0 5721
0.07450000 0.07449140 27770.58256684 0 390.09292434 0 7611.35608811 0 1262.74386375 0 6336.48954610 0 6028
0.07550000 0.07549160 27440.73036960 0 551.38221949 0 8508.05717898 0 387.57522264 0 7576.86246560 0 6183
0.07650000 0.07648840 26277.59654564 0 972.18666818 0 8621.46466778 0 -846.85614266 0 6922.32656890 0 6330
0.07750000 0.07749960 25367.67474801 0 709.65249082 0 9501.15186253 0 -679.14726273 0 6390.18203052 0 6583
0.07850000 0.07848650 25059.00673694 0 -206.45708559 0 10117.61168011 0 80.17548994 0 5023.33619221 0 6549
0.07950000 0.07947320 24919.81221524 0 316.16676933 0 8768.19011221 0 640.77061217 0 3971.34725287 0 6828
0.08050000 0.08048110 24537.72048037 0 540.93431196 0 9466.59169284 0 -1041.06743771 0 2924.70427046 0 7147
0.08150000 0.08149960 23996.13733339 0 598.27912754 0 9594.08500176 0 -161.88267418 0 3412.41747386 0 7386
0.08250000 0.08250610 23262.01100739 0 535.69926700 0 11096.63163473 0 361.76711646 0 2736.53102303 0 7227
0.08350000 0.08350160 22606.18853184 0 482.34173672 0 9907.35585956 0 512.73494372 0 2740.43512436 0 7798
0.08450000 0.08449610 21667.09688623 0 542.87638055 0 11112.82478227 0 132.58084096 0 4303.55078386 0 7371
0.08550000 0.08548940 21053.97551893 0 574.60164030 0 10000.95447061 0 230.15453699 0 2622.19187370 0 8256
0.08650000 0.08650700 20980.77361907 0 -71.22533765 0 10115.78163261 0 1281.33270984 0 5474.09352739 0 8037
0.08750000 0.08749060 20707.48652627 0 48.39732518 0 10075.46513170 0 793.42208313 0 2596.67102952 0 8155
0.08850000 0.08849210 20412.68251139 0 402.91212978 0 9295.67634787 0 -233.84679646 0 4307.14433168 0 8718
0.08950000 0.08949900 20441.85235936 0 -235.04131837 0 8021.78583118 0 690.62332421 0 2335.40679421 0 8571
0.09050000 0.09049190 20289.57022526 0 16.66330338 0 8268.74242243 0 839.54482564 0 2886.12908747 0 8932
0.09150000 0.09150830 20105.90000380 0 346.09192781 0 6803.16274889 0 459.50939868 0 2613.57401367 0 9285
0.09250000 0.09250820 19562.54226531 0 149.55813613 0 7570.82885446 0 741.83359876 0 2409.62908418 0 9204
0.09350000 0.09350330 19354.80414647 0 18.91293086 0 6013.82444448 0 439.83694266 0 2401.29959527 0 9349
0.09450000 0.09448040 19026.50471680 0 291.16055669 0 5991.45350023 0 750.25625372 0 362.67659461 0 9564
0.09550000 0.09549270 18571.21108207 0 584.49609709 0 5701.16360251 0 -1312.84280037 0 1182.76524256 0 10155
0.09650000 0.09649430 18024.74780843 0 615.67456084 0 6239.44157280 0 -620.19533271 0 -354.94159386 0 9913
0.09750000 0.09749140 17241.37656798 0 325.97582391 0 6149.56960393 0 157.93088070 0 485.75560714 0 10476
0.09850000 0.09850240 16725.96864580 0 -170.76672293 0 6378.35881457 0 1044.09977095 0 -376.52728136 0 10575
0.09950000 0.09950330 17469.07884133 0 60.04485657 0 5388.99077320 0 1243.36754268 0 371.93330758 0 10882
0.10050000 0.10051200 17040.18225534 0 138.49244893 0 4944.44450832 0 312.53772968 0 1189.26468397 0 10875
0.10150000 0.10150300 16639.23548566 0 391.65567399 0 5358.13506329 0 317.03077357 0 2672.81209657 0 11118
0.10250000 0.10250800 16371.71581527 0 271.44262675 0 5690.09458795 0 255.34375438 0 3321.79130360 0 11575
0.10350000 0.10349800 16299.17938723 0 133.14871024 0 5747.34734660 0 376.39196875 0 3612.79103793 0 11364
0.10450000 0.10450100 15785.43514459 0 336.37825752 0 5754.72299257 0 -115.29410140 0 2857.00360429 0 12093
0.10550000 0.10551000 15896.90167392 0 221.26494264 0 6678.69733674 0 -410.29886694 0 3995.14896152 0 12067
0.10650000 0.10649700 15237.97366322 0 50.50919999 0 6345.58432759 0 5.10717455 0 3633.80885615 0 12054
0.10750000 0.10749900 15693.48912189 0 -219.05890357 0 5406.45940840 0 1383.88191682 0 3650.13509805 0 12807
0.10850000 0.10850100 15876.05022366 0 -263.37489009 0 5127.50471395 0 595.91337523 0 2568.59921004 0 12736
0.10950000 0.10950300 15657.44273181 0 272.68927729 0 4509.95795907 0 -154.24194860 0 2112.68446829 0 12933
0.11050000 0.11050200 15283.22574677 0 355.05250583 0 4387.17840885 0 -610.18996394 0 1699.58174675 0 13428
0.11150000 0.11150900 14854.21824882 0 164.75307595 0 4292.06030383 0 -354.20513838 0 953.99045047 0 13453
0.11250000 0.11250000 14826.49025644 0 49.94920546 0 4641.99865874 0 484.29046003 0 824.62051102 0 13668
0.11350000 0.11349100 14927.64197261 0 -47.63813275 0 3458.23520846 0 568.01014195 0 519.86325600 0 13791
0.11450000 0.11448600 14797.76405635 0 86.01478331 0 3636.73693214 0 479.77412463 0 705.77833572 0 14205
0.11550000 0.11549300 14218.47083974 0 234.65201735 0 3091.17204545 0 -6.04729768 0 723.99119023 0 14776
0.11650000 0.11649800 14521.37142840 0 183.65025731 0 3496.15601082 0 -55.78938612 0 1375.88516382 0 14553
0.11750000 0.11747300 14322.06261924 0 -0.75775501 0 4056.93801972 0 142.63279275 0 1861.93468768 0 14568
0.11850000 0.11849100 14099.46229649 0 20.92298848 0 3528.42030274 0 -100.50254841 0 1090.53417610 0 16015
0.11950000 0.11950300 14447.39314475 0 319.84350111 0 4507.17406864 0 -461.08767601 0 1024.29200232 0 15270
0.12050000 0.12050700 13813.30941522 0 302.49021437 0 4546.80291533 0 -1060.45817733 0 661.02757428 0 15999
0.12150000 0.12150000 13678.55137230 0 279.68782256 0 5767.27822752 0 -62.53349934 0 711.29509708 0 15670
0.12250000 0.12250700 13515.95442504 0 43.63554159 0 5381.74822160 0 118.53273091 0 255.26611600 0 16887
0.12350000 0.12352200 13275.16453930 0 55.50545148 0 4990.28442531 0 355.26767505 0 -326.21428464 0 16407
0.12450000 0.12449800 13402.71330420 0 104.22553049 0 5749.85395711 0 -137.35449213 0 598.29909170 0 16306
0.12550000 0.12549900 13233.68346271 0 41.40831833 0 4649.26339274 0 478.83137289 0 -192.30915477 0 17523
0.12650000 0.12650100 13041.14028369 0 46.98286483 0 4983.80716629 0 522.01716645 0 598.81705059 0 17154
0.12750000 0.12750600 13000.54650286 0 186.36538232 0 4309.34038867 0 -173.11694757 0 -298.34432495 0 18007
0.12850000 0.12850300 12949.97064478 0 202.80031796 0 4965.09631704 0 -59.68405993 0 229.80072781 0 17496
0.12950000 0.12949900 12291.81901787 0 332.81465595 0 5113.84035931 0 -197.40334152 0 443.91850313 0 18405
0.13050000 0.13049000 12168.48490780 0 100.26863507 0 5152.80373419 0 154.88634714 0 177.55342635 0 18100
0.13150000 0.13148800 12311.89408434 0 3.38551023 0 4774.74919501 0 274.80769591 0 434.39781967 0 19059
0.13250000 0.13249300 12098.05580718 0 147.41753512 0 4934.41806628 0 209.95746735 0 665.00044102 0 18957
0.13350000 0.13349100 11863.80972764 0 114.38905973 0 4905.61422780 0 -18.85525664 0 819.41097582 0 19468
0.13450000 0.13450700 12039.16155139 0 -61.24237310 0 4730.35113363 0 590.15482578 0 942.91810855 0 19953
0.13550000 0.13551000 11874.56818868 0 -33.27325811 0 4446.43867415 0 246.54288960 0 957.94446218 0 19956
0.13650000 0.13649900 11850.50029130 0 129.69047504 0 4326.77575027 0 319.77362657 0 1289.45146600 0 19723
0.13750000 0.13749600 11840.07456617 0 68.39308960 0 3858.59414470 0 -27.67486554 0 716.56896123 0 20946
0.13850000 0.13851100 11659.28805591 0 123.06903046 0 3756.56622397 0 298.54174826 0 1318.11111892 0 20955
0.13950000 0.13949800 11646.31135548 0 124.25024293 0 3839.26218842 0 356.47994287 0 992.64992655 0 20506
0.14050000 0.14048300 11286.29110254 0 120.12320855 0 3491.32024895 0 131.47504862 0 1135.12855167 0 21447
0.14150000 0.14148400 11073.81704260 0 153.09511884 0 3256.86343666 0 277.21670388 0 1243.30099550 0 21771
0.14250000 0.14249400 11115.15393363 0 41.71343716 0 3058.77465917 0 349.60229165 0 1440.49138604 0 22470
0.14350000 0.14350900 11051.04681527 0 -143.93933575 0 2400.84485620 0 351.21384256 0 911.01206229 0 22519
0.14450000 0.14449900 11104.17364865 0 143.17626140 0 2542.63471799 0 69.59437714 0 1023.07307978 0 22218
0.14550000 0.14550500 10661.69034640 0 235.71455402 0 2215.14494570 0 -345.39761888 0 407.80112939 0 23559
0.14650000 0.14650700 10567.60372269 0 138.64328921 0 2642.94350319 0 -254.72264735 0 523.32592769 0 23044
0.14750000 0.14750500 10410.86292742 0 92.13224390 0 2345.66615138 0 -33.28080012 0 -176.04058708 0 23649
0.14850000 0.14849900 10416.26434033 0 33.10056817 0 2419.12314877 0 223.51756474 0 -349.71764009 0 23640
0.14950000 0.14949500 10290.63435250 0 144.06022980 0 2338.85615646 0 -182.48789987 0 -700.23828285 0 24457
0.15050000 0.15050000 10026.34222042 0 196.44617123 0 2248.58490449 0 -64.17577287 0 -617.70535900 0 24591
0.15150000 0.15149900 9940.26344091 0 94.79324387 0 2243.53840988 0 216.19959299 0 -425.09452367 0 25020
0.15250000 0.15250500 9822.19764939 0 -22.57424588 0 1881.28882636 0 574.18017481 0 -447.59856228 0 25297
0.15350000 0.15350100 9601.56046850 0 170.34303921 0 2044.26287431 0 121.41644211 0 -108.47345892 0 25452
0.15450000 0.15450400 9515.98079285 0 270.59858666 0 1843.34584160 0 -110.93304276 0 681.53408831 0 26061
0.15550000 0.15549900 9141.85253739 0 117.72307353 0 1931.73159008 0 252.36798624 0 477.66014249 0 26128
0.15650000 0.15649500 8976.76007082 0 139.19230346 0 2504.90246597 0 -322.29021916 0 815.18190242 0 26331
0.15750000 0.15749700 8896.44871371 0 198.66330150 0 2424.09200500 0 -472.24763838 0 -206.76431175 0 27345
0.15850000 0.15849900 8850.44242877 0 124.32011747 0 3037.08027794 0 -354.46245415 0 431.38545058 0 26980
0.15950000 0.15949700 8779.19257958 0 -97.13226639 0 3004.44997652 0 -10.42309652 0 103.39136157 0 27777
0.16050000 0.16050000 8913.68443377 0 -90.73397670 0 2910.64063273 0 446.21881738 0 -31.82774241 0 28224
0.16150000 0.16150500 9136.56203645 0 -35.09143802 0 2421.57430330 0 385.49340497 0 -175.84538202 0 28075
0.16250000 0.16249700 9002.41400936 0 54.33488655 0 2560.48045388 0 222.91309450 0 175.53593762 0 28590
0.16350000 0.16349900 9004.13314488 0 158.28468989 0 2554.14738042 0 -219.65228260 0 438.06789674 0 29163
0.16450000 0.16449100 8693.85691026 0 153.44781890 0 2259.80919581 0 -138.86844051 0 -47.76213233 0 28996
0.16550000 0.16550500 8463.99185351 0 208.60323220 0 2750.51702239 0 -175.14441837 0 264.55942993 0 30777
0.16650000 0.16650700 8326.87138564 0 128.49706224 0 2455.57991314 0 57.42567041 0 -659.20750886 0 29211
0.16750000 0.16749900 8167.12487599 0 23.12836208 0 2567.29044880 0 289.99819925 0 -201.16880289 0 30922
0.16850000 0.16850800 7978.49688949 0 138.34382689 0 2315.99719955 0 119.07730868 0 -368.66251360 0 30867
0.16950000 0.16949900 7945.48948737 0 128.45269746 0 2357.71119127 0 30.13345116 0 123.04241158 0 30852
0.17050000 0.17049200 7839.44655335 0 4.96672672 0 2232.65794568 0 257.83816458 0 299.95476675 0 31257
0.17150000 0.17149500 7789.43634631 0 23.67438171 0 2140.13518074 0 103.98418604 0 46.25472775 0 32608
0.17250000 0.17250900 7821.46772310 0 91.88213741 0 2185.55363224 0 75.78304321 0 463.36913522 0 32361
0.17350000 0.17350400 7710.18974412 0 53.23663623 0 2255.11761950 0 -42.76222075 0 263.65993385 0 32508
0.17450000 0.17449800 7624.22187657 0 140.34135146 0 2437.13525261 0 -91.71865316 0 855.55718667 0 32791
0.17550000 0.17549800 7580.10109511 0 93.87677827 0 2236.51768222 0 149.30747508 0 695.82620470 0 33633
0.17650000 0.17650100 7593.19979871 0 -100.79757425 0 2438.03363957 0 349.09209659 0 1165.37424574 0 33984
0.17750000 0.17750300 7622.42510267 0 11.04618887 0 2123.56493249 0 173.11805669 0 932.45245511 0 34069
0.17850000 0.17849800 7580.95511728 0 76.84413802 0 2120.93631882 0 115.67120209 0 1081.15435084 0 34536
