### header ###
fiducial parameters:
Omega_m = 0.31
Omega_nu = 0
Omega_de = 0.69
Omega_k = 0
H_0 = 100
w_de = -1
zeff = 0
beta = 0
fgrowth = 0
b_1 = 2
gamma = 0.55
Lx = 3500 Ly = 3500 Lz = 3500
nx = 700 ny = 700 nz = 700
xoffset = 1379.75464 yoffset = 22.6059522 zoffset = 368.141391
bins = 400 dk = 0.001
kx_ny = 0.628318531 ky_ny = 0.628318531 kz_ny = 0.628318531
############################
A(data) = 3.29625479 (not used)
A(ran) = 3.2941072 (used)
Ngal = 184951
weighted Ngal = 0
Nran = 9399747
weighted Nran = 0
SN(data) = 6688.20054
SN(ran) = 131.024375
SN(data+ran) = 6819.22492
############################
13 columns: k_central k_mean P_0(k) sigma^{lin}_{P_0(k)} P^img_1(k) sigma^{lin}_{P_1(k)} P_2(k) sigma^{lin}_{P_2(k)} P^img_3(k) sigma^{lin}_{P_3(k)} P_4(k) sigma^{lin}_{P_4(k)} N_modes
### header ###
0.00050000 0 0 0 0 0 0 0 0 0 0 0 0
0.00150000 0.00179520 16741.27449759 0 -15850.87320658 0 -5364.78978146 0 -6462.49663462 0 61886.77164366 0 3
0.00250000 0.00253879 22931.82607424 0 -11418.38725820 0 -8032.31137708 0 -22935.59708120 0 -25765.18324663 0 6
0.00350000 0.00331552 25906.70691969 0 507.70619502 0 -7900.50359255 0 -11231.50058962 0 -275.29238121 0 7
0.00450000 0.00420575 26831.38000926 0 3768.55580787 0 -2820.49138393 0 -15069.16564567 0 5519.05723981 0 24
0.00550000 0.00557378 25186.33367790 0 -6459.82365616 0 -2360.67254085 0 3214.72797946 0 1837.19022729 0 45
0.00650000 0.00659388 43714.84365172 0 -18325.09742179 0 -28428.84510571 0 17195.90266049 0 -5403.99716267 0 40
0.00750000 0.00754703 54125.04110733 0 -16824.23665076 0 -37973.81828739 0 -1827.67398031 0 -20208.27175163 0 57
0.00850000 0.00846663 76287.47084926 0 -7562.16662965 0 -42254.79848546 0 -17745.47146928 0 -25784.81466523 0 75
0.00950000 0.00948925 85290.08450017 0 -3800.65373184 0 -24748.56413436 0 -30734.26130337 0 -24731.92733893 0 112
0.01050000 0.01054430 74766.53501175 0 9385.68141110 0 -16008.36820325 0 -43935.22573509 0 -28388.91679670 0 105
0.01150000 0.01145670 68721.61085103 0 8960.16764018 0 1280.84469717 0 -18938.77334894 0 -35833.88274820 0 144
0.01250000 0.01249090 62229.60054133 0 3800.69809663 0 20789.22864778 0 -9977.14167076 0 -20734.54904682 0 169
0.01350000 0.01339930 57602.02043862 0 665.35314109 0 7445.25432262 0 15522.24104101 0 -38397.94565869 0 180
0.01450000 0.01448870 61752.01360074 0 -862.00449946 0 17282.74673260 0 8021.51964245 0 -13316.97835179 0 267
0.01550000 0.01550050 57220.15052770 0 962.59167370 0 -7484.25097109 0 -12224.71727633 0 -34815.37813244 0 238
0.01650000 0.01653350 63140.52054669 0 -2291.48565429 0 19750.98170146 0 -896.20864173 0 -11362.26580164 0 315
0.01750000 0.01747870 57985.11038122 0 3828.38172421 0 7175.69387199 0 -12236.91759297 0 -36042.39725082 0 297
0.01850000 0.01844180 59761.58739641 0 3744.25499536 0 21880.82425142 0 -5114.47255754 0 -8363.01759649 0 388
0.01950000 0.01947590 55763.98728037 0 329.95867273 0 22143.46379516 0 -1667.79437630 0 -24592.95464117 0 399
0.02050000 0.02045430 57441.97446666 0 1789.53135400 0 30751.11992273 0 1201.19881189 0 -14452.05144747 0 462
0.02150000 0.02154770 56305.23769144 0 449.00159870 0 24341.84994226 0 5157.56185768 0 -5189.14958659 0 571
0.02250000 0.02255340 54641.00358936 0 -2003.80218785 0 28305.51099565 0 6675.62507518 0 -2932.45701713 0 510
0.02350000 0.02348930 58034.24438370 0 -248.09787542 0 23654.08481950 0 3654.58266803 0 -1207.57625013 0 555
0.02450000 0.02439640 56656.05225091 0 2806.67175254 0 26574.61879991 0 -1108.72373909 0 -10305.38564444 0 592
0.02550000 0.02547300 52714.90632733 0 5464.54400681 0 31231.03601468 0 -5406.12667249 0 5845.39352762 0 837
0.02650000 0.02652900 45526.14702534 0 3250.69673116 0 31509.42505808 0 614.82275691 0 -261.19657901 0 723
0.02750000 0.02749970 44043.47581730 0 750.19857950 0 38051.34575405 0 6034.11024370 0 -803.90659160 0 826
0.02850000 0.02848090 45613.43474532 0 351.65083572 0 30169.49755477 0 5701.18578490 0 978.58628882 0 831
0.02950000 0.02946900 40996.28036775 0 -877.14509241 0 23878.12699786 0 7660.98919445 0 2081.85094077 0 996
0.03050000 0.03053250 46285.67219235 0 -1999.33243548 0 20388.83643795 0 7663.28507222 0 8468.94961854 0 1041
0.03150000 0.03150510 47258.81381259 0 -1460.18935182 0 16363.28650559 0 3133.18549949 0 2603.17047093 0 1036
0.03250000 0.03246190 46711.90689107 0 1047.35614638 0 12571.42809293 0 143.09418655 0 6002.72215633 0 1059
0.03350000 0.03345080 48704.88407070 0 -1142.28237370 0 11096.40981079 0 1074.36875654 0 2332.32344145 0 1302
0.03450000 0.03451200 48803.59572354 0 -1757.81053073 0 10493.13742638 0 3110.23781301 0 6539.87991573 0 1339
0.03550000 0.03553350 53147.68483225 0 -1485.24436573 0 5994.11538750 0 5478.06417589 0 650.04063458 0 1365
0.03650000 0.03647120 53725.64710522 0 -3170.79574835 0 1064.59297555 0 3755.11327717 0 2788.39345996 0 1308
0.03750000 0.03744890 54891.22099251 0 -110.90376200 0 1193.55697719 0 2500.29961923 0 5218.46362012 0 1579
0.03850000 0.03847530 53967.65702263 0 2153.62207622 0 1038.90576342 0 -3829.93449178 0 35.26512617 0 1662
0.03950000 0.03950240 52424.98243910 0 1832.04391191 0 805.76991269 0 -3233.44991991 0 371.05155742 0 1683
0.04050000 0.04050350 49958.96570963 0 2125.94953984 0 7688.91682837 0 -4114.70097343 0 -381.56933949 0 1822
0.04150000 0.04152450 45229.23568303 0 3593.54781122 0 9848.55033334 0 -6307.16442136 0 -2715.09173933 0 1887
0.04250000 0.04250150 45207.94058489 0 1308.80560468 0 11545.82511113 0 -846.80955964 0 -4568.49729656 0 1920
0.04350000 0.04349210 41815.36526237 0 -56.26941313 0 14428.75993388 0 2459.11800497 0 -5080.42258291 0 2005
0.04450000 0.04448520 42210.87734555 0 1392.36668249 0 14388.83162487 0 -1566.30992422 0 -5025.07751013 0 2151
0.04550000 0.04548030 39684.30268074 0 2293.32679298 0 16853.07376282 0 -1845.57517218 0 -3229.07998831 0 2274
0.04650000 0.04648670 38413.80607032 0 898.92487586 0 19104.14309544 0 339.63352383 0 -1361.91025567 0 2311
0.04750000 0.04749250 38261.41302425 0 -371.62164495 0 20065.52804691 0 2358.49866625 0 516.33625537 0 2568
0.04850000 0.04851840 37838.50568462 0 495.70330169 0 20295.78129555 0 681.82356855 0 2044.42924227 0 2493
0.04950000 0.04949480 38448.29969283 0 -44.30966454 0 17643.65428129 0 4445.93957029 0 5085.54671590 0 2644
0.05050000 0.05050630 37622.56008004 0 -31.18888947 0 17481.16824600 0 4259.24145206 0 10310.24358870 0 2829
0.05150000 0.05149060 38156.71212506 0 536.05196706 0 14713.69278348 0 1655.94897796 0 10026.00948451 0 2784
0.05250000 0.05249300 37704.30220154 0 975.28887597 0 15729.86824788 0 1356.84157866 0 11365.59316072 0 3055
0.05350000 0.05348950 35273.22274246 0 1100.29442941 0 16491.38983034 0 -845.19911784 0 11330.65589033 0 3009
0.05450000 0.05448610 33967.23430181 0 958.55225977 0 16839.20976664 0 -1482.18319537 0 9987.16811280 0 3336
0.05550000 0.05550870 33344.57450514 0 836.21192095 0 17757.22813804 0 -87.27807064 0 5411.81645652 0 3349
0.05650000 0.05647670 33091.69521472 0 102.37086054 0 16101.75608155 0 612.47142316 0 5727.92666074 0 3324
0.05750000 0.05747970 32545.23194108 0 247.11075889 0 18634.65272862 0 978.58739794 0 1331.91965912 0 3639
0.05850000 0.05849280 32539.35360670 0 345.99654352 0 16524.66342119 0 -1141.25089238 0 1282.31982637 0 3846
0.05950000 0.05951020 31568.31931388 0 917.77769243 0 17523.75844228 0 -667.91742582 0 -278.64635917 0 3787
0.06050000 0.06049470 30085.31536993 0 890.31477967 0 17734.71300824 0 -1649.94864041 0 -1015.84161937 0 3930
0.06150000 0.06148310 30301.37188648 0 319.12590067 0 18043.49193128 0 957.00171044 0 -503.83980377 0 4083
0.06250000 0.06249100 30112.48880245 0 -225.88997177 0 15576.25517014 0 2926.55650035 0 -3598.49448506 0 4303
0.06350000 0.06350600 30177.70504051 0 -297.74761855 0 15050.31061086 0 2131.76132704 0 1301.64069145 0 4470
0.06450000 0.06451750 30792.26826341 0 -954.95427548 0 10804.72242225 0 3939.24932890 0 326.02129781 0 4479
0.06550000 0.06550280 31352.15188536 0 -733.93223006 0 10515.31982028 0 2592.17909475 0 1571.12350370 0 4636
0.06650000 0.06648880 30912.27501439 0 887.09167783 0 6466.81111024 0 575.57877475 0 -217.94978387 0 4653
0.06750000 0.06749660 30187.02164595 0 1003.68677663 0 8507.56916632 0 -890.21939537 0 2246.97668094 0 5220
0.06850000 0.06852730 28387.14220519 0 742.90389927 0 6009.37687450 0 663.28019638 0 877.14731065 0 5029
0.06950000 0.06949320 27963.01483389 0 41.34509851 0 6909.33877727 0 1094.04786729 0 660.95880886 0 5040
0.07050000 0.07048030 27044.88555052 0 500.35827704 0 5442.11760658 0 -2.29618832 0 -515.10735075 0 5475
0.07150000 0.07148790 26727.34458189 0 673.48298845 0 5131.71936879 0 45.91489348 0 -1739.28823183 0 5509
0.07250000 0.07249820 25670.35351272 0 481.00192013 0 5419.52483840 0 -880.24951844 0 -726.48670954 0 5916
0.07350000 0.07351270 24763.98089811 0 702.46872255 0 5951.76919755 0 -1147.75033379 0 -3832.62965264 0 5721
0.07450000 0.07449140 24393.20218413 0 837.02601481 0 7220.65758441 0 -165.07804802 0 -3322.61205217 0 6028
0.07550000 0.07549160 22893.45053280 0 488.81788662 0 7376.74399907 0 -315.17188896 0 -1838.37698536 0 6183
0.07650000 0.07648840 23355.50979766 0 -149.54593581 0 8468.09559638 0 1035.37654455 0 -2374.32580430 0 6330
0.07750000 0.07749960 23455.44148216 0 -269.10903891 0 6877.64013640 0 1674.69310080 0 -803.30101225 0 6583
0.07850000 0.07848650 23189.58549131 0 373.85097553 0 8067.51483620 0 -687.26380066 0 -1831.32298411 0 6549
0.07950000 0.07947320 23221.63905049 0 511.53154885 0 7404.37217066 0 -702.57076157 0 1787.36857060 0 6828
0.08050000 0.08048110 22760.35616942 0 409.92176625 0 9117.86227839 0 -421.66956206 0 -501.40417692 0 7147
0.08150000 0.08149960 22482.96533374 0 272.76137007 0 10083.60607026 0 224.98825745 0 1795.08804368 0 7386
0.08250000 0.08250610 21703.80874813 0 447.81262238 0 10003.11725401 0 331.80424790 0 397.09146962 0 7227
0.08350000 0.08350160 21797.64027431 0 497.64093379 0 9509.48135144 0 84.61429787 0 1709.17563211 0 7798
0.08450000 0.08449610 21301.53103482 0 297.38160905 0 11520.64809406 0 431.70598617 0 3052.61904486 0 7371
0.08550000 0.08548940 20607.11119389 0 233.10479538 0 10425.89149928 0 565.35269116 0 2314.65516472 0 8256
0.08650000 0.08650700 20453.05446828 0 172.93172458 0 9884.39708188 0 349.59120045 0 3541.78519507 0 8037
0.08750000 0.08749060 20360.66479770 0 -202.60178553 0 9706.31682368 0 1399.56486931 0 2487.06782128 0 8155
0.08850000 0.08849210 20455.05088373 0 208.19840351 0 8657.93252334 0 419.42137643 0 2507.91927154 0 8718
0.08950000 0.08949900 19914.57685644 0 308.11456034 0 8460.18757295 0 312.28706863 0 1427.23740569 0 8571
0.09050000 0.09049190 19512.63187904 0 526.76308962 0 9113.09306370 0 -541.75838789 0 2147.77701543 0 8932
0.09150000 0.09150830 18773.84725032 0 298.23563122 0 8107.26568606 0 75.31022549 0 1016.04680651 0 9285
0.09250000 0.09250820 18747.45020158 0 325.41017286 0 8128.01731555 0 673.72144918 0 1051.86028146 0 9204
0.09350000 0.09350330 17957.75697887 0 -31.95529118 0 7614.26198171 0 761.26204846 0 1666.31924711 0 9349
0.09450000 0.09448040 18135.88160186 0 163.69386664 0 6736.44919925 0 671.79601739 0 278.39458900 0 9564
0.09550000 0.09549270 17417.94842340 0 293.13146238 0 6503.55624573 0 438.71673177 0 1154.33850478 0 10155
0.09650000 0.09649430 17151.20513679 0 255.49570378 0 6286.03569118 0 285.17352857 0 1137.34679106 0 9913
0.09750000 0.09749140 17232.39269845 0 19.76196199 0 5649.43425994 0 552.18300391 0 1118.96867771 0 10476
0.09850000 0.09850240 16866.60502310 0 -25.31798619 0 5340.89934323 0 731.55760479 0 1091.37932530 0 10575
0.09950000 0.09950330 16798.28324990 0 -14.66855161 0 4648.07663467 0 381.39298946 0 1785.01723685 0 10882
0.10050000 0.10051200 16835.66058362 0 -9.76728513 0 5070.31850249 0 231.52208158 0 945.44579234 0 10875
0.10150000 0.10150300 17182.26048825 0 115.87749836 0 4319.31137473 0 -330.32690047 0 360.56593983 0 11118
0.10250000 0.10250800 16490.61344656 0 407.76785580 0 5455.59341088 0 -636.80661838 0 827.32898132 0 11575
0.10350000 0.10349800 16187.38012199 0 581.61016765 0 5489.18864643 0 -950.18284255 0 -24.11536770 0 11364
0.10450000 0.10450100 15883.37041364 0 -72.04885902 0 6409.72471954 0 101.48411934 0 -181.06379018 0 12093
0.10550000 0.10551000 16241.61607507 0 -69.71682395 0 6757.15646395 0 120.27183059 0 -434.13717655 0 12067
0.10650000 0.10649700 16248.82535309 0 -177.67321127 0 5994.11538750 0 -72.89533917 0 -695.97371762 0 12054
0.10750000 0.10749900 16456.11982405 0 249.07833723 0 6255.80108830 0 -123.53929721 0 -910.22458731 0 12807
0.10850000 0.10850100 16267.12582805 0 326.81875487 0 6538.47133372 0 -158.94350699 0 -307.76740588 0 12736
0.10950000 0.10950300 15783.32781717 0 119.74056225 0 6825.54478433 0 958.96041582 0 127.47334477 0 12933
0.11050000 0.11050200 15772.79118007 0 -206.71661960 0 5521.14238484 0 1422.04672552 0 1102.58032510 0 13428
0.11150000 0.11150900 15717.77884320 0 -36.15641476 0 4883.72020503 0 1400.39670908 0 1915.77135767 0 13453
0.11250000 0.11250000 15705.57852656 0 45.29034818 0 3842.72264186 0 758.74545587 0 2107.00577545 0 13668
0.11350000 0.11349100 15239.74825474 0 252.90036369 0 3950.69544415 0 505.14412853 0 2600.13148297 0 13791
0.11450000 0.11448600 15180.18852712 0 530.90010608 0 3618.79137548 0 -659.54468124 0 2108.45872225 0 14205
0.11550000 0.11549300 14342.80315753 0 247.43573096 0 3493.26120842 0 -242.86837605 0 2312.34819575 0 14776
0.11650000 0.11649800 14027.70225223 0 113.62265802 0 3490.17785567 0 109.06439789 0 980.47511966 0 14553
0.11750000 0.11747300 14095.35855362 0 -44.11623407 0 2850.31561253 0 -126.99975066 0 108.90523922 0 14568
0.11850000 0.11849100 13831.16624231 0 314.65836654 0 3097.53839250 0 -462.27443408 0 -861.13605874 0 16015
0.11950000 0.11950300 13555.54999815 0 282.63919007 0 3927.00464747 0 -834.42512913 0 -881.92872565 0 15270
0.12050000 0.12050700 13188.98593901 0 186.48849461 0 3272.50202436 0 -234.32149969 0 -1994.05302573 0 15999
0.12150000 0.12150000 13327.18225298 0 42.06502811 0 3796.16179707 0 108.05299164 0 -2868.25007799 0 15670
0.12250000 0.12250700 12965.72014444 0 86.66761116 0 3478.05517740 0 -229.51013845 0 -2261.73906408 0 16887
0.12350000 0.12352200 13143.17929561 0 65.68084830 0 4092.52967073 0 293.41539703 0 -1924.02320820 0 16407
0.12450000 0.12449800 13216.38119547 0 -167.45156417 0 3729.41497384 0 794.72086229 0 -1946.82670912 0 16306
0.12550000 0.12549900 13059.55167062 0 44.04624862 0 3138.68673318 0 412.70787492 0 -1313.13117149 0 17523
0.12650000 0.12650100 13391.40028331 0 -25.49566716 0 3104.00456032 0 141.06006103 0 -822.05289893 0 17154
0.12750000 0.12750600 13263.85151841 0 87.98668721 0 3395.29266577 0 238.56055516 0 -294.54115352 0 18007
0.12850000 0.12850300 13057.33343123 0 132.00077136 0 2674.58668808 0 418.46975174 0 -283.16602193 0 17496
0.12950000 0.12949900 12769.07322255 0 164.74642123 0 2899.36088543 0 -21.97155024 0 550.70343823 0 18405
0.13050000 0.13049000 12719.82830810 0 380.01657192 0 2954.26231033 0 -175.97071254 0 -263.69320744 0 18100
0.13150000 0.13148800 12240.68859994 0 229.01436195 0 3457.00408559 0 -103.24939425 0 260.99804659 0 19059
0.13250000 0.13249300 11781.73487022 0 298.96321374 0 3451.72467585 0 -198.48695147 0 -215.24020446 0 18957
0.13350000 0.13349100 11600.83744799 0 151.25176190 0 3251.02946707 0 -405.29562800 0 -251.85224558 0 19468
0.13450000 0.13450700 11524.86274890 0 28.52999682 0 3621.48653634 0 415.68031570 0 -590.63618372 0 19953
0.13550000 0.13551000 11369.69690359 0 -15.55318548 0 3335.94367090 0 1.07298679 0 -620.15762264 0 19956
0.13650000 0.13649900 11454.65547222 0 47.43117101 0 3076.94203977 0 308.43953241 0 -559.91800466 0 19723
0.13750000 0.13749600 11510.44419287 0 23.85117539 0 3231.86387874 0 126.70916130 0 -675.69346400 0 20946
0.13850000 0.13851100 11448.77713783 0 63.02406298 0 2968.11521531 0 44.50021131 0 -19.43088976 0 20955
0.13950000 0.13949800 11300.93148251 0 24.31467651 0 3173.70164195 0 66.65387900 0 87.46517913 0 20506
0.14050000 0.14048300 11402.30502262 0 -2.26343602 0 3199.25575971 0 213.10958552 0 354.41919848 0 21447
0.14150000 0.14148400 11505.00950636 0 23.76155852 0 3100.89902518 0 245.13319847 0 -238.25332900 0 21771
0.14250000 0.14249400 11412.61983578 0 141.26635729 0 3036.59226527 0 -257.53204754 0 423.48740924 0 22470
0.14350000 0.14350900 11211.53643511 0 147.63159522 0 2611.16722393 0 186.06148352 0 287.03130406 0 22519
0.14450000 0.14449900 11048.66220793 0 59.93128271 0 3130.42379145 0 502.23601669 0 959.38299042 0 22218
0.14550000 0.14550500 10924.56280527 0 143.41028566 0 2382.63311081 0 -42.99979418 0 208.05754531 0 23559
0.14650000 0.14650700 10743.06645841 0 172.25294332 0 2746.75710662 0 -45.60034713 0 746.14807438 0 23044
0.14750000 0.14750500 10567.98082339 0 214.37065462 0 2897.30901400 0 -295.83438708 0 141.84199041 0 23649
0.14850000 0.14849900 10269.70526386 0 101.45406220 0 2875.45935601 0 -90.94903501 0 190.62107459 0 23640
0.14950000 0.14949500 10326.22600351 0 -19.08251526 0 2904.22992089 0 221.62318830 0 167.89853940 0 24457
0.15050000 0.15050000 10202.49261035 0 -1.48368051 0 2780.08615345 0 291.65300583 0 -40.02502425 0 24591
0.15150000 0.15149900 10178.87945205 0 229.26391388 0 2830.09636049 0 -209.04244360 0 -71.03390359 0 25020
0.15250000 0.15250500 9968.97854980 0 192.38013843 0 2933.25558331 0 -45.02715407 0 224.50800863 0 25297
0.15350000 0.15350100 9742.97322959 0 25.73490428 0 2886.32872902 0 182.70861469 0 104.01235768 0 25452
0.15450000 0.15450400 9820.38978429 0 47.34044502 0 2756.38426557 0 249.76599144 0 465.56962870 0 26061
0.15550000 0.15549900 9775.84753735 0 52.16633573 0 2722.03482862 0 215.40989977 0 174.43125440 0 26128
0.15650000 0.15649500 9497.26994360 0 156.02319483 0 2567.45681676 0 -190.72311360 0 237.17304642 0 26331
0.15750000 0.15749700 9422.37109061 0 214.71004524 0 2823.55255429 0 -14.96601751 0 175.77439836 0 27345
0.15850000 0.15849900 9068.06280409 0 223.44990844 0 2869.43683607 0 -251.46959929 0 531.38368227 0 26980
0.15950000 0.15949700 8923.67760222 0 155.80802561 0 3049.55787450 0 30.00690061 0 495.55467965 0 27777
0.16050000 0.16050000 8746.39591020 0 36.45876078 0 2819.30462586 0 405.75813091 0 501.03262182 0 28224
0.16150000 0.16150500 8842.21276064 0 -76.94528974 0 2743.87339541 0 263.05546362 0 466.76969621 0 28075
0.16250000 0.16249700 8817.01356117 0 18.60038093 0 2291.96257576 0 285.23896664 0 497.13295697 0 28590
0.16350000 0.16349900 8816.05971823 0 123.39067517 0 2616.43554248 0 -4.92647677 0 906.12417180 0 29163
0.16450000 0.16449100 8524.94907193 0 118.13122958 0 2295.21229647 0 -173.71254484 0 747.79955360 0 28996
0.16550000 0.16550500 8487.49409984 0 160.20790344 0 2704.86565575 0 52.78744276 0 537.36516478 0 30777
0.16650000 0.16650700 8279.44542748 0 164.04434846 0 2738.83799200 0 -155.78917057 0 629.17587488 0 29211
0.16750000 0.16749900 8170.26368473 0 163.79923301 0 2796.47894254 0 106.77650579 0 739.20498509 0 30922
0.16850000 0.16850800 8114.75224400 0 -20.92465216 0 2951.60042306 0 121.19572729 0 780.33336161 0 30867
0.16950000 0.16949900 8063.32236375 0 -104.50192312 0 2515.00654639 0 242.88612197 0 984.21728951 0 30852
0.17050000 0.17049200 8248.44553201 0 37.50599160 0 2713.73861331 0 166.82712978 0 769.97307454 0 31257
0.17150000 0.17149500 8162.45548207 0 65.68084830 0 2368.19237238 0 -34.54164739 0 632.54648963 0 32608
0.17250000 0.17250900 8075.03466773 0 79.05028801 0 2289.52251243 0 191.08690486 0 999.29909912 0 32361
0.17350000 0.17350400 8040.33031248 0 -8.91016852 0 2290.02161629 0 141.81315330 0 670.49391087 0 32508
0.17450000 0.17449800 8011.30465006 0 85.51789769 0 2104.38825297 0 -74.01588280 0 508.75320401 0 32791
0.17550000 0.17549800 7909.52073567 0 76.59292241 0 1969.34183893 0 95.45949207 0 217.51057247 0 33633
0.17650000 0.17650100 7739.94742553 0 113.47958158 0 1943.31079969 0 -230.01478791 0 463.74623592 0 33984
0.17750000 0.17750300 7659.85789237 0 -3.01862453 0 1993.13245638 0 93.16239427 0 291.56316714 0 34069
0.17850000 0.17849800 7684.77981191 0 -11.26233412 0 1557.24841632 0 348.75936068 0 -1.84119415 0 34536
