### header ###
fiducial parameters:
Omega_m = 0.31
Omega_nu = 0
Omega_de = 0.69
Omega_k = 0
H_0 = 100
w_de = -1
zeff = 0
beta = 0
fgrowth = 0
b_1 = 2
gamma = 0.55
Lx = 3500 Ly = 3500 Lz = 3500
nx = 700 ny = 700 nz = 700
xoffset = 1379.75464 yoffset = 22.6059522 zoffset = 368.141391
bins = 400 dk = 0.001
kx_ny = 0.628318531 ky_ny = 0.628318531 kz_ny = 0.628318531
############################
A(data) = 3.34519624 (not used)
A(ran) = 3.34560238 (used)
Ngal = 188013
weighted Ngal = 0
Nran = 9399747
weighted Nran = 0
SN(data) = 6611.74982
SN(ran) = 133.072616
SN(data+ran) = 6744.82244
############################
13 columns: k_central k_mean P_0(k) sigma^{lin}_{P_0(k)} P^img_1(k) sigma^{lin}_{P_1(k)} P_2(k) sigma^{lin}_{P_2(k)} P^img_3(k) sigma^{lin}_{P_3(k)} P_4(k) sigma^{lin}_{P_4(k)} N_modes
### header ###
0.00050000 0 0 0 0 0 0 0 0 0 0 0 0
0.00150000 0.00179520 111220.30475739 0 -66806.38296202 0 -93674.91848105 0 145090.60199787 0 -77816.05961267 0 3
0.00250000 0.00253879 182251.65737289 0 -52372.96472542 0 13654.03982705 0 -168571.77505695 0 88042.80867075 0 6
0.00350000 0.00331552 183793.33374869 0 1047.93621598 0 -115702.25744416 0 7269.48103338 0 111325.67112839 0 7
0.00450000 0.00420575 168639.43135833 0 33867.41352928 0 2059.57981730 0 -106578.63883456 0 22788.52780967 0 24
0.00550000 0.00557378 117017.67340222 0 31159.83053028 0 56747.99827361 0 -26432.42965503 0 -4997.17205861 0 45
0.00650000 0.00659388 74646.08461290 0 26270.72000353 0 60859.50498232 0 53740.62022110 0 -29704.44366673 0 40
0.00750000 0.00754703 67276.76062459 0 5833.47049090 0 67371.92309441 0 681.38879363 0 19062.21837097 0 57
0.00850000 0.00846663 61271.21021304 0 -2.89867323 0 42996.46682539 0 48498.47689549 0 -21189.06629776 0 75
0.00950000 0.00948925 62723.49154144 0 -2104.24406741 0 45557.64602467 0 31477.37149890 0 19551.11833245 0 112
0.01050000 0.01054430 70558.09124172 0 -7271.52181362 0 12791.36652842 0 4272.38452044 0 -13348.36643916 0 105
0.01150000 0.01145670 79534.86240373 0 2901.52366884 0 35111.73491490 0 -429.34910682 0 2549.75526643 0 144
0.01250000 0.01249090 67135.23695153 0 10270.89202193 0 28481.75011516 0 -18030.07158297 0 -4797.97416142 0 169
0.01350000 0.01339930 61772.08866722 0 5158.47133583 0 36100.51512283 0 -356.42226865 0 18872.33707922 0 180
0.01450000 0.01448870 65088.91111458 0 -6089.91005554 0 43744.12441167 0 25093.16762354 0 -767.01837967 0 267
0.01550000 0.01550050 68644.08338437 0 -2303.10922869 0 44287.92579804 0 10751.10757620 0 -12439.99740910 0 238
0.01650000 0.01653350 72604.08434276 0 3873.40089262 0 31932.55422166 0 -573.40600927 0 8492.39640889 0 315
0.01750000 0.01747870 65553.29953081 0 4746.63301075 0 31259.98403872 0 5017.41349304 0 12602.70526833 0 297
0.01850000 0.01844180 65715.78556610 0 -4006.82799191 0 31792.69422814 0 3396.57924462 0 11749.79222301 0 388
0.01950000 0.01947590 68694.10468260 0 -1176.31016593 0 27331.70390360 0 7734.65692459 0 -16205.90242090 0 399
0.02050000 0.02045430 69825.96133117 0 5820.60470244 0 28414.20472574 0 -12345.94405898 0 -8304.41171182 0 462
0.02150000 0.02154770 56841.94071176 0 7863.89155143 0 33330.37777304 0 -15225.88425855 0 -12194.21648472 0 571
0.02250000 0.02255340 50933.88192138 0 5525.96705551 0 46258.83149574 0 -1491.61071278 0 -15592.11558178 0 510
0.02350000 0.02348930 48319.46497675 0 1646.89856125 0 46781.33778397 0 3178.54849501 0 -25658.70775593 0 555
0.02450000 0.02439640 43917.36890800 0 256.28096052 0 38839.26438526 0 9278.26316866 0 -24564.45026501 0 592
0.02550000 0.02547300 46828.69719494 0 -1536.06423015 0 30994.57169575 0 9591.02383140 0 -13161.81250649 0 837
0.02650000 0.02652900 46622.17910776 0 -3493.23902602 0 20417.89537395 0 8188.64179807 0 -17203.88832230 0 723
0.02750000 0.02749970 54320.57890952 0 -2778.24501476 0 20609.88399313 0 4541.80078551 0 -12318.77062645 0 826
0.02850000 0.02848090 53048.64044350 0 -1030.44539839 0 11578.21140622 0 334.07350680 0 -20847.34651979 0 831
0.02950000 0.02946900 55868.02270774 0 -104.63424110 0 12257.76904324 0 -4148.37384736 0 -7203.43295555 0 996
0.03050000 0.03053250 57223.58879875 0 -1353.54749317 0 12641.85719355 0 -193.44156597 0 -13553.77540664 0 1041
0.03150000 0.03150510 59813.82693404 0 -2650.74061464 0 16959.21651762 0 5325.00565801 0 -13531.59301274 0 1036
0.03250000 0.03246190 60992.93208160 0 152.58825113 0 10310.83142214 0 -3575.28060985 0 -9474.74372259 0 1059
0.03350000 0.03345080 61859.15456326 0 752.20497703 0 15937.71727869 0 -106.35226750 0 -14624.40864805 0 1302
0.03450000 0.03451200 62182.24113036 0 1148.02761372 0 21794.31291523 0 -3340.45778806 0 -2746.67946824 0 1339
0.03550000 0.03553350 62751.88500562 0 1306.97555718 0 17793.82908797 0 -1992.43371098 0 -10962.26178370 0 1365
0.03650000 0.03647120 58944.05526936 0 390.28480205 0 23013.67910771 0 4671.12414193 0 -9738.99148989 0 1308
0.03750000 0.03744890 56501.33005348 0 3029.02806895 0 21523.57679772 0 -4426.67416119 0 -5431.18168639 0 1579
0.03850000 0.03847530 56078.75544976 0 3153.39366033 0 27858.75758258 0 985.67689103 0 -4640.63444151 0 1662
0.03950000 0.03950240 50268.18828055 0 3497.77532558 0 26601.12676062 0 801.42327261 0 -2249.29474110 0 1683
0.04050000 0.04050350 45089.48660149 0 2983.22142556 0 29403.87222943 0 -1220.86350408 0 -3497.34276890 0 1822
0.04150000 0.04152450 43537.82814843 0 1437.49676287 0 24793.70530593 0 3302.91408639 0 -1573.46374626 0 1887
0.04250000 0.04250150 41994.59900506 0 -1227.38512788 0 26637.61679858 0 6154.62718974 0 -1739.96479484 0 1920
0.04350000 0.04349210 40674.08109640 0 223.29574080 0 16515.12499181 0 4867.36068953 0 -3478.43227810 0 2005
0.04450000 0.04448520 41802.38856194 0 372.14404032 0 16756.46943741 0 4431.45446707 0 946.70020671 0 2151
0.04550000 0.04548030 39546.88275055 0 -199.35650131 0 9339.24256948 0 3563.52394109 0 414.05878271 0 2274
0.04650000 0.04648670 39633.50499872 0 508.59681814 0 4411.45703897 0 3879.64523650 0 791.06964025 0 2311
0.04750000 0.04749250 38065.98613403 0 852.80656983 0 4665.00180121 0 48.43669893 0 -504.94448698 0 2568
0.04850000 0.04851840 35106.63296430 0 1244.69848632 0 2891.03139652 0 -563.48826095 0 -1353.18148367 0 2493
0.04950000 0.04949480 34847.20986768 0 1274.10124943 0 4480.96557025 0 -1537.52826814 0 -1042.36621687 0 2644
0.05050000 0.05050630 33505.06412498 0 -266.91409104 0 3869.82952720 0 157.70129293 0 -3481.17180374 0 2829
0.05150000 0.05149060 35126.81894275 0 -421.76050987 0 4939.61983765 0 -194.23902303 0 -4868.72490676 0 2784
0.05250000 0.05249300 35186.60049430 0 -228.21468665 0 4421.78294333 0 -1364.31704540 0 -3838.27507189 0 3055
0.05350000 0.05348950 35372.93260303 0 265.30808572 0 5950.85971940 0 -1517.78593758 0 -7348.25071411 0 3009
0.05450000 0.05448610 35459.22211528 0 160.88779381 0 6790.24150444 0 -1433.68139112 0 -2865.79892347 0 3336
0.05550000 0.05550870 36129.24132293 0 -350.44744085 0 6033.94387574 0 1349.38829431 0 -6652.67738870 0 3349
0.05650000 0.05647670 36886.99189843 0 69.01552757 0 10382.58037520 0 757.42893079 0 -4044.88188864 0 3324
0.05750000 0.05747970 35858.17246951 0 150.94564487 0 6610.36447234 0 -558.80333936 0 -4092.87349783 0 3639
0.05850000 0.05849280 35706.99945511 0 966.22736806 0 9430.26802283 0 190.51792646 0 -3670.18798214 0 3846
0.05950000 0.05951020 34289.87722103 0 607.18646781 0 6549.61798665 0 -890.24046865 0 -2343.93592466 0 3787
0.06050000 0.06049470 33994.85138221 0 336.23739932 0 8316.61202846 0 3019.25672444 0 -2246.69940101 0 3930
0.06150000 0.06148310 33385.39010991 0 -344.88187822 0 5938.28230206 0 2938.02479799 0 -100.96272217 0 4083
0.06250000 0.06249100 32990.98714643 0 203.59999326 0 4348.90268819 0 1588.89160121 0 1003.68788575 0 4303
0.06350000 0.06350600 32236.34210607 0 1277.73916203 0 4317.52569202 0 97.21556128 0 1901.39716642 0 4470
0.06450000 0.06451750 30812.67606580 0 939.24248588 0 4542.38861895 0 -1727.68683982 0 2494.34364647 0 4479
0.06550000 0.06550280 29936.58241886 0 552.07431018 0 6023.85088652 0 53.70901031 0 1774.29204940 0 4636
0.06650000 0.06648880 29537.74297660 0 217.19225512 0 6758.75359631 0 206.84638661 0 3551.26816846 0 4653
0.06750000 0.06749660 28987.39778403 0 -209.80551795 0 6114.75433671 0 1100.30219325 0 2594.45279013 0 5220
0.06850000 0.06852730 30079.99159540 0 -148.13291732 0 5028.19413648 0 1132.11174610 0 3048.28238686 0 5029
0.06950000 0.06949320 30182.80699111 0 98.06936162 0 5716.61363986 0 -111.53307651 0 2877.59995702 0 5040
0.07050000 0.07048030 29134.79979147 0 571.42955797 0 4964.07592692 0 -920.84219015 0 3142.73502007 0 5475
0.07150000 0.07148790 28848.09235036 0 559.96458768 0 7763.06147997 0 -775.28353964 0 3406.08440041 0 5509
0.07250000 0.07249820 28055.51541644 0 1122.80623186 0 7078.53498672 0 -1179.62643382 0 737.46033981 0 5916
0.07350000 0.07351270 27115.09282720 0 854.02881973 0 10484.61938712 0 -1140.87379169 0 2919.11430720 0 5721
0.07450000 0.07449140 25908.48151120 0 784.23413558 0 11067.20668922 0 494.91915406 0 2463.32156861 0 6028
0.07550000 0.07549160 25196.98122697 0 239.77504123 0 9984.42858715 0 1055.58470539 0 3919.32953918 0 6183
0.07650000 0.07648840 25359.91091014 0 -427.71759175 0 10453.74149482 0 1754.17261813 0 1789.32062126 0 6330
0.07750000 0.07749960 25358.13631863 0 198.19414387 0 9337.12415086 0 1108.66939223 0 5508.02149885 0 6583
0.07850000 0.07848650 25188.55191729 0 665.87553646 0 9746.83296613 0 -436.93326730 0 2024.34308460 0 6549
0.07950000 0.07947320 23915.83706748 0 378.19096090 0 8638.83348220 0 -663.47872880 0 4127.54457949 0 6828
0.08050000 0.08048110 23772.64971488 0 478.71269708 0 9433.42901396 0 -532.04471761 0 1271.77209807 0 7147
0.08150000 0.08149960 23828.10569962 0 33.80341732 0 10052.82799873 0 33.83691274 0 1140.27486705 0 7386
0.08250000 0.08250610 23473.07648531 0 -272.90444651 0 8048.88162533 0 473.04731368 0 -1772.69491704 0 7227
0.08350000 0.08350160 23807.47607330 0 97.86572725 0 8802.91664985 0 -434.60744330 0 -1942.64532788 0 7798
0.08450000 0.08449610 23388.22882866 0 246.25119112 0 6357.98428578 0 355.03919639 0 -3174.37820496 0 7371
0.08550000 0.08548940 23166.40488969 0 322.27912796 0 8277.48228562 0 -313.20874710 0 -4149.92661493 0 8256
0.08650000 0.08650700 22171.52452344 0 708.68644756 0 7105.96351677 0 -381.61259516 0 -3763.14330376 0 8037
0.08750000 0.08749060 21716.67453659 0 584.99741920 0 7285.46344818 0 1250.00007846 0 -3811.80038477 0 8155
0.08850000 0.08849210 21064.84489194 0 174.43790912 0 6759.92926318 0 1367.24512140 0 -1702.01071889 0 8718
0.08950000 0.08949900 19912.02588114 0 393.77963821 0 5614.36389519 0 512.35784302 0 -1887.23370792 0 8571
0.09050000 0.09049190 19970.80922497 0 936.79133136 0 6465.65762575 0 -509.58837115 0 -1544.00552716 0 8932
0.09150000 0.09150830 18213.29815655 0 922.08218597 0 6707.14625691 0 -1462.65159755 0 -2403.19618995 0 9285
0.09250000 0.09250820 17242.92933555 0 692.35466006 0 8391.39996948 0 -151.12310402 0 -910.34548136 0 9204
0.09350000 0.09350330 16775.10264828 0 208.68641618 0 7829.77502961 0 297.02225427 0 -1756.67922864 0 9349
0.09450000 0.09448040 16925.38836693 0 -445.43023328 0 7604.04698932 0 1140.04195191 0 -1331.33182568 0 9564
0.09550000 0.09549270 17423.27219793 0 -453.87617975 0 6514.71398986 0 2031.51908902 0 -1184.61747245 0 10155
0.09650000 0.09649430 17893.31712460 0 -169.52339976 0 5547.28433605 0 706.41053395 0 286.47563510 0 9913
0.09750000 0.09749140 17838.74843561 0 -124.96895249 0 4574.22035419 0 513.25401174 0 447.21813423 0 10476
0.09850000 0.09850240 18008.22192498 0 348.00072281 0 5023.35837461 0 96.00484622 0 1540.03487865 0 10575
0.09950000 0.09950330 17696.55929074 0 249.21808631 0 4820.00127856 0 -269.04138261 0 1133.54251050 0 10882
0.10050000 0.10051200 17099.40924704 0 178.29542742 0 5360.23129952 0 181.86679284 0 958.83619441 0 10875
0.10150000 0.10150300 17075.34134967 0 156.67868457 0 5108.22821366 0 194.70928979 0 1484.94490341 0 11118
0.10250000 0.10250800 17126.91541548 0 -109.23509142 0 4929.92613152 0 535.98320164 0 1438.45060581 0 11575
0.10350000 0.10349800 16921.72827193 0 205.13057844 0 5176.73853720 0 -307.94264679 0 -63.86921219 0 11364
0.10450000 0.10450100 16733.39974775 0 364.55433425 0 4654.45407291 0 -746.98102327 0 736.97787274 0 12093
0.10550000 0.10551000 16461.44359858 0 133.79532703 0 5430.53839697 0 -309.16600581 0 -751.29438976 0 12067
0.10650000 0.10649700 16483.07143263 0 -83.00463246 0 5018.81098386 0 245.08772456 0 422.33392475 0 12054
0.10750000 0.10749900 16356.18813954 0 -42.67526576 0 4496.84816428 0 882.33022698 0 -1279.05901446 0 12807
0.10850000 0.10850100 16681.60385800 0 122.37583065 0 4458.92736191 0 257.08063582 0 -31.25942948 0 12736
0.10950000 0.10950300 15756.15438465 0 417.44159778 0 3832.29691673 0 2.86685259 0 -964.30193627 0 12933
0.11050000 0.11050200 15608.64146523 0 571.95306247 0 5053.42660953 0 -417.37726884 0 75.18045848 0 13428
0.11150000 0.11150900 14853.88551291 0 373.77222804 0 4855.55965598 0 -596.20840107 0 -400.88465898 0 13453
0.11250000 0.11250000 14508.06199206 0 334.81883523 0 5777.74831743 0 31.80922011 0 -601.63199638 0 13668
0.11350000 0.11349100 14369.20020627 0 -187.73736338 0 5141.79017562 0 522.09369570 0 488.38422082 0 13791
0.11450000 0.11448600 14434.86009220 0 -134.00716889 0 4301.03308216 0 1253.16106959 0 -453.43807748 0 14205
0.11550000 0.11549300 14810.62984481 0 -14.96635025 0 4002.49133390 0 18.69265969 0 135.27045622 0 14776
0.11650000 0.11649800 14281.57975038 0 238.85336276 0 3939.61533840 0 -53.51957267 0 -1153.11847312 0 14553
0.11750000 0.11747300 14607.10638081 0 84.91686572 0 4748.34105508 0 -243.21774876 0 132.03182671 0 14568
0.11850000 0.11849100 13899.15527960 0 197.31017547 0 3533.24497342 0 -359.62096985 0 -1394.00817963 0 16015
0.11950000 0.11950300 14199.39398099 0 126.52504743 0 4719.99195568 0 30.04483250 0 -563.59806380 0 15270
0.12050000 0.12050700 13632.30108103 0 100.84615369 0 3672.39513033 0 336.03110306 0 -815.32386974 0 15999
0.12150000 0.12150000 13711.60313921 0 135.38580467 0 4492.43386789 0 385.48564113 0 -371.36100182 0 15670
0.12250000 0.12250700 13651.48885175 0 89.23943791 0 3938.88331940 0 249.63511531 0 162.58696518 0 16887
0.12350000 0.12352200 13311.32184135 0 253.64014653 0 4549.17643148 0 144.87099630 0 689.81144860 0 16407
0.12450000 0.12449800 13382.52732576 0 173.28997024 0 4842.27240203 0 -79.42006852 0 932.35263434 0 16306
0.12550000 0.12549900 12884.19984687 0 189.66944989 0 4753.54282645 0 -173.85451216 0 939.64287809 0 17523
0.12650000 0.12650100 12796.24665507 0 183.27426573 0 4782.69049203 0 343.18714333 0 1410.34551274 0 17154
0.12750000 0.12750600 12744.56167729 0 10.15568776 0 5171.91386653 0 -259.47411612 0 971.53783316 0 18007
0.12850000 0.12850300 12887.63811793 0 -73.96186867 0 4835.54004549 0 370.41825008 0 889.47739430 0 17496
0.12950000 0.12949900 12723.37749112 0 -32.93708393 0 5212.15272906 0 64.93917996 0 82.05322958 0 18405
0.13050000 0.13049000 12787.04096161 0 77.72721913 0 3962.68502805 0 -209.98852270 0 221.01760895 0 18100
0.13150000 0.13148800 12693.09852345 0 178.65367308 0 4908.50903021 0 147.71256096 0 68.37234906 0 19059
0.13250000 0.13249300 12607.25265908 0 -18.41072146 0 3998.57614138 0 357.29958233 0 16.88523823 0 18957
0.13350000 0.13349100 12679.89999909 0 -45.30676315 0 4383.82886738 0 545.34860835 0 68.39308960 0 19468
0.13450000 0.13450700 12493.34606642 0 167.04562636 0 3738.98667681 0 -2.68850614 0 -32.77559610 0 19953
0.13550000 0.13551000 12399.51454023 0 123.32634623 0 3960.11187036 0 242.33488948 0 702.09273098 0 19956
0.13650000 0.13649900 12135.43314090 0 249.06059131 0 3800.22117516 0 -161.64310432 0 418.26012811 0 19723
0.13750000 0.13749600 11910.17093088 0 226.25709038 0 3950.04106353 0 46.06906112 0 487.98382861 0 20946
0.13850000 0.13851100 11581.64967727 0 338.37800033 0 4494.39700975 0 -136.04129441 0 1013.66552653 0 20955
0.13950000 0.13949800 11390.88108976 0 158.14272257 0 4249.08191565 0 -92.42871159 0 958.94377902 0 20506
0.14050000 0.14048300 10984.73254872 0 106.54048512 0 4961.63586359 0 138.24622436 0 986.12608450 0 21447
0.14150000 0.14148400 11177.48646048 0 46.51659091 0 4021.33527752 0 422.81528270 0 1190.02997656 0 21771
0.14250000 0.14249400 11028.40968230 0 -82.71359945 0 4214.04482449 0 510.77069274 0 1374.12166351 0 22470
0.14350000 0.14350900 11041.84112180 0 20.20139521 0 3695.83082948 0 256.22550454 0 1439.92573500 0 22519
0.14450000 0.14449900 11024.63867534 0 60.30671973 0 3513.92410833 0 321.31752119 0 1677.42153525 0 22218
0.14550000 0.14550500 11042.80605594 0 -13.26717888 0 3147.59296433 0 246.95659125 0 1791.36140150 0 23559
0.14650000 0.14650700 10900.65018465 0 88.90160005 0 3062.49021015 0 248.93415166 0 1632.95692669 0 23044
0.14750000 0.14750500 10910.90954183 0 88.97713110 0 3172.70343422 0 142.49415279 0 2086.28741955 0 23649
0.14850000 0.14849900 10639.17521660 0 169.54669127 0 3126.64169329 0 -81.23591928 0 1708.70980184 0 23640
0.14950000 0.14949500 10523.40530285 0 184.29687409 0 3349.15328647 0 -477.11223736 0 1310.61346978 0 24457
0.15050000 0.15050000 10208.75913663 0 195.44796350 0 3422.12227119 0 -422.02115300 0 685.59679376 0 24591
0.15150000 0.15149900 10111.94407847 0 249.91904995 0 4046.26828826 0 -425.20321740 0 660.56396224 0 25020
0.15250000 0.15250500 9917.06065689 0 109.23209679 0 3960.50006226 0 -198.16752499 0 173.09698341 0 25297
0.15350000 0.15350100 9715.91070904 0 80.85038927 0 3952.73622439 0 343.00413858 0 97.57680157 0 25452
0.15450000 0.15450400 9592.95369967 0 182.45795364 0 3695.49809357 0 265.22268350 0 -201.39173595 0 26061
0.15550000 0.15549900 9403.57151178 0 213.25820756 0 3689.54212081 0 -41.05018358 0 11.83386350 0 26128
0.15650000 0.15649500 8953.85674912 0 151.06986627 0 3535.16375049 0 256.57487724 0 80.95154099 0 26331
0.15750000 0.15749700 8996.93495807 0 45.18320722 0 3362.24089887 0 122.14291551 0 -102.32339021 0 27345
0.15850000 0.15849900 8795.95137817 0 40.94481721 0 3277.23796546 0 42.44944899 0 -206.27851732 0 26980
0.15950000 0.15949700 8840.01670364 0 71.55319343 0 2971.55348637 0 205.75501283 0 -517.83245784 0 27777
0.16050000 0.16050000 8775.70994374 0 -31.26375505 0 2537.37749063 0 65.96933033 0 -629.87462029 0 28224
0.16150000 0.16150500 8831.13265489 0 12.51453025 0 2747.12311612 0 -37.60392687 0 -611.68616641 0 28075
0.16250000 0.16249700 8832.30832176 0 71.27014609 0 2370.17769664 0 117.84507669 0 -847.65914532 0 28590
0.16350000 0.16349900 8659.19691979 0 157.21106202 0 2603.18156213 0 3.08485006 0 -734.77848838 0 29163
0.16450000 0.16449100 8440.93325505 0 174.67415162 0 2938.92318495 0 75.12799712 0 -280.17694435 0 28996
0.16550000 0.16550500 8376.34921522 0 -38.27827164 0 2674.97487997 0 323.36384703 0 -146.38605380 0 30777
0.16650000 0.16650700 8513.82460139 0 -131.83107605 0 2921.86492404 0 466.84733459 0 557.95597192 0 29211
0.16750000 0.16749900 8491.78639306 0 34.98684804 0 2320.76641423 0 190.06762386 0 723.05952969 0 30922
0.16850000 0.16850800 8700.66690518 0 14.75883396 0 2639.11704024 0 2.21281579 0 1149.11455102 0 30867
0.16950000 0.16949900 8678.70633523 0 8.20749683 0 2633.49380339 0 -178.38970260 0 911.20948560 0 30852
0.17050000 0.17049200 8711.04826553 0 99.00800962 0 2854.38608181 0 -119.81820063 0 802.99156785 0 31257
0.17150000 0.17149500 8543.85956273 0 69.46993391 0 2878.87544467 0 -221.45792947 0 597.09126035 0 32608
0.17250000 0.17250900 8469.65945515 0 98.35307444 0 2902.48860297 0 -24.29071952 0 566.80341972 0 32361
0.17350000 0.17350400 8472.68735191 0 8.94035876 0 2954.69486701 0 129.81025996 0 -78.15511750 0 32508
0.17450000 0.17449800 8398.74234186 0 139.27992392 0 2691.10148034 0 56.09594681 0 119.80156384 0 32791
0.17550000 0.17549800 8149.24586651 0 191.00039353 0 2615.81443545 0 9.30020156 0 -48.56225128 0 33633
0.17650000 0.17650100 7958.39964062 0 95.36277683 0 2564.10727528 0 79.08189792 0 76.49731630 0 33984
0.17750000 0.17750300 7846.65583137 0 76.72768046 0 2273.71755678 0 216.08424454 0 -261.60140770 0 34069
0.17850000 0.17849800 7719.89454145 0 -6.50721634 0 1958.20627719 0 289.86066840 0 -49.74035822 0 34536
