### header ###
fiducial parameters:
Omega_m = 0.31
Omega_nu = 0
Omega_de = 0.69
Omega_k = 0
H_0 = 100
w_de = -1
zeff = 0
beta = 0
fgrowth = 0
b_1 = 2
gamma = 0.55
Lx = 3500 Ly = 3500 Lz = 3500
nx = 700 ny = 700 nz = 700
xoffset = 1379.75464 yoffset = 22.6059522 zoffset = 368.141391
bins = 400 dk = 0.001
kx_ny = 0.628318531 ky_ny = 0.628318531 kz_ny = 0.628318531
############################
A(data) = 3.33248362 (not used)
A(ran) = 3.33114931 (used)
Ngal = 186959
weighted Ngal = 0
Nran = 9399747
weighted Nran = 0
SN(data) = 6621.1569
SN(ran) = 132.497739
SN(data+ran) = 6753.65464
############################
13 columns: k_central k_mean P_0(k) sigma^{lin}_{P_0(k)} P^img_1(k) sigma^{lin}_{P_1(k)} P_2(k) sigma^{lin}_{P_2(k)} P^img_3(k) sigma^{lin}_{P_3(k)} P_4(k) sigma^{lin}_{P_4(k)} N_modes
### header ###
0.00050000 0 0 0 0 0 0 0 0 0 0 0 0
0.00150000 0.00179520 18910.71262066 0 -37833.51464599 0 -47708.78367278 0 39216.47599346 0 30334.09091748 0 3
0.00250000 0.00253879 28135.70477037 0 -29891.66307122 0 -9848.79433967 0 -64139.94830369 0 -31785.70677406 0 6
0.00350000 0.00331552 48904.96926365 0 -6908.91731179 0 -34776.00438327 0 -13603.46396896 0 -21980.53411199 0 7
0.00450000 0.00420575 65054.75022798 0 -3186.76707195 0 -24821.76603421 0 -34392.80352871 0 13115.22947930 0 24
0.00550000 0.00557378 66695.91464041 0 -4692.45251366 0 -13170.90728798 0 -9155.78308076 0 10872.96655707 0 45
0.00650000 0.00659388 75041.04213622 0 -11731.93539592 0 -35418.96107036 0 8709.16276205 0 -15901.89271254 0 40
0.00750000 0.00754703 79927.26895176 0 -1398.17846969 0 3405.45220218 0 -24048.04413511 0 -32117.77721069 0 57
0.00850000 0.00846663 84521.90819953 0 6334.00511798 0 -15832.79455556 0 -27654.56864676 0 -2805.41844728 0 75
0.00950000 0.00948925 68211.08305551 0 11289.39663769 0 13755.74610306 0 -5588.98723657 0 144.41403898 0 112
0.01050000 0.01054430 65775.01255780 0 453.62884606 0 22371.72062835 0 15237.86275125 0 16071.36620191 0 105
0.01150000 0.01145670 68297.48347973 0 -9048.90830696 0 826.57256169 0 33642.48405517 0 19479.91284804 0 144
0.01250000 0.01249090 73842.86012991 0 -7051.33937180 0 -9548.15635520 0 26120.98884473 0 23869.80860015 0 169
0.01350000 0.01339930 80538.72663952 0 -2370.75443888 0 -40583.46601733 0 8886.21153893 0 26304.54815422 0 180
0.01450000 0.01448870 79643.55613383 0 2716.95506042 0 -18131.77785898 0 -9451.75167132 0 40839.11810699 0 267
0.01550000 0.01550050 73106.18282861 0 2513.78651472 0 -19483.24020713 0 -17286.40682759 0 -567.43561795 0 238
0.01650000 0.01653350 74995.67914071 0 3698.79217907 0 -13083.73047997 0 -14502.51639359 0 22816.58853794 0 315
0.01750000 0.01747870 71694.05163316 0 132.18044875 0 4988.99784646 0 -2968.37031284 0 2922.69676381 0 297
0.01850000 0.01844180 63436.65550521 0 1133.23195699 0 -1776.94284547 0 -1492.07654305 0 7742.13239133 0 388
0.01950000 0.01947590 73694.79265065 0 -2821.63377722 0 4155.82713171 0 5436.26145460 0 -400.02620033 0 399
0.02050000 0.02045430 69632.08720851 0 -3299.14307943 0 195.63207737 0 2017.38890411 0 -9884.49690265 0 462
0.02150000 0.02154770 79094.65279686 0 4867.78215501 0 7555.86682978 0 -11382.45178008 0 -230.56823864 0 571
0.02250000 0.02255340 68660.72017979 0 2692.94261903 0 15493.51484091 0 -10306.71658807 0 -9242.06150182 0 510
0.02350000 0.02348930 65080.59271687 0 5650.92048033 0 27863.74862120 0 -17442.79270456 0 -9547.10269148 0 555
0.02450000 0.02439640 64011.29041909 0 2663.96132140 0 30675.47795955 0 -2181.09497106 0 -24709.19038519 0 592
0.02550000 0.02547300 63925.99911456 0 -1047.50033194 0 35706.22307132 0 642.50638449 0 -19894.61270194 0 837
0.02650000 0.02652900 65661.43870105 0 -763.90729893 0 38232.79773613 0 -592.27768087 0 -25106.80979578 0 723
0.02750000 0.02749970 64747.96772039 0 1625.29290960 0 33574.49501787 0 -415.28214173 0 -18268.53231736 0 826
0.02850000 0.02848090 65356.87443285 0 2624.27701872 0 38935.42506280 0 1673.65052829 0 -21157.78912237 0 831
0.02950000 0.02946900 63328.62724693 0 354.97597657 0 35818.79872035 0 9686.34157797 0 -11857.93139325 0 996
0.03050000 0.03053250 63595.48144551 0 589.66681311 0 36374.57859942 0 8446.32357677 0 -2087.15253291 0 1041
0.03150000 0.03150510 57339.49180686 0 2011.47729614 0 25747.88097939 0 8406.50617972 0 -7652.81498230 0 1036
0.03250000 0.03246190 55690.00899672 0 4814.11185298 0 28107.53313012 0 -528.79832426 0 11723.06243836 0 1059
0.03350000 0.03345080 50112.35696343 0 1947.49218094 0 23823.33648493 0 7658.99277900 0 7144.97125644 0 1302
0.03450000 0.03451200 48303.49365314 0 -867.17632459 0 21158.45459419 0 8459.85483704 0 15803.95744349 0 1339
0.03550000 0.03553350 49229.16495044 0 -678.15349148 0 15773.45665188 0 5893.58477836 0 11418.71999410 0 1365
0.03650000 0.03647120 47547.07402127 0 1673.49525153 0 8004.63884070 0 -2238.09263218 0 7288.45807136 0 1308
0.03750000 0.03744890 47272.34507287 0 1012.91354337 0 9128.39891549 0 1088.28599047 0 11791.82785944 0 1579
0.03850000 0.03847530 45026.82133873 0 30.90573121 0 7995.62169758 0 -518.70200768 0 3734.04000297 0 1662
0.03950000 0.03950240 45439.19204126 0 1926.48545392 0 11323.11387641 0 -1804.37137552 0 -674.83722360 0 1683
0.04050000 0.04050350 43118.58090379 0 1803.98318363 0 13128.53891564 0 -5359.28854778 0 -4845.45557556 0 1822
0.04150000 0.04152450 39443.73461893 0 2134.62285585 0 18136.32524973 0 -3703.00683391 0 -440.50241447 0 1887
0.04250000 0.04250150 38359.23738134 0 1168.29123054 0 19127.54552100 0 -2381.83454463 0 -9769.52555508 0 1920
0.04350000 0.04349210 38646.94303017 0 591.01993914 0 22973.75079870 0 878.91413832 0 -166.20935011 0 2005
0.04450000 0.04448520 37728.92465877 0 -350.24669019 0 22523.67002654 0 3580.83729952 0 -3373.12136308 0 2151
0.04550000 0.04548030 40280.01086883 0 -710.33792679 0 23483.50221044 0 4924.31398586 0 4421.25056588 0 2274
0.04650000 0.04648670 39357.66693062 0 -237.40374332 0 17913.83583895 0 1727.86429897 0 2131.22894959 0 2311
0.04750000 0.04749250 40416.87623917 0 360.29531462 0 20514.72152331 0 894.74016725 0 6718.71437532 0 2568
0.04850000 0.04851840 41299.07004443 0 -343.31136474 0 20653.25057319 0 263.46805615 0 6675.54743680 0 2493
0.04950000 0.04949480 39593.57668970 0 841.99487104 0 19929.77179626 0 1907.06476807 0 4555.77569366 0 2644
0.05050000 0.05050630 39028.48020519 0 1888.79756669 0 23670.38887902 0 -855.92097793 0 10895.65914603 0 2829
0.05150000 0.05149060 38688.20228282 0 -82.11489664 0 19363.78801599 0 3462.25022175 0 7461.54729093 0 2784
0.05250000 0.05249300 38440.64676694 0 -1033.84485025 0 17836.64110819 0 6418.47567394 0 10073.12488915 0 3055
0.05350000 0.05348950 37013.98610349 0 885.14184541 0 18335.85588283 0 1453.10207697 0 8565.04374890 0 3009
0.05450000 0.05448610 37260.54341165 0 1780.42548131 0 15036.66843861 0 -2234.12198367 0 10626.90835277 0 3336
0.05550000 0.05550870 34542.64559948 0 775.84919068 0 18459.85546471 0 735.89426280 0 9597.20162810 0 3349
0.05650000 0.05647670 32855.45271972 0 856.07514557 0 16337.55492867 0 110.93415188 0 7951.48982492 0 3324
0.05750000 0.05747970 33138.83280175 0 -215.95780490 0 15287.77313752 0 408.48767448 0 2560.94628415 0 3639
0.05850000 0.05849280 32653.14928738 0 780.67940695 0 16277.99520106 0 -62.87411000 0 1333.72752422 0 3846
0.05950000 0.05951020 31771.73186591 0 518.11528336 0 14545.10658987 0 -617.55784608 0 1229.54791129 0 3787
0.06050000 0.06049470 31479.58973829 0 312.97250460 0 16611.17475738 0 -447.54199718 0 1133.86415521 0 3930
0.06150000 0.06148310 31758.64425351 0 -428.67587117 0 12270.19118382 0 1881.52174149 0 -1718.56987593 0 4083
0.06250000 0.06249100 31861.45964922 0 377.78724133 0 13887.62043478 0 1645.16833453 0 -315.43807769 0 4303
0.06350000 0.06350600 31397.07123300 0 358.96658923 0 12535.71443876 0 791.29035507 0 -41.78519721 0 4470
0.06450000 0.06451750 30621.57474238 0 240.76881247 0 13802.44004222 0 1550.16114147 0 1507.88149870 0 4479
0.06550000 0.06550280 29860.49680779 0 269.89762302 0 11186.24850607 0 1622.87502866 0 2240.62142509 0 4636
0.06650000 0.06648880 30654.18286141 0 -139.82893817 0 11124.80327498 0 896.42713831 0 4561.98676396 0 4653
0.06750000 0.06749660 30276.30578138 0 49.35760101 0 10336.77373180 0 1718.05968087 0 3930.27655057 0 5220
0.06850000 0.06852730 29989.48742830 0 694.90896271 0 10810.53420945 0 -226.87043358 0 5754.32370948 0 5029
0.06950000 0.06949320 28501.38153376 0 650.13490975 0 10628.73840027 0 -528.61088303 0 3599.39287202 0 5040
0.07050000 0.07048030 29132.69246405 0 -48.25081047 0 11429.58936711 0 679.31141245 0 5354.64133625 0 5475
0.07150000 0.07148790 28529.33135007 0 565.90614189 0 12594.83051849 0 -2063.14009152 0 3514.06829389 0 5509
0.07250000 0.07249820 28263.36444725 0 558.96416172 0 12298.91738391 0 -543.11705952 0 1571.61151637 0 5916
0.07350000 0.07351270 28108.30951391 0 -46.31617298 0 13461.94029591 0 19.21649692 0 916.01641036 0 5721
0.07450000 0.07449140 27710.80101529 0 173.36760862 0 12516.63758001 0 1147.78360738 0 -613.21675159 0 6028
0.07550000 0.07549160 27289.44644322 0 544.09308485 0 12443.76841606 0 1176.70944902 0 1762.29137430 0 6183
0.07650000 0.07648840 26816.07415747 0 184.48209708 0 11703.09828386 0 884.56732141 0 87.73125695 0 6330
0.07750000 0.07749960 26590.92285942 0 397.48964359 0 11388.88467431 0 673.57726362 0 1252.60650974 0 6583
0.07850000 0.07848650 25520.40052998 0 594.76432723 0 10614.69694493 0 -151.65548147 0 594.99946060 0 6549
0.07950000 0.07947320 24923.47231023 0 277.06142713 0 9548.94383018 0 609.65425913 0 1760.01767893 0 6828
0.08050000 0.08048110 24686.00978357 0 -175.45386276 0 10717.46797586 0 -22.20235805 0 -167.08777291 0 7147
0.08150000 0.08149960 25388.19346236 0 116.95667182 0 8780.96717109 0 1158.36460927 0 -521.63341103 0 7386
0.08250000 0.08250610 24963.40061924 0 50.85879452 0 7763.70476939 0 1291.95807651 0 -764.74135694 0 7227
0.08350000 0.08350160 24002.57022762 0 422.76537231 0 8420.22599035 0 -177.34269360 0 690.38597260 0 7798
0.08450000 0.08449610 23738.82156419 0 545.99744337 0 8430.49643872 0 -262.09274772 0 -89.97733524 0 7371
0.08550000 0.08548940 23460.32160882 0 738.49625760 0 8762.45596338 0 437.37247870 0 -485.17553754 0 8256
0.08650000 0.08650700 21799.74760173 0 278.14614619 0 8129.15970884 0 57.73101106 0 1254.84693152 0 8037
0.08750000 0.08749060 21890.25176883 0 430.45600828 0 8609.38635430 0 497.68086210 0 955.33137618 0 8155
0.08850000 0.08849210 21282.78691197 0 322.88359820 0 7270.82306821 0 1630.06212428 0 1606.01640930 0 8718
0.08950000 0.08949900 20888.05121259 0 53.34521905 0 7797.04490742 0 307.38697782 0 1940.62673003 0 8571
0.09050000 0.09049190 20525.25816041 0 327.62286665 0 6790.20823085 0 124.29904420 0 2103.50095722 0 8932
0.09150000 0.09150830 20329.27671034 0 273.04752295 0 6707.60099598 0 743.78121295 0 2582.04174074 0 9285
0.09250000 0.09250820 19967.03821801 0 -193.81201195 0 5888.95974923 0 540.71248802 0 3117.95728608 0 9204
0.09350000 0.09350330 20191.96769212 0 239.19718986 0 6213.43271595 0 595.67491450 0 3129.82486682 0 9349
0.09450000 0.09448040 19943.85761639 0 367.59443134 0 6285.19276021 0 -72.49938344 0 1593.41680957 0 9564
0.09550000 0.09549270 19328.73983364 0 256.84661157 0 6332.39689442 0 -426.47759593 0 2922.18656875 0 10155
0.09650000 0.09649430 18999.33128427 0 506.75013385 0 6827.30828464 0 -363.05924090 0 1724.02674483 0 9913
0.09750000 0.09749140 18390.20274788 0 231.16494503 0 7267.37370596 0 -263.62555114 0 2247.99707106 0 10476
0.09850000 0.09850240 18651.51134798 0 -79.85251428 0 6183.33120744 0 419.04538486 0 411.65088385 0 10575
0.09950000 0.09950330 18337.63047434 0 211.59120066 0 6878.27233462 0 359.47567517 0 1621.93227692 0 10882
0.10050000 0.10051200 17868.02919556 0 462.43525644 0 5931.27266559 0 47.63425083 0 456.33398900 0 10875
0.10150000 0.10150300 17452.10931000 0 268.20843372 0 6382.96166131 0 404.34400330 0 596.01430512 0 11118
0.10250000 0.10250800 16799.83601747 0 463.46230128 0 5872.79987528 0 94.47692293 0 777.77905895 0 11575
0.10350000 0.10349800 16105.74891245 0 605.50171499 0 6518.45172323 0 -316.06805767 0 -65.21523985 0 11364
0.10450000 0.10450100 15443.82627858 0 310.30285350 0 6079.59524238 0 35.61771532 0 860.17777932 0 12093
0.10550000 0.10551000 15202.48183299 0 132.61966015 0 5749.34376205 0 427.96381632 0 -679.58203765 0 12067
0.10650000 0.10649700 14989.97449946 0 84.13815279 0 5826.62722239 0 499.36228756 0 504.80030142 0 12054
0.10750000 0.10749900 14513.82941447 0 191.67362918 0 4731.62662128 0 486.73717807 0 -92.71630633 0 12807
0.10850000 0.10850100 14309.97321457 0 198.00670264 0 4432.87414028 0 637.70056885 0 274.23539014 0 12736
0.10950000 0.10950300 14152.81095381 0 334.77668869 0 4682.65898675 0 -228.30452534 0 -348.75270596 0 12933
0.11050000 0.11050200 13738.55474779 0 241.00505497 0 4247.19641217 0 91.37715521 0 -152.69029015 0 13428
0.11150000 0.11150900 13591.15274035 0 42.15874872 0 4398.21414982 0 -77.75849630 0 503.83314905 0 13453
0.11250000 0.11250000 13454.73101789 0 -74.89164371 0 4299.70213852 0 -126.41635370 0 -637.12382661 0 13668
0.11350000 0.11349100 13670.78753444 0 -36.20920885 0 3748.22564386 0 -125.58895040 0 -1057.76079823 0 13791
0.11450000 0.11448600 13754.52607140 0 129.76367694 0 5022.54871723 0 -221.21059577 0 -857.31514139 0 14205
0.11550000 0.11549300 13553.10993482 0 98.50225104 0 4457.34132075 0 -177.44362350 0 -1614.34589821 0 14776
0.11650000 0.11649800 13861.88885786 0 -85.82689843 0 5003.36094651 0 74.04582903 0 -931.62172446 0 14553
0.11750000 0.11747300 13698.84826272 0 25.39584639 0 4626.92572209 0 324.71919129 0 -1497.14522006 0 14568
0.11850000 0.11849100 13797.67082753 0 324.82123030 0 5092.31234603 0 -122.67196561 0 -773.72411735 0 16015
0.11950000 0.11950300 13219.70855456 0 381.89542068 0 4682.32625084 0 -157.84658761 0 -1133.01013305 0 15270
0.12050000 0.12050700 13002.98656619 0 55.02997187 0 5147.13613255 0 642.77590058 0 72.89201182 0 15999
0.12150000 0.12150000 12846.60068922 0 -160.68482491 0 4451.04152088 0 721.16404413 0 -429.98463241 0 15670
0.12250000 0.12250700 13157.26511574 0 -204.74904126 0 3710.29375030 0 1025.02402132 0 778.37354711 0 16887
0.12350000 0.12352200 13204.51361474 0 -152.04810984 0 3188.83003458 0 492.98706755 0 -212.87001567 0 16407
0.12450000 0.12449800 13339.04983372 0 200.25267002 0 2606.20945889 0 -287.86092559 0 926.80703587 0 16306
0.12550000 0.12549900 12985.01882713 0 38.12765319 0 2731.69526117 0 113.31099538 0 -177.97821919 0 17523
0.12650000 0.12650100 13263.07513462 0 -16.76134956 0 2660.16813205 0 154.59908514 0 633.12323187 0 17154
0.12750000 0.12750600 13003.31930210 0 5.04383272 0 2568.98740194 0 109.25239368 0 -380.03099047 0 18007
0.12850000 0.12850300 13106.24560978 0 157.37188438 0 2547.65903020 0 -93.41360988 0 201.35624412 0 17496
0.12950000 0.12949900 12799.35219022 0 305.92959454 0 2997.76198476 0 -331.48149407 0 218.67182079 0 18405
0.13050000 0.13049000 12482.58760538 0 444.35882365 0 3504.95133000 0 -317.79052056 0 235.56260462 0 18100
0.13150000 0.13148800 12139.09323589 0 233.39538474 0 4249.14846283 0 -409.09990855 0 948.07551513 0 19059
0.13250000 0.13249300 11859.26233689 0 114.95138341 0 3867.17873113 0 256.02142651 0 -114.91478246 0 18957
0.13350000 0.13349100 11865.58431915 0 -77.68884358 0 4505.75439543 0 12.57641913 0 652.16459879 0 19468
0.13450000 0.13450700 11887.21215320 0 21.58291470 0 3746.22922841 0 438.02242284 0 224.82965334 0 19953
0.13550000 0.13551000 11890.98316016 0 -65.13172313 0 3880.14434037 0 211.49470725 0 751.87002288 0 19956
0.13650000 0.13649900 11887.87762501 0 94.56498704 0 3443.96083798 0 450.38134360 0 847.57596135 0 19723
0.13750000 0.13749600 11929.58052554 0 9.27988248 0 2927.58798167 0 370.04004026 0 685.86409160 0 20946
0.13850000 0.13851100 11815.67393288 0 91.03942826 0 2835.09849031 0 456.96951458 0 1336.22304353 0 20955
0.13950000 0.13949800 11649.19506669 0 187.47782937 0 2654.70017195 0 192.83155014 0 966.85734805 0 20506
0.14050000 0.14048300 11270.87433878 0 170.05023161 0 3041.61657749 0 -651.19744642 0 1177.95166308 0 21447
0.14150000 0.14148400 11033.03471143 0 375.28395818 0 3194.32017707 0 -562.89931840 0 486.57191924 0 21771
0.14250000 0.14249400 10609.38426159 0 376.02041366 0 3722.90444123 0 -808.07355430 0 -24.73070731 0 22470
0.14350000 0.14350900 10516.75058468 0 36.10994264 0 4211.58257877 0 -128.54586351 0 -400.28351610 0 22519
0.14450000 0.14449900 10598.60361816 0 -125.72204477 0 4167.06251422 0 271.96502213 0 -1018.53345287 0 22218
0.14550000 0.14550500 10572.70567329 0 20.21015726 0 3818.82111244 0 -47.15178376 0 -1327.92682822 0 23559
0.14650000 0.14650700 10633.31906461 0 160.65376956 0 4125.81435277 0 -114.35024054 0 -1391.30192758 0 23044
0.14750000 0.14750500 10326.42564505 0 270.26917811 0 3944.24036753 0 -88.88773605 0 -1319.29787699 0 23649
0.14850000 0.14849900 10082.84077767 0 114.93474662 0 4163.75733753 0 339.32740679 0 -837.59721145 0 23640
0.14950000 0.14949500 9865.86369178 0 22.79584800 0 3619.73412722 0 454.16344176 0 -783.01521303 0 24457
0.15050000 0.15050000 9964.29806469 0 21.52036035 0 3578.37505380 0 587.07590950 0 -268.15852334 0 24591
0.15150000 0.15149900 9695.41417708 0 120.05666137 0 3066.70486499 0 381.42515393 0 -340.31008684 0 25020
0.15250000 0.15250500 9639.72527720 0 123.68015541 0 3059.05193909 0 -67.88577825 0 -109.84377630 0 25297
0.15350000 0.15350100 9371.99487407 0 174.69078841 0 3006.55730394 0 -212.26554543 0 -522.31995612 0 25452
0.15450000 0.15450400 9225.82398949 0 178.90211589 0 3048.45984601 0 -253.22200841 0 -326.58473062 0 26061
0.15550000 0.15549900 9044.54946656 0 171.09613148 0 3158.81725564 0 -113.56387467 0 -753.71559805 0 26128
0.15650000 0.15649500 8908.63793916 0 98.89121932 0 3231.32041009 0 51.04013559 0 -797.20418129 0 26331
0.15750000 0.15749700 8809.07226416 0 -31.91735928 0 2985.68367128 0 309.52757883 0 -1122.25167201 0 27345
0.15850000 0.15849900 9053.71079524 0 -96.38139236 0 3004.47215891 0 372.38139194 0 -269.77340161 0 26980
0.15950000 0.15949700 8934.65788720 0 39.59712587 0 2542.05797574 0 176.41546954 0 -392.34221909 0 27777
0.16050000 0.16050000 8970.07207906 0 88.34382376 0 2625.10885849 0 308.10457826 0 -136.40841303 0 28224
0.16150000 0.16150500 8767.49136680 0 190.77967871 0 2569.60850896 0 -110.75902188 0 79.16885290 0 28075
0.16250000 0.16249700 8506.00530755 0 203.98929427 0 2726.18293628 0 -87.93378220 0 119.76939937 0 28590
0.16350000 0.16349900 8289.11695122 0 84.39613403 0 2825.11641306 0 219.51807912 0 758.63343478 0 29163
0.16450000 0.16449100 8150.75426929 0 28.05729001 0 2807.24849478 0 185.60452621 0 258.60789364 0 28996
0.16550000 0.16550500 8387.32950020 0 -100.68632954 0 2346.65326791 0 374.61404988 0 761.52823718 0 30777
0.16650000 0.16650700 8261.24477329 0 40.31761003 0 2244.20388170 0 71.74307472 0 233.69595618 0 29211
0.16750000 0.16749900 8324.40913991 0 171.51981521 0 2383.87532487 0 -228.80584744 0 796.15051758 0 30922
0.16850000 0.16850800 8113.64312431 0 118.85104826 0 2478.46105244 0 -205.37569389 0 411.78065086 0 30867
0.16950000 0.16949900 8008.68712758 0 114.30698487 0 2817.39693998 0 -248.53819593 0 439.38774918 0 30852
0.17050000 0.17049200 8020.49925233 0 13.31476011 0 2601.57333857 0 89.77591911 0 -115.01349411 0 31257
0.17150000 0.17149500 8114.94079435 0 -72.94569321 0 2723.90924091 0 208.88827596 0 69.26230670 0 32608
0.17250000 0.17250900 8042.60400785 0 -18.99034741 0 2403.15182517 0 180.80980177 0 159.35388127 0 32361
0.17350000 0.17350400 8160.89162331 0 146.09213708 0 2609.60336516 0 -23.13845507 0 171.24031704 0 32508
0.17450000 0.17449800 7990.98557726 0 44.76018896 0 2426.01078208 0 -157.84326025 0 -105.82088826 0 32791
0.17550000 0.17549800 7970.21176537 0 89.18043274 0 2464.20886437 0 27.87938721 0 -369.92801917 0 33633
0.17650000 0.17650100 7795.92469653 0 94.85435636 0 2538.68625187 0 -124.56745116 0 26.06586560 0 33984
0.17750000 0.17750300 7811.77401697 0 -36.75289933 0 2334.51949845 0 310.77644761 0 -139.18232138 0 34069
0.17850000 0.17849800 7839.44655335 0 -40.16776796 0 2068.57477803 0 416.20825668 0 -60.67173102 0 34536
