### header ###
fiducial parameters:
Omega_m = 0.31
Omega_nu = 0
Omega_de = 0.69
Omega_k = 0
H_0 = 100
w_de = -1
zeff = 0
beta = 0
fgrowth = 0
b_1 = 2
gamma = 0.55
Lx = 3500 Ly = 3500 Lz = 3500
nx = 700 ny = 700 nz = 700
xoffset = 1379.75464 yoffset = 22.6059522 zoffset = 368.141391
bins = 400 dk = 0.001
kx_ny = 0.628318531 ky_ny = 0.628318531 kz_ny = 0.628318531
############################
A(data) = 3.33429569 (not used)
A(ran) = 3.33429809 (used)
Ngal = 187499
weighted Ngal = 0
Nran = 9399747
weighted Nran = 0
SN(data) = 6639.78331
SN(ran) = 132.622983
SN(data+ran) = 6772.40629
############################
13 columns: k_central k_mean P_0(k) sigma^{lin}_{P_0(k)} P^img_1(k) sigma^{lin}_{P_1(k)} P_2(k) sigma^{lin}_{P_2(k)} P^img_3(k) sigma^{lin}_{P_3(k)} P_4(k) sigma^{lin}_{P_4(k)} N_modes
### header ###
0.00050000 0 0 0 0 0 0 0 0 0 0 0 0
0.00150000 0.00179520 29830.55057603 0 -19215.38780083 0 -41238.73393303 0 33726.77715197 0 -23633.01154530 0 3
0.00250000 0.00253879 53987.51026517 0 -13969.02982038 0 -5724.33311293 0 -41608.84717520 0 21195.38828002 0 6
0.00350000 0.00331552 56411.38044623 0 -5069.57539229 0 -38588.27059832 0 7233.45682569 0 23531.52709323 0 7
0.00450000 0.00420575 54521.88413413 0 -863.97762339 0 -10788.64018667 0 -27832.13870990 0 5296.60110262 0 24
0.00550000 0.00557378 57325.73872264 0 -211.18859021 0 -13377.31446319 0 -14340.91765405 0 -5125.89649039 0 45
0.00650000 0.00659388 49010.55745859 0 -108.13617562 0 -17479.17183055 0 2392.80373841 0 -20015.39583670 0 40
0.00750000 0.00754703 48116.05242472 0 4648.97502162 0 -4462.26581219 0 -36576.10564797 0 -9624.20869267 0 57
0.00850000 0.00846663 49985.69549428 0 -914.94832809 0 -7464.71937326 0 6873.17038403 0 -8152.29594567 0 75
0.00950000 0.00948925 46873.94927849 0 -5556.92258620 0 -18313.22984106 0 16303.94860192 0 8080.60244860 0 112
0.01050000 0.01054430 64116.87861404 0 -14465.69361972 0 -22573.35858887 0 17219.30508605 0 -4444.70844742 0 105
0.01150000 0.01145670 71278.35357154 0 -7033.51581831 0 -32024.27842042 0 -2314.08951367 0 -11902.85074089 0 144
0.01250000 0.01249090 77128.73813779 0 4508.02809080 0 -32733.78228920 0 -27132.06235853 0 -13127.87344382 0 169
0.01350000 0.01339930 68727.71100936 0 5879.98697090 0 -18351.16173462 0 -36374.35677548 0 -9529.52314432 0 180
0.01450000 0.01448870 63432.32993840 0 3375.98289189 0 4987.61144684 0 -12194.66013260 0 -15861.29893171 0 267
0.01550000 0.01550050 68017.43075679 0 -2747.06766014 0 12139.20414786 0 2140.78956136 0 -34861.07386387 0 238
0.01650000 0.01653350 66938.81185358 0 -4531.24196601 0 11439.68235634 0 5417.70588210 0 -8356.70670543 0 315
0.01750000 0.01747870 71474.77866949 0 -1774.75787967 0 -2553.49299980 0 4650.92707228 0 -28460.12228111 0 297
0.01850000 0.01844180 75494.56117944 0 -3161.00222144 0 -2003.90200862 0 3078.55026333 0 -6083.42170533 0 388
0.01950000 0.01947590 78673.96369661 0 -110.31714859 0 -3042.69242359 0 -545.88098580 0 -15036.77935058 0 399
0.02050000 0.02045430 79346.64479152 0 1317.22382316 0 -8629.26177923 0 -3153.71530505 0 -4452.78283880 0 462
0.02150000 0.02154770 74660.05952105 0 2488.01057302 0 1657.08028005 0 -5170.91565881 0 -18465.17923925 0 571
0.02250000 0.02255340 73276.98726161 0 1829.62603097 0 1255.91168643 0 -7053.13614571 0 -21343.12302337 0 510
0.02350000 0.02348930 64680.64415492 0 3466.77543011 0 5946.38996703 0 -8050.74494641 0 -12229.15375511 0 555
0.02450000 0.02439640 67329.44381009 0 3760.05995101 0 12840.38961893 0 -4532.91673675 0 -21854.42720269 0 592
0.02550000 0.02547300 60496.82284211 0 2846.76642950 0 11919.26571238 0 -2236.18494631 0 -16618.49494737 0 837
0.02650000 0.02652900 61401.08812930 0 -513.13977241 0 11431.25304666 0 9502.19443504 0 -12404.94922674 0 723
0.02750000 0.02749970 57778.59229404 0 -1385.67869073 0 10014.89610517 0 -72.82058451 0 -11780.18210265 0 826
0.02850000 0.02848090 60425.83918164 0 1548.71928587 0 8474.31775787 0 6331.79796979 0 -7336.32767739 0 831
0.02950000 0.02946900 57563.97763309 0 3228.04850699 0 13981.00831308 0 -7512.93280639 0 -2479.29289221 0 996
0.03050000 0.03053250 51858.22227505 0 3089.98528738 0 15255.38684243 0 -999.62739855 0 1308.79451348 0 1041
0.03150000 0.03150510 52735.20321774 0 493.36638649 0 19191.43081542 0 1997.45802319 0 -1070.97706852 0 1036
0.03250000 0.03246190 50566.98512634 0 180.60572375 0 17120.14978534 0 -4207.23482957 0 954.80343520 0 1059
0.03350000 0.03345080 51769.60361143 0 2005.90951527 0 27917.65183837 0 1111.47102858 0 -1384.74703018 0 1302
0.03450000 0.03451200 50990.22520188 0 1255.02439068 0 26100.91377825 0 -6068.68150458 0 -461.53132389 0 1339
0.03550000 0.03553350 48404.20172143 0 301.43211418 0 26225.13518407 0 3394.41646122 0 -2695.78196545 0 1365
0.03650000 0.03647120 47539.97565523 0 146.51249345 0 28428.84510571 0 5563.63276035 0 3423.57521799 0 1308
0.03750000 0.03744890 48413.85106278 0 -1682.97822492 0 18883.76101207 0 7056.98479105 0 -4334.01830188 0 1579
0.03850000 0.03847530 50540.36625366 0 136.13224222 0 19906.70210661 0 5859.63462450 0 3507.15847819 0 1662
0.03950000 0.03950240 49074.88640089 0 2288.15829521 0 18158.39673166 0 -1764.58725207 0 7530.74526869 0 1683
0.04050000 0.04050350 44595.15195350 0 1435.99945128 0 13171.90549571 0 -611.22144526 0 1919.34272309 0 1822
0.04150000 0.04152450 44339.27803991 0 1678.24228383 0 20568.07018063 0 -1120.16652698 0 6655.29491117 0 1887
0.04250000 0.04250150 42901.41526754 0 669.03541847 0 13718.36876935 0 462.37758222 0 -4823.43954962 0 1920
0.04350000 0.04349210 42670.82928299 0 416.08958087 0 19769.28217642 0 2654.01251774 0 2362.93514503 0 2005
0.04450000 0.04448520 40208.91629639 0 1135.40583159 0 14711.25272015 0 879.01506822 0 -1235.23769532 0 2151
0.04550000 0.04548030 40407.22689783 0 1114.52110774 0 17247.80946221 0 1936.61171674 0 6741.26277872 0 2274
0.04650000 0.04648670 37955.07416454 0 591.15192438 0 15358.53497405 0 2305.39401526 0 4207.09064401 0 2311
0.04750000 0.04749250 38757.63317572 0 -123.06459398 0 16463.99457388 0 2568.95412834 0 9540.24833177 0 2568
0.04850000 0.04851840 38229.02672916 0 -506.55936526 0 12926.34639528 0 1412.18665143 0 1168.42432490 0 2493
0.04950000 0.04949480 39428.42876714 0 -44.64794605 0 12394.41258964 0 1383.00571226 0 7930.19472678 0 2644
0.05050000 0.05050630 37533.83050445 0 864.50667349 0 12989.78804182 0 -1293.58848247 0 2344.27975176 0 2829
0.05150000 0.05149060 37189.00519133 0 1873.60262687 0 13941.74547589 0 -4821.52077254 0 1443.56364760 0 2784
0.05250000 0.05249300 34883.14534579 0 768.61662115 0 14959.47370785 0 -418.79694205 0 -3614.98709493 0 3055
0.05350000 0.05348950 34500.16631517 0 633.71550179 0 15989.51316844 0 409.14205510 0 -4327.01975661 0 3009
0.05450000 0.05448610 33843.45654387 0 -176.79035200 0 12893.18371640 0 1623.35195013 0 -2230.50625347 0 3336
0.05550000 0.05550870 33891.59233862 0 -261.99070871 0 12443.21385621 0 3219.91865963 0 -5278.69991075 0 3349
0.05650000 0.05647670 34634.81344612 0 77.26161068 0 9881.54664426 0 928.84781610 0 -5032.04278182 0 3324
0.05750000 0.05747970 33553.08900776 0 479.60886579 0 9017.13202771 0 139.62818750 0 -4024.84009575 0 3639
0.05850000 0.05849280 33171.44092077 0 239.80166010 0 9453.82572515 0 79.61050437 0 -2874.08404759 0 3846
0.05950000 0.05951020 34036.99793061 0 -91.56215637 0 9545.22827920 0 -961.10434419 0 -4353.54989971 0 3787
0.06050000 0.06049470 32565.41791952 0 873.66578393 0 10203.39099731 0 58.02104586 0 -6144.29019418 0 3930
0.06150000 0.06148310 32251.75886983 0 1055.12885720 0 12284.72065182 0 -1622.12082727 0 -3244.38584010 0 4083
0.06250000 0.06249100 30925.58445073 0 589.46495333 0 13412.80629342 0 -1140.31923184 0 -4010.13316860 0 4303
0.06350000 0.06350600 30903.84570471 0 155.68380420 0 14326.94274590 0 1373.16782057 0 -2603.20374452 0 4470
0.06450000 0.06451750 30984.14597062 0 -235.84986663 0 14631.28519016 0 1361.51097258 0 -2114.83616050 0 4479
0.06550000 0.06550280 30819.10896003 0 349.67882090 0 12807.55967596 0 469.78428354 0 -2126.40427891 0 4636
0.06650000 0.06648880 30466.74163298 0 967.36532487 0 16688.03675223 0 -321.24653753 0 1075.22610607 0 4653
0.06750000 0.06749660 28844.54316733 0 1093.71402226 0 14617.31028200 0 -527.19897366 0 -521.81087018 0 5220
0.06850000 0.06852730 28638.57964001 0 498.56704874 0 17954.42961978 0 1023.12188104 0 3044.54465348 0 5029
0.06950000 0.06949320 27869.95969149 0 -522.18464352 0 15164.32811549 0 2123.70911805 0 2809.98802042 0 5040
0.07050000 0.07048030 29126.81412967 0 -535.28112888 0 15288.66043328 0 2998.41636538 0 3601.63329380 0 5475
0.07150000 0.07148790 28724.98006423 0 527.03371483 0 13123.65878898 0 0.26229683 0 3179.77961787 0 5509
0.07250000 0.07249820 27950.03813346 0 1092.51728211 0 14064.19229019 0 -743.59155348 0 4640.21297603 0 5916
0.07350000 0.07351270 26296.89522833 0 788.96785843 0 14562.96341696 0 466.21624548 0 4165.46538186 0 5721
0.07450000 0.07449140 25822.41382288 0 531.33377188 0 14434.52735629 0 211.73760446 0 4402.04061276 0 6028
0.07550000 0.07549160 25587.50227152 0 -94.55356310 0 12979.69505260 0 1982.25199218 0 2813.55938584 0 6183
0.07650000 0.07648840 25617.44850328 0 -389.38974246 0 13119.00048627 0 1311.00166167 0 3327.39235806 0 6330
0.07750000 0.07749960 25268.85218320 0 63.05389830 0 9956.78932436 0 1055.76549190 0 891.97291361 0 6583
0.07850000 0.07848650 25700.29974448 0 481.10617738 0 10364.18007946 0 -761.51270951 0 293.49858100 0 6549
0.07950000 0.07947320 24493.24478061 0 671.96016711 0 9463.97417036 0 -1072.63852982 0 -1144.78898421 0 6828
0.08050000 0.08048110 23602.73257763 0 583.81177024 0 10449.01664492 0 271.22080281 0 -1270.23042169 0 7147
0.08150000 0.08149960 23216.09345202 0 147.01936115 0 9115.47767105 0 476.95806972 0 -1653.09854034 0 7386
0.08250000 0.08250610 22931.49333833 0 396.29401256 0 10245.22699219 0 -78.28310992 0 -3281.44152910 0 7227
0.08350000 0.08350160 22460.11746803 0 631.26434727 0 10578.72819323 0 30.92813543 0 -1024.68352158 0 7798
0.08450000 0.08449610 21745.17891275 0 406.98925378 0 10400.15992236 0 159.04110952 0 -573.85409362 0 7371
0.08550000 0.08548940 21854.98176253 0 -180.96286029 0 11007.53604964 0 476.53660424 0 265.01195076 0 8256
0.08650000 0.08650700 21919.42161680 0 -189.45538979 0 11424.82015243 0 1631.98090136 0 1302.74981114 0 8037
0.08750000 0.08749060 22110.85567613 0 406.10861274 0 10308.15844368 0 55.48482185 0 326.15328306 0 8155
0.08850000 0.08849210 21835.12852000 0 200.05191936 0 10068.01184736 0 -410.83457176 0 2194.49313698 0 8718
0.08950000 0.08949900 21191.06271321 0 872.75408754 0 12789.59193690 0 -202.86242866 0 2344.56812288 0 8571
0.09050000 0.09049190 20121.64950347 0 669.64321607 0 10761.05637986 0 -86.29927251 0 1459.19114410 0 8932
0.09150000 0.09150830 19395.39792730 0 167.88079349 0 10989.98977607 0 2042.99847786 0 1802.36386887 0 9285
0.09250000 0.09250820 19049.79623039 0 9.36078167 0 9578.75696758 0 1239.46344136 0 1753.76224385 0 9204
0.09350000 0.09350330 19025.39559710 0 -155.77807938 0 8275.49696137 0 2038.12944240 0 3085.50444381 0 9349
0.09450000 0.09448040 18864.79506529 0 -10.54546569 0 6396.99202545 0 1127.42016979 0 1606.81497548 0 9564
0.09550000 0.09549270 18508.10217144 0 352.74331862 0 5323.48616403 0 -370.79202342 0 1882.74177316 0 10155
0.09650000 0.09649430 18277.95983476 0 102.77324916 0 5117.48936311 0 457.48081876 0 1496.98994330 0 9913
0.09750000 0.09749140 18174.81170314 0 -105.29427823 0 4586.59812998 0 -42.23727439 0 1447.85594082 0 10476
0.09850000 0.09850240 18267.09046175 0 -173.02710887 0 4743.87130271 0 380.38923613 0 -301.48313369 0 10575
0.09950000 0.09950330 18506.99305174 0 266.68228502 0 4926.31040131 0 -446.24210890 0 -431.77253336 0 10882
0.10050000 0.10051200 17957.64606690 0 644.87435504 0 5344.93653892 0 -1136.77004881 0 -281.26942725 0 10875
0.10150000 0.10150300 17344.41378763 0 598.48098733 0 6884.51667850 0 -929.19718881 0 -377.06187705 0 11118
0.10250000 0.10250800 16306.83231312 0 675.09564849 0 6996.50449409 0 -185.18416985 0 -369.21263697 0 11575
0.10350000 0.10349800 16257.36557474 0 379.49639478 0 8753.37227308 0 -306.73259720 0 291.56316714 0 11364
0.10450000 0.10450100 15682.17610100 0 187.15063906 0 8025.19082864 0 499.73606090 0 -25.05512482 0 12093
0.10550000 0.10551000 15762.36545494 0 32.15326904 0 8166.93632564 0 515.18277089 0 1031.66986653 0 12067
0.10650000 0.10649700 15507.15701316 0 -49.82121304 0 7470.45352208 0 737.33722752 0 861.75162017 0 12054
0.10750000 0.10749900 15662.10103452 0 -242.63989740 0 7292.39544627 0 805.32626481 0 1311.42312716 0 12807
0.10850000 0.10850100 15502.72053438 0 162.46607114 0 6620.86783585 0 678.21116571 0 889.78129309 0 12736
0.10950000 0.10950300 15664.09744997 0 175.41726181 0 6155.12629360 0 128.82536167 0 1399.65359888 0 12933
0.11050000 0.11050200 15309.29005960 0 191.61595496 0 5783.37155429 0 272.14802688 0 1134.35216788 0 13428
0.11150000 0.11150900 15121.29427133 0 1.28050087 0 5871.91257952 0 547.14427313 0 1972.75792759 0 13453
0.11250000 0.11250000 15219.11862841 0 -193.36281848 0 4661.25297664 0 894.66141975 0 1085.40782487 0 13668
0.11350000 0.11349100 15467.00688020 0 -59.73042113 0 4988.07727711 0 523.26270786 0 2192.94036941 0 13791
0.11450000 0.11448600 15235.20086399 0 44.92001311 0 4254.63860532 0 188.72226167 0 1253.51598789 0 14205
0.11550000 0.11549300 15012.26780533 0 305.98615965 0 4322.68309860 0 74.02619762 0 2552.00677941 0 14776
0.11650000 0.11649800 14628.73421486 0 241.37217359 0 3984.26849732 0 -157.21549850 0 2354.79420647 0 14553
0.11750000 0.11747300 14501.07453798 0 206.07443930 0 4639.69168977 0 225.80235131 0 2134.40103191 0 14568
0.11850000 0.11849100 14472.79198577 0 143.77185868 0 4452.94920676 0 355.97418429 0 2471.39595999 0 16015
0.11950000 0.11950300 13895.82792052 0 129.16475230 0 4179.75084353 0 60.02943980 0 1466.98825555 0 15270
0.12050000 0.12050700 13951.28390526 0 351.68078195 0 4356.47797570 0 -165.73797424 0 2616.60191043 0 15999
0.12150000 0.12150000 13235.90170210 0 270.77382758 0 4324.53532849 0 -242.65098859 0 1351.99472559 0 15670
0.12250000 0.12250700 13125.10064459 0 374.33455172 0 5316.69835149 0 -232.29624712 0 2011.18892502 0 16887
0.12350000 0.12352200 12648.73373566 0 44.88052845 0 4857.55607143 0 -146.83635640 0 1473.83152407 0 16407
0.12450000 0.12449800 12521.96135454 0 244.93022957 0 5069.60866588 0 89.37730149 0 1194.52191132 0 16306
0.12550000 0.12549900 12588.84127214 0 28.75403900 0 5150.53003882 0 -181.96106801 0 963.11074172 0 17523
0.12650000 0.12650100 12525.95418544 0 -39.34945944 0 5562.42381988 0 242.95599651 0 1125.54575750 0 17154
0.12750000 0.12750600 12655.83210171 0 -55.13434003 0 4863.21258187 0 234.55219658 0 788.08499916 0 18007
0.12850000 0.12850300 12540.70547739 0 9.84491242 0 4522.08063734 0 389.37754214 0 179.70068207 0 17496
0.12950000 0.12949900 12598.15787758 0 44.27328542 0 4281.61239630 0 175.22205675 0 694.89565328 0 18405
0.13050000 0.13049000 12526.50874529 0 6.98209703 0 4001.44876139 0 457.98990470 0 303.98198036 0 18100
0.13150000 0.13148800 12559.89324811 0 66.84531306 0 3483.36786074 0 471.24388506 0 875.85407709 0 19059
0.13250000 0.13249300 12216.17705468 0 115.59356371 0 2867.82861251 0 229.89389386 0 333.22059375 0 18957
0.13350000 0.13349100 12046.03809350 0 164.81962313 0 2963.05762951 0 182.46460835 0 548.56394634 0 19468
0.13450000 0.13450700 11617.58515539 0 377.38795824 0 2716.03449107 0 -189.61732127 0 -21.76192662 0 19953
0.13550000 0.13551000 11299.48962691 0 292.90187461 0 2999.34802592 0 176.58849221 0 827.88908676 0 19956
0.13650000 0.13649900 10948.85252659 0 -18.27263606 0 2455.32481561 0 199.43524880 0 647.25119855 0 19723
0.13750000 0.13749600 11080.90431745 0 -35.78929614 0 2729.19974185 0 606.22153368 0 448.37494607 0 20946
0.13850000 0.13851100 11025.41505912 0 131.47948510 0 2163.13832321 0 -84.76635818 0 490.58138694 0 20955
0.13950000 0.13949800 10957.06001233 0 171.25251736 0 2669.65110544 0 -454.32870059 0 836.20415712 0 20506
0.14050000 0.14048300 10544.01274678 0 198.96276381 0 2902.08931988 0 -335.50538032 0 686.83900781 0 21447
0.14150000 0.14148400 10550.94474487 0 198.56126249 0 3443.14008941 0 -289.28947176 0 148.08078870 0 21771
0.14250000 0.14249400 10502.79785892 0 19.06199655 0 3512.62643829 0 56.31965625 0 583.47016138 0 22470
0.14350000 0.14350900 10340.54473877 0 -16.10219973 0 3530.52763016 0 376.80012480 0 548.68705863 0 22519
0.14450000 0.14449900 10691.44802781 0 -196.29865831 0 2969.59034451 0 690.90836797 0 686.00938628 0 22218
0.14550000 0.14550500 10606.96638066 0 21.46978449 0 2813.88103055 0 473.51314395 0 1073.06110442 0 23559
0.14650000 0.14650700 10568.82375436 0 182.84059993 0 2286.64989242 0 157.72458444 0 1103.78371997 0 23044
0.14750000 0.14750500 10354.41982615 0 75.61212787 0 2374.02634198 0 244.18268289 0 1970.47314102 0 23649
0.14850000 0.14849900 10126.35154330 0 183.53269062 0 2370.68789170 0 -47.52245156 0 961.32284077 0 23640
0.14950000 0.14949500 9786.90546070 0 297.38715465 0 2545.31878765 0 -414.07763775 0 1225.12252370 0 24457
0.15050000 0.15050000 9701.20378188 0 168.95220311 0 2482.97516960 0 -339.26973257 0 899.32526807 0 24591
0.15150000 0.15149900 9439.83972580 0 45.55165678 0 2686.33226565 0 64.20793734 0 780.20026725 0 25020
0.15250000 0.15250500 9538.35173709 0 58.20072325 0 2688.98306172 0 95.82550157 0 485.21213849 0 25297
0.15350000 0.15350100 9452.30623117 0 -1.89575175 0 2442.51448313 0 98.37558957 0 156.68090281 0 25452
0.15450000 0.15450400 9413.54249783 0 58.75883228 0 2528.82617779 0 5.09739211 0 180.67338005 0 26061
0.15550000 0.15549900 9447.67011084 0 9.76796170 0 2327.23258205 0 250.28173209 0 76.02527495 0 26128
0.15650000 0.15649500 9401.73037308 0 -8.85774044 0 2167.89644670 0 10.49345907 0 103.15412086 0 26331
0.15750000 0.15749700 9444.50911971 0 39.57926905 0 2153.82171777 0 28.82025345 0 -87.59073148 0 27345
0.15850000 0.15849900 9299.51390201 0 173.07701926 0 1965.74829112 0 -98.35174350 0 -231.66959450 0 26980
0.15950000 0.15949700 9050.86035763 0 106.34694373 0 2099.36394075 0 3.83128762 0 -141.35730511 0 27777
0.16050000 0.16050000 9141.63071345 0 71.85565037 0 2155.72940364 0 117.26944357 0 219.23081712 0 28224
0.16150000 0.16150500 8819.88618118 0 88.05256892 0 2142.65288244 0 165.09579393 0 142.44535153 0 28075
0.16250000 0.16249700 8920.32806074 0 53.86362160 0 1972.69138041 0 295.26319044 0 363.87444388 0 28590
0.16350000 0.16349900 8711.24790707 0 39.57083974 0 1822.45002655 0 168.66937759 0 509.87008755 0 29163
0.16450000 0.16449100 8815.73807352 0 54.08832925 0 2160.02169686 0 -103.95667988 0 722.79777744 0 28996
0.16550000 0.16550500 8725.00099129 0 115.51259798 0 2069.46207378 0 -193.20088700 0 522.78578639 0 30777
0.16650000 0.16650700 8658.44271840 0 48.29805897 0 2299.51568088 0 -47.79706960 0 515.00309350 0 29211
0.16750000 0.16749900 8631.43565383 0 47.65976058 0 2215.97678547 0 -172.87737771 0 79.82012799 0 30922
0.16850000 0.16850800 8636.90361393 0 158.92465195 0 2264.56731930 0 -379.16033151 0 -76.54700486 0 30867
0.16950000 0.16949900 8319.83956677 0 189.37775141 0 2861.31807990 0 -113.31321362 0 -29.80859001 0 30852
0.17050000 0.17049200 8292.59958707 0 82.17379089 0 2525.59863947 0 -54.53974096 0 -546.88806648 0 31257
0.17150000 0.17149500 8158.03009449 0 31.89062950 0 2790.38987542 0 248.56814217 0 -552.25176933 0 32608
0.17250000 0.17250900 8106.36729911 0 107.77637719 0 2508.27418984 0 63.29801554 0 -428.14349371 0 32361
0.17350000 0.17350400 7922.30888575 0 37.66215565 0 2454.89225893 0 289.53347809 0 -344.74212914 0 32508
0.17450000 0.17449800 7995.39987364 0 -48.35229492 0 2185.80872977 0 228.13372091 0 -64.51172523 0 32791
0.17550000 0.17549800 7963.30194967 0 63.44552846 0 2100.46196925 0 43.91126875 0 -204.96753784 0 33633
0.17650000 0.17650100 7866.85290101 0 112.36935276 0 2267.75049282 0 -65.26736847 0 31.08041756 0 33984
0.17750000 0.17750300 7878.78702893 0 17.51699281 0 2182.91392736 0 25.80877165 0 15.69426551 0 34069
0.17850000 0.17849800 7824.68417021 0 18.59705357 0 2055.65353358 0 144.69575539 0 -98.95577008 0 34536
