### header ###
fiducial parameters:
Omega_m = 0.31
Omega_nu = 0
Omega_de = 0.69
Omega_k = 0
H_0 = 100
w_de = -1
zeff = 0
beta = 0
fgrowth = 0
b_1 = 2
gamma = 0.55
Lx = 3500 Ly = 3500 Lz = 3500
nx = 700 ny = 700 nz = 700
xoffset = 1379.75464 yoffset = 22.6059522 zoffset = 368.141391
bins = 400 dk = 0.001
kx_ny = 0.628318531 ky_ny = 0.628318531 kz_ny = 0.628318531
############################
A(data) = 3.32215134 (not used)
A(ran) = 3.31847598 (used)
Ngal = 186206
weighted Ngal = 0
Nran = 9399747
weighted Nran = 0
SN(data) = 6718.38434
SN(ran) = 131.993653
SN(data+ran) = 6850.37799
############################
13 columns: k_central k_mean P_0(k) sigma^{lin}_{P_0(k)} P^img_1(k) sigma^{lin}_{P_1(k)} P_2(k) sigma^{lin}_{P_2(k)} P^img_3(k) sigma^{lin}_{P_3(k)} P_4(k) sigma^{lin}_{P_4(k)} N_modes
### header ###
0.00050000 0 0 0 0 0 0 0 0 0 0 0 0
0.00150000 0.00179520 36065.13420457 0 -18732.36617373 0 -15332.47066122 0 22129.71071094 0 122229.42684819 0 3
0.00250000 0.00253879 45606.33637927 0 -17335.09718219 0 -16059.72044512 0 -15350.21657634 0 -33330.04503713 0 6
0.00350000 0.00331552 58520.81519382 0 -10743.42137671 0 -14869.52410060 0 -13121.99510944 0 -11319.12104551 0 7
0.00450000 0.00420575 67214.98265759 0 -6765.06448737 0 -19599.91959902 0 -23409.30210286 0 -14230.22750851 0 24
0.00550000 0.00557378 84210.68921317 0 -14642.93094695 0 -18772.62721865 0 -9621.32498146 0 3013.23420450 0 45
0.00650000 0.00659388 73817.46128890 0 -9349.21355553 0 -786.15624001 0 -25968.70671063 0 -32565.63974346 0 40
0.00750000 0.00754703 103214.34606425 0 9766.70839106 0 814.63732465 0 -42114.60575603 0 -25693.64502631 0 57
0.00850000 0.00846663 88416.91474381 0 12049.36545258 0 7216.12128486 0 -24879.55117031 0 -18029.96067100 0 75
0.00950000 0.00948925 66707.67130918 0 12758.31476151 0 46129.28631538 0 -14264.49930708 0 -21497.95613277 0 112
0.01050000 0.01054430 69330.18482758 0 2085.67740372 0 33833.03081874 0 4094.92536927 0 -33972.89081225 0 105
0.01150000 0.01145670 64813.29487042 0 -1710.63967011 0 40586.46064051 0 14272.48496888 0 -28530.55138173 0 144
0.01250000 0.01249090 65282.45250133 0 -651.75977011 0 27370.19035701 0 -99.12723999 0 -25588.27865531 0 169
0.01350000 0.01339930 70682.97811936 0 33.46269575 0 17830.43003790 0 -1137.95680689 0 -31220.27755364 0 180
0.01450000 0.01448870 72856.85272121 0 -856.09843708 0 17500.68875263 0 -4194.61304744 0 -30572.10800399 0 267
0.01550000 0.01550050 65437.39652270 0 2746.55746508 0 34217.45170496 0 -11757.22332496 0 -49061.24422865 0 238
0.01650000 0.01653350 66978.29651471 0 4787.87008100 0 24988.79946025 0 -7375.33541705 0 -28445.92554901 0 315
0.01750000 0.01747870 65010.16361625 0 113.06920729 0 36731.27149328 0 3084.10695300 0 -40291.43480169 0 297
0.01850000 0.01844180 63735.34143902 0 1699.37101401 0 38705.39363809 0 -1265.61648376 0 -25433.66736985 0 388
0.01950000 0.01947590 62525.29185197 0 640.06410292 0 34420.75334502 0 8262.79754087 0 -30144.65327360 0 399
0.02050000 0.02045430 65338.24122198 0 -1763.18976125 0 30687.90010013 0 8583.28876788 0 -1753.41841674 0 462
0.02150000 0.02154770 63525.27416882 0 -1926.35235956 0 28389.58226852 0 8376.34921522 0 -12863.12657267 0 571
0.02250000 0.02255340 70415.12571306 0 680.30740193 0 20909.90087058 0 3974.45278802 0 332.96993270 0 510
0.02350000 0.02348930 67390.22356937 0 861.98120794 0 20669.66554468 0 6213.53253673 0 -1593.58317752 0 555
0.02450000 0.02439640 67805.58889508 0 -1873.31425575 0 10156.28668387 0 4760.50809813 0 -2852.58930790 0 592
0.02550000 0.02547300 65345.00685212 0 -1501.45969567 0 4727.07923053 0 8509.97595605 0 4620.39300708 0 837
0.02650000 0.02652900 67819.67471521 0 -1536.41914845 0 -5344.83671815 0 5664.65138215 0 -6151.77675212 0 723
0.02750000 0.02749970 74203.43494269 0 -4670.73595003 0 -8397.96595807 0 7020.69439463 0 6556.77180868 0 826
0.02850000 0.02848090 72598.31692035 0 -539.04215376 0 -15397.13233943 0 -2699.67497558 0 -16463.21819009 0 831
0.02950000 0.02946900 70200.95469999 0 6371.84828197 0 -6547.99867190 0 -16407.09673354 0 -13302.67070773 0 996
0.03050000 0.03053250 63099.92676586 0 4868.11489092 0 -6507.95945091 0 -16663.74703092 0 -15933.50262385 0 1041
0.03150000 0.03150510 58672.65368004 0 2692.83170706 0 9102.23478189 0 -972.34970877 0 -18513.86959385 0 1036
0.03250000 0.03246190 56267.41670984 0 1118.60266821 0 9980.52448583 0 1290.28330577 0 -20888.27303653 0 1059
0.03350000 0.03345080 52760.93479466 0 2718.70746954 0 7298.40687502 0 -777.16017016 0 -26541.67794497 0 1302
0.03450000 0.03451200 50484.46662104 0 3349.00910091 0 12653.39203838 0 -3099.36844000 0 -15614.63071159 0 1339
0.03550000 0.03553350 45930.75389001 0 2274.12793107 0 14806.30427800 0 208.99142410 0 -15327.03597472 0 1365
0.03650000 0.03647120 45389.83621485 0 697.30355213 0 15422.64209241 0 618.22553613 0 -7123.65397590 0 1308
0.03750000 0.03744890 43569.54897170 0 -685.37164246 0 10836.50979270 0 5030.53437903 0 -8027.98581027 0 1579
0.03850000 0.03847530 45305.76494198 0 -2020.71626319 0 6685.62933483 0 8687.14673610 0 -1485.79892558 0 1662
0.03950000 0.03950240 46215.24309173 0 368.26877611 0 3113.93118159 0 3283.78177166 0 2057.29503073 0 1683
0.04050000 0.04050350 44788.91516419 0 1686.19467204 0 5775.67426361 0 -173.10252901 0 708.21063521 0 1822
0.04150000 0.04152450 45002.97526529 0 162.76996993 0 3303.11372794 0 -1550.78224850 0 6636.78370347 0 1887
0.04250000 0.04250150 41485.29124119 0 450.35472472 0 7518.42294888 0 -636.18218399 0 1464.27091230 0 1920
0.04350000 0.04349210 43238.69856674 0 1941.28111065 0 9984.17348962 0 -7333.49942216 0 4.08024062 0 2005
0.04450000 0.04448520 41649.44095603 0 1687.01542061 0 13609.23139138 0 -3627.75306261 0 -6139.26588196 0 2151
0.04550000 0.04548030 40176.86273721 0 1211.70217540 0 20710.37023748 0 -4831.42521142 0 -4388.79772361 0 2274
0.04650000 0.04648670 39985.09594198 0 1195.22065673 0 21841.89415013 0 -3314.17165130 0 -6776.04477235 0 2311
0.04750000 0.04749250 38678.10929360 0 814.71496303 0 25145.51807313 0 1410.54515428 0 -8437.48389280 0 2568
0.04850000 0.04851840 38262.63305592 0 617.21512809 0 28656.21464315 0 503.74663771 0 -5901.08242750 0 2493
0.04950000 0.04949480 36505.34381144 0 1681.00399187 0 25060.22676860 0 75.90116446 0 -4820.30074088 0 2644
0.05050000 0.05050630 35778.75949936 0 402.65370489 0 26509.84620973 0 4991.37136261 0 -1988.75143359 0 2829
0.05150000 0.05149060 34968.99121017 0 -398.39246702 0 23269.88575722 0 3094.04466546 0 -489.24046122 0 2784
0.05250000 0.05249300 34426.18803153 0 -56.37877233 0 17680.36614319 0 5863.59418181 0 340.11266354 0 3055
0.05350000 0.05348950 35154.10328724 0 -4.76622006 0 19696.96757232 0 598.55197099 0 867.16412428 0 3009
0.05450000 0.05448610 33651.35701272 0 1217.12577070 0 14872.40781181 0 221.01649983 0 -1026.70655590 0 3336
0.05550000 0.05550870 31777.27746438 0 576.49823497 0 15449.15005312 0 254.27899947 0 1215.85028306 0 3349
0.05650000 0.05647670 32258.30267603 0 212.05703093 0 14503.40368934 0 510.69416348 0 -1069.12151127 0 3324
0.05750000 0.05747970 32546.89562062 0 -393.08200192 0 13543.01694560 0 3182.74096746 0 -1152.85228439 0 3639
0.05850000 0.05849280 31646.51225236 0 541.01416858 0 13605.68220835 0 595.86457397 0 -1848.35906262 0 3846
0.05950000 0.05951020 31005.77380466 0 913.56747407 0 13235.23623028 0 -1058.01700488 0 3123.23669583 0 3787
0.06050000 0.06049470 30423.37505291 0 197.02291347 0 13914.90477927 0 1938.45285543 0 4370.75234617 0 3930
0.06150000 0.06148310 31409.71519752 0 -860.17001548 0 12438.22281758 0 3638.99953632 0 5347.65388218 0 4083
0.06250000 0.06249100 32243.99503196 0 -601.85603856 0 11482.38346459 0 1294.64214618 0 3933.28226495 0 4303
0.06350000 0.06350600 32309.32218199 0 599.76312969 0 11082.87855051 0 -867.52015170 0 5084.59287296 0 4470
0.06450000 0.06451750 31565.10286676 0 479.72088688 0 12566.99161415 0 -1368.32096750 0 4473.19064119 0 4479
0.06550000 0.06550280 31568.76296176 0 631.70799514 0 12435.11728244 0 -1018.07871379 0 2860.14241302 0 4636
0.06650000 0.06648880 30212.75322287 0 626.03817526 0 12771.84602179 0 55.38355923 0 1207.11041986 0 4653
0.06750000 0.06749660 30370.24821953 0 176.73045953 0 13807.09834493 0 1108.81801427 0 1039.71985728 0 5220
0.06850000 0.06852730 28887.79883543 0 573.74096341 0 11889.09765668 0 1374.44330822 0 1755.35937621 0 5029
0.06950000 0.06949320 28725.64553605 0 1126.90997473 0 13376.75990334 0 157.68798349 0 922.31842846 0 5040
0.07050000 0.07048030 26968.68902748 0 503.89525975 0 11670.15742892 0 21.89668466 0 2227.45617431 0 5475
0.07150000 0.07148790 26580.27531035 0 628.59025968 0 13172.23823162 0 -248.41508365 0 1948.87858056 0 5509
0.07250000 0.07249820 26449.95374621 0 291.40567214 0 13866.65807255 0 -232.97281014 0 253.96733684 0 5916
0.07350000 0.07351270 25777.93812312 0 211.82966139 0 11301.48604236 0 420.53160525 0 -339.25531401 0 5721
0.07450000 0.07449140 25117.45734485 0 4.94517653 0 13088.61060663 0 1321.00592132 0 92.40697285 0 6028
0.07550000 0.07549160 25960.83196080 0 -458.30267646 0 10298.12091044 0 1651.70104953 0 -672.74098737 0 6183
0.07650000 0.07648840 25274.06504576 0 -109.95413371 0 8409.25679657 0 1717.63821539 0 -1951.09681995 0 6330
0.07750000 0.07749960 26497.75680506 0 60.17661999 0 8708.98530290 0 413.47316751 0 165.39636537 0 6583
0.07850000 0.07848650 25208.51607180 0 -113.91768386 0 5709.06053473 0 598.79154084 0 -1184.71729322 0 6549
0.07950000 0.07947320 25139.41791481 0 509.08593992 0 8021.59728083 0 419.69311076 0 280.64610198 0 6828
0.08050000 0.08048110 25335.39936489 0 282.47725860 0 5287.06267325 0 778.39462038 0 -1190.21852691 0 7147
0.08150000 0.08149960 24431.46681361 0 -9.67606004 0 5615.31773813 0 518.88833979 0 842.66810670 0 7386
0.08250000 0.08250610 24670.14937193 0 261.20323373 0 4957.25484080 0 852.63354716 0 -449.30327925 0 7227
0.08350000 0.08350160 23683.25466748 0 43.73236774 0 4893.31409039 0 156.48458862 0 367.61772285 0 7798
0.08450000 0.08449610 24097.95452137 0 493.37525945 0 5937.21754716 0 -327.16258198 0 905.48199149 0 7371
0.08550000 0.08548940 22992.49492154 0 660.44750468 0 5567.25958175 0 -1509.26789832 0 -1001.30882401 0 8256
0.08650000 0.08650700 22772.11283818 0 719.89742944 0 6732.72255707 0 -119.08950899 0 930.19539653 0 8037
0.08750000 0.08749060 21477.21559448 0 254.69159200 0 6859.75003572 0 417.95844756 0 -521.77316011 0 8155
0.08850000 0.08849210 21855.20358647 0 70.44340827 0 6004.06419116 0 474.49582400 0 230.15897347 0 8718
0.08950000 0.08949900 20954.82021822 0 321.96191973 0 6503.42315136 0 179.67295408 0 -1193.03569093 0 8571
0.09050000 0.09049190 20708.59564597 0 776.10761557 0 5993.96011074 0 -502.29812739 0 -417.23197416 0 8932
0.09150000 0.09150830 19690.86741400 0 434.16157718 0 6261.60178430 0 -286.79617069 0 -1265.59430137 0 9285
0.09250000 0.09250820 19523.83398796 0 159.99273422 0 6458.91417801 0 168.16805549 0 -2790.60060816 0 9204
0.09350000 0.09350330 19074.52959958 0 408.98012363 0 6084.08717714 0 253.39392196 0 -1957.16370468 0 9349
0.09450000 0.09448040 18255.66652890 0 516.34956480 0 5666.88071274 0 -541.11953495 0 -3084.51732729 0 9564
0.09550000 0.09549270 17559.36118449 0 606.57867022 0 6718.05999470 0 -572.45327545 0 -2236.61750299 0 10155
0.09650000 0.09649430 16793.18129930 0 424.90153685 0 6687.82539182 0 193.70664558 0 -3054.43800116 0 9913
0.09750000 0.09749140 16997.70297103 0 0.61920378 0 6754.13965838 0 811.52180743 0 -1762.28028310 0 10476
0.09850000 0.09850240 16740.94176168 0 -191.72908517 0 5920.58075173 0 491.89458465 0 -2448.68118864 0 10575
0.09950000 0.09950330 17053.38077971 0 -111.34452616 0 5744.44145300 0 856.94580453 0 -936.68485587 0 10882
0.10050000 0.10051200 16818.80196425 0 252.77281493 0 5606.07877107 0 -41.70412056 0 -1565.27844291 0 10875
0.10150000 0.10150300 16591.09969091 0 160.64378748 0 5542.49293897 0 308.07795939 0 179.16719550 0 11118
0.10250000 0.10250800 16549.39679038 0 31.01941598 0 5619.55457536 0 354.32381419 0 -166.00970856 0 11575
0.10350000 0.10349800 16509.80121728 0 113.77460741 0 5741.21391469 0 27.82138025 0 -603.77370651 0 11364
0.10450000 0.10450100 15959.89967258 0 323.36495615 0 5208.79209638 0 116.97441773 0 659.74765015 0 12093
0.10550000 0.10551000 15940.82281383 0 43.76353401 0 5530.90263815 0 14.14604532 0 -532.77451837 0 12067
0.10650000 0.10649700 15978.08923558 0 -71.86330330 0 5261.29782274 0 648.34811792 0 982.05117875 0 12054
0.10750000 0.10749900 15930.72982461 0 -36.74136448 0 4746.53318998 0 -45.99319733 0 -935.75652268 0 12807
0.10850000 0.10850100 16174.51433353 0 198.42262252 0 5014.85142655 0 329.29320091 0 975.21567407 0 12736
0.10950000 0.10950300 15909.43472647 0 5.09883397 0 4709.93224005 0 367.24505863 0 116.07713990 0 12933
0.11050000 0.11050200 15654.89175651 0 113.55500171 0 4428.60402946 0 330.77609395 0 421.91689575 0 13428
0.11150000 0.11150900 15487.19285865 0 522.46414168 0 5280.67414381 0 -452.89682706 0 1085.92578376 0 13453
0.11250000 0.11250000 14998.18198520 0 280.36216734 0 5321.98885244 0 30.27586213 0 1297.88077568 0 13668
0.11350000 0.11349100 14987.20170022 0 -24.49790308 0 5533.43143106 0 245.07219689 0 818.74772224 0 13791
0.11450000 0.11448600 14793.54940151 0 295.84436916 0 5637.50013202 0 -333.48234600 0 1143.44694938 0 14205
0.11550000 0.11549300 14557.08508257 0 180.94511437 0 5782.92790641 0 341.56893770 0 2172.11110154 0 14776
0.11650000 0.11649800 14358.88539311 0 -51.55598716 0 5349.29537932 0 426.79591329 0 1480.80788695 0 14553
0.11750000 0.11747300 14542.55561457 0 -22.02168245 0 4916.61669518 0 674.86162423 0 1115.59695384 0 14568
0.11850000 0.11849100 14235.55128304 0 205.18714354 0 4968.67877365 0 -364.62753615 0 1473.83152407 0 16015
0.11950000 0.11950300 14161.46208743 0 132.79601018 0 4862.33637731 0 -212.13577843 0 636.97187722 0 15270
0.12050000 0.12050700 13869.87451966 0 255.68647237 0 5127.97054422 0 -175.10449006 0 676.75821891 0 15999
0.12150000 0.12150000 13698.73735075 0 225.07365967 0 5588.04448483 0 -224.88289108 0 267.34886596 0 15670
0.12250000 0.12250700 13385.52194893 0 18.97060508 0 4979.15995477 0 462.50845834 0 534.73655111 0 16887
0.12350000 0.12352200 13424.11931431 0 -29.93536239 0 4977.75137276 0 1024.12230701 0 351.83605871 0 16407
0.12450000 0.12449800 13522.83096715 0 62.79369882 0 4445.36282804 0 38.26407491 0 890.93699582 0 16306
0.12550000 0.12549900 13070.75377954 0 508.49921560 0 4950.30066031 0 -637.30350400 0 617.27945703 0 17523
0.12650000 0.12650100 12641.63536961 0 478.64947726 0 5343.59450409 0 -930.72555575 0 764.49845973 0 17154
0.12750000 0.12750600 12376.77758649 0 -35.00614672 0 5911.24196390 0 465.00508677 0 995.08111692 0 18007
0.12850000 0.12850300 12548.02566737 0 -347.72566112 0 4939.23164576 0 1029.62464982 0 638.88621781 0 17496
0.12950000 0.12949900 12758.20384954 0 -129.88346186 0 4461.55597559 0 1261.21327857 0 1295.35198278 0 18405
0.13050000 0.13049000 12872.77591402 0 18.37190227 0 3558.49962887 0 709.80776757 0 1940.47145327 0 18100
0.13150000 0.13148800 12646.07184839 0 167.65120571 0 3560.76223305 0 142.64388395 0 2582.71830376 0 19059
0.13250000 0.13249300 12313.66867586 0 348.02734168 0 3388.26084691 0 9.67689188 0 2331.48051049 0 18957
0.13350000 0.13349100 11979.82364771 0 315.25729118 0 4309.31820628 0 -628.00242624 0 2674.02103703 0 19468
0.13450000 0.13450700 11654.74066516 0 162.92524669 0 3973.04420600 0 -121.23343736 0 2088.25056141 0 19953
0.13550000 0.13551000 11610.48678934 0 -72.92040528 0 4478.11513263 0 353.90900342 0 1816.63823935 0 19956
0.13650000 0.13649900 11652.63333774 0 -69.10425715 0 3236.41126949 0 204.93204601 0 1375.27514799 0 19723
0.13750000 0.13749600 11948.21373641 0 -51.44662796 0 3452.87816033 0 173.23229601 0 804.59202757 0 20946
0.13850000 0.13851100 11768.20360994 0 91.74970851 0 3226.69538096 0 -123.05793926 0 636.28644124 0 20955
0.13950000 0.13949800 11713.41309702 0 126.50397415 0 3181.76494213 0 -105.34352314 0 349.36161267 0 20506
0.14050000 0.14048300 11573.22036759 0 51.88972127 0 3021.39732545 0 217.43182497 0 122.47121494 0 21447
0.14150000 0.14148400 11531.40655510 0 103.35387332 0 2860.71915526 0 -208.92931339 0 -326.66015076 0 21771
0.14250000 0.14249400 11303.14972190 0 205.26810928 0 2781.76092419 0 93.66016719 0 -135.47120688 0 22470
0.14350000 0.14350900 10837.31945008 0 356.84151589 0 3324.38664368 0 -153.39458115 0 -261.57589795 0 22519
0.14450000 0.14449900 10781.60836781 0 156.98591072 0 3272.31347401 0 86.07001747 0 362.19412754 0 22218
0.14550000 0.14550500 10324.17413207 0 66.84797495 0 3211.01242848 0 264.17234715 0 65.94881161 0 23559
0.14650000 0.14650700 10405.50587929 0 232.03893135 0 3443.99411157 0 -129.98993735 0 84.85808238 0 23044
0.14750000 0.14750500 10062.62152564 0 106.04859053 0 3101.84177692 0 60.84996655 0 459.29533858 0 23649
0.14850000 0.14849900 10021.24026982 0 17.16140904 0 3350.08494701 0 250.93722183 0 84.66376461 0 23640
0.14950000 0.14949500 9880.53734534 0 82.63418648 0 2701.39411110 0 1.25047700 0 125.41370949 0 24457
0.15050000 0.15050000 9853.40827760 0 24.15185774 0 2849.69450550 0 422.71102545 0 -194.84571151 0 24591
0.15150000 0.15149900 9831.48098124 0 37.67369050 0 2306.74714129 0 25.13875244 0 87.47638124 0 25020
0.15250000 0.15250500 9775.88081094 0 79.37614738 0 2030.69834045 0 221.58880559 0 -366.45092893 0 25297
0.15350000 0.15350100 9551.78317660 0 156.62766506 0 2235.27546816 0 -241.35331855 0 -566.21114981 0 25452
0.15450000 0.15450400 9244.92303063 0 290.86220349 0 2456.14556418 0 -156.40805936 0 -178.98419075 0 26061
0.15550000 0.15549900 9013.20574399 0 147.08258097 0 2376.96550917 0 43.76397765 0 -565.27505278 0 26128
0.15650000 0.15649500 9090.78866664 0 29.23040591 0 2183.09138652 0 -15.26204156 0 -418.68713920 0 26331
0.15750000 0.15749700 8871.16078467 0 45.20683147 0 2818.08459420 0 -291.19604852 0 -1020.03187358 0 27345
0.15850000 0.15849900 8905.12202973 0 160.28443270 0 2969.66798289 0 -212.48182377 0 -493.07246977 0 26980
0.15950000 0.15949700 8778.66020212 0 44.76917283 0 3000.00240654 0 -419.68867428 0 -776.90729087 0 27777
0.16050000 0.16050000 9102.76715935 0 -181.99434160 0 3135.17082375 0 383.80643391 0 -514.20119996 0 28224
0.16150000 0.16150500 9282.82165060 0 -157.31088280 0 2892.26251938 0 517.15145834 0 -1003.19876397 0 28075
0.16250000 0.16249700 9335.20537379 0 82.73256540 0 2735.21117060 0 -39.14416139 0 -746.25233163 0 28590
0.16350000 0.16349900 9154.19703959 0 249.17815800 0 2921.16617863 0 -322.81261454 0 -260.23940871 0 29163
0.16450000 0.16449100 8930.78705947 0 156.27607412 0 3125.14438171 0 5.54145037 0 -549.47231537 0 28996
0.16550000 0.16550500 8685.90452205 0 152.84667602 0 3295.56062282 0 158.84812269 0 -29.86826065 0 30777
0.16650000 0.16650700 8642.29393565 0 -3.50786831 0 2913.64634710 0 324.89665044 0 -498.48830124 0 29211
0.16750000 0.16749900 8616.41817317 0 63.07275333 0 2916.78515584 0 483.73700930 0 47.90243597 0 30922
0.16850000 0.16850800 8398.46506194 0 35.98006472 0 2603.35902128 0 57.13430466 0 -122.93260873 0 30867
0.16950000 0.16949900 8414.51402392 0 164.41701268 0 2275.24814196 0 34.49861355 0 106.36358053 0 30852
0.17050000 0.17049200 8028.75110286 0 218.79604220 0 2488.07712020 0 -103.52323590 0 27.42941735 0 31257
0.17150000 0.17149500 7891.04280155 0 112.81854624 0 2163.44887672 0 -50.23735475 0 -194.96216908 0 32608
0.17250000 0.17250900 7815.76684787 0 51.90724537 0 2552.83861918 0 396.82971737 0 299.35251475 0 32361
0.17350000 0.17350400 7599.85451688 0 75.70839946 0 2222.49840927 0 71.03423633 0 -64.17987661 0 32508
0.17450000 0.17449800 7711.95324443 0 -38.63119353 0 1946.95980349 0 346.71414396 0 297.58457796 0 32791
0.17550000 0.17549800 7648.95524577 0 -2.69893187 0 1833.14194041 0 324.54173214 0 98.86116217 0 33633
0.17650000 0.17650100 7609.69240857 0 10.33613044 0 1369.79609670 0 182.05534319 0 529.36175706 0 33984
0.17750000 0.17750300 7622.19218753 0 39.09913113 0 1430.78658871 0 198.06992246 0 596.97147542 0 34069
0.17850000 0.17849800 7547.64825284 0 53.06072985 0 1000.09655618 0 174.07189962 0 550.83985995 0 34536
