### header ###
fiducial parameters:
Omega_m = 0.31
Omega_nu = 0
Omega_de = 0.69
Omega_k = 0
H_0 = 100
w_de = -1
zeff = 0
beta = 0
fgrowth = 0
b_1 = 2
gamma = 0.55
Lx = 3500 Ly = 3500 Lz = 3500
nx = 700 ny = 700 nz = 700
xoffset = 1379.75464 yoffset = 22.6059522 zoffset = 368.141391
bins = 400 dk = 0.001
kx_ny = 0.628318531 ky_ny = 0.628318531 kz_ny = 0.628318531
############################
A(data) = 3.3586954 (not used)
A(ran) = 3.35358189 (used)
Ngal = 188231
weighted Ngal = 0
Nran = 9399747
weighted Nran = 0
SN(data) = 6682.32197
SN(ran) = 133.390003
SN(data+ran) = 6815.71197
############################
13 columns: k_central k_mean P_0(k) sigma^{lin}_{P_0(k)} P^img_1(k) sigma^{lin}_{P_1(k)} P_2(k) sigma^{lin}_{P_2(k)} P^img_3(k) sigma^{lin}_{P_3(k)} P_4(k) sigma^{lin}_{P_4(k)} N_modes
### header ###
0.00050000 0 0 0 0 0 0 0 0 0 0 0 0
0.00150000 0.00179520 71303.19785270 0 -32379.08581079 0 -71072.83369209 0 56197.76399301 0 -150478.70547532 0 3
0.00250000 0.00253879 119475.48264595 0 -25346.37964986 0 -9260.43961516 0 -60096.87428016 0 152517.26747440 0 6
0.00350000 0.00331552 115032.34914849 0 -2661.02215421 0 -38390.95820461 0 -50673.46061704 0 -58774.35995605 0 7
0.00450000 0.00420575 103871.61039540 0 10365.06737522 0 -6836.72471085 0 -35102.52922143 0 34095.11580262 0 24
0.00550000 0.00557378 100744.22559191 0 -6918.03427568 0 -21137.04858408 0 14690.29035792 0 -8908.52702719 0 45
0.00650000 0.00659388 77687.06899216 0 -65.10421697 0 37084.96976395 0 -6068.41531586 0 -3268.89738535 0 40
0.00750000 0.00754703 100492.34450922 0 4671.70088417 0 -31815.87482976 0 -11847.28384418 0 -7932.73461088 0 57
0.00850000 0.00846663 80868.24610085 0 6593.57240016 0 2628.66913271 0 -10117.98878080 0 2328.60789048 0 75
0.00950000 0.00948925 66243.39380492 0 16199.02587879 0 -2164.82418514 0 -17521.65111486 0 -4458.06224855 0 112
0.01050000 0.01054430 61705.09783765 0 3364.51459424 0 20739.20734954 0 -2109.33492681 0 6081.97984972 0 105
0.01150000 0.01145670 51429.10386512 0 856.85707495 0 20785.23581688 0 2212.93779750 0 -18856.80940349 0 144
0.01250000 0.01249090 53742.06207670 0 1752.07638191 0 16986.72268605 0 -3833.78313712 0 4415.32786671 0 169
0.01350000 0.01339930 48014.56797264 0 293.35883192 0 577.91236259 0 1964.60589783 0 -19746.87795858 0 180
0.01450000 0.01448870 60746.26386148 0 -5076.23011046 0 17044.84055806 0 1361.53315497 0 -3048.99222346 0 267
0.01550000 0.01550050 59645.46256437 0 -4083.45707162 0 8156.74351565 0 2155.31902936 0 -37839.72571628 0 238
0.01650000 0.01653350 67356.50633065 0 443.45156374 0 14433.97279645 0 -9150.96950128 0 -4121.69951870 0 315
0.01750000 0.01747870 66374.15901694 0 -3649.83563574 0 11189.57586515 0 4292.91432599 0 -23784.62820759 0 297
0.01850000 0.01844180 76011.63278116 0 -5599.23550255 0 6739.65455516 0 5674.50036504 0 -4900.15735891 0 388
0.01950000 0.01947590 78123.39668010 0 3768.53362548 0 13324.74218966 0 -10366.28740688 0 -34219.33720844 0 399
0.02050000 0.02045430 73466.64672942 0 3044.64447426 0 21242.19313114 0 -11355.05652362 0 -14993.19094658 0 462
0.02150000 0.02154770 69669.57545420 0 5525.72304918 0 24874.00557184 0 -13204.84635065 0 -27511.71403007 0 571
0.02250000 0.02255340 69505.98029921 0 1766.30638760 0 27088.03030664 0 -6640.39943367 0 -26599.13034517 0 510
0.02350000 0.02348930 67622.47323347 0 -1190.32943888 0 30596.73046121 0 9989.28653142 0 -28429.84331344 0 555
0.02450000 0.02439640 65652.01118364 0 1038.35896741 0 31684.11141002 0 3688.81010181 0 -29841.97450889 0 592
0.02550000 0.02547300 68608.81337807 0 -360.68461564 0 17597.29307805 0 10927.14705416 0 -17607.05333136 0 837
0.02650000 0.02652900 67428.48819884 0 -2202.13497168 0 15660.88100286 0 11640.65484504 0 -16230.85761403 0 723
0.02750000 0.02749970 65313.84058869 0 1421.96908714 0 727.95407490 0 3558.63272323 0 1814.78600946 0 826
0.02850000 0.02848090 65209.36151344 0 1544.57117821 0 7761.30907085 0 6011.53965791 0 -2227.01252643 0 831
0.02950000 0.02946900 63214.05518246 0 1394.35200674 0 3056.23477507 0 -1060.27184522 0 9674.36308527 0 996
0.03050000 0.03053250 58006.40547936 0 3142.29137219 0 10049.61155162 0 -250.38155287 0 7829.19828737 0 1041
0.03150000 0.03150510 56200.53679225 0 2666.50120550 0 6575.80430265 0 -5608.03082173 0 5488.85591052 0 1036
0.03250000 0.03246190 56307.34501886 0 -392.95999876 0 12601.37432469 0 5049.17868110 0 5440.97521330 0 1059
0.03350000 0.03345080 56471.16199778 0 -1645.10178735 0 13496.21209448 0 666.68519384 0 4925.10146084 0 1302
0.03450000 0.03451200 57871.64743644 0 -74.88177255 0 15060.95815993 0 -1096.24281517 0 7322.87405549 0 1339
0.03550000 0.03553350 58544.55035528 0 1600.92554990 0 13381.75094197 0 -2767.15381781 0 5.58236579 0 1365
0.03650000 0.03647120 56991.33913466 0 2167.46389002 0 20662.67809060 0 -5128.08145619 0 2957.55639582 0 1308
0.03750000 0.03744890 53703.90835920 0 3048.73712593 0 21867.07116721 0 -3805.57822328 0 -1784.72886573 0 1579
0.03850000 0.03847530 51137.73812129 0 1358.17252229 0 26715.36608918 0 -977.86425190 0 -3269.36321562 0 1662
0.03950000 0.03950240 50739.45323888 0 504.22799566 0 27081.26467651 0 3011.47070418 0 -3828.98064884 0 1683
0.04050000 0.04050350 48342.20193049 0 971.04094754 0 24492.35748485 0 714.53039923 0 -9520.50600120 0 1822
0.04150000 0.04152450 46184.63138815 0 1852.86208858 0 23687.24749838 0 2082.41659182 0 -887.56416282 0 1887
0.04250000 0.04250150 46967.89171664 0 -885.74742476 0 18124.56858097 0 6504.87609816 0 -2979.81642809 0 1920
0.04350000 0.04349210 46730.31827801 0 -1872.50459837 0 15278.45653209 0 10432.01384000 0 670.67913386 0 2005
0.04450000 0.04448520 48517.88649015 0 -1159.20754024 0 4188.75689545 0 5143.84204706 0 -1319.20914742 0 2151
0.04550000 0.04548030 47512.35857483 0 758.33286334 0 2022.72376984 0 2869.24828572 0 5306.49445030 0 2274
0.04650000 0.04648670 43905.50132726 0 2945.35607918 0 3080.95705307 0 -4783.06759272 0 -721.19842684 0 2311
0.04750000 0.04749250 41764.23484444 0 3840.58204085 0 7068.51963587 0 -5535.72730883 0 1107.70002161 0 2568
0.04850000 0.04851840 36985.81446324 0 1845.65281056 0 10881.40695795 0 -990.98957437 0 -269.20553233 0 2493
0.04950000 0.04949480 35512.45986064 0 932.95599545 0 9936.23733641 0 145.40891935 0 -484.06419961 0 2644
0.05050000 0.05050630 34566.15893701 0 51.36300033 0 8869.75220266 0 1103.57298723 0 -1956.11004097 0 2829
0.05150000 0.05149060 35672.39492063 0 276.13642130 0 11327.10670731 0 1256.11132798 0 -1172.06223750 0 2784
0.05250000 0.05249300 34421.64064078 0 804.19829008 0 12704.85519222 0 -1480.61933660 0 -1632.20272529 0 3055
0.05350000 0.05348950 32545.78650093 0 1499.03072354 0 13284.81388064 0 -2311.27234965 0 -3248.74468050 0 3009
0.05450000 0.05448610 32140.73598838 0 858.33331327 0 14629.51059864 0 -1776.80975111 0 503.97400725 0 3336
0.05550000 0.05550870 30826.20732607 0 143.05758560 0 14943.39147228 0 2124.72950817 0 3.16381939 0 3349
0.05650000 0.05647670 31638.97023844 0 -455.61084296 0 13954.83308828 0 4087.59408809 0 431.08931562 0 3324
0.05750000 0.05747970 31515.19248050 0 -341.78965252 0 11704.87287537 0 2452.87366108 0 971.05980257 0 3639
0.05850000 0.05849280 32143.39787564 0 701.29971040 0 12077.20435692 0 156.55779052 0 1546.51213767 0 3846
0.05950000 0.05951020 30591.07395077 0 187.12180195 0 11200.66706210 0 802.30945924 0 5039.59588694 0 3787
0.06050000 0.06049470 30757.33099302 0 -506.74680649 0 10209.55770281 0 2450.23395621 0 3971.53580322 0 3930
0.06150000 0.06148310 31486.46628040 0 -293.41428791 0 10483.85409453 0 -461.02556531 0 5398.66229694 0 4083
0.06250000 0.06249100 32280.37415795 0 -496.01607344 0 8641.17372475 0 1147.26232113 0 2138.18313007 0 4303
0.06350000 0.06350600 32846.35793822 0 357.45818644 0 12741.23431821 0 -700.00647683 0 5138.00807746 0 4470
0.06450000 0.06451750 32032.26408222 0 664.41038935 0 10086.48978147 0 -2965.53096642 0 2104.13315544 0 4479
0.06550000 0.06550280 32953.05525286 0 115.78765966 0 14388.16615305 0 388.09983625 0 5638.78671087 0 4636
0.06650000 0.06648880 32723.46747604 0 4.23681505 0 13869.20904784 0 -740.62244006 0 2371.45318429 0 4653
0.06750000 0.06749660 32724.13294785 0 690.25066000 0 16273.44781031 0 -409.06552584 0 3077.88479151 0 5220
0.06850000 0.06852730 32095.04025695 0 813.33854549 0 17940.89835951 0 -760.69417917 0 690.38153612 0 5029
0.06950000 0.06949320 31443.65426018 0 405.93780830 0 18488.47075284 0 -154.16320110 0 4465.46007691 0 5040
0.07050000 0.07048030 30393.42882115 0 38.47491857 0 17070.01757513 0 1860.20446096 0 3041.74967185 0 5475
0.07150000 0.07148790 30710.74796584 0 -22.72674984 0 15786.32244034 0 2690.84638281 0 1438.04023152 0 5509
0.07250000 0.07249820 30217.96608543 0 361.80149917 0 14077.39081456 0 1756.84559660 0 3578.23086824 0 5916
0.07350000 0.07351270 29428.27286272 0 768.95823002 0 12509.65012593 0 611.28910156 0 1713.30155738 0 5721
0.07450000 0.07449140 28575.24890543 0 278.59755790 0 10882.47171285 0 1525.21703953 0 2460.22712466 0 6028
0.07550000 0.07549160 27666.54713946 0 285.02823389 0 9449.40033757 0 1744.42345602 0 3341.78873170 0 6183
0.07650000 0.07648840 26922.32782424 0 497.43796489 0 8082.98705594 0 1504.97560510 0 1990.24874518 0 6330
0.07750000 0.07749960 26474.68711541 0 63.68221461 0 6506.05176504 0 1413.91687816 0 2779.38740804 0 6583
0.07850000 0.07848650 25635.52715430 0 284.19861236 0 6419.66243201 0 1506.35091352 0 2411.49240527 0 6549
0.07950000 0.07947320 25746.88277166 0 505.31604208 0 5376.15825833 0 -351.13176770 0 4825.13650275 0 6828
0.08050000 0.08048110 24491.24836516 0 543.07602209 0 6355.01184500 0 -896.87189530 0 2282.65706152 0 7147
0.08150000 0.08149960 23959.31455952 0 598.26803634 0 6370.40642636 0 -973.65181530 0 3324.45319087 0 7386
0.08250000 0.08250610 23476.73658030 0 640.46560425 0 8525.89182367 0 -386.67794480 0 1699.92557386 0 7227
0.08350000 0.08350160 23181.26709360 0 156.68533929 0 7786.31971997 0 -243.98525959 0 1182.14413553 0 7798
0.08450000 0.08449610 23129.24937991 0 -106.75753984 0 8692.94743211 0 220.10702168 0 1074.97655414 0 7371
0.08550000 0.08548940 22532.54298410 0 492.76302537 0 7887.87071923 0 -714.18435389 0 -352.79211989 0 8256
0.08650000 0.08650700 22718.32053298 0 218.38344967 0 8790.26159413 0 537.02577416 0 837.40200639 0 8037
0.08750000 0.08749060 21979.75772820 0 -254.08268529 0 6905.65649989 0 2013.79535630 0 524.55039583 0 8155
0.08850000 0.08849210 22556.72179345 0 -180.07778277 0 6496.40242369 0 1517.33119850 0 1861.04739193 0 8718
0.08950000 0.08949900 22484.18536541 0 -6.78310986 0 4217.79364906 0 1786.62546040 0 1737.75764665 0 8571
0.09050000 0.09049190 21833.24301652 0 300.65573039 0 3570.13429447 0 293.59507442 0 2734.85625230 0 8932
0.09150000 0.09150830 21358.09613925 0 686.76026032 0 4010.66554605 0 -765.09294788 0 2209.96535672 0 9285
0.09250000 0.09250820 20283.24824300 0 743.48618711 0 4024.47408625 0 -811.92885436 0 571.10680414 0 9204
0.09350000 0.09350330 19643.06435515 0 557.84505995 0 5604.08235562 0 -119.43888170 0 2024.89764444 0 9349
0.09450000 0.09448040 18732.69890964 0 556.48417008 0 4222.20794545 0 -555.06893335 0 391.61463657 0 9564
0.09550000 0.09549270 18501.78018918 0 458.46904441 0 5856.26290063 0 93.29382495 0 1764.42088411 0 10155
0.09650000 0.09649430 17902.30099413 0 159.41377374 0 5494.86733927 0 -167.29961477 0 281.04316683 0 9913
0.09750000 0.09749140 17593.63298306 0 107.37254671 0 5988.85816015 0 948.18199062 0 2300.11460552 0 10476
0.09850000 0.09850240 17941.56383132 0 -205.38789421 0 5483.45449761 0 62.43456586 0 1937.39919172 0 10575
0.09950000 0.09950330 17814.68053824 0 164.06431262 0 6094.21343996 0 -101.14428507 0 2570.49580472 0 10882
0.10050000 0.10051200 18293.82024640 0 93.03950381 0 6421.24847317 0 -105.36038176 0 1950.00988265 0 10875
0.10150000 0.10150300 17918.05049379 0 37.78970442 0 6605.29579533 0 -489.25377066 0 1251.16465414 0 11118
0.10250000 0.10250800 17957.64606690 0 243.06358112 0 7571.43887029 0 -654.68784610 0 2046.78057602 0 11575
0.10350000 0.10349800 18338.85050601 0 -49.49147176 0 7134.49007532 0 603.36333222 0 1022.57841239 0 11364
0.10450000 0.10450100 18104.16077858 0 -203.15856362 0 7143.99523111 0 145.06287401 0 1445.26060073 0 12093
0.10550000 0.10551000 18278.29257067 0 302.67321912 0 6991.59109384 0 240.02681140 0 238.95096529 0 12067
0.10650000 0.10649700 17951.32408464 0 524.25980647 0 8343.68564021 0 -901.03885800 0 1736.50434140 0 12054
0.10750000 0.10749900 16987.27724590 0 464.78991755 0 7529.80251695 0 168.40984358 0 664.49024596 0 12807
0.10850000 0.10850100 16751.14566287 0 108.21669771 0 7873.28579524 0 818.92074491 0 1638.56907234 0 12736
0.10950000 0.10950300 16161.42672113 0 75.37022886 0 6630.58372437 0 987.54464859 0 1132.92140347 0 12933
0.11050000 0.11050200 16382.14154040 0 258.62674868 0 6681.03757929 0 944.88235953 0 2079.99871088 0 13428
0.11150000 0.11150900 15587.34636709 0 141.09222550 0 5740.99209075 0 338.38354593 0 1767.93679355 0 13453
0.11250000 0.11250000 15415.87646227 0 424.50447200 0 6110.16258117 0 42.60949496 0 1537.89427764 0 13668
0.11350000 0.11349100 14752.40106083 0 363.94320930 0 5219.90547573 0 51.33028130 0 1584.97640869 0 13791
0.11450000 0.11448600 14742.52989555 0 72.76157934 0 5831.89554094 0 -206.82309509 0 1248.62477004 0 14205
0.11550000 0.11549300 14293.33641914 0 142.04385020 0 4803.34230075 0 441.10688471 0 669.51788554 0 14776
0.11650000 0.11649800 14329.05007332 0 44.02373349 0 4947.79404980 0 402.03148874 0 972.05024646 0 14553
0.11750000 0.11747300 14155.58375305 0 208.58437717 0 4904.86002641 0 51.55964725 0 1319.33115058 0 14568
0.11850000 0.11849100 13861.66703392 0 229.74749006 0 4378.42745446 0 311.37204489 0 1109.64098108 0 16015
0.11950000 0.11950300 13592.92733186 0 156.66870249 0 5267.08742754 0 -76.36466558 0 901.23960866 0 15270
0.12050000 0.12050700 13687.20250592 0 133.83303710 0 4792.90548442 0 -149.74779560 0 1446.59154437 0 15999
0.12150000 0.12150000 13237.23264573 0 139.74908155 0 5359.24418299 0 -113.24666644 0 697.30466125 0 15670
0.12250000 0.12250700 13363.56137897 0 194.15029346 0 5368.15041414 0 -492.30717718 0 1270.92916710 0 16887
0.12350000 0.12352200 13112.90032794 0 -154.27078571 0 4930.24777623 0 639.39530375 0 420.56820620 0 16407
0.12450000 0.12449800 13480.68441875 0 -62.81632486 0 5234.95622999 0 979.79301105 0 1854.17084982 0 16306
0.12550000 0.12549900 13392.62031498 0 -14.75861213 0 3791.04875528 0 685.02781535 0 1150.53422423 0 17523
0.12650000 0.12650100 13444.19438079 0 103.54231276 0 4085.52003426 0 144.53715127 0 1740.88536419 0 17154
0.12750000 0.12750600 13022.28524888 0 205.61193639 0 3179.11414606 0 181.27785028 0 1539.79087232 0 18007
0.12850000 0.12850300 12767.63136695 0 268.54338787 0 3717.92449380 0 41.01435902 0 1890.47233743 0 17496
0.12950000 0.12949900 12420.14416656 0 134.86230017 0 3397.94346185 0 -227.79211204 0 823.69106872 0 18405
0.13050000 0.13049000 12359.80805516 0 206.17869655 0 3624.70298345 0 -176.46094345 0 848.21370517 0 18100
0.13150000 0.13148800 11945.21911324 0 117.81402134 0 3616.14057941 0 -261.90197914 0 201.61245077 0 19059
0.13250000 0.13249300 12063.00762483 0 -6.38431479 0 3438.17123318 0 292.25636694 0 -42.49691931 0 18957
0.13350000 0.13349100 12115.80172230 0 -67.04029631 0 2952.53208360 0 288.11935048 0 -621.25565114 0 19468
0.13450000 0.13450700 12013.42997447 0 39.13795032 0 3120.74117652 0 -55.70265296 0 -367.00659790 0 19953
0.13550000 0.13551000 12167.26487614 0 182.03426991 0 2995.58811015 0 -86.58165438 0 -533.76385313 0 19956
0.13650000 0.13649900 11789.83144399 0 95.11732864 0 2976.88835210 0 63.56642251 0 -501.99201036 0 19723
0.13750000 0.13749600 11547.93243855 0 221.75295530 0 3544.32507917 0 -97.47454073 0 -794.68093398 0 20946
0.13850000 0.13851100 11443.89701118 0 224.22518310 0 3062.68985169 0 130.09308548 0 -114.41124212 0 20955
0.13950000 0.13949800 11092.63880383 0 138.14862183 0 3330.00988054 0 323.49694139 0 312.13622835 0 20506
0.14050000 0.14048300 11252.46295185 0 -64.07473207 0 2936.21693289 0 386.54374132 0 509.31109122 0 21447
0.14150000 0.14148400 10980.16297557 0 29.23683880 0 3044.05664082 0 586.03888259 0 875.33500907 0 21771
0.14250000 0.14249400 11188.35583349 0 17.57644163 0 2414.96394992 0 140.43895400 0 1351.34034497 0 22470
0.14350000 0.14350900 11083.37765437 0 12.40506014 0 2568.05574139 0 86.69478459 0 1247.01654648 0 22519
0.14450000 0.14449900 11059.38739538 0 143.24169947 0 2835.17612869 0 -76.55643238 0 1627.63315215 0 22218
0.14550000 0.14550500 10984.05598570 0 59.06029101 0 2745.96963164 0 33.79776081 0 1460.32244619 0 23559
0.14650000 0.14650700 10884.96723217 0 123.12559556 0 2867.57351498 0 50.32386609 0 1374.27694026 0 23044
0.14750000 0.14750500 10842.32157990 0 -1.86386456 0 2880.60567139 0 139.70138940 0 1800.94419566 0 23649
0.14850000 0.14849900 10642.28075174 0 105.28507253 0 2847.63154287 0 202.51305596 0 1709.15344972 0 23640
0.14950000 0.14949500 10774.97583203 0 26.39194679 0 2427.38609050 0 538.64841627 0 2260.47466762 0 24457
0.15050000 0.15050000 10633.41888538 0 101.25242424 0 2621.39330752 0 -100.65483054 0 1610.88544476 0 24591
0.15150000 0.15149900 10388.48089198 0 285.02268830 0 2490.56154831 0 -27.62007502 0 2136.83000404 0 25020
0.15250000 0.15250500 9935.11712552 0 350.10361375 0 3056.88915569 0 -453.43475012 0 1749.37012986 0 25297
0.15350000 0.15350100 9629.06663693 0 225.49845251 0 3158.58434051 0 -249.51754862 0 1684.93027559 0 25452
0.15450000 0.15450400 9364.08685064 0 183.71569537 0 3590.23154334 0 -169.42579722 0 1524.82884764 0 26061
0.15550000 0.15549900 9381.30038831 0 23.35728439 0 3253.93536067 0 118.57931393 0 1533.12506296 0 26128
0.15650000 0.15649500 9233.18854426 0 -101.62353569 0 3207.33015109 0 606.89366021 0 1554.00978681 0 26331
0.15750000 0.15749700 9424.72242436 0 85.94601789 0 3063.59932984 0 138.84958548 0 1302.40598404 0 27345
0.15850000 0.15849900 9313.79936368 0 153.61973245 0 2828.43268095 0 163.66835689 0 1834.73907277 0 26980
0.15950000 0.15949700 9023.73128989 0 140.17941999 0 2955.62652755 0 -342.79118760 0 1373.02363501 0 27777
0.16050000 0.16050000 8987.37434630 0 89.38173797 0 3171.39467298 0 -8.96050038 0 1962.75366794 0 28224
0.16150000 0.16150500 8876.93929828 0 -19.08761721 0 2991.22926975 0 319.36547053 0 1246.82799613 0 28075
0.16250000 0.16249700 8910.15743314 0 -10.52225182 0 2736.06519276 0 198.24516337 0 1233.26346226 0 28590
0.16350000 0.16349900 9026.85900743 0 -73.03608646 0 2437.11307022 0 223.81813618 0 1234.50567632 0 29163
0.16450000 0.16449100 9020.28192764 0 -28.86550553 0 2147.76592424 0 111.68502591 0 774.44504515 0 28996
0.16550000 0.16550500 8945.20561550 0 60.75413861 0 1925.93089407 0 3.85608753 0 864.12069983 0 30777
0.16650000 0.16650700 8911.14454967 0 158.00740996 0 1802.31950409 0 25.41259410 0 322.80485070 0 29211
0.16750000 0.16749900 8798.83508937 0 104.85440136 0 1919.87510054 0 -137.17148738 0 807.87613099 0 30922
0.16850000 0.16850800 8562.34858804 0 163.88685347 0 2216.26515659 0 -79.12670636 0 302.40813951 0 30867
0.16950000 0.16949900 8386.49766043 0 197.36784969 0 2073.04453040 0 -57.04502053 0 307.96150182 0 30852
0.17050000 0.17049200 8207.31937373 0 128.08225148 0 2286.23951813 0 -71.90223340 0 310.08657516 0 31257
0.17150000 0.17149500 8043.70203635 0 72.11584985 0 2323.37284552 0 2.94230600 0 228.33336245 0 32608
0.17250000 0.17250900 8087.51226430 0 22.33478694 0 2288.92358780 0 205.91694430 0 840.15705971 0 32361
0.17350000 0.17350400 7947.25298769 0 87.96328479 0 2141.39957719 0 186.31990841 0 310.90399637 0 32508
0.17450000 0.17449800 8022.58439736 0 35.52210920 0 2224.50591592 0 -104.06548452 0 869.87592193 0 32791
0.17550000 0.17549800 7900.07103587 0 40.04942488 0 2082.68278054 0 207.23125114 0 402.70583351 0 33633
0.17650000 0.17650100 7799.36296758 0 87.64740750 0 2377.10969473 0 -125.76197308 0 960.63075008 0 33984
0.17750000 0.17750300 7760.57705185 0 48.90596747 0 2146.93408446 0 55.82898169 0 494.60083671 0 34069
0.17850000 0.17849800 7873.61853115 0 -21.00362148 0 2275.49214829 0 149.92525475 0 841.20295958 0 34536
