### header ###
fiducial parameters:
Omega_m = 0.31
Omega_nu = 0
Omega_de = 0.69
Omega_k = 0
H_0 = 100
w_de = -1
zeff = 0
beta = 0
fgrowth = 0
b_1 = 2
gamma = 0.55
Lx = 3500 Ly = 3500 Lz = 3500
nx = 700 ny = 700 nz = 700
xoffset = 1379.75464 yoffset = 22.6059522 zoffset = 368.141391
bins = 400 dk = 0.001
kx_ny = 0.628318531 ky_ny = 0.628318531 kz_ny = 0.628318531
############################
A(data) = 3.39316609 (not used)
A(ran) = 3.39715623 (used)
Ngal = 190554
weighted Ngal = 0
Nran = 9399747
weighted Nran = 0
SN(data) = 6541.37242
SN(ran) = 135.12319
SN(data+ran) = 6676.49561
############################
13 columns: k_central k_mean P_0(k) sigma^{lin}_{P_0(k)} P^img_1(k) sigma^{lin}_{P_1(k)} P_2(k) sigma^{lin}_{P_2(k)} P^img_3(k) sigma^{lin}_{P_3(k)} P_4(k) sigma^{lin}_{P_4(k)} N_modes
### header ###
0.00050000 0 0 0 0 0 0 0 0 0 0 0 0
0.00150000 0.00179520 33640.15490381 0 -645.98458386 0 25692.86864253 0 -8977.37008665 0 164725.34795531 0 3
0.00250000 0.00253879 27306.19415062 0 3100.48865089 0 6898.08121237 0 19661.58665405 0 -39382.06756390 0 6
0.00350000 0.00331552 29258.79937335 0 2054.41131952 0 32113.89529176 0 5540.40779394 0 25563.21255020 0 7
0.00450000 0.00420575 26072.74213800 0 994.73063510 0 21939.94033116 0 16412.86415595 0 -4729.39729069 0 24
0.00550000 0.00557378 38332.17486078 0 -3268.80865578 0 26496.20403749 0 22385.03006469 0 25703.18345569 0 45
0.00650000 0.00659388 33990.74763934 0 -7960.08550256 0 -1136.81441360 0 3044.97721017 0 -27672.98003369 0 40
0.00750000 0.00754703 47079.58006991 0 1039.00003860 0 42434.58678799 0 -11128.57428194 0 36216.52904291 0 57
0.00850000 0.00846663 48293.17883998 0 5783.21627753 0 16169.07964703 0 -1219.63238121 0 -13262.63148675 0 75
0.00950000 0.00948925 40106.65546053 0 3061.56964080 0 48536.18696512 0 2299.00548582 0 18862.90956181 0 112
0.01050000 0.01054430 51704.72010929 0 -2271.35513183 0 38245.77443656 0 13057.11160730 0 6349.36642575 0 105
0.01150000 0.01145670 49677.69295503 0 -2662.14236510 0 41365.17357824 0 13529.92933320 0 -7714.91459402 0 144
0.01250000 0.01249090 55311.35553291 0 5758.49399953 0 48538.73794041 0 -15264.14888802 0 -6759.18615299 0 169
0.01350000 0.01339930 52158.90462431 0 4645.03764670 0 47096.99324912 0 -5638.59816052 0 -13749.53503277 0 180
0.01450000 0.01448870 50251.10783725 0 -4645.29274423 0 55331.09786348 0 11701.76734022 0 3637.32476558 0 267
0.01550000 0.01550050 56163.82493035 0 -3936.99781592 0 45642.05003345 0 924.79065626 0 -28121.06439040 0 238
0.01650000 0.01653350 70536.57431964 0 -2734.82297870 0 48885.55966899 0 7128.87792967 0 -15026.13180151 0 315
0.01750000 0.01747870 66058.72537574 0 1265.94921967 0 47931.05125962 0 -1878.81548944 0 -23241.27046909 0 297
0.01850000 0.01844180 71307.07977163 0 2194.18258346 0 49084.42483027 0 5563.48857479 0 6337.39902424 0 388
0.01950000 0.01947590 70482.00563066 0 -6451.69380880 0 44875.09376448 0 11856.93318553 0 -11922.26033555 0 399
0.02050000 0.02045430 76491.65978508 0 -712.62049512 0 43440.89108710 0 6138.36749501 0 -8471.97751531 0 462
0.02150000 0.02154770 76613.99568742 0 2895.71188164 0 41654.43199465 0 2014.12809221 0 -1198.83638694 0 571
0.02250000 0.02255340 75824.96793652 0 2593.22166727 0 49316.00902255 0 4576.92660624 0 10887.41838669 0 510
0.02350000 0.02348930 73043.07391797 0 2015.03757036 0 43276.40863636 0 609.24721220 0 9509.05988595 0 555
0.02450000 0.02439640 72629.70500771 0 2770.45899450 0 43754.55013680 0 7873.50761918 0 -1430.68676794 0 592
0.02550000 0.02547300 71519.69801713 0 237.25844864 0 45245.98339043 0 8054.47158859 0 19938.09019397 0 837
0.02650000 0.02652900 66764.12550164 0 3120.67462934 0 47992.71831465 0 1146.96285881 0 9111.35174578 0 723
0.02750000 0.02749970 66814.70135973 0 4163.71297274 0 45013.95555027 0 571.21217051 0 16827.78583378 0 826
0.02850000 0.02848090 62553.24166828 0 696.68466335 0 50555.11754560 0 2587.77588957 0 10418.13875262 0 831
0.02950000 0.02946900 61752.34633665 0 -67.28319352 0 47772.33623129 0 11551.59253354 0 12195.43651639 0 996
0.03050000 0.03053250 64078.72489654 0 -728.52859890 0 42835.64446964 0 5468.04882505 0 14135.39777460 0 1041
0.03150000 0.03150510 62847.49112332 0 -209.11786374 0 39523.14758908 0 5209.49084179 0 4841.88421014 0 1036
0.03250000 0.03246190 63708.16800650 0 1445.53788066 0 36024.76224767 0 684.43887279 0 15096.56090213 0 1059
0.03350000 0.03345080 61938.01297356 0 1570.40257590 0 36173.05155087 0 3000.53478399 0 11936.67889159 0 1302
0.03450000 0.03451200 58242.98071026 0 1135.86057066 0 33650.80245288 0 5612.10129101 0 10274.47447855 0 1339
0.03550000 0.03553350 59004.28046879 0 -401.34827101 0 29877.90998700 0 5333.36842051 0 8979.54396125 0 1365
0.03650000 0.03647120 58070.29077378 0 -171.26693592 0 26052.44524759 0 1884.28344953 0 2615.25987560 0 1308
0.03750000 0.03744890 57850.68507420 0 1971.52680473 0 25815.09363290 0 1829.13801831 0 6105.24918092 0 1579
0.03850000 0.03847530 55627.56555790 0 2229.66332250 0 22203.24534671 0 -2299.00548582 0 6850.74398380 0 1662
0.03950000 0.03950240 51664.90271224 0 2130.31947144 0 23925.37549686 0 1829.55948379 0 2392.99228876 0 1683
0.04050000 0.04050350 48595.96851667 0 1373.83329239 0 20579.27228955 0 6009.78724879 0 999.23255194 0 1822
0.04150000 0.04152450 47980.85073392 0 -26.03048468 0 20494.42463290 0 4827.59874847 0 8499.02894467 0 1887
0.04250000 0.04250150 46838.01380037 0 878.88419209 0 16349.64433334 0 4558.70376966 0 7859.96526771 0 1920
0.04350000 0.04349210 45181.76536010 0 745.28961573 0 14475.34296106 0 4133.35636669 0 11822.21773908 0 2005
0.04450000 0.04448520 43870.67496885 0 358.52959607 0 10351.61375332 0 610.05132398 0 12282.94606031 0 2151
0.04550000 0.04548030 43040.49887727 0 415.96314123 0 10134.82521777 0 2652.70375650 0 12923.90633195 0 2274
0.04650000 0.04648670 43108.15517866 0 1016.57807485 0 11071.97590391 0 -501.36757597 0 11803.36270427 0 2311
0.04750000 0.04749250 40792.64599178 0 2015.78068055 0 11448.44440192 0 -1678.51956375 0 10536.70364799 0 2568
0.04850000 0.04851840 38308.88334719 0 1200.77734640 0 13148.05942227 0 -2317.18395762 0 8022.63985335 0 2493
0.04950000 0.04949480 38555.88430323 0 539.71095294 0 14707.92536107 0 271.40713492 0 6280.91155819 0 2644
0.05050000 0.05050630 37635.31495653 0 374.71719802 0 15917.19856433 0 287.73892243 0 3579.51744708 0 2829
0.05150000 0.05149060 36668.38440658 0 132.63629694 0 13690.97351289 0 -824.67042141 0 3404.09907615 0 2784
0.05250000 0.05249300 37586.40277798 0 -72.06516308 0 16888.78741700 0 -629.02170724 0 498.24540403 0 3055
0.05350000 0.05348950 38206.40068739 0 468.22375213 0 15656.55543605 0 -1055.23311445 0 -1077.82477351 0 3009
0.05450000 0.05448610 37511.64811055 0 279.04231490 0 15839.33836176 0 86.69090267 0 -2495.96296123 0 3336
0.05550000 0.05550870 36098.18597147 0 1548.28672918 0 17067.35568786 0 -3248.16793826 0 -3240.98084263 0 3349
0.05650000 0.05647670 34834.01134331 0 1061.35545516 0 18768.19073987 0 -716.37708353 0 -4890.72984150 0 3324
0.05750000 0.05747970 34781.43906978 0 345.64606169 0 20632.73185884 0 1041.25820629 0 -5125.18665379 0 3639
0.05850000 0.05849280 34263.14743639 0 -425.57033602 0 18308.46062637 0 2481.68859076 0 -6287.66609713 0 3846
0.05950000 0.05951020 34903.44223621 0 61.75234634 0 17313.69117208 0 1644.61377468 0 -850.71255184 0 3787
0.06050000 0.06049470 34156.67194569 0 61.69700126 0 14260.50647618 0 1403.55770021 0 -3623.40531341 0 3930
0.06150000 0.06148310 34245.51243324 0 -43.72493664 0 16497.48998866 0 2206.20544096 0 1170.12127804 0 4083
0.06250000 0.06249100 33863.08796247 0 -75.12333882 0 12943.09410267 0 3072.01754832 0 -675.32412714 0 4303
0.06350000 0.06350600 35149.99954437 0 94.52173137 0 12996.77549590 0 497.86386685 0 1317.91147737 0 4470
0.06450000 0.06451750 32750.52999659 0 857.31957787 0 11149.09299629 0 -1077.58853102 0 -983.41983245 0 4479
0.06550000 0.06550280 31993.55580487 0 1915.32770979 0 13794.34346844 0 -2147.21136439 0 625.36161225 0 4636
0.06650000 0.06648880 30731.26668020 0 974.50251010 0 16142.57168632 0 -1061.41978411 0 -2135.02213894 0 4653
0.06750000 0.06749660 29311.03891098 0 345.58616923 0 15346.66739332 0 662.72120005 0 -2472.83781559 0 5220
0.06850000 0.06852730 29298.72768236 0 375.82742683 0 14607.21729278 0 1389.07259699 0 -1394.55164828 0 5029
0.06950000 0.06949320 27872.39975482 0 349.83631590 0 13549.11710392 0 1310.16982190 0 -2272.95226419 0 5040
0.07050000 0.07048030 28654.55096361 0 -123.05350278 0 11237.37892400 0 2737.66232512 0 1571.66697235 0 5475
0.07150000 0.07148790 28288.98511220 0 -629.91565772 0 11969.50883455 0 2280.27245418 0 -13.19597339 0 5509
0.07250000 0.07249820 28996.49256552 0 -38.16669420 0 8063.71055564 0 1732.28968656 0 2133.13663546 0 5916
0.07350000 0.07351270 28593.43846843 0 367.51457472 0 8788.45372903 0 190.42476040 0 1327.97119300 0 5721
0.07450000 0.07449140 27367.75029368 0 454.66920034 0 7392.80405225 0 -1109.18624200 0 1658.58868283 0 6028
0.07550000 0.07549160 27742.74366250 0 333.24832175 0 9973.86976766 0 -165.82226733 0 1289.10763890 0 6183
0.07650000 0.07648840 26773.37304922 0 499.08389852 0 10192.57708028 0 -574.58389438 0 62.58230060 0 6330
0.07750000 0.07749960 26918.55681728 0 461.82302237 0 8833.23998231 0 -187.26820575 0 -650.25913116 0 6583
0.07850000 0.07848650 26393.61046572 0 86.65507811 0 10123.42346731 0 -597.12009746 0 -1510.69866273 0 6549
0.07950000 0.07947320 26012.51693857 0 511.53265797 0 9838.84553601 0 -96.28645171 0 -1004.98001020 0 6828
0.08050000 0.08048110 25534.04270223 0 421.92909606 0 11601.61383178 0 -61.80491861 0 -2536.87838677 0 7147
0.08150000 0.08149960 25063.22139178 0 249.23472310 0 9632.30526644 0 545.94087826 0 -2138.74878112 0 7386
0.08250000 0.08250610 24423.03750393 0 290.92542331 0 10180.14384850 0 1265.07301511 0 -2712.58512882 0 7227
0.08350000 0.08350160 24278.07555981 0 220.74809286 0 9366.39381961 0 654.19872432 0 -268.33487337 0 7798
0.08450000 0.08449610 23564.35703619 0 964.39842968 0 9579.82172248 0 -71.54420956 0 375.17193709 0 7371
0.08550000 0.08548940 22672.73571353 0 405.45977772 0 9285.72754420 0 1375.81861664 0 -767.31340551 0 8256
0.08650000 0.08650700 22093.88614480 0 144.48169529 0 8439.80195296 0 277.46847405 0 349.54018094 0 8037
0.08750000 0.08749060 21563.28328280 0 407.97637030 0 8937.80778713 0 -171.36564757 0 53.40333692 0 8155
0.08850000 0.08849210 21301.08738694 0 413.29349012 0 9132.84648547 0 -685.39493397 0 -69.74732474 0 8718
0.08950000 0.08949900 20975.11710863 0 99.30026266 0 9380.21345101 0 278.41011667 0 653.70516605 0 8571
0.09050000 0.09049190 20843.57551283 0 57.85489973 0 8815.52734078 0 156.87499876 0 -2296.50996651 0 8932
0.09150000 0.09150830 20885.94388517 0 248.71010949 0 8809.34954408 0 -197.43994247 0 -245.53248156 0 9285
0.09250000 0.09250820 20673.88019952 0 131.28206180 0 9165.67642844 0 420.64140810 0 -2550.66474458 0 9204
0.09350000 0.09350330 20293.23032025 0 49.46230191 0 8432.02702390 0 836.20304800 0 -1025.64845571 0 9349
0.09450000 0.09448040 20135.73532359 0 325.98913334 0 6927.40633710 0 702.46317696 0 -2611.59978061 0 9564
0.09550000 0.09549270 19796.89925682 0 566.74241814 0 8102.52974496 0 -324.90330516 0 -243.30647833 0 10155
0.09650000 0.09649430 18910.49079672 0 575.33920489 0 8190.40529838 0 -134.40534286 0 -1282.18673200 0 9913
0.09750000 0.09749140 18105.71354616 0 523.20059716 0 7940.97537022 0 316.73907509 0 -1127.83054407 0 10476
0.09850000 0.09850240 17530.30224848 0 144.68910067 0 7536.63469427 0 218.04405904 0 -1206.67786318 0 10575
0.09950000 0.09950330 17437.91257790 0 -160.45745537 0 6937.00022246 0 940.13310900 0 -1128.42946871 0 10882
0.10050000 0.10051200 17807.80399613 0 -113.90215618 0 6799.61356587 0 593.71953648 0 -1034.39275538 0 10875
0.10150000 0.10150300 17496.69592173 0 294.23947296 0 6174.32515552 0 -159.45037469 0 -2051.48324353 0 11118
0.10250000 0.10250800 17189.02611839 0 482.02896497 0 6403.59128763 0 -551.39996540 0 -971.12856799 0 11575
0.10350000 0.10349800 16825.78941833 0 166.25260578 0 7033.27181197 0 -133.31396908 0 -1896.96068765 0 11364
0.10450000 0.10450100 16752.14387060 0 -6.96402947 0 7128.20136665 0 497.63871555 0 -998.12454136 0 12093
0.10550000 0.10551000 16811.59268624 0 192.47774096 0 6989.43940163 0 101.83205019 0 -2430.60253761 0 12067
0.10650000 0.10649700 16378.70326935 0 177.58559082 0 6433.07168912 0 265.84600877 0 -1052.02443117 0 12054
0.10750000 0.10749900 16110.85086305 0 -36.90817608 0 6104.21769961 0 1222.23881250 0 -395.96016753 0 12807
0.10850000 0.10850100 16231.07943797 0 7.63933918 0 5826.81577273 0 714.61912881 0 -243.20998492 0 12736
0.10950000 0.10950300 15941.71010959 0 243.42071766 0 5341.60917984 0 429.61307731 0 -418.41096839 0 12933
0.11050000 0.11050200 15579.24979332 0 496.09038446 0 5370.85666619 0 -269.14896722 0 652.43522400 0 13428
0.11150000 0.11150900 15126.83986980 0 183.77447871 0 5019.84246517 0 127.39016079 0 619.78495842 0 13453
0.11250000 0.11250000 14895.58841343 0 147.29885931 0 5794.67348398 0 332.47970180 0 568.59353891 0 13668
0.11350000 0.11349100 14896.36479722 0 138.84958548 0 5374.81622350 0 -126.42633577 0 1200.88825837 0 13791
0.11450000 0.11448600 14632.39430985 0 87.82331388 0 5838.15097601 0 405.89122528 0 1015.38466205 0 14205
0.11550000 0.11549300 14485.10321438 0 261.71675615 0 5346.09002341 0 -169.37588684 0 1235.63697841 0 14776
0.11650000 0.11649800 14312.30236593 0 102.10278631 0 6639.42340834 0 -91.56870018 0 1301.00849322 0 14553
0.11750000 0.11747300 14278.36330326 0 33.70304199 0 5451.53403279 0 353.81140089 0 1415.54728411 0 14568
0.11850000 0.11849100 14387.16794533 0 62.80578822 0 5858.66969037 0 23.64088630 0 1701.32306468 0 16015
0.11950000 0.11950300 14115.98817994 0 176.43654281 0 6068.96987570 0 166.23042338 0 577.12599672 0 15270
0.12050000 0.12050700 13911.24468428 0 305.26523185 0 5900.62768842 0 -314.93453734 0 1585.09841186 0 15999
0.12150000 0.12150000 13419.46101159 0 235.53265839 0 5413.70196000 0 310.14314026 0 477.98067808 0 15670
0.12250000 0.12250700 13665.68558384 0 -148.53552777 0 5801.84948840 0 446.30421960 0 1589.71234979 0 16887
0.12350000 0.12352200 13616.66249333 0 -136.91528073 0 4728.99800760 0 640.58982566 0 187.50555737 0 16407
0.12450000 0.12449800 13560.54103677 0 88.69718929 0 5033.25172229 0 272.44859831 0 743.20890718 0 16306
0.12550000 0.12549900 13553.10993482 0 197.97564729 0 4437.35498385 0 -575.63312161 0 516.82204979 0 17523
0.12650000 0.12650100 13182.10939690 0 113.22004757 0 5001.24252789 0 330.21155202 0 120.61898505 0 17154
0.12750000 0.12750600 13334.16970706 0 3.28885045 0 4601.03886841 0 231.52540894 0 836.42819929 0 18007
0.12850000 0.12850300 13315.53649619 0 -22.15788235 0 3970.63741627 0 400.65174384 0 -180.87967631 0 17496
0.12950000 0.12949900 13206.62094216 0 34.51480670 0 4123.45192782 0 290.90989564 0 453.74974011 0 18405
0.13050000 0.13049000 13018.29241798 0 258.28181245 0 4219.25768706 0 -55.58774816 0 476.44232907 0 18100
0.13150000 0.13148800 12987.23706652 0 33.42798031 0 4300.26778957 0 -53.17463644 0 516.30187266 0 19059
0.13250000 0.13249300 12708.40437524 0 45.13806604 0 3828.09335309 0 418.55959043 0 264.78014474 0 18957
0.13350000 0.13349100 13047.57317792 0 -5.02680774 0 3796.68308333 0 -52.84123506 0 222.87316620 0 19468
0.13450000 0.13450700 12780.05350753 0 130.61880822 0 3789.82872362 0 86.50401601 0 377.82273316 0 19953
0.13550000 0.13551000 12691.76757982 0 294.48458841 0 4182.07999489 0 -235.30639797 0 417.11551659 0 19956
0.13650000 0.13649900 12319.43609827 0 144.88319661 0 3594.36855980 0 80.05004850 0 400.82143915 0 19723
0.13750000 0.13749600 12187.78359049 0 143.57332626 0 4576.62714393 0 -37.11203228 0 246.63051006 0 20946
0.13850000 0.13851100 12011.65538296 0 264.35091542 0 4256.65720317 0 -274.75889464 0 399.73117449 0 20955
0.13950000 0.13949800 11919.15480041 0 -10.24469461 0 4352.66260395 0 585.33680982 0 390.61310148 0 20506
0.14050000 0.14048300 11699.21636492 0 101.76306294 0 4520.33931941 0 178.90987973 0 1017.58182817 0 21447
0.14150000 0.14148400 11695.11262205 0 -77.11121405 0 3794.24302000 0 675.28974443 0 1122.90605263 0 21771
0.14250000 0.14249400 11785.06222930 0 -143.04427616 0 3577.23266051 0 866.83138837 0 1398.82175911 0 22470
0.14350000 0.14350900 11901.51979726 0 158.71613745 0 2879.85147000 0 -253.60465470 0 1139.65376002 0 22519
0.14450000 0.14449900 11518.87350255 0 277.64926056 0 2947.49668019 0 -92.65752298 0 1253.63799106 0 22218
0.14550000 0.14550500 11140.55277464 0 374.82145527 0 3857.90649049 0 -431.41539681 0 1373.77783640 0 23559
0.14650000 0.14650700 10864.53724739 0 207.23457850 0 3063.94315695 0 -24.58164162 0 767.26904072 0 23044
0.14750000 0.14750500 10693.48880805 0 -45.13263136 0 3385.99824273 0 632.30691978 0 1081.79985850 0 23649
0.14850000 0.14849900 10466.95111039 0 107.48268230 0 2867.62897096 0 218.58641858 0 790.28216527 0 23640
0.14950000 0.14949500 10472.15288175 0 109.85120741 0 2859.82076831 0 266.50593499 0 1140.61869416 0 24457
0.15050000 0.15050000 10321.91152789 0 152.30875297 0 2987.26971244 0 105.82643386 0 1051.28021186 0 24591
0.15150000 0.15149900 10192.73235704 0 42.67759491 0 2333.35492277 0 -80.75955237 0 1339.35076107 0 25020
0.15250000 0.15250500 10200.51837730 0 76.90159042 0 2735.63263608 0 -162.85869951 0 818.78986879 0 25297
0.15350000 0.15350100 10026.55295316 0 142.94445539 0 2716.54468613 0 -125.97048758 0 736.08503138 0 25452
0.15450000 0.15450400 9955.21437439 0 126.36533419 0 3033.56436851 0 -67.74236907 0 664.77861708 0 26061
0.15550000 0.15549900 9876.17850494 0 29.71742037 0 3120.13116069 0 -0.06953593 0 1196.79560670 0 26128
0.15650000 0.15649500 9821.63199835 0 -11.93468248 0 2808.18015532 0 491.58403114 0 735.16113468 0 26331
0.15750000 0.15749700 9958.89665178 0 -78.23674871 0 2498.61375730 0 334.57815626 0 548.59167433 0 27345
0.15850000 0.15849900 9788.60241384 0 73.72540435 0 2555.45614166 0 131.92313298 0 930.30409026 0 26980
0.15950000 0.15949700 9713.99193196 0 336.25403612 0 2821.50068286 0 -522.13806049 0 437.20500162 0 27777
0.16050000 0.16050000 9331.25690768 0 261.59253474 0 2523.46912966 0 -408.60524117 0 216.37372478 0 28224
0.16150000 0.16150500 8953.82347553 0 243.98858695 0 3141.07134052 0 -268.45909477 0 -332.53626690 0 28075
0.16250000 0.16249700 8845.36266057 0 98.42461266 0 2939.25592085 0 37.42103303 0 -520.22593814 0 28590
0.16350000 0.16349900 8841.90220712 0 14.49175793 0 3166.38145196 0 254.32225514 0 -2.86553273 0 29163
0.16450000 0.16449100 8744.00021166 0 -15.05241794 0 2698.36621434 0 245.29069347 0 -557.47128661 0 28996
0.16550000 0.16550500 8692.88088493 0 135.83832550 0 2875.60354157 0 165.67031794 0 300.11226174 0 30777
0.16650000 0.16650700 8628.70721938 0 75.14108473 0 2655.90911242 0 152.58159642 0 234.03201945 0 29211
0.16750000 0.16749900 8539.21235121 0 51.75052675 0 3091.95952044 0 130.81512241 0 629.05941731 0 30922
0.16850000 0.16850800 8505.65038924 0 65.17852799 0 2772.86578424 0 181.58729468 0 921.23814588 0 30867
0.16950000 0.16949900 8369.97177698 0 66.71454785 0 2800.92651252 0 225.91437240 0 1181.72267005 0 30852
0.17050000 0.17049200 8343.43054268 0 21.47721559 0 2711.02127005 0 353.47422850 0 1498.77562601 0 31257
0.17150000 0.17149500 8312.38628242 0 57.95083858 0 2523.49131205 0 285.53953807 0 1406.08649311 0 32608
0.17250000 0.17250900 8062.10233209 0 144.06022980 0 2319.41328821 0 -30.30603019 0 1539.76868993 0 32361
0.17350000 0.17350400 8089.33122060 0 174.78173623 0 2153.03424279 0 15.41676376 0 1252.05194989 0 32508
0.17450000 0.17449800 7633.77139714 0 217.40742434 0 2285.29676639 0 -196.94527509 0 1190.21852691 0 32791
0.17550000 0.17549800 7514.13065566 0 176.73378689 0 2377.63098099 0 -98.07169078 0 1278.89264651 0 33633
0.17650000 0.17650100 7309.10988008 0 2.20836822 0 2067.74293825 0 175.83761818 0 809.48768191 0 33984
0.17750000 0.17750300 7383.34326125 0 16.76434419 0 1894.72026586 0 212.10250484 0 861.49097704 0 34069
0.17850000 0.17849800 7356.85748294 0 -67.46852742 0 1811.52519755 0 307.77184236 0 698.79642724 0 34536
