### header ###
fiducial parameters:
Omega_m = 0.31
Omega_nu = 0
Omega_de = 0.69
Omega_k = 0
H_0 = 100
w_de = -1
zeff = 0
beta = 0
fgrowth = 0
b_1 = 2
gamma = 0.55
Lx = 3500 Ly = 3500 Lz = 3500
nx = 700 ny = 700 nz = 700
xoffset = 1379.75464 yoffset = 22.6059522 zoffset = 368.141391
bins = 400 dk = 0.001
kx_ny = 0.628318531 ky_ny = 0.628318531 kz_ny = 0.628318531
############################
A(data) = 3.31515754 (not used)
A(ran) = 3.30834514 (used)
Ngal = 185607
weighted Ngal = 0
Nran = 9399747
weighted Nran = 0
SN(data) = 6710.27149
SN(ran) = 131.590695
SN(data+ran) = 6841.86219
############################
13 columns: k_central k_mean P_0(k) sigma^{lin}_{P_0(k)} P^img_1(k) sigma^{lin}_{P_1(k)} P_2(k) sigma^{lin}_{P_2(k)} P^img_3(k) sigma^{lin}_{P_3(k)} P_4(k) sigma^{lin}_{P_4(k)} N_modes
### header ###
0.00050000 0 0 0 0 0 0 0 0 0 0 0 0
0.00150000 0.00179520 22641.34762616 0 -21875.83321280 0 -36407.07580648 0 20011.62482974 0 -107583.72310200 0 3
0.00250000 0.00253879 50687.87917307 0 -48199.90187365 0 -33158.02057247 0 624.80594328 0 22567.03660661 0 6
0.00350000 0.00331552 88742.10863833 0 -52457.59055813 0 -67854.83380953 0 -8116.34937636 0 -71097.34523734 0 7
0.00450000 0.00420575 149625.79243000 0 -44474.70155465 0 -70309.64843008 0 -30940.00300676 0 -10320.50294588 0 24
0.00550000 0.00557378 182124.10860798 0 -13045.02220262 0 -81363.24622065 0 -60289.30654721 0 5415.79819623 0 45
0.00650000 0.00659388 180891.87662704 0 21487.53040764 0 19718.81723031 0 -64682.19692249 0 -41867.05024015 0 40
0.00750000 0.00754703 176247.99246482 0 9328.66156759 0 -39563.74136991 0 -20845.35010434 0 1504.17703892 0 57
0.00850000 0.00846663 135907.09092474 0 26235.22817330 0 32104.35686239 0 -21950.03332038 0 -47699.57797931 0 75
0.00950000 0.00948925 121212.36408804 0 23396.87996228 0 14587.80769812 0 -12150.73899269 0 -2702.03740053 0 112
0.01050000 0.01054430 82573.18489573 0 6315.46063668 0 28445.81463705 0 14634.72346121 0 -920.68358603 0 105
0.01150000 0.01145670 86106.72933147 0 -3280.72060130 0 -4424.44483060 0 43591.95318954 0 9136.08511498 0 144
0.01250000 0.01249090 86265.66618373 0 -11419.94002577 0 -22442.37155291 0 33453.15732326 0 -389.59603872 0 169
0.01350000 0.01339930 99311.90841802 0 -10626.03214821 0 -53303.95979725 0 18698.87075895 0 -6841.74902307 0 180
0.01450000 0.01448870 97209.46112451 0 697.12498386 0 -59620.84010714 0 -31027.73437462 0 -5423.55094289 0 267
0.01550000 0.01550050 95808.19930208 0 14483.66135878 0 -39124.75179470 0 -44884.63219385 0 -16906.86606802 0 238
0.01650000 0.01653350 80968.73234520 0 11336.64513669 0 -18171.70616800 0 -30528.63051195 0 -5761.10043082 0 315
0.01750000 0.01747870 73043.29574191 0 985.45617621 0 21531.89519543 0 401.80522832 0 -17877.01306508 0 297
0.01850000 0.01844180 76093.92946252 0 -1854.86959523 0 3883.29424030 0 15431.07140209 0 -7490.43985898 0 388
0.01950000 0.01947590 74511.21565801 0 320.27162132 0 20107.78550728 0 9563.75057810 0 10475.87952393 0 399
0.02050000 0.02045430 73598.96470902 0 6006.29352175 0 15536.77050901 0 3664.04345903 0 33769.81099613 0 462
0.02150000 0.02154770 68036.39670357 0 3948.52156955 0 27119.97295385 0 -752.08741034 0 34709.45720158 0 571
0.02250000 0.02255340 66003.93486281 0 5972.48755345 0 38939.86154158 0 2117.62005093 0 45848.45720865 0 510
0.02350000 0.02348930 56212.07163707 0 1793.34672576 0 36663.83701583 0 -153.30141510 0 34400.78919052 0 555
0.02450000 0.02439640 56677.90190890 0 900.72386800 0 38042.69462043 0 5298.22041738 0 29605.73201389 0 592
0.02550000 0.02547300 59116.30155797 0 -1198.12655033 0 33864.41890610 0 8511.73945637 0 26049.22880047 0 837
0.02650000 0.02652900 60291.85752251 0 -755.56006411 0 32102.69318284 0 7196.12385676 0 28610.96255960 0 723
0.02750000 0.02749970 60211.77908054 0 -2235.29765055 0 27875.94893785 0 9974.42432751 0 28954.90057697 0 826
0.02850000 0.02848090 64079.05763245 0 -1591.79749481 0 16414.97148337 0 7576.82919201 0 24119.24961951 0 831
0.02950000 0.02946900 64682.64057037 0 -87.95884831 0 16564.36990626 0 1608.41210784 0 11583.53518075 0 996
0.03050000 0.03053250 63632.08239543 0 3337.49643848 0 16219.32276920 0 -5768.73117432 0 16397.55830416 0 1041
0.03150000 0.03150510 60715.43033396 0 2122.13416809 0 19745.76883889 0 -3897.23587486 0 10143.91999927 0 1036
0.03250000 0.03246190 56323.75999034 0 1944.65283452 0 19485.12571061 0 290.81118398 0 5715.17178425 0 1059
0.03350000 0.03345080 55226.39696428 0 1360.14675535 0 20400.70401868 0 879.36333180 0 567.90477558 0 1302
0.03450000 0.03451200 54176.94790904 0 1607.35844413 0 20609.77308116 0 1165.81789362 0 171.81816840 0 1339
0.03550000 0.03553350 50822.96995190 0 495.24079877 0 17721.40357190 0 1170.87547943 0 -2883.87757449 0 1365
0.03650000 0.03647120 49062.13152440 0 1394.10800041 0 19157.15901685 0 186.57944242 0 -1304.61313223 0 1308
0.03750000 0.03744890 49582.86322112 0 613.47184912 0 13088.94334254 0 2249.56092983 0 -6938.54189884 0 1579
0.03850000 0.03847530 49063.90611591 0 -347.16333744 0 12875.88144916 0 740.66347748 0 -7336.16130943 0 1662
0.03950000 0.03950240 46497.62496603 0 1591.67549165 0 10136.33362056 0 -2095.40438344 0 -7113.17279479 0 1683
0.04050000 0.04050350 45022.60668389 0 2024.93091803 0 9249.01568230 0 995.54251071 0 -11698.55089311 0 1822
0.04150000 0.04152450 43348.50141652 0 1190.44035085 0 11947.21552869 0 -104.93547801 0 -5444.49112273 0 1887
0.04250000 0.04250150 40736.41362325 0 550.91638921 0 9525.16430392 0 4504.05744229 0 -8346.41407466 0 1920
0.04350000 0.04349210 39529.91321922 0 380.33156191 0 11404.96690989 0 4022.85477150 0 1149.02582144 0 2005
0.04450000 0.04448520 40822.25948763 0 -176.10491602 0 3549.80413046 0 4509.00411613 0 3692.49237920 0 2151
0.04550000 0.04548030 38527.15810313 0 485.60143951 0 7883.55624361 0 2639.67160009 0 7941.90703076 0 2274
0.04650000 0.04648670 41012.47351529 0 -239.00531216 0 6594.04932163 0 277.32872497 0 10758.36121900 0 2311
0.04750000 0.04749250 38550.78235263 0 581.87746549 0 6668.90380983 0 -1286.19065410 0 9190.27670327 0 2568
0.04850000 0.04851840 39139.28126270 0 1047.56133352 0 11910.94731467 0 -1384.18137914 0 9569.73982446 0 2493
0.04950000 0.04949480 37685.55807870 0 1127.00979550 0 10033.32967450 0 -3372.68880639 0 6748.07277365 0 2644
0.05050000 0.05050630 37771.51485505 0 1573.41938147 0 18776.62004955 0 -3429.98592983 0 8014.74292112 0 2829
0.05150000 0.05149060 35246.49295782 0 1345.36218982 0 16001.60257311 0 274.82544182 0 5401.47946097 0 2784
0.05250000 0.05249300 34724.43031746 0 659.21194534 0 19534.70336097 0 394.26210528 0 6303.54869116 0 3055
0.05350000 0.05348950 33380.95363113 0 679.30364861 0 19182.33603392 0 -147.55284772 0 3872.14758737 0 3009
0.05450000 0.05448610 33194.17787452 0 935.73101293 0 20989.75748860 0 1090.72716292 0 5424.70442738 0 3336
0.05550000 0.05550870 33007.18029397 0 -247.79841310 0 20418.33902183 0 1589.29088430 0 7469.89896223 0 3349
0.05650000 0.05647670 32346.81042767 0 -320.61766666 0 17847.84321711 0 1883.44051857 0 2095.51529541 0 3324
0.05750000 0.05747970 33138.72188978 0 -123.76555763 0 17394.87873374 0 1691.92882086 0 6012.94823992 0 3639
0.05850000 0.05849280 32996.42183293 0 -358.43975737 0 15135.82373933 0 1470.01615232 0 2081.70675521 0 3846
0.05950000 0.05951020 32753.19188386 0 -1.61555484 0 13982.67199262 0 1267.43544006 0 4436.53423527 0 3787
0.06050000 0.06049470 34151.34817115 0 -330.31470015 0 13752.52965595 0 666.94916433 0 1498.29870454 0 3930
0.06150000 0.06148310 33725.66803228 0 188.79213621 0 12671.13795350 0 -329.94425417 0 381.61703164 0 4083
0.06250000 0.06249100 32958.04629149 0 1160.69376063 0 13189.31867492 0 -1336.28959072 0 -2484.21738366 0 4303
0.06350000 0.06350600 31461.73291121 0 1398.05646652 0 13679.54958003 0 -1673.31779238 0 -2317.98252380 0 4470
0.06450000 0.06451750 30166.94657947 0 648.33924497 0 16000.04980554 0 -934.23148310 0 -3668.57975858 0 4479
0.06550000 0.06550280 29778.31103840 0 694.60839128 0 15365.96607601 0 6.40852687 0 -5089.20681089 0 4636
0.06650000 0.06648880 28878.70405393 0 158.00408260 0 15624.72370081 0 2055.16552091 0 -4143.99282457 0 4653
0.06750000 0.06749660 28543.86081807 0 108.03258384 0 13274.38815551 0 1325.39803531 0 -2927.54361688 0 5220
0.06850000 0.06852730 27984.86449188 0 619.33687407 0 13285.70117640 0 2205.31814520 0 266.41276894 0 5029
0.06950000 0.06949320 26948.61396100 0 604.24175502 0 11442.56606754 0 1815.91731154 0 -1169.63326537 0 5040
0.07050000 0.07048030 25961.83016852 0 840.03838390 0 12243.35048720 0 706.13547226 0 2287.48173219 0 5475
0.07150000 0.07148790 25431.44913046 0 217.01368685 0 10629.67006081 0 1390.89155329 0 2193.43947327 0 5509
0.07250000 0.07249820 24781.61590126 0 163.25021876 0 9977.55204505 0 1441.66705292 0 4107.02586514 0 5916
0.07350000 0.07351270 24868.79270927 0 -558.53936888 0 9704.68641773 0 789.48692645 0 3748.78020371 0 5721
0.07450000 0.07449140 25339.50310776 0 -41.69180933 0 7655.41032239 0 1344.40834688 0 2434.58427732 0 6028
0.07550000 0.07549160 25476.47939007 0 -185.22077080 0 7941.99576034 0 507.14054398 0 3282.61719598 0 6183
0.07650000 0.07648840 25203.52503317 0 100.45951457 0 5364.24631281 0 -73.61804157 0 1683.36641682 0 6330
0.07750000 0.07749960 24971.16445711 0 487.31724767 0 8783.82869990 0 -1303.63710690 0 1724.09329201 0 6583
0.07850000 0.07848650 25054.90299407 0 267.08156811 0 7208.63472692 0 -887.87804370 0 32.98732705 0 6549
0.07950000 0.07947320 24284.39754207 0 251.32874109 0 9943.70171196 0 -510.51892257 0 -581.73327993 0 6828
0.08050000 0.08048110 24590.40366587 0 -63.17368323 0 7514.66303312 0 -576.71007684 0 -3156.66556343 0 7147
0.08150000 0.08149960 24373.34894160 0 246.12918796 0 8915.40356930 0 261.61471714 0 -3035.51641917 0 7386
0.08250000 0.08250610 24336.63707970 0 284.31728817 0 7266.09821831 0 278.52435600 0 -2477.75121584 0 7227
0.08350000 0.08350160 23555.15134273 0 374.63401404 0 7395.08883882 0 780.39547231 0 -3506.67046553 0 7798
0.08450000 0.08449610 23226.63008912 0 359.54887707 0 8008.16584133 0 431.92670099 0 -1593.81609266 0 7371
0.08550000 0.08548940 22774.55290151 0 426.09716788 0 6055.17242670 0 -145.24255140 0 -4448.76782551 0 8256
0.08650000 0.08650700 21766.80674680 0 472.34413179 0 7795.78051097 0 -457.64496848 0 -2394.47850915 0 8037
0.08750000 0.08749060 21311.84584798 0 498.91087584 0 6585.86401828 0 -0.57506303 0 -4017.78609449 0 8155
0.08850000 0.08849210 21137.60314392 0 77.58392086 0 7717.99794677 0 -99.89275440 0 -3124.75618981 0 8718
0.08950000 0.08949900 20793.33239065 0 372.05531075 0 7665.18166690 0 -153.57647678 0 -3559.47565420 0 8571
0.09050000 0.09049190 20453.05446828 0 245.54911836 0 6500.37307220 0 1374.02184273 0 -2408.55323808 0 8932
0.09150000 0.09150830 20039.57464605 0 104.64544321 0 7513.63155180 0 580.64856087 0 -2047.03567355 0 9285
0.09250000 0.09250820 19880.41596984 0 446.55266241 0 5778.66888678 0 679.81051631 0 -1252.73960410 0 9204
0.09350000 0.09350330 19187.10524861 0 473.45879709 0 7533.77316546 0 718.28144204 0 1627.98807045 0 9349
0.09450000 0.09448040 18436.12030324 0 221.61653358 0 5483.65413916 0 1080.39460385 0 1305.40060721 0 9564
0.09550000 0.09549270 18302.80411593 0 336.19525277 0 7307.37965335 0 682.68979104 0 2991.98347115 0 10155
0.09650000 0.09649430 17718.96350857 0 406.77519367 0 6022.29811895 0 -230.56269304 0 3258.71566655 0 9913
0.09750000 0.09749140 17214.64678334 0 245.96392912 0 7268.10572496 0 117.47130336 0 4414.60693891 0 10476
0.09850000 0.09850240 16907.64245181 0 418.31558410 0 7251.26928799 0 -80.94910093 0 4087.83809442 0 10575
0.09950000 0.09950330 16702.56622024 0 293.12258943 0 7305.91561535 0 177.35933040 0 3748.66929174 0 10882
0.10050000 0.10051200 16553.94418113 0 68.47560810 0 7595.58440605 0 761.58036581 0 4589.85894189 0 10875
0.10150000 0.10150300 16275.44422576 0 121.00939518 0 7035.74514889 0 64.82327695 0 3892.02301230 0 11118
0.10250000 0.10250800 16458.78171131 0 179.07070209 0 7328.30874199 0 235.37294516 0 4521.99190776 0 11575
0.10350000 0.10349800 15616.51621507 0 261.58366178 0 6630.56154198 0 -133.35611563 0 3523.75090883 0 11364
0.10450000 0.10450100 15832.90546753 0 114.62862958 0 7440.40746955 0 59.59899045 0 3737.96628669 0 12093
0.10550000 0.10551000 15338.12717167 0 -65.42031608 0 5809.41368472 0 369.07843349 0 2616.82373437 0 12067
0.10650000 0.10649700 15678.07235813 0 68.29315791 0 6340.01654672 0 469.82199361 0 2923.50642119 0 12054
0.10750000 0.10749900 15296.97883099 0 227.08893016 0 5489.87630064 0 -23.05161100 0 1261.90093278 0 12807
0.10850000 0.10850100 15331.69427744 0 150.05613087 0 5389.70060981 0 -164.88062471 0 715.61622742 0 12736
0.10950000 0.10950300 14520.70595658 0 330.82933169 0 5065.05018394 0 -364.02750240 0 -515.69962066 0 12933
0.11050000 0.11050200 14213.70162506 0 408.02184421 0 5554.61561723 0 -660.35212038 0 -1091.38598002 0 13428
0.11150000 0.11150900 13690.86260092 0 154.88191066 0 4835.67313985 0 505.41586285 0 -1458.82513460 0 13453
0.11250000 0.11250000 13818.74410173 0 -88.67334322 0 5126.32904707 0 834.72902792 0 -1927.97167431 0 13668
0.11350000 0.11349100 13841.92470335 0 20.10834007 0 3902.52637581 0 472.68906802 0 -1730.57055103 0 13791
0.11450000 0.11448600 13826.39702762 0 -188.96626801 0 3837.34341134 0 747.87386462 0 -1172.56134137 0 14205
0.11550000 0.11549300 13829.16982686 0 41.10308859 0 3129.49213091 0 72.53254612 0 -949.30552888 0 14776
0.11650000 0.11649800 13740.44025128 0 165.34423675 0 3749.43458433 0 -94.80422415 0 -930.32072706 0 14553
0.11750000 0.11747300 13672.11847807 0 241.91342400 0 3624.74734824 0 -786.44017465 0 -484.24609524 0 14568
0.11850000 0.11849100 13269.28620491 0 333.75408033 0 4658.12525910 0 -379.75925615 0 -934.07842459 0 16015
0.11950000 0.11950300 13061.21535017 0 214.88417703 0 4533.48238780 0 148.02089623 0 -1360.52385605 0 15270
0.12050000 0.12050700 12943.87048645 0 136.00025698 0 5202.07083103 0 -76.34115224 0 -300.09451583 0 15999
0.12150000 0.12150000 12798.79763037 0 102.16223512 0 4741.20941544 0 119.78936352 0 -582.86347290 0 15670
0.12250000 0.12250700 12678.01449560 0 -50.81875530 0 4757.31383341 0 839.18436174 0 58.12097754 0 16887
0.12350000 0.12352200 12658.93763685 0 -14.87196416 0 4270.18846344 0 493.63257522 0 461.22298861 0 16407
0.12450000 0.12449800 12805.00870066 0 -30.74180332 0 3448.98515020 0 540.70361506 0 472.21103743 0 16306
0.12550000 0.12549900 12682.89462226 0 36.23771323 0 3686.30349130 0 235.49827568 0 597.01362197 0 17523
0.12650000 0.12650100 12499.33531277 0 207.89117736 0 3245.83878690 0 -173.64377942 0 780.78588244 0 17154
0.12750000 0.12750600 12386.75966374 0 19.21095132 0 3590.23154334 0 254.82801372 0 937.08635720 0 18007
0.12850000 0.12850300 12528.83789665 0 2.40798759 0 3657.48856163 0 -37.67546509 0 340.14926449 0 17496
0.12950000 0.12949900 12355.14975244 0 120.06220696 0 3540.77589614 0 161.22052972 0 759.76584599 0 18405
0.13050000 0.13049000 12391.08523055 0 224.51022687 0 3427.60132248 0 -461.72652895 0 623.60920313 0 18100
0.13150000 0.13148800 12127.66930303 0 109.86806603 0 3545.42310767 0 108.37374906 0 1081.54919745 0 19059
0.13250000 0.13249300 12049.03271667 0 89.14638277 0 4297.15116323 0 116.88568816 0 1130.50352254 0 18957
0.13350000 0.13349100 11824.10324256 0 153.81937400 0 3831.75344808 0 346.91045815 0 1212.76693030 0 19468
0.13450000 0.13450700 11901.18706135 0 -185.47808657 0 3748.95766286 0 528.65192046 0 1113.50071762 0 19953
0.13550000 0.13551000 12011.32264705 0 6.78843364 0 3559.32037744 0 257.34793367 0 1693.86978033 0 19956
0.13650000 0.13649900 12034.72507261 0 6.85425989 0 3139.71821450 0 161.80836316 0 1635.54117558 0 19723
0.13750000 0.13749600 11959.30493336 0 -16.43027734 0 3109.36160845 0 88.43310789 0 1466.33387493 0 20946
0.13850000 0.13851100 11986.70018982 0 54.22375276 0 3052.29740015 0 -416.72732470 0 1279.30302080 0 20955
0.13950000 0.13949800 11812.23566183 0 246.34879366 0 2978.92913234 0 -84.49750757 0 940.12090868 0 20506
0.14050000 0.14048300 11757.22332496 0 214.67566253 0 3841.31405985 0 -216.61662200 0 1318.52149320 0 21447
0.14150000 0.14148400 11326.21941156 0 117.54783262 0 3487.92634269 0 -247.77401246 0 274.26311814 0 21771
0.14250000 0.14249400 11395.53939248 0 269.23547856 0 4079.09823122 0 46.26814810 0 702.77705783 0 22470
0.14350000 0.14350900 10917.94136069 0 210.51979103 0 3958.31509646 0 -228.98663395 0 60.95677478 0 22519
0.14450000 0.14449900 10774.54327535 0 259.10810663 0 4372.24965776 0 -80.74801753 0 812.24051699 0 22218
0.14550000 0.14550500 10599.23581639 0 140.90478427 0 4461.09014532 0 234.78289348 0 914.90839978 0 23559
0.14650000 0.14650700 10326.25927710 0 148.13402644 0 4252.26508918 0 242.41363698 0 354.75969823 0 23044
0.14750000 0.14750500 10014.94046996 0 144.38298363 0 4141.03147498 0 192.71287433 0 987.24629540 0 23649
0.14850000 0.14849900 10063.59755097 0 50.48901401 0 3945.37166962 0 305.51700202 0 527.30544915 0 23640
0.14950000 0.14949500 9869.13559488 0 -82.23922896 0 3518.59350225 0 344.78538481 0 1180.38063521 0 24457
0.15050000 0.15050000 9958.94101657 0 105.95864093 0 2971.62003355 0 322.96678217 0 295.19886150 0 24591
0.15150000 0.15149900 9721.76686103 0 123.77110322 0 3036.45917091 0 -106.59738296 0 655.63059784 0 25020
0.15250000 0.15250500 9512.06560033 0 174.37136194 0 2991.17381377 0 -181.94997682 0 -127.47667212 0 25297
0.15350000 0.15350100 9442.03578279 0 147.72476127 0 2840.26698809 0 -26.39494141 0 -189.26794856 0 25452
0.15450000 0.15450400 9166.38626504 0 135.39245939 0 2919.96832936 0 -181.72482552 0 -340.20582959 0 26061
0.15550000 0.15549900 9126.30267927 0 61.48682308 0 3021.94079410 0 146.51138433 0 -402.50951933 0 26128
0.15650000 0.15649500 8909.08158704 0 70.08405348 0 2772.68832509 0 295.87098803 0 -434.61742537 0 26331
0.15750000 0.15749700 9079.67528730 0 26.86398813 0 2978.10838376 0 178.59156238 0 -210.21145576 0 27345
0.15850000 0.15849900 8866.56902914 0 76.31586431 0 2709.03594580 0 195.87719282 0 9.01867370 0 26980
0.15950000 0.15949700 8673.17182795 0 127.77502532 0 2584.20452415 0 47.55894160 0 455.33910863 0 27777
0.16050000 0.16050000 8820.98420968 0 -43.82553380 0 2358.60957822 0 309.29577282 0 628.01795392 0 28224
0.16150000 0.16150500 8736.24746499 0 40.36652221 0 2352.60924067 0 358.63828980 0 812.08413111 0 28075
0.16250000 0.16249700 8584.60862032 0 127.89591937 0 2178.67709013 0 56.68588757 0 518.71642623 0 28590
0.16350000 0.16349900 8579.62867289 0 -24.17237645 0 2059.31362857 0 105.66616606 0 1367.13420943 0 29163
0.16450000 0.16449100 8452.50137347 0 -6.58476599 0 1666.17506155 0 106.75332519 0 121.85787175 0 28996
0.16550000 0.16550500 8755.59051247 0 -55.52896482 0 1610.84107997 0 120.00231450 0 62.36879506 0 30777
0.16650000 0.16650700 8470.83512202 0 119.92023964 0 1576.08126874 0 -307.14518973 0 -617.01659567 0 29211
0.16750000 0.16749900 8493.91590287 0 163.85912547 0 1658.91032755 0 -200.72626413 0 -118.24214155 0 30922
0.16850000 0.16850800 8199.89936297 0 173.98760653 0 1545.97976022 0 -233.29001837 0 -876.29661584 0 30867
0.16950000 0.16949900 8225.93040221 0 -5.75447899 0 1650.93575694 0 567.31028742 0 -389.15128172 0 30852
0.17050000 0.17049200 8026.53286347 0 15.12273613 0 1471.25836638 0 238.07697897 0 -240.51482406 0 31257
0.17150000 0.17149500 8078.92767786 0 54.61116827 0 1367.53349252 0 226.24378095 0 -132.14828428 0 32608
0.17250000 0.17250900 7985.87253546 0 111.76377341 0 1199.19130524 0 -28.37549645 0 356.40008626 0 32361
0.17350000 0.17350400 7847.39894156 0 158.45105784 0 1829.04928873 0 -344.86967791 0 192.45777680 0 32508
0.17450000 0.17449800 7740.35779982 0 125.39929094 0 1617.18524463 0 -62.66969924 0 274.46275968 0 32791
0.17550000 0.17549800 7658.03893607 0 55.89009419 0 2067.52111432 0 -58.13240148 0 160.00604365 0 33633
0.17650000 0.17650100 7653.34735976 0 -17.80902403 0 1737.99056179 0 0.15959456 0 281.20953478 0 33984
0.17750000 0.17750300 7708.41515261 0 -36.76698515 0 1856.99910504 0 230.01922439 0 23.21387521 0 34069
0.17850000 0.17849800 7860.50873636 0 1.52519486 0 1716.89510519 0 31.89961337 0 -174.79504566 0 34536
