### header ###
fiducial parameters:
Omega_m = 0.31
Omega_nu = 0
Omega_de = 0.69
Omega_k = 0
H_0 = 100
w_de = -1
zeff = 0
beta = 0
fgrowth = 0
b_1 = 2
gamma = 0.55
Lx = 3500 Ly = 3500 Lz = 3500
nx = 700 ny = 700 nz = 700
xoffset = 1379.75464 yoffset = 22.6059522 zoffset = 368.141391
bins = 400 dk = 0.001
kx_ny = 0.628318531 ky_ny = 0.628318531 kz_ny = 0.628318531
############################
A(data) = 3.31425153 (not used)
A(ran) = 3.30906877 (used)
Ngal = 186381
weighted Ngal = 0
Nran = 9399747
weighted Nran = 0
SN(data) = 6692.41116
SN(ran) = 131.619477
SN(data+ran) = 6824.03064
############################
13 columns: k_central k_mean P_0(k) sigma^{lin}_{P_0(k)} P^img_1(k) sigma^{lin}_{P_1(k)} P_2(k) sigma^{lin}_{P_2(k)} P^img_3(k) sigma^{lin}_{P_3(k)} P_4(k) sigma^{lin}_{P_4(k)} N_modes
### header ###
0.00050000 0 0 0 0 0 0 0 0 0 0 0 0
0.00150000 0.00179520 107744.21272184 0 -66996.70790165 0 -104088.88694362 0 89289.12647182 0 31129.32973867 0 3
0.00250000 0.00253879 171253.62647903 0 -55158.18610305 0 -32575.84364466 0 -103163.77020617 0 34000.17515675 0 6
0.00350000 0.00331552 167147.66536880 0 13153.82684468 0 -28394.35148321 0 -114517.71761009 0 264.78569034 0 7
0.00450000 0.00420575 147669.30528833 0 48539.40341223 0 15027.24092121 0 -86623.91184516 0 47858.84756749 0 24
0.00550000 0.00557378 82468.92764442 0 10115.68181184 0 48814.68692049 0 42934.35612248 0 8895.55032676 0 45
0.00650000 0.00659388 70630.73858173 0 -6289.89542772 0 28997.82350916 0 50894.28634828 0 -17883.44595931 0 40
0.00750000 0.00754703 80882.33192097 0 150.11935069 0 18058.24322322 0 -4427.28417702 0 -33851.44220567 0 57
0.00850000 0.00846663 70694.18022828 0 11500.35120364 0 12492.01512278 0 -5585.19404722 0 25147.73631252 0 75
0.00950000 0.00948925 65679.62826405 0 -5817.86517680 0 8969.75043435 0 2884.44322554 0 7034.39202287 0 112
0.01050000 0.01054430 69252.21371304 0 -2774.92874687 0 3461.62911472 0 12287.93709894 0 -5105.30013766 0 105
0.01150000 0.01145670 73954.54848318 0 1372.91272304 0 5497.79541526 0 3224.86533347 0 -16440.70306029 0 144
0.01250000 0.01249090 69818.30840527 0 2619.85163114 0 233.23899886 0 -5384.73175357 0 10367.66271531 0 169
0.01350000 0.01339930 72436.38544490 0 -4694.40456432 0 9409.57184933 0 143.56778066 0 12622.89124677 0 180
0.01450000 0.01448870 68568.66324512 0 4915.99558815 0 15735.74658226 0 -5862.89543641 0 1466.60006366 0 267
0.01550000 0.01550050 64322.06575758 0 4612.54043965 0 1471.45800792 0 -2129.29908132 0 -4590.46895772 0 238
0.01650000 0.01653350 64532.90941157 0 -2969.10233184 0 19469.93077079 0 2831.91531679 0 15554.62733610 0 315
0.01750000 0.01747870 65660.66231726 0 96.84844266 0 19570.19519120 0 3189.30695605 0 9369.03352448 0 297
0.01850000 0.01844180 67426.38087142 0 2486.79054135 0 12722.04654749 0 8470.42474774 0 10978.10001294 0 388
0.01950000 0.01947590 69104.92261757 0 -1535.96440937 0 19988.44422812 0 -2145.29258732 0 12560.66963189 0 399
0.02050000 0.02045430 65175.86609866 0 1304.34694350 0 22044.86305429 0 1219.13327735 0 10934.13450824 0 462
0.02150000 0.02154770 65404.78840367 0 4738.82480810 0 28814.48602360 0 -4966.18325434 0 10498.60538648 0 571
0.02250000 0.02255340 60184.82747196 0 6189.29827140 0 38188.87659621 0 -9621.66880857 0 4929.67103399 0 510
0.02350000 0.02348930 55096.07540014 0 4572.77849859 0 38650.49221320 0 2426.19933242 0 8960.21200497 0 555
0.02450000 0.02439640 53820.80957504 0 -40.32038283 0 45066.52782380 0 2320.50022551 0 4483.51654555 0 592
0.02550000 0.02547300 51013.07306759 0 2089.84769377 0 42681.03318418 0 4414.37402377 0 1129.42767643 0 837
0.02650000 0.02652900 50596.59862219 0 2118.10806360 0 41241.72855621 0 1982.46272492 0 489.91480600 0 723
0.02750000 0.02749970 47103.64796728 0 823.51139133 0 41222.54078549 0 2638.19647089 0 6145.94278252 0 826
0.02850000 0.02848090 48418.62027747 0 270.70284392 0 42979.60820603 0 2954.07375998 0 -2108.85800534 0 831
0.02950000 0.02946900 49060.57875683 0 -1824.96772825 0 32988.43617113 0 6512.78412159 0 554.43451689 0 996
0.03050000 0.03053250 50744.00062963 0 -1789.18752690 0 31544.69506438 0 10383.75604208 0 2209.41079687 0 1041
0.03150000 0.03150510 54201.23763036 0 -1889.75140963 0 23594.74691583 0 3033.68637167 0 -3013.01238056 0 1036
0.03250000 0.03246190 54083.44911877 0 -67.94666892 0 19593.37579282 0 1377.02755711 0 419.15962419 0 1059
0.03350000 0.03345080 54638.11987815 0 1605.80567656 0 23095.42122922 0 -1960.20269264 0 -4588.25071833 0 1302
0.03450000 0.03451200 51447.73707599 0 425.36182152 0 16825.45668242 0 960.41447174 0 -1407.84999343 0 1339
0.03550000 0.03553350 53605.64035424 0 294.27052831 0 22755.58695473 0 834.99410753 0 -9588.22884977 0 1365
0.03650000 0.03647120 48403.97989749 0 1936.01279210 0 16006.37178780 0 1033.67626406 0 -11877.45189988 0 1308
0.03750000 0.03744890 49122.91128368 0 2103.43441003 0 22536.64672697 0 -4821.33222220 0 -10532.65536111 0 1579
0.03850000 0.03847530 46590.79102040 0 -416.16389189 0 17233.16908224 0 3903.61331311 0 -9980.26938830 0 1662
0.03950000 0.03950240 46403.34979197 0 94.73035678 0 14842.12884414 0 4114.27950794 0 -10040.07312224 0 1683
0.04050000 0.04050350 47995.04746601 0 -1261.81220321 0 10117.14584984 0 4948.47061281 0 -8321.43669913 0 1822
0.04150000 0.04152450 47260.58840410 0 -517.55406879 0 3988.96007363 0 5585.78188065 0 -4135.68551805 0 1887
0.04250000 0.04250150 45822.83654370 0 1283.01857177 0 6208.66350127 0 1534.27854744 0 -5296.04654278 0 1920
0.04350000 0.04349210 43474.94106173 0 2908.47784932 0 2765.19067595 0 -2586.57804029 0 -1096.18403182 0 2005
0.04450000 0.04448520 40065.06347197 0 2818.19550616 0 8500.52625625 0 -4164.78881885 0 -3409.50048907 0 2151
0.04550000 0.04548030 37042.49047964 0 2287.79228571 0 11835.85991133 0 -2877.55559223 0 -879.12376195 0 2274
0.04650000 0.04648670 36119.92471749 0 841.22625109 0 12063.11853680 0 -684.32352435 0 -2732.09454426 0 2311
0.04750000 0.04749250 34500.94269896 0 42.63955211 0 13749.53503277 0 3766.13792694 0 -2856.98142189 0 2568
0.04850000 0.04851840 34690.71307874 0 -626.72361124 0 10992.15255947 0 1432.80518656 0 217.18005480 0 2493
0.04950000 0.04949480 35406.53892978 0 32.94628962 0 11461.31019038 0 1670.58935793 0 335.79153321 0 2644
0.05050000 0.05050630 34786.65193234 0 701.73004884 0 11456.20823979 0 -1663.44662710 0 -738.05926444 0 2829
0.05150000 0.05149060 34172.53235732 0 1374.27694026 0 11718.29322368 0 -3040.15253949 0 -2023.96598390 0 2784
0.05250000 0.05249300 33117.09405573 0 477.12221944 0 13118.77866233 0 1355.17789912 0 -1389.08368819 0 3055
0.05350000 0.05348950 33394.70671534 0 -438.67791258 0 12967.93838383 0 451.25865727 0 -1954.34654066 0 3009
0.05450000 0.05448610 33572.72042636 0 -186.20123261 0 13087.72331087 0 2350.87901395 0 -2930.40514569 0 3336
0.05550000 0.05550870 33773.80382703 0 252.99574799 0 10913.19432840 0 1139.96431354 0 10.32920954 0 3349
0.05650000 0.05647670 31787.03771770 0 673.95658256 0 9788.65786982 0 -646.07996815 0 -2117.68659811 0 3324
0.05750000 0.05747970 32601.57522157 0 361.12382704 0 12777.83526814 0 265.99795817 0 -40.46778483 0 3639
0.05850000 0.05849280 31633.20281603 0 215.16367520 0 12546.91654768 0 -1132.89922108 0 -2219.13777660 0 3846
0.05950000 0.05951020 32296.01274565 0 716.14638663 0 14684.74475945 0 -340.95559451 0 -1230.80121654 0 3787
0.06050000 0.06049470 31972.81526658 0 524.23207848 0 13562.64836420 0 -1301.16376998 0 -2714.21553478 0 3930
0.06150000 0.06148310 30234.04832101 0 806.63280781 0 15955.68501774 0 81.51697021 0 -575.51444581 0 4083
0.06250000 0.06249100 30760.10379226 0 -87.42059252 0 13759.07346215 0 2860.40860175 0 926.31458672 0 4303
0.06350000 0.06350600 30929.79910557 0 -799.14070427 0 14201.72313235 0 3385.90951316 0 1080.17167079 0 4470
0.06450000 0.06451750 31318.76738254 0 150.62621839 0 12434.56272259 0 1989.62763815 0 3845.66180905 0 4479
0.06550000 0.06550280 30577.20995459 0 507.55757298 0 12451.86498983 0 703.88950488 0 5268.59583033 0 4636
0.06650000 0.06648880 29263.67950001 0 947.97680348 0 11368.14413602 0 -2252.87719771 0 2914.88856116 0 4653
0.06750000 0.06749660 29178.27728351 0 597.98742906 0 11591.29901862 0 571.15005981 0 4232.60039699 0 5220
0.06850000 0.06852730 28332.24078030 0 29.79605695 0 14056.20662839 0 39.97156468 0 3542.18447816 0 5029
0.06950000 0.06949320 28514.58005812 0 -206.67336393 0 8996.25839505 0 1259.16140714 0 398.98140958 0 5040
0.07050000 0.07048030 29327.45388246 0 31.45441272 0 12554.23673766 0 824.32992166 0 1574.48413638 0 5475
0.07150000 0.07148790 27789.32668968 0 681.11040459 0 9426.80756938 0 -1506.15127198 0 -167.37059843 0 5509
0.07250000 0.07249820 27630.27892544 0 730.59377977 0 12298.25191210 0 -926.81812706 0 -599.19304217 0 5916
0.07350000 0.07351270 27070.06256759 0 722.68686547 0 13117.11498278 0 -1627.79952011 0 -3261.95429606 0 5721
0.07450000 0.07449140 26512.72992094 0 -48.18670335 0 12209.30051257 0 848.39227344 0 -3295.46080204 0 6028
0.07550000 0.07549160 26397.27056071 0 -418.99769271 0 12000.23145010 0 1456.19652092 0 -2192.27489759 0 6183
0.07650000 0.07648840 26389.06307497 0 177.95049120 0 11326.77397140 0 1110.60591521 0 -3290.42539863 0 6330
0.07750000 0.07749960 26918.66772924 0 236.06170849 0 11172.93906973 0 1339.68349698 0 -467.17341578 0 6583
0.07850000 0.07848650 25904.82141621 0 383.64006596 0 10533.29865053 0 273.37027678 0 -2024.56490853 0 6549
0.07950000 0.07947320 25227.59293055 0 972.40960124 0 10774.60982253 0 -72.98839432 0 777.09695034 0 6828
0.08050000 0.08048110 24648.85427379 0 374.64732347 0 10539.36553526 0 424.57434654 0 306.66494090 0 7147
0.08150000 0.08149960 24084.64508503 0 138.25842468 0 11938.12074719 0 931.30451623 0 3133.28532027 0 7386
0.08250000 0.08250610 24347.72827665 0 370.68554792 0 12061.01120938 0 305.75989923 0 2730.56395908 0 7227
0.08350000 0.08350160 23175.16693528 0 460.39447620 0 10321.92261909 0 498.74007141 0 1635.26389565 0 7798
0.08450000 0.08449610 22676.17398458 0 591.05099449 0 12243.35048720 0 -697.61299653 0 3724.91194788 0 7371
0.08550000 0.08548940 22058.17249063 0 438.48492575 0 10763.24134566 0 503.18209579 0 1042.48378356 0 8256
0.08650000 0.08650700 21774.45967269 0 223.91019311 0 12133.54763742 0 900.60519220 0 2644.05262288 0 8037
0.08750000 0.08749060 21168.65849538 0 220.70040071 0 9858.67659615 0 609.85057332 0 1129.01730215 0 8155
0.08850000 0.08849210 21072.94146571 0 2.36262459 0 9606.17440643 0 1226.71965606 0 2686.84246071 0 8718
0.08950000 0.08949900 20775.69738750 0 73.40475785 0 8118.91144286 0 1256.86552937 0 872.31043966 0 8571
0.09050000 0.09049190 20550.32426551 0 122.20724445 0 7018.86434714 0 911.87384830 0 2327.90914507 0 8932
0.09150000 0.09150830 19787.80447532 0 218.62191041 0 5759.35911289 0 601.65528789 0 922.14207843 0 9285
0.09250000 0.09250820 19787.36082745 0 196.17665514 0 5610.79252977 0 1292.00244130 0 1951.75120057 0 9204
0.09350000 0.09350330 19323.08332319 0 182.52893730 0 5052.26203385 0 -91.14235457 0 2007.81720114 0 9349
0.09450000 0.09448040 19053.12358947 0 563.81545126 0 5255.86313623 0 -605.93205344 0 1472.77786036 0 9564
0.09550000 0.09549270 18614.02310229 0 287.27087392 0 5965.58882895 0 -52.69106025 0 1848.17051227 0 10155
0.09650000 0.09649430 18038.61180462 0 153.73619002 0 5709.27126748 0 335.81815208 0 1373.84438358 0 9913
0.09750000 0.09749140 18241.58070877 0 159.19749540 0 6011.39547235 0 -360.19993033 0 1829.51511900 0 10476
0.09850000 0.09850240 17844.51585803 0 368.12126319 0 6233.06413455 0 18.11325556 0 887.81482387 0 10575
0.09950000 0.09950330 17101.07292659 0 436.39756248 0 6054.97278516 0 320.94929345 0 2254.86252197 0 10882
0.10050000 0.10051200 16956.88736626 0 409.22856644 0 6385.47936302 0 -97.21312122 0 1649.67136049 0 10875
0.10150000 0.10150300 16371.05034345 0 386.86538603 0 6644.95791562 0 -6.29796982 0 1462.20794967 0 11118
0.10250000 0.10250800 15563.27846972 0 383.39495051 0 6328.10460120 0 8.91936313 0 587.86671185 0 11575
0.10350000 0.10349800 15346.00192150 0 360.09789132 0 6731.95726448 0 -578.40813909 0 332.28782409 0 11364
0.10450000 0.10450100 14690.40126989 0 76.26739578 0 6120.96540700 0 520.04404251 0 100.84116265 0 12093
0.10550000 0.10551000 15112.75404968 0 -170.79445093 0 5684.71535743 0 864.60982162 0 140.24818541 0 12067
0.10650000 0.10649700 14939.39864138 0 -324.22896039 0 4670.69158524 0 956.37394869 0 366.53633115 0 12054
0.10750000 0.10749900 15668.31210482 0 -272.84011757 0 3692.17073449 0 951.18659588 0 -212.77352225 0 12807
0.10850000 0.10850100 15557.84378321 0 84.60731042 0 3645.82062244 0 352.28303395 0 431.28008421 0 12736
0.10950000 0.10950300 15278.01288421 0 459.34635809 0 3319.27360189 0 -797.92510909 0 -41.42118412 0 12933
0.11050000 0.11050200 14724.56215649 0 390.81163391 0 4538.59542959 0 -350.05481248 0 563.24980022 0 13428
0.11150000 0.11150900 14567.17807180 0 15.34655648 0 4126.14708868 0 297.43262856 0 1397.70154822 0 13453
0.11250000 0.11250000 14321.95170727 0 -148.34919566 0 4155.30584545 0 922.12433251 0 46.59323108 0 13668
0.11350000 0.11349100 14965.57386618 0 20.57450307 0 3748.82456850 0 369.29027535 0 1542.99622824 0 13791
0.11450000 0.11448600 14444.50943355 0 149.20765431 0 3200.33160582 0 -154.56581155 0 -91.39822848 0 14205
0.11550000 0.11549300 14465.80453169 0 169.56665542 0 3649.54726462 0 -177.46026029 0 2018.53129739 0 14776
0.11650000 0.11649800 14030.58596344 0 212.55835303 0 3177.49483130 0 -9.63076359 0 299.41684369 0 14553
0.11750000 0.11747300 13932.76160636 0 120.65558600 0 3895.08418266 0 344.56134263 0 849.97165989 0 14568
0.11850000 0.11849100 13897.93524794 0 -47.30206948 0 2893.39382147 0 453.89836215 0 781.69203324 0 16015
0.11950000 0.11950300 13922.44679320 0 177.44029614 0 4074.99448835 0 -429.37128922 0 97.43261601 0 15270
0.12050000 0.12050700 13563.53565995 0 402.57717563 0 3069.75494415 0 -274.81767798 0 570.65650154 0 15999
0.12150000 0.12150000 12979.69505260 0 234.17065941 0 4348.80286741 0 -246.16246155 0 357.91847112 0 15670
0.12250000 0.12250700 12888.19267777 0 84.58889903 0 3577.16611333 0 378.64015438 0 1032.87326140 0 16887
0.12350000 0.12352200 12986.57159470 0 -247.61762659 0 3811.58965203 0 933.28873136 0 603.38218726 0 16407
0.12450000 0.12449800 13152.60681302 0 -24.93600536 0 2634.32564316 0 177.20183540 0 653.83493306 0 16306
0.12550000 0.12549900 13157.70876362 0 174.64087803 0 3091.05004229 0 -349.55903598 0 768.66320418 0 17523
0.12650000 0.12650100 12835.28766833 0 252.18830885 0 3243.52072674 0 -509.98543600 0 164.34824726 0 17154
0.12750000 0.12750600 12706.62978373 0 200.14730365 0 3505.72771379 0 -469.84861248 0 -27.14792277 0 18007
0.12850000 0.12850300 12434.67363456 0 102.18175563 0 3861.45567351 0 -114.23600121 0 -489.67967262 0 17496
0.12950000 0.12949900 12383.32139269 0 149.42171441 0 3812.43258300 0 -83.20050300 0 -439.28903753 0 18405
0.13050000 0.13049000 12361.47173470 0 111.61293313 0 4130.61684105 0 179.22597885 0 -934.02185948 0 18100
0.13150000 0.13148800 12156.50641510 0 142.20799991 0 4118.19470047 0 1.67965087 0 -611.08058706 0 19059
0.13250000 0.13249300 11843.73466116 0 243.84551051 0 4466.74665576 0 -484.48122861 0 -1156.35710262 0 18957
0.13350000 0.13349100 11750.79043073 0 193.59129713 0 4793.30476751 0 -241.63170759 0 -582.64830368 0 19468
0.13450000 0.13450700 11768.86908176 0 -55.19334520 0 4805.82672886 0 254.26347180 0 -1256.28878713 0 19953
0.13550000 0.13551000 11791.49512353 0 -149.83430693 0 4608.94689183 0 356.11726073 0 -598.18152501 0 19956
0.13650000 0.13649900 11780.18210265 0 109.44737693 0 4150.14843887 0 269.48392137 0 -670.42181809 0 19723
0.13750000 0.13749600 11939.11895491 0 -2.80135907 0 4082.88032938 0 397.30331148 0 -887.08280488 0 20946
0.13850000 0.13851100 11679.80677026 0 92.42205687 0 3803.50416945 0 149.16107128 0 -119.83261919 0 20955
0.13950000 0.13949800 11611.59590903 0 192.07069403 0 3530.31689742 0 33.77458021 0 -844.45600765 0 20506
0.14050000 0.14048300 11426.70565591 0 192.11394970 0 3746.49541714 0 -191.49949739 0 -514.85668970 0 21447
0.14150000 0.14148400 11227.17502281 0 64.92143404 0 3441.49859226 0 308.22214495 0 -507.59195569 0 21771
0.14250000 0.14249400 11060.68506542 0 -27.45725625 0 2975.96778275 0 479.70535921 0 -534.01673242 0 22470
0.14350000 0.14350900 11162.06969672 0 26.22968257 0 2843.42797922 0 102.11842489 0 -972.59371511 0 22519
0.14450000 0.14449900 10852.49220750 0 278.34578773 0 2875.12662010 0 -19.12499455 0 -739.89596666 0 22218
0.14550000 0.14550500 10650.24423115 0 232.52250754 0 2752.39143467 0 -252.25707427 0 -836.27292254 0 23559
0.14650000 0.14650700 10374.29525108 0 125.12644749 0 3234.23739489 0 211.02333138 0 -603.36222310 0 23044
0.14750000 0.14750500 10247.17904286 0 17.34862844 0 2978.65185241 0 267.10596874 0 -368.86991898 0 23649
0.14850000 0.14849900 10366.35395407 0 -9.16346928 0 2786.48577409 0 441.99750782 0 -204.25770124 0 23640
0.14950000 0.14949500 10226.54941653 0 -31.37167239 0 2419.62225263 0 265.28479421 0 59.56372044 0 24457
0.15050000 0.15050000 10351.81339487 0 116.53298810 0 2468.20169527 0 8.91771054 0 13.97812460 0 24591
0.15150000 0.15149900 10115.83708860 0 207.15028540 0 2583.37268438 0 194.89451277 0 1006.96866181 0 25020
0.15250000 0.15250500 10035.57009628 0 91.61239950 0 2659.66902818 0 77.49652223 0 745.13877545 0 25297
0.15350000 0.15350100 9846.77574183 0 15.44526813 0 2295.37866442 0 295.98300912 0 875.12094897 0 25452
0.15450000 0.15450400 9828.46417567 0 14.89370291 0 2566.43642664 0 279.26413884 0 1513.57128274 0 26061
0.15550000 0.15549900 9820.06813958 0 57.58471817 0 2115.44617633 0 -147.84898268 0 812.67751015 0 26128
0.15650000 0.15649500 9806.61451768 0 200.58651505 0 2625.51923278 0 -377.23268148 0 855.26548819 0 26331
0.15750000 0.15749700 9373.44782087 0 271.54466576 0 2587.09932655 0 -656.04429949 0 -234.00318233 0 27345
0.15850000 0.15849900 9290.95149797 0 83.74230797 0 3057.16643561 0 -256.76120935 0 -15.62827288 0 26980
0.15950000 0.15949700 9242.15023139 0 2.50913930 0 2799.06319143 0 159.71878165 0 -685.16756443 0 27777
0.16050000 0.16050000 9286.74793432 0 -34.56660258 0 2663.42894395 0 388.92945778 0 -633.43600363 0 28224
0.16150000 0.16150500 9389.97370432 0 -98.41651609 0 2305.49383604 0 342.72242218 0 -575.73848798 0 28075
0.16250000 0.16249700 9297.48421297 0 124.05060139 0 2268.99270688 0 -36.64243101 0 -1059.83596118 0 28590
0.16350000 0.16349900 9142.93947469 0 264.95316742 0 2407.83231028 0 -440.92277084 0 -651.99823084 0 29163
0.16450000 0.16449100 8735.28253086 0 443.19646621 0 3043.10279788 0 -710.35345446 0 -1188.59921215 0 28996
0.16550000 0.16550500 8364.20435456 0 296.82372185 0 3325.22957465 0 -268.03541105 0 -709.19220614 0 30777
0.16650000 0.16650700 8073.67045050 0 36.76920339 0 3712.00179463 0 319.52185640 0 -785.25230746 0 29211
0.16750000 0.16749900 8174.07905648 0 -44.05977988 0 3243.05489646 0 575.35695081 0 -376.67479428 0 30922
0.16850000 0.16850800 8216.75798233 0 -25.87354424 0 3303.85683813 0 509.39427520 0 -237.94166637 0 30867
0.16950000 0.16949900 8119.26636116 0 -1.17607725 0 2478.44996125 0 46.76714105 0 315.72090321 0 30852
0.17050000 0.17049200 8086.71369812 0 80.89220309 0 2700.70645689 0 391.43274094 0 140.19162031 0 31257
0.17150000 0.17149500 8107.35441564 0 16.42484265 0 2479.73654009 0 -78.28787913 0 437.73626996 0 32608
0.17250000 0.17250900 7994.15765958 0 -14.81118440 0 2311.05052571 0 372.71967345 0 423.82790898 0 32361
0.17350000 0.17350400 8132.75325665 0 2.32067768 0 1851.55332734 0 443.70887951 0 327.55742859 0 32508
0.17450000 0.17449800 7890.27750897 0 91.44725157 0 1792.89198668 0 -109.83889618 0 82.34814451 0 32791
0.17550000 0.17549800 7861.01893142 0 168.28007658 0 1739.29932303 0 -40.74129375 0 242.11306554 0 33633
0.17650000 0.17650100 7632.75100702 0 97.87692936 0 1670.38971639 0 108.50750890 0 393.31602618 0 33984
0.17750000 0.17750300 7517.03654926 0 -26.89703990 0 1421.85817517 0 333.78624480 0 105.23205661 0 34069
0.17850000 0.17849800 7677.43743953 0 -33.85687689 0 1207.99771562 0 296.74053787 0 343.38567576 0 34536
