### header ###
fiducial parameters:
Omega_m = 0.31
Omega_nu = 0
Omega_de = 0.69
Omega_k = 0
H_0 = 100
w_de = -1
zeff = 0
beta = 0
fgrowth = 0
b_1 = 2
gamma = 0.55
Lx = 3500 Ly = 3500 Lz = 3500
nx = 700 ny = 700 nz = 700
xoffset = 1379.75464 yoffset = 22.6059522 zoffset = 368.141391
bins = 400 dk = 0.001
kx_ny = 0.628318531 ky_ny = 0.628318531 kz_ny = 0.628318531
############################
A(data) = 3.35817608 (not used)
A(ran) = 3.35154789 (used)
Ngal = 188612
weighted Ngal = 0
Nran = 9399747
weighted Nran = 0
SN(data) = 6701.60373
SN(ran) = 133.309101
SN(data+ran) = 6834.91284
############################
13 columns: k_central k_mean P_0(k) sigma^{lin}_{P_0(k)} P^img_1(k) sigma^{lin}_{P_1(k)} P_2(k) sigma^{lin}_{P_2(k)} P^img_3(k) sigma^{lin}_{P_3(k)} P_4(k) sigma^{lin}_{P_4(k)} N_modes
### header ###
0.00050000 0 0 0 0 0 0 0 0 0 0 0 0
0.00150000 0.00179520 23171.83957620 0 -727.59361100 0 11324.88846792 0 10696.39470165 0 -15651.00983758 0 3
0.00250000 0.00253879 41651.77010739 0 -1483.00394395 0 8567.67236258 0 9647.22292634 0 51424.00191453 0 6
0.00350000 0.00331552 40366.74402896 0 2769.13914206 0 38408.92594366 0 -23068.91326852 0 -17017.22347766 0 7
0.00450000 0.00420575 48740.59772487 0 874.69504700 0 36980.04704082 0 3889.83804650 0 43355.82160651 0 24
0.00550000 0.00557378 58018.82761994 0 -10493.28161194 0 28316.49128063 0 42861.26513459 0 49091.74502025 0 45
0.00650000 0.00659388 67319.23990890 0 -11953.42659898 0 23077.00984229 0 51318.19189564 0 -10597.39467769 0 40
0.00750000 0.00754703 95052.88878990 0 -17680.03340728 0 -5840.62431293 0 44888.07046491 0 23725.17939194 0 57
0.00850000 0.00846663 113037.04281751 0 -11556.36174823 0 -11220.85304055 0 5967.49651482 0 29513.12051937 0 75
0.00950000 0.00948925 102509.38958622 0 7580.74438453 0 1219.29964531 0 -19647.38992196 0 52003.29513113 0 112
0.01050000 0.01054430 115161.00703309 0 2713.78297809 0 -2504.88028357 0 -11048.56238715 0 5475.40228863 0 105
0.01150000 0.01145670 96776.90444353 0 8156.88770121 0 21428.19250397 0 -3261.54392178 0 38214.49726116 0 144
0.01250000 0.01249090 101342.26293136 0 4662.32882275 0 20955.04204215 0 1946.80452673 0 1538.07173679 0 169
0.01350000 0.01339930 94680.44639638 0 4922.92758624 0 44361.01678593 0 -5018.44497436 0 16880.46901929 0 180
0.01450000 0.01448870 82668.79101342 0 12960.61819385 0 49335.52952918 0 -20418.44993380 0 8663.31175386 0 267
0.01550000 0.01550050 71046.54755532 0 9051.10436396 0 64839.13735931 0 10158.11673136 0 -19513.96282267 0 238
0.01650000 0.01653350 65256.72092441 0 2623.40081416 0 63671.01249672 0 5246.65744277 0 11280.63459210 0 315
0.01750000 0.01747870 65178.30616199 0 -1083.16629396 0 72012.14716163 0 15953.13404245 0 -6240.65051327 0 297
0.01850000 0.01844180 72201.25206960 0 -2876.77920845 0 61224.18353798 0 21116.41895775 0 18692.21604078 0 388
0.01950000 0.01947590 69322.53190169 0 -392.16919641 0 37821.20341738 0 10086.34559591 0 -12463.95439450 0 399
0.02050000 0.02045430 70701.27859432 0 3989.62554544 0 41728.74301421 0 1151.12205767 0 9570.17238114 0 462
0.02150000 0.02154770 65244.40969580 0 2136.33090018 0 37547.91632457 0 6847.71608703 0 -121.37540468 0 571
0.02250000 0.02255340 64556.86639698 0 -278.36464277 0 41647.11180467 0 4589.45965880 0 13065.76274091 0 510
0.02350000 0.02348930 57918.11955165 0 1732.42278092 0 24953.30763002 0 11354.50196377 0 3038.57758953 0 555
0.02450000 0.02439640 63302.23019819 0 1169.83290692 0 19864.77738214 0 3839.15127645 0 8801.76316537 0 592
0.02550000 0.02547300 58485.10153964 0 -77.69283641 0 20356.00649498 0 11474.28689081 0 16314.04159114 0 837
0.02650000 0.02652900 57959.71154020 0 -492.97819460 0 14918.65810308 0 4842.70495871 0 9110.32026447 0 723
0.02750000 0.02749970 58846.23091228 0 692.96911237 0 14480.00126378 0 -2190.60012685 0 16976.74060880 0 826
0.02850000 0.02848090 55271.42722389 0 1480.19787112 0 16483.95872839 0 -1969.78548681 0 3519.15915329 0 831
0.02950000 0.02946900 55154.19327215 0 1134.40762386 0 19640.06973197 0 -2442.89158383 0 10481.87986148 0 996
0.03050000 0.03053250 56109.81080121 0 809.83261813 0 17617.47905650 0 -587.35429855 0 1515.23496228 0 1041
0.03150000 0.03150510 54721.52567920 0 1191.43855857 0 26411.13455689 0 -459.89648146 0 3950.73980894 0 1036
0.03250000 0.03246190 54072.46883379 0 502.00753803 0 21947.48234508 0 -252.32140321 0 3513.92410833 0 1059
0.03350000 0.03345080 53960.22592068 0 694.51855258 0 24041.05668103 0 3886.52177861 0 -2664.02786858 0 1302
0.03450000 0.03451200 51495.42922287 0 732.68668864 0 20990.86660830 0 350.72250254 0 1792.23760606 0 1339
0.03550000 0.03553350 52762.48756224 0 1888.12100368 0 22086.89869072 0 1472.67803959 0 515.48666968 0 1365
0.03650000 0.03647120 48453.77937179 0 797.88185342 0 19125.88184145 0 655.92562368 0 -3413.10512807 0 1308
0.03750000 0.03744890 47053.84849299 0 1490.00248922 0 21826.47738638 0 -2359.05322610 0 136.79549580 0 1579
0.03850000 0.03847530 44618.33255513 0 2167.47498121 0 21268.92291579 0 -543.86571531 0 -6638.75793653 0 1662
0.03950000 0.03950240 43629.55234719 0 921.41449591 0 21463.46251026 0 684.48767406 0 -5906.88312350 0 1683
0.04050000 0.04050350 42199.89706057 0 48.36416250 0 17234.38911390 0 1676.56751309 0 -9337.22397163 0 1822
0.04150000 0.04152450 43100.72407670 0 -527.79346182 0 20790.44867944 0 1252.09631468 0 -7248.60740072 0 1887
0.04250000 0.04250150 42833.64805419 0 202.15148294 0 13814.08579901 0 2668.59744173 0 -8319.15191256 0 1920
0.04350000 0.04349210 41837.43674430 0 1047.81421281 0 17559.58300843 0 407.61923376 0 -5185.23439407 0 2005
0.04450000 0.04448520 41962.21270997 0 234.43241166 0 13003.87386194 0 1584.41075764 0 -5671.11754997 0 2151
0.04550000 0.04548030 41607.62714353 0 766.62575130 0 15949.69577139 0 1861.33576305 0 454.83445917 0 2274
0.04650000 0.04648670 39807.96952671 0 265.04966083 0 15146.36037643 0 1044.61551161 0 -2158.41347331 0 2311
0.04750000 0.04749250 39449.72386529 0 1612.71549226 0 16710.77370598 0 -1747.72863271 0 2569.60850896 0 2568
0.04850000 0.04851840 37719.05349348 0 1219.52146924 0 16607.62557436 0 -1610.18669935 0 -635.44683763 0 2493
0.04950000 0.04949480 37892.63072572 0 34.53931824 0 19106.58315876 0 1239.64090051 0 2606.50892121 0 2644
0.05050000 0.05050630 37187.78515967 0 -10.92908801 0 18720.27676906 0 1429.25600354 0 373.82324754 0 2829
0.05150000 0.05149060 36725.17133495 0 672.19530048 0 20360.66479770 0 519.63144998 0 -2320.83296142 0 2784
0.05250000 0.05249300 36298.71481230 0 1062.01870874 0 16964.98394003 0 -663.00291645 0 974.28955912 0 3055
0.05350000 0.05348950 34256.04907034 0 502.25819908 0 19481.02196774 0 2547.68121260 0 -1476.44904655 0 3009
0.05450000 0.05448610 34801.84687216 0 346.37031686 0 17619.47547195 0 952.21585895 0 3869.71861523 0 3336
0.05550000 0.05550870 33509.83333966 0 -28.16775833 0 14314.18786941 0 2515.93820693 0 -2480.84565979 0 3349
0.05650000 0.05647670 34665.42514970 0 330.33688255 0 14451.94053550 0 2233.02395518 0 1964.07352038 0 3324
0.05750000 0.05747970 33106.44650666 0 -66.86128439 0 12048.25633288 0 814.03174530 0 -210.82812631 0 3639
0.05850000 0.05849280 33270.70713346 0 244.45885370 0 10891.36685281 0 420.01253723 0 -866.09936937 0 3846
0.05950000 0.05951020 32361.67263158 0 20.38251446 0 11183.25388289 0 -471.69862413 0 -850.57169364 0 3787
0.06050000 0.06049470 32664.90595615 0 789.00667762 0 10237.66279588 0 -445.56332764 0 -3083.69657871 0 3930
0.06150000 0.06148310 32232.01653926 0 25.29791112 0 11738.81193803 0 -856.27145975 0 -4211.52712279 0 4083
0.06250000 0.06249100 31689.54609652 0 310.69770011 0 10273.27662928 0 1165.05260103 0 -4398.00341708 0 4303
0.06350000 0.06350600 32027.16213163 0 246.99319220 0 11592.51905028 0 863.83343783 0 -2434.22935901 0 4470
0.06450000 0.06451750 31282.72099246 0 122.55994452 0 8623.00634415 0 183.76006016 0 -6331.67596662 0 4479
0.06550000 0.06550280 31066.66447591 0 256.03695419 0 10136.24489098 0 2053.95658045 0 462.90995967 0 4636
0.06650000 0.06648880 30502.34437518 0 494.42781404 0 8284.61392526 0 -679.56096438 0 -3421.93372084 0 4653
0.06750000 0.06749660 30059.36196907 0 709.96415345 0 9368.93370371 0 476.90815934 0 -530.38436542 0 5220
0.06850000 0.06852730 29089.32588398 0 144.06133892 0 8301.59454779 0 2272.49752512 0 -189.32784103 0 5029
0.06950000 0.06949320 28532.54779718 0 422.60122260 0 8268.48732490 0 181.48525566 0 2700.32935620 0 5040
0.07050000 0.07048030 28321.26049532 0 378.73775691 0 5772.89037317 0 2278.04312359 0 1321.36083962 0 5475
0.07150000 0.07148790 26991.64780516 0 244.60858486 0 7691.33470931 0 -219.75764897 0 1707.64504694 0 5509
0.07250000 0.07249820 26566.96587402 0 1286.20174530 0 6409.30325406 0 -1120.18870938 0 2352.84215581 0 5916
0.07350000 0.07351270 25805.11155564 0 308.47169688 0 8003.46317382 0 -150.32342872 0 1595.64614015 0 5721
0.07450000 0.07449140 25411.92862383 0 -25.98855995 0 8002.04350061 0 -399.58255245 0 680.12994278 0 6028
0.07550000 0.07549160 25392.51902917 0 -54.05671933 0 8039.03264244 0 -472.79665263 0 96.56883359 0 6183
0.07650000 0.07648840 26148.93866104 0 59.43683715 0 8371.55781814 0 -575.09741680 0 -1323.36834627 0 6330
0.07750000 0.07749960 25688.87581163 0 -92.04539983 0 9290.86276839 0 480.36639455 0 -681.31448261 0 6583
0.07850000 0.07848650 26219.81140954 0 107.92699565 0 8587.90270581 0 656.49682032 0 -1306.36554135 0 6549
0.07950000 0.07947320 25989.11451301 0 407.15673085 0 10346.41198195 0 -204.84553468 0 564.29902745 0 6828
0.08050000 0.08048110 25529.16257557 0 437.70854196 0 9514.27274852 0 -125.92723191 0 -466.24286435 0 7147
0.08150000 0.08149960 25067.76878253 0 218.42337798 0 10845.37165906 0 784.02673019 0 1315.84851474 0 7386
0.08250000 0.08250610 24407.06618032 0 716.81407669 0 9901.83244348 0 -145.52870428 0 270.09948280 0 7227
0.08350000 0.08350160 23724.07027225 0 584.87319779 0 10548.90396464 0 -302.15747846 0 1487.97280018 0 7798
0.08450000 0.08449610 22644.45316131 0 452.60401946 0 10625.33340281 0 492.20070169 0 151.44031225 0 7371
0.08550000 0.08548940 22071.37101499 0 482.08220271 0 9520.26199487 0 282.28205353 0 -488.86336053 0 8256
0.08650000 0.08650700 21567.49793764 0 169.42025162 0 9218.12669880 0 698.53467500 0 -962.73918662 0 8037
0.08750000 0.08749060 21189.06629776 0 431.16695400 0 7804.06563509 0 588.84273718 0 -1906.79857934 0 8155
0.08850000 0.08849210 20377.30159312 0 571.32751896 0 7613.29704758 0 -210.69725019 0 -2059.45781413 0 8718
0.08950000 0.08949900 19742.55239178 0 335.20259065 0 7080.17648387 0 -12.05324737 0 -2766.41070761 0 8571
0.09050000 0.09049190 18970.05052433 0 267.95444531 0 7224.40640898 0 765.52328632 0 -2479.68108411 0 8932
0.09150000 0.09150830 18877.88267769 0 84.44016608 0 5940.57817983 0 491.81583716 0 -2155.42994133 0 9285
0.09250000 0.09250820 18803.79348208 0 -319.75144418 0 5219.18454793 0 1603.49870759 0 -2675.58489580 0 9204
0.09350000 0.09350330 18863.13138575 0 -24.40872986 0 4517.64415856 0 945.00214446 0 -324.02820972 0 9349
0.09450000 0.09448040 19117.11979586 0 501.24224544 0 4191.56296828 0 -444.11038084 0 -2021.21536706 0 9564
0.09550000 0.09549270 17879.00948053 0 532.15008398 0 4985.68157857 0 -286.96697512 0 -47.47675583 0 10155
0.09650000 0.09649430 17566.79228644 0 653.15726092 0 5244.99376322 0 -196.44728035 0 486.28576636 0 9913
0.09750000 0.09749140 16758.24402892 0 226.09515891 0 5928.35568079 0 624.50204449 0 564.86689674 0 10476
0.09850000 0.09850240 16795.62136263 0 180.51366681 0 6406.79664355 0 623.48830909 0 1201.29863266 0 10575
0.09950000 0.09950330 16220.09915299 0 129.94557257 0 4918.16946275 0 103.49162599 0 1598.28584503 0 10882
0.10050000 0.10051200 15974.20731665 0 390.28591117 0 6189.15408583 0 8.77513320 0 1592.15241311 0 10875
0.10150000 0.10150300 15606.09048994 0 341.11752598 0 5542.78131009 0 -220.23567956 0 1057.70645137 0 11118
0.10250000 0.10250800 15539.54330825 0 -174.25823173 0 5643.06791289 0 383.97391099 0 2166.33258793 0 11575
0.10350000 0.10349800 15547.41805808 0 -132.90914039 0 5205.87511159 0 513.36603283 0 202.06053512 0 11364
0.10450000 0.10450100 15715.00604397 0 96.05032013 0 5248.37657829 0 -273.85496209 0 -98.20533970 0 12093
0.10550000 0.10551000 15793.53171836 0 196.67243164 0 4854.90527536 0 -136.25535451 0 -84.09622806 0 12067
0.10650000 0.10649700 15399.35057882 0 129.10264160 0 5523.39389782 0 -313.98734913 0 -195.32596034 0 12054
0.10750000 0.10749900 15167.98821048 0 296.87030488 0 5730.81037195 0 -552.98600656 0 -1140.56323817 0 12807
0.10850000 0.10850100 15042.43586103 0 355.67250374 0 5857.95985376 0 -392.82024967 0 -1809.92806519 0 12736
0.10950000 0.10950300 14657.79315086 0 153.34245253 0 5885.99839965 0 302.18298821 0 -1263.03223487 0 12933
0.11050000 0.11050200 14611.43194762 0 -153.29697862 0 5745.89439980 0 578.35711958 0 -1085.35902360 0 13428
0.11150000 0.11150900 14624.51956002 0 59.32792160 0 5912.60618113 0 468.53319652 0 -762.93016448 0 13453
0.11250000 0.11250000 14660.01139025 0 211.62225601 0 5149.27673356 0 179.29252603 0 -1181.07938062 0 13668
0.11350000 0.11349100 14310.08412654 0 145.02405482 0 5074.77716366 0 104.31925110 0 -423.88669233 0 13791
0.11450000 0.11448600 14337.47938300 0 0.37742456 0 5724.04474181 0 25.07009793 0 -356.44556016 0 14205
0.11550000 0.11549300 14112.66082086 0 229.16852958 0 5597.63837019 0 -523.19948804 0 -350.79348620 0 14776
0.11650000 0.11649800 13916.23572290 0 255.00325464 0 5842.25471889 0 -160.33767044 0 -921.48880693 0 14553
0.11750000 0.11747300 13832.94083382 0 60.08500670 0 6015.75431275 0 -189.85910936 0 -1002.50556416 0 14568
0.11850000 0.11849100 13762.17899729 0 2.60853861 0 6141.57285093 0 -242.37703603 0 -1307.27501950 0 16015
0.11950000 0.11950300 13814.41853492 0 126.22447599 0 6375.99638962 0 496.46859428 0 -1233.42983022 0 15270
0.12050000 0.12050700 13820.62960521 0 -74.28406794 0 5981.54906136 0 292.72774282 0 -875.16420464 0 15999
0.12150000 0.12150000 13811.75664765 0 -42.71974146 0 5654.43638976 0 616.92564785 0 -1148.62653835 0 15670
0.12250000 0.12250700 13779.25944059 0 270.40005424 0 5914.13676631 0 -350.61269969 0 -207.08928382 0 16887
0.12350000 0.12352200 13363.67229094 0 310.77977497 0 5944.13845405 0 344.69887348 0 -294.85170703 0 16407
0.12450000 0.12449800 12990.00986576 0 214.64349806 0 6301.56336691 0 20.67510023 0 100.08895768 0 16306
0.12550000 0.12549900 13102.03095494 0 31.24490001 0 5685.08136693 0 420.49944078 0 339.21205834 0 17523
0.12650000 0.12650100 12930.78287405 0 -20.09503063 0 6309.79303504 0 239.99242869 0 156.48680686 0 17154
0.12750000 0.12750600 12980.69326032 0 98.42317081 0 5616.87050570 0 157.84880585 0 694.83908817 0 18007
0.12850000 0.12850300 12868.00669933 0 88.33994184 0 5879.90933252 0 -52.33425645 0 319.56400295 0 17496
0.12950000 0.12949900 12796.57939098 0 33.87584284 0 5739.15095205 0 337.30769983 0 1007.60418739 0 18405
0.13050000 0.13049000 12914.14607863 0 -2.93937792 0 5576.13253931 0 853.44431365 0 772.79356592 0 18100
0.13150000 0.13148800 12476.93109493 0 212.96207260 0 5067.05769058 0 -81.08696450 0 858.21020098 0 19059
0.13250000 0.13249300 12346.27679488 0 480.60596440 0 5157.20693938 0 -55.43934795 0 659.57906395 0 18957
0.13350000 0.13349100 11930.13508539 0 139.47845634 0 5443.98092767 0 -108.75816995 0 1050.02025188 0 19468
0.13450000 0.13450700 11536.39759372 0 118.33198024 0 5188.56175315 0 406.39809298 0 968.51880935 0 19953
0.13550000 0.13551000 11485.04535185 0 69.71638031 0 4795.98883717 0 349.99048354 0 1145.25481448 0 19956
0.13650000 0.13649900 11523.19906936 0 -87.92091642 0 3820.93953106 0 698.03668025 0 671.00188769 0 19723
0.13750000 0.13749600 11520.86991800 0 -129.44425046 0 3821.60500287 0 522.27448221 0 895.45776769 0 20946
0.13850000 0.13851100 11525.08457284 0 -47.56459811 0 2914.84419637 0 431.33997668 0 933.49613675 0 20955
0.13950000 0.13949800 11668.05010150 0 28.52977500 0 2956.01471944 0 45.42732446 0 770.82266023 0 20506
0.14050000 0.14048300 11595.95732134 0 -45.71070454 0 2592.53401306 0 -78.15966489 0 237.81633584 0 21447
0.14150000 0.14148400 11524.41910102 0 49.86690877 0 2876.66829648 0 -62.86501521 0 133.49253735 0 21771
0.14250000 0.14249400 11422.60191304 0 313.84760004 0 2548.41323160 0 -314.66058478 0 -32.78469088 0 22470
0.14350000 0.14350900 11287.95478208 0 60.75347314 0 2790.03495711 0 141.99172157 0 160.93992244 0 22519
0.14450000 0.14449900 11012.12780518 0 106.21018927 0 2842.26340354 0 326.53814759 0 112.22183984 0 22218
0.14550000 0.14550500 10962.59451961 0 183.87319037 0 2615.34860518 0 236.81923724 0 632.83707899 0 23559
0.14650000 0.14650700 10579.81513053 0 236.51201108 0 2530.29021578 0 118.91870456 0 82.88529118 0 23044
0.14750000 0.14750500 10239.90321766 0 344.65118133 0 2700.30717380 0 -241.00949145 0 724.76868314 0 23649
0.14850000 0.14849900 9970.94169166 0 168.31778665 0 2765.74523580 0 -109.12939231 0 580.49328412 0 23640
0.14950000 0.14949500 9615.47992067 0 116.31116416 0 2848.38574426 0 156.75965031 0 286.09964352 0 24457
0.15050000 0.15050000 9619.67239312 0 150.76374924 0 2619.86272234 0 -143.51121555 0 -71.75372227 0 24591
0.15150000 0.15149900 9448.92341610 0 82.06354440 0 2792.00919017 0 31.18611667 0 -507.64630256 0 25020
0.15250000 0.15250500 9326.17713947 0 76.41568509 0 2507.93036274 0 -97.45357837 0 -161.39466151 0 25297
0.15350000 0.15350100 9148.64034992 0 91.14989658 0 2706.05241382 0 255.32489935 0 -647.96990811 0 25452
0.15450000 0.15450400 9109.83225180 0 92.56912615 0 2318.65908681 0 -21.51570205 0 -811.47300616 0 26061
0.15550000 0.15549900 8917.81035904 0 146.34834373 0 2316.62939777 0 84.91997126 0 -646.24300874 0 26128
0.15650000 0.15649500 8875.47526029 0 107.05722398 0 2387.35796071 0 -10.94635701 0 -594.31735199 0 26331
0.15750000 0.15749700 8695.16567150 0 17.84340674 0 2463.65430452 0 -82.98699745 0 -971.94931657 0 27345
0.15850000 0.15849900 8669.27881782 0 -0.15841002 0 2306.22585503 0 341.91609216 0 -226.45229545 0 26980
0.15950000 0.15949700 8769.43232626 0 -106.58573720 0 1830.43568835 0 338.94254226 0 -796.05513328 0 27777
0.16050000 0.16050000 8914.93773903 0 -24.28351025 0 1667.25090765 0 380.77853715 0 13.05700070 0 28224
0.16150000 0.16150500 8713.11122816 0 182.17956459 0 1681.83583164 0 -138.89395026 0 -231.64741210 0 28075
0.16250000 0.16249700 8591.48516243 0 223.61849463 0 1885.03765093 0 -112.74867170 0 48.51677737 0 28590
0.16350000 0.16349900 8487.39427907 0 127.15170005 0 2012.74169259 0 -72.22776003 0 324.64820763 0 29163
0.16450000 0.16449100 8104.48179563 0 79.53563879 0 2143.68436376 0 118.58264129 0 360.21767624 0 28996
0.16550000 0.16550500 8207.20846176 0 91.92051295 0 1762.26919191 0 283.38673675 0 513.76642504 0 30777
0.16650000 0.16650700 8196.76055424 0 -37.54847088 0 2144.92657782 0 90.75538271 0 590.29457486 0 29211
0.16750000 0.16749900 8118.04632949 0 66.04752327 0 1776.05554971 0 145.99342543 0 910.87453145 0 30922
0.16850000 0.16850800 8158.75102229 0 15.34178727 0 1770.94250792 0 59.10909228 0 993.17675840 0 30867
0.16950000 0.16949900 8066.21716616 0 -19.72835566 0 1933.72800553 0 -37.26309439 0 812.48119596 0 30852
0.17050000 0.17049200 8194.27612612 0 156.11968824 0 1912.43290739 0 -249.61626028 0 605.47065964 0 31257
0.17150000 0.17149500 7868.57203654 0 103.76779679 0 2426.48770354 0 -200.36469111 0 467.18561609 0 32608
0.17250000 0.17250900 7924.08347726 0 25.61423206 0 2322.48554976 0 -65.49129974 0 468.91029722 0 32361
0.17350000 0.17350400 7936.52780024 0 57.85168328 0 2499.75615058 0 -96.64325552 0 110.23296641 0 32508
0.17450000 0.17449800 7846.33418666 0 107.32252541 0 2632.16285975 0 -178.77234889 0 205.15941555 0 32791
0.17550000 0.17549800 7681.68536796 0 176.86577213 0 2540.80467049 0 2.66579137 0 -251.57940214 0 33633
0.17650000 0.17650100 7610.01405328 0 123.47385915 0 2682.64998826 0 -168.31556841 0 -23.73294323 0 33984
0.17750000 0.17750300 7420.88696292 0 68.64863078 0 2604.23522584 0 165.45403959 0 -188.21317573 0 34069
0.17850000 0.17849800 7393.75789518 0 0.46720003 0 2417.42619564 0 138.02218218 0 -307.33263096 0 34536
