### header ###
fiducial parameters:
Omega_m = 0.31
Omega_nu = 0
Omega_de = 0.69
Omega_k = 0
H_0 = 100
w_de = -1
zeff = 0
beta = 0
fgrowth = 0
b_1 = 2
gamma = 0.55
Lx = 3500 Ly = 3500 Lz = 3500
nx = 700 ny = 700 nz = 700
xoffset = 1379.75464 yoffset = 22.6059522 zoffset = 368.141391
bins = 400 dk = 0.001
kx_ny = 0.628318531 ky_ny = 0.628318531 kz_ny = 0.628318531
############################
A(data) = 3.31657397 (not used)
A(ran) = 3.3142711 (used)
Ngal = 186200
weighted Ngal = 0
Nran = 9399747
weighted Nran = 0
SN(data) = 6679.02844
SN(ran) = 131.826402
SN(data+ran) = 6810.85485
############################
13 columns: k_central k_mean P_0(k) sigma^{lin}_{P_0(k)} P^img_1(k) sigma^{lin}_{P_1(k)} P_2(k) sigma^{lin}_{P_2(k)} P^img_3(k) sigma^{lin}_{P_3(k)} P_4(k) sigma^{lin}_{P_4(k)} N_modes
### header ###
0.00050000 0 0 0 0 0 0 0 0 0 0 0 0
0.00150000 0.00179520 52701.26415508 0 -57946.29119190 0 -95856.66783274 0 111702.77182463 0 48856.94438086 0 3
0.00250000 0.00253879 72282.77236717 0 -35075.02305300 0 13989.65944670 0 -134232.32018556 0 -50124.66819204 0 6
0.00350000 0.00331552 84086.57871932 0 7631.81934648 0 -61450.11121981 0 -2221.30056000 0 38915.79364420 0 7
0.00450000 0.00420575 84288.77123968 0 17167.39828434 0 20663.78721029 0 -72705.67970681 0 8446.16830001 0 24
0.00550000 0.00557378 57406.03898855 0 13702.73018165 0 40276.90533368 0 -7303.70846716 0 27167.66510073 0 45
0.00650000 0.00659388 56809.44350470 0 4854.43944509 0 38096.26510169 0 58671.65547231 0 -2645.99358235 0 40
0.00750000 0.00754703 49745.01652050 0 -3379.98681399 0 33590.13360557 0 9906.04709832 0 7307.54602131 0 57
0.00850000 0.00846663 63433.32814612 0 -2710.35579824 0 15381.27192780 0 39403.25175007 0 11838.41088662 0 75
0.00950000 0.00948925 53680.39502167 0 1651.02448652 0 11382.56269205 0 10293.03005104 0 27562.28988815 0 112
0.01050000 0.01054430 51678.98853237 0 -422.64336915 0 -6035.84047042 0 3789.73999404 0 7681.55227360 0 105
0.01150000 0.01145670 53716.44141175 0 -2565.94841397 0 95.31253371 0 4926.13294216 0 16750.36927908 0 144
0.01250000 0.01249090 54959.21002980 0 -2900.63637308 0 -9173.72863742 0 -2008.87086485 0 4185.88427544 0 169
0.01350000 0.01339930 55227.72790792 0 2231.62646436 0 -18782.16564803 0 -4055.24106659 0 -2693.35299332 0 180
0.01450000 0.01448870 60502.03570468 0 -4510.66779568 0 -9651.47085477 0 -1291.29260470 0 858.87012720 0 267
0.01550000 0.01550050 59927.62261473 0 -1139.97540473 0 -13711.38131527 0 -7597.73609826 0 -9219.92347271 0 238
0.01650000 0.01653350 63860.22831666 0 -1210.59305570 0 -10656.81021975 0 -2961.38285877 0 -5442.43925130 0 315
0.01750000 0.01747870 64617.97889216 0 1402.43748931 0 -9658.01466097 0 -5938.63722037 0 -23760.78213415 0 297
0.01850000 0.01844180 61310.47305023 0 3912.48627067 0 3698.42616957 0 -11553.81077293 0 2600.23130374 0 388
0.01950000 0.01947590 57405.26260476 0 3446.77800201 0 8719.51084880 0 -12073.32243799 0 -19528.49229067 0 399
0.02050000 0.02045430 59096.33740346 0 -547.86852829 0 19709.05697699 0 5201.16135288 0 9681.55018089 0 462
0.02150000 0.02154770 61344.30120092 0 -4562.58568859 0 12646.07184839 0 7800.22808094 0 -8336.24344706 0 571
0.02250000 0.02255340 69253.21192076 0 -3128.93757106 0 15702.36207945 0 4844.29099988 0 9486.84421847 0 510
0.02350000 0.02348930 67181.15450690 0 3111.72403340 0 15957.01596138 0 -3015.69645022 0 -3179.26942281 0 555
0.02450000 0.02439640 66853.96419692 0 4272.93908029 0 21250.40061689 0 -11105.72641622 0 2065.10323338 0 592
0.02550000 0.02547300 65311.40052536 0 1070.42472691 0 26872.52834994 0 720.09041626 0 8675.07951382 0 837
0.02650000 0.02652900 63846.58614441 0 889.86336795 0 32758.73748233 0 4004.64302611 0 6926.66322691 0 723
0.02750000 0.02749970 60618.16053672 0 2696.78017317 0 28190.38437133 0 6242.62474632 0 14461.70078882 0 826
0.02850000 0.02848090 60426.06100558 0 158.68951858 0 29611.38852433 0 9258.04391662 0 16966.64761957 0 831
0.02950000 0.02946900 57403.26618931 0 1345.34000743 0 28863.17637821 0 5596.08560262 0 29385.12810659 0 996
0.03050000 0.03053250 53391.24751723 0 4513.26313576 0 27658.56147766 0 -1079.11911620 0 21724.43837445 0 1041
0.03150000 0.03150510 50815.20611404 0 4341.20539750 0 31624.99533028 0 -3279.34529288 0 20549.54788173 0 1036
0.03250000 0.03246190 44403.71789418 0 2415.57396575 0 35941.24553465 0 1077.91350309 0 22761.57620108 0 1059
0.03350000 0.03345080 44615.44884392 0 353.92231286 0 37146.96955490 0 3932.71661390 0 17325.44784085 0 1302
0.03450000 0.03451200 44285.26391077 0 -1862.38942676 0 28111.08231315 0 5399.02830644 0 14034.13514646 0 1339
0.03550000 0.03553350 47204.02329967 0 -1349.88739817 0 25547.46305054 0 7276.52394344 0 10575.56720210 0 1365
0.03650000 0.03647120 47076.80727067 0 -220.40759311 0 19571.19339893 0 -305.11106421 0 10799.72029242 0 1308
0.03750000 0.03744890 49304.47417772 0 238.77128790 0 20028.92709698 0 3941.62284505 0 11655.51704895 0 1579
0.03850000 0.03847530 46372.73808840 0 254.74482975 0 17001.25215405 0 4249.27046600 0 9591.91112716 0 1662
0.03950000 0.03950240 45884.28177480 0 287.75666834 0 14104.78607102 0 -353.39437188 0 10075.09912221 0 1683
0.04050000 0.04050350 47464.22278007 0 -234.87605953 0 10510.61715277 0 5855.44215206 0 7214.89016200 0 1822
0.04150000 0.04152450 45980.55336431 0 -373.89866768 0 9896.03174748 0 729.00884773 0 9374.67894373 0 1887
0.04250000 0.04250150 46330.03698015 0 885.01540577 0 7487.34541503 0 1055.48044814 0 5754.71190137 0 1920
0.04350000 0.04349210 44776.93667149 0 765.92811501 0 7455.41385902 0 -922.95617229 0 5314.80175682 0 2005
0.04450000 0.04448520 43582.63658410 0 868.55939685 0 8552.55506114 0 -1168.53523687 0 658.90471918 0 2151
0.04550000 0.04548030 41740.61059494 0 1389.50515367 0 9031.22893903 0 -2164.20307811 0 1606.47114837 0 2274
0.04650000 0.04648670 41496.71517405 0 2039.13874132 0 9717.46347661 0 -4330.81294596 0 -2551.45221956 0 2311
0.04750000 0.04749250 38987.88642436 0 982.40166057 0 15379.27551234 0 -1511.90760319 0 -4263.60029246 0 2568
0.04850000 0.04851840 36885.21730692 0 1164.49804118 0 14838.02510127 0 -2511.74573449 0 -6507.30507029 0 2493
0.04950000 0.04949480 36798.48414678 0 216.81515442 0 16683.93300936 0 -391.62350952 0 -7603.54788546 0 2644
0.05050000 0.05050630 37481.25823091 0 109.08591482 0 16035.54163577 0 1863.23235773 0 -7197.32170603 0 2829
0.05150000 0.05149060 37302.57904808 0 10.89181050 0 18435.89847931 0 850.74360720 0 -6472.47871188 0 2784
0.05250000 0.05249300 36284.29625626 0 836.59789461 0 15975.64917225 0 317.57424222 0 -7137.26287456 0 3055
0.05350000 0.05348950 36143.43805502 0 601.77840018 0 16134.58602452 0 938.50048481 0 -4507.09643026 0 3009
0.05450000 0.05448610 35382.02738452 0 314.58294640 0 16483.18234460 0 2055.19879451 0 -3258.13892431 0 3336
0.05550000 0.05550870 34799.29589687 0 177.78634148 0 15973.32002089 0 415.92764940 0 -3242.06777993 0 3349
0.05650000 0.05647670 33800.42269971 0 640.07408500 0 13453.40007426 0 1788.68842304 0 -3260.62335243 0 3324
0.05750000 0.05747970 33890.70504287 0 288.69498360 0 13567.75031479 0 619.15941492 0 -2615.25987560 0 3639
0.05850000 0.05849280 32820.62636130 0 294.52008024 0 12759.75661711 0 167.73882617 0 -2233.34559989 0 3846
0.05950000 0.05951020 32354.24152963 0 189.52193697 0 12034.72507261 0 1571.05695652 0 -1397.46863308 0 3787
0.06050000 0.06049470 32967.36289693 0 667.51592449 0 10640.20669791 0 806.09932124 0 -1573.28628711 0 3930
0.06150000 0.06148310 30910.16768697 0 208.69196178 0 11866.91526278 0 484.85167459 0 -1405.90903396 0 4083
0.06250000 0.06249100 31494.78467811 0 43.36314180 0 9830.71568865 0 1334.99192067 0 1248.99077954 0 4303
0.06350000 0.06350600 31401.72953572 0 -54.07257975 0 10023.22559408 0 2834.00046182 0 2412.37970103 0 4470
0.06450000 0.06451750 31399.73312027 0 414.76085548 0 8586.74922133 0 -513.20521047 0 1579.36426303 0 4479
0.06550000 0.06550280 30918.15334877 0 1252.04085870 0 11610.48678934 0 -913.10608028 0 3225.71935563 0 4636
0.06650000 0.06648880 28183.39691725 0 1491.42216243 0 11461.31019038 0 -1824.77917791 0 1796.68517604 0 4653
0.06750000 0.06749660 28160.32722760 0 405.33555631 0 13352.13744612 0 -665.92101037 0 3201.54054629 0 5220
0.06850000 0.06852730 27378.28693078 0 -638.85183510 0 12667.03421063 0 2448.35954393 0 664.99156807 0 5029
0.06950000 0.06949320 29171.28982943 0 -288.59627195 0 11638.54751762 0 917.30853480 0 1131.80119258 0 5040
0.07050000 0.07048030 29114.72472499 0 -819.90453408 0 9432.63044778 0 2084.20227453 0 628.85755753 0 5475
0.07150000 0.07148790 29280.98176725 0 381.85327413 0 9749.68340374 0 53.16066153 0 813.89310533 0 5509
0.07250000 0.07249820 29128.03416133 0 600.00380867 0 8153.93744282 0 430.03454279 0 1250.04444325 0 5916
0.07350000 0.07351270 27952.14546088 0 669.73860036 0 8895.71669472 0 176.61400196 0 116.11484997 0 5721
0.07450000 0.07449140 27252.18002148 0 804.32362061 0 9338.22217936 0 -601.12180132 0 1258.27411138 0 6028
0.07550000 0.07549160 26191.08520944 0 515.32362909 0 9667.56418154 0 1595.43540741 0 2959.79681760 0 6183
0.07650000 0.07648840 25405.16299369 0 66.38048100 0 8111.76871202 0 2071.91322831 0 3810.62471789 0 6330
0.07750000 0.07749960 25661.36964319 0 8.52313012 0 7459.69506104 0 2301.53427873 0 5761.81026742 0 6583
0.07850000 0.07848650 24718.83972653 0 445.53227229 0 7646.72591518 0 474.51246080 0 6369.59676899 0 6549
0.07950000 0.07947320 25022.18396307 0 695.64652731 0 6915.29475004 0 -159.92729616 0 7595.36258211 0 6828
0.08050000 0.08048110 23255.13446528 0 394.65806101 0 8274.47657125 0 -575.07967089 0 5814.65982088 0 7147
0.08150000 0.08149960 23344.52951268 0 521.58239152 0 8226.66242121 0 130.13412291 0 6946.11718635 0 7386
0.08250000 0.08250610 22673.84483322 0 314.74376876 0 9110.47554122 0 -132.82262905 0 5654.41420737 0 7227
0.08350000 0.08350160 22470.32136922 0 221.60987886 0 8355.55322094 0 215.14260192 0 6212.29032267 0 7798
0.08450000 0.08449610 21979.31408032 0 117.45244832 0 8643.55833210 0 810.58792864 0 5271.93428061 0 7371
0.08550000 0.08548940 22176.51556206 0 236.40775383 0 7317.78319609 0 661.02535604 0 5048.09174380 0 8256
0.08650000 0.08650700 21212.91237120 0 141.99283069 0 7210.26513287 0 643.74748943 0 5021.36195916 0 8037
0.08750000 0.08749060 21797.52936234 0 -108.41889023 0 7170.38118865 0 552.62110618 0 5468.21519300 0 8155
0.08850000 0.08849210 20892.70951531 0 104.02045426 0 6174.66898262 0 474.78641336 0 3901.39507372 0 8718
0.08950000 0.08949900 21571.49076854 0 476.14286675 0 7348.10652855 0 -1128.96184616 0 2881.32659919 0 8571
0.09050000 0.09049190 20235.55609612 0 761.59700260 0 7041.37947694 0 -1427.30395287 0 1884.15035517 0 8932
0.09150000 0.09150830 19781.59340503 0 574.15577418 0 8856.07675682 0 -821.13011134 0 2234.95382345 0 9285
0.09250000 0.09250820 19107.13771861 0 231.70064985 0 8723.76986843 0 -234.58768841 0 135.07414203 0 9204
0.09350000 0.09350330 19513.51917479 0 -131.52606813 0 8187.13339528 0 1089.00137268 0 1090.27907857 0 9349
0.09450000 0.09448040 19190.54351966 0 -245.99387535 0 8228.37046554 0 1046.62967298 0 78.47687313 0 9564
0.09550000 0.09549270 19627.09303154 0 112.60004966 0 7476.38731245 0 539.14862925 0 1085.07287072 0 10155
0.09650000 0.09649430 19616.44548247 0 -11.49236554 0 6351.42938838 0 804.35467596 0 -62.46861584 0 9913
0.09750000 0.09749140 19121.55627464 0 356.03074940 0 6452.76965490 0 -1.25912813 0 2208.53459231 0 10476
0.09850000 0.09850240 18325.76289361 0 491.30896945 0 6227.04161461 0 -416.76059829 0 134.83235394 0 10575
0.09950000 0.09950330 18181.13368540 0 597.78002368 0 7693.12039201 0 -296.43774819 0 261.91750681 0 10882
0.10050000 0.10051200 17084.87977904 0 453.78301370 0 6470.83721473 0 -545.49723038 0 -471.24277594 0 10875
0.10150000 0.10150300 16924.94471905 0 188.60913146 0 7598.43484367 0 380.09088294 0 160.45634625 0 11118
0.10250000 0.10250800 16411.97686019 0 30.07655332 0 6300.44315601 0 650.82478220 0 -192.71065610 0 11575
0.10350000 0.10349800 16726.85594155 0 36.73714983 0 6003.48744892 0 1072.19377282 0 -1154.91524702 0 11364
0.10450000 0.10450100 16378.48144541 0 458.01208710 0 6407.60630093 0 -72.28587790 0 681.28564550 0 12093
0.10550000 0.10551000 15407.77988850 0 566.00818090 0 5606.55569254 0 95.51694447 0 543.22353501 0 12067
0.10650000 0.10649700 15264.14888802 0 68.85415065 0 5842.12162452 0 550.10118624 0 1800.31199744 0 12054
0.10750000 0.10749900 14762.16131415 0 296.03513775 0 6328.13787479 0 250.18080220 0 1708.35488354 0 12807
0.10850000 0.10850100 14750.95920523 0 205.43780459 0 6364.37281522 0 363.40417713 0 2072.24596422 0 12736
0.10950000 0.10950300 14441.62572234 0 63.59448324 0 5989.91182386 0 202.67055095 0 2580.36697000 0 12933
0.11050000 0.11050200 14249.30436726 0 -132.66513406 0 5987.02811265 0 282.24988906 0 1991.75714796 0 13428
0.11150000 0.11150900 14727.88951558 0 74.29427185 0 5783.31609830 0 28.40344626 0 2394.22341162 0 13453
0.11250000 0.11250000 14511.72208705 0 119.20374832 0 5035.25922893 0 189.73266971 0 1381.75240701 0 13668
0.11350000 0.11349100 14635.49984500 0 -119.70839778 0 5040.27244995 0 836.76758992 0 2541.86942540 0 13791
0.11450000 0.11448600 14549.65398062 0 -187.33142558 0 4559.42469746 0 635.94372326 0 1932.90725695 0 14205
0.11550000 0.11549300 14460.70258109 0 97.90210637 0 3876.77261649 0 495.81865013 0 1566.33210662 0 14776
0.11650000 0.11649800 14382.39873064 0 360.71123451 0 4220.48880992 0 -516.67120952 0 1278.24935709 0 14553
0.11750000 0.11747300 13813.97488704 0 398.01536632 0 4260.17311260 0 -743.10797729 0 1103.76153758 0 14568
0.11850000 0.11849100 13827.94979520 0 -16.22764117 0 4574.83037002 0 -190.01771348 0 758.49257658 0 16015
0.11950000 0.11950300 13675.44583716 0 -109.70535817 0 4575.30729149 0 82.76683719 0 -130.49791417 0 15270
0.12050000 0.12050700 14023.37668542 0 -77.34623651 0 4344.96531327 0 25.56299073 0 -350.09141343 0 15999
0.12150000 0.12150000 14163.45850288 0 118.11902926 0 4208.79868834 0 -177.45582381 0 -977.02908477 0 15670
0.12250000 0.12250700 13956.82950373 0 243.74458061 0 4699.95016279 0 -217.11350762 0 -828.43366453 0 16887
0.12350000 0.12352200 13526.15832624 0 151.41036602 0 4946.35219420 0 -20.60633481 0 -629.24020382 0 16407
0.12450000 0.12449800 13571.74314569 0 226.17612465 0 4639.10385634 0 459.60811034 0 -444.87234607 0 16306
0.12550000 0.12549900 13306.66353863 0 175.67568670 0 4914.34299980 0 304.70401728 0 -21.04210794 0 17523
0.12650000 0.12650100 12879.43063218 0 91.57890408 0 4747.35393855 0 330.92027951 0 296.01406447 0 17154
0.12750000 0.12750600 12822.31096790 0 85.01579920 0 4463.99603892 0 278.06739869 0 818.35620299 0 18007
0.12850000 0.12850300 12746.66900471 0 111.03619089 0 4440.61579575 0 182.23169322 0 58.20848709 0 17496
0.12950000 0.12949900 12459.40700376 0 238.16681767 0 3947.15735233 0 -292.21865688 0 260.75847673 0 18405
0.13050000 0.13049000 12198.32022759 0 184.13494261 0 4883.75347862 0 -48.35883873 0 243.88654793 0 18100
0.13150000 0.13148800 12182.23799202 0 -38.30977064 0 3711.31414042 0 256.49502062 0 6.63783737 0 19059
0.13250000 0.13249300 12298.80647195 0 -58.39237913 0 3833.78313712 0 631.91207317 0 -3.08349694 0 18957
0.13350000 0.13349100 12234.03388177 0 -24.89652070 0 3400.16170123 0 66.05018515 0 -243.71019790 0 19468
0.13450000 0.13450700 12079.31168434 0 185.53797903 0 3380.48591785 0 51.01429310 0 -232.71549437 0 19953
0.13550000 0.13551000 12003.89154509 0 212.79348641 0 3520.43464094 0 -156.45020591 0 -404.72110400 0 19956
0.13650000 0.13649900 11643.64946821 0 211.29173834 0 3467.88454980 0 -220.02161946 0 -250.10981854 0 19723
0.13750000 0.13749600 11450.99537722 0 227.00685530 0 3681.64518858 0 -18.29115836 0 -755.58668298 0 20946
0.13850000 0.13851100 11081.19268858 0 164.69872908 0 3845.38452913 0 -11.80413909 0 -353.34889797 0 20955
0.13950000 0.13949800 11111.71566258 0 105.71330365 0 3515.53233189 0 372.84611309 0 -214.86421288 0 20506
0.14050000 0.14048300 10994.85881153 0 63.60768176 0 4095.23592278 0 248.73672836 0 -40.72543334 0 21447
0.14150000 0.14148400 10684.29420578 0 201.08783715 0 3255.29957789 0 51.92809682 0 -64.21559027 0 21771
0.14250000 0.14249400 10819.36280222 0 -22.10342457 0 3515.75415583 0 518.88057595 0 311.36871753 0 22470
0.14350000 0.14350900 10600.15638573 0 -18.02585693 0 3341.44490459 0 223.77266227 0 517.67607196 0 22519
0.14450000 0.14449900 10672.42662505 0 97.74549867 0 2762.10732320 0 241.32669968 0 1049.93706791 0 22218
0.14550000 0.14550500 10538.11223001 0 72.61306821 0 3149.42301183 0 -10.32316483 0 934.26364757 0 23559
0.14650000 0.14650700 10482.67842766 0 -91.25803575 0 2841.90848524 0 390.42566025 0 1038.73052251 0 23044
0.14750000 0.14750500 10733.45039066 0 -68.94620759 0 2531.58788583 0 422.31728796 0 1743.51397787 0 23649
0.14850000 0.14849900 10534.82923571 0 -27.99795210 0 2351.51121217 0 123.39622077 0 1168.49087209 0 23640
0.14950000 0.14949500 10834.16955014 0 181.77473590 0 2279.75116792 0 101.67788255 0 1208.20844836 0 24457
0.15050000 0.15050000 10386.10737583 0 201.11223778 0 2794.24961195 0 -434.03402841 0 845.93890068 0 24591
0.15150000 0.15149900 10117.12366744 0 249.43769201 0 2609.64772995 0 -603.54633697 0 887.38559455 0 25020
0.15250000 0.15250500 9956.15712613 0 269.86767679 0 3205.06754692 0 -228.79586537 0 233.67044642 0 25297
0.15350000 0.15350100 9634.64550900 0 225.16349837 0 3401.83647197 0 -284.36498032 0 40.09512062 0 25452
0.15450000 0.15450400 9432.49735342 0 115.64458322 0 3333.20414526 0 17.71619071 0 39.13917035 0 26061
0.15550000 0.15549900 9323.35997545 0 11.92336946 0 3478.53209887 0 375.67991391 0 64.08316138 0 26128
0.15650000 0.15649500 9253.85144417 0 40.20259431 0 2717.94217695 0 366.58845977 0 -99.60227595 0 26331
0.15750000 0.15749700 9286.80339031 0 71.27546986 0 3073.76995744 0 247.38803881 0 209.11009990 0 27345
0.15850000 0.15849900 9217.49450058 0 -34.90865510 0 2572.86932087 0 194.88674894 0 816.84447284 0 26980
0.15950000 0.15949700 9240.36454868 0 -1.85420412 0 2541.40359512 0 267.03498508 0 738.74580953 0 27777
0.16050000 0.16050000 9312.46842005 0 -7.77031512 0 2428.79467251 0 128.27523830 0 302.62996345 0 28224
0.16150000 0.16150500 9232.11269816 0 39.83314654 0 2254.64069803 0 105.57599463 0 752.45341984 0 28075
0.16250000 0.16249700 9273.09467088 0 3.61395561 0 2009.81361659 0 108.18996793 0 562.83720769 0 28590
0.16350000 0.16349900 9160.82957537 0 143.14520605 0 2101.81509528 0 -42.29139944 0 501.37977628 0 29163
0.16450000 0.16449100 8964.20483587 0 192.34686484 0 2004.68948360 0 -99.39032318 0 -82.96792060 0 28996
0.16550000 0.16550500 8709.22930923 0 160.53731199 0 2209.42188807 0 70.59236304 0 682.22506988 0 30777
0.16650000 0.16650700 8605.40461460 0 101.24410584 0 1861.09175671 0 271.54355664 0 594.13434724 0 29211
0.16750000 0.16749900 8493.45007260 0 -13.01008493 0 2008.66013211 0 226.74066657 0 755.65433928 0 30922
0.16850000 0.16850800 8542.78371663 0 13.44108885 0 1411.77627715 0 212.12690547 0 504.17032144 0 30867
0.16950000 0.16949900 8455.66236460 0 52.15957010 0 1880.12425068 0 -11.78195669 0 1075.71966433 0 30852
0.17050000 0.17049200 8331.87351546 0 215.84023821 0 1817.20389039 0 -415.03148068 0 788.21032968 0 31257
0.17150000 0.17149500 8242.71138319 0 230.44179899 0 2199.24016927 0 -183.53379974 0 779.86642222 0 32608
0.17250000 0.17250900 7975.03643604 0 46.44239081 0 2302.17756815 0 -23.48849325 0 669.41917389 0 32361
0.17350000 0.17350400 8020.45488755 0 29.71220750 0 2432.54349708 0 34.92906290 0 505.56115753 0 32508
0.17450000 0.17449800 7948.88339364 0 39.13484478 0 2260.76303874 0 21.53522255 0 700.87380843 0 32791
0.17550000 0.17549800 7970.13412699 0 48.53197231 0 2372.27393286 0 -48.25014500 0 319.36547053 0 33633
0.17650000 0.17650100 7868.67185731 0 10.39184152 0 2500.48816958 0 -85.62648050 0 599.39268372 0 33984
0.17750000 0.17750300 7886.72832594 0 57.11944246 0 2407.61048634 0 39.73620948 0 20.48166976 0 34069
0.17850000 0.17849800 8008.07711175 0 -18.01609667 0 2187.25058537 0 222.25427741 0 516.94848944 0 34536
