### header ###
fiducial parameters:
Omega_m = 0.31
Omega_nu = 0
Omega_de = 0.69
Omega_k = 0
H_0 = 100
w_de = -1
zeff = 0
beta = 0
fgrowth = 0
b_1 = 2
gamma = 0.55
Lx = 3500 Ly = 3500 Lz = 3500
nx = 700 ny = 700 nz = 700
xoffset = 1379.75464 yoffset = 22.6059522 zoffset = 368.141391
bins = 400 dk = 0.001
kx_ny = 0.628318531 ky_ny = 0.628318531 kz_ny = 0.628318531
############################
A(data) = 3.360783 (not used)
A(ran) = 3.36598141 (used)
Ngal = 188519
weighted Ngal = 0
Nran = 9399747
weighted Nran = 0
SN(data) = 6599.81322
SN(ran) = 133.883199
SN(data+ran) = 6733.69642
############################
13 columns: k_central k_mean P_0(k) sigma^{lin}_{P_0(k)} P^img_1(k) sigma^{lin}_{P_1(k)} P_2(k) sigma^{lin}_{P_2(k)} P^img_3(k) sigma^{lin}_{P_3(k)} P_4(k) sigma^{lin}_{P_4(k)} N_modes
### header ###
0.00050000 0 0 0 0 0 0 0 0 0 0 0 0
0.00150000 0.00179520 30430.91706684 0 -10244.15114609 0 28590.11110934 0 -58143.15993773 0 79462.88053554 0 3
0.00250000 0.00253879 36310.02783318 0 -7136.30903162 0 -6204.31575206 0 -20259.51308153 0 -13689.53165728 0 6
0.00350000 0.00331552 42180.04381803 0 -6430.69817297 0 5525.30158370 0 -26827.49809033 0 -9798.44030553 0 7
0.00450000 0.00420575 50869.55297908 0 -10398.20787170 0 -7724.44193220 0 -3382.11632380 0 -24405.84614866 0 24
0.00550000 0.00557378 84255.16491293 0 -16667.96168576 0 4666.47693040 0 -5997.20983145 0 -9249.01568230 0 45
0.00650000 0.00659388 93488.25363642 0 -2.59152471 0 53966.10425506 0 -50863.34190879 0 -18511.54044249 0 40
0.00750000 0.00754703 106946.75566127 0 2181.13933585 0 10447.99625480 0 4433.04050824 0 -19737.67226512 0 57
0.00850000 0.00846663 102303.42605889 0 5643.66683753 0 65843.33433100 0 -3400.49443714 0 -4156.84752183 0 75
0.00950000 0.00948925 105612.81740430 0 13154.38140453 0 50439.54727340 0 -16481.62957703 0 -8593.68121942 0 112
0.01050000 0.01054430 75512.08527061 0 7459.68396984 0 76145.28170439 0 22563.70924753 0 -10261.27595418 0 105
0.01150000 0.01145670 73809.25380315 0 5676.19731818 0 56941.09601248 0 7525.44367655 0 13811.64573568 0 144
0.01250000 0.01249090 68743.46050902 0 -4317.79188075 0 33685.51789932 0 35267.67714399 0 -5230.29792727 0 169
0.01350000 0.01339930 83416.11586380 0 -3347.28996538 0 44102.48098506 0 26032.03744520 0 16153.33014736 0 180
0.01450000 0.01448870 77979.87659159 0 -3494.09304819 0 7349.39310739 0 2223.43006982 0 -9842.07307432 0 267
0.01550000 0.01550050 83499.96531272 0 1613.27005210 0 548.18130005 0 -2249.88257454 0 -545.10682025 0 238
0.01650000 0.01653350 76016.18017191 0 2116.41111046 0 1571.68915474 0 -8852.59412098 0 -9517.86629633 0 315
0.01750000 0.01747870 75726.03445975 0 2055.90863111 0 197.09167889 0 8018.35865132 0 7358.04424101 0 297
0.01850000 0.01844180 68961.51344102 0 -963.58988143 0 5042.19122703 0 7053.60197598 0 8314.01668837 0 388
0.01950000 0.01947590 74584.75029377 0 664.22405724 0 -9998.01530341 0 2295.76685631 0 1416.98913971 0 399
0.02050000 0.02045430 72008.59797861 0 3335.44456704 0 420.43954831 0 5893.91751427 0 12395.18897343 0 462
0.02150000 0.02154770 69128.21413116 0 1969.99621955 0 -1158.00969097 0 -7980.63749050 0 9351.55379809 0 571
0.02250000 0.02255340 64395.04583350 0 2080.17617003 0 15275.12917300 0 -7364.69895918 0 6787.54634359 0 510
0.02350000 0.02348930 61890.54265062 0 3058.51956164 0 8905.90950471 0 -3093.90047990 0 3096.58454957 0 555
0.02450000 0.02439640 63139.18960306 0 0.32038475 0 9886.38240613 0 1512.26252150 0 5692.25737136 0 592
0.02550000 0.02547300 61365.04173922 0 -3107.58701694 0 8619.74553225 0 6657.35787381 0 3687.22406065 0 837
0.02650000 0.02652900 66118.83966320 0 531.33931748 0 4805.51617535 0 1194.24463140 0 -6696.23251911 0 723
0.02750000 0.02749970 62565.44198492 0 4439.37358169 0 11989.69481300 0 -6151.89875529 0 3533.22279102 0 826
0.02850000 0.02848090 57339.49180686 0 3787.24447473 0 11184.69573850 0 -6797.33987049 0 -1455.48668432 0 831
0.02950000 0.02946900 52503.06446562 0 2063.25100349 0 14197.84121342 0 3496.95457700 0 4493.14370450 0 996
0.03050000 0.03053250 52344.23852532 0 -634.96658881 0 10356.83770708 0 5326.44751361 0 1226.05418425 0 1041
0.03150000 0.03150510 54147.99988501 0 -2259.83137820 0 10292.51985598 0 8025.92284764 0 7487.10140870 0 1036
0.03250000 0.03246190 55343.96365194 0 -1920.61821074 0 4555.26549860 0 4191.09713801 0 5359.21090940 0 1059
0.03350000 0.03345080 57604.79323786 0 -492.00216926 0 -554.84045469 0 2433.70807276 0 9515.61478335 0 1302
0.03450000 0.03451200 56358.47543679 0 810.04224175 0 2100.97216431 0 -3805.53385850 0 9381.95476893 0 1339
0.03550000 0.03553350 55235.93539366 0 2324.21577648 0 4033.35813501 0 -3216.70221251 0 1029.58139415 0 1365
0.03650000 0.03647120 53047.30949987 0 2245.96738202 0 9579.33370982 0 -2672.08007757 0 8003.52972100 0 1308
0.03750000 0.03744890 51165.46611366 0 1603.36561323 0 12375.77937877 0 -2990.26433562 0 2507.83054196 0 1579
0.03850000 0.03847530 49184.91107462 0 -241.06272919 0 12884.19984687 0 2418.85696004 0 393.45133878 0 1662
0.03950000 0.03950240 51207.83448600 0 240.55475237 0 15097.33728592 0 1856.40018041 0 2662.50837460 0 1683
0.04050000 0.04050350 49006.78645163 0 1647.25347955 0 13147.28303848 0 -2634.74710864 0 670.12346489 0 1822
0.04150000 0.04152450 49351.61176475 0 1784.71777453 0 18254.33558526 0 -2151.70329915 0 4008.85768095 0 1887
0.04250000 0.04250150 44565.76028159 0 1263.37606198 0 14515.60400599 0 442.92805925 0 -964.61470802 0 1920
0.04350000 0.04349210 44365.00961683 0 1187.27935972 0 18594.39168370 0 2657.69479513 0 6658.27844315 0 2005
0.04450000 0.04448520 41665.19045569 0 1039.33499274 0 18020.97680147 0 2146.82317249 0 4128.60933440 0 2151
0.04550000 0.04548030 41938.58846047 0 2149.58488054 0 18207.75255808 0 1068.29299886 0 5498.71598461 0 2274
0.04650000 0.04648670 37909.26752115 0 1348.72282249 0 16183.94185094 0 1133.98615838 0 6227.10816179 0 2311
0.04750000 0.04749250 36345.18692751 0 751.40419261 0 16162.64675280 0 1495.71445565 0 7430.62503384 0 2568
0.04850000 0.04851840 37134.65832628 0 -305.80093666 0 14991.52726703 0 517.20247785 0 5063.20904524 0 2493
0.04950000 0.04949480 36897.08488765 0 91.87969734 0 12911.59510333 0 3143.25630632 0 535.85232552 0 2644
0.05050000 0.05050630 36065.91058835 0 149.27863797 0 11799.36987337 0 -156.78626918 0 4819.85709300 0 2829
0.05150000 0.05149060 34675.73996286 0 626.65151845 0 8588.06907377 0 1761.04916024 0 1609.82068985 0 2784
0.05250000 0.05249300 35367.27609258 0 232.77871419 0 11355.61108347 0 1256.02259840 0 6598.79635392 0 3055
0.05350000 0.05348950 34198.15302227 0 35.41363730 0 6335.19187605 0 4018.83975820 0 2154.32082163 0 3009
0.05450000 0.05448610 35415.41188734 0 -422.70991633 0 9784.93122765 0 2121.24687233 0 8672.06270825 0 3336
0.05550000 0.05550870 34308.39951994 0 13.90525544 0 5963.35949836 0 -1179.93698734 0 5864.30401842 0 3349
0.05650000 0.05647670 35159.98162162 0 552.04658218 0 7110.98782899 0 -467.19781641 0 8092.78058285 0 3324
0.05750000 0.05747970 33499.74035044 0 499.66064076 0 10118.69861741 0 -2422.58360222 0 5241.74404252 0 3639
0.05850000 0.05849280 34872.16506082 0 24.72627083 0 8478.13312962 0 -806.88125062 0 476.45785674 0 3846
0.05950000 0.05951020 33460.36660128 0 527.03926042 0 10898.54285723 0 -176.35335884 0 4468.35487932 0 3787
0.06050000 0.06049470 33085.26232049 0 758.20753282 0 9952.24193361 0 -1300.78666928 0 -2441.92664970 0 3930
0.06150000 0.06148310 32774.81971791 0 374.21254855 0 10725.12090175 0 896.69887263 0 3285.45654240 0 4083
0.06250000 0.06249100 32495.09973087 0 581.20644808 0 11564.23649806 0 833.99146332 0 -1122.76186707 0 4303
0.06350000 0.06350600 31089.62325359 0 793.93893291 0 12201.98032259 0 -1820.46470229 0 283.64294339 0 4470
0.06450000 0.06451750 30690.56198740 0 1153.57321219 0 12218.50620604 0 -1201.94192208 0 -909.64895419 0 4479
0.06550000 0.06550280 29854.50756144 0 -214.54700465 0 14315.29698910 0 435.52246704 0 -1052.50024352 0 4636
0.06650000 0.06648880 29700.22901189 0 599.32280917 0 14556.97417060 0 -164.02216607 0 637.88135536 0 4653
0.06750000 0.06749660 29284.97459815 0 454.13127728 0 14099.35138452 0 703.64438943 0 -4312.25737347 0 5220
0.06850000 0.06852730 29628.91261551 0 -298.41752685 0 14842.79431596 0 -134.51403659 0 1221.28496956 0 5029
0.06950000 0.06949320 28790.75086214 0 143.38477591 0 13554.10814254 0 1747.77299749 0 -2514.55180731 0 5040
0.07050000 0.07048030 29908.52169058 0 223.10608133 0 13292.02315866 0 286.55549171 0 559.70394456 0 5475
0.07150000 0.07148790 28985.95592842 0 285.41531667 0 12758.86932136 0 -185.33168277 0 -1196.51832677 0 5509
0.07250000 0.07249820 28428.17963390 0 453.51238849 0 13252.42758555 0 856.30029687 0 -947.63297638 0 5916
0.07350000 0.07351270 27887.81651858 0 157.39295765 0 12353.92972078 0 249.50645743 0 -190.43141512 0 5721
0.07450000 0.07449140 27913.76991944 0 -106.69088175 0 10671.89424760 0 1305.16769208 0 -2619.87381353 0 6028
0.07550000 0.07549160 27641.25921042 0 499.44325330 0 11635.99654232 0 810.72878685 0 -1075.53444134 0 6183
0.07650000 0.07648840 26661.46287202 0 615.28969630 0 10022.07210960 0 -309.39781183 0 -2191.12141311 0 6330
0.07750000 0.07749960 26290.24051016 0 210.49871776 0 10485.62868605 0 1567.97360377 0 486.13603520 0 6583
0.07850000 0.07848650 25697.41603328 0 220.51850508 0 9725.77078312 0 600.72695471 0 -2046.51438730 0 6549
0.07950000 0.07947320 25287.81812998 0 591.10866871 0 9588.55049448 0 481.65851899 0 842.87107560 0 6828
0.08050000 0.08048110 24713.18321609 0 390.89038141 0 8827.30619194 0 528.94583718 0 -126.07252659 0 7147
0.08150000 0.08149960 23819.67638994 0 200.51885875 0 9226.47837011 0 477.67456105 0 631.12792554 0 7386
0.08250000 0.08250610 23929.25741579 0 404.47044295 0 9097.45447601 0 328.92386406 0 804.58648198 0 7227
0.08350000 0.08350160 23175.05602331 0 7.79439411 0 7591.86885507 0 944.45978493 0 1492.75310606 0 7798
0.08450000 0.08449610 23166.40488969 0 209.15890117 0 6972.91351818 0 1479.68767606 0 1659.10996909 0 7371
0.08550000 0.08548940 23214.42977248 0 343.72728462 0 6747.24093388 0 8.87070605 0 1725.30223248 0 8256
0.08650000 0.08650700 21929.07095815 0 686.73585968 0 6965.27168348 0 34.00328069 0 995.58465726 0 8037
0.08750000 0.08749060 21544.98280783 0 626.82454113 0 6689.86617206 0 -855.10355672 0 702.24246214 0 8155
0.08850000 0.08849210 20373.41967419 0 360.85098359 0 6211.53612128 0 151.21294271 0 659.57462748 0 8718
0.08950000 0.08949900 20329.16579837 0 68.18679333 0 6549.06342680 0 771.58462546 0 -663.60516845 0 8571
0.09050000 0.09049190 19832.05835115 0 9.45695344 0 5012.17844808 0 230.59929399 0 -1614.43462778 0 8932
0.09150000 0.09150830 19765.73299340 0 32.83648677 0 4505.72112184 0 1145.01080815 0 -1612.26075318 0 9285
0.09250000 0.09250820 19562.20952940 0 -62.01664956 0 3149.37864704 0 649.22210424 0 -1619.43675761 0 9204
0.09350000 0.09350330 19730.35207513 0 4.75233389 0 2443.08013418 0 889.20565997 0 -1535.85349741 0 9349
0.09450000 0.09448040 19468.48891518 0 187.88265806 0 2556.70944691 0 -293.57954674 0 -2545.13023730 0 9564
0.09550000 0.09549270 19061.77472309 0 408.58305878 0 1007.87481260 0 -579.34645435 0 -2432.70986503 0 10155
0.09650000 0.09649430 18424.91819433 0 394.21552225 0 3269.92886667 0 -936.49075992 0 -3275.62974190 0 9913
0.09750000 0.09749140 18340.95783343 0 275.11159470 0 3250.61909278 0 -515.00309350 0 -2729.07773869 0 10476
0.09850000 0.09850240 18054.69404019 0 119.16382001 0 3872.82415038 0 87.87577524 0 -4056.21709192 0 10575
0.09950000 0.09950330 17824.88443943 0 301.24800031 0 3655.94688525 0 -1041.29258901 0 -3802.73887686 0 10882
0.10050000 0.10051200 17542.39165316 0 487.23517282 0 5443.38200304 0 -580.53321242 0 -3220.45103708 0 10875
0.10150000 0.10150300 17165.84551676 0 353.84689272 0 5105.17813449 0 46.31994399 0 -3442.57443836 0 11118
0.10250000 0.10250800 16697.24244570 0 374.38557123 0 7071.93572453 0 -618.06915026 0 -1666.13069676 0 11575
0.10350000 0.10349800 16338.99678427 0 259.00384937 0 6630.23989727 0 110.24915955 0 -2984.34163645 0 11364
0.10450000 0.10450100 16543.18572009 0 7.54683860 0 7999.93617319 0 489.39019238 0 -1079.00820423 0 12093
0.10550000 0.10551000 16210.00616377 0 96.59478699 0 6773.90417134 0 126.48955560 0 -550.62912721 0 12067
0.10650000 0.10649700 16554.83147689 0 -178.36086548 0 7363.13510041 0 908.24148129 0 61.93934392 0 12054
0.10750000 0.10749900 16474.97485886 0 -5.67575367 0 6774.86910547 0 642.65057005 0 -519.34751534 0 12807
0.10850000 0.10850100 16387.02166706 0 331.07222890 0 6042.19572627 0 -14.76038672 0 742.18408059 0 12736
0.10950000 0.10950300 15730.42280773 0 404.00794004 0 6549.51816588 0 -28.08679259 0 -676.66948933 0 12933
0.11050000 0.11050200 15675.18864692 0 382.85702746 0 6420.58300136 0 -357.12545054 0 -666.12287015 0 13428
0.11150000 0.11150900 14574.60917375 0 479.48797175 0 6991.63545863 0 -305.68669733 0 -765.55877815 0 13453
0.11250000 0.11250000 14535.34633655 0 72.51302562 0 6286.14660315 0 62.42968573 0 -1331.97511510 0 13668
0.11350000 0.11349100 14319.28982000 0 -228.37772724 0 5768.59807995 0 1185.48258581 0 -1366.60183198 0 13791
0.11450000 0.11448600 14567.17807180 0 -46.00584129 0 5211.14343014 0 213.72736519 0 -2023.55560961 0 14205
0.11550000 0.11549300 14608.10458853 0 21.87017670 0 4805.63817851 0 208.53224854 0 -1603.46543400 0 14776
0.11650000 0.11649800 14603.00263794 0 103.54353279 0 5059.70422701 0 301.25909151 0 -1557.55896983 0 14553
0.11750000 0.11747300 14387.83341714 0 -68.31811311 0 4553.93455497 0 30.88587797 0 -971.42137559 0 14568
0.11850000 0.11849100 14574.94190966 0 -1.32969033 0 4290.39662428 0 808.07022694 0 -1052.65552028 0 16015
0.11950000 0.11950300 14643.37459483 0 26.65502998 0 5129.57876778 0 5.40344260 0 -595.09928138 0 15270
0.12050000 0.12050700 14385.94791366 0 310.49694945 0 4051.75843075 0 -576.36070413 0 -337.31879103 0 15999
0.12150000 0.12150000 14310.08412654 0 350.68590159 0 5417.27332542 0 -137.41105723 0 15.09833549 0 15670
0.12250000 0.12250700 13808.98384842 0 135.74405033 0 5030.74511177 0 353.76149050 0 299.26378518 0 16887
0.12350000 0.12352200 13706.39027664 0 29.19513590 0 5352.38982327 0 270.60080490 0 551.73824691 0 16407
0.12450000 0.12449800 13871.98184708 0 31.05257866 0 4977.69591677 0 674.89378870 0 460.49873345 0 16306
0.12550000 0.12549900 13555.21726224 0 32.05367009 0 4929.74867236 0 403.21824681 0 467.94203572 0 17523
0.12650000 0.12650100 13590.93091641 0 95.08594056 0 3921.85833209 0 568.91185626 0 1998.38968374 0 17154
0.12750000 0.12750600 13272.83538794 0 146.35721669 0 4036.39712297 0 292.25636694 0 1318.96514108 0 18007
0.12850000 0.12850300 13177.22927024 0 268.85505050 0 4004.88703244 0 233.94107163 0 1669.06986395 0 17496
0.12950000 0.12949900 12710.62261463 0 201.08561891 0 3517.79493607 0 145.96458832 0 1479.15529861 0 18405
0.13050000 0.13049000 12448.98127862 0 260.53443455 0 3762.20055202 0 -291.09622774 0 1348.24590103 0 18100
0.13150000 0.13148800 12316.77421100 0 12.14985170 0 3774.19013592 0 266.43606045 0 1382.77279713 0 19059
0.13250000 0.13249300 12242.24136751 0 -42.88522212 0 3322.91151449 0 61.84906157 0 382.58196577 0 18957
0.13350000 0.13349100 12291.04263408 0 32.02250383 0 3363.82694003 0 -106.29636787 0 174.10406409 0 19468
0.13450000 0.13450700 12248.45243780 0 186.43747510 0 3029.50499042 0 -240.27081773 0 -341.72199621 0 19953
0.13550000 0.13551000 12086.29913842 0 4.46127870 0 3038.72177509 0 193.90739625 0 51.45916101 0 19956
0.13650000 0.13649900 11846.84019630 0 250.45808213 0 3286.78748603 0 -73.88201206 0 -412.50046954 0 19723
0.13750000 0.13749600 11879.11557942 0 181.69266105 0 3286.43256773 0 -143.11525982 0 -798.46857774 0 20946
0.13850000 0.13851100 11418.05452229 0 246.72367611 0 3813.46406431 0 -3.06306695 0 102.61608690 0 20955
0.13950000 0.13949800 11304.70248948 0 225.24113674 0 3875.64131441 0 -310.27512551 0 62.44709891 0 20506
0.14050000 0.14048300 11070.10149163 0 64.53923139 0 4073.26426163 0 -94.00876351 0 118.04250000 0 21447
0.14150000 0.14148400 11047.24253472 0 138.62443418 0 4307.17760527 0 116.68493749 0 -146.30286982 0 21771
0.14250000 0.14249400 11026.56854361 0 53.65011605 0 4377.57343230 0 29.60251557 0 61.66816415 0 22470
0.14350000 0.14350900 10715.05009492 0 131.51054045 0 3941.98885455 0 95.03048457 0 -122.88935307 0 22519
0.14450000 0.14449900 10645.18664534 0 163.01841274 0 4429.85733471 0 100.73579628 0 192.26922646 0 22218
0.14550000 0.14550500 10727.11731720 0 -43.28605798 0 3581.26985620 0 304.86262140 0 -13.15238499 0 23559
0.14650000 0.14650700 10549.05924139 0 -148.97363005 0 3384.78930226 0 914.97938344 0 -130.58775287 0 23044
0.14750000 0.14750500 10568.09173536 0 147.07370801 0 2914.04563019 0 -174.06968138 0 235.11452027 0 23649
0.14850000 0.14849900 10362.72713266 0 216.22288451 0 2859.04438453 0 -0.73345753 0 362.23627409 0 23640
0.14950000 0.14949500 10252.44736141 0 92.75013448 0 2793.81705527 0 271.27958616 0 103.15744822 0 24457
0.15050000 0.15050000 10070.11917478 0 20.61942242 0 2766.93199387 0 240.17654255 0 320.45462607 0 24591
0.15150000 0.15149900 9930.81374111 0 148.90597375 0 2812.62772530 0 -25.17413336 0 155.89010047 0 25020
0.15250000 0.15250500 9902.52009769 0 148.80948033 0 2840.91027751 0 -241.48086732 0 456.19867640 0 25297
0.15350000 0.15350100 9761.61753166 0 120.57794762 0 3305.94198316 0 -86.36016318 0 274.93524467 0 25452
0.15450000 0.15450400 9543.90842676 0 61.54194633 0 3005.03780995 0 28.33823003 0 360.63359613 0 26061
0.15550000 0.15549900 9500.32002276 0 155.34885006 0 3373.26554864 0 -11.02586980 0 522.33437468 0 26128
0.15650000 0.15649500 9583.59272944 0 33.65801173 0 3104.02674272 0 240.29521836 0 694.60617304 0 26331
0.15750000 0.15749700 9467.07970550 0 -116.53631545 0 2733.84695337 0 817.93362838 0 413.56633357 0 27345
0.15850000 0.15849900 9470.22960544 0 60.99792312 0 2491.14938175 0 27.11110000 0 938.62359709 0 26980
0.15950000 0.15949700 9370.53083607 0 187.91482253 0 2464.15340838 0 41.26513098 0 850.20346590 0 27777
0.16050000 0.16050000 9128.73165140 0 185.60008973 0 2357.62246169 0 74.38521966 0 937.54996923 0 28224
0.16150000 0.16150500 8894.56321023 0 5.94208658 0 2154.35409522 0 75.94874569 0 640.98578139 0 28075
0.16250000 0.16249700 8796.39502604 0 73.71775143 0 1932.82961858 0 276.43699274 0 759.73700888 0 28590
0.16350000 0.16349900 8833.40635026 0 44.29458052 0 1911.05759897 0 -18.61590861 0 480.90431760 0 29163
0.16450000 0.16449100 8629.16195846 0 222.31527899 0 1730.45963906 0 -249.97561506 0 224.79637975 0 28996
0.16550000 0.16550500 8481.06120561 0 129.52299796 0 2185.52035865 0 -336.24627228 0 199.18015127 0 30777
0.16650000 0.16650700 8379.35492959 0 -6.24262475 0 2096.01439928 0 26.39172496 0 -455.33356303 0 29211
0.16750000 0.16749900 8356.42942550 0 132.98012405 0 2413.94355980 0 -229.60995922 0 -335.40888691 0 30922
0.16850000 0.16850800 8508.38991489 0 -49.21297180 0 2439.94132544 0 -50.08252164 0 -544.07977541 0 30867
0.16950000 0.16949900 8336.78691571 0 58.40502310 0 2585.67965334 0 -145.08172904 0 -791.59979947 0 30852
0.17050000 0.17049200 8378.33453948 0 151.83183150 0 2861.75063658 0 -330.14500484 0 -880.90944466 0 31257
0.17150000 0.17149500 8231.44272709 0 165.03368323 0 3157.15357610 0 -464.60025808 0 -1493.05256838 0 32608
0.17250000 0.17250900 8111.84635040 0 190.77080575 0 3437.64994692 0 -210.44991649 0 -1009.66715003 0 32361
0.17350000 0.17350400 7946.60969827 0 77.82360163 0 3708.84080350 0 145.24033316 0 -1116.04060172 0 32508
0.17450000 0.17449800 7980.91477043 0 -102.52269902 0 3280.82042207 0 408.94019532 0 -1089.83764893 0 32791
0.17550000 0.17549800 8056.11308574 0 -9.52679471 0 3308.83678556 0 644.84551793 0 -819.01723832 0 33633
0.17650000 0.17650100 7937.79219669 0 65.44283121 0 2790.24568986 0 154.73107039 0 -40.02391513 0 33984
0.17750000 0.17750300 7888.08145197 0 49.99833946 0 2608.71606940 0 225.88331705 0 -313.21540182 0 34069
0.17850000 0.17849800 7867.57382881 0 149.32300275 0 3109.20633169 0 -253.73331258 0 -53.86628348 0 34536
