### header ###
fiducial parameters:
Omega_m = 0.31
Omega_nu = 0
Omega_de = 0.69
Omega_k = 0
H_0 = 100
w_de = -1
zeff = 0
beta = 0
fgrowth = 0
b_1 = 2
gamma = 0.55
Lx = 3500 Ly = 3500 Lz = 3500
nx = 700 ny = 700 nz = 700
xoffset = 1379.75464 yoffset = 22.6059522 zoffset = 368.141391
bins = 400 dk = 0.001
kx_ny = 0.628318531 ky_ny = 0.628318531 kz_ny = 0.628318531
############################
A(data) = 3.27533754 (not used)
A(ran) = 3.27083365 (used)
Ngal = 184165
weighted Ngal = 0
Nran = 9399747
weighted Nran = 0
SN(data) = 6739.01357
SN(ran) = 130.098661
SN(data+ran) = 6869.11223
############################
13 columns: k_central k_mean P_0(k) sigma^{lin}_{P_0(k)} P^img_1(k) sigma^{lin}_{P_1(k)} P_2(k) sigma^{lin}_{P_2(k)} P^img_3(k) sigma^{lin}_{P_3(k)} P_4(k) sigma^{lin}_{P_4(k)} N_modes
### header ###
0.00050000 0 0 0 0 0 0 0 0 0 0 0 0
0.00150000 0.00179520 87570.87824060 0 -25497.33084033 0 -48167.07193068 0 91074.69826851 0 -94475.25925284 0 3
0.00250000 0.00253879 145050.67368886 0 -35477.74441419 0 -13519.17087216 0 -63146.84252895 0 154901.87481827 0 6
0.00350000 0.00331552 141744.38787859 0 -14733.10237814 0 -47227.09298932 0 -28224.98890581 0 -60365.50307024 0 7
0.00450000 0.00420575 139169.01194721 0 6405.43242633 0 -36805.47160086 0 -29753.68858118 0 31832.06797731 0 24
0.00550000 0.00557378 116931.16206603 0 6152.77495984 0 -34134.37863982 0 -3210.11404153 0 16249.71264884 0 45
0.00650000 0.00659388 102582.59148608 0 6573.78570480 0 3128.71574712 0 -2293.77044086 0 -27814.72553069 0 40
0.00750000 0.00754703 104323.13302316 0 -6508.95765864 0 -58545.21582710 0 23049.94732174 0 24249.23844775 0 57
0.00850000 0.00846663 85922.17181425 0 2172.08891914 0 -40280.78725262 0 -19310.21753473 0 -7426.44365259 0 75
0.00950000 0.00948925 96654.45762922 0 13019.06880176 0 -49286.61735063 0 -40749.72305959 0 20962.25132017 0 112
0.01050000 0.01054430 66401.55427341 0 9883.43214774 0 -4141.35311969 0 -14526.25155506 0 -9009.16854830 0 105
0.01150000 0.01145670 68052.81167506 0 3282.57283119 0 -12385.09598420 0 -9176.75653419 0 4141.41966688 0 144
0.01250000 0.01249090 59926.84623094 0 122.51668885 0 12812.66162656 0 -1053.88997050 0 -15314.94657004 0 169
0.01350000 0.01339930 75251.22031839 0 -507.28251130 0 11396.87033612 0 -13812.20029553 0 -5846.38064415 0 180
0.01450000 0.01448870 69946.96628987 0 -1479.16638980 0 28438.49444706 0 1047.13321332 0 -3939.94807431 0 267
0.01550000 0.01550050 74533.73078781 0 -1693.78105075 0 23157.53193213 0 -5504.66086618 0 -10788.99510497 0 238
0.01650000 0.01653350 81227.04632213 0 815.84182864 0 41776.10242518 0 -9797.95229286 0 -4137.75957188 0 315
0.01750000 0.01747870 79793.06546869 0 5458.56585166 0 65219.78723857 0 -5975.64854458 0 -17718.29803676 0 297
0.01850000 0.01844180 80632.33634176 0 -584.45505967 0 50994.88350460 0 9262.11438590 0 -10717.57888782 0 388
0.01950000 0.01947590 81193.55090734 0 -605.23885363 0 55868.35544365 0 -5703.67021302 0 -14552.20495592 0 399
0.02050000 0.02045430 81262.20541645 0 2082.92678688 0 63313.09957120 0 8055.46979631 0 -13935.20166969 0 462
0.02150000 0.02154770 76307.21317983 0 6566.89807150 0 61473.51364537 0 2580.35587881 0 -15568.60224425 0 571
0.02250000 0.02255340 81139.86951411 0 1019.88990625 0 75865.00715751 0 3857.49611620 0 3641.68360598 0 510
0.02350000 0.02348930 69207.18345343 0 -907.76788718 0 53117.07312867 0 10424.60492044 0 -19600.47415887 0 555
0.02450000 0.02439640 75312.22190161 0 1834.91653192 0 56750.43833694 0 4974.31310170 0 -4025.76066510 0 592
0.02550000 0.02547300 69834.94520070 0 3179.29160521 0 47645.67476214 0 3170.01936456 0 -4952.50780850 0 837
0.02650000 0.02652900 65400.68466080 0 1064.67172305 0 53617.50793498 0 10197.60139250 0 -6574.08516712 0 723
0.02750000 0.02749970 72221.77078395 0 -3812.15530307 0 36072.45439455 0 17159.19079860 0 11072.69683171 0 826
0.02850000 0.02848090 70905.57844211 0 -5012.38918083 0 29087.88402838 0 17698.44479422 0 -5691.44771398 0 831
0.02950000 0.02946900 78251.94365273 0 13.53248031 0 10229.11148303 0 4580.50906286 0 4665.90018816 0 996
0.03050000 0.03053250 76821.62289429 0 1816.42750660 0 16931.04487737 0 -3622.44037927 0 6055.09478832 0 1041
0.03150000 0.03150510 65851.43090477 0 6155.85831260 0 13228.13786424 0 -8399.55199924 0 -4877.04330447 0 1036
0.03250000 0.03246190 65526.90248207 0 1306.94228359 0 21649.90553096 0 334.43840718 0 -2155.86249801 0 1059
0.03350000 0.03345080 64335.37519392 0 158.06508419 0 16963.76390837 0 -525.70609855 0 -17098.52195129 0 1302
0.03450000 0.03451200 60247.27091078 0 2386.35975299 0 22724.86433918 0 -3235.69034169 0 -15208.47107934 0 1339
0.03550000 0.03553350 58624.07423740 0 3357.20549545 0 19215.38780083 0 -3665.62950019 0 -16577.56843063 0 1365
0.03650000 0.03647120 55439.01520978 0 2948.98290058 0 23321.68164697 0 -3070.02113287 0 -18361.03289990 0 1308
0.03750000 0.03744890 53122.06416730 0 1214.48606583 0 28183.39691725 0 1822.48330014 0 -16122.05297197 0 1579
0.03850000 0.03847530 51281.59094571 0 1441.05703709 0 27467.23833030 0 1895.95138872 0 -9176.14651835 0 1662
0.03950000 0.03950240 48212.65675014 0 2902.38878220 0 26219.03502575 0 2884.67614067 0 -8484.94312454 0 1683
0.04050000 0.04050350 46319.83307895 0 1734.04209567 0 27153.91201652 0 1769.74465865 0 -4477.93767348 0 1822
0.04150000 0.04152450 44137.41825545 0 707.69378544 0 29671.17007589 0 5237.11901339 0 1413.01849120 0 1887
0.04250000 0.04250150 46287.22495993 0 -1157.35531035 0 23611.93827110 0 5004.74734613 0 1958.84956662 0 1920
0.04350000 0.04349210 44680.66508198 0 -1176.70944902 0 17202.55737866 0 5925.23905445 0 3349.34183682 0 2005
0.04450000 0.04448520 45916.11351004 0 -200.13510333 0 15756.26529661 0 1870.27526779 0 -28.34976487 0 2151
0.04550000 0.04548030 46160.34166684 0 947.14052723 0 13215.71572365 0 -614.10959295 0 5529.77133607 0 2274
0.04650000 0.04648670 43052.14463407 0 1241.73713673 0 13085.06142360 0 984.61213612 0 -1344.85199476 0 2311
0.04750000 0.04749250 42484.82991017 0 1843.90040145 0 13068.75736409 0 -1242.40260855 0 -1496.15810353 0 2568
0.04850000 0.04851840 39769.48307330 0 719.21421171 0 11958.86128548 0 -9.93242196 0 -3120.74117652 0 2493
0.04950000 0.04949480 37992.00785038 0 1947.84709924 0 16995.37381967 0 -768.61883939 0 -3636.14909870 0 2644
0.05050000 0.05050630 36460.75719971 0 1282.59710629 0 17798.59830266 0 -2235.17564738 0 806.23907032 0 2829
0.05150000 0.05149060 37037.83217693 0 -1135.17291645 0 12914.92246242 0 4595.10507804 0 -2969.65689169 0 2784
0.05250000 0.05249300 36796.93137921 0 -695.05980299 0 14854.66189669 0 1573.85193815 0 -531.15409449 0 3055
0.05350000 0.05348950 36963.85389328 0 1454.65484455 0 11754.22870179 0 -1317.34582633 0 -5055.84449047 0 3009
0.05450000 0.05448610 36589.19326037 0 1609.73196028 0 16907.08789196 0 -3150.67631708 0 -2141.19993564 0 3336
0.05550000 0.05550870 33107.88836226 0 1002.93922996 0 15872.83377654 0 -115.20759006 0 -2210.51991657 0 3349
0.05650000 0.05647670 34788.87017173 0 -689.97559831 0 17578.77077915 0 2330.60430593 0 -2698.90968299 0 3324
0.05750000 0.05747970 33951.15206623 0 -900.46987959 0 12713.50632584 0 3009.01954966 0 -5068.44409020 0 3639
0.05850000 0.05849280 36126.24669975 0 -384.28668274 0 11931.02238114 0 3291.50124473 0 -5053.24915038 0 3846
0.05950000 0.05951020 34805.39605519 0 724.06661037 0 10205.78669585 0 -1282.00927285 0 -3868.90895786 0 3787
0.06050000 0.06049470 34353.87342742 0 900.06948738 0 11075.10362145 0 -770.78273192 0 -4044.52697034 0 3930
0.06150000 0.06148310 32505.19272009 0 1302.53907840 0 12094.39571219 0 -691.50507437 0 -3585.48451104 0 4083
0.06250000 0.06249100 31153.28672408 0 1016.89084660 0 10378.66518268 0 842.75683627 0 -4559.39142387 0 4303
0.06350000 0.06350600 30218.07699740 0 388.20852998 0 12370.01195635 0 951.69790006 0 -3879.27922700 0 4470
0.06450000 0.06451750 29158.31312900 0 440.46692264 0 9762.11663552 0 1496.09155635 0 -2731.37361645 0 4479
0.06550000 0.06550280 28762.80104583 0 928.50620724 0 10524.70297290 0 1059.54869918 0 448.66775367 0 4636
0.06650000 0.06648880 27778.56822864 0 247.86274204 0 8743.23491907 0 1043.68606931 0 209.29199553 0 4653
0.06750000 0.06749660 27058.08407488 0 158.94905258 0 8939.69329062 0 811.31218380 0 0.57710160 0 5220
0.06850000 0.06852730 27554.52605029 0 200.43678389 0 8724.54625221 0 827.19477783 0 2184.15614142 0 5029
0.06950000 0.06949320 26355.45674821 0 443.40498072 0 8600.35811998 0 200.14841277 0 715.44320474 0 5040
0.07050000 0.07048030 26131.63639380 0 135.39800498 0 7938.19147978 0 -254.89123355 0 1763.05666689 0 5475
0.07150000 0.07148790 26069.30386695 0 413.13488600 0 9475.88611588 0 -440.68209186 0 1246.73926656 0 5509
0.07250000 0.07249820 25971.70133381 0 434.61853449 0 9604.94328357 0 -833.11414965 0 1110.25099691 0 5916
0.07350000 0.07351270 25916.24534906 0 204.72685887 0 10184.10340581 0 531.67981723 0 311.76245502 0 5721
0.07450000 0.07449140 25195.87210728 0 -65.52623701 0 10828.92341399 0 329.72908495 0 1023.15071816 0 6028
0.07550000 0.07549160 25286.26536241 0 451.87200047 0 11018.70488497 0 -500.52686324 0 196.16778218 0 6183
0.07650000 0.07648840 25832.95045998 0 -58.01472388 0 11231.83332553 0 418.60062786 0 1512.45107184 0 6330
0.07750000 0.07749960 25165.37131567 0 -279.87415467 0 10566.55005898 0 638.59673757 0 409.44151742 0 6583
0.07850000 0.07848650 25710.39273371 0 249.63844267 0 10975.09429857 0 34.19815302 0 365.15769537 0 6549
0.07950000 0.07947320 25954.84271444 0 164.55676176 0 10365.21156078 0 728.26573754 0 1669.46914704 0 6828
0.08050000 0.08048110 24430.35769391 0 248.78331139 0 9943.09169613 0 1010.02761393 0 10.88344774 0 7147
0.08150000 0.08149960 25280.05429211 0 215.19916703 0 9462.58777074 0 36.43691113 0 1156.60110896 0 7386
0.08250000 0.08250610 24568.77583182 0 338.78726550 0 8569.62441324 0 737.65776311 0 525.31790666 0 7227
0.08350000 0.08350160 23597.96336295 0 446.70017533 0 8999.69666611 0 249.37890866 0 38.19575314 0 7798
0.08450000 0.08449610 22983.28922808 0 834.04248283 0 8196.69400705 0 -465.91678316 0 1448.04449117 0 7371
0.08550000 0.08548940 22446.25347184 0 296.92576086 0 8928.39136093 0 930.36841921 0 -450.39687127 0 8256
0.08650000 0.08650700 21302.97289042 0 754.82693599 0 8365.83476051 0 -149.64242923 0 1019.93094368 0 8037
0.08750000 0.08749060 20473.12953475 0 1091.99155938 0 9053.21169138 0 -576.75111427 0 -85.13913331 0 8155
0.08850000 0.08849210 19187.54889649 0 716.33493698 0 9702.46817834 0 349.34608500 0 2066.53399779 0 8718
0.08950000 0.08949900 18761.64693367 0 210.07503404 0 8975.50676556 0 232.16093452 0 498.18440244 0 8571
0.09050000 0.09049190 18236.58967015 0 -95.27970377 0 9093.29527715 0 1037.60365690 0 1617.49579814 0 8932
0.09150000 0.09150830 18562.11630058 0 167.18093896 0 8860.63523877 0 -43.46440442 0 530.87792369 0 9285
0.09250000 0.09250820 18445.32599671 0 299.67637770 0 8696.74062146 0 -585.82038601 0 216.64545911 0 9204
0.09350000 0.09350330 18088.41127892 0 183.22990094 0 9024.80713600 0 55.05548162 0 69.81675564 0 9349
0.09450000 0.09448040 17919.04870152 0 -238.93654674 0 8263.10809438 0 509.07373961 0 -522.42310425 0 9564
0.09550000 0.09549270 18409.27960663 0 -315.83736078 0 7813.01623102 0 1662.94752323 0 -637.88357360 0 10155
0.09650000 0.09649430 18651.28952404 0 -165.72355568 0 5733.19497929 0 893.85508973 0 -1974.08887122 0 9913
0.09750000 0.09749140 18383.54802971 0 286.41796087 0 6164.90872931 0 70.02271917 0 -762.76157828 0 10476
0.09850000 0.09850240 17900.63731458 0 592.51946897 0 5549.01456277 0 -470.24900469 0 -1526.88071907 0 10575
0.09950000 0.09950330 17217.19775863 0 264.91323911 0 6285.09293944 0 -227.39948367 0 -977.26421814 0 10882
0.10050000 0.10051200 16754.25119802 0 299.50335503 0 5289.50273658 0 317.97463443 0 -3240.01590850 0 10875
0.10150000 0.10150300 16511.68672076 0 249.89797668 0 5910.95359278 0 -18.51176227 0 -2381.13579922 0 11118
0.10250000 0.10250800 15695.81827325 0 455.71731845 0 4835.07421521 0 60.19813691 0 -2462.66718799 0 11575
0.10350000 0.10349800 15545.53255460 0 149.22318198 0 5313.72591071 0 797.31398414 0 -1886.04694985 0 11364
0.10450000 0.10450100 15313.61562641 0 -179.49993141 0 4149.38314628 0 834.55156877 0 -1684.28698616 0 12093
0.10550000 0.10551000 15471.11062308 0 -2.92129927 0 3776.06454820 0 388.31500547 0 -1681.02617426 0 12067
0.10650000 0.10649700 15408.88900820 0 223.82922737 0 3961.25426365 0 -233.11255922 0 -1546.84487358 0 12054
0.10750000 0.10749900 15305.18631673 0 -111.32678025 0 3565.28744140 0 -28.75292988 0 -1997.40256721 0 12807
0.10850000 0.10850100 15378.16639265 0 -98.35274171 0 3544.51362952 0 328.49574385 0 -1367.48912773 0 12736
0.10950000 0.10950300 15505.27150968 0 -107.21771360 0 3083.19747485 0 47.40865588 0 -2421.99576878 0 12933
0.11050000 0.11050200 16006.14996386 0 -161.36471528 0 2919.92396457 0 574.04486221 0 -1671.19937376 0 13428
0.11150000 0.11150900 15978.08923558 0 -249.98005154 0 2218.45012239 0 415.23112223 0 -2077.73610670 0 13453
0.11250000 0.11250000 16162.75766477 0 -25.49588898 0 2026.25077047 0 124.39997409 0 -2374.48108105 0 13668
0.11350000 0.11349100 16297.18297178 0 221.92597798 0 2273.92828952 0 -26.93230990 0 -1275.50983144 0 13791
0.11450000 0.11448600 15796.41542957 0 213.63752650 0 1619.35911923 0 -453.82294201 0 -1870.40836215 0 14205
0.11550000 0.11549300 15646.68427077 0 367.80183672 0 2865.07799566 0 53.38048906 0 -1145.75391834 0 14776
0.11650000 0.11649800 15517.91547420 0 127.02415129 0 2508.54037857 0 185.71432906 0 -1151.82080307 0 14553
0.11750000 0.11747300 14682.85925597 0 331.36060003 0 3286.11092302 0 302.93275313 0 -563.10450554 0 14568
0.11850000 0.11849100 14586.14401858 0 441.43407502 0 3059.59540774 0 -155.76587906 0 414.94275111 0 16015
0.11950000 0.11950300 13970.47167598 0 443.52254740 0 3765.66100547 0 -299.05416155 0 -336.00781155 0 15270
0.12050000 0.12050700 13409.25711040 0 401.05657253 0 4130.06228120 0 -12.18279255 0 706.72663306 0 15999
0.12150000 0.12150000 13098.25994797 0 194.06600036 0 4634.53428319 0 -386.34853625 0 574.24006728 0 15670
0.12250000 0.12250700 13118.66775036 0 161.74514334 0 4353.54989971 0 101.34037743 0 701.78772306 0 16887
0.12350000 0.12352200 12792.58656008 0 38.19952415 0 4686.91800638 0 75.39573861 0 122.39024920 0 16407
0.12450000 0.12449800 12495.12065793 0 455.91695999 0 5361.15186886 0 -915.70142036 0 379.40988344 0 16306
0.12550000 0.12549900 12376.33393861 0 267.91118964 0 5375.99189038 0 -210.65288540 0 31.80589275 0 17523
0.12650000 0.12650100 12077.64800480 0 -16.86194672 0 5318.76131413 0 336.34387481 0 -306.44644432 0 17154
0.12750000 0.12750600 12029.29038610 0 -43.43567822 0 5544.75554314 0 71.50272849 0 -585.50095954 0 18007
0.12850000 0.12850300 12400.40183599 0 7.94993706 0 5351.41379794 0 146.57904063 0 169.56110982 0 17496
0.12950000 0.12949900 12272.63124715 0 -117.10862122 0 4944.71069705 0 766.90192210 0 -414.44808372 0 18405
0.13050000 0.13049000 12366.57368530 0 -109.67707561 0 4258.54270665 0 375.71207838 0 28.13437383 0 18100
0.13150000 0.13148800 12476.04379918 0 -30.65484833 0 4088.89175813 0 490.55365894 0 111.83475707 0 19059
0.13250000 0.13249300 12459.18517982 0 81.18112877 0 4065.56697095 0 180.94622349 0 21.65578387 0 18957
0.13350000 0.13349100 12404.94922674 0 60.51989253 0 3334.25780897 0 0.16904093 0 -25.88707550 0 19468
0.13450000 0.13450700 12344.05855549 0 37.61390895 0 3349.03128330 0 136.49603348 0 -406.68091850 0 19953
0.13550000 0.13551000 12096.94668749 0 129.52077972 0 3413.17167526 0 -200.34694519 0 -201.13774754 0 19956
0.13650000 0.13649900 12031.61953746 0 155.43647051 0 3208.41708839 0 246.30997447 0 -96.93317941 0 19723
0.13750000 0.13749600 11876.23186822 0 56.23148123 0 3359.27954928 0 154.80316317 0 -845.90340885 0 20946
0.13850000 0.13851100 11871.46265353 0 140.32804203 0 3192.85613908 0 -112.13754675 0 -389.51174562 0 20955
0.13950000 0.13949800 11588.41530741 0 199.72472905 0 3373.33209582 0 142.44424241 0 -630.30274049 0 20506
0.14050000 0.14048300 11280.52368013 0 205.98238236 0 2976.25615387 0 9.04869757 0 738.23561447 0 21447
0.14150000 0.14148400 11255.56848700 0 139.96092341 0 3313.45072349 0 581.29850501 0 186.77575661 0 21771
0.14250000 0.14249400 10878.93362103 0 123.57478904 0 2676.56092114 0 411.50337093 0 810.42821541 0 22470
0.14350000 0.14350900 10831.18601817 0 209.30308673 0 3120.41953181 0 33.95248301 0 652.35980386 0 22519
0.14450000 0.14449900 10512.36956189 0 273.53109914 0 3147.07167807 0 -599.72098314 0 1263.42042677 0 22218
0.14550000 0.14550500 10065.91561113 0 253.03789454 0 3285.37890402 0 106.86212983 0 1406.80742091 0 23559
0.14650000 0.14650700 9955.32528636 0 77.90157274 0 3639.83137609 0 25.49145251 0 391.95180895 0 23044
0.14750000 0.14750500 9951.94247129 0 81.38465223 0 3352.50282795 0 -9.96833526 0 990.75776835 0 23649
0.14850000 0.14849900 9798.59558229 0 49.05680775 0 3594.54601895 0 413.88465092 0 516.52480572 0 23640
0.14950000 0.14949500 9874.90301729 0 -48.25668880 0 3563.79012981 0 -122.17286174 0 1255.33494419 0 24457
0.15050000 0.15050000 9942.41513311 0 4.29771681 0 3064.65299355 0 66.59298833 0 359.84612115 0 24591
0.15150000 0.15149900 9953.61724203 0 66.80338834 0 3622.51801765 0 -460.14714251 0 538.78594711 0 25020
0.15250000 0.15250500 9815.69820798 0 237.47029050 0 3445.96834463 0 -290.82671166 0 110.70755872 0 25297
0.15350000 0.15350100 9659.13487186 0 98.48672337 0 4194.02521400 0 -332.91558584 0 -668.60840739 0 25452
0.15450000 0.15450400 9557.92769971 0 137.77484849 0 3941.70048343 0 -91.19259769 0 -556.65941099 0 26061
0.15550000 0.15549900 9451.46330020 0 66.97485824 0 4099.56148959 0 98.79250766 0 -1046.60970882 0 26128
0.15650000 0.15649500 9337.70089310 0 19.88429789 0 3809.31595665 0 116.83577777 0 -1156.64547375 0 26331
0.15750000 0.15749700 9330.01469362 0 159.42486493 0 3769.73147475 0 133.74541664 0 -1378.25867997 0 27345
0.15850000 0.15849900 9068.55081676 0 44.73689745 0 3452.94470751 0 113.67145928 0 -850.14135520 0 26980
0.15950000 0.15949700 9056.68323603 0 -18.68600497 0 3245.25095346 0 737.98384430 0 -737.06438407 0 27777
0.16050000 0.16050000 9050.98236079 0 27.26626584 0 2922.84094937 0 354.18295599 0 -403.47667170 0 28224
0.16150000 0.16150500 8974.20909552 0 56.61091108 0 2361.17164472 0 342.23219127 0 -301.02617637 0 28075
0.16250000 0.16249700 8854.66817481 0 116.73595700 0 2439.70841031 0 208.28713309 0 254.36551081 0 28590
0.16350000 0.16349900 8647.96153729 0 128.28411126 0 2240.24432439 0 133.32284204 0 393.80958444 0 29163
0.16450000 0.16449100 8616.54017633 0 15.55972929 0 2484.57230196 0 111.71275390 0 348.07947030 0 28996
0.16550000 0.16550500 8474.98322968 0 66.78786066 0 2069.59516814 0 103.64268809 0 761.65800419 0 30777
0.16650000 0.16650700 8381.40680103 0 88.90969662 0 2117.58677734 0 12.85136990 0 176.11933458 0 29211
0.16750000 0.16749900 8432.58158375 0 56.16349219 0 2083.66989707 0 -119.12278258 0 305.20312114 0 30922
0.16850000 0.16850800 8304.14552309 0 45.55986426 0 2253.76449347 0 -13.08151224 0 138.36822753 0 30867
0.16950000 0.16949900 8112.35654546 0 146.70104379 0 2259.35445673 0 -383.40604170 0 -104.92549593 0 30852
0.17050000 0.17049200 8176.60784938 0 144.38852923 0 2218.08411289 0 85.63368978 0 -349.91949988 0 31257
0.17150000 0.17149500 7957.51234487 0 24.82342971 0 2342.91553454 0 23.05216556 0 -436.76800846 0 32608
0.17250000 0.17250900 8092.43675574 0 -18.37589510 0 2103.88914911 0 326.34959724 0 -15.78232961 0 32361
0.17350000 0.17350400 7977.07721628 0 -6.22095255 0 2225.79249477 0 229.68870672 0 -242.99925218 0 32508
0.17450000 0.17449800 7951.03508585 0 67.03053605 0 1867.93502523 0 20.61986607 0 -56.70596264 0 32791
0.17550000 0.17549800 7993.48109657 0 86.35916497 0 2149.19668864 0 88.61322893 0 91.72885706 0 33633
0.17650000 0.17650100 7792.53079026 0 57.71903257 0 1832.70938372 0 57.30810372 0 82.57751046 0 33984
0.17750000 0.17750300 7871.10082944 0 45.32029441 0 2100.76143157 0 13.17600924 0 304.46333831 0 34069
0.17850000 0.17849800 7916.58582813 0 -31.15450676 0 1763.26739963 0 119.23813103 0 79.21410499 0 34536
