### header ###
fiducial parameters:
Omega_m = 0.31
Omega_nu = 0
Omega_de = 0.69
Omega_k = 0
H_0 = 100
w_de = -1
zeff = 0
beta = 0
fgrowth = 0
b_1 = 2
gamma = 0.55
Lx = 3500 Ly = 3500 Lz = 3500
nx = 700 ny = 700 nz = 700
xoffset = 1379.75464 yoffset = 22.6059522 zoffset = 368.141391
bins = 400 dk = 0.001
kx_ny = 0.628318531 ky_ny = 0.628318531 kz_ny = 0.628318531
############################
A(data) = 3.37275464 (not used)
A(ran) = 3.37108594 (used)
Ngal = 189952
weighted Ngal = 0
Nran = 9399747
weighted Nran = 0
SN(data) = 6635.29709
SN(ran) = 134.086234
SN(data+ran) = 6769.38332
############################
13 columns: k_central k_mean P_0(k) sigma^{lin}_{P_0(k)} P^img_1(k) sigma^{lin}_{P_1(k)} P_2(k) sigma^{lin}_{P_2(k)} P^img_3(k) sigma^{lin}_{P_3(k)} P_4(k) sigma^{lin}_{P_4(k)} N_modes
### header ###
0.00050000 0 0 0 0 0 0 0 0 0 0 0 0
0.00150000 0.00179520 10479.41761576 0 -16175.40162929 0 -27698.04613880 0 20999.18500601 0 2935.36291073 0 3
0.00250000 0.00253879 21185.62802671 0 -12360.80626289 0 -10204.34484024 0 -14889.71007905 0 22278.99822186 0 6
0.00350000 0.00331552 32929.87465124 0 -8566.77397563 0 -26632.18211207 0 4721.35617290 0 -14656.24038329 0 7
0.00450000 0.00420575 40960.67762554 0 -6753.88456085 0 -14672.76626674 0 -18331.41940405 0 8509.03320431 0 24
0.00550000 0.00557378 51552.99253503 0 -6757.82193576 0 -21832.02298485 0 -10207.82747608 0 1378.21431518 0 45
0.00650000 0.00659388 51041.46653178 0 -4820.38947045 0 -36873.34972618 0 -1830.59096511 0 -27625.39879879 0 40
0.00750000 0.00754703 59580.91179813 0 1746.77478977 0 4397.79268433 0 -37729.70104256 0 -9537.39789416 0 57
0.00850000 0.00846663 45786.90106559 0 6641.05381429 0 -21435.29087001 0 -8241.86845222 0 -17062.69738515 0 75
0.00950000 0.00948925 52981.87143787 0 3967.50969873 0 27603.88187671 0 -12479.03842235 0 -13563.42474798 0 112
0.01050000 0.01054430 46390.59491548 0 -4334.92778003 0 14607.66094066 0 2459.29546412 0 -15529.89396690 0 105
0.01150000 0.01145670 57314.20387782 0 -5408.63328300 0 18196.55044916 0 12320.65612993 0 -11193.01413621 0 144
0.01250000 0.01249090 61665.05861667 0 -7866.70871545 0 727.86090885 0 14453.60421505 0 -1772.41763711 0 169
0.01350000 0.01339930 67893.76391082 0 -3997.92176076 0 -2703.95617760 0 4892.40461224 0 -3668.44666422 0 180
0.01450000 0.01448870 74033.07415757 0 -323.03000200 0 5323.39743445 0 -9476.03030144 0 168.55292002 0 267
0.01550000 0.01550050 71342.46068990 0 964.54816084 0 -13347.03549552 0 -16667.96168576 0 -23189.14184344 0 238
0.01650000 0.01653350 76081.50732194 0 -608.03938086 0 10464.35577030 0 -1563.79222252 0 -16597.53258514 0 315
0.01750000 0.01747870 77249.85400846 0 1361.95462045 0 -5405.62756862 0 -11290.17302147 0 -35708.88495859 0 297
0.01850000 0.01844180 71800.85985977 0 4937.17977432 0 22608.40677123 0 -16966.75853154 0 -8924.97527227 0 388
0.01950000 0.01947590 62905.49808336 0 6740.46421254 0 19433.77346874 0 -3807.50809155 0 -32256.19534861 0 399
0.02050000 0.02045430 61325.00251823 0 960.59747649 0 27695.05151562 0 11450.10808147 0 -9159.42099336 0 462
0.02150000 0.02154770 64805.53103256 0 -5060.99080585 0 14662.22962964 0 18645.96574950 0 -2015.01538796 0 571
0.02250000 0.02255340 67902.74778035 0 -3941.32338273 0 11028.24331434 0 11412.28709987 0 -2809.61091973 0 510
0.02350000 0.02348930 69230.58587899 0 1733.95336610 0 6476.20535405 0 -491.61397737 0 12061.23303331 0 555
0.02450000 0.02439640 68124.57171931 0 1315.33831968 0 4244.34597455 0 -1379.61180600 0 8464.03621829 0 592
0.02550000 0.02547300 67976.61515202 0 1854.38158256 0 12419.36778277 0 -9296.46382285 0 12093.06476856 0 837
0.02650000 0.02652900 64923.65228005 0 2590.91469830 0 14954.92631711 0 -4587.65179369 0 -3815.59357413 0 723
0.02750000 0.02749970 63324.85623997 0 749.26470072 0 22629.14730952 0 3562.92501645 0 9197.79653480 0 826
0.02850000 0.02848090 64150.92858867 0 -1041.42235601 0 16913.07713831 0 -468.23484332 0 -7179.79761486 0 831
0.02950000 0.02946900 64530.13661233 0 -195.37808896 0 13115.56221521 0 6703.31979396 0 -3695.53136716 0 996
0.03050000 0.03053250 64531.24573203 0 191.12461493 0 14939.28772941 0 1793.13599301 0 7307.39074455 0 1041
0.03150000 0.03150510 61894.97912940 0 1331.53146722 0 10534.08612551 0 447.38006570 0 -4019.70487157 0 1036
0.03250000 0.03246190 62968.27425808 0 3460.53108622 0 11751.67772649 0 -1756.23558077 0 1736.42670302 0 1059
0.03350000 0.03345080 54212.99429913 0 2827.57865878 0 14443.73304976 0 -2039.81530434 0 -7868.79386048 0 1302
0.03450000 0.03451200 51685.08869069 0 4475.07614467 0 16020.23578398 0 -2510.07096375 0 2892.50652572 0 1339
0.03550000 0.03553350 46453.81473809 0 3055.09238178 0 20503.96306227 0 -1898.05871614 0 -6477.31447375 0 1365
0.03650000 0.03647120 46340.90635316 0 1019.64257256 0 23203.11675159 0 1066.76906840 0 204.60374658 0 1308
0.03750000 0.03744890 41453.45950595 0 439.86356153 0 21859.19641737 0 2467.14803156 0 -3258.88203451 0 1579
0.03850000 0.03847530 43477.71386097 0 -243.25656795 0 21296.76182013 0 2486.52435263 0 -2138.92624027 0 1662
0.03950000 0.03950240 43271.97215758 0 -192.60196236 0 19827.84369631 0 163.87576227 0 -1143.09203107 0 1683
0.04050000 0.04050350 43042.16255681 0 942.35578487 0 22050.74138867 0 -623.54376507 0 -2962.71380240 0 1822
0.04150000 0.04152450 43220.61991571 0 1366.93456788 0 26068.86021907 0 -1846.48465033 0 267.83798774 0 1887
0.04250000 0.04250150 41905.42578159 0 1202.86249143 0 25733.68424730 0 150.42324949 0 -2756.76136627 0 1920
0.04350000 0.04349210 40640.25294571 0 -133.99607769 0 24838.29191767 0 3301.23931565 0 3470.39116031 0 2005
0.04450000 0.04448520 42245.37096805 0 -1097.05912726 0 25224.93104328 0 3980.40876078 0 214.24532409 0 2151
0.04550000 0.04548030 42432.81219648 0 872.44020667 0 21086.58363796 0 1368.04368758 0 1756.53504308 0 2274
0.04650000 0.04648670 40796.08426283 0 2384.86244140 0 28057.40091992 0 -2719.02911425 0 4092.81804185 0 2311
0.04750000 0.04749250 37675.79782539 0 1530.77372920 0 22961.77230600 0 6.24419970 0 2240.99852578 0 2568
0.04850000 0.04851840 36888.98831388 0 870.17871161 0 27758.93681004 0 2325.96818560 0 5911.74106777 0 2493
0.04950000 0.04949480 36520.87148717 0 -854.04767477 0 21310.84764025 0 5027.52866466 0 2525.03298843 0 2644
0.05050000 0.05050630 37219.61689491 0 -577.41991344 0 23049.83640977 0 4084.89892723 0 5176.23943334 0 2829
0.05150000 0.05149060 38058.66594404 0 -102.94959919 0 16649.88303473 0 74.49180606 0 448.46478476 0 2784
0.05250000 0.05249300 37263.87077073 0 474.28287302 0 16441.81217998 0 540.76239841 0 2393.62448699 0 3055
0.05350000 0.05348950 36337.53400161 0 807.13412991 0 15489.74383395 0 -3610.85007846 0 -694.92227215 0 3009
0.05450000 0.05448610 37140.53666067 0 -111.30792521 0 16446.80321861 0 1124.81373850 0 -169.62543877 0 3336
0.05550000 0.05550870 36026.31501525 0 44.91857126 0 17318.79312268 0 1469.29522452 0 -6323.30211292 0 3349
0.05650000 0.05647670 36731.16058131 0 282.22105195 0 12240.24495206 0 2542.70126517 0 -4161.20636223 0 3324
0.05750000 0.05747970 34943.81419310 0 822.39118044 0 14985.75984462 0 -292.95400323 0 -4514.66062658 0 3639
0.05850000 0.05849280 33794.32254139 0 1471.05872483 0 11795.70977837 0 -820.20399640 0 -5736.36706162 0 3846
0.05950000 0.05951020 32022.17109300 0 927.80413447 0 15577.91884969 0 420.91314242 0 -1839.98520892 0 3787
0.06050000 0.06049470 31307.56527363 0 236.01623458 0 11173.82636549 0 1497.45577357 0 -4215.59759207 0 3930
0.06150000 0.06148310 31438.33048565 0 -448.07659287 0 12625.77495798 0 2214.53492986 0 -2361.40455985 0 4083
0.06250000 0.06249100 31602.14746457 0 -258.34281404 0 9697.72114604 0 2608.63843103 0 -3514.81140409 0 4303
0.06350000 0.06350600 31261.75863023 0 -33.46003387 0 8389.51446600 0 1076.24760531 0 -51.06619990 0 4470
0.06450000 0.06451750 31559.66818026 0 321.37630453 0 8591.86226312 0 -467.16787018 0 -2340.64183917 0 4479
0.06550000 0.06550280 31331.07861116 0 452.36999521 0 9445.16350033 0 -2398.56006963 0 -3350.65059806 0 4636
0.06650000 0.06648880 30043.72338138 0 959.16005736 0 10234.25779841 0 -628.56474993 0 -4534.62478108 0 4653
0.06750000 0.06749660 29721.85684594 0 239.19940810 0 10549.02596780 0 42.58941990 0 -2973.00643317 0 5220
0.06850000 0.06852730 30049.26897985 0 -749.36008501 0 10198.82142416 0 1861.89032290 0 -2505.63448497 0 5029
0.06950000 0.06949320 30163.50830842 0 -60.89056033 0 8555.66059628 0 1148.95927426 0 -6596.11228426 0 5040
0.07050000 0.07048030 31314.55272770 0 302.54234299 0 8695.70914015 0 -414.77194667 0 -2942.82728627 0 5475
0.07150000 0.07148790 28862.39999442 0 913.78375241 0 9302.29779244 0 -1693.67013878 0 -5699.07845748 0 5509
0.07250000 0.07249820 28795.74190076 0 812.60985385 0 11614.14688433 0 -884.55623021 0 -2540.46084338 0 5916
0.07350000 0.07351270 28099.43655635 0 397.53400838 0 9567.53267626 0 93.30070150 0 -6029.35212020 0 5721
0.07450000 0.07449140 27187.29651933 0 407.11458430 0 11446.55889844 0 -174.54327549 0 -6265.17314972 0 6028
0.07550000 0.07549160 27372.40859640 0 590.78480576 0 10533.79775439 0 948.15315351 0 -3442.15297288 0 6183
0.07650000 0.07648840 26524.48658970 0 102.93917347 0 10795.30599604 0 1072.06622406 0 -4431.21046074 0 6330
0.07750000 0.07749960 26385.40297997 0 215.42320921 0 9896.66394570 0 999.46990355 0 -2678.08041512 0 6583
0.07850000 0.07848650 25417.80695821 0 312.77619042 0 8643.83561202 0 512.43769964 0 -3560.47386192 0 6549
0.07950000 0.07947320 25430.56183470 0 642.31228855 0 9994.24429645 0 307.60325616 0 -1803.08479668 0 6828
0.08050000 0.08048110 24588.62907436 0 380.15410276 0 8661.01587609 0 333.98255898 0 -2258.73334970 0 7147
0.08150000 0.08149960 23980.49874569 0 290.41079177 0 9866.00787734 0 1070.10862780 0 -371.63273614 0 7386
0.08250000 0.08250610 23186.14722026 0 597.21326351 0 7738.11737803 0 8.19826896 0 -1233.23018867 0 7227
0.08350000 0.08350160 22806.05190084 0 500.97494760 0 8121.58442132 0 597.66800259 0 -424.80837079 0 7798
0.08450000 0.08449610 22092.77702510 0 241.76923844 0 8063.67728205 0 690.61777861 0 -298.03709879 0 7371
0.08550000 0.08548940 21950.03332038 0 23.04429081 0 7189.04767311 0 839.75112190 0 -233.84568734 0 8256
0.08650000 0.08650700 21324.37890053 0 196.07239789 0 6950.97513062 0 457.92779400 0 -700.92926442 0 8037
0.08750000 0.08749060 21182.74431550 0 502.73512055 0 5481.06989027 0 367.23840391 0 -637.15155461 0 8155
0.08850000 0.08849210 20513.27966771 0 -63.98544793 0 5877.44708680 0 742.53899889 0 205.14166963 0 8718
0.08950000 0.08949900 20627.85173218 0 394.51387545 0 5554.58234364 0 70.78246616 0 64.71580325 0 8571
0.09050000 0.09049190 19878.97411424 0 455.50104011 0 5367.96186379 0 158.25696190 0 365.03014660 0 8932
0.09150000 0.09150830 19334.28543211 0 296.80153945 0 5536.10440952 0 119.98345947 0 630.12084486 0 9285
0.09250000 0.09250820 19063.66022657 0 379.16920447 0 5890.67888476 0 -164.09758621 0 976.20722707 0 9204
0.09350000 0.09350330 18502.33474902 0 415.62264148 0 5877.35835723 0 -256.18224887 0 710.46325731 0 9349
0.09450000 0.09448040 18524.96079080 0 -86.04084762 0 6504.33262951 0 455.63413447 0 338.04304619 0 9564
0.09550000 0.09549270 18677.57566081 0 -141.00793240 0 5501.95461412 0 471.31375960 0 710.44551140 0 10155
0.09650000 0.09649430 18706.74550878 0 -58.67099000 0 6081.61384022 0 376.51064456 0 888.98605427 0 9913
0.09750000 0.09749140 18551.69057544 0 123.45611323 0 5011.41315549 0 -456.23084087 0 486.55195508 0 10476
0.09850000 0.09850240 18252.89372966 0 677.10426425 0 5968.09543946 0 -996.23903788 0 -1328.75866799 0 10575
0.09950000 0.09950330 17741.03499050 0 566.44184670 0 7129.73195183 0 -406.42027537 0 175.18767404 0 10882
0.10050000 0.10051200 16838.65520679 0 139.96868725 0 6950.33184119 0 -95.00552938 0 -1520.88038153 0 10875
0.10150000 0.10150300 17033.86027308 0 222.24540445 0 7352.92010802 0 347.60587620 0 -354.75858911 0 11118
0.10250000 0.10250800 16785.97202129 0 172.36163705 0 6474.55276571 0 466.62994713 0 -1115.74113940 0 11575
0.10350000 0.10349800 16297.29388375 0 85.32535451 0 6502.70222356 0 452.61954714 0 -357.04115744 0 11364
0.10450000 0.10450100 16648.44117913 0 80.80635722 0 6582.49229441 0 -105.33653569 0 -631.13236202 0 12093
0.10550000 0.10551000 16479.18951370 0 98.80847899 0 6479.29979800 0 312.13401012 0 -665.88219118 0 12067
0.10650000 0.10649700 15953.13404245 0 132.30688840 0 6225.81049175 0 541.22490132 0 742.69982124 0 12054
0.10750000 0.10749900 16197.14037531 0 -41.08090620 0 5826.00611536 0 607.72882734 0 112.39264427 0 12807
0.10850000 0.10850100 15952.46857063 0 112.62888677 0 5369.44808418 0 582.63721249 0 360.16554762 0 12736
0.10950000 0.10950300 16149.44822843 0 216.44249021 0 5688.46418200 0 24.59062549 0 227.72001926 0 12933
0.11050000 0.11050200 15138.59653857 0 166.63414295 0 4840.37580736 0 366.78477396 0 544.44911227 0 13428
0.11150000 0.11150900 15473.55068640 0 117.96375250 0 4928.52864070 0 5.48053751 0 923.81352181 0 13453
0.11250000 0.11250000 15121.84883118 0 158.61853492 0 4479.88972414 0 295.40959424 0 -31.74222928 0 13668
0.11350000 0.11349100 15110.75763423 0 13.77249381 0 4573.92089187 0 250.26731354 0 501.72360339 0 13791
0.11450000 0.11448600 14666.99884433 0 420.31089043 0 4278.67322911 0 -184.14825205 0 401.99266955 0 14205
0.11550000 0.11549300 14646.59104194 0 224.95387474 0 4550.04154484 0 -187.24269600 0 275.57853409 0 14776
0.11650000 0.11649800 14023.15486149 0 126.27771373 0 5016.12691420 0 135.73406825 0 381.87323829 0 14553
0.11750000 0.11747300 14143.71617231 0 134.58058377 0 4780.07296955 0 -177.33271153 0 742.38039477 0 14568
0.11850000 0.11849100 13829.05891489 0 172.58678835 0 5251.24919830 0 54.17517332 0 -244.91692013 0 16015
0.11950000 0.11950300 13898.60071976 0 154.94623961 0 5884.93364474 0 -441.90101441 0 480.91319056 0 15270
0.12050000 0.12050700 13670.12206262 0 203.57448351 0 5630.63468111 0 -161.65974112 0 440.04989364 0 15999
0.12150000 0.12150000 13362.89590716 0 95.59425011 0 6329.83482793 0 235.81548391 0 133.33171499 0 15670
0.12250000 0.12250700 13678.88410821 0 -1.36940790 0 5977.11258258 0 70.31907595 0 411.58877315 0 16887
0.12350000 0.12352200 13218.93217077 0 186.11139391 0 5662.24459242 0 349.70987626 0 591.70759335 0 16407
0.12450000 0.12449800 13230.91066347 0 216.75748020 0 5805.03266193 0 156.12856120 0 790.43744203 0 16306
0.12550000 0.12549900 12842.27512241 0 62.31943924 0 5433.76593528 0 451.55811959 0 553.82782841 0 17523
0.12650000 0.12650100 12876.21418507 0 -54.30760221 0 5280.10849276 0 828.57785009 0 739.11292815 0 17154
0.12750000 0.12750600 12825.19467911 0 24.81200578 0 4499.21058923 0 260.28710086 0 839.30081930 0 18007
0.12850000 0.12850300 12743.89620548 0 28.94048202 0 4245.75455657 0 55.41882923 0 600.34985401 0 17496
0.12950000 0.12949900 12718.27554053 0 61.12181179 0 3930.14345621 0 134.95324799 0 465.74819697 0 18405
0.13050000 0.13049000 12548.35840328 0 160.43638210 0 3658.76404928 0 -183.56152773 0 -551.84804976 0 18100
0.13150000 0.13148800 12363.46815015 0 266.84088914 0 4384.18378568 0 -437.08854405 0 -222.47610135 0 19059
0.13250000 0.13249300 12286.93889121 0 116.15477828 0 3999.74071706 0 -111.41883718 0 -563.62911916 0 18957
0.13350000 0.13349100 12187.45085458 0 -174.61536827 0 4096.31176889 0 509.44529470 0 -1180.86864788 0 19468
0.13450000 0.13450700 12576.41913156 0 -195.50674685 0 3766.63703080 0 469.23748753 0 -485.30863191 0 19953
0.13550000 0.13551000 12370.67742817 0 199.84673221 0 3341.66672853 0 60.95843846 0 -381.29982340 0 19956
0.13650000 0.13649900 12355.48248835 0 163.44875119 0 3624.24824438 0 7.79041237 0 333.53336551 0 19723
0.13750000 0.13749600 12076.76070904 0 259.56395482 0 3641.06249895 0 377.01529402 0 -160.14135626 0 20946
0.13850000 0.13851100 11922.92580737 0 210.46766241 0 3728.80495801 0 64.05632068 0 843.47887319 0 20955
0.13950000 0.13949800 11267.99062758 0 224.25180198 0 3705.08088774 0 74.09729219 0 415.44074585 0 20506
0.14050000 0.14048300 11100.06990578 0 235.00471742 0 3635.20634696 0 -45.52692341 0 1184.32910133 0 21447
0.14150000 0.14148400 10994.83662914 0 53.01935968 0 3553.98551171 0 371.37542037 0 829.16457441 0 21771
0.14250000 0.14249400 10744.46394923 0 159.88071313 0 3663.06743370 0 121.69039468 0 966.16082088 0 22470
0.14350000 0.14350900 10693.13388975 0 -44.08362595 0 2912.74796015 0 569.45088843 0 665.05700613 0 22519
0.14450000 0.14449900 10753.96910501 0 -208.31929756 0 2464.43068830 0 554.70625121 0 994.92473104 0 22218
0.14550000 0.14550500 10993.05094643 0 -195.68864248 0 1736.49325020 0 591.45804142 0 606.46775825 0 23559
0.14650000 0.14650700 11155.19315461 0 -139.22668617 0 1291.31478709 0 319.91115742 0 441.58713354 0 23044
0.14750000 0.14750500 11256.34487078 0 60.43537761 0 786.11742082 0 -265.59645684 0 387.03175399 0 23649
0.14850000 0.14849900 11081.39233012 0 283.72280001 0 1509.52299585 0 -577.05834042 0 -206.93289794 0 23640
0.14950000 0.14949500 10729.66829250 0 320.86500035 0 1533.49107246 0 -721.20064508 0 -819.58288937 0 24457
0.15050000 0.15050000 10548.91505583 0 184.71612133 0 2224.30627438 0 -200.68855406 0 -451.02685126 0 24591
0.15150000 0.15149900 10191.77851410 0 91.86505696 0 2108.81364055 0 21.85243079 0 -1042.44940085 0 25020
0.15250000 0.15250500 10333.89002060 0 128.44826098 0 2335.47334139 0 144.41403898 0 -762.99671166 0 25297
0.15350000 0.15350100 10186.76529308 0 70.30121912 0 2069.65062413 0 90.95402605 0 -1047.62788070 0 25452
0.15450000 0.15450400 9945.52066826 0 140.58424868 0 2498.71357807 0 -14.13473230 0 -834.19110487 0 26061
0.15550000 0.15549900 9782.50225551 0 208.18287584 0 2375.76765990 0 -299.45677200 0 -683.38409996 0 26128
0.15650000 0.15649500 9440.60501839 0 166.91364111 0 2504.91355717 0 66.72774638 0 -1036.63317717 0 26331
0.15750000 0.15749700 9570.57166423 0 -55.90418001 0 2262.54872145 0 369.08952468 0 -1202.74048826 0 27345
0.15850000 0.15849900 9566.91156923 0 -82.07574471 0 1837.66714876 0 382.10948078 0 -824.20459114 0 26980
0.15950000 0.15949700 9359.94983418 0 226.37132971 0 2021.73665331 0 -23.95476717 0 -742.74196779 0 27777
0.16050000 0.16050000 9465.31620519 0 120.34946897 0 1694.44652257 0 -252.94472848 0 -731.16608554 0 28224
0.16150000 0.16150500 9116.03223090 0 152.80896595 0 2361.97021090 0 -267.71598458 0 -822.75386258 0 28075
0.16250000 0.16249700 9039.70261350 0 88.97014365 0 2319.72384172 0 -101.14117953 0 -1040.72361060 0 28590
0.16350000 0.16349900 9046.01350456 0 -46.71290510 0 2413.18935840 0 228.93117797 0 -293.30892154 0 29163
0.16450000 0.16449100 9056.80523919 0 64.65524531 0 2422.67233179 0 56.96283476 0 -778.16835996 0 28996
0.16550000 0.16550500 9113.95817707 0 88.38674669 0 2550.88656852 0 1.24666163 0 -602.91746611 0 30777
0.16650000 0.16650700 8914.38317918 0 132.81264698 0 2473.62529057 0 -116.18583363 0 -605.05695800 0 29211
0.16750000 0.16749900 8723.52586209 0 249.60960556 0 2961.67122989 0 -84.52290641 0 -143.69532942 0 30922
0.16850000 0.16850800 8540.69857160 0 93.08553228 0 2773.03215219 0 -55.76287816 0 -202.24464899 0 30867
0.16950000 0.16949900 8442.33074587 0 68.80756763 0 2563.36416508 0 383.29291150 0 -137.53527864 0 30852
0.17050000 0.17049200 8402.89044952 0 93.20243349 0 2701.52720547 0 67.23638867 0 -377.11733303 0 31257
0.17150000 0.17149500 7986.52691608 0 155.90784638 0 2399.60264214 0 24.61436065 0 -137.03617477 0 32608
0.17250000 0.17250900 7964.06724226 0 198.70766628 0 2647.24688760 0 61.58010005 0 337.95098925 0 32361
0.17350000 0.17350400 7780.30829122 0 4.10262266 0 2436.69160474 0 226.01197493 0 61.98503965 0 32508
0.17450000 0.17449800 7751.63754711 0 15.67895965 0 2559.68188770 0 345.37210913 0 354.08535345 0 32791
0.17550000 0.17549800 7659.34769731 0 72.33867200 0 2257.62423001 0 -14.29555466 0 285.47631825 0 33633
0.17650000 0.17650100 7631.55315775 0 90.51059999 0 2358.69830780 0 -29.95621384 0 691.69806120 0 33984
0.17750000 0.17750300 7633.37211405 0 -3.07355922 0 2246.84358657 0 19.62753668 0 618.06360466 0 34069
0.17850000 0.17849800 7611.55572966 0 62.47682332 0 2603.55866282 0 -38.94629444 0 353.88903927 0 34536
