### header ###
fiducial parameters:
Omega_m = 0.31
Omega_nu = 0
Omega_de = 0.69
Omega_k = 0
H_0 = 100
w_de = -1
zeff = 0
beta = 0
fgrowth = 0
b_1 = 2
gamma = 0.55
Lx = 3500 Ly = 3500 Lz = 3500
nx = 700 ny = 700 nz = 700
xoffset = 1379.75464 yoffset = 22.6059522 zoffset = 368.141391
bins = 400 dk = 0.001
kx_ny = 0.628318531 ky_ny = 0.628318531 kz_ny = 0.628318531
############################
A(data) = 3.33062181 (not used)
A(ran) = 3.34538725 (used)
Ngal = 187771
weighted Ngal = 0
Nran = 9399747
weighted Nran = 0
SN(data) = 6570.46515
SN(ran) = 133.064059
SN(data+ran) = 6703.52921
############################
13 columns: k_central k_mean P_0(k) sigma^{lin}_{P_0(k)} P^img_1(k) sigma^{lin}_{P_1(k)} P_2(k) sigma^{lin}_{P_2(k)} P^img_3(k) sigma^{lin}_{P_3(k)} P_4(k) sigma^{lin}_{P_4(k)} N_modes
### header ###
0.00050000 0 0 0 0 0 0 0 0 0 0 0 0
0.00150000 0.00179520 77581.03714934 0 -28953.45872137 0 7566.33691970 0 8233.84951683 0 201280.82397695 0 3
0.00250000 0.00253879 85172.96146039 0 -11587.74983559 0 8384.00214112 0 -24538.82960006 0 -49733.48167568 0 6
0.00350000 0.00331552 95256.52316587 0 8509.32157543 0 33537.22859613 0 -18491.68719995 0 36881.00265208 0 7
0.00450000 0.00420575 84669.31020698 0 17399.64794843 0 41206.79128582 0 5015.35053041 0 -470.49966574 0 24
0.00550000 0.00557378 74605.60174404 0 12671.13795350 0 92408.19287760 0 33122.75056617 0 30440.67732015 0 45
0.00650000 0.00659388 54409.30848511 0 7045.94905009 0 62559.23091463 0 23383.79234988 0 -3001.17807342 0 40
0.00750000 0.00754703 59814.71422979 0 10467.87167973 0 122343.66617676 0 54768.99600214 0 52772.69146343 0 57
0.00850000 0.00846663 52954.25435747 0 1799.35815450 0 65027.79861940 0 30281.51864395 0 47857.18388795 0 75
0.00950000 0.00948925 65904.33591422 0 -10200.55165089 0 69960.49755015 0 55105.61382952 0 49151.85930771 0 112
0.01050000 0.01054430 79300.28358828 0 -11469.18494022 0 56835.84055344 0 39348.23941321 0 37809.55766058 0 105
0.01150000 0.01145670 88987.66773877 0 -5921.94496896 0 34959.45278080 0 1672.28631107 0 7176.57007654 0 144
0.01250000 0.01249090 98387.34624042 0 2211.90631619 0 48277.31842835 0 -7926.49026700 0 18608.47750382 0 169
0.01350000 0.01339930 91628.70355608 0 6176.47684772 0 53421.41557293 0 -28107.53313012 0 16716.09748051 0 180
0.01450000 0.01448870 93285.61746817 0 3309.40243661 0 68923.91428337 0 -2265.90935413 0 -2869.98030472 0 267
0.01550000 0.01550050 95012.84956892 0 -1818.66792839 0 57939.85829767 0 22715.54773375 0 -25025.28949821 0 238
0.01650000 0.01653350 98330.55931204 0 -2641.64583314 0 66529.43577422 0 12059.01479392 0 -1437.87386356 0 315
0.01750000 0.01747870 100880.42549044 0 4460.35812632 0 40785.54762573 0 20436.52858483 0 -1189.88579100 0 297
0.01850000 0.01844180 97159.21800234 0 550.72783887 0 56323.75999034 0 10243.14184717 0 16398.44559992 0 388
0.01950000 0.01947590 91058.72694491 0 3372.62225921 0 23144.00067186 0 9273.11685327 0 -4487.43173807 0 399
0.02050000 0.02045430 89051.10938531 0 4550.04154484 0 41933.48650987 0 1991.03622016 0 13984.44658414 0 462
0.02150000 0.02154770 81879.31961465 0 5602.76250318 0 32593.36773583 0 -4041.75417110 0 1067.03525712 0 571
0.02250000 0.02255340 75935.76899404 0 3729.63679778 0 46433.96149555 0 3264.83800727 0 -5668.71076024 0 510
0.02350000 0.02348930 67996.46839456 0 5758.36090517 0 32006.75432924 0 -11061.25071646 0 -10156.91888209 0 555
0.02450000 0.02439640 65507.38197544 0 2596.23847284 0 39711.25428932 0 1296.94911514 0 -17774.08675740 0 592
0.02550000 0.02547300 62564.55468917 0 -921.07954176 0 37006.77682547 0 6478.03540155 0 -15669.53213648 0 837
0.02650000 0.02652900 65644.80190563 0 -812.24384435 0 35142.79026635 0 9906.63493176 0 -18060.01781473 0 723
0.02750000 0.02749970 64968.68253966 0 2972.72915324 0 29540.62668780 0 -347.62140387 0 -8927.57061235 0 826
0.02850000 0.02848090 63145.62249729 0 2179.04309963 0 25707.61993447 0 2292.94969229 0 -16999.47756254 0 831
0.02950000 0.02946900 59860.63178516 0 531.72418201 0 34523.79056467 0 2574.18917330 0 31.16759437 0 996
0.03050000 0.03053250 59304.74099412 0 2512.74394221 0 31054.90780715 0 877.26598646 0 -7213.50376238 0 1041
0.03150000 0.03150510 56930.67028735 0 2354.99384802 0 36468.07738969 0 -64.31929296 0 3099.04679529 0 1036
0.03250000 0.03246190 54661.85503962 0 911.06530004 0 35350.19564928 0 2730.36431753 0 529.45159576 0 1059
0.03350000 0.03345080 51678.43397252 0 2014.17245699 0 32059.10477884 0 1540.78908005 0 -3578.04231789 0 1302
0.03450000 0.03451200 52038.34331349 0 817.85931736 0 31307.56527363 0 4621.18048207 0 -322.99783753 0 1339
0.03550000 0.03553350 48189.25432458 0 466.40146847 0 29723.18778957 0 3050.16789034 0 -1981.20941966 0 1365
0.03650000 0.03647120 48960.20342445 0 156.23392757 0 22333.56691085 0 6124.17076292 0 72.43139441 0 1308
0.03750000 0.03744890 48923.38065058 0 -541.23044692 0 20516.60702679 0 4112.67128439 0 -882.27809836 0 1579
0.03850000 0.03847530 47023.79134926 0 965.02175495 0 18527.62267807 0 3141.49280601 0 1129.27239968 0 1662
0.03950000 0.03950240 47266.35582651 0 2306.65841172 0 17339.31183703 0 -829.39748955 0 -876.32767120 0 1683
0.04050000 0.04050350 42453.88547068 0 2660.36777359 0 18806.78810525 0 30.68601460 0 -1517.93012314 0 1822
0.04150000 0.04152450 39860.43088828 0 1964.05133799 0 20103.90358835 0 -2655.88693002 0 6579.22039131 0 1887
0.04250000 0.04250150 39181.64963505 0 253.58025407 0 22340.33254099 0 1515.27932707 0 3419.70439026 0 1920
0.04350000 0.04349210 39394.93335236 0 -14.53068803 0 20440.07776785 0 3371.35786276 0 2691.12366273 0 2005
0.04450000 0.04448520 39607.21886195 0 242.68869866 0 24352.38657936 0 538.50312159 0 5425.66936151 0 2151
0.04550000 0.04548030 39017.72174415 0 1202.08610764 0 24033.18193120 0 -1746.70824259 0 6020.78971616 0 2274
0.04650000 0.04648670 39101.34936914 0 -13.58904541 0 26763.83461985 0 762.94569215 0 2414.59794042 0 2311
0.04750000 0.04749250 39352.01042017 0 156.94598242 0 27725.10865935 0 1294.24286309 0 5794.67348398 0 2568
0.04850000 0.04851840 37729.47921862 0 649.79108265 0 25388.96984615 0 2088.20619662 0 4778.04328051 0 2493
0.04950000 0.04949480 39385.61674692 0 579.80562990 0 27454.59436578 0 1675.01474551 0 6957.49675442 0 2644
0.05050000 0.05050630 36612.15203805 0 1045.09243308 0 25939.09321478 0 1422.74547093 0 3593.03761616 0 2829
0.05150000 0.05149060 35492.27388219 0 2108.11489515 0 26288.46591865 0 -409.46813629 0 5263.97080120 0 2784
0.05250000 0.05249300 33279.02553117 0 1153.59539458 0 25414.59051110 0 -380.87835792 0 2808.77907996 0 3055
0.05350000 0.05348950 32372.65291656 0 169.95151996 0 24782.28137308 0 1992.95499723 0 1969.99621955 0 3009
0.05450000 0.05448610 32202.18121947 0 -545.60814235 0 22593.43365535 0 4164.92191321 0 955.96357440 0 3336
0.05550000 0.05550870 33231.77703217 0 -587.57279513 0 18233.70595894 0 893.60997428 0 -1604.99601918 0 3349
0.05650000 0.05647670 33253.40486622 0 -222.94304074 0 16651.54671428 0 3051.03300370 0 -1977.08349440 0 3324
0.05750000 0.05747970 32680.98819172 0 -180.76765522 0 14996.40739369 0 1349.77648620 0 -1236.47990938 0 3639
0.05850000 0.05849280 33024.81529712 0 -60.20734260 0 12463.28892269 0 1186.72479987 0 -1795.18786445 0 3846
0.05950000 0.05951020 33901.46350391 0 -847.01585590 0 11945.44093717 0 2291.57438387 0 -1465.61294713 0 3787
0.06050000 0.06049470 33218.80033174 0 37.99023326 0 9264.41026367 0 1300.72012210 0 -1228.36115321 0 3930
0.06150000 0.06148310 35286.53217880 0 488.34761987 0 10084.92592270 0 -625.03774930 0 -1073.89848979 0 4083
0.06250000 0.06249100 33712.80224382 0 698.78866341 0 10698.67948822 0 -1795.22113804 0 -3604.07335713 0 4303
0.06350000 0.06350600 31836.61536806 0 1599.30623515 0 12625.33131010 0 -2503.40515438 0 -4142.58424256 0 4470
0.06450000 0.06451750 31614.45869318 0 981.28144968 0 14470.01918653 0 -1006.75127435 0 -4744.80296325 0 4479
0.06550000 0.06550280 29177.05725184 0 -412.11227765 0 12486.80226022 0 3293.55311617 0 -3756.35549123 0 4636
0.06650000 0.06648880 30772.41502087 0 -96.05775123 0 12041.26887881 0 2509.69386305 0 -3213.11975590 0 4653
0.06750000 0.06749660 30154.74626283 0 282.24212522 0 10545.03313690 0 1287.44395936 0 -4208.70995876 0 5220
0.06850000 0.06852730 29312.48076658 0 459.24431908 0 9559.15882257 0 201.43277338 0 -2407.97649584 0 5029
0.06950000 0.06949320 29015.68033625 0 848.24143316 0 9113.58107637 0 -360.92640373 0 -2747.32275767 0 5040
0.07050000 0.07048030 27314.73437227 0 655.62727048 0 9615.56865025 0 -756.95977316 0 -2145.03748979 0 5475
0.07150000 0.07148790 26944.95386601 0 835.87363945 0 10530.75876643 0 134.73364229 0 -2510.07096375 0 5509
0.07250000 0.07249820 26119.65790109 0 675.21432429 0 11469.62858810 0 -527.17124567 0 -2358.94231413 0 5916
0.07350000 0.07351270 25636.74718597 0 307.53559986 0 10198.79924177 0 410.79131609 0 -2193.57256763 0 5721
0.07450000 0.07449140 25180.12260761 0 -181.83130101 0 11163.28972839 0 1408.20491173 0 -1825.61101768 0 6028
0.07550000 0.07549160 25388.41528630 0 166.75060052 0 10537.65749093 0 596.58661089 0 -635.58436848 0 6183
0.07650000 0.07648840 24949.20388715 0 126.61044964 0 9282.59982666 0 915.90993486 0 -1127.71963210 0 6330
0.07750000 0.07749960 25122.22655954 0 141.52034570 0 10049.15681254 0 256.39187249 0 123.42062140 0 6583
0.07850000 0.07848650 24988.02307647 0 -194.67490707 0 8844.68609756 0 1598.36348341 0 -515.03303973 0 6549
0.07950000 0.07947320 25198.64490651 0 -258.14871809 0 7676.84960609 0 833.76963939 0 1564.16932321 0 6828
0.08050000 0.08048110 24876.11289926 0 486.40111481 0 7596.23878667 0 -102.14005273 0 -339.64461503 0 7147
0.08150000 0.08149960 24545.70614217 0 436.13913759 0 8194.12084936 0 174.84051957 0 329.43960471 0 7386
0.08250000 0.08250610 24028.19089257 0 22.49095100 0 7744.22862755 0 572.42998393 0 1247.80402146 0 7227
0.08350000 0.08350160 23610.05276762 0 430.43271677 0 7718.43050345 0 -128.43938802 0 264.92211207 0 7798
0.08450000 0.08449610 23618.92572518 0 125.56565889 0 7325.33630121 0 844.31958592 0 2083.74753545 0 7371
0.08550000 0.08548940 23324.45444620 0 -102.96568143 0 7280.61659512 0 1399.99742599 0 1884.60509425 0 8256
0.08650000 0.08650700 23131.13488340 0 189.43209828 0 6176.77631004 0 1061.46747625 0 3279.87767033 0 8037
0.08750000 0.08749060 22943.36091906 0 66.65121712 0 5805.69813374 0 1145.48772962 0 2634.43655513 0 8155
0.08850000 0.08849210 22565.81657495 0 464.31410520 0 4941.87135063 0 268.46574949 0 4668.61753142 0 8718
0.08950000 0.08949900 21382.27494860 0 1052.35383972 0 5534.62928033 0 -421.34237175 0 4073.36408240 0 8571
0.09050000 0.09049190 20436.97223270 0 818.79541439 0 5797.63483356 0 -249.02177212 0 4164.62245089 0 8932
0.09150000 0.09150830 19657.92655906 0 464.45163604 0 6999.58784684 0 -87.79558589 0 4164.18989421 0 9285
0.09250000 0.09250820 18818.10112614 0 265.70071409 0 5998.76259902 0 -9.05721561 0 2655.47655574 0 9204
0.09350000 0.09350330 18927.23850411 0 132.41225477 0 6618.10612781 0 -269.18224081 0 2659.13665073 0 9349
0.09450000 0.09448040 18547.14318470 0 169.55001863 0 5032.07605541 0 -432.57664514 0 314.32673975 0 9564
0.09550000 0.09549270 18745.01013825 0 -79.66329846 0 7177.02481562 0 -354.47798182 0 1093.75062321 0 10155
0.09650000 0.09649430 18273.52335598 0 330.71841972 0 5896.27993922 0 -625.45699654 0 -1757.37797405 0 9913
0.09750000 0.09749140 18393.41919499 0 194.77029137 0 6566.97570988 0 42.05848430 0 -902.05259340 0 10476
0.09850000 0.09850240 18015.54211497 0 394.57820439 0 6705.64894532 0 -646.09105935 0 -2477.26320317 0 10575
0.09950000 0.09950330 17373.91637151 0 501.54170776 0 7034.75803236 0 132.01075344 0 -1340.17150965 0 10882
0.10050000 0.10051200 16989.49548529 0 397.37429514 0 7683.18267955 0 36.29949120 0 -1903.59322342 0 10875
0.10150000 0.10150300 16419.74069806 0 187.73403602 0 6800.75595915 0 421.73167276 0 -1217.38086823 0 11118
0.10250000 0.10250800 16393.56547326 0 118.87766713 0 7106.21861430 0 879.72823218 0 -625.45699654 0 11575
0.10350000 0.10349800 16157.54480220 0 22.98750388 0 6721.30971541 0 355.17672723 0 -403.97133909 0 11364
0.10450000 0.10450100 16185.05097063 0 -57.35446492 0 5638.67579890 0 1654.92858784 0 156.84394340 0 12093
0.10550000 0.10551000 15937.16271884 0 70.31630315 0 5216.61139023 0 445.31377571 0 662.27644305 0 12067
0.10650000 0.10649700 15601.32127525 0 281.66205562 0 4771.03364404 0 204.68138496 0 1169.58890058 0 12054
0.10750000 0.10749900 15326.70323881 0 545.45064736 0 5633.34093317 0 -91.09432969 0 1146.34175178 0 12807
0.10850000 0.10850100 14529.68982611 0 492.02878814 0 5047.49281917 0 -639.56167170 0 540.72579746 0 12736
0.10950000 0.10950300 14134.95412672 0 183.74009600 0 6222.96005413 0 -317.80383000 0 1005.30165491 0 12933
0.11050000 0.11050200 14114.76814828 0 228.61840621 0 6072.99598020 0 -257.40560789 0 -18.81998663 0 13428
0.11150000 0.11150900 14102.90056754 0 6.73067069 0 6455.69773089 0 -95.45350282 0 237.76753458 0 13453
0.11250000 0.11250000 13899.70983945 0 41.23130283 0 6246.21829413 0 -107.02916325 0 -707.84573483 0 13668
0.11350000 0.11349100 14084.82191652 0 -45.17699615 0 6225.06738155 0 216.62105848 0 561.94214810 0 13791
0.11450000 0.11448600 14015.50193559 0 -15.81172128 0 5922.43298162 0 468.54317860 0 -1698.28407671 0 14205
0.11550000 0.11549300 14237.43678652 0 42.02066332 0 6454.88807352 0 -394.79781009 0 -605.37305711 0 14776
0.11650000 0.11649800 13943.74189134 0 114.57650095 0 6017.24053314 0 157.09238622 0 -1063.61029550 0 14553
0.11750000 0.11747300 14036.35338585 0 -83.36897828 0 5502.20971165 0 198.35163886 0 -1307.95158251 0 14568
0.11850000 0.11849100 14258.73188467 0 -243.80225484 0 4891.39531332 0 1318.21093969 0 -955.28701139 0 16015
0.11950000 0.11950300 14216.14168838 0 -80.97427794 0 3545.17910133 0 991.48313263 0 -1335.14719743 0 15270
0.12050000 0.12050700 14077.94537441 0 227.21426068 0 3242.77761654 0 487.40930461 0 -229.89167562 0 15999
0.12150000 0.12150000 13795.11985223 0 410.97099348 0 3378.32313444 0 -214.19208634 0 -968.17609136 0 15670
0.12250000 0.12250700 13093.15799738 0 378.05453918 0 3545.86675554 0 103.91852616 0 473.50316187 0 16887
0.12350000 0.12352200 12763.08397620 0 9.06461344 0 2799.44029213 0 264.92211207 0 -281.24946309 0 16407
0.12450000 0.12449800 12753.98919470 0 7.28259083 0 3135.20409734 0 -78.35919553 0 130.13412291 0 16306
0.12550000 0.12549900 12646.62640824 0 267.15144265 0 3278.92382739 0 -130.90607022 0 -708.42691355 0 17523
0.12650000 0.12650100 12609.69272240 0 171.29244567 0 3561.92680872 0 -541.63305737 0 12.66304138 0 17154
0.12750000 0.12750600 12274.73857457 0 96.91986997 0 3851.38486668 0 -126.49510119 0 -413.06612058 0 18007
0.12850000 0.12850300 12446.98486317 0 95.22957156 0 4220.65517787 0 -42.53263297 0 -346.59879551 0 17496
0.12950000 0.12949900 12448.31580681 0 -49.92702306 0 4403.04991169 0 200.90705064 0 -333.40248938 0 18405
0.13050000 0.13049000 12449.09219059 0 88.73656304 0 4212.29241537 0 -50.02251827 0 -386.05572866 0 18100
0.13150000 0.13148800 12389.64337495 0 66.16209533 0 4487.43173807 0 157.03360287 0 516.79986740 0 19059
0.13250000 0.13249300 12278.17684562 0 97.24351110 0 4280.62527977 0 89.75939322 0 -142.13147065 0 18957
0.13350000 0.13349100 12262.31643399 0 -1.25856248 0 4218.52566806 0 876.59496904 0 821.80778348 0 19468
0.13450000 0.13450700 12259.21089884 0 -25.98489986 0 3434.78841811 0 721.72747693 0 921.10283328 0 19953
0.13550000 0.13551000 12052.13825182 0 139.52836673 0 3570.08992968 0 344.02341958 0 1406.29722585 0 19956
0.13650000 0.13649900 11921.48395177 0 202.29234114 0 2876.23573979 0 104.71831237 0 1579.28662465 0 19723
0.13750000 0.13749600 11527.08098829 0 173.69812629 0 3179.44688197 0 -141.13991764 0 1239.82945086 0 20946
0.13850000 0.13851100 11520.86991800 0 99.20055280 0 2943.71458203 0 -206.61568971 0 1584.47730483 0 20955
0.13950000 0.13949800 11264.55235652 0 143.62656400 0 3396.91198053 0 -252.76061461 0 745.48260256 0 20506
0.14050000 0.14048300 11264.21962061 0 183.64027523 0 3356.06310217 0 -6.34048238 0 925.61695043 0 21447
0.14150000 0.14148400 11099.95899381 0 -18.93788605 0 3469.27094942 0 -46.09778732 0 376.54724551 0 21771
0.14250000 0.14249400 11086.09499763 0 104.65830899 0 3365.15788367 0 390.32140300 0 552.51463069 0 22470
0.14350000 0.14350900 11065.16590899 0 -10.18139715 0 3796.31707383 0 154.00237875 0 1197.41671373 0 22519
0.14450000 0.14449900 10816.52345580 0 252.75395989 0 3402.47976140 0 -375.73980637 0 519.50057386 0 22218
0.14550000 0.14550500 10745.40670097 0 164.90280711 0 3754.45889655 0 65.72621129 0 980.35422561 0 23559
0.14650000 0.14650700 10585.02799310 0 77.78300785 0 3938.66149547 0 -29.33477407 0 632.30359242 0 23044
0.14750000 0.14750500 10418.68222127 0 139.79233722 0 3410.54306158 0 -13.44885268 0 420.62033483 0 23649
0.14850000 0.14849900 10401.05830932 0 81.19632371 0 3901.86090399 0 -18.91592548 0 336.97274568 0 23640
0.14950000 0.14949500 9970.38713182 0 93.01177582 0 3173.39108843 0 127.10289879 0 195.41136255 0 24457
0.15050000 0.15050000 9974.87906658 0 220.50297741 0 3472.70922047 0 424.10851627 0 320.37587857 0 24591
0.15150000 0.15149900 9833.49957908 0 32.10968064 0 3028.20732038 0 261.37514728 0 628.45383796 0 25020
0.15250000 0.15250500 9724.16255957 0 33.94483008 0 2749.06407559 0 493.83554412 0 584.89427106 0 25297
0.15350000 0.15350100 9606.04131207 0 245.36944097 0 2673.95448985 0 -111.28907018 0 490.45605641 0 25452
0.15450000 0.15450400 9352.56309701 0 143.60216337 0 2835.78614452 0 -283.43221065 0 1002.22606599 0 26061
0.15550000 0.15549900 9119.34849878 0 72.51446747 0 3077.16386371 0 135.22054583 0 884.42979057 0 26128
0.15650000 0.15649500 9319.99934277 0 -14.24642066 0 3321.11474058 0 41.36883367 0 1256.42188149 0 26331
0.15750000 0.15749700 9244.64575071 0 0.46390040 0 3053.71707336 0 151.99376298 0 542.92074533 0 27345
0.15850000 0.15849900 9408.16326731 0 18.41083237 0 3277.91452847 0 -170.05355897 0 1216.69321402 0 26980
0.15950000 0.15949700 9341.46080887 0 42.52420366 0 3247.87956714 0 -51.76161795 0 1012.06728505 0 27777
0.16050000 0.16050000 9348.68117808 0 126.05367156 0 3564.38905445 0 4.28313189 0 735.81773354 0 28224
0.16150000 0.16150500 9179.44060385 0 135.00981309 0 3450.20518187 0 -231.28694820 0 666.33138466 0 28075
0.16250000 0.16249700 8948.31115064 0 133.76870815 0 3286.01110224 0 126.60490404 0 440.58781669 0 28590
0.16350000 0.16349900 8926.69440779 0 138.21073253 0 3709.49518412 0 -130.19956098 0 588.11182730 0 29163
0.16450000 0.16449100 8654.25024596 0 251.94097516 0 3312.61888372 0 -75.59715475 0 316.26769922 0 28996
0.16550000 0.16550500 8432.59267495 0 49.70431183 0 3638.33406450 0 203.24951144 0 615.92522189 0 30777
0.16650000 0.16650700 8343.77436978 0 -45.60744550 0 2952.12170931 0 330.93026158 0 -192.64965451 0 29211
0.16750000 0.16749900 8483.42363056 0 18.66315710 0 3361.07632319 0 324.72140953 0 709.10569481 0 30922
0.16850000 0.16850800 8228.96939017 0 51.21038546 0 2513.94179148 0 100.93920883 0 -150.66725582 0 30867
0.16950000 0.16949900 8459.61083071 0 35.59009824 0 2534.69342097 0 -6.60765822 0 622.99253258 0 30852
0.17050000 0.17049200 8232.75148833 0 -27.39836200 0 2265.18842633 0 206.38277457 0 -43.49701254 0 31257
0.17150000 0.17149500 8418.30721328 0 -76.76062131 0 2139.86899201 0 446.40182213 0 -72.01591817 0 32608
0.17250000 0.17250900 8313.09611903 0 73.05039411 0 2019.98424420 0 81.98280048 0 210.34011364 0 32361
0.17350000 0.17350400 8225.33147757 0 93.25145658 0 1691.64044974 0 112.66659684 0 -12.82952025 0 32508
0.17450000 0.17449800 8134.40584499 0 89.63106807 0 1581.68232320 0 276.04214613 0 470.93333154 0 32791
0.17550000 0.17549800 8089.61959172 0 20.35977750 0 1150.09057635 0 297.85520316 0 236.00403426 0 33633
0.17650000 0.17650100 7955.57138540 0 101.57528898 0 1476.07194585 0 178.49174161 0 985.30977241 0 33984
0.17750000 0.17750300 7705.77544773 0 190.30053900 0 1056.63725998 0 30.54926014 0 850.10808161 0 34069
0.17850000 0.17849800 7597.52536552 0 181.34883394 0 1537.84991286 0 -95.11921415 0 1402.10475341 0 34536
