### header ###
fiducial parameters:
Omega_m = 0.31
Omega_nu = 0
Omega_de = 0.69
Omega_k = 0
H_0 = 100
w_de = -1
zeff = 0
beta = 0
fgrowth = 0
b_1 = 2
gamma = 0.55
Lx = 3500 Ly = 3500 Lz = 3500
nx = 700 ny = 700 nz = 700
xoffset = 1379.75464 yoffset = 22.6059522 zoffset = 368.141391
bins = 400 dk = 0.001
kx_ny = 0.628318531 ky_ny = 0.628318531 kz_ny = 0.628318531
############################
A(data) = 3.34595073 (not used)
A(ran) = 3.35813881 (used)
Ngal = 188977
weighted Ngal = 0
Nran = 9399747
weighted Nran = 0
SN(data) = 6593.71997
SN(ran) = 133.571257
SN(data+ran) = 6727.29123
############################
13 columns: k_central k_mean P_0(k) sigma^{lin}_{P_0(k)} P^img_1(k) sigma^{lin}_{P_1(k)} P_2(k) sigma^{lin}_{P_2(k)} P^img_3(k) sigma^{lin}_{P_3(k)} P_4(k) sigma^{lin}_{P_4(k)} N_modes
### header ###
0.00050000 0 0 0 0 0 0 0 0 0 0 0 0
0.00150000 0.00179520 32234.01295471 0 -30045.16523698 0 -30601.49967590 0 67159.85940876 0 59735.07943571 0 3
0.00250000 0.00253879 28553.28833547 0 -28842.43583991 0 4549.04333712 0 -52513.37927878 0 -83955.81350730 0 6
0.00350000 0.00331552 76109.23531431 0 -28219.88695521 0 -55551.59085881 0 11310.24808795 0 -68841.95033792 0 7
0.00450000 0.00420575 113424.12559100 0 -27580.36853918 0 -45095.03219996 0 -19596.70315191 0 -21190.28632943 0 24
0.00550000 0.00557378 106090.29343293 0 21439.28370091 0 -1220.29785303 0 -65717.44924564 0 28912.64311660 0 45
0.00650000 0.00659388 120057.77048573 0 13620.32258833 0 43260.10457685 0 -7099.26443382 0 26994.64242834 0 40
0.00750000 0.00754703 91361.96026947 0 -4795.42318612 0 11731.82448395 0 51925.76766446 0 -35402.65701085 0 57
0.00850000 0.00846663 98394.00095858 0 -430.73550644 0 55414.06001665 0 12904.38582532 0 15464.01225703 0 75
0.00950000 0.00948925 85593.09600079 0 18304.46779547 0 43612.91555177 0 -17464.64236255 0 18236.14602227 0 112
0.01050000 0.01054430 67964.96939523 0 10180.47658441 0 38691.30781797 0 19630.53130260 0 10215.45821958 0 105
0.01150000 0.01145670 62253.77935068 0 -344.67890932 0 46949.03668183 0 22183.72484008 0 40898.12327475 0 144
0.01250000 0.01249090 54774.09795274 0 838.72962266 0 23489.71328073 0 17435.02886670 0 4978.74958048 0 169
0.01350000 0.01339930 69829.51051419 0 -1208.31936033 0 22574.91135644 0 21631.16140812 0 30437.12813713 0 180
0.01450000 0.01448870 59723.98823876 0 -7816.45450208 0 -1181.04610703 0 16563.48261051 0 28527.88949446 0 267
0.01550000 0.01550050 61924.92536116 0 -2525.26590357 0 -8939.66001702 0 -8170.29695832 0 7223.99603469 0 238
0.01650000 0.01653350 82937.08706760 0 -5553.91687182 0 -21290.77257378 0 5310.32091325 0 1946.89325631 0 315
0.01750000 0.01747870 72918.18704033 0 -2809.61091973 0 -8427.64600111 0 -14374.08033293 0 -4003.42299445 0 297
0.01850000 0.01844180 77024.70271041 0 8569.86841957 0 -3875.53040244 0 -21572.15624035 0 2404.58258957 0 388
0.01950000 0.01947590 72674.51344338 0 2655.39891736 0 4566.05723324 0 -438.59916508 0 -9841.84015919 0 399
0.02050000 0.02045430 71784.55580026 0 -2769.60497233 0 18340.07053767 0 2928.06490313 0 815.68987924 0 462
0.02150000 0.02154770 74008.78443625 0 277.50618412 0 8843.77661941 0 1959.65922399 0 1114.75402287 0 571
0.02250000 0.02255340 76987.21446473 0 818.28300109 0 22724.19886737 0 8515.21100101 0 8584.32024920 0 510
0.02350000 0.02348930 75712.50319947 0 622.39028059 0 12655.49936580 0 433.00143798 0 16136.24970406 0 555
0.02450000 0.02439640 68865.46367545 0 4975.64404534 0 17513.99818897 0 -2185.32071710 0 11535.95394585 0 592
0.02550000 0.02547300 65346.67053166 0 4959.60617455 0 23656.63579480 0 -3601.86620894 0 13646.05416525 0 837
0.02650000 0.02652900 58508.06031732 0 3655.88033807 0 27428.97370083 0 -3543.82597531 0 5840.13630027 0 723
0.02750000 0.02749970 57471.25522661 0 4345.87479142 0 34089.90294006 0 -2484.15083648 0 17066.24656817 0 826
0.02850000 0.02848090 54539.29731334 0 -13.73356371 0 30394.87067676 0 3745.53048301 0 169.14297170 0 831
0.02950000 0.02946900 51910.79454858 0 -177.32272945 0 25644.28919989 0 7016.00281832 0 10996.31175833 0 996
0.03050000 0.03053250 54764.67043533 0 781.96376756 0 31809.22011159 0 5056.33250313 0 5456.76907775 0 1041
0.03150000 0.03150510 53349.65552868 0 853.85690618 0 22819.80498506 0 687.61871896 0 6365.38211415 0 1036
0.03250000 0.03246190 51686.19781038 0 791.46892334 0 32449.18217551 0 4032.48193045 0 13085.50507148 0 1059
0.03350000 0.03345080 52713.13173582 0 -59.01858811 0 18751.88668036 0 3965.63528644 0 5970.67968835 0 1302
0.03450000 0.03451200 50790.80548075 0 -200.50887667 0 21537.88444178 0 5670.13043345 0 11651.30239411 0 1339
0.03550000 0.03553350 51267.61603756 0 1343.53214232 0 18027.40969570 0 2084.61264881 0 5105.86578871 0 1365
0.03650000 0.03647120 49226.61397514 0 -227.34180945 0 16499.48640411 0 5321.09046549 0 11464.63754947 0 1308
0.03750000 0.03744890 46995.73062098 0 1744.55655038 0 13337.82980205 0 84.50394046 0 261.76333918 0 1579
0.03850000 0.03847530 44925.89144650 0 2377.63098099 0 13362.45225928 0 -3904.45624408 0 5489.55465593 0 1662
0.03950000 0.03950240 41098.76302755 0 2717.80908259 0 18193.00126614 0 -2639.66050889 0 -1601.64647770 0 1683
0.04050000 0.04050350 39924.87074255 0 1171.36349210 0 14807.74613360 0 -3637.57986311 0 -4480.37773681 0 1822
0.04150000 0.04152450 38182.11096607 0 -247.32481899 0 17367.37256531 0 1335.71284847 0 -7781.79451161 0 1887
0.04250000 0.04250150 39643.81981188 0 -1078.74090638 0 10687.25555537 0 646.08884111 0 -12853.58814330 0 1920
0.04350000 0.04349210 41230.97009517 0 -1852.70681182 0 13884.51489963 0 2324.59287718 0 -8351.61584603 0 2005
0.04450000 0.04448520 43727.48761625 0 -423.38869758 0 11194.45599181 0 -1011.44063242 0 -12107.70514853 0 2151
0.04550000 0.04548030 43333.86103655 0 -464.56032977 0 8172.77029524 0 3988.98225602 0 -8988.72747232 0 2274
0.04650000 0.04648670 43745.01170742 0 27.02115039 0 7649.99781828 0 3329.96551575 0 -4492.63350944 0 2311
0.04750000 0.04749250 43421.92514032 0 -33.30908267 0 6341.76895584 0 2976.27833627 0 -2000.58574073 0 2568
0.04850000 0.04851840 42814.46028347 0 1737.46927553 0 7987.35875585 0 1151.56570554 0 4477.42747842 0 2493
0.04950000 0.04949480 40531.55921562 0 1737.30290758 0 6709.96342093 0 -42.47551330 0 2218.15066007 0 2644
0.05050000 0.05050630 37736.91032057 0 1333.10641719 0 10584.01869417 0 -556.34996660 0 11592.18631437 0 2829
0.05150000 0.05149060 36528.08076518 0 2169.85958856 0 9500.47529951 0 32.52060948 0 5793.97473857 0 2784
0.05250000 0.05249300 35093.87808781 0 834.68688137 0 14605.33178930 0 439.99665589 0 12744.78350123 0 3055
0.05350000 0.05348950 33190.51777953 0 797.59348230 0 13062.54629380 0 747.59325734 0 7787.69502839 0 3009
0.05450000 0.05448610 32568.96710255 0 782.26655724 0 14664.11513312 0 -1060.35502920 0 10066.69199492 0 3336
0.05550000 0.05550870 31571.09211312 0 522.07705891 0 14741.08803994 0 -174.67415162 0 7856.33844630 0 3349
0.05650000 0.05647670 32328.50995271 0 -228.68495340 0 13791.45975724 0 1104.74310851 0 7795.86924054 0 3324
0.05750000 0.05747970 32025.49845208 0 -278.22933016 0 14689.95762201 0 1640.09965752 0 7039.60488543 0 3639
0.05850000 0.05849280 32088.27462681 0 301.58517270 0 10773.24560531 0 244.27030335 0 3608.06618803 0 3846
0.05950000 0.05951020 31758.64425351 0 94.36113084 0 12331.63641491 0 405.10818677 0 7633.62721158 0 3787
0.06050000 0.06049470 31612.68410167 0 -608.58506775 0 9081.42769642 0 2343.43682080 0 794.10086438 0 3930
0.06150000 0.06148310 32775.26336578 0 -530.03610184 0 9051.32618790 0 2208.33495077 0 5591.27202314 0 4083
0.06250000 0.06249100 32728.45851466 0 -51.17411725 0 5716.64691345 0 1073.29734692 0 -178.84222343 0 4303
0.06350000 0.06350600 32104.24595042 0 743.33091035 0 7451.93122318 0 -2583.96051782 0 1502.34699142 0 4470
0.06450000 0.06451750 31045.25846580 0 1749.17048831 0 6290.90472664 0 -1357.01903781 0 -83.23311111 0 4479
0.06550000 0.06550280 28771.11944354 0 879.65835764 0 8922.21356423 0 -858.96994797 0 -464.01353377 0 4636
0.06650000 0.06648880 28780.87969685 0 -132.85923000 0 8706.61178675 0 1360.75677118 0 -201.56032214 0 4653
0.06750000 0.06749660 29166.85335065 0 -439.76041340 0 8235.72392911 0 1536.95152590 0 -1326.81770852 0 5220
0.06850000 0.06852730 29702.44725128 0 -9.05627286 0 6655.87165342 0 140.80496350 0 91.10553180 0 5029
0.06950000 0.06949320 28439.71447872 0 675.89643290 0 8455.57363502 0 -1576.58037260 0 -1343.32140958 0 5040
0.07050000 0.07048030 28834.78291402 0 935.77537772 0 10031.26671187 0 -771.39607511 0 1596.08978803 0 5475
0.07150000 0.07148790 27992.18468186 0 401.62555093 0 9244.73448028 0 37.94498118 0 -1231.98797461 0 5509
0.07250000 0.07249820 27550.08957151 0 385.36696533 0 11547.48879067 0 1287.72123928 0 3033.69746287 0 5916
0.07350000 0.07351270 26673.10862881 0 307.59216497 0 9315.04157774 0 811.71923073 0 1514.01493061 0 5721
0.07450000 0.07449140 26672.33224502 0 299.37358803 0 10136.43344133 0 181.20797574 0 2650.74061464 0 6028
0.07550000 0.07549160 26175.55753371 0 439.59404544 0 9955.53601910 0 722.96414539 0 2383.94187205 0 6183
0.07650000 0.07648840 25153.39282297 0 777.19344375 0 10007.47609441 0 139.91212214 0 4295.32111573 0 6330
0.07750000 0.07749960 24523.63466025 0 390.51993543 0 10840.24752607 0 593.07846529 0 3834.09369064 0 6583
0.07850000 0.07848650 23766.99320444 0 529.09002274 0 9534.85801005 0 3.26962940 0 3777.06275593 0 6549
0.07950000 0.07947320 23471.30189380 0 510.91598742 0 10952.66789834 0 554.68185058 0 4474.72122637 0 6828
0.08050000 0.08048110 23102.40868330 0 254.25681708 0 10607.07729263 0 736.10721378 0 4711.83992592 0 7147
0.08150000 0.08149960 22647.11504858 0 33.04544492 0 10380.78360130 0 263.89506723 0 4243.33667563 0 7386
0.08250000 0.08250610 22692.47804409 0 204.63812929 0 9611.04344189 0 455.53875018 0 3906.29738277 0 7227
0.08350000 0.08350160 22192.93053355 0 187.98247884 0 9705.16333919 0 107.33073290 0 3695.60900554 0 7798
0.08450000 0.08449610 22232.74793059 0 -141.46267148 0 8595.74418205 0 1119.50105517 0 3732.87542729 0 7371
0.08550000 0.08548940 22012.80949511 0 138.08651113 0 8950.04137737 0 539.28505097 0 1473.58751774 0 8256
0.08650000 0.08650700 21893.69003988 0 252.18165413 0 7638.67370620 0 109.47577039 0 2578.42601054 0 8037
0.08750000 0.08749060 21600.21696863 0 356.97128290 0 8483.73418407 0 583.97148348 0 2031.21962670 0 8155
0.08850000 0.08849210 20697.17171311 0 83.97012115 0 7099.04260988 0 236.47873749 0 2504.51427408 0 8718
0.08950000 0.08949900 20949.49644368 0 123.32190975 0 5990.75475483 0 1021.31512506 0 963.37249397 0 8571
0.09050000 0.09049190 20593.69084558 0 187.67636180 0 6739.71001115 0 309.42553982 0 997.21728145 0 8932
0.09150000 0.09150830 20027.15250547 0 291.54763946 0 5206.98423128 0 680.13105190 0 1778.51779544 0 9285
0.09250000 0.09250820 19960.38349984 0 233.41091242 0 5774.98660939 0 668.03055603 0 1777.98541798 0 9204
0.09350000 0.09350330 19678.00162554 0 -53.56903940 0 4197.19729633 0 602.67567801 0 1695.68873663 0 9349
0.09450000 0.09448040 19194.53635056 0 401.09539172 0 5751.28472152 0 -394.95086861 0 688.22318919 0 9564
0.09550000 0.09549270 18764.53064488 0 830.50550012 0 5075.87519216 0 -1422.36837023 0 1785.33888156 0 10155
0.09650000 0.09649430 17588.08738458 0 771.53804243 0 6528.48925647 0 -738.53507679 0 264.82340041 0 9913
0.09750000 0.09749140 17233.94546603 0 133.73987104 0 7157.80377131 0 754.60622117 0 2069.18479386 0 10476
0.09850000 0.09850240 17301.49085544 0 -266.49151643 0 6157.08943546 0 1649.70463408 0 2304.38471634 0 10575
0.09950000 0.09950330 17422.60672612 0 -184.26138226 0 5437.28184471 0 1223.04846987 0 2289.31177969 0 10882
0.10050000 0.10051200 17099.07651114 0 237.55014712 0 4834.68602332 0 374.49981056 0 2689.93690466 0 10875
0.10150000 0.10150300 16887.45647336 0 645.22261862 0 4889.54308343 0 -1075.03090100 0 2768.99495650 0 11118
0.10250000 0.10250800 16279.99161651 0 268.56667938 0 5710.19183682 0 -505.39146222 0 2779.24322248 0 11575
0.10350000 0.10349800 15953.57769032 0 223.89466543 0 6133.38754758 0 -616.33892353 0 939.28795979 0 11364
0.10450000 0.10450100 16191.48386486 0 140.08514482 0 5473.42805557 0 407.80002027 0 727.17769111 0 12093
0.10550000 0.10551000 15610.41605675 0 -167.78651831 0 5307.22646930 0 -8.99113426 0 216.95268526 0 12067
0.10650000 0.10649700 15826.47257330 0 144.40294779 0 5643.06791289 0 -4.85543765 0 651.36270526 0 12054
0.10750000 0.10749900 16086.00658189 0 -158.45993080 0 4685.24323564 0 720.24014742 0 -248.80216642 0 12807
0.10850000 0.10850100 15550.30176929 0 192.73505673 0 4627.96829460 0 732.63788737 0 12.26564379 0 12736
0.10950000 0.10950300 15733.86107878 0 160.22786759 0 4186.16155536 0 457.09706335 0 731.69846299 0 12933
0.11050000 0.11050200 15333.57978092 0 189.22025642 0 3953.95625606 0 522.42310425 0 1319.13150904 0 13428
0.11150000 0.11150900 14863.20211834 0 215.99773321 0 3845.78381222 0 188.07009929 0 1329.75687571 0 13453
0.11250000 0.11250000 14717.24196651 0 122.68971152 0 3420.86896594 0 329.81115981 0 1791.26158073 0 13668
0.11350000 0.11349100 14576.71650117 0 36.33087928 0 3394.74919712 0 -194.37322652 0 1291.89152933 0 13791
0.11450000 0.11448600 14563.51797680 0 59.99838445 0 3417.09795897 0 95.90291812 0 759.47414751 0 14205
0.11550000 0.11549300 14625.73959168 0 30.26343999 0 2951.80006460 0 -129.42872279 0 738.18237673 0 14776
0.11650000 0.11649800 14555.31049106 0 -15.98230389 0 3056.04622472 0 -310.44592994 0 137.77263025 0 14553
0.11750000 0.11747300 14604.00084566 0 50.95628614 0 3111.40238869 0 -203.40700643 0 -685.69217805 0 14568
0.11850000 0.11849100 14730.55140284 0 125.75310012 0 3132.08747100 0 -335.30795702 0 -937.41909311 0 16015
0.11950000 0.11950300 14420.44153617 0 123.56813432 0 3716.81537411 0 -368.65696800 0 -1362.96391938 0 15270
0.12050000 0.12050700 14331.04648877 0 332.67823422 0 4482.55161141 0 -707.10262464 0 -1539.02557973 0 15999
0.12150000 0.12150000 14094.58216983 0 234.51115915 0 4143.05007283 0 -108.54011701 0 -1847.52722285 0 15670
0.12250000 0.12250700 13911.02286034 0 68.91515224 0 5243.44099565 0 21.89357913 0 -1259.50523424 0 16887
0.12350000 0.12352200 13765.83909229 0 92.69168387 0 4743.72711715 0 412.86426080 0 -1593.33917119 0 16407
0.12450000 0.12449800 13857.67420302 0 35.07890497 0 5235.53297223 0 188.64018682 0 -952.04283628 0 16306
0.12550000 0.12549900 13584.16528627 0 227.12331287 0 4521.03806482 0 217.13790825 0 -1463.15070141 0 17523
0.12650000 0.12650100 13357.57213262 0 278.35022421 0 5037.17800600 0 -110.91862420 0 -84.37816629 0 17154
0.12750000 0.12750600 13118.00227854 0 -1.06253445 0 4667.63041489 0 254.45091303 0 -517.41764707 0 18007
0.12850000 0.12850300 13006.20301330 0 134.98763070 0 4436.35677612 0 400.05392832 0 -622.08527267 0 17496
0.12950000 0.12949900 13044.46764277 0 254.95001689 0 4521.58153347 0 117.56446941 0 0.29995809 0 18405
0.13050000 0.13049000 12385.65054405 0 131.27097060 0 4181.70289419 0 204.21999117 0 -553.66811518 0 18100
0.13150000 0.13148800 12444.10115197 0 149.45166064 0 4399.77800859 0 175.47826340 0 652.73468632 0 19059
0.13250000 0.13249300 12235.69756131 0 31.79679797 0 3989.21517116 0 440.26839022 0 -152.06474664 0 18957
0.13350000 0.13349100 12100.71769445 0 61.43436172 0 3680.78007522 0 612.86294241 0 645.61524700 0 19468
0.13450000 0.13450700 11990.58210875 0 10.02688569 0 3103.41672689 0 287.66017493 0 547.76870752 0 19953
0.13550000 0.13551000 11883.33023426 0 126.87774749 0 3239.79408456 0 109.73918632 0 1173.60391388 0 19956
0.13650000 0.13649900 11849.05843569 0 148.96032061 0 2767.57528329 0 332.21794955 0 968.58646565 0 19723
0.13750000 0.13749600 11474.84145066 0 121.04266877 0 3252.79296738 0 -157.73234828 0 733.32443246 0 20946
0.13850000 0.13851100 11593.62816998 0 178.51836048 0 3109.51688521 0 -160.58278590 0 654.44827625 0 20955
0.13950000 0.13949800 11105.50459229 0 140.15945583 0 3162.17788832 0 -239.62309183 0 69.89783229 0 20506
0.14050000 0.14048300 11137.00359162 0 341.53899146 0 3695.32063442 0 -529.83202382 0 512.72828900 0 21447
0.14150000 0.14148400 10655.21308738 0 234.40024718 0 3828.67009533 0 -117.83398550 0 -64.55276265 0 21771
0.14250000 0.14249400 10484.39756319 0 92.52764507 0 3864.99376533 0 104.42040282 0 -47.79108035 0 22470
0.14350000 0.14350900 10516.56203434 0 35.95732777 0 3999.70744347 0 144.33085501 0 -391.00794809 0 22519
0.14450000 0.14449900 10361.71783374 0 86.75467706 0 3851.44032266 0 80.46241920 0 -215.69605265 0 22218
0.14550000 0.14550500 10291.98747853 0 49.39642020 0 3675.63375984 0 389.33206823 0 88.61422714 0 23559
0.14650000 0.14650700 10253.29029238 0 26.22358242 0 3383.58036180 0 -79.12781548 0 -41.75292182 0 23044
0.14750000 0.14750500 10216.20132978 0 109.95047362 0 3491.87480880 0 237.72760627 0 121.57615535 0 23649
0.14850000 0.14849900 10041.20442433 0 117.02876460 0 3414.68007804 0 -77.38095196 0 -162.88310014 0 23640
0.14950000 0.14949500 9932.28887030 0 80.02376237 0 3507.63539966 0 -21.93761118 0 -17.84806504 0 24457
0.15050000 0.15050000 9905.19307616 0 81.67091602 0 3436.14154413 0 86.04528410 0 -379.50083126 0 24591
0.15150000 0.15149900 9758.45654053 0 10.18583363 0 3311.84249994 0 -115.47599703 0 -287.82543376 0 25020
0.15250000 0.15250500 9766.29801677 0 12.75831476 0 2921.04417547 0 213.89151491 0 -631.47840737 0 25297
0.15350000 0.15350100 9827.18868802 0 -48.84629683 0 2632.31813651 0 356.85815269 0 -849.83523817 0 25452
0.15450000 0.15450400 9829.58438656 0 -45.17178328 0 2676.43891797 0 254.46644070 0 -661.50227751 0 26061
0.15550000 0.15549900 9925.10177468 0 129.83022412 0 2097.45625488 0 -28.11629518 0 -1123.98189873 0 26128
0.15650000 0.15649500 9512.91962249 0 258.94506603 0 2544.08766479 0 -428.80120169 0 -1257.83046350 0 26331
0.15750000 0.15749700 9299.00370695 0 289.41480229 0 2805.66245361 0 -316.81782259 0 -1065.94831982 0 27345
0.15850000 0.15849900 9069.87066920 0 36.16495498 0 2853.62078922 0 269.14563986 0 -483.78248321 0 26980
0.15950000 0.15949700 9119.03794527 0 52.75782926 0 3000.29077766 0 217.96087507 0 -632.64076481 0 27777
0.16050000 0.16050000 9020.92521706 0 41.78264623 0 2955.13851488 0 304.19604046 0 -243.14343774 0 28224
0.16150000 0.16150500 9046.86752673 0 120.82749955 0 3088.53234058 0 61.24603320 0 328.20626361 0 28075
0.16250000 0.16249700 8770.57471955 0 150.43988629 0 3249.89816498 0 -124.03396459 0 472.36187771 0 28590
0.16350000 0.16349900 8765.25094501 0 80.62080150 0 3378.91096788 0 233.15026929 0 1018.79187776 0 29163
0.16450000 0.16449100 8755.86779240 0 -5.71683546 0 3282.07372733 0 137.02508358 0 819.30560945 0 28996
0.16550000 0.16550500 8666.41728901 0 102.59689913 0 3206.79777364 0 192.28364501 0 1255.65658890 0 30777
0.16650000 0.16650700 8538.79088573 0 110.88801250 0 3361.95252775 0 11.01567699 0 1160.91558457 0 29211
0.16750000 0.16749900 8510.24214478 0 8.25630919 0 3033.84164843 0 130.05759365 0 1529.17659684 0 30922
0.16850000 0.16850800 8568.80366467 0 -72.71765820 0 2937.37041737 0 413.98447169 0 1159.52918495 0 30867
0.16950000 0.16949900 8484.84330377 0 -1.67064481 0 2505.01337794 0 255.81180289 0 1626.03601979 0 30852
0.17050000 0.17049200 8592.27263741 0 21.57825640 0 2184.26705339 0 372.91266027 0 1208.35263392 0 31257
0.17150000 0.17149500 8466.57610240 0 71.63083181 0 2211.64012746 0 11.45132811 0 1172.58352376 0 32608
0.17250000 0.17250900 8225.63093989 0 146.83081080 0 2074.46420360 0 -234.90378753 0 1228.64952433 0 32361
0.17350000 0.17350400 8226.57369163 0 177.07095928 0 2348.50549780 0 -162.03573270 0 929.14616930 0 32508
0.17450000 0.17449800 7999.88071721 0 66.24716481 0 2443.31304931 0 -20.43164846 0 660.44639556 0 32791
0.17550000 0.17549800 8011.38228844 0 10.89782193 0 2224.46155113 0 -20.67521114 0 448.79752067 0 33633
0.17650000 0.17650100 7962.28155955 0 55.31290830 0 2333.15528123 0 245.36944097 0 640.86377822 0 33984
0.17750000 0.17750300 7999.31506616 0 -70.67554702 0 2107.26087298 0 253.43274115 0 689.03173745 0 34069
0.17850000 0.17849800 8050.61185205 0 38.74842748 0 1991.16931452 0 40.13427254 0 536.57547156 0 34536
