### header ###
fiducial parameters:
Omega_m = 0.31
Omega_nu = 0
Omega_de = 0.69
Omega_k = 0
H_0 = 100
w_de = -1
zeff = 0
beta = 0
fgrowth = 0
b_1 = 2
gamma = 0.55
Lx = 3500 Ly = 3500 Lz = 3500
nx = 700 ny = 700 nz = 700
xoffset = 1379.75464 yoffset = 22.6059522 zoffset = 368.141391
bins = 400 dk = 0.001
kx_ny = 0.628318531 ky_ny = 0.628318531 kz_ny = 0.628318531
############################
A(data) = 3.33019071 (not used)
A(ran) = 3.32461707 (used)
Ngal = 186611
weighted Ngal = 0
Nran = 9399747
weighted Nran = 0
SN(data) = 6655.20636
SN(ran) = 132.237917
SN(data+ran) = 6787.44428
############################
13 columns: k_central k_mean P_0(k) sigma^{lin}_{P_0(k)} P^img_1(k) sigma^{lin}_{P_1(k)} P_2(k) sigma^{lin}_{P_2(k)} P^img_3(k) sigma^{lin}_{P_3(k)} P_4(k) sigma^{lin}_{P_4(k)} N_modes
### header ###
0.00050000 0 0 0 0 0 0 0 0 0 0 0 0
0.00150000 0.00179520 43191.11733183 0 -38315.09441748 0 -68107.93492389 0 87149.30184460 0 31021.85604024 0 3
0.00250000 0.00253879 68714.40157302 0 -29324.01561141 0 1010.78736092 0 -84729.53540640 0 -5515.37496243 0 6
0.00350000 0.00331552 74882.43801986 0 -1607.35844413 0 -48334.99265248 0 -10085.09229066 0 -12081.30809979 0 7
0.00450000 0.00420575 82400.05131137 0 3262.26484958 0 -7079.36682649 0 -52823.15640954 0 13570.74493797 0 24
0.00550000 0.00557378 70820.06531364 0 1779.50491196 0 8651.65490587 0 -25134.53778815 0 6142.61542344 0 45
0.00650000 0.00659388 75569.87040671 0 -1654.05238328 0 3096.14090169 0 12239.13583236 0 -57099.03465702 0 40
0.00750000 0.00754703 77875.28660437 0 -7357.16803645 0 12675.79625622 0 -28382.04025459 0 -44467.27045269 0 57
0.00850000 0.00846663 87114.69731012 0 7706.50746673 0 20653.25057319 0 -21901.78661366 0 -37203.42374736 0 75
0.00950000 0.00948925 74510.55018619 0 16408.98223702 0 53058.84434469 0 -32652.81655148 0 -13586.38352566 0 112
0.01050000 0.01054430 61746.24617833 0 7709.28026597 0 53754.26239335 0 11163.84428823 0 -17065.69200832 0 105
0.01150000 0.01145670 62491.24187734 0 -3730.53518473 0 61501.68528562 0 37918.14047871 0 5196.64723573 0 144
0.01250000 0.01249090 68271.19734297 0 -9826.26811867 0 30479.49650947 0 45478.01123058 0 9563.41784220 0 169
0.01350000 0.01339930 82383.08178004 0 -8994.50598593 0 33764.70904554 0 26084.38789480 0 43014.21274051 0 180
0.01450000 0.01448870 85515.23579822 0 360.47942849 0 2694.82812251 0 15644.57694335 0 42631.23370988 0 267
0.01550000 0.01550050 86390.66397334 0 7297.34212011 0 12932.89020147 0 -13258.52774387 0 34001.06245250 0 238
0.01650000 0.01653350 72933.27106818 0 8804.82433573 0 28849.86694187 0 -14126.85755295 0 42007.02114564 0 315
0.01750000 0.01747870 61834.86484194 0 9034.19028861 0 44875.09376448 0 3395.72522246 0 32718.25461347 0 297
0.01850000 0.01844180 60625.59163868 0 4079.99661818 0 53868.05807404 0 -1530.06389260 0 26899.25813459 0 388
0.01950000 0.01947590 55437.35153024 0 441.99418046 0 54147.88897304 0 4758.26767635 0 20341.69885092 0 399
0.02050000 0.02045430 58665.22257808 0 -1517.39774568 0 52620.18750539 0 10989.45739862 0 24075.66121551 0 462
0.02150000 0.02154770 63757.52383292 0 -5849.08689621 0 41077.46792941 0 16522.77791771 0 29926.26760569 0 571
0.02250000 0.02255340 68211.19396748 0 -3035.96006705 0 29579.55678909 0 11729.38442062 0 10492.93778484 0 510
0.02350000 0.02348930 76102.24786023 0 605.77455844 0 35662.19101944 0 -4314.99689912 0 14332.26652043 0 555
0.02450000 0.02439640 71202.37887244 0 5972.13263515 0 35132.80818910 0 -10467.12856954 0 -7141.45534701 0 592
0.02550000 0.02547300 64163.12890532 0 5041.82521753 0 48254.58147460 0 -11842.51462950 0 3063.39968830 0 837
0.02650000 0.02652900 58812.84640946 0 3226.35155386 0 41547.95650395 0 6659.69811636 0 -16548.62040660 0 723
0.02750000 0.02749970 57064.87377042 0 -412.08454965 0 52267.04379456 0 9581.67395237 0 607.24525115 0 826
0.02850000 0.02848090 56817.54007848 0 -1247.36037358 0 28687.26999461 0 13260.52415933 0 -13928.43603955 0 831
0.02950000 0.02946900 59980.74944811 0 -664.36491544 0 33982.20741769 0 7246.28934056 0 397.13361617 0 996
0.03050000 0.03053250 55726.27721074 0 2083.07097244 0 17183.48051991 0 3955.17628772 0 -3123.39197259 0 1041
0.03150000 0.03150510 56752.43475239 0 -21.42885798 0 17640.88148206 0 4434.26053990 0 11215.75108995 0 1036
0.03250000 0.03246190 51256.52484061 0 903.07187440 0 12879.54154415 0 6380.98742825 0 1110.68355359 0 1059
0.03350000 0.03345080 55770.97473444 0 273.50115291 0 12174.25233022 0 3873.42307502 0 5113.68508255 0 1302
0.03450000 0.03451200 51393.72294686 0 267.44535937 0 6516.43312538 0 -1316.87999606 0 1972.29209732 0 1339
0.03550000 0.03553350 50660.04026873 0 3528.00992846 0 15738.18664559 0 -3327.88037072 0 3897.00295973 0 1365
0.03650000 0.03647120 47282.32715012 0 2474.91186942 0 10606.41182081 0 -3529.96197912 0 -1662.00477149 0 1308
0.03750000 0.03744890 43842.28150466 0 1984.92497064 0 21907.88677198 0 -1050.64690451 0 2147.53300910 0 1579
0.03850000 0.03847530 43033.28959926 0 919.74083429 0 20155.69947810 0 -1919.07653436 0 -684.63851434 0 1662
0.03950000 0.03950240 40639.14382601 0 1872.44914239 0 20494.97919274 0 2342.79353137 0 14.36709288 0 1683
0.04050000 0.04050350 42096.30528107 0 -947.37898797 0 23525.64875884 0 2494.32146408 0 3474.82763909 0 1822
0.04150000 0.04152450 40775.78737242 0 -486.75936047 0 18645.96574950 0 4487.79774757 0 839.08454096 0 1887
0.04250000 0.04250150 42799.26534365 0 558.43732986 0 17396.09876541 0 3651.95405435 0 4648.07663467 0 1920
0.04350000 0.04349210 39382.84394769 0 946.77562685 0 17870.69108282 0 -2283.62199565 0 5264.85809696 0 2005
0.04450000 0.04448520 40655.78062144 0 111.42881926 0 17351.73397762 0 4028.99929461 0 6128.52960332 0 2151
0.04550000 0.04548030 40158.67317422 0 -1041.68299914 0 15351.10387210 0 5687.00014400 0 8307.97198604 0 2274
0.04650000 0.04648670 40770.79633379 0 258.13097217 0 8255.11134138 0 1626.10256697 0 9254.78310472 0 2311
0.04750000 0.04749250 40007.83289572 0 818.63570115 0 12951.74523629 0 1948.32402071 0 9545.25046159 0 2568
0.04850000 0.04851840 38671.23275149 0 876.14022997 0 9001.53780480 0 265.05187907 0 9416.01583475 0 2493
0.04950000 0.04949480 38369.21945859 0 1236.05844389 0 10924.32989014 0 912.60032170 0 11419.27455395 0 2644
0.05050000 0.05050630 35370.71436364 0 1329.40195741 0 11266.65968394 0 -1161.47014442 0 12041.04705487 0 2829
0.05150000 0.05149060 34506.04464955 0 857.56469332 0 13059.44075865 0 392.71266506 0 10916.33313714 0 2784
0.05250000 0.05249300 34172.19962141 0 -230.87435567 0 11739.25558591 0 2924.02770744 0 11359.38209043 0 3055
0.05350000 0.05348950 34976.42231213 0 172.06439298 0 9654.87585223 0 1882.64195239 0 10835.12339308 0 3009
0.05450000 0.05448610 33415.89090151 0 157.20107995 0 9850.69093435 0 1387.87474772 0 11441.78968376 0 3336
0.05550000 0.05550870 33722.22976122 0 362.79527042 0 10187.31985293 0 190.85731709 0 13009.75219633 0 3349
0.05650000 0.05647670 32931.98197866 0 -664.46029973 0 8937.91869910 0 1673.81689624 0 10025.93184613 0 3324
0.05750000 0.05747970 34770.12604889 0 -402.42633535 0 7546.98278102 0 1200.15623937 0 9853.31954803 0 3639
0.05850000 0.05849280 33766.70546099 0 167.04340812 0 8953.92329630 0 515.97246411 0 7584.06065242 0 3846
0.05950000 0.05951020 34196.71116667 0 693.99282985 0 3403.11195962 0 451.53482808 0 9488.15297971 0 3787
0.06050000 0.06049470 33539.77957143 0 -573.81194707 0 7717.54320769 0 1179.08296517 0 7673.98807728 0 3930
0.06150000 0.06148310 32933.31292230 0 890.07853717 0 4266.12908536 0 299.30814996 0 8106.94404135 0 4083
0.06250000 0.06249100 32948.95150999 0 1026.19192436 0 7283.00120246 0 -512.91573023 0 7512.12314902 0 4303
0.06350000 0.06350600 31512.86332914 0 887.30906529 0 7696.18156237 0 -1679.63977464 0 7848.79643238 0 4470
0.06450000 0.06451750 29593.64260922 0 817.36686822 0 9078.49962042 0 -640.61533541 0 6625.11576428 0 4479
0.06550000 0.06550280 30102.61763717 0 508.95173644 0 8608.11086665 0 688.30970053 0 7253.36552421 0 4636
0.06650000 0.06648880 29664.29353378 0 -549.17950777 0 10584.86162514 0 1008.68003350 0 8390.54594732 0 4653
0.06750000 0.06749660 30382.33762421 0 -74.90096032 0 6966.79117747 0 1321.31647484 0 7332.94486232 0 5220
0.06850000 0.06852730 30062.35659225 0 106.67879234 0 10947.14448226 0 461.71654688 0 8075.46722441 0 5029
0.06950000 0.06949320 29636.89827732 0 162.05347861 0 6380.59923636 0 21.08170351 0 5184.51346626 0 5040
0.07050000 0.07048030 29122.59947483 0 457.72482510 0 8944.76196762 0 -610.25651113 0 6975.83050298 0 5475
0.07150000 0.07148790 29256.58113396 0 754.30232237 0 9347.11731931 0 -835.08394622 0 4422.90315422 0 5509
0.07250000 0.07249820 28888.02065937 0 -199.35982867 0 9725.39368243 0 573.27735138 0 5980.62849201 0 5916
0.07350000 0.07351270 28577.35623285 0 455.09399318 0 10140.86992011 0 589.59028385 0 5256.67279361 0 5721
0.07450000 0.07449140 28412.65195817 0 585.97344453 0 8698.14920348 0 322.40667673 0 3449.62843962 0 6028
0.07550000 0.07549160 27865.85594862 0 38.99675938 0 9186.87170580 0 318.45266502 0 4588.89400775 0 6183
0.07650000 0.07648840 26961.81248537 0 745.86635797 0 10665.41698858 0 -520.66071306 0 4904.46074332 0 6330
0.07750000 0.07749960 26344.80919914 0 921.82708844 0 10902.99042721 0 -790.51397129 0 4069.91472015 0 6583
0.07850000 0.07848650 25321.42445673 0 736.51869718 0 12034.28142473 0 -333.31154157 0 4189.28927290 0 6549
0.07950000 0.07947320 24732.92554666 0 373.75559124 0 12321.98707357 0 854.32495469 0 5335.84175743 0 6828
0.08050000 0.08048110 24395.08768762 0 -163.35003953 0 10905.66340567 0 2066.02380273 0 4566.16814520 0 7147
0.08150000 0.08149960 24432.35410936 0 9.20785625 0 10605.46906907 0 1336.18976994 0 4001.95895645 0 7386
0.08250000 0.08250610 23728.39583906 0 706.52255504 0 8711.14808630 0 -134.21568339 0 4501.91684128 0 7227
0.08350000 0.08350160 22638.79665086 0 785.53513298 0 9559.96847994 0 -176.37886859 0 4381.79917833 0 7798
0.08450000 0.08449610 22144.68382682 0 131.65805337 0 9111.62902571 0 311.76800062 0 3839.05145567 0 7371
0.08550000 0.08548940 21995.39631590 0 153.61307773 0 7882.28075597 0 180.89964046 0 1589.77889697 0 8256
0.08650000 0.08650700 21415.43762748 0 271.27514968 0 7691.26816212 0 375.49247268 0 1658.07848777 0 8037
0.08750000 0.08749060 21185.07346686 0 333.98144986 0 7407.61080017 0 -429.00638884 0 456.81756519 0 8155
0.08850000 0.08849210 20933.08147220 0 104.24005996 0 7223.09764774 0 806.11928539 0 1098.27028597 0 8718
0.08950000 0.08949900 20678.42759027 0 28.64456889 0 6725.97910933 0 800.13780288 0 -211.83187963 0 8571
0.09050000 0.09049190 20181.09831911 0 469.92181438 0 7447.80529791 0 -695.82509558 0 317.00082734 0 8932
0.09150000 0.09150830 20270.71519045 0 401.31167006 0 7197.45480040 0 -677.69098857 0 -406.00324637 0 9285
0.09250000 0.09250820 19476.03092911 0 333.53003815 0 8861.48926093 0 -468.49992293 0 119.12389170 0 9204
0.09350000 0.09350330 19263.19085967 0 211.84962555 0 7544.27652897 0 339.14994764 0 -702.62067195 0 9349
0.09450000 0.09448040 19104.36491937 0 97.82990268 0 8713.79888237 0 287.90085390 0 244.08840772 0 9564
0.09550000 0.09549270 18804.68077783 0 146.55242176 0 7912.24917012 0 832.33887498 0 544.10972165 0 10155
0.09650000 0.09649430 18883.98283601 0 288.04171210 0 8599.17136191 0 910.14805805 0 883.58020488 0 9913
0.09750000 0.09749140 18267.31228569 0 241.73485573 0 6471.50268655 0 -66.81902693 0 1008.44046364 0 10476
0.09850000 0.09850240 17839.63573137 0 504.66387970 0 8641.36227510 0 103.93483022 0 1828.51691128 0 10575
0.09950000 0.09950330 17595.29666260 0 77.53234679 0 6696.39888706 0 489.98800790 0 1426.89357859 0 10882
0.10050000 0.10051200 17047.72426927 0 159.34722656 0 7326.78924801 0 878.31299545 0 1415.21454820 0 10875
0.10150000 0.10150300 17283.74494032 0 76.05677395 0 6262.79963357 0 590.30233870 0 1504.18813012 0 11118
0.10250000 0.10250800 16847.41725238 0 -208.36255323 0 6008.47848755 0 1099.07217951 0 2342.80462257 0 11575
0.10350000 0.10349800 16732.40154003 0 321.82438889 0 4885.37279337 0 437.72074228 0 1807.82073777 0 11364
0.10450000 0.10450100 16656.98140078 0 373.13781157 0 5037.95438979 0 198.13425140 0 1890.72743496 0 12093
0.10550000 0.10551000 15769.13108507 0 304.23264141 0 5202.61429968 0 -238.17901798 0 2637.99682935 0 12067
0.10650000 0.10649700 15229.54435354 0 506.68580490 0 5320.11444015 0 -236.20811229 0 2420.04371812 0 12054
0.10750000 0.10749900 15006.50038291 0 314.37775926 0 5331.42746104 0 258.12320834 0 1705.68190508 0 12807
0.10850000 0.10850100 14611.65377156 0 -102.48155068 0 5014.46323465 0 125.47692931 0 1923.92338743 0 12736
0.10950000 0.10950300 14819.94645025 0 12.11081068 0 5153.29174686 0 606.86149574 0 2143.98382608 0 12933
0.11050000 0.11050200 14805.86063012 0 6.10432861 0 4559.06977916 0 231.23149222 0 1726.63317611 0 13428
0.11150000 0.11150900 14786.45103546 0 124.51310430 0 4890.88511826 0 52.53312161 0 2501.10927661 0 13453
0.11250000 0.11250000 14530.57712187 0 412.59585383 0 4597.88896848 0 -402.16569222 0 1647.61948905 0 13668
0.11350000 0.11349100 14494.97437966 0 39.39670794 0 5351.45816273 0 147.22787565 0 2822.12178988 0 13791
0.11450000 0.11448600 14175.21517165 0 34.54353290 0 4845.00083648 0 650.17594718 0 2396.81875171 0 14205
0.11550000 0.11549300 14235.32945910 0 119.98900506 0 5622.98175522 0 115.61352787 0 2929.26275240 0 14776
0.11650000 0.11649800 14315.29698910 0 -75.74333673 0 4604.12222116 0 573.09767399 0 2593.62095036 0 14553
0.11750000 0.11747300 14167.45133378 0 -23.53418898 0 4836.99299229 0 492.56560207 0 2882.80172839 0 14568
0.11850000 0.11849100 14530.46620990 0 -175.31855016 0 4172.35301516 0 268.92159769 0 2847.27662456 0 16015
0.11950000 0.11950300 14318.51343622 0 -36.61891767 0 3895.45019215 0 137.71495603 0 2313.86768973 0 15270
0.12050000 0.12050700 14519.81866083 0 -33.54410514 0 3202.78276034 0 414.57785073 0 2804.07641245 0 15999
0.12150000 0.12150000 14400.14464576 0 149.42171441 0 3279.33420168 0 -333.36367019 0 877.56101230 0 15670
0.12250000 0.12250700 14223.46187837 0 449.59386861 0 3410.31014644 0 -596.30267625 0 1683.12241048 0 16887
0.12350000 0.12352200 13429.99764869 0 545.66803482 0 3949.15376778 0 -921.69177583 0 195.33372417 0 16407
0.12450000 0.12449800 13179.44750963 0 176.35557708 0 4118.98217545 0 -51.60079559 0 637.87913713 0 16306
0.12550000 0.12549900 12764.74765574 0 67.55825520 0 3911.94280202 0 511.56038596 0 -410.88337302 0 17523
0.12650000 0.12650100 12766.74407119 0 -55.37701542 0 3579.26234955 0 590.23690063 0 -255.90940543 0 17154
0.12750000 0.12750600 12614.35102512 0 -3.30925825 0 2935.69564663 0 258.89515564 0 -120.69995079 0 18007
0.12850000 0.12850300 12654.72298201 0 127.86708226 0 2807.78087223 0 270.12166520 0 -650.74825294 0 17496
0.12950000 0.12949900 12410.27300127 0 182.90825623 0 2774.56273737 0 -402.07474441 0 -828.29946105 0 18405
0.13050000 0.13049000 12253.22165249 0 121.31551222 0 2276.57908559 0 268.30270890 0 -955.22490069 0 18100
0.13150000 0.13148800 12152.73540814 0 -44.85058222 0 1844.54369087 0 231.19267303 0 -925.34188875 0 19059
0.13250000 0.13249300 12179.90884066 0 132.22814090 0 2065.92398195 0 144.73568370 0 -1164.64222675 0 18957
0.13350000 0.13349100 11747.90671953 0 231.45442527 0 1985.34643613 0 -113.03482458 0 -1127.69744971 0 19468
0.13450000 0.13450700 11399.86495929 0 377.48001518 0 2339.19998356 0 -667.81760505 0 -1483.46977422 0 19953
0.13550000 0.13551000 11265.55056425 0 200.22050555 0 2521.27307266 0 -39.39548791 0 -699.04154270 0 19956
0.13650000 0.13649900 10982.28139419 0 -107.05899857 0 2902.89897726 0 266.77877843 0 -886.28978429 0 19723
0.13750000 0.13749600 11402.08319868 0 -103.00361332 0 2598.46780342 0 445.00987691 0 -348.43882509 0 20946
0.13850000 0.13851100 11475.50692248 0 -119.11058227 0 2258.32297542 0 676.09718357 0 -74.12757116 0 20955
0.13950000 0.13949800 11616.91968357 0 113.83560900 0 2382.61092842 0 32.74542805 0 573.19971300 0 20506
0.14050000 0.14048300 11212.64555481 0 321.37408629 0 2697.53437457 0 -414.15749436 0 1073.18643495 0 21447
0.14150000 0.14148400 11162.62425657 0 360.85985655 0 3294.69550945 0 -256.33198003 0 987.32171554 0 21771
0.14250000 0.14249400 10603.50592721 0 145.84258515 0 3639.59846095 0 -180.54250392 0 1438.55042658 0 22470
0.14350000 0.14350900 10532.34480759 0 68.04981705 0 3717.45866353 0 161.23383916 0 1232.35398411 0 22519
0.14450000 0.14449900 10674.57831726 0 -29.39222647 0 3860.13582107 0 380.58222296 0 1414.53798519 0 22218
0.14550000 0.14550500 10460.25202743 0 74.51476484 0 3480.93888861 0 -278.59201230 0 1185.34949145 0 23559
0.14650000 0.14650700 10673.03664088 0 127.24819347 0 3686.11494095 0 75.73812386 0 1321.53829877 0 23044
0.14750000 0.14750500 10357.92464438 0 95.92254954 0 3801.68521315 0 -153.92584949 0 840.77705762 0 23649
0.14850000 0.14849900 10303.50014096 0 178.57603470 0 3652.29788146 0 -74.03728881 0 552.49910302 0 23640
0.14950000 0.14949500 10001.64212482 0 118.90539512 0 3639.45427539 0 207.20795963 0 594.24636833 0 24457
0.15050000 0.15050000 9880.89226364 0 123.55815224 0 3384.66729910 0 246.60056383 0 664.45253589 0 24591
0.15150000 0.15149900 9790.07754303 0 -4.80437378 0 2948.47270552 0 798.35988401 0 997.42468684 0 25020
0.15250000 0.15250500 9541.61254900 0 100.41437339 0 2640.42580148 0 304.35464458 0 852.73447705 0 25297
0.15350000 0.15350100 9501.04095056 0 94.40383194 0 2406.61227861 0 221.12075708 0 1025.05951315 0 25452
0.15450000 0.15450400 9449.33379039 0 75.25011120 0 2001.65049564 0 117.65652635 0 972.26985216 0 26061
0.15550000 0.15549900 9215.44262914 0 52.73365045 0 2145.69187041 0 -30.70930611 0 914.94278249 0 26128
0.15650000 0.15649500 9124.74991170 0 154.62015842 0 2198.53033267 0 -96.37340670 0 1198.22637110 0 26331
0.15750000 0.15749700 9109.25550956 0 125.05657295 0 2232.11447703 0 -293.95221096 0 292.60573965 0 27345
0.15850000 0.15849900 8978.47920634 0 93.20587176 0 2463.37702459 0 -30.01211347 0 764.38865688 0 26980
0.15950000 0.15949700 8680.76929786 0 181.09595465 0 2587.46533605 0 -129.67162000 0 576.57698247 0 27777
0.16050000 0.16050000 8686.48126429 0 109.14647275 0 2799.19628579 0 -83.41256668 0 819.91451616 0 28224
0.16150000 0.16150500 8594.04722892 0 6.73426423 0 2869.39247128 0 394.71351699 0 461.54241509 0 28075
0.16250000 0.16249700 8686.48126429 0 -55.36492601 0 2511.36863379 0 244.40783419 0 871.83684555 0 28590
0.16350000 0.16349900 8654.09496920 0 -49.11792025 0 2416.54999108 0 266.12107046 0 1177.97384548 0 29163
0.16450000 0.16449100 8732.47645803 0 -23.38922704 0 1937.27718855 0 313.18656471 0 566.14792998 0 28996
0.16550000 0.16550500 8569.64659564 0 214.35290870 0 1926.13053562 0 -125.54014914 0 829.06253540 0 30777
0.16650000 0.16650700 8529.36336832 0 115.73664015 0 1866.65953758 0 -252.05965097 0 600.00380867 0 29211
0.16750000 0.16749900 8368.23045906 0 19.14007857 0 2060.76657537 0 128.18539961 0 825.18283471 0 30922
0.16850000 0.16850800 8227.96009125 0 149.03795899 0 2013.58462356 0 -273.62981079 0 33.29788057 0 30867
0.16950000 0.16949900 8181.85398554 0 107.17612161 0 2233.81143016 0 -210.39778787 0 209.64469560 0 30852
0.17050000 0.17049200 8040.07521495 0 76.33183564 0 2427.37499930 0 -166.68516246 0 -90.91542868 0 31257
0.17150000 0.17149500 8148.46948272 0 34.23785951 0 2741.98789193 0 -74.26410379 0 -162.71895043 0 32608
0.17250000 0.17250900 7999.68107566 0 63.94818151 0 2678.98989327 0 -115.46601495 0 -338.98468881 0 32361
0.17350000 0.17350400 8204.43566252 0 50.05168812 0 2714.69245624 0 -48.81424327 0 -519.56379368 0 32508
0.17450000 0.17449800 7978.57452787 0 10.61100358 0 2680.46502246 0 1.44730138 0 -642.92563174 0 32791
0.17550000 0.17549800 8099.96767847 0 69.52638810 0 2774.15236308 0 24.27851921 0 -377.01640314 0 33633
0.17650000 0.17650100 7925.33678252 0 72.24317679 0 2725.91674756 0 264.53613841 0 -132.04624527 0 33984
0.17750000 0.17750300 7929.05233350 0 -22.50259675 0 2335.34024702 0 419.28384559 0 -220.19353301 0 34069
0.17850000 0.17849800 7898.87318660 0 -23.06292402 0 2345.32232428 0 353.45980994 0 -22.54862522 0 34536
