### header ###
fiducial parameters:
Omega_m = 0.31
Omega_nu = 0
Omega_de = 0.69
Omega_k = 0
H_0 = 100
w_de = -1
zeff = 0
beta = 0
fgrowth = 0
b_1 = 2
gamma = 0.55
Lx = 3500 Ly = 3500 Lz = 3500
nx = 700 ny = 700 nz = 700
xoffset = 1379.75464 yoffset = 22.6059522 zoffset = 368.141391
bins = 400 dk = 0.001
kx_ny = 0.628318531 ky_ny = 0.628318531 kz_ny = 0.628318531
############################
A(data) = 3.31074231 (not used)
A(ran) = 3.31499473 (used)
Ngal = 185937
weighted Ngal = 0
Nran = 9399747
weighted Nran = 0
SN(data) = 6673.93788
SN(ran) = 131.855184
SN(data+ran) = 6805.79307
############################
13 columns: k_central k_mean P_0(k) sigma^{lin}_{P_0(k)} P^img_1(k) sigma^{lin}_{P_1(k)} P_2(k) sigma^{lin}_{P_2(k)} P^img_3(k) sigma^{lin}_{P_3(k)} P_4(k) sigma^{lin}_{P_4(k)} N_modes
### header ###
0.00050000 0 0 0 0 0 0 0 0 0 0 0 0
0.00150000 0.00179520 35244.60745434 0 -37080.08963730 0 -68790.04353621 0 56474.93300475 0 28576.80167300 0 3
0.00250000 0.00253879 65808.39706061 0 -34609.74734102 0 -33690.84167386 0 -34867.72858204 0 -18627.99801045 0 6
0.00350000 0.00331552 94186.77722021 0 -30384.66677556 0 -65240.30595293 0 -32277.26862281 0 5266.48850291 0 7
0.00450000 0.00420575 104172.73639255 0 -7977.82032648 0 -33657.34625908 0 -63946.29600498 0 -6467.73167958 0 24
0.00550000 0.00557378 106474.15975930 0 6793.08085086 0 -26224.02606438 0 -48764.33288634 0 1886.01367626 0 45
0.00650000 0.00659388 79885.56605124 0 8466.64264958 0 5877.22526286 0 950.84942349 0 -33179.31567061 0 40
0.00750000 0.00754703 85647.77560175 0 4454.19142082 0 11184.03026668 0 -32101.58406315 0 -1285.58063827 0 57
0.00850000 0.00846663 76066.86694196 0 -359.12741158 0 6158.33164952 0 18026.74422389 0 -9282.27818195 0 75
0.00950000 0.00948925 73886.67035785 0 5290.14602600 0 13700.95559014 0 2599.33291679 0 -5038.15403134 0 112
0.01050000 0.01054430 78387.47807944 0 -116.83910513 0 19091.72095485 0 -2984.67437236 0 15513.58990739 0 105
0.01150000 0.01145670 71621.29338118 0 5999.74971555 0 19841.48586855 0 12602.26162045 0 12297.69735225 0 144
0.01250000 0.01249090 72135.03762382 0 4351.12092758 0 32862.55108577 0 -2352.74233504 0 27607.43105973 0 169
0.01350000 0.01339930 63184.21986266 0 732.98282360 0 39250.74779203 0 7298.62869896 0 29296.95309085 0 180
0.01450000 0.01448870 67635.00628602 0 -663.76044520 0 32009.41621651 0 21994.95266802 0 48556.37294356 0 267
0.01550000 0.01550050 69160.26769034 0 -4293.00305557 0 33446.39169312 0 22862.17335740 0 47455.57164645 0 238
0.01650000 0.01653350 80182.36648157 0 -6638.55829498 0 16933.15220479 0 21776.67791208 0 47788.86211475 0 315
0.01750000 0.01747870 86933.79988789 0 -4730.11821849 0 25157.05291796 0 10271.75713529 0 62624.33624072 0 297
0.01850000 0.01844180 90887.92251190 0 2917.35080688 0 19334.28543211 0 2867.24077907 0 63463.05255394 0 388
0.01950000 0.01947590 87661.93696754 0 -1490.14667478 0 11115.37575757 0 7747.94417853 0 47760.24682662 0 399
0.02050000 0.02045430 89985.76455214 0 -1842.95764970 0 16684.48756921 0 13533.14578031 0 63539.47090092 0 462
0.02150000 0.02154770 94311.88592179 0 2169.74867659 0 9762.97065769 0 3481.77072838 0 42898.75338027 0 571
0.02250000 0.02255340 86107.39480328 0 6445.79329202 0 32709.82530379 0 -11838.41088662 0 49408.06595722 0 510
0.02350000 0.02348930 76335.71755599 0 8215.30503553 0 24913.37932101 0 -9514.73857879 0 28353.42496647 0 555
0.02450000 0.02439640 73472.74688774 0 4446.95996041 0 36792.49490043 0 -10205.19886241 0 24029.96548408 0 592
0.02550000 0.02547300 66906.98011834 0 2004.78930438 0 32270.28116873 0 6479.19997723 0 14623.52135229 0 837
0.02650000 0.02652900 71409.78425538 0 -361.54640164 0 40328.47939949 0 7880.07360777 0 10896.28025305 0 723
0.02750000 0.02749970 65924.85462857 0 475.50623204 0 30572.88438778 0 2129.03289259 0 12812.32889065 0 826
0.02850000 0.02848090 69164.03869730 0 -1242.25842299 0 27558.62979316 0 12800.79404582 0 6282.66396731 0 831
0.02950000 0.02946900 68728.04374526 0 -1254.85802272 0 23603.61987339 0 1761.43735214 0 14978.32874267 0 996
0.03050000 0.03053250 67382.57064348 0 1880.49026018 0 17463.86597876 0 2866.88586077 0 6579.75276876 0 1041
0.03150000 0.03150510 64517.27082387 0 4129.46335657 0 25531.93537481 0 -1981.49779078 0 8877.44949334 0 1036
0.03250000 0.03246190 60988.38469086 0 3074.74598277 0 18192.11397038 0 -4983.85153108 0 10037.02304308 0 1059
0.03350000 0.03345080 57745.20779123 0 956.56693552 0 28293.53250295 0 5553.93905422 0 4517.56652018 0 1302
0.03450000 0.03451200 57047.57150318 0 1833.27503477 0 20112.33289803 0 4872.27408978 0 7757.99280296 0 1339
0.03550000 0.03553350 52796.09388899 0 2130.80748410 0 23057.93298354 0 -1574.02939730 0 8383.69158760 0 1365
0.03650000 0.03647120 49358.93195474 0 3716.69337094 0 19735.01037785 0 -1145.72064475 0 8132.22087919 0 1308
0.03750000 0.03744890 48844.41132831 0 574.37537988 0 23227.07373700 0 6482.54951871 0 9447.71447563 0 1579
0.03850000 0.03847530 46130.06269917 0 -971.78073037 0 15789.31706352 0 5227.68040479 0 5658.67322700 0 1662
0.03950000 0.03950240 47597.31714345 0 1150.03512036 0 13864.10709725 0 2173.75259869 0 12632.09694024 0 1683
0.04050000 0.04050350 43214.74158133 0 2119.56101040 0 17243.92754328 0 -1006.26769816 0 8957.86067122 0 1822
0.04150000 0.04152450 43781.61265735 0 1102.94855284 0 18385.21170925 0 2798.05389251 0 17257.12606765 0 1887
0.04250000 0.04250150 40984.74552292 0 -242.95488739 0 15009.49500609 0 6049.69337541 0 14901.13401191 0 1920
0.04350000 0.04349210 42820.44952982 0 -893.83734382 0 13968.03161265 0 4127.30057316 0 16994.59743588 0 2005
0.04450000 0.04448520 43440.78017513 0 -662.79772931 0 14114.43541237 0 2909.30968909 0 17141.66670742 0 2151
0.04550000 0.04548030 43318.88792067 0 1248.26985173 0 12699.97506556 0 183.55376389 0 19828.17643222 0 2274
0.04650000 0.04648670 42465.53122748 0 1083.85727553 0 11815.56302091 0 -1779.17217606 0 19390.07415276 0 2311
0.04750000 0.04749250 40826.03049459 0 1114.42128696 0 15280.89659541 0 -2158.21383176 0 14928.41835640 0 2568
0.04850000 0.04851840 40123.18134398 0 1415.63601368 0 19329.18348151 0 -1381.98532214 0 16675.17096377 0 2493
0.04950000 0.04949480 38674.44919860 0 976.64643847 0 17390.77499087 0 280.02832231 0 9580.20991438 0 2644
0.05050000 0.05050630 37909.15660918 0 531.11527530 0 18586.40602189 0 849.27402360 0 12103.26866975 0 2829
0.05150000 0.05149060 37611.13614718 0 45.30509947 0 17711.64331859 0 923.60278907 0 5899.51856873 0 2784
0.05250000 0.05249300 37492.90398771 0 -177.06208632 0 17907.73568063 0 2600.54185725 0 9762.00572355 0 3055
0.05350000 0.05348950 37618.01268929 0 569.00058584 0 16808.48715109 0 353.17032970 0 4014.03726993 0 3009
0.05450000 0.05448610 37310.01015003 0 236.70943439 0 15767.57831750 0 -55.97272361 0 6782.22256905 0 3336
0.05550000 0.05550870 36666.05525522 0 -594.26300513 0 14830.92673522 0 1995.22869261 0 2949.81474035 0 3349
0.05650000 0.05647670 37616.79265762 0 -27.14980827 0 15979.42017921 0 -326.92633949 0 1726.86609125 0 3324
0.05750000 0.05747970 37814.10505133 0 131.80112981 0 12175.91600976 0 -731.62304285 0 265.48776311 0 3639
0.05850000 0.05849280 37063.23101794 0 368.10018992 0 15269.69448650 0 -742.17298939 0 -2804.04313886 0 3846
0.05950000 0.05951020 37309.56650216 0 551.28683519 0 16462.99636616 0 -3326.98198377 0 669.80182018 0 3787
0.06050000 0.06049470 35939.58185511 0 1197.28361936 0 17931.13810619 0 21.29354537 0 -7377.04346138 0 3930
0.06150000 0.06148310 35486.39554781 0 1349.86521578 0 19409.81648333 0 -1744.57873277 0 -3680.17005939 0 4083
0.06250000 0.06249100 33774.13656294 0 757.50546005 0 19208.06761084 0 -976.64754759 0 -5344.55943823 0 4303
0.06350000 0.06350600 33653.24251621 0 -117.98704402 0 19932.76641944 0 4795.94447238 0 -938.01469038 0 4470
0.06450000 0.06451750 32802.10406240 0 51.83725991 0 17172.27841099 0 2563.41962107 0 -4455.43363487 0 4479
0.06550000 0.06550280 32065.42676110 0 1227.67349900 0 15603.09586676 0 367.27611398 0 -601.64086934 0 4636
0.06650000 0.06648880 31145.30106227 0 907.21998206 0 15440.05527162 0 655.75703749 0 -2394.80015386 0 4653
0.06750000 0.06749660 29301.83321751 0 545.29093412 0 14220.24543126 0 904.64238788 0 -1497.82178307 0 5220
0.06850000 0.06852730 29006.47464278 0 516.99396335 0 13185.54766796 0 598.73608486 0 -2457.42105183 0 5029
0.06950000 0.06949320 28775.99957019 0 -26.26229069 0 11566.01108958 0 1106.91920135 0 -4078.46603300 0 5040
0.07050000 0.07048030 28047.75157857 0 357.59128081 0 11220.74212858 0 379.93006058 0 -4375.06682179 0 5475
0.07150000 0.07148790 27279.02071809 0 419.30270063 0 9767.27404210 0 -539.69764350 0 -6749.37044369 0 5509
0.07250000 0.07249820 27274.02967947 0 325.27596938 0 11468.51946840 0 -184.20259892 0 -4294.13435766 0 5916
0.07350000 0.07351270 26489.32749538 0 415.85888398 0 10257.91532150 0 536.10187745 0 -6372.81321610 0 5721
0.07450000 0.07449140 26029.93011778 0 460.43218627 0 10906.50633664 0 479.86618156 0 -4314.88598715 0 6028
0.07550000 0.07549160 25937.31862327 0 106.98557485 0 10493.48125349 0 1189.87469980 0 -2400.17938438 0 6183
0.07650000 0.07648840 25199.64311424 0 145.94462416 0 9926.93182217 0 1477.68016941 0 -2994.82281757 0 6330
0.07750000 0.07749960 25955.17545035 0 3.22368967 0 11128.90701785 0 185.50914192 0 190.95935610 0 6583
0.07850000 0.07848650 24922.36319053 0 530.94668911 0 9059.33403210 0 1207.73152689 0 -1114.17728063 0 6549
0.07950000 0.07947320 24320.00028428 0 547.68885090 0 10162.83049007 0 623.62029433 0 2600.63058683 0 6828
0.08050000 0.08048110 23950.77433787 0 35.13713376 0 9328.36210527 0 1697.84042883 0 2635.86731953 0 7147
0.08150000 0.08149960 23647.98466118 0 158.62518963 0 7287.60404919 0 2710.13397430 0 4549.75317372 0 7386
0.08250000 0.08250610 23440.80110219 0 275.43767589 0 6972.54750868 0 428.72689067 0 4641.06699820 0 7227
0.08350000 0.08350160 22367.17323760 0 289.75308379 0 4965.14068183 0 555.57136457 0 4317.07095294 0 7798
0.08450000 0.08449610 22355.74930475 0 288.12489608 0 6294.78664557 0 62.57542406 0 4588.00671200 0 7371
0.08550000 0.08548940 21855.20358647 0 -193.22750587 0 3561.92680872 0 778.47669524 0 3123.33651660 0 8256
0.08650000 0.08650700 21894.35551170 0 22.80782649 0 4166.82959908 0 1119.96688544 0 3531.50365550 0 8037
0.08750000 0.08749060 22016.13685419 0 148.10962581 0 3087.62286243 0 -538.29127973 0 1510.55447717 0 8155
0.08850000 0.08849210 21788.21275691 0 451.77661617 0 3412.91657773 0 -168.51520995 0 2743.49629472 0 8718
0.08950000 0.08949900 20699.83360038 0 831.35508581 0 4816.23027160 0 -1456.93963112 0 1904.85761987 0 8571
0.09050000 0.09049190 20127.19510194 0 534.54245516 0 4597.90005967 0 -1456.60689521 0 1015.95807694 0 8932
0.09150000 0.09150830 19663.80489344 0 266.14103461 0 7264.44562997 0 -351.77283889 0 792.45382163 0 9285
0.09250000 0.09250820 19339.60920665 0 295.68243768 0 6779.21685468 0 -606.43337554 0 -1268.69983651 0 9204
0.09350000 0.09350330 19607.57252492 0 205.53873449 0 7586.88890764 0 121.75361450 0 240.84755997 0 9349
0.09450000 0.09448040 18863.68594560 0 156.44687855 0 7431.27941446 0 -272.61385715 0 -1159.16317545 0 9564
0.09550000 0.09549270 18879.65726920 0 -29.32889574 0 7271.79909354 0 842.57383152 0 187.38355420 0 10155
0.09650000 0.09649430 18839.95078413 0 92.63866795 0 7860.94129304 0 925.15999312 0 -302.12531399 0 9913
0.09750000 0.09749140 18939.54973272 0 192.29140885 0 5490.51959007 0 588.52663807 0 864.37690648 0 10476
0.09850000 0.09850240 18288.38555989 0 252.00197674 0 6740.29784459 0 563.95963682 0 592.84111368 0 10575
0.09950000 0.09950330 17789.17078525 0 655.85020354 0 5345.52437236 0 -241.95889790 0 1451.56040060 0 10882
0.10050000 0.10051200 17214.31404743 0 348.32014928 0 6326.33000969 0 710.67953565 0 2206.51599447 0 10875
0.10150000 0.10150300 16855.51382615 0 234.19173268 0 5216.01246560 0 770.91138980 0 1576.58037260 0 11118
0.10250000 0.10250800 16186.93647411 0 45.08693563 0 6043.88158821 0 501.38199452 0 2798.61954355 0 11575
0.10350000 0.10349800 16193.36936834 0 199.31657300 0 4924.44708022 0 246.04378574 0 2329.78355735 0 11364
0.10450000 0.10450100 16024.11770291 0 -25.00931817 0 4757.41365418 0 364.79501323 0 2803.10038712 0 12093
0.10550000 0.10551000 16158.54300993 0 -25.28127432 0 4438.47519474 0 338.62089755 0 2575.79739686 0 12067
0.10650000 0.10649700 15872.83377654 0 398.03089400 0 4692.54124323 0 -110.24561037 0 2857.09233386 0 12054
0.10750000 0.10749900 15466.00867248 0 440.70094690 0 4891.29549254 0 -764.79903116 0 2318.21543894 0 12807
0.10850000 0.10850100 15181.74129470 0 82.19220228 0 5297.84331668 0 360.84321975 0 2381.19125521 0 12736
0.10950000 0.10950300 15210.13475888 0 -54.66451693 0 4951.19904726 0 610.16223595 0 3153.87058180 0 12933
0.11050000 0.11050200 15102.77197243 0 -210.90909205 0 4216.52925261 0 716.82516788 0 1195.30938631 0 13428
0.11150000 0.11150900 15553.96186428 0 -4.34679536 0 4506.96333589 0 321.49719858 0 3329.55514146 0 13453
0.11250000 0.11250000 15253.94498683 0 -9.14834089 0 3221.88180149 0 42.94289634 0 1250.73209746 0 13668
0.11350000 0.11349100 15596.66297253 0 -96.02203758 0 3477.01260489 0 498.61141353 0 2805.60699763 0 13791
0.11450000 0.11448600 15656.00087620 0 -79.76034644 0 3006.37984479 0 531.79849303 0 1474.91846137 0 14205
0.11550000 0.11549300 15447.70819751 0 149.86979876 0 2504.79155400 0 -410.27224807 0 1633.77767526 0 14776
0.11650000 0.11649800 15536.43777310 0 267.55183486 0 3541.50791514 0 -154.51811940 0 1331.69783518 0 14553
0.11750000 0.11747300 14805.41698224 0 402.97534960 0 3370.86985009 0 -837.66597687 0 974.09102670 0 14568
0.11850000 0.11849100 14771.14518367 0 255.26389776 0 4025.00646371 0 -56.13709515 0 1273.63541916 0 16015
0.11950000 0.11950300 14232.88939578 0 277.45294638 0 4827.35474214 0 -498.41842670 0 807.08532865 0 15270
0.12050000 0.12050700 14102.78965557 0 292.32069589 0 4567.08871455 0 103.57381176 0 817.76504219 0 15999
0.12150000 0.12150000 14006.18533015 0 144.99521770 0 5253.00160742 0 240.15546928 0 1061.84679519 0 15670
0.12250000 0.12250700 13340.93533720 0 166.35020831 0 4801.53443564 0 20.45427450 0 1743.62488984 0 16887
0.12350000 0.12352200 13640.28674283 0 28.45624036 0 5299.89518812 0 703.97047062 0 2320.48913431 0 16407
0.12450000 0.12449800 13635.29570421 0 -167.32290628 0 4453.34848985 0 911.28712398 0 2170.68033713 0 16306
0.12550000 0.12549900 13423.34293053 0 270.59858666 0 4661.06442629 0 -137.39331132 0 2008.18321064 0 17523
0.12650000 0.12650100 13381.86185394 0 392.08268508 0 4415.82697057 0 -506.53607375 0 2688.46177546 0 17154
0.12750000 0.12750600 12590.50495168 0 50.14873609 0 5014.13049875 0 39.18619703 0 1917.27976045 0 18007
0.12850000 0.12850300 12774.17517315 0 125.94275959 0 4387.34477681 0 -187.57654103 0 1488.42753925 0 17496
0.12950000 0.12949900 12665.70326699 0 238.17458151 0 4966.91527334 0 -299.42904401 0 513.43036177 0 18405
0.13050000 0.13049000 12500.11169656 0 84.92041491 0 4754.72958452 0 366.49529372 0 938.03132718 0 18100
0.13150000 0.13148800 12266.42017686 0 -20.40292226 0 4297.61699350 0 262.48204874 0 710.18265003 0 19059
0.13250000 0.13249300 12269.52571200 0 111.27243338 0 4062.06215271 0 296.37674661 0 833.06091190 0 18957
0.13350000 0.13349100 12082.86086736 0 277.04479033 0 4403.09427647 0 178.37417492 0 657.21220253 0 19468
0.13450000 0.13450700 11800.92264094 0 231.78272470 0 4303.55078386 0 -239.11400589 0 725.69257984 0 19953
0.13550000 0.13551000 11385.77913917 0 274.17771592 0 4762.84834069 0 -439.86134329 0 1275.54310503 0 19956
0.13650000 0.13649900 11409.29247670 0 45.21237706 0 4555.76460247 0 155.69156804 0 719.87635616 0 19723
0.13750000 0.13749600 11381.45357236 0 -177.60999145 0 4874.82506508 0 497.44794697 0 648.54443211 0 20946
0.13850000 0.13851100 11491.25642214 0 61.41339936 0 3993.59619395 0 286.41796087 0 621.43865589 0 20955
0.13950000 0.13949800 11381.89722024 0 134.17797332 0 4117.58468463 0 157.40183061 0 864.10960864 0 20506
0.14050000 0.14048300 11224.40222357 0 116.42983996 0 4201.24558321 0 156.18068983 0 913.06171549 0 21447
0.14150000 0.14148400 11004.84088878 0 38.64295020 0 3905.26590145 0 41.88313248 0 463.44566448 0 21771
0.14250000 0.14249400 10984.10035049 0 128.46378865 0 4050.83786140 0 162.13998995 0 875.96055258 0 22470
0.14350000 0.14350900 10811.29950204 0 120.49365453 0 3539.48931730 0 62.43179306 0 449.05150908 0 22519
0.14450000 0.14449900 10686.23516525 0 32.63484881 0 3519.74698673 0 -88.48268554 0 457.05380768 0 22218
0.14550000 0.14550500 10564.33181959 0 149.14221624 0 3542.92758835 0 41.16220467 0 -329.84776076 0 23559
0.14650000 0.14650700 10475.34714648 0 76.23744955 0 3331.98411359 0 171.69505612 0 -114.84047144 0 23044
0.14750000 0.14750500 10283.74671920 0 -6.60599454 0 3020.41020892 0 353.48642882 0 99.12047436 0 23649
0.14850000 0.14849900 10360.04306300 0 172.33169082 0 3074.57961482 0 -7.17074720 0 -533.97791323 0 23640
0.14950000 0.14949500 10101.62926531 0 84.68993983 0 2773.14306416 0 -37.14530588 0 -563.66572011 0 24457
0.15050000 0.15050000 9995.66396966 0 138.15638567 0 2982.42285938 0 -173.43193756 0 -603.66390366 0 24591
0.15150000 0.15149900 9833.25557275 0 94.35713801 0 3114.36373827 0 -340.05720755 0 -417.82535319 0 25020
0.15250000 0.15250500 9671.23536773 0 274.16773384 0 3268.45373747 0 -186.29218042 0 -1131.95646934 0 25297
0.15350000 0.15350100 9578.45750526 0 86.54527526 0 3367.55358221 0 51.71658769 0 -1054.59426151 0 25452
0.15450000 0.15450400 9424.22332050 0 -2.58814190 0 3310.38955314 0 347.68573281 0 -827.25023382 0 26061
0.15550000 0.15549900 9492.38981694 0 -60.08201208 0 3063.37750590 0 605.04697592 0 -308.19219872 0 26128
0.15650000 0.15649500 9476.25212538 0 4.25914163 0 2825.83734086 0 463.63310571 0 -274.15109705 0 26331
0.15750000 0.15749700 9497.20339641 0 115.70114832 0 2306.73605009 0 321.00474943 0 424.23828327 0 27345
0.15850000 0.15849900 9246.10978870 0 136.77664077 0 2339.42180750 0 90.90600116 0 599.32059094 0 26980
0.15950000 0.15949700 9019.16171675 0 182.75519771 0 2265.04424077 0 -170.70350311 0 644.57045624 0 27777
0.16050000 0.16050000 8970.80409806 0 72.70823068 0 2348.28367386 0 139.48400194 0 990.07676886 0 28224
0.16150000 0.16150500 8700.26762209 0 13.31187640 0 2031.97382810 0 357.85414218 0 759.01386283 0 28075
0.16250000 0.16249700 8802.10699247 0 42.90330077 0 2056.78483567 0 90.70680327 0 435.56794095 0 28590
0.16350000 0.16349900 8606.58028147 0 230.68580533 0 2017.30017453 0 -303.69804572 0 420.11790360 0 29163
0.16450000 0.16449100 8368.09736469 0 156.10859705 0 1989.74964131 0 -81.50987184 0 153.64080573 0 28996
0.16550000 0.16550500 8229.79013875 0 108.31396751 0 2262.57090385 0 -77.68152339 0 354.61440355 0 30777
0.16650000 0.16650700 8205.75551496 0 -87.31578071 0 1756.65704625 0 291.56538537 0 -8.67008848 0 29211
0.16750000 0.16749900 8326.99338880 0 -131.08574761 0 1794.61112221 0 455.06515607 0 188.94852209 0 30922
0.16850000 0.16850800 8542.35115995 0 -98.43082373 0 1205.56874348 0 263.41370928 0 -69.83716344 0 30867
0.16950000 0.16949900 8577.47698068 0 35.31570203 0 1299.73300557 0 -193.83973994 0 93.15640502 0 30852
0.17050000 0.17049200 8570.56716498 0 144.32530941 0 1272.10483398 0 -277.72357158 0 -292.32291413 0 31257
0.17150000 0.17149500 8293.04323494 0 209.83990066 0 1669.54678542 0 -434.25585235 0 -493.59375603 0 32608
0.17250000 0.17250900 8119.56582348 0 168.34440552 0 1995.73888767 0 -358.43975737 0 -612.06548535 0 32361
0.17350000 0.17350400 8035.99365447 0 156.83063397 0 2202.09060689 0 -15.59655206 0 -779.29966205 0 32508
0.17450000 0.17449800 7837.98251535 0 6.34505195 0 2341.89514442 0 53.10853291 0 -847.40515691 0 32791
0.17550000 0.17549800 7979.60600919 0 -61.74247517 0 1910.62504229 0 370.76762278 0 -749.54752624 0 33633
0.17650000 0.17650100 7995.06713773 0 15.66642660 0 2108.31453669 0 236.60184978 0 -247.97143577 0 33984
0.17750000 0.17750300 7952.53239744 0 75.29902338 0 1753.71787906 0 -30.76243294 0 -576.75555074 0 34069
0.17850000 0.17849800 7835.94173512 0 166.37460894 0 2037.71906812 0 -187.97804236 0 -298.32546991 0 34536
