### header ###
fiducial parameters:
Omega_m = 0.31
Omega_nu = 0
Omega_de = 0.69
Omega_k = 0
H_0 = 100
w_de = -1
zeff = 0
beta = 0
fgrowth = 0
b_1 = 2
gamma = 0.55
Lx = 3500 Ly = 3500 Lz = 3500
nx = 700 ny = 700 nz = 700
xoffset = 1379.75464 yoffset = 22.6059522 zoffset = 368.141391
bins = 400 dk = 0.001
kx_ny = 0.628318531 ky_ny = 0.628318531 kz_ny = 0.628318531
############################
A(data) = 3.33084938 (not used)
A(ran) = 3.332401 (used)
Ngal = 187184
weighted Ngal = 0
Nran = 9399747
weighted Nran = 0
SN(data) = 6692.32212
SN(ran) = 132.547525
SN(data+ran) = 6824.86965
############################
13 columns: k_central k_mean P_0(k) sigma^{lin}_{P_0(k)} P^img_1(k) sigma^{lin}_{P_1(k)} P_2(k) sigma^{lin}_{P_2(k)} P^img_3(k) sigma^{lin}_{P_3(k)} P_4(k) sigma^{lin}_{P_4(k)} N_modes
### header ###
0.00050000 0 0 0 0 0 0 0 0 0 0 0 0
0.00150000 0.00179520 1898.22508410 0 -5878.43420333 0 -18235.36963848 0 17617.92270437 0 18300.14222866 0 3
0.00250000 0.00253879 14093.14031423 0 -10971.61166273 0 7620.11813370 0 -23226.18644124 0 -13210.83559700 0 6
0.00350000 0.00331552 25334.95571701 0 -15698.25833658 0 -13157.81967558 0 -1533.52434605 0 -8445.74683453 0 7
0.00450000 0.00420575 45832.81862096 0 -12536.26899861 0 9236.87082165 0 -14328.82824938 0 15491.74024940 0 24
0.00550000 0.00557378 64798.65449045 0 -7293.40474520 0 8604.24003892 0 -7823.29777060 0 36659.40053705 0 45
0.00650000 0.00659388 71977.43171519 0 969.85086210 0 23510.23199509 0 30010.56070250 0 -18108.37543342 0 40
0.00750000 0.00754703 79339.32460154 0 -5860.59955864 0 -13914.23930745 0 29465.09563659 0 2859.31057325 0 57
0.00850000 0.00846663 91396.34298001 0 -7145.53690748 0 16585.66500440 0 9745.56856968 0 19779.37516564 0 75
0.00950000 0.00948925 86827.65713310 0 7684.49144079 0 4069.78162579 0 -11502.68035500 0 37112.03228451 0 112
0.01050000 0.01054430 77512.16081629 0 1076.35297168 0 -8399.88473515 0 2676.62746832 0 -3180.95528475 0 105
0.01150000 0.01145670 78778.55368384 0 735.92753639 0 11600.39380012 0 3681.29027028 0 14859.65293532 0 144
0.01250000 0.01249090 72374.94021381 0 5705.73317565 0 -3760.59232846 0 -6888.15459110 0 -16559.71160354 0 169
0.01350000 0.01339930 70419.11854396 0 4350.48872935 0 7404.77145375 0 -8044.81115605 0 13461.60756000 0 180
0.01450000 0.01448870 59629.38032879 0 1805.02575614 0 7661.48829832 0 12263.20372974 0 10710.44724819 0 267
0.01550000 0.01550050 58007.40368708 0 -2328.07551302 0 -19679.22165720 0 22216.77660698 0 16189.82018532 0 238
0.01650000 0.01653350 73432.81857873 0 -15011.38050957 0 -28699.35939928 0 41162.64832197 0 34396.01997583 0 315
0.01750000 0.01747870 72851.52894667 0 -6466.48946553 0 -46629.94294563 0 9892.29401410 0 26119.99063700 0 297
0.01850000 0.01844180 78602.86912418 0 6391.75698049 0 -41761.79478111 0 -14223.90552625 0 34388.14522599 0 388
0.01950000 0.01947590 67706.98815421 0 8207.70756562 0 -22410.98346555 0 -29702.55816325 0 24311.79279853 0 399
0.02050000 0.02045430 54806.92789570 0 9827.67670068 0 -10278.11239115 0 -25430.34001076 0 8017.92609464 0 462
0.02150000 0.02154770 51507.07497967 0 4491.02528588 0 12782.49357086 0 -12678.12540757 0 5579.69281353 0 571
0.02250000 0.02255340 46190.95337042 0 -89.90158237 0 7328.41965396 0 -5993.92683715 0 -11055.08401096 0 510
0.02350000 0.02348930 51943.84631549 0 -1151.21078724 0 25963.71567200 0 5337.46107218 0 597.28535630 0 555
0.02450000 0.02439640 53098.55082977 0 -2336.83755861 0 8113.87603944 0 1692.49447190 0 -21986.96700622 0 592
0.02550000 0.02547300 56477.48398004 0 -1427.22631449 0 21656.44933716 0 2293.65952889 0 2604.04667549 0 837
0.02650000 0.02652900 58847.22912000 0 -737.50359547 0 17795.93641539 0 -9.94912531 0 -9632.79327911 0 723
0.02750000 0.02749970 59205.36386946 0 -2372.96158707 0 15860.85528384 0 1972.15900295 0 -2563.21997952 0 826
0.02850000 0.02848090 64672.88031706 0 546.39118086 0 23573.45181769 0 -150.44543188 0 -3187.89837404 0 831
0.02950000 0.02946900 63049.79455565 0 -102.63738200 0 13690.08621713 0 -3520.61210009 0 -3786.09099025 0 996
0.03050000 0.03053250 62516.52980638 0 3813.14241960 0 24713.40504003 0 -5474.59263125 0 -8108.01988745 0 1041
0.03150000 0.03150510 57983.89034955 0 3438.59269866 0 27652.79405525 0 -516.78323061 0 -7152.69072951 0 1036
0.03250000 0.03246190 54069.58512259 0 1382.63970276 0 25807.44070700 0 5538.86611756 0 1254.13709492 0 1059
0.03350000 0.03345080 55829.86899024 0 -979.93165101 0 26246.43028221 0 7164.63594863 0 -4465.78172163 0 1302
0.03450000 0.03451200 53171.64181766 0 1761.12679862 0 23786.40279910 0 2448.37063512 0 -239.15726156 0 1339
0.03550000 0.03553350 52815.28165971 0 3009.49647113 0 25194.98481152 0 -1090.12823829 0 1277.61715886 0 1365
0.03650000 0.03647120 48125.59085409 0 1303.70365408 0 25554.56141658 0 -2195.11424401 0 4018.77321102 0 1308
0.03750000 0.03744890 46613.52797414 0 1316.63598972 0 27541.66026183 0 460.81705080 0 -2011.08910424 0 1579
0.03850000 0.03847530 45304.98855819 0 1697.75169926 0 28375.71827233 0 -3012.92365098 0 -4474.87650312 0 1662
0.03950000 0.03950240 44121.44693185 0 835.81707434 0 30600.05782030 0 1148.30489364 0 -3510.60784045 0 1683
0.04050000 0.04050350 45670.55440960 0 -351.08629380 0 29380.91345175 0 3389.36996660 0 -848.74386439 0 1822
0.04150000 0.04152450 43731.03679927 0 -715.93454477 0 23245.04147605 0 7747.56707783 0 -244.94908460 0 1887
0.04250000 0.04250150 45548.99489105 0 325.08741903 0 23579.44106404 0 2011.17783382 0 -34.99305911 0 1920
0.04350000 0.04349210 43883.65166928 0 732.68779776 0 19168.91568561 0 3880.59907944 0 3796.77181291 0 2005
0.04450000 0.04448520 42678.03856100 0 756.76678633 0 18951.41731346 0 2128.72233908 0 4694.23819637 0 2151
0.04550000 0.04548030 41503.14806828 0 1786.27054210 0 20562.52458216 0 -1070.32712438 0 10869.36191806 0 2274
0.04650000 0.04648670 39934.07643601 0 26.08571884 0 16681.16021013 0 4702.23494937 0 8358.64766489 0 2311
0.04750000 0.04749250 41671.06879008 0 -1376.27335571 0 14978.66147857 0 4874.41469079 0 6920.97344287 0 2568
0.04850000 0.04851840 39761.38649953 0 119.96127707 0 10974.24027640 0 1451.28312067 0 3952.66967721 0 2493
0.04950000 0.04949480 41540.30357806 0 247.54331557 0 10454.09641312 0 157.96859077 0 3530.27253263 0 2644
0.05050000 0.05050630 39513.83098365 0 1341.38045011 0 11573.88583941 0 -3284.41396988 0 4994.49908015 0 2829
0.05150000 0.05149060 39116.87704487 0 752.58318684 0 9587.04209170 0 1070.63102317 0 3126.06495105 0 2784
0.05250000 0.05249300 37204.20013115 0 632.49214277 0 9871.84184693 0 652.28438372 0 324.40309218 0 3055
0.05350000 0.05348950 36432.03099961 0 690.54014024 0 9992.08151305 0 1321.34974843 0 1237.15647239 0 3009
0.05450000 0.05448610 36372.91491988 0 750.30394587 0 11068.69290961 0 634.69041800 0 4899.65825504 0 3336
0.05550000 0.05550870 33398.14498640 0 1117.47136612 0 10298.74201747 0 344.89962414 0 2000.82974707 0 3349
0.05650000 0.05647670 33514.82437829 0 463.09629178 0 10865.02526005 0 433.92200733 0 3165.09487311 0 3324
0.05750000 0.05747970 32758.40474642 0 328.88504487 0 11785.28405324 0 -45.79366670 0 3368.48524275 0 3639
0.05850000 0.05849280 33239.76269398 0 138.83849428 0 11903.84894862 0 407.31977144 0 3436.58519201 0 3846
0.05950000 0.05951020 33335.36881167 0 -74.39253985 0 11580.54055758 0 1354.95607518 0 3822.72521377 0 3787
0.06050000 0.06049470 32900.37206736 0 24.16161799 0 10922.13383314 0 -1672.71886775 0 2114.59215416 0 3930
0.06150000 0.06148310 32092.37836968 0 735.64581998 0 12437.33552183 0 275.27574442 0 1081.00905616 0 4083
0.06250000 0.06249100 32499.97985753 0 716.31386370 0 12927.12277906 0 -1077.19701177 0 2145.93587674 0 4303
0.06350000 0.06350600 31575.97223977 0 109.49296174 0 13691.52807273 0 517.80029337 0 1027.42415634 0 4470
0.06450000 0.06451750 30496.90968868 0 654.10888562 0 12388.09060738 0 -44.26197240 0 -1998.34531895 0 4479
0.06550000 0.06550280 30056.14552196 0 1552.17973931 0 15596.10841268 0 -3301.25040685 0 -2521.32852865 0 4636
0.06650000 0.06648880 28613.62444687 0 1673.71707547 0 15764.25095842 0 -2144.67148029 0 -2949.12708614 0 4653
0.06750000 0.06749660 26821.50884398 0 222.39846297 0 17403.75169130 0 1079.74687794 0 -3030.53647174 0 5220
0.06850000 0.06852730 27258.72382768 0 -798.05487609 0 15176.97208001 0 2288.21375119 0 -5564.67533286 0 5029
0.06950000 0.06949320 27344.01513221 0 74.86790855 0 13107.57655341 0 2701.60484385 0 -4842.11712528 0 5040
0.07050000 0.07048030 27444.39046459 0 246.96546421 0 12978.14228502 0 1269.07693721 0 -1485.22218334 0 5475
0.07150000 0.07148790 27024.47774813 0 -669.87502208 0 9655.70769200 0 2608.50533666 0 -2142.37560252 0 5509
0.07250000 0.07249820 27642.25741815 0 -180.73327251 0 8881.51996262 0 1201.01026154 0 -1168.80142560 0 5916
0.07350000 0.07351270 27048.87838142 0 921.60970098 0 7786.13116962 0 -1625.96947261 0 -3666.69425510 0 5721
0.07450000 0.07449140 26130.63818607 0 997.46017867 0 10538.79988422 0 -1224.97833814 0 -1514.20348096 0 6028
0.07550000 0.07549160 25015.41833293 0 556.42205938 0 9881.53555306 0 -876.47740235 0 -2095.32674506 0 6183
0.07650000 0.07648840 24799.13999244 0 60.88102190 0 11290.39484541 0 1252.06304109 0 -2350.24681572 0 6330
0.07750000 0.07749960 24426.47577498 0 106.92168956 0 10318.41780086 0 667.78544058 0 -2971.40930081 0 6583
0.07850000 0.07848650 24944.21284852 0 14.97134129 0 9740.92135816 0 569.59285575 0 -2656.61894902 0 6549
0.07950000 0.07947320 24771.63382401 0 290.53612230 0 10316.56557096 0 286.53885492 0 -1305.95516706 0 6828
0.08050000 0.08048110 23762.88946157 0 450.38688919 0 9786.56163360 0 -778.44342165 0 -1375.03114166 0 7147
0.08150000 0.08149960 24069.78288112 0 162.01355030 0 10821.07084655 0 1239.70744769 0 -325.78283708 0 7386
0.08250000 0.08250610 23452.89050686 0 120.32506833 0 10522.92838138 0 -657.21774812 0 -1788.98788535 0 7227
0.08350000 0.08350160 23447.01217248 0 535.73364971 0 10892.86416439 0 293.79249772 0 -558.43289339 0 7798
0.08450000 0.08449610 22750.48500413 0 559.65403417 0 11394.54118476 0 -250.36269783 0 -817.25151977 0 7371
0.08550000 0.08548940 22601.86296503 0 337.75134771 0 11027.78857527 0 -216.21844803 0 -925.45058248 0 8256
0.08650000 0.08650700 21909.77227546 0 -126.48955560 0 10498.10628261 0 1604.29727377 0 -1612.51585071 0 8037
0.08750000 0.08749060 21829.13927364 0 297.74318208 0 10711.63400626 0 -249.59407788 0 -2040.41422897 0 8155
0.08850000 0.08849210 21772.35234527 0 48.07324040 0 8674.03694131 0 918.94559547 0 -2262.42671829 0 8718
0.08950000 0.08949900 21360.64711455 0 129.39323096 0 8967.23273264 0 421.27582456 0 -2012.32022710 0 8571
0.09050000 0.09049190 21189.39903367 0 141.38614222 0 7781.53941409 0 427.08983000 0 -3600.10270862 0 8932
0.09150000 0.09150830 20677.76211845 0 623.46169021 0 7972.20818082 0 -75.57086861 0 -3497.48695446 0 9285
0.09250000 0.09250820 20034.36178348 0 429.04188067 0 7569.63100519 0 -217.27100262 0 -3889.74931692 0 9204
0.09350000 0.09350330 19216.49692052 0 397.40202313 0 7779.23244512 0 501.54614424 0 -2857.25870182 0 9349
0.09450000 0.09448040 18905.94340597 0 488.43413121 0 7928.16503774 0 -96.53578182 0 -2772.33340678 0 9564
0.09550000 0.09549270 18654.39505919 0 148.63534854 0 7526.47515787 0 1189.76378783 0 -2195.23624717 0 10155
0.09650000 0.09649430 18404.95403982 0 -103.25704717 0 7324.10517835 0 1114.49892534 0 -1164.87514188 0 9913
0.09750000 0.09749140 18112.70100023 0 159.66332567 0 6081.28110432 0 785.42089365 0 305.21975794 0 10476
0.09850000 0.09850240 18116.02835932 0 300.65351215 0 6424.24309635 0 706.23862040 0 153.59089534 0 10575
0.09950000 0.09950330 17764.54832803 0 199.48515919 0 6652.21155842 0 -398.32037424 0 2565.29403335 0 10882
0.10050000 0.10051200 17422.05216627 0 63.32685266 0 5850.97239969 0 1233.29673585 0 947.69286884 0 10875
0.10150000 0.10150300 17656.18733385 0 13.65647989 0 6548.93033244 0 114.22934649 0 2581.60918406 0 11118
0.10250000 0.10250800 17223.96338877 0 126.13796465 0 5516.65045008 0 607.88410410 0 1277.24005816 0 11575
0.10350000 0.10349800 17427.48685277 0 221.51227633 0 6416.49034968 0 -126.50064679 0 2160.64280389 0 11364
0.10450000 0.10450100 16549.50770235 0 266.43384221 0 5597.34999907 0 -450.67526032 0 1576.26981908 0 12093
0.10550000 0.10551000 16796.39774642 0 170.24210932 0 6160.37242975 0 162.69011332 0 1526.63671274 0 12067
0.10650000 0.10649700 16340.10590397 0 157.01363872 0 6339.31780132 0 173.34764446 0 1559.41119972 0 12054
0.10750000 0.10749900 15937.82819066 0 489.87044121 0 6232.59830428 0 -20.50274303 0 1591.22075257 0 12807
0.10850000 0.10850100 15621.28542975 0 353.54743040 0 6249.12418773 0 249.68391658 0 2005.72096492 0 12736
0.10950000 0.10950300 15105.21203575 0 250.34162456 0 6550.58292079 0 -89.72412322 0 1580.86157462 0 12933
0.11050000 0.11050200 14831.37038310 0 223.88246512 0 5814.71527686 0 523.58657081 0 1805.69122796 0 13428
0.11150000 0.11150900 14335.48296755 0 348.93903807 0 6306.29930800 0 106.98357844 0 2489.74079974 0 13453
0.11250000 0.11250000 13722.36160025 0 376.77128769 0 6301.80737324 0 -110.60130506 0 1907.20895363 0 13668
0.11350000 0.11349100 13949.84204966 0 12.12766930 0 6222.36112950 0 1007.90254059 0 2537.37749063 0 13791
0.11450000 0.11448600 13761.62443745 0 -228.72155435 0 4881.79033676 0 962.52734476 0 1681.22581581 0 14205
0.11550000 0.11549300 13569.74673024 0 144.76895729 0 4667.09803743 0 270.02960826 0 2443.52378206 0 14776
0.11650000 0.11649800 13445.41441245 0 102.06396712 0 4255.43717150 0 308.51606167 0 2601.72861533 0 14553
0.11750000 0.11747300 13175.78741464 0 -41.31193583 0 3697.88270092 0 864.18170142 0 2741.16714336 0 14568
0.11850000 0.11849100 13446.74535609 0 -127.58536585 0 2578.94729679 0 859.91713619 0 2244.47007043 0 16015
0.11950000 0.11950300 13244.66374769 0 -25.75420296 0 2085.40012380 0 503.20760554 0 1985.59044246 0 15270
0.12050000 0.12050700 13526.04741427 0 -50.21894337 0 1384.60284462 0 201.60468693 0 1988.92889274 0 15999
0.12150000 0.12150000 13407.37160692 0 -0.85659089 0 1421.24815934 0 -414.81520234 0 1351.87272243 0 15670
0.12250000 0.12250700 13259.19321569 0 334.80441668 0 1468.41901996 0 -913.10608028 0 473.86473489 0 16887
0.12350000 0.12352200 13019.84518555 0 285.90443845 0 2153.82171777 0 -1082.10708465 0 -672.54134583 0 16407
0.12450000 0.12449800 12714.61544553 0 327.07274328 0 2856.48231803 0 -759.86566676 0 -789.44699814 0 16306
0.12550000 0.12549900 12363.13541424 0 9.18395472 0 3111.57984784 0 -47.48651609 0 -1546.19049296 0 17523
0.12650000 0.12650100 12379.55038573 0 40.62461436 0 3188.09801558 0 275.46651300 0 -998.41402160 0 17154
0.12750000 0.12750600 12742.45434987 0 -170.67688424 0 2912.23776509 0 776.00557656 0 -1315.17195173 0 18007
0.12850000 0.12850300 12590.83768759 0 57.80166198 0 2873.92877083 0 -46.94936942 0 -1069.56183179 0 17496
0.12950000 0.12949900 12368.12645287 0 379.77589294 0 2787.99417687 0 -152.91987792 0 -638.36604067 0 18405
0.13050000 0.13049000 12240.24495206 0 153.68073403 0 3153.84839941 0 -203.98596691 0 -626.87001503 0 18100
0.13150000 0.13148800 11859.92780870 0 64.88350215 0 2675.76235496 0 168.20465644 0 -514.02374080 0 19059
0.13250000 0.13249300 11963.51958820 0 134.71922373 0 3180.68909602 0 239.14949772 0 -925.50825670 0 18957
0.13350000 0.13349100 11660.28626364 0 101.42844153 0 2541.12631520 0 -95.34170356 0 -1030.28457603 0 19468
0.13450000 0.13450700 11671.59928452 0 153.90366709 0 2964.08911082 0 202.54411131 0 -490.54478599 0 19953
0.13550000 0.13551000 11448.66622586 0 -9.90799915 0 2865.55491713 0 110.35252951 0 -543.10929568 0 19956
0.13650000 0.13649900 11512.32969635 0 145.26695203 0 2455.35808920 0 96.11076715 0 -439.81032378 0 19723
0.13750000 0.13749600 11194.12325590 0 263.01442619 0 2999.08183719 0 -283.78601984 0 -745.98947026 0 20946
0.13850000 0.13851100 10998.30817378 0 294.80623312 0 3383.33635546 0 -303.39969252 0 299.48450000 0 20955
0.13950000 0.13949800 10751.16303218 0 214.33516279 0 4141.49730525 0 -200.41681973 0 -88.44741554 0 20506
0.14050000 0.14048300 10664.74042556 0 0.64588144 0 4008.83549856 0 18.42247813 0 707.34330361 0 21447
0.14150000 0.14148400 10676.09781124 0 -47.61683765 0 4362.18994213 0 39.86298186 0 441.57493322 0 21771
0.14250000 0.14249400 10839.44895989 0 -2.38052578 0 4366.89260964 0 167.22419463 0 412.94189918 0 22470
0.14350000 0.14350900 10891.16721126 0 -11.69123070 0 4357.75346335 0 -92.81379795 0 426.05945781 0 22519
0.14450000 0.14449900 10766.46888397 0 112.06434485 0 4716.58695822 0 -212.25999984 0 -73.30327340 0 22218
0.14550000 0.14550500 10830.95310303 0 20.49298278 0 4309.10747354 0 110.95744339 0 563.49935215 0 23559
0.14650000 0.14650700 10883.98011564 0 -128.74550506 0 3874.17727641 0 761.38848810 0 -402.44519039 0 23044
0.14750000 0.14750500 10903.01260960 0 -30.10893962 0 3795.81796997 0 273.56215449 0 148.81502593 0 23649
0.14850000 0.14849900 10838.99422082 0 287.76997778 0 3292.53272605 0 157.08351326 0 -321.03580479 0 23640
0.14950000 0.14949500 10523.30548208 0 87.77894910 0 3111.08074398 0 105.95032253 0 264.63041359 0 24457
0.15050000 0.15050000 10426.75661265 0 16.93903054 0 2631.33101998 0 392.28565398 0 -85.43438097 0 24591
0.15150000 0.15149900 10180.06621012 0 165.12241281 0 2715.83484953 0 189.69385053 0 133.26627693 0 25020
0.15250000 0.15250500 9898.15016609 0 255.36260942 0 2485.64814807 0 68.16350182 0 24.00123928 0 25297
0.15350000 0.15350100 9722.11068813 0 122.67751120 0 2436.39214242 0 -3.08387404 0 -43.66648603 0 25452
0.15450000 0.15450400 9557.62823739 0 103.89867292 0 2347.87329958 0 118.84772090 0 -282.21106987 0 26061
0.15550000 0.15549900 9504.22412408 0 93.62534083 0 2448.03789921 0 -121.12141627 0 -216.47576380 0 26128
0.15650000 0.15649500 9272.39592547 0 108.53235318 0 2285.20803682 0 -61.11249518 0 181.95330417 0 26331
0.15750000 0.15749700 9408.78437434 0 -36.85272010 0 2249.96021292 0 445.13520744 0 -112.58230374 0 27345
0.15850000 0.15849900 9439.97282016 0 -35.14057203 0 2275.18159478 0 241.60730696 0 219.49922408 0 26980
0.15950000 0.15949700 9240.29800150 0 114.97800228 0 1976.00764830 0 -19.18566339 0 -40.86584789 0 27777
0.16050000 0.16050000 9107.10381735 0 177.69428455 0 2272.05387724 0 -135.62870188 0 665.60047478 0 28224
0.16150000 0.16150500 9027.04755778 0 200.74844652 0 2440.92844197 0 -316.12573190 0 87.12767401 0 28075
0.16250000 0.16249700 8915.08192459 0 121.81017960 0 2708.29283560 0 148.49449034 0 717.20559594 0 28590
0.16350000 0.16349900 8638.61165826 0 60.76556254 0 2542.39071165 0 226.65748259 0 266.19205412 0 29163
0.16450000 0.16449100 8701.15491785 0 19.71194069 0 2680.33192810 0 -43.50832556 0 921.99567463 0 28996
0.16550000 0.16550500 8520.52368435 0 149.07345082 0 2434.86155724 0 89.32339827 0 -0.47057730 0 30777
0.16650000 0.16650700 8597.24149364 0 14.41888877 0 2676.56092114 0 -120.32285009 0 412.68680165 0 29211
0.16750000 0.16749900 8410.06645394 0 63.63452246 0 2357.83319443 0 47.27312146 0 210.90021909 0 30922
0.16850000 0.16850800 8357.64945717 0 84.08347318 0 2526.53030002 0 62.25333570 0 -50.84448687 0 30867
0.16950000 0.16949900 8403.87756605 0 -24.30768906 0 1791.73850220 0 177.83181539 0 -139.52725761 0 30852
0.17050000 0.17049200 8305.57628749 0 -45.19130379 0 1999.58753301 0 382.09728046 0 -202.62618617 0 31257
0.17150000 0.17149500 8341.74468074 0 -7.79239770 0 1429.15618276 0 199.65485450 0 -215.07938210 0 32608
0.17250000 0.17250900 8385.10016961 0 -4.41437402 0 1421.00415301 0 165.20337854 0 -158.95127082 0 32361
0.17350000 0.17350400 8278.54704053 0 99.60804338 0 971.85947787 0 -20.11488387 0 -443.68447888 0 32508
0.17450000 0.17449800 8192.56808179 0 60.86638152 0 1128.54038068 0 8.47138968 0 74.42248608 0 32791
0.17550000 0.17549800 8019.16830870 0 134.67929542 0 945.03985453 0 -49.78416845 0 -530.32225472 0 33633
0.17650000 0.17650100 8122.89318256 0 144.05357508 0 1118.28102350 0 -32.42101054 0 30.03030303 0 33984
0.17750000 0.17750300 7678.69074478 0 113.81564484 0 1284.84861927 0 83.14903984 0 -53.63669571 0 34069
0.17850000 0.17849800 7780.84066868 0 83.80752420 0 1401.07327209 0 129.44203222 0 213.21384277 0 34536
