### header ###
fiducial parameters:
Omega_m = 0.31
Omega_nu = 0
Omega_de = 0.69
Omega_k = 0
H_0 = 100
w_de = -1
zeff = 0
beta = 0
fgrowth = 0
b_1 = 2
gamma = 0.55
Lx = 3500 Ly = 3500 Lz = 3500
nx = 700 ny = 700 nz = 700
xoffset = 1379.75464 yoffset = 22.6059522 zoffset = 368.141391
bins = 400 dk = 0.001
kx_ny = 0.628318531 ky_ny = 0.628318531 kz_ny = 0.628318531
############################
A(data) = 3.27864211 (not used)
A(ran) = 3.2705794 (used)
Ngal = 184315
weighted Ngal = 0
Nran = 9399747
weighted Nran = 0
SN(data) = 6728.52286
SN(ran) = 130.088548
SN(data+ran) = 6858.61141
############################
13 columns: k_central k_mean P_0(k) sigma^{lin}_{P_0(k)} P^img_1(k) sigma^{lin}_{P_1(k)} P_2(k) sigma^{lin}_{P_2(k)} P^img_3(k) sigma^{lin}_{P_3(k)} P_4(k) sigma^{lin}_{P_4(k)} N_modes
### header ###
0.00050000 0 0 0 0 0 0 0 0 0 0 0 0
0.00150000 0.00179520 91149.00928807 0 -54940.02225908 0 -99550.92371225 0 103471.10727360 0 -177505.73419874 0 3
0.00250000 0.00253879 137263.54431151 0 -53184.17487021 0 -13911.79924413 0 -86976.61190811 0 111936.79608024 0 6
0.00350000 0.00331552 171078.38556725 0 -32458.05513306 0 -96102.44875711 0 3144.93107706 0 -94935.32210225 0 7
0.00450000 0.00420575 179822.68524123 0 3943.37525417 0 -32320.85702682 0 -65835.12684526 0 18758.98504641 0 24
0.00550000 0.00557378 156159.61655219 0 18189.56299509 0 -23921.27175399 0 -35620.93176679 0 13687.64615380 0 45
0.00650000 0.00659388 134067.06135103 0 -4411.23521503 0 19896.16546951 0 58594.12800564 0 39829.93009667 0 40
0.00750000 0.00754703 129151.44286358 0 1414.40489082 0 -39870.74570144 0 -3179.23614922 0 -39918.10511241 0 57
0.00850000 0.00846663 147305.51402843 0 -17097.30191962 0 -42934.91068233 0 20402.14587429 0 20703.49369537 0 75
0.00950000 0.00948925 131049.14666142 0 -7630.13348454 0 -48554.93108796 0 -12222.83177285 0 -13708.16486816 0 112
0.01050000 0.01054430 153760.59065229 0 6791.19534738 0 -66397.22870660 0 -34275.45866500 0 306.01721500 0 105
0.01150000 0.01145670 123193.25186299 0 11780.84757446 0 -48868.47922569 0 -20122.86953513 0 -29247.93000034 0 144
0.01250000 0.01249090 117796.27542799 0 16864.49769568 0 -20921.54662737 0 -42307.25984703 0 -17421.83034233 0 169
0.01350000 0.01339930 92800.37760169 0 13063.65541349 0 -20778.58109871 0 -11643.31673231 0 -36230.50395106 0 180
0.01450000 0.01448870 77617.19445139 0 4871.83044190 0 -3410.56524397 0 -3673.34897327 0 -18218.95466700 0 267
0.01550000 0.01550050 79401.65712839 0 -422.58125845 0 -6696.80926135 0 -20165.12699550 0 -58317.18081785 0 238
0.01650000 0.01653350 77450.05011338 0 3306.60745498 0 5894.86026601 0 -6868.66735806 0 -42833.75896616 0 315
0.01750000 0.01747870 68665.26757054 0 3992.53143904 0 3940.55809014 0 -24095.84719395 0 -56010.87732443 0 297
0.01850000 0.01844180 65142.37068387 0 -789.39597864 0 14102.01327179 0 -6804.26077739 0 -33226.12052173 0 388
0.01950000 0.01947590 76595.02974064 0 -911.98032379 0 14454.38059883 0 -5650.28828211 0 -70970.79468016 0 399
0.02050000 0.02045430 75442.09981787 0 880.55674459 0 25893.39748335 0 -6500.48398417 0 -51252.53200971 0 462
0.02150000 0.02154770 72572.25260752 0 4462.76491606 0 30533.51063861 0 -10140.31536026 0 -48211.76945438 0 571
0.02250000 0.02255340 66401.99792128 0 3645.46570414 0 33793.43524563 0 -6391.42424458 0 -42683.91689539 0 510
0.02350000 0.02348930 65242.74601626 0 2659.04792115 0 44943.74827359 0 2593.79840951 0 -26048.11968078 0 555
0.02450000 0.02439640 65438.50564239 0 -609.43798079 0 39407.79914082 0 12040.27067108 0 -33971.89260453 0 592
0.02550000 0.02547300 65548.64122809 0 -1561.44088876 0 36977.05241765 0 13149.61218984 0 -11926.69681433 0 837
0.02650000 0.02652900 69718.48763274 0 47.21899642 0 25248.66620475 0 3868.35439801 0 -17648.64531992 0 723
0.02750000 0.02749970 66474.20161342 0 2074.41983882 0 33175.21192774 0 2085.01193190 0 2427.30845212 0 826
0.02850000 0.02848090 63524.16504913 0 3446.52290448 0 23804.03780224 0 -2877.05648837 0 -9820.13468676 0 831
0.02950000 0.02946900 59939.15745955 0 2523.32494410 0 37577.41890846 0 -563.95187299 0 -1576.33636627 0 996
0.03050000 0.03053250 57617.76993829 0 2295.24557006 0 31277.84086580 0 2114.53669818 0 -2682.46143791 0 1041
0.03150000 0.03150510 56748.66374543 0 1928.12695107 0 37235.69913048 0 2738.70489764 0 1512.14051833 0 1036
0.03250000 0.03246190 52710.24802461 0 1105.19230198 0 29831.99243163 0 9892.99275951 0 4052.21316982 0 1059
0.03350000 0.03345080 52062.07847496 0 -731.74060954 0 28902.10647950 0 8143.05697861 0 6972.72496783 0 1302
0.03450000 0.03451200 52560.18412990 0 1468.08628405 0 24222.61957507 0 4839.48851160 0 12862.12836495 0 1339
0.03550000 0.03553350 51903.25253466 0 846.41693127 0 20735.76907849 0 3787.21120114 0 8189.92837692 0 1365
0.03650000 0.03647120 48057.37999286 0 348.67063110 0 18723.49321617 0 1409.12548107 0 13223.92320940 0 1308
0.03750000 0.03744890 48098.19559763 0 990.05236822 0 16111.18359896 0 909.41492993 0 6331.66487542 0 1579
0.03850000 0.03847530 46677.85691644 0 798.91666210 0 17265.44446536 0 674.01536590 0 6086.54942287 0 1662
0.03950000 0.03950240 45791.22663240 0 -7.12826791 0 11812.45748577 0 3237.52038919 0 2387.16941036 0 1683
0.04050000 0.04050350 46572.49054543 0 -704.66367043 0 13835.26998518 0 -951.99403502 0 1511.69687045 0 1822
0.04150000 0.04152450 45972.12405463 0 1227.52931344 0 8796.19538450 0 388.56788476 0 2298.59511153 0 1887
0.04250000 0.04250150 44246.33380948 0 1887.43334947 0 13813.86397507 0 585.02292895 0 1351.70635447 0 1920
0.04350000 0.04349210 42344.85900468 0 459.09347880 0 10890.57937782 0 417.48707169 0 -261.34741929 0 2005
0.04450000 0.04448520 41913.96600324 0 1082.29563500 0 16039.53446667 0 1663.53535667 0 2524.87771167 0 2151
0.04550000 0.04548030 40806.17725205 0 647.62608100 0 12699.30959375 0 195.17290182 0 7156.76119879 0 2274
0.04650000 0.04648670 40862.07688467 0 -1052.45033314 0 16258.69651837 0 2573.32405994 0 7318.19357038 0 2311
0.04750000 0.04749250 42815.34757922 0 -321.02138623 0 14983.09795735 0 1078.82741772 0 5069.17610920 0 2568
0.04850000 0.04851840 41541.30178578 0 2569.45323221 0 16280.54617636 0 -4144.08155414 0 7984.36413268 0 2493
0.04950000 0.04949480 39027.48199747 0 1694.57961693 0 20424.88282803 0 -2424.67983844 0 8067.76993373 0 2644
0.05050000 0.05050630 37933.33541852 0 1798.13812284 0 25471.37743947 0 -1820.63107025 0 5413.19176494 0 2829
0.05150000 0.05149060 37550.80003578 0 1026.75757540 0 27378.84149063 0 21.55673948 0 6911.09118639 0 2784
0.05250000 0.05249300 36465.52641440 0 -709.36190146 0 26566.85496205 0 2960.56211019 0 8689.69771140 0 3055
0.05350000 0.05348950 36569.22910586 0 -768.62105763 0 23701.55514244 0 2623.24553741 0 4739.02444964 0 3009
0.05450000 0.05448610 38862.33407491 0 -498.66576039 0 23838.53142475 0 2919.03666882 0 7650.45255735 0 3336
0.05550000 0.05550870 38234.23959173 0 33.93573530 0 20312.63991491 0 1790.42974096 0 6750.15791867 0 3349
0.05650000 0.05647670 39040.68052184 0 329.20336222 0 21184.96255489 0 721.20619068 0 6459.31346110 0 3324
0.05750000 0.05747970 37475.60172047 0 1036.98254987 0 19343.71294952 0 -657.75788942 0 2548.24686364 0 3639
0.05850000 0.05849280 36789.05662938 0 1298.61279468 0 20971.34610167 0 -776.17305363 0 1308.36195680 0 3846
0.05950000 0.05951020 33724.11526470 0 1906.35493146 0 20831.59702012 0 -542.09223292 0 3497.79750797 0 3787
0.06050000 0.06049470 33340.47076227 0 322.54420757 0 21649.12914717 0 1927.82748875 0 2523.26948811 0 3930
0.06150000 0.06148310 32200.62845190 0 -231.16605415 0 18509.65493901 0 3727.78456789 0 459.17777190 0 4083
0.06250000 0.06249100 33292.66770342 0 -744.34131839 0 16247.82714536 0 4296.56332979 0 2871.79926102 0 4303
0.06350000 0.06350600 33160.46063580 0 -21.54365186 0 12366.46277333 0 1377.58211695 0 2198.80761259 0 4470
0.06450000 0.06451750 33144.71113613 0 578.32717335 0 13122.10602141 0 833.24169841 0 3159.02798838 0 4479
0.06550000 0.06550280 32110.01337283 0 933.67137766 0 12090.84652917 0 -1328.22629053 0 1234.20621400 0 4636
0.06650000 0.06648880 30510.77368487 0 876.89664960 0 12869.11581902 0 -201.06898212 0 1972.54719485 0 4653
0.06750000 0.06749660 29082.56025384 0 900.45324280 0 12904.38582532 0 591.21070773 0 -442.96022372 0 5220
0.06850000 0.06852730 28299.18901339 0 657.58375762 0 12045.81626956 0 -118.09795598 0 808.94754062 0 5029
0.06950000 0.06949320 27923.41926078 0 578.35822870 0 12840.61144287 0 1053.19233421 0 -1848.71398092 0 5040
0.07050000 0.07048030 26866.20636768 0 73.48261805 0 12617.34564830 0 -324.99758034 0 483.25676047 0 5475
0.07150000 0.07148790 26438.86254926 0 0.74244251 0 9368.20168471 0 1931.77595487 0 -1749.76941295 0 5509
0.07250000 0.07249820 26933.97358103 0 -160.09366411 0 9991.97060108 0 1330.32252676 0 -1694.43543137 0 5916
0.07350000 0.07351270 26486.00013629 0 314.90902759 0 7513.96428771 0 -450.70631567 0 -1584.83222313 0 5721
0.07450000 0.07449140 26935.30452467 0 392.80472200 0 9227.56530741 0 415.56940373 0 -627.86045892 0 6028
0.07550000 0.07549160 25767.17966208 0 156.69088489 0 8051.01113514 0 -204.33533962 0 -1646.69891971 0 6183
0.07650000 0.07648840 26007.41498798 0 439.34449351 0 8619.64571148 0 -250.00999777 0 -2271.78768851 0 6330
0.07750000 0.07749960 24982.69930193 0 325.86047546 0 9739.47950255 0 110.53974891 0 -837.30218561 0 6583
0.07850000 0.07848650 24469.50961914 0 640.78281249 0 9464.15162951 0 -715.92123533 0 -1311.93332222 0 6549
0.07950000 0.07947320 25051.57563498 0 59.39435787 0 11288.62025390 0 1138.82192025 0 609.17955590 0 6828
0.08050000 0.08048110 24253.89675046 0 -413.04726555 0 9684.36734492 0 891.87752932 0 -518.45800134 0 7147
0.08150000 0.08149960 25059.45038481 0 33.47256692 0 8350.85055344 0 797.81752448 0 -274.71120249 0 7386
0.08250000 0.08250610 24368.91246282 0 366.60842393 0 8906.36424379 0 373.75670036 0 539.15306573 0 7227
0.08350000 0.08350160 23921.49357793 0 840.91458846 0 8346.18115952 0 -235.81659303 0 -402.51950141 0 7798
0.08450000 0.08449610 22820.80319278 0 861.54421478 0 9163.19200032 0 -807.09752896 0 1119.31250482 0 7371
0.08550000 0.08548940 21997.61455529 0 268.29161770 0 8185.85790764 0 617.71312283 0 -1609.32158599 0 8256
0.08650000 0.08650700 21272.69392275 0 224.60672028 0 8937.68578397 0 987.85520211 0 -64.74608222 0 8037
0.08750000 0.08749060 21335.13736157 0 52.62185118 0 6531.43951485 0 1231.63305631 0 -530.82357682 0 8155
0.08850000 0.08849210 21078.37615222 0 50.75742098 0 7620.94997347 0 1084.06135356 0 636.57924884 0 8718
0.08950000 0.08949900 20443.29421496 0 369.07954261 0 5504.83832533 0 -210.97674835 0 -458.93709292 0 8571
0.09050000 0.09049190 20536.12753342 0 385.34700117 0 6511.80809626 0 281.52563390 0 533.96682204 0 8932
0.09150000 0.09150830 20020.49778730 0 365.07783875 0 6659.69811636 0 -319.04271669 0 -40.43550945 0 9285
0.09250000 0.09250820 19208.73308266 0 294.09639652 0 6953.57047070 0 -114.51771761 0 192.52099663 0 9204
0.09350000 0.09350330 19231.58094837 0 316.30984577 0 7312.84761345 0 -403.29033959 0 361.35452393 0 9349
0.09450000 0.09448040 18955.74288027 0 200.65749871 0 7383.48744681 0 -211.29062922 0 -696.64695328 0 9564
0.09550000 0.09549270 18595.50080339 0 293.92891944 0 8217.00198867 0 328.22400953 0 61.19013356 0 10155
0.09650000 0.09649430 18458.19178517 0 18.56954740 0 7466.31650562 0 642.93450469 0 215.91898571 0 9913
0.09750000 0.09749140 18255.88835284 0 87.32886832 0 6588.21535203 0 1303.71474528 0 487.15975268 0 10476
0.09850000 0.09850240 18068.11438850 0 163.47315182 0 6668.03869647 0 696.52384099 0 991.52527918 0 10575
0.09950000 0.09950330 17455.76940499 0 289.73201052 0 5605.51312003 0 697.74276353 0 1916.00427281 0 10882
0.10050000 0.10051200 17349.73756217 0 307.09417022 0 5739.36168480 0 108.28668316 0 1398.31156405 0 10875
0.10150000 0.10150300 16859.39574508 0 203.90943765 0 5506.33563691 0 -73.74547942 0 1550.80443089 0 11118
0.10250000 0.10250800 16370.49578361 0 223.32235967 0 4571.46973735 0 105.67270987 0 1541.11072476 0 11575
0.10350000 0.10349800 16350.86436501 0 0.55523752 0 5223.66539149 0 387.79926482 0 280.76810515 0 11364
0.10450000 0.10450100 16045.08006515 0 231.56090077 0 4294.93292384 0 -451.58917494 0 -172.84077676 0 12093
0.10550000 0.10551000 16099.09419428 0 389.33761383 0 5122.86859363 0 -90.16355644 0 -448.27734354 0 12067
0.10650000 0.10649700 15227.21520218 0 58.64858578 0 4525.30817565 0 -296.33681830 0 -642.50749361 0 12054
0.10750000 0.10749900 15319.93760867 0 264.98865925 0 4827.39910693 0 316.37195647 0 -1099.56241041 0 12807
0.10850000 0.10850100 15373.84082584 0 -28.59454759 0 4530.41012624 0 302.71092919 0 -154.95289432 0 12736
0.10950000 0.10950300 15140.48204205 0 -6.60111441 0 4087.25026098 0 520.37788754 0 -813.13890394 0 12933
0.11050000 0.11050200 15323.15405579 0 51.28037091 0 4819.59090427 0 483.72591810 0 495.79424950 0 13428
0.11150000 0.11150900 14947.38430318 0 255.30160783 0 4012.50668475 0 -177.90279905 0 1392.01176418 0 13453
0.11250000 0.11250000 14973.11588010 0 91.14878746 0 4910.26143933 0 350.18457949 0 1275.72056418 0 13668
0.11350000 0.11349100 15046.65051587 0 4.12351848 0 4634.86701910 0 445.84726228 0 2418.21367062 0 13791
0.11450000 0.11448600 14658.12588677 0 213.88153283 0 5365.32215891 0 78.61928410 0 2692.52115354 0 14205
0.11550000 0.11549300 14650.91660875 0 283.90469564 0 5506.87910557 0 -173.75912787 0 3856.24281094 0 14776
0.11650000 0.11649800 14292.56003536 0 158.30354492 0 5903.46703484 0 93.63842844 0 3293.16492428 0 14553
0.11750000 0.11747300 14211.15064976 0 233.21570735 0 6231.27845184 0 -451.85314543 0 3620.80997332 0 14568
0.11850000 0.11849100 14035.46609010 0 -40.37816796 0 6321.57188620 0 693.93737386 0 3963.94942451 0 16015
0.11950000 0.11950300 14022.26756573 0 126.26994990 0 5606.64442211 0 433.38297515 0 2890.19955675 0 15270
0.12050000 0.12050700 13974.13177097 0 128.09445179 0 5300.50520395 0 128.64901164 0 3651.07784979 0 15999
0.12150000 0.12150000 13709.82854770 0 14.36786926 0 4757.14746546 0 748.01472282 0 3538.24710324 0 15670
0.12250000 0.12250700 13792.34705299 0 -25.57774202 0 4275.73406192 0 357.18312476 0 3120.08679590 0 16887
0.12350000 0.12352200 13423.56475446 0 220.02383770 0 4049.12981707 0 37.24168838 0 1987.86413783 0 16407
0.12450000 0.12449800 13345.26090401 0 250.53239315 0 3974.99625667 0 -722.35080220 0 1774.92424762 0 16306
0.12550000 0.12549900 12912.26057515 0 223.85251889 0 4465.92590719 0 -389.45628964 0 794.18626660 0 17523
0.12650000 0.12650100 12660.49040443 0 186.47296693 0 4505.22201797 0 -356.53983534 0 706.95178436 0 17154
0.12750000 0.12750600 12736.13236761 0 16.36328651 0 4435.30311241 0 -114.75285099 0 -465.02283269 0 18007
0.12850000 0.12850300 12551.46393843 0 11.79670799 0 4323.21547605 0 555.95068351 0 -686.41865145 0 17496
0.12950000 0.12949900 12721.60289961 0 75.94131459 0 4129.19716784 0 -232.02340368 0 -408.72613522 0 18405
0.13050000 0.13049000 12564.55155082 0 103.70734977 0 3848.09078119 0 422.52025686 0 -752.20275879 0 18100
0.13150000 0.13148800 12283.05697228 0 117.12193065 0 4161.17308864 0 246.21680841 0 158.79932143 0 19059
0.13250000 0.13249300 11945.88458505 0 242.56336814 0 3378.00148973 0 189.18698282 0 -320.97480320 0 18957
0.13350000 0.13349100 12009.32623160 0 59.06439476 0 3568.33752056 0 332.84016570 0 709.45728575 0 19468
0.13450000 0.13450700 11922.26033555 0 -61.41672672 0 3380.43046186 0 780.19139429 0 775.65620386 0 19953
0.13550000 0.13551000 11856.82227356 0 148.91262847 0 3398.53129528 0 -143.09307743 0 682.39920168 0 19956
0.13650000 0.13649900 11694.33623827 0 283.14494865 0 3574.13821656 0 -589.87976409 0 817.73953244 0 19723
0.13750000 0.13749600 11519.42806239 0 79.98937965 0 3745.81885413 0 -247.04753906 0 189.57850208 0 20946
0.13850000 0.13851100 11355.16743559 0 29.72751336 0 4288.78840073 0 117.77409303 0 566.19451301 0 20955
0.13950000 0.13949800 11579.54234985 0 6.27021964 0 3957.58307746 0 313.44277136 0 547.02781556 0 20506
0.14050000 0.14048300 11605.05210283 0 23.75002367 0 4073.10898487 0 476.80944768 0 1320.93937414 0 21447
0.14150000 0.14148400 11455.65367994 0 60.04807301 0 3542.16229576 0 259.95103759 0 1111.64848773 0 21771
0.14250000 0.14249400 11557.35995596 0 26.82572350 0 3833.96059627 0 105.63666348 0 1069.52301260 0 22470
0.14350000 0.14350900 11204.99262891 0 238.27551140 0 3743.26787883 0 -428.02370879 0 960.99343222 0 22519
0.14450000 0.14449900 10952.92299587 0 452.97335632 0 4093.25059853 0 -746.02939857 0 504.45647432 0 22218
0.14550000 0.14550500 10585.08344908 0 198.10985077 0 4671.94489050 0 -157.06243998 0 485.36519701 0 23559
0.14650000 0.14650700 10426.70115666 0 -137.50644152 0 4094.90318687 0 722.72124818 0 100.48979353 0 23044
0.14750000 0.14750500 10523.52730602 0 -43.37256931 0 3678.73929498 0 540.34204204 0 84.99871876 0 23649
0.14850000 0.14849900 10531.34659987 0 156.71306728 0 3383.61363539 0 21.47233547 0 -440.00109237 0 23640
0.14950000 0.14949500 10212.07540452 0 200.39463734 0 3414.33625093 0 -202.02060681 0 58.43984946 0 24457
0.15050000 0.15050000 10057.03156238 0 96.58591403 0 3468.63875119 0 55.42138021 0 -33.53611948 0 24591
0.15150000 0.15149900 9909.67391972 0 24.20809011 0 3050.56717343 0 75.83794464 0 -531.53563167 0 25020
0.15250000 0.15250500 9891.95018700 0 123.14555972 0 3293.40893061 0 275.16039597 0 -722.89648909 0 25297
0.15350000 0.15350100 9781.71478053 0 62.91159824 0 2737.82869308 0 -149.49047983 0 -756.83666087 0 25452
0.15450000 0.15450400 9540.53670289 0 126.16569265 0 2925.34755988 0 369.68179460 0 -572.63738932 0 26061
0.15550000 0.15549900 9583.78127979 0 8.35960151 0 2554.24720119 0 118.10793806 0 -541.68074951 0 26128
0.15650000 0.15649500 9476.81777642 0 -104.60030203 0 2187.48350051 0 851.55770105 0 78.01059921 0 26331
0.15750000 0.15749700 9549.26547489 0 -12.31111770 0 1702.39891078 0 683.63365190 0 -237.78417137 0 27345
0.15850000 0.15849900 9555.56527476 0 46.45082011 0 1308.77233109 0 31.49999754 0 773.25052324 0 26980
0.15950000 0.15949700 9377.93975563 0 228.71711787 0 1380.23291302 0 -114.02083199 0 469.90739582 0 27777
0.16050000 0.16050000 9123.28587370 0 253.46934210 0 1673.63943709 0 -316.62594488 0 484.67310632 0 28224
0.16150000 0.16150500 8709.41785958 0 223.99226797 0 1721.17630721 0 -517.24906088 0 174.16506568 0 28075
0.16250000 0.16249700 8723.39276773 0 58.16523142 0 2371.81919379 0 61.07112502 0 193.44932981 0 28590
0.16350000 0.16349900 8560.85127646 0 84.02934814 0 2355.75914061 0 -337.04372934 0 -227.96513471 0 29163
0.16450000 0.16449100 8565.77576790 0 270.60413226 0 2580.33369641 0 -153.05629965 0 -132.78602810 0 28996
0.16550000 0.16550500 8245.99437749 0 121.58724654 0 3176.79608589 0 -125.29947016 0 194.61390549 0 30777
0.16650000 0.16650700 8189.30726989 0 8.84978805 0 2937.78079166 0 192.28031765 0 9.89637557 0 29211
0.16750000 0.16749900 8335.28960412 0 -21.35643246 0 2920.55616280 0 340.28901357 0 759.50963934 0 30922
0.16850000 0.16850800 8306.60776881 0 -8.83582423 0 2854.63008814 0 41.54396367 0 420.19110550 0 30867
0.16950000 0.16949900 8383.70267880 0 7.90563882 0 3096.27399605 0 -23.38135229 0 1100.25228286 0 30852
0.17050000 0.17049200 8463.44838486 0 39.99640896 0 3062.68985169 0 -58.75339759 0 327.42544335 0 31257
0.17150000 0.17149500 8472.08842728 0 -33.59301732 0 2963.47909499 0 104.93215065 0 794.57889497 0 32608
0.17250000 0.17250900 8423.81953816 0 -14.81107349 0 2878.43179679 0 0.50845818 0 541.25928403 0 32361
0.17350000 0.17350400 8589.99894204 0 -1.52815621 0 2660.36777359 0 165.44627576 0 87.33130839 0 32508
0.17450000 0.17449800 8502.41175973 0 73.80348638 0 2869.62538641 0 44.65016429 0 267.13258762 0 32791
0.17550000 0.17549800 8265.74779925 0 207.56509617 0 2710.96581407 0 -123.73006580 0 81.46306699 0 33633
0.17650000 0.17650100 8213.55262642 0 117.90386004 0 2815.57798368 0 151.40925690 0 345.78248342 0 33984
0.17750000 0.17750300 7940.70918149 0 76.71880750 0 2589.16228918 0 63.33894206 0 -120.90402881 0 34069
0.17850000 0.17849800 7829.94139757 0 186.35761848 0 2684.97913962 0 92.48305846 0 284.13206518 0 34536
