### header ###
fiducial parameters:
Omega_m = 0.31
Omega_nu = 0
Omega_de = 0.69
Omega_k = 0
H_0 = 100
w_de = -1
zeff = 0
beta = 0
fgrowth = 0
b_1 = 2
gamma = 0.55
Lx = 3500 Ly = 3500 Lz = 3500
nx = 700 ny = 700 nz = 700
xoffset = 1379.75464 yoffset = 22.6059522 zoffset = 368.141391
bins = 400 dk = 0.001
kx_ny = 0.628318531 ky_ny = 0.628318531 kz_ny = 0.628318531
############################
A(data) = 3.30663693 (not used)
A(ran) = 3.29932909 (used)
Ngal = 185530
weighted Ngal = 0
Nran = 9399747
weighted Nran = 0
SN(data) = 6688.2643
SN(ran) = 131.232078
SN(data+ran) = 6819.49637
############################
13 columns: k_central k_mean P_0(k) sigma^{lin}_{P_0(k)} P^img_1(k) sigma^{lin}_{P_1(k)} P_2(k) sigma^{lin}_{P_2(k)} P^img_3(k) sigma^{lin}_{P_3(k)} P_4(k) sigma^{lin}_{P_4(k)} N_modes
### header ###
0.00050000 0 0 0 0 0 0 0 0 0 0 0 0
0.00150000 0.00179520 33995.51685403 0 -33656.56987529 0 -53470.88231132 0 60038.86732012 0 120498.09100457 0 3
0.00250000 0.00253879 45862.32120484 0 -24827.42254466 0 -15560.94931836 0 -53019.35968356 0 -59999.49357095 0 6
0.00350000 0.00331552 73623.58716624 0 -19464.60699625 0 -63967.48019115 0 5970.89042109 0 -5135.14654865 0 7
0.00450000 0.00420575 80305.58967967 0 -10501.57782726 0 -39243.98216190 0 -36414.72873237 0 -1207.52079415 0 24
0.00550000 0.00557378 77398.36513560 0 9468.74338505 0 -34622.28039357 0 -40381.60623288 0 13475.69338012 0 45
0.00650000 0.00659388 64822.83329980 0 -4006.88344789 0 -44619.99623467 0 16908.86248347 0 2760.01108697 0 40
0.00750000 0.00754703 67609.82926894 0 -6736.99266790 0 -35529.31848000 0 5125.13119780 0 -10516.97240862 0 57
0.00850000 0.00846663 80990.80382713 0 -9934.41838011 0 -61975.39030728 0 -15798.63366896 0 -24302.69801704 0 75
0.00950000 0.00948925 65989.84904269 0 11442.23333163 0 -29058.04870859 0 -40138.26537183 0 -26029.15373400 0 112
0.01050000 0.01054430 62060.68161181 0 1127.46453457 0 -44102.59189703 0 -18175.25535102 0 -2489.03096314 0 105
0.01150000 0.01145670 63902.81851294 0 -11308.69532038 0 -28354.42317419 0 4912.59059069 0 -35822.79155125 0 144
0.01250000 0.01249090 78383.92889642 0 -8066.70517882 0 -40604.09564366 0 -8309.25856488 0 -39888.04796868 0 169
0.01350000 0.01339930 87507.54750603 0 -2651.86082553 0 -32179.11152982 0 -21427.74885609 0 -51347.25083164 0 180
0.01450000 0.01448870 80306.69879936 0 4241.68408729 0 -23679.04001264 0 -31038.16009975 0 -22590.99359202 0 267
0.01550000 0.01550050 87662.82426330 0 557.78073100 0 721.15960765 0 -14569.39631119 0 -39958.36615733 0 238
0.01650000 0.01653350 87561.78345910 0 -4455.37817889 0 -2663.17384642 0 5195.64902800 0 -18342.95424888 0 315
0.01750000 0.01747870 90735.41855387 0 1240.43946669 0 13866.65807255 0 3893.87524219 0 -32688.30838171 0 297
0.01850000 0.01844180 87955.07730289 0 -480.17229860 0 8435.16583264 0 -5021.50614472 0 -2341.59568210 0 388
0.01950000 0.01947590 89081.38835298 0 6450.85087783 0 17092.42179297 0 2263.22528447 0 198.16419763 0 399
0.02050000 0.02045430 83271.26483165 0 3942.89833270 0 35694.24457862 0 -11374.13338237 0 11605.82848662 0 462
0.02150000 0.02154770 78517.46690767 0 6484.27974543 0 39826.71364956 0 -6848.89175391 0 76.33771397 0 571
0.02250000 0.02255340 74750.67460012 0 2796.56767212 0 50694.20115533 0 3129.38121894 0 4190.58694295 0 510
0.02350000 0.02348930 70817.07069046 0 -762.47320716 0 47707.56364112 0 8613.16845246 0 19561.87679349 0 555
0.02450000 0.02439640 72727.19662889 0 897.60391430 0 44821.19054731 0 3668.93467688 0 -10669.85346736 0 592
0.02550000 0.02547300 72079.35981514 0 2336.01681004 0 45793.33395982 0 4967.27019164 0 10717.81180296 0 837
0.02650000 0.02652900 68492.46672208 0 2023.66652158 0 36532.29542003 0 2831.88204320 0 -10873.25492819 0 723
0.02750000 0.02749970 67743.14545626 0 2542.67908277 0 42566.79385561 0 -2708.19301483 0 15111.20128211 0 826
0.02850000 0.02848090 63720.25741117 0 1610.90762715 0 33733.09913423 0 4858.83155908 0 -15706.13308641 0 831
0.02950000 0.02946900 63855.90274985 0 770.47994224 0 43867.56943370 0 1824.66826594 0 -703.68099038 0 996
0.03050000 0.03053250 62760.31431530 0 92.18348523 0 30864.25013161 0 6799.62465706 0 -11629.12000021 0 1041
0.03150000 0.03150510 61690.67928162 0 255.77631106 0 29165.52240702 0 9209.89703067 0 -6362.88659483 0 1036
0.03250000 0.03246190 58460.47908242 0 1323.10215754 0 22888.90314205 0 -2507.59762683 0 -5075.56463864 0 1059
0.03350000 0.03345080 59863.18276046 0 3695.86410307 0 24225.83602219 0 -151.18410560 0 -13476.35885194 0 1302
0.03450000 0.03451200 53510.14514852 0 2306.48095256 0 27566.83727890 0 -1186.92444141 0 -6110.69495862 0 1339
0.03550000 0.03553350 48829.32730046 0 1811.17027925 0 25374.10764224 0 2130.95166966 0 -11718.40413564 0 1365
0.03650000 0.03647120 48804.70484323 0 682.11193967 0 20531.02558282 0 2510.55897641 0 -9280.08212496 0 1308
0.03750000 0.03744890 47053.73758102 0 524.12893034 0 21434.62539820 0 2012.78605738 0 -11896.75058257 0 1579
0.03850000 0.03847530 46522.35833523 0 471.01984288 0 18139.31987291 0 4243.50304359 0 -6578.90983779 0 1662
0.03950000 0.03950240 47138.58523767 0 -144.95418028 0 18705.96912499 0 3172.57033986 0 -6209.78371216 0 1683
0.04050000 0.04050350 44119.00686852 0 1045.93980053 0 14469.57553865 0 -41.20412940 0 -9485.59091321 0 1822
0.04150000 0.04152450 43761.31576694 0 2839.23550678 0 15364.41330843 0 -1355.21117271 0 -5460.22953120 0 1887
0.04250000 0.04250150 40919.97293274 0 992.97489862 0 17711.53240662 0 -1100.41532346 0 -5534.47400357 0 1920
0.04350000 0.04349210 37968.05086497 0 1012.65179113 0 20493.09368926 0 1476.41577296 0 -4383.36303710 0 2005
0.04450000 0.04448520 39415.23024278 0 656.41030899 0 17723.39998735 0 1888.04336530 0 -1777.75250285 0 2151
0.04550000 0.04548030 38168.35788186 0 -924.73409116 0 18365.02573081 0 4048.70835159 0 2346.49799115 0 2274
0.04650000 0.04648670 39454.49307997 0 -1244.65412153 0 15320.04852064 0 4864.65443748 0 1488.99319030 0 2311
0.04750000 0.04749250 40430.51841142 0 -403.74396955 0 11575.99316683 0 2077.84701867 0 2365.15338442 0 2568
0.04850000 0.04851840 42119.15314678 0 -257.27362265 0 12643.40996113 0 -731.26146983 0 2925.87993734 0 2493
0.04950000 0.04949480 40501.39115992 0 502.92699826 0 12184.23440747 0 -565.46360313 0 1901.08661291 0 2644
0.05050000 0.05050630 39878.28771536 0 1323.01342797 0 14679.53189688 0 -3933.20462657 0 1544.30498948 0 2829
0.05150000 0.05149060 40197.38145157 0 719.60905832 0 13526.60197411 0 -2367.67108613 0 -6604.85214745 0 2784
0.05250000 0.05249300 38597.91993966 0 883.92292287 0 17500.57784066 0 -921.83485227 0 -3903.55785712 0 3055
0.05350000 0.05348950 38988.99554406 0 28.46755338 0 16713.10285734 0 -695.83175030 0 -7670.56089742 0 3009
0.05450000 0.05448610 37561.55849682 0 463.88709412 0 17448.11647910 0 337.11249476 0 -8382.08336404 0 3336
0.05550000 0.05550870 37749.88702100 0 1255.41258257 0 17582.65269808 0 -949.31551095 0 -8403.60028612 0 3349
0.05650000 0.05647670 35807.70752340 0 1244.43229759 0 18422.81086691 0 -331.98725265 0 -10359.43304717 0 3324
0.05750000 0.05747970 34795.08124202 0 934.91137348 0 20350.34998454 0 177.08870519 0 -7564.34050425 0 3639
0.05850000 0.05849280 33420.77102817 0 591.94827232 0 17348.29570656 0 2185.30962591 0 -8641.55082545 0 3846
0.05950000 0.05951020 32969.13748844 0 88.02572823 0 17999.12714348 0 2148.09866014 0 -3196.11695098 0 3787
0.06050000 0.06049470 31665.25637521 0 906.34599574 0 17403.52986736 0 1528.05638595 0 -3541.14190564 0 3930
0.06150000 0.06148310 31711.39575451 0 829.45849113 0 14909.34149765 0 2067.76512065 0 1146.13101904 0 4083
0.06250000 0.06249100 30416.16577490 0 -286.44236150 0 15209.02563919 0 2536.40146530 0 -1228.91571306 0 4303
0.06350000 0.06350600 30498.79519216 0 217.88656405 0 12192.22006927 0 1551.60299707 0 803.87331801 0 4470
0.06450000 0.06451750 30022.09554733 0 726.47672747 0 12600.15429303 0 -1080.67299289 0 -213.25931668 0 4479
0.06550000 0.06550280 28595.10214797 0 533.69397859 0 12994.33543257 0 -43.39342076 0 -442.12838395 0 4636
0.06650000 0.06648880 28646.01074196 0 528.61199215 0 12654.05751020 0 88.63408038 0 -871.75920717 0 4653
0.06750000 0.06749660 28289.76149598 0 341.28722129 0 13256.30950449 0 -547.16090993 0 -2115.14671401 0 5220
0.06850000 0.06852730 26991.64780516 0 527.04036954 0 12902.50032184 0 -290.55054085 0 -3909.51382989 0 5029
0.06950000 0.06949320 27163.22862195 0 254.27234476 0 13592.37277202 0 -360.25871367 0 -3687.80080289 0 5040
0.07050000 0.07048030 26851.23325180 0 290.30875276 0 13954.50035238 0 -194.16360290 0 -2880.27293548 0 5475
0.07150000 0.07148790 26517.72095957 0 105.95808637 0 12664.70505927 0 1371.51523222 0 -5080.99932515 0 5509
0.07250000 0.07249820 26864.65360011 0 -414.97047910 0 12369.56830847 0 2279.20769927 0 -1455.68632586 0 5916
0.07350000 0.07351270 26299.66802756 0 129.51634324 0 10604.08266945 0 1145.74282715 0 -3462.10603619 0 5721
0.07450000 0.07449140 26796.22091494 0 515.58094486 0 12021.08290036 0 623.78111668 0 1219.67674600 0 6028
0.07550000 0.07549160 25385.19883918 0 546.71393469 0 9828.63054362 0 16.40144022 0 -465.57961077 0 6183
0.07650000 0.07648840 25186.55550184 0 833.15740531 0 12249.33973356 0 -239.92588150 0 800.28531580 0 6330
0.07750000 0.07749960 24014.32689638 0 691.37308913 0 11074.95943589 0 -328.73642283 0 488.03706636 0 6583
0.07850000 0.07848650 23701.00058260 0 187.08520100 0 13562.53745223 0 -91.89910694 0 -568.16320047 0 6549
0.07950000 0.07947320 23250.14342665 0 270.50431149 0 11901.63070923 0 439.34227527 0 1399.27649818 0 6828
0.08050000 0.08048110 23281.86424992 0 -379.79474798 0 11269.65430712 0 1198.50365103 0 -1612.02783805 0 7147
0.08150000 0.08149960 23735.93785298 0 46.53877331 0 11059.96413762 0 113.87110083 0 -1101.43238622 0 7386
0.08250000 0.08250610 22883.24663160 0 790.62710150 0 9461.66720139 0 -363.01265788 0 -2733.08166078 0 7227
0.08350000 0.08350160 22479.08341481 0 566.68585303 0 10915.36820300 0 251.47181753 0 -1901.09770411 0 7798
0.08450000 0.08449610 21500.95075595 0 61.45188581 0 9099.32888829 0 1171.77386638 0 -1422.27964066 0 7371
0.08550000 0.08548940 21564.61422643 0 61.46641528 0 9449.01214567 0 1801.38784354 0 -2717.25452274 0 8256
0.08650000 0.08650700 20879.51099094 0 550.75002126 0 8557.13572548 0 116.31116416 0 -580.84598418 0 8037
0.08750000 0.08749060 20298.11044691 0 676.13933012 0 7920.45665586 0 222.28311452 0 -658.10948036 0 8155
0.08850000 0.08849210 19942.85940866 0 -238.80567061 0 8390.91195681 0 571.36301079 0 1230.79012534 0 8718
0.08950000 0.08949900 20083.38487399 0 -18.59128615 0 7732.61614435 0 543.03387554 0 -714.41394167 0 8571
0.09050000 0.09049190 19887.84707180 0 338.25821541 0 8319.83956677 0 129.72707599 0 280.79250578 0 8932
0.09150000 0.09150830 20058.42968086 0 -256.36747186 0 7328.35310678 0 122.17618910 0 912.90976609 0 9285
0.09250000 0.09250820 20128.52604557 0 -175.59693920 0 7925.31460012 0 235.58922350 0 -363.76242279 0 9204
0.09350000 0.09350330 20300.55051024 0 261.27754475 0 7559.02782091 0 -598.08170424 0 -1087.80795989 0 9349
0.09450000 0.09448040 20007.52108687 0 589.32409513 0 7951.61182809 0 -733.50078249 0 -1743.14796837 0 9564
0.09550000 0.09549270 19016.63355151 0 671.37122455 0 9021.19140579 0 -586.23630590 0 -1462.14140249 0 10155
0.09650000 0.09649430 18337.07591450 0 567.92252149 0 8976.61588526 0 -253.67785660 0 -1650.99121292 0 9913
0.09750000 0.09749140 17747.80062064 0 239.93031798 0 9587.59665154 0 797.76539585 0 -905.25794932 0 10476
0.09850000 0.09850240 17544.60989255 0 25.48202499 0 7683.12722356 0 1333.64988584 0 -2139.44752652 0 10575
0.09950000 0.09950330 17352.95400928 0 -0.10792988 0 7886.21813088 0 1161.20395569 0 -535.92441830 0 10882
0.10050000 0.10051200 17164.95822101 0 183.68796738 0 6267.74630741 0 746.73479869 0 -98.76511241 0 10875
0.10150000 0.10150300 16819.80017198 0 41.88379795 0 5621.19607251 0 928.86445290 0 -566.32317089 0 11118
0.10250000 0.10250800 16612.72752496 0 40.95879212 0 4927.28642664 0 1021.69111664 0 1111.29356942 0 11575
0.10350000 0.10349800 16550.50591008 0 0.99368030 0 3727.00818410 0 758.82309425 0 55.13866560 0 11364
0.10450000 0.10450100 16337.88766458 0 94.88352621 0 3422.08899760 0 556.61393709 0 969.96621055 0 12093
0.10550000 0.10551000 16063.15871617 0 484.74408998 0 3359.68992357 0 -321.06686014 0 739.41904519 0 12067
0.10650000 0.10649700 15385.93023051 0 609.15404615 0 3744.63209605 0 -559.47213854 0 536.76069455 0 12054
0.10750000 0.10749900 14778.57628563 0 298.29330544 0 3899.14356074 0 -381.24769478 0 -38.24876906 0 12807
0.10850000 0.10850100 14464.02994018 0 5.78871751 0 3799.95498643 0 473.82702483 0 342.05805948 0 12736
0.10950000 0.10950300 14437.63289144 0 -34.08258275 0 3380.23082032 0 659.01119467 0 -163.93454561 0 12933
0.11050000 0.11050200 14505.73284070 0 -7.71262981 0 2691.77804335 0 115.94959114 0 -471.89937480 0 13428
0.11150000 0.11150900 14223.79461428 0 329.95090889 0 3152.96110365 0 -67.31979447 0 -396.18642795 0 13453
0.11250000 0.11250000 13952.39302496 0 326.53482023 0 3124.14617398 0 -490.17655825 0 -1359.33709797 0 13668
0.11350000 0.11349100 13499.31762962 0 98.23462046 0 3350.98333397 0 -325.84272954 0 -613.92991556 0 13791
0.11450000 0.11448600 13629.41736982 0 38.90492427 0 3633.18774912 0 357.11657758 0 -808.15895651 0 14205
0.11550000 0.11549300 13617.43887712 0 -130.28496319 0 2902.03386390 0 499.90242885 0 -677.32941555 0 14776
0.11650000 0.11649800 13790.46154951 0 -5.52263970 0 3057.96500179 0 204.60041922 0 -259.54953626 0 14553
0.11750000 0.11747300 13514.51256944 0 380.93381390 0 3539.56695568 0 -644.63700343 0 -433.72014754 0 14568
0.11850000 0.11849100 13641.39586253 0 105.14698713 0 3512.17169922 0 -307.30490296 0 223.86250096 0 16015
0.11950000 0.11950300 13305.99806681 0 55.85881701 0 4526.37293055 0 -247.60875363 0 -840.71272868 0 15270
0.12050000 0.12050700 13591.92912414 0 -5.74252268 0 3969.98303565 0 -61.78184892 0 -522.39093978 0 15999
0.12150000 0.12150000 13444.08346882 0 -19.44530831 0 4465.79281282 0 183.43397897 0 -922.14096931 0 15670
0.12250000 0.12250700 13522.72005518 0 154.34287849 0 4114.46805829 0 -263.61778730 0 -1018.17631633 0 16887
0.12350000 0.12352200 13182.88578069 0 182.78292571 0 4613.73828892 0 -186.75911981 0 -1585.60860691 0 16407
0.12450000 0.12449800 13235.34714225 0 112.23625840 0 4155.94913488 0 193.71219118 0 -1406.09758431 0 16306
0.12550000 0.12549900 13016.18509056 0 -92.16285560 0 4238.36781940 0 339.58028608 0 -1467.56499779 0 17523
0.12650000 0.12650100 13156.37781998 0 171.67398284 0 4059.82173093 0 132.45107396 0 -1593.73845428 0 17154
0.12750000 0.12750600 12870.44676266 0 160.88224821 0 3851.11867795 0 6.96324199 0 -1433.94757984 0 18007
0.12850000 0.12850300 12744.56167729 0 29.18038461 0 3439.18053210 0 282.90316056 0 -781.69092412 0 17496
0.12950000 0.12949900 12764.85856771 0 -131.26431588 0 3591.52921338 0 932.29496012 0 -893.91941868 0 18405
0.13050000 0.13049000 12860.79742131 0 41.78175894 0 2989.63213739 0 185.46255889 0 -537.25868929 0 18100
0.13150000 0.13148800 12594.38687062 0 290.01927252 0 3132.85276359 0 -183.62585667 0 -46.93195624 0 19059
0.13250000 0.13249300 12392.52708616 0 287.18990818 0 3366.72174244 0 -254.66386401 0 -456.35949875 0 18957
0.13350000 0.13349100 12091.95564886 0 45.53424360 0 3200.66434173 0 237.79637169 0 392.50082320 0 19468
0.13450000 0.13450700 12237.91580070 0 -144.55600630 0 3373.03263350 0 574.89333878 0 70.71880269 0 19953
0.13550000 0.13551000 12317.66150676 0 -184.27690994 0 2487.50037796 0 717.05253742 0 326.98734107 0 19956
0.13650000 0.13649900 12412.15850476 0 232.55910849 0 2991.80601200 0 -412.71009316 0 585.80042186 0 19723
0.13750000 0.13749600 12088.40646584 0 324.45411169 0 2873.61821731 0 -359.83392083 0 368.33532329 0 20946
0.13850000 0.13851100 11821.99591514 0 249.24137782 0 3464.34645797 0 -166.54541337 0 656.21621304 0 20955
0.13950000 0.13949800 11408.40518094 0 241.26680721 0 3685.87093462 0 -400.48648500 0 189.44429859 0 20506
0.14050000 0.14048300 11179.15014002 0 285.82347271 0 4165.43210827 0 -230.98083116 0 262.62290694 0 21447
0.14150000 0.14148400 11113.71207803 0 193.07333824 0 4479.30189071 0 -32.34536857 0 -73.74603398 0 21771
0.14250000 0.14249400 10627.51836861 0 64.19939712 0 4134.59858075 0 106.48469640 0 2.50337188 0 22470
0.14350000 0.14350900 10808.73743554 0 69.02462235 0 4506.29786408 0 179.34909113 0 196.84101784 0 22519
0.14450000 0.14449900 10561.61447634 0 92.58099373 0 3938.35094195 0 241.67718150 0 -503.14660396 0 22218
0.14550000 0.14550500 10556.45706976 0 92.81568345 0 4059.84391332 0 31.12966247 0 -67.07478993 0 23559
0.14650000 0.14650700 10284.15709348 0 99.70364949 0 3323.17770322 0 216.59887608 0 -360.26093191 0 23044
0.14750000 0.14750500 10260.81012391 0 16.27200595 0 3748.69147414 0 262.02841878 0 418.34553033 0 23649
0.14850000 0.14849900 10218.80776106 0 -30.30170462 0 2977.30981758 0 499.27023062 0 -115.03124003 0 23640
0.14950000 0.14949500 10281.38429425 0 -32.43720368 0 2940.56468209 0 498.91974880 0 398.95922719 0 24457
0.15050000 0.15050000 10285.18857480 0 83.51316384 0 2518.99937729 0 139.95205045 0 566.73021782 0 24591
0.15150000 0.15149900 9957.95390004 0 196.05576109 0 2406.11317475 0 269.78338369 0 858.30114880 0 25020
0.15250000 0.15250500 10016.93688541 0 -16.34964433 0 2258.12333387 0 353.55519424 0 1592.30768987 0 25297
0.15350000 0.15350100 9708.43524229 0 65.17442424 0 2179.27601477 0 272.40534265 0 1118.59157702 0 25452
0.15450000 0.15450400 9989.54162895 0 41.21610789 0 2169.08320477 0 294.51564376 0 1916.28155273 0 26061
0.15550000 0.15549900 9515.31532103 0 229.39700824 0 1797.48374222 0 -230.00369671 0 1408.09399976 0 26128
0.15650000 0.15649500 9524.73174724 0 176.62065668 0 2231.52664359 0 -52.88216158 0 2271.10003430 0 26331
0.15750000 0.15749700 9147.81960135 0 15.22843523 0 2099.97395659 0 258.83526318 0 1625.92510782 0 27345
0.15850000 0.15849900 9272.76193497 0 83.29710732 0 2224.81646943 0 164.70649292 0 2202.57861955 0 26980
0.15950000 0.15949700 9248.06183937 0 77.49940594 0 2306.94678284 0 -191.76235876 0 1853.09500372 0 27777
0.16050000 0.16050000 8970.13862624 0 213.90815170 0 2518.30063188 0 -234.54332362 0 2347.67365803 0 28224
0.16150000 0.16150500 8960.34509933 0 85.68371108 0 2809.98802042 0 -135.60097389 0 1966.02557104 0 28075
0.16250000 0.16249700 9042.94124301 0 -59.01215522 0 2736.19828713 0 60.38646543 0 1829.55948379 0 28590
0.16350000 0.16349900 9143.37203137 0 71.64103571 0 3076.73130703 0 -239.25930057 0 1545.02591728 0 29163
0.16450000 0.16449100 8925.71838246 0 138.96160656 0 3176.76281230 0 -338.34472674 0 1435.65562417 0 28996
0.16550000 0.16550500 8731.12333200 0 263.92944994 0 3340.03632258 0 -486.11939840 0 982.97174809 0 30777
0.16650000 0.16650700 8591.75135115 0 195.07197193 0 3657.66602078 0 -96.97976244 0 662.67128966 0 29211
0.16750000 0.16749900 8337.95149139 0 66.12416344 0 3665.20803471 0 287.50489817 0 645.87145365 0 30922
0.16850000 0.16850800 8216.91325909 0 60.09720702 0 3408.55773732 0 335.71167659 0 750.74093903 0 30867
0.16950000 0.16949900 8195.04141871 0 70.87308124 0 3004.43888532 0 356.94244579 0 684.41890864 0 30852
0.17050000 0.17049200 8004.40592556 0 17.09009264 0 2977.83110384 0 360.43173635 0 904.51151176 0 31257
0.17150000 0.17149500 8006.52434418 0 -92.03996514 0 1982.04125944 0 377.61532778 0 735.91533607 0 32608
0.17250000 0.17250900 8170.65187662 0 -7.69398551 0 2282.15795766 0 272.08813441 0 1084.78449960 0 32361
0.17350000 0.17350400 8063.25581657 0 73.52886834 0 1567.04194322 0 85.85129907 0 554.36131499 0 32508
0.17450000 0.17449800 7897.57551656 0 109.58590598 0 2033.11622138 0 -213.38464721 0 862.63669768 0 32791
0.17550000 0.17549800 7893.48286488 0 75.41903013 0 1458.42585151 0 -44.88851411 0 108.45782033 0 33633
0.17650000 0.17650100 7684.73544712 0 184.10943286 0 2282.26886963 0 -100.03771635 0 565.91057837 0 33984
0.17750000 0.17750300 7559.66001914 0 111.72051774 0 1819.97668963 0 10.98235903 0 255.30049871 0 34069
