### header ###
fiducial parameters:
Omega_m = 0.31
Omega_nu = 0
Omega_de = 0.69
Omega_k = 0
H_0 = 100
w_de = -1
zeff = 0
beta = 0
fgrowth = 0
b_1 = 2
gamma = 0.55
Lx = 3500 Ly = 3500 Lz = 3500
nx = 700 ny = 700 nz = 700
xoffset = 1379.75464 yoffset = 22.6059522 zoffset = 368.141391
bins = 400 dk = 0.001
kx_ny = 0.628318531 ky_ny = 0.628318531 kz_ny = 0.628318531
############################
A(data) = 3.36243898 (not used)
A(ran) = 3.37495835 (used)
Ngal = 189645
weighted Ngal = 0
Nran = 9399747
weighted Nran = 0
SN(data) = 6544.48748
SN(ran) = 134.24026
SN(data+ran) = 6678.72774
############################
13 columns: k_central k_mean P_0(k) sigma^{lin}_{P_0(k)} P^img_1(k) sigma^{lin}_{P_1(k)} P_2(k) sigma^{lin}_{P_2(k)} P^img_3(k) sigma^{lin}_{P_3(k)} P_4(k) sigma^{lin}_{P_4(k)} N_modes
### header ###
0.00050000 0 0 0 0 0 0 0 0 0 0 0 0
0.00150000 0.00179520 70587.59382560 0 -23136.68048187 0 14452.93874323 0 26840.69661470 0 181102.60936905 0 3
0.00250000 0.00253879 61649.97458882 0 -15902.44727239 0 15347.11104119 0 -16485.84423187 0 -105796.59853774 0 6
0.00350000 0.00331552 77828.81448916 0 2141.58812754 0 33229.66970475 0 23384.23599775 0 25678.22826256 0 7
0.00450000 0.00420575 88084.51157127 0 4065.78879489 0 38104.58349941 0 3888.61801483 0 -8182.51945735 0 24
0.00550000 0.00557378 84561.28194870 0 8093.47932825 0 70782.79889189 0 23503.91001283 0 52438.29187544 0 45
0.00650000 0.00659388 80437.90765926 0 8170.96243013 0 44800.22818508 0 41491.61322345 0 -5487.34750774 0 40
0.00750000 0.00754703 76355.01623868 0 -490.06342804 0 71913.76824470 0 32827.61381538 0 38603.24371420 0 57
0.00850000 0.00846663 77022.81720693 0 4972.49414540 0 52876.39415490 0 38636.73912898 0 42996.79956130 0 75
0.00950000 0.00948925 79631.02308128 0 2835.48668221 0 59129.94373021 0 27217.02092715 0 70526.48133042 0 112
0.01050000 0.01054430 69153.16932429 0 -2189.52428075 0 5050.21016242 0 40323.71018481 0 27435.85024294 0 105
0.01150000 0.01145670 76548.77944936 0 -4661.28625023 0 23413.18402179 0 30187.57620579 0 55659.73002905 0 144
0.01250000 0.01249090 70277.59487090 0 -457.30335961 0 -11190.90680879 0 5273.68668973 0 26360.22596290 0 169
0.01350000 0.01339930 77438.07162067 0 815.78415441 0 -3867.91075013 0 4397.08284773 0 55273.75637525 0 180
0.01450000 0.01448870 71729.09981551 0 -3419.17201280 0 -21284.56150349 0 -568.18094638 0 2235.75238963 0 267
0.01550000 0.01550050 76741.98810020 0 1975.78582436 0 -21442.50014803 0 -20893.59681106 0 -11675.14846755 0 238
0.01650000 0.01653350 68334.19534163 0 3627.32050593 0 -18259.77027177 0 -13906.47546959 0 -15914.64758904 0 315
0.01750000 0.01747870 65570.26906214 0 4038.46008561 0 1028.17170302 0 -18583.74413462 0 -14321.06441151 0 297
0.01850000 0.01844180 67568.12636842 0 -6102.76475281 0 -18800.68794693 0 16995.81746755 0 -7510.44837828 0 388
0.01950000 0.01947590 71123.52046214 0 -6098.78301310 0 -11535.84303388 0 9744.78109469 0 -22139.02731638 0 399
0.02050000 0.02045430 79935.14370160 0 -3408.02535987 0 -27763.26237685 0 -430.84198193 0 -12437.44643380 0 462
0.02150000 0.02154770 73685.80878112 0 7335.82857352 0 -9914.58731997 0 -16481.07501718 0 -7384.15291863 0 571
0.02250000 0.02255340 67517.66142231 0 10371.98828212 0 -8848.75656684 0 -21506.05270654 0 -2863.02612423 0 510
0.02350000 0.02348930 58247.52810101 0 2251.24679176 0 20720.13049079 0 -11011.42905977 0 -6091.35191115 0 555
0.02450000 0.02439640 61818.56078243 0 -1060.36279304 0 5569.03417326 0 8286.47724635 0 -11205.21445285 0 592
0.02550000 0.02547300 61342.74843335 0 -1010.40693286 0 17813.46050657 0 5590.32927140 0 -2566.96880409 0 837
0.02650000 0.02652900 64336.04066574 0 768.88170076 0 5144.62952204 0 6666.82975600 0 -8253.35893226 0 723
0.02750000 0.02749970 57493.32670853 0 2236.35131426 0 20371.31234677 0 -119.94242204 0 8497.99746335 0 826
0.02850000 0.02848090 56822.97476498 0 4661.68553332 0 9158.18987050 0 -849.56350384 0 5234.23530218 0 831
0.02950000 0.02946900 50242.12396772 0 3581.71350408 0 15505.82606952 0 1381.35312392 0 10459.81947075 0 996
0.03050000 0.03053250 47587.88962604 0 1957.17479588 0 18996.66939701 0 1581.77105277 0 16784.19742978 0 1041
0.03150000 0.03150510 44332.95605765 0 1134.52962703 0 16447.02504255 0 3073.37067435 0 9166.15334990 0 1036
0.03250000 0.03246190 45794.77581542 0 -528.53435377 0 14328.93916135 0 3741.11618662 0 18674.13738975 0 1059
0.03350000 0.03345080 43337.18839564 0 -285.93105733 0 13156.15599604 0 3366.48882730 0 10171.33743812 0 1302
0.03450000 0.03451200 45752.96200293 0 -345.59282395 0 11038.39175955 0 2608.49424546 0 16863.05584008 0 1339
0.03550000 0.03553350 46235.53998215 0 -194.03050853 0 15469.77967944 0 345.74810071 0 16771.44255329 0 1365
0.03650000 0.03647120 44746.43587988 0 166.59532376 0 8737.73368539 0 -262.61847046 0 12796.35756704 0 1308
0.03750000 0.03744890 46457.14209717 0 -346.67976125 0 9714.38012386 0 3508.89979612 0 12912.26057515 0 1579
0.03850000 0.03847530 46576.37246437 0 1070.03431678 0 14902.90860342 0 -1081.11996813 0 13204.06996686 0 1662
0.03950000 0.03950240 43870.89679279 0 2192.55217751 0 16583.22494107 0 -3472.23229900 0 7708.17114627 0 1683
0.04050000 0.04050350 44215.72210591 0 908.04627623 0 17292.83972182 0 -3237.13219729 0 7247.74228736 0 1822
0.04150000 0.04152450 41044.74889841 0 661.73962912 0 19323.41605910 0 -3033.09853823 0 1280.67832922 0 1887
0.04250000 0.04250150 42226.07228536 0 1160.97104056 0 19593.04305691 0 1287.02249387 0 -736.56417109 0 1920
0.04350000 0.04349210 39739.98048942 0 768.10088049 0 21839.67591075 0 1734.92939143 0 711.86407549 0 2005
0.04450000 0.04448520 39823.38629047 0 420.89317827 0 16893.11298381 0 1964.77226579 0 -2108.76927577 0 2151
0.04550000 0.04548030 37558.12022577 0 433.21106160 0 15880.37579047 0 4763.86873081 0 1692.48338071 0 2274
0.04650000 0.04648670 37728.59192286 0 278.12174555 0 10781.77473576 0 1635.84063789 0 -66.76057632 0 2311
0.04750000 0.04749250 35773.43572483 0 1201.01026154 0 11903.18347680 0 1014.74913647 0 1099.80198027 0 2568
0.04850000 0.04851840 36549.04312742 0 -454.97309913 0 10664.09713614 0 2233.86688614 0 2635.67876918 0 2493
0.04950000 0.04949480 35110.51488323 0 -576.10449748 0 7771.97880232 0 299.67637770 0 -1734.03100448 0 2644
0.05050000 0.05050630 36951.09901679 0 100.22848493 0 6723.67214036 0 -347.56927525 0 -2902.58842374 0 2829
0.05150000 0.05149060 36287.84543929 0 11.02989590 0 9570.86003535 0 -850.68260561 0 -2692.82061586 0 2784
0.05250000 0.05249300 34869.83590946 0 1343.42123035 0 9410.68096902 0 -1741.61738319 0 -3508.05686515 0 3055
0.05350000 0.05348950 35788.51975268 0 990.95186430 0 12916.58614196 0 -1955.25601881 0 -3679.34931082 0 3009
0.05450000 0.05448610 33495.30387166 0 387.15819363 0 12144.52792240 0 95.60778137 0 -1388.47367236 0 3336
0.05550000 0.05550870 33727.88627167 0 408.49100184 0 16058.27858951 0 291.99350558 0 -2200.84839283 0 3349
0.05650000 0.05647670 32981.11598114 0 800.10342017 0 13389.40386786 0 656.65098796 0 -2152.55732132 0 3324
0.05750000 0.05747970 33012.17133260 0 -207.23457850 0 15762.69819084 0 1922.69226457 0 1751.85455797 0 3639
0.05850000 0.05849280 33239.42995807 0 -165.11021249 0 13313.54008074 0 1617.44034216 0 398.54330730 0 3846
0.05950000 0.05951020 32907.58134538 0 444.59950263 0 13004.65024573 0 840.34117358 0 2521.20652548 0 3787
0.06050000 0.06049470 32112.56434813 0 1341.55790927 0 14217.02898414 0 -8.87220336 0 1243.44518106 0 3930
0.06150000 0.06148310 30304.47742163 0 684.89472099 0 11950.76471171 0 1080.75063127 0 5345.94583785 0 4083
0.06250000 0.06249100 30263.99455277 0 448.31061713 0 12483.91854901 0 1205.19164279 0 1748.48283410 0 4303
0.06350000 0.06350600 29239.61160263 0 194.32997085 0 11876.23186822 0 982.61017507 0 4505.86530740 0 4470
0.06450000 0.06451750 29198.35234998 0 527.66480393 0 12343.06034777 0 -707.04273217 0 811.10921490 0 4479
0.06550000 0.06550280 28023.12912135 0 468.94246169 0 10784.95790929 0 -356.10949690 0 1164.32058203 0 4636
0.06650000 0.06648880 28011.37245258 0 -625.89177146 0 9965.12990446 0 1734.96266502 0 1848.93580486 0 4653
0.06750000 0.06749660 28314.93851306 0 -136.66461968 0 9689.08110362 0 521.76428715 0 -2109.65657152 0 5220
0.06850000 0.06852730 28729.63836695 0 524.39400995 0 8753.64955301 0 327.99885823 0 -447.04732979 0 5029
0.06950000 0.06949320 27355.21724113 0 786.09412930 0 8021.63055442 0 -438.85758997 0 -2670.71586034 0 5040
0.07050000 0.07048030 26636.06403100 0 444.21796545 0 9358.41924900 0 92.19402186 0 985.22326107 0 5475
0.07150000 0.07148790 26559.42386009 0 -70.89171445 0 7602.35003619 0 1389.38315051 0 -2069.45098258 0 5509
0.07250000 0.07249820 26312.86655193 0 218.07844176 0 7369.74545379 0 1093.41345082 0 65.54775393 0 5916
0.07350000 0.07351270 25758.19579255 0 105.95631177 0 7098.14422292 0 -409.20971140 0 -1780.31456934 0 5721
0.07450000 0.07449140 25756.86484892 0 402.08139913 0 7100.26264154 0 -608.60170454 0 215.58514068 0 6028
0.07550000 0.07549160 24536.27862477 0 536.91818955 0 7662.63069160 0 -314.62509295 0 -2706.51824409 0 6183
0.07650000 0.07648840 24961.95876364 0 338.89374099 0 7238.63641467 0 -1035.48634740 0 -3159.92637534 0 6330
0.07750000 0.07749960 24143.20660492 0 333.40914410 0 8155.84512869 0 764.19899741 0 -3451.73576704 0 6583
0.07850000 0.07848650 23681.70189991 0 167.26966854 0 8546.33289965 0 371.39094805 0 -3930.48728331 0 6549
0.07950000 0.07947320 23542.84011411 0 139.64815166 0 6853.22841191 0 331.89741396 0 -2375.97839264 0 6828
0.08050000 0.08048110 23373.47753671 0 442.59754158 0 7747.22325073 0 1082.13703089 0 -2739.58110220 0 7147
0.08150000 0.08149960 22374.49342759 0 650.58410323 0 6677.51057866 0 269.41848331 0 -147.92551194 0 7386
0.08250000 0.08250610 21927.96183845 0 140.50439206 0 6889.74063227 0 1506.71692302 0 1075.50338599 0 7227
0.08350000 0.08350160 21585.35476472 0 424.91262804 0 7201.65836404 0 548.60276553 0 1936.57844314 0 7798
0.08450000 0.08449610 21016.93092113 0 396.21415594 0 7289.16790796 0 89.00718825 0 3251.46202375 0 7371
0.08550000 0.08548940 20961.69676032 0 237.65107701 0 7723.16644455 0 342.28431990 0 2977.46509434 0 8256
0.08650000 0.08650700 20274.81893332 0 219.63786405 0 6983.80507358 0 -128.51702640 0 4016.13350615 0 8037
0.08750000 0.08749060 20383.06901554 0 316.84998706 0 7897.15405107 0 -263.07431865 0 2043.02066026 0 8155
0.08850000 0.08849210 20393.05109279 0 -178.06694876 0 7772.71082131 0 693.69558577 0 4657.50415207 0 8718
0.08950000 0.08949900 20112.66563394 0 -29.97828532 0 7173.32035584 0 742.35044854 0 2273.71755678 0 8571
0.09050000 0.09049190 20382.95810357 0 336.02888482 0 6806.65647593 0 -253.68451132 0 3942.35486405 0 8932
0.09150000 0.09150830 19507.19719253 0 466.69094871 0 7201.80254960 0 380.18848547 0 2825.95934403 0 9285
0.09250000 0.09250820 19318.42502048 0 69.04503015 0 7442.30406423 0 596.93487447 0 2757.81502998 0 9204
0.09350000 0.09350330 19264.85453922 0 150.94453575 0 7096.45836099 0 7.86321499 0 3252.90387935 0 9349
0.09450000 0.09448040 19247.99591985 0 20.03691276 0 6663.14747861 0 -183.58925572 0 1111.97013244 0 9564
0.09550000 0.09549270 18759.98325413 0 324.94988819 0 7462.10185078 0 -327.12376279 0 2155.55194449 0 10155
0.09650000 0.09649430 18524.51714292 0 264.39638933 0 6215.63986415 0 -259.58835545 0 967.43852677 0 9913
0.09750000 0.09749140 18243.35530028 0 118.01477201 0 7311.87158812 0 619.78606754 0 1485.10018017 0 10476
0.09850000 0.09850240 18206.08887854 0 243.83552843 0 6582.99139827 0 143.90495304 0 571.91978887 0 10575
0.09950000 0.09950330 17661.28928444 0 557.54670675 0 6691.55203400 0 450.53994771 0 839.22539916 0 10882
0.10050000 0.10051200 17214.42495940 0 241.94226111 0 6571.61183020 0 -58.49341994 0 1323.37943747 0 10875
0.10150000 0.10150300 16545.18213554 0 299.79505351 0 6881.92133842 0 522.54288918 0 1028.30147002 0 11118
0.10250000 0.10250800 16184.82914669 0 339.67567038 0 5968.11762185 0 140.75394399 0 1740.67463145 0 11575
0.10350000 0.10349800 15861.63166762 0 275.74268381 0 6560.63154522 0 -145.79822036 0 998.02028411 0 11364
0.10450000 0.10450100 15703.02755126 0 236.06947232 0 5985.95226655 0 355.32091279 0 1369.20826326 0 12093
0.10550000 0.10551000 15376.16997720 0 -19.19864009 0 5768.03242891 0 126.07585395 0 870.96840483 0 12067
0.10650000 0.10649700 15339.12537939 0 -190.17409935 0 4943.64594214 0 1040.15019572 0 1144.33424513 0 12054
0.10750000 0.10749900 15557.73287124 0 -43.06645228 0 5043.63308263 0 455.20157779 0 583.22837328 0 12807
0.10850000 0.10850100 15421.64388469 0 290.01594516 0 4448.59036636 0 -212.33209262 0 313.20320150 0 12736
0.10950000 0.10950300 14994.30006627 0 750.99492744 0 5887.72862637 0 -913.40221523 0 1221.93935018 0 12933
0.11050000 0.11050200 14006.07441818 0 469.42271052 0 5793.91928259 0 -701.77774098 0 281.45132288 0 13428
0.11150000 0.11150900 14141.05428504 0 -40.71999865 0 6933.59522500 0 687.14956133 0 1592.31878107 0 13453
0.11250000 0.11250000 13955.38764813 0 -159.95946063 0 5985.60843944 0 568.05117938 0 457.26121306 0 13668
0.11350000 0.11349100 14187.74822420 0 -8.79922328 0 6397.36912614 0 712.98983198 0 2823.80765182 0 13791
0.11450000 0.11448600 14138.94695762 0 21.33491554 0 5615.59501805 0 667.86196984 0 1953.19305617 0 14205
0.11550000 0.11549300 14401.91923727 0 -103.14103325 0 5461.48283646 0 1065.14198980 0 3419.57129589 0 14776
0.11650000 0.11649800 14200.50310069 0 -52.74052699 0 4542.81008443 0 608.11812835 0 3559.34255984 0 14553
0.11750000 0.11747300 14227.34379730 0 167.69224314 0 4524.90889256 0 239.59425471 0 4133.47836986 0 14568
0.11850000 0.11849100 13711.82496315 0 443.00126115 0 4410.92466152 0 -168.46973605 0 3698.90309104 0 16015
0.11950000 0.11950300 13474.58426043 0 272.23675645 0 4795.48973331 0 -258.25297534 0 3434.13403749 0 15270
0.12050000 0.12050700 12820.75820033 0 348.39889678 0 5491.80616891 0 -347.15113712 0 3314.41565763 0 15999
0.12150000 0.12150000 12592.61227910 0 425.46718789 0 4885.99390040 0 -152.69361751 0 2589.05137721 0 15670
0.12250000 0.12250700 12375.77937877 0 -98.79794235 0 5217.35450043 0 14.96402110 0 2679.82173304 0 16887
0.12350000 0.12352200 12355.37157638 0 -114.32473078 0 4751.65732297 0 203.47022625 0 1122.39585757 0 16407
0.12450000 0.12449800 12600.81976485 0 25.86932959 0 4882.22289344 0 -175.10227182 0 1451.33857666 0 16306
0.12550000 0.12549900 12729.69947338 0 54.96786116 0 4625.56150486 0 -358.63496244 0 390.54322694 0 17523
0.12650000 0.12650100 12559.44960023 0 104.19602791 0 5298.12059661 0 -225.80456955 0 412.31302831 0 17154
0.12750000 0.12750600 12495.67521778 0 -61.37546746 0 4501.60628777 0 24.73946935 0 -730.65810872 0 18007
0.12850000 0.12850300 12668.58697820 0 25.17346789 0 4892.18278830 0 230.78008050 0 -555.06782423 0 17496
0.12950000 0.12949900 12480.25845402 0 206.99057217 0 4692.10868655 0 48.10085748 0 -937.99361711 0 18405
0.13050000 0.13049000 12244.79234281 0 229.43804567 0 4851.68882824 0 17.35361948 0 -528.43009652 0 18100
0.13150000 0.13148800 11938.67530704 0 -14.37785134 0 4764.84475614 0 280.63611990 0 60.33444772 0 19059
0.13250000 0.13249300 12048.58906879 0 -2.58643385 0 3972.34546060 0 321.41290548 0 -487.92837262 0 18957
0.13350000 0.13349100 12077.75891677 0 -19.98966426 0 4569.47332190 0 532.36636232 0 456.70887146 0 19468
0.13450000 0.13450700 11995.24041147 0 -66.13702923 0 3477.17897284 0 495.70773816 0 -15.39957240 0 19953
0.13550000 0.13551000 12162.82839736 0 46.42453398 0 3811.92238794 0 41.28165687 0 789.54570979 0 19956
0.13650000 0.13649900 12098.72127900 0 66.19803081 0 3519.05933252 0 -154.58799394 0 158.58858868 0 19723
0.13750000 0.13749600 11835.52717542 0 386.08456577 0 4146.35524952 0 -375.40817959 0 106.34993835 0 20946
0.13850000 0.13851100 11719.40234337 0 130.19290626 0 4118.68271313 0 5.12388898 0 514.11579774 0 20955
0.13950000 0.13949800 11527.52463617 0 4.91152584 0 4330.87949315 0 -18.82009754 0 -154.31404138 0 20506
0.14050000 0.14048300 11507.33865772 0 55.81988691 0 4019.19467651 0 208.66312467 0 361.70833311 0 21447
0.14150000 0.14148400 11397.20307202 0 163.68721192 0 4082.46995510 0 -6.49319707 0 -459.35412193 0 21771
0.14250000 0.14249400 11296.49500373 0 44.98911127 0 3821.81573562 0 148.23939281 0 116.22354370 0 22470
0.14350000 0.14350900 11051.50155434 0 207.19354107 0 3995.75897735 0 139.89881271 0 -562.42239693 0 22519
0.14450000 0.14449900 10885.24451209 0 302.32051906 0 3841.64679576 0 -308.52937111 0 -296.67731805 0 22218
0.14550000 0.14550500 10575.09028063 0 102.54510324 0 4152.36667826 0 -32.83693042 0 -582.82243547 0 23559
0.14650000 0.14650700 10401.32449804 0 183.28424781 0 4101.61336103 0 -28.85818534 0 -663.91239460 0 23044
0.14750000 0.14750500 10336.70718462 0 -18.20664344 0 3861.86604780 0 189.77592538 0 -739.56433987 0 23649
0.14850000 0.14849900 10298.27618720 0 104.15621051 0 4391.34869891 0 -92.79693933 0 -752.33252579 0 23640
0.14950000 0.14949500 10231.74009670 0 192.50214159 0 4045.70263721 0 -314.98888421 0 -1022.51519257 0 24457
0.15050000 0.15050000 9981.51160236 0 87.19799220 0 4293.73507457 0 166.65854358 0 -810.58460129 0 24591
0.15150000 0.15149900 10031.52180940 0 -97.60619324 0 4347.89338926 0 359.41689183 0 -10.68299654 0 25020
0.15250000 0.15250500 10181.13096503 0 -86.09297625 0 3799.50024736 0 534.86409987 0 -367.69425211 0 25297
0.15350000 0.15350100 10187.87441277 0 79.86926199 0 4058.05823061 0 283.86033085 0 -413.18479639 0 25452
0.15450000 0.15450400 10104.73480045 0 130.65540917 0 3371.73496346 0 -162.25533839 0 136.56812626 0 26061
0.15550000 0.15549900 9935.92678290 0 103.74128883 0 3828.39281541 0 173.94213262 0 369.02852310 0 26128
0.15650000 0.15649500 9800.22598824 0 119.71837986 0 3402.95668287 0 52.81949631 0 297.81860221 0 26331
0.15750000 0.15749700 9728.72104151 0 102.56373645 0 3240.08245568 0 436.76468110 0 200.55102322 0 27345
0.15850000 0.15849900 9491.93507786 0 130.68535540 0 3120.68572053 0 298.59387688 0 613.13689497 0 26980
0.15950000 0.15949700 9295.50997991 0 87.01931302 0 2940.71995885 0 358.96658923 0 805.60576298 0 27777
0.16050000 0.16050000 9013.03937603 0 184.76603172 0 2656.10875396 0 214.95405157 0 597.57483654 0 28224
0.16150000 0.16150500 8834.74838509 0 189.39216997 0 2380.75869853 0 -73.82356145 0 629.99551433 0 28075
0.16250000 0.16249700 8578.12027010 0 170.94640032 0 2588.80737088 0 64.89947347 0 422.71324369 0 28590
0.16350000 0.16349900 8490.95455329 0 -12.21684253 0 2510.10423734 0 -50.30190552 0 344.21529729 0 29163
0.16450000 0.16449100 8445.34755144 0 -16.79650866 0 2362.26967321 0 199.03707483 0 411.94480057 0 28996
0.16550000 0.16550500 8494.80319863 0 -59.39513425 0 2044.37378628 0 177.75417701 0 -135.72963177 0 30777
0.16650000 0.16650700 8714.97454925 0 -18.33751956 0 2079.95434609 0 -69.94175343 0 -16.26036020 0 29211
0.16750000 0.16749900 8551.98941009 0 88.94640849 0 1897.53742989 0 46.71301601 0 -227.01683738 0 30922
0.16850000 0.16850800 8655.85846951 0 80.65740245 0 2242.69547892 0 -227.93186112 0 116.50526010 0 30867
0.16950000 0.16949900 8581.32562602 0 64.26805163 0 2122.34490083 0 71.69050245 0 139.19563082 0 30852
0.17050000 0.17049200 8397.66649576 0 85.04951644 0 2137.35129030 0 125.65549759 0 39.11399333 0 31257
0.17150000 0.17149500 8386.04292135 0 162.37401420 0 2196.24554610 0 56.37810686 0 301.52417111 0 32608
0.17250000 0.17250900 8171.06225091 0 131.68134489 0 2347.96202915 0 18.33530132 0 718.31138827 0 32361
0.17350000 0.17350400 8056.13526813 0 67.44401587 0 2377.20951550 0 227.37397392 0 777.37866674 0 32508
0.17450000 0.17449800 8007.20090719 0 32.89316279 0 2226.89052326 0 188.36623425 0 964.05127522 0 32791
0.17550000 0.17549800 8033.53140875 0 54.14090152 0 2076.90426693 0 87.39120085 0 1017.69052190 0 33633
0.17650000 0.17650100 7845.79071801 0 91.14612558 0 2210.04299510 0 256.27430581 0 1277.61715886 0 33984
0.17750000 0.17750300 7810.37652615 0 41.74016695 0 1879.91351794 0 18.32110459 0 1094.89745298 0 34069
0.17850000 0.17849800 7640.42611531 0 123.20656130 0 1946.52724681 0 -6.34427557 0 1395.35021447 0 34536
