### header ###
fiducial parameters:
Omega_m = 0.31
Omega_nu = 0
Omega_de = 0.69
Omega_k = 0
H_0 = 100
w_de = -1
zeff = 0
beta = 0
fgrowth = 0
b_1 = 2
gamma = 0.55
Lx = 3500 Ly = 3500 Lz = 3500
nx = 700 ny = 700 nz = 700
xoffset = 1379.75464 yoffset = 22.6059522 zoffset = 368.141391
bins = 400 dk = 0.001
kx_ny = 0.628318531 ky_ny = 0.628318531 kz_ny = 0.628318531
############################
A(data) = 3.34938971 (not used)
A(ran) = 3.35072647 (used)
Ngal = 188161
weighted Ngal = 0
Nran = 9399747
weighted Nran = 0
SN(data) = 6639.44962
SN(ran) = 133.276428
SN(data+ran) = 6772.72605
############################
13 columns: k_central k_mean P_0(k) sigma^{lin}_{P_0(k)} P^img_1(k) sigma^{lin}_{P_1(k)} P_2(k) sigma^{lin}_{P_2(k)} P^img_3(k) sigma^{lin}_{P_3(k)} P_4(k) sigma^{lin}_{P_4(k)} N_modes
### header ###
0.00050000 0 0 0 0 0 0 0 0 0 0 0 0
0.00150000 0.00179520 33141.71651295 0 -42424.27197483 0 -51876.41183804 0 43111.37162577 0 17624.46651057 0 3
0.00250000 0.00253879 44804.88648780 0 -29158.20221703 0 -16665.52162243 0 -61512.77648257 0 -4817.32830010 0 6
0.00350000 0.00331552 61501.13072577 0 -7502.79545238 0 -60231.52141111 0 6874.11313577 0 -4524.04377920 0 7
0.00450000 0.00420575 71451.93080378 0 -5924.22975553 0 -36490.03795965 0 -52670.98518741 0 -9750.95889139 0 24
0.00550000 0.00557378 69305.11872248 0 -448.50582219 0 -38356.35367013 0 -25299.57479874 0 11576.76955062 0 45
0.00650000 0.00659388 67179.49082735 0 -1650.30355871 0 -20732.99627925 0 -5524.79138864 0 -18215.62730791 0 40
0.00750000 0.00754703 66875.59203097 0 -13709.82854770 0 -38640.28831200 0 -4236.79286943 0 -14280.13789478 0 57
0.00850000 0.00846663 88082.40424385 0 -1544.14971272 0 -22759.69069760 0 -13057.22251926 0 -39736.65313034 0 75
0.00950000 0.00948925 87826.53033026 0 2363.12369538 0 -17154.75431982 0 -38837.37888177 0 -4983.43006559 0 112
0.01050000 0.01054430 81348.05128083 0 6386.59957391 0 11511.99696044 0 -11836.41447117 0 -25970.37039017 0 105
0.01150000 0.01145670 81222.38801941 0 5251.21592471 0 17947.88581358 0 -17716.52344524 0 -11661.94994318 0 144
0.01250000 0.01249090 77441.06624385 0 3639.05499230 0 41159.09913895 0 -1057.40366169 0 -21886.14802596 0 169
0.01350000 0.01339930 76735.11155809 0 5969.39310950 0 55655.40446224 0 9275.12435992 0 2838.42584940 0 180
0.01450000 0.01448870 70448.73203981 0 -1991.67950958 0 35080.23591556 0 25001.22160084 0 30112.37789049 0 267
0.01550000 0.01550050 74846.50254175 0 -7628.04833952 0 25435.44196136 0 34253.94174292 0 16802.71972868 0 238
0.01650000 0.01653350 79845.52683025 0 2091.73319725 0 24427.47398270 0 5398.28519625 0 14607.21729278 0 315
0.01750000 0.01747870 78178.74175288 0 8962.06423486 0 16959.21651762 0 -13598.80566625 0 22452.79727804 0 297
0.01850000 0.01844180 62441.66422698 0 5152.47099828 0 26816.18506944 0 -3966.85531811 0 14375.18945262 0 388
0.01950000 0.01947590 59497.61690905 0 3064.54208158 0 32319.74790712 0 -4332.66517585 0 11040.39926620 0 399
0.02050000 0.02045430 60192.25857391 0 -751.61936183 0 21899.34655033 0 1294.28722787 0 -6679.08552863 0 462
0.02150000 0.02154770 65011.05091201 0 -5849.43072331 0 16135.36240830 0 14685.63205520 0 -8531.21559821 0 571
0.02250000 0.02255340 63821.07639143 0 -3850.79703324 0 4956.73355454 0 3870.05135114 0 -6770.17752916 0 510
0.02350000 0.02348930 74529.40522100 0 -237.72871539 0 -2577.98236266 0 -5026.04244427 0 -14242.98238500 0 555
0.02450000 0.02439640 73891.32866057 0 -1175.17886385 0 6604.36413479 0 3953.45715219 0 -12705.18792813 0 592
0.02550000 0.02547300 69814.20466240 0 5833.15993739 0 13274.38815551 0 -16987.38815787 0 -11691.11979115 0 837
0.02650000 0.02652900 65141.15065221 0 3642.60417533 0 15883.70314955 0 -4709.28895062 0 -19610.78897203 0 723
0.02750000 0.02749970 60328.56938441 0 4085.35366630 0 30533.28881467 0 -3526.50152567 0 -7797.88783839 0 826
0.02850000 0.02848090 57168.90919780 0 2974.74775109 0 31719.82506419 0 -785.13695901 0 -13715.70688208 0 831
0.02950000 0.02946900 56668.80712740 0 622.37697115 0 33698.27277582 0 9537.06515825 0 93.45775284 0 996
0.03050000 0.03053250 56285.27353693 0 -220.79689413 0 32902.47939478 0 4383.78450259 0 3474.86091268 0 1041
0.03150000 0.03150510 54486.28139193 0 -628.27083321 0 22930.05148272 0 7785.78734252 0 -555.14989909 0 1036
0.03250000 0.03246190 57353.57762698 0 1160.19465677 0 31587.06343672 0 2336.13881320 0 10129.24634571 0 1059
0.03350000 0.03345080 53789.42148767 0 1304.77950019 0 23916.28071536 0 -1209.35084164 0 3940.22535423 0 1302
0.03450000 0.03451200 53463.00756149 0 384.15469750 0 22782.76038725 0 2668.51980335 0 1923.97884341 0 1339
0.03550000 0.03553350 52714.12994354 0 804.60533701 0 22536.53581500 0 674.54108864 0 -140.42342632 0 1365
0.03650000 0.03647120 52593.90136862 0 2053.37983821 0 23187.14542798 0 1456.54034803 0 -7021.04931294 0 1308
0.03750000 0.03744890 49008.67195511 0 1567.68523265 0 23461.98528836 0 -3539.31185815 0 -2615.16005483 0 1579
0.03850000 0.03847530 46098.00913999 0 611.64845634 0 20640.82843261 0 2682.84962981 0 -5490.74141401 0 1662
0.03950000 0.03950240 47350.09436347 0 92.51832846 0 22548.29248377 0 859.12633385 0 -4137.62647752 0 1683
0.04050000 0.04050350 45531.58171184 0 1753.78442624 0 18718.94582542 0 2513.63123797 0 -7167.47529505 0 1822
0.04150000 0.04152450 41652.10284329 0 925.37072586 0 19359.90609706 0 2506.05595045 0 -1735.51722487 0 1887
0.04250000 0.04250150 42199.00976481 0 189.26573032 0 16888.45468109 0 1172.12878469 0 -2624.59866343 0 1920
0.04350000 0.04349210 41415.41670042 0 1118.32538829 0 17805.36393280 0 3202.06183254 0 -2003.56927271 0 2005
0.04450000 0.04448520 41899.32562327 0 -220.22791572 0 13516.95263277 0 1394.40746272 0 -1483.00394395 0 2151
0.04550000 0.04548030 39725.89466930 0 1816.88224568 0 16713.10285734 0 -2078.55685528 0 -2317.83833824 0 2274
0.04650000 0.04648670 38595.14714042 0 368.09575344 0 13129.64803534 0 -912.73452518 0 -4043.11838832 0 2311
0.04750000 0.04749250 37580.41353163 0 550.02798434 0 16127.93130635 0 826.92858911 0 -1234.00657246 0 2568
0.04850000 0.04851840 36583.98039780 0 310.84521303 0 12210.40963227 0 246.52736193 0 -6923.69078612 0 2493
0.04950000 0.04949480 38709.49738096 0 -540.01596085 0 14517.26768553 0 2474.93405181 0 -4829.49534315 0 2644
0.05050000 0.05050630 37594.05570388 0 -357.24745370 0 12310.78496465 0 -116.66719158 0 -9003.45658187 0 2829
0.05150000 0.05149060 38300.56494948 0 200.16504956 0 12222.60994891 0 -1381.24221195 0 -4581.01925792 0 2784
0.05250000 0.05249300 38690.64234615 0 95.86387711 0 13249.98752222 0 1059.43667809 0 -4858.42118479 0 3055
0.05350000 0.05348950 39014.83803295 0 -220.77027525 0 11647.75321108 0 512.12714613 0 -7044.95084236 0 3009
0.05450000 0.05448610 40092.90237631 0 -376.24889231 0 13029.49452689 0 1685.67338578 0 -1740.10898040 0 3336
0.05550000 0.05550870 39550.09919767 0 -0.88714048 0 12815.54533776 0 867.41034885 0 -3070.63114871 0 3349
0.05650000 0.05647670 38850.46649417 0 978.70718287 0 10474.09384122 0 850.71366096 0 -345.21128677 0 3324
0.05750000 0.05747970 38548.67502521 0 1121.12036992 0 15452.14467629 0 -43.01254906 0 2742.88627889 0 3639
0.05850000 0.05849280 36098.85144329 0 1112.64669545 0 13239.56179709 0 487.74647700 0 1421.62526004 0 3846
0.05950000 0.05951020 36204.43963824 0 488.25889029 0 13316.42379194 0 2406.22408672 0 6600.83713416 0 3787
0.06050000 0.06049470 34473.32561856 0 446.22103562 0 10279.23260204 0 2037.02032271 0 2868.16134842 0 3930
0.06150000 0.06148310 34077.81353538 0 658.12722627 0 12069.99507890 0 1283.44003726 0 6262.44471527 0 4083
0.06250000 0.06249100 33276.14181997 0 784.28182772 0 10068.54422481 0 -805.86418786 0 2298.12928126 0 4303
0.06350000 0.06350600 32237.89487364 0 286.38690552 0 10612.98890060 0 189.24354793 0 3776.55256087 0 4470
0.06450000 0.06451750 30624.12571768 0 978.07054816 0 9440.84902472 0 8.43986850 0 353.61286846 0 4479
0.06550000 0.06550280 30061.02564862 0 596.73301469 0 8069.33379250 0 -146.46812866 0 -423.61273976 0 4636
0.06650000 0.06648880 29601.96100693 0 462.84784897 0 9198.38436824 0 160.26557766 0 -409.44484478 0 4653
0.06750000 0.06749660 28644.23615045 0 428.17343995 0 8259.62545854 0 868.58601573 0 -388.65883258 0 5220
0.06850000 0.06852730 27354.21903340 0 980.24664100 0 9015.57926014 0 -253.82204216 0 -1386.55489529 0 5029
0.06950000 0.06949320 26894.59983187 0 635.78401002 0 8450.27204288 0 169.40361483 0 -771.68444623 0 5040
0.07050000 0.07048030 26185.98325885 0 108.33204616 0 9537.79717725 0 803.53836386 0 2347.03036861 0 5475
0.07150000 0.07148790 26217.70408212 0 -243.93867656 0 7686.73186257 0 1546.83378238 0 1789.07661493 0 5509
0.07250000 0.07249820 26618.42902786 0 -304.15722127 0 6718.10435949 0 2170.70251952 0 3021.61914939 0 5916
0.07350000 0.07351270 26514.83724836 0 -185.33611924 0 7317.12881547 0 199.70698313 0 2174.82844479 0 5721
0.07450000 0.07449140 26978.22745686 0 725.38979017 0 7174.44056673 0 -605.95645407 0 2868.38317236 0 6028
0.07550000 0.07549160 26383.18474058 0 197.43550600 0 8732.87574112 0 -1175.42287018 0 2088.50565894 0 6183
0.07650000 0.07648840 25941.08963023 0 330.57312504 0 7833.21330067 0 -471.68087822 0 1393.20961345 0 6330
0.07750000 0.07749960 25888.29553275 0 20.67443476 0 8179.61356375 0 746.07265424 0 29.55848351 0 6583
0.07850000 0.07848650 24999.77974523 0 270.03848122 0 8316.11292460 0 -302.36932032 0 -828.99155174 0 6549
0.07950000 0.07947320 26393.16681784 0 -209.69904246 0 6236.66877356 0 1178.15130463 0 -143.64430992 0 6828
0.08050000 0.08048110 24822.09877012 0 109.09279136 0 6683.78819613 0 100.94076160 0 -2278.37585950 0 7147
0.08150000 0.08149960 25351.70342440 0 619.02299319 0 5746.46005084 0 -547.93063900 0 -1800.56709497 0 7386
0.08250000 0.08250610 23947.22515485 0 722.38407579 0 6782.72167291 0 -129.18027998 0 -2087.86236952 0 7227
0.08350000 0.08350160 23512.33932251 0 413.31899987 0 6528.32288851 0 -325.18058509 0 -3232.30752662 0 7798
0.08450000 0.08449610 22809.04652402 0 418.29340171 0 6989.45049283 0 -586.56238709 0 -2153.91044734 0 7371
0.08550000 0.08548940 22482.63259783 0 342.22997303 0 7793.41808602 0 -125.83850234 0 -3976.09428517 0 8256
0.08650000 0.08650700 22093.77523283 0 194.70152595 0 7037.13154851 0 -290.64259779 0 -3103.58309484 0 8037
0.08750000 0.08749060 21835.90490378 0 546.15937484 0 8318.78590306 0 72.31183130 0 -3762.55547032 0 8155
0.08850000 0.08849210 21702.58871647 0 65.04388085 0 7270.00231964 0 -84.37062427 0 -3439.55763279 0 8718
0.08950000 0.08949900 20701.27545598 0 672.01673221 0 8699.15850240 0 -18.30236047 0 -3688.07808281 0 8571
0.09050000 0.09049190 20510.95051635 0 603.80254362 0 8603.74093505 0 -706.24638423 0 -3653.14081243 0 8932
0.09150000 0.09150830 19126.43640130 0 474.89288885 0 9164.06820488 0 293.91561001 0 -2916.78515584 0 9285
0.09250000 0.09250820 18959.73571117 0 395.51651965 0 9000.98324495 0 67.82677308 0 -3795.61832842 0 9204
0.09350000 0.09350330 19072.31136019 0 -33.60067024 0 9539.87123107 0 591.39371248 0 -2143.86182291 0 9349
0.09450000 0.09448040 18591.72979643 0 -118.33198024 0 8357.57181879 0 1162.23543701 0 -2574.25572049 0 9564
0.09550000 0.09549270 18960.62300693 0 -21.82769742 0 8137.43374176 0 219.89628893 0 -963.56326255 0 10155
0.09650000 0.09649430 19074.52959958 0 -77.22401152 0 7562.24426802 0 910.35879079 0 -1939.32905999 0 9913
0.09750000 0.09749140 18909.04894112 0 249.78928295 0 6772.20721821 0 751.12691269 0 -274.33077444 0 10476
0.09850000 0.09850240 18448.43153186 0 288.90793459 0 7326.63397125 0 150.29015513 0 216.33823295 0 10575
0.09950000 0.09950330 18172.26072785 0 464.08340831 0 7635.61253584 0 -34.01858654 0 543.46421398 0 10882
0.10050000 0.10051200 17907.29203275 0 261.24870764 0 7905.99373504 0 320.02872410 0 927.76309704 0 10875
0.10150000 0.10150300 17066.91203999 0 236.78929101 0 7569.90828512 0 57.48955570 0 607.95065128 0 11118
0.10250000 0.10250800 17206.66112153 0 155.60283847 0 7377.07673497 0 283.99231610 0 1657.04700646 0 11575
0.10350000 0.10349800 17009.23781586 0 199.82011334 0 7692.95402406 0 150.98002758 0 468.41341159 0 11364
0.10450000 0.10450100 16664.85615061 0 352.08893800 0 7399.56968239 0 -46.62783562 0 682.26056171 0 12093
0.10550000 0.10551000 16039.86720258 0 298.62604135 0 8140.55036810 0 -323.04552967 0 887.90022609 0 12067
0.10650000 0.10649700 15953.91042623 0 129.07047713 0 6789.53166784 0 770.00967549 0 182.18732843 0 12054
0.10750000 0.10749900 15928.40067325 0 -115.96511881 0 7502.72890520 0 299.66306827 0 755.26614739 0 12807
0.10850000 0.10850100 16007.81364340 0 -169.62987525 0 6147.05190222 0 1011.79000512 0 469.37280013 0 12736
0.10950000 0.10950300 16168.63599915 0 -40.37450787 0 6182.01135500 0 717.92208726 0 821.04249089 0 12933
0.11050000 0.11050200 15857.08427687 0 119.69176099 0 5035.23704654 0 263.95052321 0 477.12554680 0 13428
0.11150000 0.11150900 16042.08544197 0 294.21507233 0 5316.59853072 0 -152.47401181 0 682.89830554 0 13453
0.11250000 0.11250000 15483.42185169 0 312.29483247 0 5474.06025380 0 -571.42955797 0 -139.81784697 0 13668
0.11350000 0.11349100 14987.53443613 0 261.51822372 0 5644.46540371 0 -101.94340581 0 -249.06835515 0 13791
0.11450000 0.11448600 14882.05715316 0 347.97854041 0 6224.77901043 0 -227.76771141 0 -538.19700455 0 14205
0.11550000 0.11549300 14255.62634952 0 207.42534709 0 6029.54067055 0 206.82420421 0 1.25414819 0 14776
0.11650000 0.11649800 14278.14147932 0 191.72908517 0 6080.94836841 0 140.07849010 0 -623.35299648 0 14553
0.11750000 0.11747300 13900.59713521 0 40.26548140 0 5568.83453172 0 962.10587927 0 696.50387683 0 14568
0.11850000 0.11849100 14030.36413950 0 -119.23813103 0 4811.58306008 0 794.86948433 0 605.64146408 0 16015
0.11950000 0.11950300 13805.76740130 0 90.72066726 0 4678.43324071 0 466.45692445 0 646.53027075 0 15270
0.12050000 0.12050700 13856.12143545 0 62.71661500 0 3917.59931246 0 272.88891883 0 674.41797635 0 15999
0.12150000 0.12150000 13367.44329791 0 242.89832229 0 3869.26387616 0 77.92475334 0 489.79391195 0 15670
0.12250000 0.12250700 13547.45342438 0 3.15083159 0 3613.64506009 0 -85.30405941 0 902.17792392 0 16887
0.12350000 0.12352200 13112.45668007 0 102.28634562 0 3424.57342572 0 260.15622474 0 -688.97739059 0 16407
0.12450000 0.12449800 13281.04287368 0 247.84943260 0 3708.13096690 0 -248.86427712 0 169.71749570 0 16306
0.12550000 0.12549900 12858.80100586 0 116.62393591 0 3148.83517839 0 -183.16668112 0 -869.57756873 0 17523
0.12650000 0.12650100 12735.68871974 0 72.94791145 0 3699.18037096 0 162.54703687 0 180.67338005 0 17154
0.12750000 0.12750600 12856.13911859 0 -143.59883601 0 3049.44696254 0 339.93631351 0 -447.28135405 0 18007
0.12850000 0.12850300 12797.91033462 0 34.44027385 0 3125.14438171 0 320.67866824 0 -610.55486432 0 17496
0.12950000 0.12949900 12753.54554682 0 142.83465254 0 2958.15532045 0 240.85754205 0 -323.14867780 0 18405
0.13050000 0.13049000 12545.80742798 0 196.75894298 0 3455.93933069 0 -551.64729909 0 -265.95692074 0 18100
0.13150000 0.13148800 12588.84127214 0 97.81060400 0 2827.20155809 0 212.85670623 0 185.45701329 0 19059
0.13250000 0.13249300 12448.98127862 0 76.18332451 0 3325.93941126 0 75.47748074 0 -2.42064264 0 18957
0.13350000 0.13349100 12025.07573126 0 176.44319753 0 2962.31451931 0 56.65583043 0 -537.22874306 0 19468
0.13450000 0.13450700 12057.79476226 0 389.26773929 0 3980.24239282 0 -436.52622037 0 -252.31253026 0 19953
0.13550000 0.13551000 11655.29522501 0 165.18452351 0 3455.66205076 0 -45.61177107 0 -128.51369904 0 19956
0.13650000 0.13649900 11604.16480708 0 -133.26405869 0 3780.65630374 0 527.28326676 0 437.21054722 0 19723
0.13750000 0.13749600 11628.01088052 0 -12.78903738 0 3199.35558049 0 306.32665939 0 -506.73238793 0 20946
0.13850000 0.13851100 11714.30039277 0 221.58991471 0 3459.98761757 0 -50.38209487 0 235.19104953 0 20955
0.13950000 0.13949800 11333.20686563 0 87.53827012 0 3378.47841120 0 -167.59574973 0 43.57087992 0 20506
0.14050000 0.14048300 11281.30006392 0 65.38881708 0 3458.97831865 0 90.74784069 0 790.46627914 0 21447
0.14150000 0.14148400 11587.08436378 0 -113.96537600 0 3373.69810532 0 229.05983585 0 355.41186061 0 21771
0.14250000 0.14249400 11362.26580164 0 67.80359248 0 3439.56872399 0 238.30434851 0 422.12097377 0 22470
0.14350000 0.14350900 11494.91651714 0 198.94501790 0 3333.27069244 0 -173.69258069 0 562.59098312 0 22519
0.14450000 0.14449900 11209.76184360 0 177.82183331 0 4019.92669550 0 -388.50022846 0 553.28990536 0 22218
0.14550000 0.14550500 10956.21708136 0 243.30536921 0 4060.93085062 0 -271.73765259 0 300.57809202 0 23559
0.14650000 0.14650700 10760.93437670 0 127.34801424 0 4512.15401607 0 -178.61041741 0 302.01329290 0 23044
0.14750000 0.14750500 10805.34352928 0 10.71256567 0 4231.59109806 0 184.39336750 0 207.40427381 0 23649
0.14850000 0.14849900 10701.99575611 0 41.08090620 0 4374.45680595 0 315.87728909 0 -594.75767251 0 23640
0.14950000 0.14949500 10720.64005818 0 79.75579905 0 3779.86882876 0 -74.92680281 0 -129.55738067 0 24457
0.15050000 0.15050000 10462.21516929 0 57.92111417 0 3635.45035329 0 382.82042651 0 -288.01731147 0 24591
0.15150000 0.15149900 10470.72211735 0 31.23513976 0 3484.70989557 0 245.91623698 0 74.95519627 0 25020
0.15250000 0.15250500 10221.84674903 0 175.76774364 0 2998.62709812 0 442.49217521 0 -348.53531850 0 25297
0.15350000 0.15350100 9988.58778601 0 212.90772574 0 3012.82383021 0 138.33384482 0 135.26491062 0 25452
0.15450000 0.15450400 9708.30214793 0 188.81320949 0 2939.24482966 0 17.49137215 0 200.62866160 0 26061
0.15550000 0.15549900 9570.70475859 0 203.21291049 0 3193.82107321 0 66.85618244 0 586.47143927 0 26128
0.15650000 0.15649500 9365.87253335 0 82.15415948 0 2790.38987542 0 163.19476278 0 312.70742500 0 26331
0.15750000 0.15749700 9126.66868877 0 105.94976797 0 2965.16495693 0 60.75757688 0 777.65483755 0 27345
0.15850000 0.15849900 9124.90518845 0 44.33606159 0 2416.82727100 0 270.47658350 0 657.00590626 0 26980
0.15950000 0.15949700 9094.93677430 0 37.11391779 0 2718.26382166 0 356.36237619 0 699.77688905 0 27777
0.16050000 0.16050000 9095.39151337 0 93.05580787 0 2491.11610816 0 -199.06591195 0 690.79301953 0 28224
0.16150000 0.16150500 8683.08735802 0 303.85110423 0 2590.47105042 0 -200.03084608 0 576.91970046 0 28075
0.16250000 0.16249700 8545.02413841 0 101.04191332 0 2851.12526990 0 -65.78277640 0 769.05028695 0 28590
0.16350000 0.16349900 8542.87244620 0 -60.50037203 0 2682.06215482 0 309.49541436 0 884.56177581 0 29163
0.16450000 0.16449100 8498.58529679 0 -13.73689107 0 2590.29359127 0 323.82967730 0 447.37341098 0 28996
0.16550000 0.16550500 8590.90842018 0 -2.23964540 0 2359.33050602 0 -34.22754469 0 559.81263829 0 30777
0.16650000 0.16650700 8650.00231752 0 16.87048694 0 2331.39178091 0 -190.56118213 0 290.89547708 0 29211
0.16750000 0.16749900 8694.69984123 0 31.04858582 0 2466.47146854 0 -113.75797062 0 180.15431203 0 30922
0.16850000 0.16850800 8578.66373875 0 129.98550087 0 2363.02387461 0 -149.63133803 0 -253.51592512 0 30867
0.16950000 0.16949900 8439.72431458 0 194.34328029 0 2780.23033901 0 -216.14413701 0 -54.03542424 0 30852
0.17050000 0.17049200 8176.49693741 0 216.52900154 0 2783.83497802 0 -193.52585907 0 -615.30078750 0 31257
0.17150000 0.17149500 7895.02454126 0 219.99167323 0 3102.36306318 0 45.51017570 0 -112.02996213 0 32608
0.17250000 0.17250900 7708.86989168 0 43.12745386 0 2849.82759986 0 468.12947695 0 -55.69267088 0 32361
0.17350000 0.17350400 7769.57201258 0 -94.77971261 0 2595.20699152 0 529.75216720 0 415.59269525 0 32508
0.17450000 0.17449800 7691.12397656 0 28.26181168 0 2329.16245032 0 179.93803369 0 -11.44345336 0 32791
0.17550000 0.17549800 7766.57738940 0 95.13385453 0 2122.69981913 0 70.98210770 0 663.49536560 0 33633
0.17650000 0.17650100 7478.76082860 0 118.29981577 0 2179.17619399 0 -202.75040757 0 434.71835527 0 33984
0.17750000 0.17750300 7556.34375125 0 74.81921820 0 2169.60449103 0 44.09516080 0 562.32368527 0 34069
0.17850000 0.17849800 7381.70176410 0 -28.61451174 0 2238.96883674 0 -14.52325693 0 71.08691951 0 34536
