### header ###
fiducial parameters:
Omega_m = 0.31
Omega_nu = 0
Omega_de = 0.69
Omega_k = 0
H_0 = 100
w_de = -1
zeff = 0
beta = 0
fgrowth = 0
b_1 = 2
gamma = 0.55
Lx = 3500 Ly = 3500 Lz = 3500
nx = 700 ny = 700 nz = 700
xoffset = 1379.75464 yoffset = 22.6059522 zoffset = 368.141391
bins = 400 dk = 0.001
kx_ny = 0.628318531 ky_ny = 0.628318531 kz_ny = 0.628318531
############################
A(data) = 3.3523742 (not used)
A(ran) = 3.35745429 (used)
Ngal = 188824
weighted Ngal = 0
Nran = 9399747
weighted Nran = 0
SN(data) = 6602.395
SN(ran) = 133.54403
SN(data+ran) = 6735.93903
############################
13 columns: k_central k_mean P_0(k) sigma^{lin}_{P_0(k)} P^img_1(k) sigma^{lin}_{P_1(k)} P_2(k) sigma^{lin}_{P_2(k)} P^img_3(k) sigma^{lin}_{P_3(k)} P_4(k) sigma^{lin}_{P_4(k)} N_modes
### header ###
0.00050000 0 0 0 0 0 0 0 0 0 0 0 0
0.00150000 0.00179520 39185.42064201 0 -30917.15514105 0 -30888.87258883 0 -6347.74711100 0 153915.86740957 0 3
0.00250000 0.00253879 74065.34954069 0 -36323.11544558 0 -55917.15671022 0 20778.24836280 0 -34800.73775247 0 6
0.00350000 0.00331552 105941.78230579 0 -37815.99055481 0 -41226.53361639 0 -53573.36497112 0 7670.19488792 0 7
0.00450000 0.00420575 123662.40949390 0 -9218.65907626 0 -30857.59541344 0 -58719.79126707 0 -4012.20722243 0 24
0.00550000 0.00557378 110173.07394154 0 18721.82953663 0 19358.02059358 0 -59675.07606022 0 -2061.59841514 0 45
0.00650000 0.00659388 75451.52733528 0 18244.13168407 0 9739.27986101 0 2861.71736299 0 -29238.28065900 0 40
0.00750000 0.00754703 76094.70584630 0 8074.73520541 0 68966.61539162 0 -6877.96178111 0 23932.91751078 0 57
0.00850000 0.00846663 61301.37826873 0 2018.59784458 0 34138.92603057 0 27377.39963502 0 706.54473743 0 75
0.00950000 0.00948925 76421.11977249 0 -5081.89771210 0 52950.70517445 0 27307.96874213 0 4510.67888687 0 112
0.01050000 0.01054430 77885.37959360 0 -237.12979075 0 37116.80149920 0 7212.88265535 0 8.64415726 0 105
0.01150000 0.01145670 76767.16511728 0 2974.03791448 0 41140.46592807 0 343.02521186 0 5771.31542320 0 144
0.01250000 0.01249090 78504.93385512 0 4427.28417702 0 50592.16214341 0 -10021.34009060 0 245.75652374 0 169
0.01350000 0.01339930 69301.01497961 0 4886.24899793 0 66606.40868104 0 -8845.34047818 0 4935.13899408 0 180
0.01450000 0.01448870 71880.71647780 0 -3862.57588440 0 59607.86340671 0 12853.36631936 0 -1327.05062366 0 267
0.01550000 0.01550050 88270.40003212 0 1371.16031392 0 59829.57643371 0 6962.56543143 0 -11986.92201376 0 238
0.01650000 0.01653350 82303.77972186 0 252.69295831 0 50006.65785651 0 7177.39082512 0 4859.28629815 0 315
0.01750000 0.01747870 81392.41606862 0 5013.52048291 0 69928.22216703 0 4988.74274893 0 1092.65148559 0 297
0.01850000 0.01844180 73041.07750252 0 9538.54028744 0 55144.76575475 0 9061.06425882 0 19171.24483697 0 388
0.01950000 0.01947590 67473.96210633 0 3709.63936968 0 69965.82132469 0 15754.15796919 0 41888.45625026 0 399
0.02050000 0.02045430 65137.26873328 0 256.25545077 0 63174.57052132 0 20007.85382278 0 45501.63548008 0 462
0.02150000 0.02154770 65005.39440156 0 -387.58520471 0 52685.73647936 0 19082.62617336 0 53589.11447079 0 571
0.02250000 0.02255340 67743.25636823 0 -1848.93580486 0 51469.47582201 0 11202.21982967 0 47300.18397721 0 510
0.02350000 0.02348930 67915.83539275 0 -1854.81413924 0 40601.21193245 0 14747.52093417 0 64528.80566870 0 555
0.02450000 0.02439640 69656.37692983 0 684.83704676 0 50448.42023096 0 -31.26064951 0 42689.68431780 0 592
0.02550000 0.02547300 74324.21807746 0 -458.92711084 0 41165.42112121 0 2900.28145478 0 45165.90494846 0 837
0.02650000 0.02652900 70745.19973424 0 1497.73305349 0 43608.14633708 0 5492.28309038 0 28384.59122989 0 723
0.02750000 0.02749970 67736.49073809 0 5960.04323048 0 50405.94094665 0 -9556.82967121 0 35240.06006359 0 826
0.02850000 0.02848090 64692.51173565 0 2697.85601928 0 47146.68181144 0 4490.04926055 0 17472.62802435 0 831
0.02950000 0.02946900 61421.60684365 0 1109.06756620 0 55082.87687577 0 9743.31705670 0 24920.69951099 0 996
0.03050000 0.03053250 59236.97378076 0 779.51039480 0 41397.55987333 0 2614.98259568 0 17101.07292659 0 1041
0.03150000 0.03150510 59912.53858688 0 712.92550304 0 41795.62293180 0 11522.97724542 0 14605.55361324 0 1036
0.03250000 0.03246190 57697.18290844 0 450.62756817 0 38281.93173861 0 2669.55128466 0 21632.93599963 0 1059
0.03350000 0.03345080 56119.79287846 0 2475.13369336 0 31162.71424148 0 1619.80276711 0 9030.13091053 0 1302
0.03450000 0.03451200 52201.05117272 0 128.31405749 0 30341.07837156 0 7348.81636515 0 18274.29973977 0 1339
0.03550000 0.03553350 53192.16053201 0 -1345.92784086 0 20547.77329022 0 8561.94930495 0 9074.12968882 0 1365
0.03650000 0.03647120 55480.49628637 0 -1546.31249613 0 17448.67103894 0 7047.64600322 0 12101.38316627 0 1308
0.03750000 0.03744890 53248.61472448 0 2302.76540159 0 14594.35150432 0 -653.86377017 0 8191.95806596 0 1579
0.03850000 0.03847530 51335.27233894 0 3767.15831705 0 16874.25794900 0 -5640.83858231 0 8040.78505155 0 1662
0.03950000 0.03950240 45511.17390946 0 2062.01988063 0 23069.02418049 0 -3557.52360354 0 5901.14897468 0 1683
0.04050000 0.04050350 45894.48567599 0 921.31467514 0 21025.36023081 0 3130.80089215 0 2876.18028381 0 1822
0.04150000 0.04152450 45469.80374484 0 -1098.96348578 0 26035.25389232 0 2921.13290504 0 5613.27695789 0 1887
0.04250000 0.04250150 45629.40606893 0 26.25175406 0 13236.78899786 0 2318.63690442 0 -2662.29764186 0 1920
0.04350000 0.04349210 45199.51127521 0 667.57914431 0 23923.82272929 0 -1039.12869648 0 7783.84638305 0 2005
0.04450000 0.04448520 45357.11718385 0 971.73525646 0 20336.81872426 0 -170.77337765 0 3902.91456770 0 2151
0.04550000 0.04548030 44093.94076341 0 787.90088529 0 23542.50737821 0 3375.59469999 0 7755.49728365 0 2274
0.04650000 0.04648670 43471.05914280 0 700.38912313 0 20368.87228344 0 -1462.49632079 0 2052.84746075 0 2311
0.04750000 0.04749250 41962.32362194 0 1727.58701905 0 25453.63152435 0 -829.71691602 0 6412.85243708 0 2568
0.04850000 0.04851840 40594.77903822 0 1328.43702328 0 26252.86317644 0 1116.53970558 0 7205.82865409 0 2493
0.04950000 0.04949480 39822.38808275 0 -565.35712764 0 23062.36946232 0 5171.95823132 0 6853.66096859 0 2644
0.05050000 0.05050630 39260.50804535 0 -152.94095120 0 20602.67471511 0 2987.51371878 0 7311.54994340 0 2829
0.05150000 0.05149060 39352.45406805 0 1025.95013627 0 18245.01897983 0 3411.87400521 0 4585.85501979 0 2784
0.05250000 0.05249300 36939.12052409 0 1370.56138929 0 17037.63128004 0 -1783.86375236 0 6049.43827788 0 3055
0.05350000 0.05348950 35078.35041208 0 1623.44067971 0 14640.49088362 0 -670.01033468 0 1642.29571452 0 3009
0.05450000 0.05448610 34424.08070411 0 -426.58407142 0 16459.22535919 0 2460.78168451 0 4126.23581825 0 3336
0.05550000 0.05550870 33909.00551783 0 -738.82344791 0 9392.33612927 0 3095.07614678 0 -2695.98160699 0 3349
0.05650000 0.05647670 35159.20523784 0 154.96620376 0 10234.60162552 0 1798.63722670 0 -226.66968291 0 3324
0.05750000 0.05747970 34055.74205346 0 967.88106552 0 7461.65820290 0 -2532.29772243 0 -4794.41388720 0 3639
0.05850000 0.05849280 33206.37819116 0 690.04769109 0 10203.60173005 0 485.18662874 0 -638.52797215 0 3846
0.05950000 0.05951020 31555.56443739 0 379.06938370 0 8918.62001641 0 378.70115596 0 -4022.78822432 0 3787
0.06050000 0.06049470 32850.90532897 0 327.48200845 0 9423.12529200 0 -1152.19790377 0 -3157.64158877 0 3930
0.06150000 0.06148310 31634.75558360 0 545.09240170 0 10094.04288659 0 471.13408221 0 -4071.98877398 0 4083
0.06250000 0.06249100 30589.07753532 0 661.22610670 0 10669.82019377 0 -238.36978657 0 -1880.73426651 0 4303
0.06350000 0.06350600 30488.81311491 0 379.94004266 0 11728.71894881 0 -12.02252476 0 -2492.79087890 0 4470
0.06450000 0.06451750 30031.96671261 0 360.38958980 0 11600.28288815 0 217.40076962 0 -2668.35343539 0 4479
0.06550000 0.06550280 29274.88160893 0 144.50276856 0 10927.93452914 0 1564.67951827 0 -1673.52852512 0 4636
0.06650000 0.06648880 29834.65431890 0 395.19820230 0 11831.64525649 0 -609.02538826 0 841.10868441 0 4653
0.06750000 0.06749660 29892.99401485 0 -119.69397923 0 11664.05727060 0 1136.27094495 0 908.50101530 0 5220
0.06850000 0.06852730 29770.87993645 0 -131.51608605 0 11793.71336292 0 278.16611034 0 1144.05696521 0 5029
0.06950000 0.06949320 29732.17165910 0 129.03720354 0 12947.30875751 0 57.53724785 0 875.62227107 0 5040
0.07050000 0.07048030 29702.00360340 0 360.22322184 0 12206.41680137 0 -309.14825990 0 651.73758771 0 5475
0.07150000 0.07148790 29938.46792234 0 604.00218517 0 15813.05222499 0 -1125.41266314 0 2777.08043908 0 5509
0.07250000 0.07249820 29083.89119748 0 353.00285263 0 14674.09721038 0 -413.45874896 0 1313.33081303 0 5916
0.07350000 0.07351270 29048.73210315 0 372.65534450 0 15563.16755775 0 1096.44467495 0 1227.04130078 0 5721
0.07450000 0.07449140 28317.04584048 0 708.70308436 0 15227.10429021 0 -465.21471039 0 -176.77038784 0 6028
0.07550000 0.07549160 27188.18381509 0 691.22779445 0 15168.09912245 0 893.92163691 0 2039.58238920 0 6183
0.07650000 0.07648840 26700.72570921 0 530.68937334 0 15901.22724073 0 849.35609846 0 832.56846276 0 6330
0.07750000 0.07749960 25086.06925749 0 572.69617266 0 13867.87810421 0 754.73820641 0 922.67667412 0 6583
0.07850000 0.07848650 24866.13082201 0 565.74642865 0 13542.01873787 0 579.74906480 0 -630.19182852 0 6549
0.07950000 0.07947320 24055.58614903 0 218.22706379 0 11805.35911972 0 1085.30134938 0 -316.32537344 0 6828
0.08050000 0.08048110 23638.88987969 0 47.32846653 0 10596.34101398 0 1412.25319861 0 -2764.65829850 0 7147
0.08150000 0.08149960 22987.72570686 0 443.43049047 0 8670.24375196 0 140.69626977 0 -2015.21502951 0 7386
0.08250000 0.08250610 22512.91156550 0 320.55222860 0 7469.69932069 0 482.85304090 0 -4105.63946552 0 7227
0.08350000 0.08350160 21721.44375128 0 66.76523462 0 7062.36402157 0 697.63850628 0 -3326.76015983 0 7798
0.08450000 0.08449610 21772.01960936 0 270.84148388 0 6735.30680596 0 723.46768574 0 -2998.86001325 0 7371
0.08550000 0.08548940 21367.41274469 0 111.14821198 0 5455.07212462 0 1086.30953918 0 -3521.48830465 0 8256
0.08650000 0.08650700 21429.96709548 0 -45.47257654 0 4702.24604056 0 1063.21433977 0 -1945.48467429 0 8037
0.08750000 0.08749060 20843.90824873 0 359.96701519 0 5569.91037782 0 -6.59282929 0 -1426.11719480 0 8155
0.08850000 0.08849210 20362.10665330 0 522.78578639 0 4897.89475473 0 -230.86548272 0 -361.13824559 0 8718
0.08950000 0.08949900 20138.95177070 0 266.49373467 0 6389.76056504 0 174.57100349 0 418.96996472 0 8571
0.09050000 0.09049190 19761.62925053 0 137.85914159 0 6502.20311970 0 -366.54520410 0 -301.15483426 0 8932
0.09150000 0.09150830 19544.46361428 0 268.02321073 0 6081.60274903 0 -188.46383678 0 -482.66227231 0 9285
0.09250000 0.09250820 19672.23420312 0 187.96916940 0 7142.94156740 0 295.79778613 0 -336.03443042 0 9204
0.09350000 0.09350330 19116.67614799 0 -201.89416717 0 5503.93993837 0 667.75771258 0 -642.64613357 0 9349
0.09450000 0.09448040 19294.46803507 0 161.55437475 0 6410.24600580 0 660.21015306 0 -616.93784817 0 9564
0.09550000 0.09549270 19151.28068247 0 142.69379434 0 3632.16735900 0 852.12002474 0 -809.83927285 0 10155
0.09650000 0.09649430 18446.10238050 0 211.52576260 0 4490.14908132 0 790.72803139 0 212.48071466 0 9913
0.09750000 0.09749140 18289.05103171 0 344.99389931 0 3704.71487824 0 68.58696372 0 751.40530173 0 10476
0.09850000 0.09850240 17890.98797324 0 -65.07515803 0 3842.98883059 0 1024.25207401 0 359.28490658 0 10575
0.09950000 0.09950330 17552.59555435 0 346.22613129 0 3318.36412374 0 53.11829316 0 1462.20794967 0 10882
0.10050000 0.10051200 17564.01948721 0 218.39454087 0 2988.52301770 0 89.80763993 0 991.94341730 0 10875
0.10150000 0.10150300 17194.34989292 0 132.69618941 0 3803.39325748 0 -487.57234520 0 944.68715447 0 11118
0.10250000 0.10250800 17008.46143207 0 572.31019901 0 4095.94575939 0 -750.72097488 0 1063.89201191 0 11575
0.10350000 0.10349800 16559.71160354 0 191.40965869 0 4124.59432111 0 -430.50037307 0 788.50646464 0 11364
0.10450000 0.10450100 16377.92688556 0 36.89109564 0 5019.52082046 0 211.41041415 0 -4.75227843 0 12093
0.10550000 0.10551000 16521.77970998 0 128.30740278 0 5145.37263223 0 -36.29682931 0 459.53490844 0 12067
0.10650000 0.10649700 15982.85845027 0 394.43290971 0 5166.77864234 0 -82.60790034 0 1041.23047830 0 12054
0.10750000 0.10749900 15695.48553734 0 242.87503077 0 5267.98581450 0 -93.41139164 0 73.74780857 0 12807
0.10850000 0.10850100 15677.40688631 0 93.57232491 0 5825.45155551 0 -114.57761007 0 1177.21964408 0 12736
0.10950000 0.10950300 15473.21795050 0 215.34113435 0 5539.24321826 0 209.55485690 0 208.52226646 0 12933
0.11050000 0.11050200 15241.96649413 0 100.88397467 0 6045.02398149 0 12.81587807 0 762.30683921 0 13428
0.11150000 0.11150900 15101.10829288 0 41.06726403 0 5229.11116919 0 172.41598392 0 537.33078207 0 13453
0.11250000 0.11250000 15374.50629766 0 -67.06735883 0 5554.08323978 0 161.46453605 0 302.37930240 0 13668
0.11350000 0.11349100 15140.70386599 0 171.11942300 0 5424.63788019 0 -234.12629462 0 26.41579286 0 13791
0.11450000 0.11448600 15065.83828659 0 210.73717850 0 5687.92071335 0 -211.82189756 0 -712.52732907 0 14205
0.11550000 0.11549300 14508.61655191 0 407.23658747 0 6201.79805036 0 -404.91298171 0 -984.70641129 0 14776
0.11650000 0.11649800 14476.34116879 0 212.14243315 0 6169.27866090 0 -94.76784503 0 -766.06342762 0 14553
0.11750000 0.11747300 13862.44341771 0 85.57690285 0 5769.25246057 0 583.71749507 0 -408.76717265 0 14568
0.11850000 0.11849100 14019.05111861 0 -21.25871901 0 5650.87611554 0 593.57867827 0 -388.47804607 0 16015
0.11950000 0.11950300 13850.79766091 0 151.15748673 0 5421.22179153 0 531.30271653 0 -425.72561278 0 15270
0.12050000 0.12050700 13811.53482371 0 -49.63122084 0 4781.00463009 0 902.66926395 0 986.20705024 0 15999
0.12150000 0.12150000 13662.91278461 0 32.82961023 0 4511.71036819 0 363.97315553 0 753.17323852 0 15670
0.12250000 0.12250700 13883.84942782 0 155.21686481 0 3958.38164364 0 309.12385926 0 906.41476116 0 16887
0.12350000 0.12352200 13237.67629361 0 163.09383288 0 4087.88245921 0 488.12468681 0 1212.70038312 0 16407
0.12450000 0.12449800 13050.90053700 0 310.54796895 0 4076.96872141 0 -843.69182418 0 1570.74640300 0 16306
0.12550000 0.12549900 12939.65583161 0 218.44001478 0 4454.75707186 0 -117.20511463 0 399.42394834 0 17523
0.12650000 0.12650100 12666.25782684 0 328.53012656 0 5236.81955107 0 -596.60324768 0 1034.39386450 0 17154
0.12750000 0.12750600 12238.58127252 0 139.47845634 0 4923.41559891 0 -361.01513331 0 151.78303024 0 18007
0.12850000 0.12850300 12562.22239947 0 -148.65753094 0 5212.47437377 0 725.03598098 0 236.53530260 0 17496
0.12950000 0.12949900 12578.97010686 0 -150.55967121 0 4182.62346354 0 591.89614370 0 -347.26204909 0 18405
0.13050000 0.13049000 12754.10010667 0 -5.55898555 0 4300.44524872 0 248.37293710 0 338.31367139 0 18100
0.13150000 0.13148800 12494.01153823 0 19.36378802 0 3806.96462290 0 488.68590138 0 480.72907669 0 19059
0.13250000 0.13249300 12588.28671229 0 35.95255856 0 3327.05962215 0 164.97268165 0 -22.45379549 0 18957
0.13350000 0.13349100 12388.09060738 0 286.33699513 0 3381.35103121 0 -162.01576854 0 248.70789125 0 19468
0.13450000 0.13450700 11954.53571867 0 278.01527006 0 3548.27354528 0 -297.06661906 0 -5.26090963 0 19953
0.13550000 0.13551000 11667.71736559 0 270.59193195 0 3690.80651726 0 -45.17577611 0 216.20735683 0 19956
0.13650000 0.13649900 11598.95194451 0 64.67465491 0 3831.15452345 0 -119.78159968 0 -232.33284807 0 19723
0.13750000 0.13749600 11363.59674527 0 3.92972199 0 4117.59577583 0 333.08971763 0 -105.39875730 0 20946
0.13850000 0.13851100 11527.08098829 0 -109.74406644 0 3287.44186665 0 604.32826636 0 290.77680127 0 20955
0.13950000 0.13949800 11693.78167842 0 -160.54618495 0 3296.33700660 0 244.72615154 0 -283.51761287 0 20506
0.14050000 0.14048300 11838.41088662 0 -38.19896959 0 2931.82481890 0 169.07975188 0 759.60391451 0 21447
0.14150000 0.14148400 11758.88700451 0 284.14648374 0 3347.41196855 0 -169.61545669 0 1.74393544 0 21771
0.14250000 0.14249400 11427.37112772 0 250.11425502 0 3350.63950686 0 -296.96125269 0 702.60514428 0 22470
0.14350000 0.14350900 11228.39505447 0 69.89927414 0 3318.49721811 0 302.63772729 0 103.97087661 0 22519
0.14450000 0.14449900 11173.71545352 0 216.70202421 0 3497.53131924 0 -68.08530888 0 385.80063113 0 22218
0.14550000 0.14550500 10790.24841023 0 249.79150119 0 3395.45903373 0 -89.66922179 0 155.73038723 0 23559
0.14650000 0.14650700 10549.87998997 0 183.08238802 0 3510.43038129 0 -2.76380428 0 108.80308929 0 23044
0.14750000 0.14750500 10284.81147410 0 87.56522173 0 3381.79467909 0 84.30696080 0 261.33965545 0 23649
0.14850000 0.14849900 10190.93558313 0 73.16496617 0 3165.30560586 0 307.97592038 0 -411.33922122 0 23640
0.14950000 0.14949500 10183.38247801 0 60.18394018 0 3355.15362402 0 102.25273929 0 410.71035035 0 24457
0.15050000 0.15050000 10081.67620200 0 -36.82554667 0 2717.55398506 0 383.16647185 0 -343.45111382 0 24591
0.15150000 0.15149900 10054.75786700 0 -5.22226790 0 2785.93121424 0 154.21200237 0 -138.97602512 0 25020
0.15250000 0.15250500 10108.08434193 0 54.02322392 0 2244.60316479 0 -1.22610964 0 -416.01637897 0 25297
0.15350000 0.15350100 9883.38778296 0 213.63752650 0 2290.44308178 0 20.64105026 0 -107.15737749 0 25452
0.15450000 0.15450400 9716.06598579 0 148.65642182 0 2527.77251408 0 -164.65436429 0 -4.76716282 0 26061
0.15550000 0.15549900 9516.05843123 0 121.13583483 0 2306.34785820 0 74.96107461 0 -507.45220661 0 26128
0.15650000 0.15649500 9281.03596789 0 224.59341084 0 2657.65043034 0 -34.65145024 0 -257.05068959 0 26331
0.15750000 0.15749700 9124.57245255 0 95.03292464 0 2537.14457550 0 -49.25667112 0 -759.19243111 0 27345
0.15850000 0.15849900 8985.59975478 0 152.92098704 0 2503.72679909 0 -104.05250782 0 -113.18455574 0 26980
0.15950000 0.15949700 8979.84342357 0 84.92662598 0 2508.24091625 0 -44.82828891 0 -787.41065438 0 27777
0.16050000 0.16050000 8787.65516285 0 -89.74430919 0 2519.48738996 0 432.95929143 0 -665.81342576 0 28224
0.16150000 0.16150500 8819.32053014 0 99.39753246 0 2141.26648282 0 102.57937504 0 -695.89829748 0 28075
0.16250000 0.16249700 8820.09691392 0 139.01373519 0 2236.72841496 0 -138.52461340 0 -846.49789700 0 28590
0.16350000 0.16349900 8609.53053986 0 90.52790226 0 2185.53144984 0 90.72288550 0 -654.85310494 0 29163
0.16450000 0.16449100 8250.07593797 0 186.71919150 0 1945.20739437 0 97.37793641 0 -635.21614074 0 28996
0.16550000 0.16550500 8293.09869093 0 70.01806086 0 2212.28341688 0 162.50378121 0 -284.45260077 0 30777
0.16650000 0.16650700 8139.21942447 0 100.41925352 0 1985.15788578 0 61.84784154 0 -726.22052082 0 29211
0.16750000 0.16749900 7998.33904083 0 134.93439295 0 2103.00185335 0 -13.68509518 0 -99.80968134 0 30922
0.16850000 0.16850800 7851.36959007 0 46.30519270 0 1913.37565913 0 174.56434877 0 -330.11394949 0 30867
0.16950000 0.16949900 8012.18085462 0 -160.66929723 0 1779.54927675 0 362.54682760 0 346.31707911 0 30852
0.17050000 0.17049200 8134.01765310 0 -41.02811210 0 1681.93565241 0 456.74769064 0 79.58854380 0 31257
0.17150000 0.17149500 8068.98996539 0 125.06655503 0 1569.02726748 0 -317.50436768 0 304.12394768 0 32608
0.17250000 0.17250900 8040.07521495 0 154.92960281 0 1849.49036471 0 -236.42217239 0 573.41377310 0 32361
0.17350000 0.17350400 7827.10205115 0 86.24082190 0 2178.91000527 0 -266.41165982 0 274.99513713 0 32508
0.17450000 0.17449800 7915.24379330 0 -23.35462250 0 2037.36414981 0 -11.90029977 0 337.11914948 0 32791
0.17550000 0.17549800 7997.66247782 0 24.10216918 0 2129.09943977 0 198.81081442 0 -226.83272351 0 33633
0.17650000 0.17650100 7963.73450635 0 37.09262269 0 2224.63901028 0 9.44031665 0 119.79380000 0 33984
0.17750000 0.17750300 7827.36823988 0 156.50566190 0 2050.03029673 0 -303.18785066 0 -279.68893168 0 34069
0.17850000 0.17849800 7737.23008228 0 100.64673397 0 2496.34006192 0 -150.79036811 0 135.66863019 0 34536
