### header ###
fiducial parameters:
Omega_m = 0.31
Omega_nu = 0
Omega_de = 0.69
Omega_k = 0
H_0 = 100
w_de = -1
zeff = 0
beta = 0
fgrowth = 0
b_1 = 2
gamma = 0.55
Lx = 3500 Ly = 3500 Lz = 3500
nx = 700 ny = 700 nz = 700
xoffset = 1379.75464 yoffset = 22.6059522 zoffset = 368.141391
bins = 400 dk = 0.001
kx_ny = 0.628318531 ky_ny = 0.628318531 kz_ny = 0.628318531
############################
A(data) = 3.31750153 (not used)
A(ran) = 3.3214683 (used)
Ngal = 186926
weighted Ngal = 0
Nran = 9399747
weighted Nran = 0
SN(data) = 6650.12015
SN(ran) = 132.112673
SN(data+ran) = 6782.23282
############################
13 columns: k_central k_mean P_0(k) sigma^{lin}_{P_0(k)} P^img_1(k) sigma^{lin}_{P_1(k)} P_2(k) sigma^{lin}_{P_2(k)} P^img_3(k) sigma^{lin}_{P_3(k)} P_4(k) sigma^{lin}_{P_4(k)} N_modes
### header ###
0.00050000 0 0 0 0 0 0 0 0 0 0 0 0
0.00150000 0.00179520 19295.68806673 0 -17450.33471849 0 -14484.88139044 0 913.37559636 0 -6053.85257426 0 3
0.00250000 0.00253879 46721.77805636 0 -22150.00760136 0 -28258.92796847 0 -15813.38496090 0 8423.19843113 0 6
0.00350000 0.00331552 63211.50420716 0 -22793.96249617 0 -50824.18998357 0 6160.61643609 0 25236.79862402 0 7
0.00450000 0.00420575 67626.13332846 0 -3146.67239498 0 -28829.23731555 0 -50343.60841980 0 -9363.97593867 0 24
0.00550000 0.00557378 57107.57487867 0 15210.57840676 0 -4370.65252540 0 -49061.02240471 0 -7342.30583254 0 45
0.00650000 0.00659388 42624.46807974 0 5861.54231038 0 7396.64160639 0 10190.17029054 0 -14538.89551958 0 40
0.00750000 0.00754703 34307.29040024 0 -1308.46177757 0 8307.73907090 0 8357.51636280 0 8044.54496732 0 57
0.00850000 0.00846663 48470.63799115 0 -7148.88644896 0 -1008.42382685 0 26538.90514574 0 2511.91210244 0 75
0.00950000 0.00948925 49218.51740137 0 -3479.78540413 0 3634.81815507 0 10588.61044971 0 22329.68499192 0 112
0.01050000 0.01054430 56970.59859636 0 -1326.49606381 0 -16584.99953259 0 10222.42349127 0 35760.23720046 0 105
0.01150000 0.01145670 52981.42779000 0 309.13827782 0 -6668.03869647 0 6506.69505446 0 38896.16222560 0 144
0.01250000 0.01249090 57363.00514439 0 -281.57554428 0 2796.02420347 0 4070.16981768 0 33161.01519564 0 169
0.01350000 0.01339930 55104.06106195 0 1637.06066956 0 21777.78703177 0 -5571.56296617 0 42579.65964407 0 180
0.01450000 0.01448870 55732.82101694 0 1813.33306266 0 12362.69176637 0 -6400.09756059 0 33981.54194587 0 267
0.01550000 0.01550050 52483.21122308 0 1305.47824559 0 34949.02705567 0 -10110.46894927 0 3003.68468393 0 238
0.01650000 0.01653350 59762.91834005 0 -2791.79845743 0 25427.78903546 0 5053.04950884 0 19085.39897259 0 315
0.01750000 0.01747870 67792.05763480 0 -2622.22514729 0 39028.25838125 0 10685.72497019 0 11433.36037408 0 297
0.01850000 0.01844180 63171.02133830 0 -503.79432986 0 23384.45782169 0 2584.60380724 0 18217.73463533 0 388
0.01950000 0.01947590 66131.92727559 0 2042.29973245 0 25121.67199969 0 -3886.89887931 0 -11072.96302044 0 399
0.02050000 0.02045430 67636.33722965 0 -2051.20596360 0 28701.24490276 0 7186.46342422 0 7681.06426093 0 462
0.02150000 0.02154770 68410.72460058 0 -5951.05936095 0 14409.90489907 0 7792.43096949 0 -4146.08906079 0 571
0.02250000 0.02255340 79419.95760335 0 618.60374595 0 8630.92545877 0 -377.49110637 0 -1201.78664532 0 510
0.02350000 0.02348930 77116.87055705 0 -519.68357861 0 14531.57532959 0 -11080.26102803 0 -17394.54599784 0 555
0.02450000 0.02439640 73832.10166887 0 4915.05283641 0 11873.90271686 0 -11340.63796759 0 -26649.81711522 0 592
0.02550000 0.02547300 72518.79303823 0 3797.03800163 0 23008.02259727 0 -10246.18083513 0 -26369.76439228 0 837
0.02650000 0.02652900 67508.56664081 0 75.38664383 0 30461.30694648 0 -259.25672866 0 -32183.76983254 0 723
0.02750000 0.02749970 66319.92306387 0 4663.18284491 0 41091.11010165 0 -5881.05172581 0 -32132.97215051 0 826
0.02850000 0.02848090 63426.78433992 0 4322.09526516 0 38138.85529798 0 -2134.40103191 0 -24345.06638938 0 831
0.02950000 0.02946900 56415.26236516 0 2822.04415151 0 39238.32565145 0 6079.01850014 0 -23924.04455322 0 996
0.03050000 0.03053250 56132.43684299 0 1833.38594674 0 44377.87540529 0 6331.15468036 0 -11601.28109587 0 1041
0.03150000 0.03150510 50810.99145920 0 1169.16743510 0 29366.16215981 0 9654.41002196 0 -14865.86400561 0 1036
0.03250000 0.03246190 50741.89330221 0 250.40373526 0 31476.92785103 0 9455.84432299 0 -655.60730633 0 1059
0.03350000 0.03345080 48685.03082816 0 524.96742483 0 21974.76668957 0 5908.87953895 0 1966.25848618 0 1302
0.03450000 0.03451200 48556.15111962 0 259.34434912 0 17458.32038029 0 4877.63113790 0 1760.92715708 0 1339
0.03550000 0.03553350 46708.91226790 0 816.40526144 0 13070.53195560 0 4624.69639150 0 5221.19205457 0 1365
0.03650000 0.03647120 44645.83872356 0 554.44006248 0 11732.37904380 0 1854.75868326 0 2105.18681915 0 1308
0.03750000 0.03744890 43818.10269531 0 866.77482326 0 7762.39600815 0 1063.06793597 0 1643.18301027 0 1579
0.03850000 0.03847530 41297.40636489 0 1554.16506357 0 11496.46928471 0 -2152.59059491 0 -328.29721143 0 1662
0.03950000 0.03950240 41964.98550920 0 1307.27501950 0 10528.06360557 0 -391.33846576 0 823.00230539 0 1683
0.04050000 0.04050350 38710.16285278 0 -589.99289430 0 9281.94544604 0 3429.30936681 0 666.37131297 0 1822
0.04150000 0.04152450 40084.02941875 0 1732.10113621 0 10929.39856714 0 -2731.68416997 0 -354.96266713 0 1887
0.04250000 0.04250150 39109.33503094 0 230.34863294 0 9873.93808316 0 2084.94538472 0 1097.78449154 0 1920
0.04350000 0.04349210 37800.68470302 0 -626.66704613 0 12735.91054367 0 1686.28340161 0 4095.56865869 0 2005
0.04450000 0.04448520 38771.71899584 0 -811.40424074 0 9446.71626791 0 1320.44027028 0 5170.11709263 0 2151
0.04550000 0.04548030 40692.15974743 0 745.71219033 0 12653.50295035 0 -1550.82661329 0 -1811.68047431 0 2274
0.04650000 0.04648670 39458.37499891 0 1266.33741156 0 11201.22162195 0 -2870.90087406 0 3347.30105658 0 2311
0.04750000 0.04749250 39058.31552498 0 -473.94126415 0 14896.47570919 0 263.02440827 0 2292.92750989 0 2568
0.04850000 0.04851840 39034.80218745 0 903.43899302 0 15866.95544216 0 177.69650279 0 575.62757601 0 2493
0.04950000 0.04949480 38375.31961691 0 1758.15435784 0 16074.13900115 0 -2703.62344169 0 -1201.63136857 0 2644
0.05050000 0.05050630 37394.85780669 0 124.68058137 0 17237.60556102 0 1550.37187421 0 176.35446796 0 2829
0.05150000 0.05149060 36255.45914420 0 -385.09412188 0 18129.55961960 0 396.57683808 0 2051.86034422 0 2784
0.05250000 0.05249300 36277.08697825 0 1330.30034436 0 17913.94675092 0 -608.33884317 0 -2061.27677043 0 3055
0.05350000 0.05348950 35427.27946807 0 652.66148442 0 16626.92425705 0 281.10971401 0 -1689.72167267 0 3009
0.05450000 0.05448610 35437.26154533 0 269.52939528 0 18636.09458422 0 1247.46019436 0 -2315.23190696 0 3336
0.05550000 0.05550870 33943.49914034 0 147.11585456 0 17674.59872078 0 736.15046945 0 -1029.51928344 0 3349
0.05650000 0.05647670 34478.09483324 0 29.96785959 0 14925.31282125 0 2193.88312115 0 -2498.87994603 0 3324
0.05750000 0.05747970 34283.55523877 0 -38.81985479 0 15423.19665226 0 775.35563242 0 -2288.08065683 0 3639
0.05850000 0.05849280 33783.89681626 0 93.92990510 0 12943.64866251 0 1213.34367254 0 -3134.57189911 0 3846
0.05950000 0.05951020 33648.14056561 0 995.37503364 0 14223.46187837 0 -349.15198905 0 -2099.23084639 0 3787
0.06050000 0.06049470 32570.51987012 0 1316.52507775 0 13734.78374083 0 -427.60889802 0 -1076.92305920 0 3930
0.06150000 0.06148310 31462.06564711 0 255.88611391 0 14487.09962983 0 839.88088890 0 451.83650864 0 4083
0.06250000 0.06249100 31280.61366504 0 25.96427023 0 13074.30296256 0 2208.29058598 0 -55.62523641 0 4303
0.06350000 0.06350600 30628.78402039 0 -80.98326181 0 14115.54453206 0 2026.71660074 0 2767.35345935 0 4470
0.06450000 0.06451750 30819.66351987 0 750.97496329 0 12194.99286851 0 1484.43470835 0 3253.79117511 0 4479
0.06550000 0.06550280 29786.51852415 0 406.18181464 0 12690.54754816 0 573.77756436 0 4213.50135584 0 4636
0.06650000 0.06648880 29082.44934187 0 653.85489721 0 10188.17387509 0 1459.49060642 0 5408.17854392 0 4653
0.06750000 0.06749660 28643.12703075 0 293.94888360 0 12151.73720041 0 1673.83907864 0 6733.52112325 0 5220
0.06850000 0.06852730 27783.89200318 0 257.68288782 0 10069.66443570 0 1049.82061034 0 6822.39488440 0 5029
0.06950000 0.06949320 27889.36928615 0 529.00683876 0 10899.28596743 0 608.44088219 0 7140.45713928 0 5040
0.07050000 0.07048030 26281.14572866 0 464.22093915 0 10361.14109150 0 555.36617743 0 6991.54672905 0 5475
0.07150000 0.07148790 26500.97325217 0 335.53421744 0 10339.75726378 0 -585.65069070 0 6638.58047737 0 5509
0.07250000 0.07249820 25984.01256242 0 323.21078851 0 11752.01046240 0 -1051.37670527 0 6245.00935367 0 5916
0.07350000 0.07351270 25676.01002317 0 489.45673956 0 12205.64041758 0 -755.76968773 0 4313.47740513 0 5721
0.07450000 0.07449140 25855.46558979 0 30.74989989 0 12318.32697857 0 -28.11341146 0 3407.29334087 0 6028
0.07550000 0.07549160 25579.96025759 0 185.95057156 0 12957.51265870 0 222.13338336 0 3375.33960246 0 6183
0.07650000 0.07648840 25808.21709079 0 126.30876909 0 11877.56281185 0 504.11819281 0 2986.39350788 0 6330
0.07750000 0.07749960 25550.12493780 0 126.60823140 0 13138.63190486 0 791.98022752 0 3654.39411768 0 6583
0.07850000 0.07848650 25509.42024500 0 248.71232773 0 11841.84915768 0 403.44117987 0 2846.83297669 0 6549
0.07950000 0.07947320 24724.49623698 0 146.76204538 0 11350.73095681 0 1449.53071156 0 3103.38345329 0 6828
0.08050000 0.08048110 24633.10477412 0 177.22069044 0 11231.05694174 0 307.21062779 0 2512.04519680 0 7147
0.08150000 0.08149960 24505.33418528 0 76.51007117 0 9307.99866768 0 624.32236710 0 2780.71835168 0 7386
0.08250000 0.08250610 24141.87566129 0 66.79506994 0 9460.82427042 0 1028.97803303 0 2050.95086607 0 7227
0.08350000 0.08350160 23806.81060148 0 550.89864330 0 8678.34032573 0 -329.76457678 0 1807.74309939 0 7798
0.08450000 0.08449610 22947.35374996 0 191.54386218 0 7966.11911370 0 1269.08802841 0 1117.68209887 0 7371
0.08550000 0.08548940 22824.35237581 0 102.38106444 0 7594.61947192 0 1268.63328933 0 1610.50834406 0 8256
0.08650000 0.08650700 22323.58483360 0 115.03013091 0 6254.19286474 0 875.04331059 0 1632.91256190 0 8037
0.08750000 0.08749060 22431.05853202 0 189.84358168 0 5732.49623389 0 1236.71282451 0 2092.89777293 0 8155
0.08850000 0.08849210 21760.15202863 0 317.88479573 0 6035.41900494 0 115.87860748 0 2786.48577409 0 8718
0.08950000 0.08949900 21205.25944531 0 442.92916837 0 4820.79984474 0 -390.79388799 0 2336.90410579 0 8571
0.09050000 0.09049190 20885.83297320 0 388.37046146 0 6037.22687004 0 -414.36157239 0 1891.75891628 0 8932
0.09150000 0.09150830 20203.83527285 0 340.55520230 0 5495.53281109 0 -23.81967639 0 1137.74607415 0 9285
0.09250000 0.09250820 19997.20627371 0 562.02976856 0 5681.21053920 0 -22.88723946 0 1217.64705696 0 9204
0.09350000 0.09350330 19603.13604614 0 201.83649294 0 5584.42875463 0 -191.38082158 0 1307.15301633 0 9349
0.09450000 0.09448040 18847.49279805 0 230.25990336 0 5767.01203879 0 731.94357844 0 667.92851702 0 9564
0.09550000 0.09549270 18815.55015084 0 50.94907686 0 5511.02721322 0 333.45129065 0 1255.37930898 0 10155
0.09650000 0.09649430 18588.62426128 0 84.45203366 0 5015.55017196 0 827.76264712 0 323.76313012 0 9913
0.09750000 0.09749140 18194.77585765 0 471.67533262 0 5494.43478259 0 -78.80628168 0 1617.77307806 0 10476
0.09850000 0.09850240 17863.70362875 0 402.64261369 0 4611.24276960 0 -296.09170285 0 832.02832146 0 10575
0.09950000 0.09950330 17074.56496588 0 263.85181156 0 4868.41435324 0 293.18580925 0 1354.92280159 0 10882
0.10050000 0.10051200 17164.40366116 0 152.47512093 0 4908.78631013 0 680.18539876 0 911.56773126 0 10875
0.10150000 0.10150300 16820.13290789 0 104.82512060 0 4043.27366508 0 153.61640509 0 782.83553564 0 11118
0.10250000 0.10250800 16610.50928557 0 340.47645480 0 4560.67800272 0 37.38676123 0 1534.54473617 0 11575
0.10350000 0.10349800 16046.63283272 0 293.15031742 0 4524.55397425 0 -652.46849759 0 317.98905298 0 11364
0.10450000 0.10450100 16000.93710129 0 245.74543254 0 4733.63412793 0 -158.94350699 0 50.73723500 0 12093
0.10550000 0.10551000 15519.35732980 0 338.93921490 0 5526.53270656 0 -1027.22451480 0 -477.90082146 0 12067
0.10650000 0.10649700 15393.02859656 0 439.91014456 0 6211.74685402 0 -1091.54014766 0 -460.56860799 0 12054
0.10750000 0.10749900 14957.58820437 0 181.32443331 0 6952.22843587 0 -184.78932323 0 -1065.05880583 0 12807
0.10850000 0.10850100 14872.18598787 0 20.85056297 0 6824.40239104 0 80.77031083 0 -1961.21199157 0 12736
0.10950000 0.10950300 15060.07086417 0 -126.98644122 0 6855.12500659 0 666.56319067 0 -1411.16626131 0 12933
0.11050000 0.11050200 14723.67486073 0 105.32200622 0 6449.83048771 0 436.53509333 0 -1110.65028000 0 13428
0.11150000 0.11150900 14857.10196002 0 390.03081364 0 6441.42336042 0 -85.62470591 0 -429.54874837 0 13453
0.11250000 0.11250000 14539.67190336 0 -121.92885541 0 5951.80247114 0 821.73458158 0 -987.95835024 0 13668
0.11350000 0.11349100 14376.40948429 0 216.71866101 0 6215.34040183 0 13.74132755 0 -701.41616796 0 13791
0.11450000 0.11448600 14094.58216983 0 106.59006277 0 5190.59144219 0 -43.57653643 0 -971.06867553 0 14205
0.11550000 0.11549300 14242.31691318 0 -83.11720811 0 5435.77344193 0 446.25209097 0 -602.30079556 0 14776
0.11650000 0.11649800 14010.17816106 0 116.94114414 0 4742.76218301 0 36.74069901 0 -1479.16638980 0 14553
0.11750000 0.11747300 14047.66640674 0 120.37165136 0 4846.26523294 0 234.73298309 0 -1426.54975148 0 14568
0.11850000 0.11849100 13825.95337975 0 177.30276529 0 4594.42851503 0 -31.81188200 0 -1565.50026685 0 16015
0.11950000 0.11950300 13626.42274665 0 -39.94394760 0 4372.44929931 0 421.89693159 0 -1244.74285111 0 15270
0.12050000 0.12050700 13708.16486816 0 109.26603586 0 4426.36360767 0 86.79527084 0 -2091.88847401 0 15999
0.12150000 0.12150000 13510.85247445 0 109.09223680 0 3772.08280850 0 127.91033793 0 -1765.31927107 0 15670
0.12250000 0.12250700 13474.58426043 0 -48.37891379 0 3909.41400911 0 410.13582635 0 -1219.18873334 0 16887
0.12350000 0.12352200 13248.65657859 0 86.32178764 0 3542.99413553 0 -32.09382023 0 -2265.70971258 0 16407
0.12450000 0.12449800 13372.87798441 0 205.32689262 0 3527.78810452 0 245.02561386 0 -1547.61016617 0 16306
0.12550000 0.12549900 12973.48398231 0 200.29038009 0 3365.09133648 0 -86.58442718 0 -1661.62767080 0 17523
0.12650000 0.12650100 12516.08302016 0 122.99028296 0 3411.79636683 0 492.42252563 0 -1183.88545345 0 17154
0.12750000 0.12750600 12499.44622474 0 272.48409015 0 3673.63734439 0 30.50977548 0 -1015.77507219 0 18007
0.12850000 0.12850300 12218.39529407 0 205.70842980 0 2834.67702483 0 30.24791232 0 -746.13698318 0 17496
0.12950000 0.12949900 11997.45865086 0 33.77824031 0 3662.65705941 0 558.20108737 0 -113.85224579 0 18405
0.13050000 0.13049000 11814.34298925 0 82.32296749 0 2859.52130599 0 58.47733770 0 -112.99378715 0 18100
0.13150000 0.13148800 11734.15363531 0 235.04575485 0 3480.30669038 0 153.43007298 0 460.45769602 0 19059
0.13250000 0.13249300 11826.65421786 0 109.62084325 0 3501.25796142 0 -54.41884691 0 552.69319896 0 18957
0.13350000 0.13349100 11344.74171046 0 -38.05034755 0 3103.35017970 0 290.84667581 0 693.02789571 0 19468
0.13450000 0.13450700 11599.95015224 0 32.59015129 0 3582.57861744 0 69.76629069 0 1084.29537781 0 19953
0.13550000 0.13551000 11536.39759372 0 84.04132664 0 2772.76596346 0 384.36432112 0 602.33517827 0 19956
0.13650000 0.13649900 11472.40138733 0 115.58136340 0 3665.79586814 0 -174.22939462 0 1115.08675878 0 19723
0.13750000 0.13749600 11126.24513058 0 255.03541911 0 3052.26412656 0 -307.98701158 0 606.14167706 0 20946
0.13850000 0.13851100 11159.18598552 0 171.42110355 0 3829.08046962 0 80.37546422 0 1059.59084573 0 20955
0.13950000 0.13949800 10816.09089912 0 10.98192648 0 3364.28167911 0 -215.32227931 0 672.71991410 0 20506
0.14050000 0.14048300 10808.58215878 0 156.67646633 0 3859.18197813 0 297.03001811 0 716.27615363 0 21447
0.14150000 0.14148400 10708.92775421 0 109.24451893 0 3639.73155532 0 -202.06164424 0 578.70427405 0 21771
0.14250000 0.14249400 10483.82082094 0 171.75494858 0 3524.09473593 0 208.03869028 0 529.20648031 0 22470
0.14350000 0.14350900 10553.93936805 0 31.33862063 0 3930.54273930 0 224.22185574 0 903.54657763 0 22519
0.14450000 0.14449900 10210.88864644 0 9.25797737 0 3348.80945936 0 140.28700460 0 664.41371670 0 22218
0.14550000 0.14550500 10306.55022012 0 101.47735371 0 3246.10497562 0 560.21635785 0 907.32867579 0 23559
0.14650000 0.14650700 10262.03015557 0 -22.39323755 0 2749.25262593 0 258.62785780 0 868.98862618 0 23044
0.14750000 0.14750500 10262.78435696 0 10.92415243 0 2803.45530542 0 238.67590361 0 1419.44029424 0 23649
0.14850000 0.14849900 10147.94610376 0 129.96664584 0 2285.87350863 0 141.60796616 0 853.68831998 0 23640
0.14950000 0.14949500 9954.65981454 0 58.82415943 0 2478.87142673 0 -151.84735918 0 1033.79493987 0 24457
0.15050000 0.15050000 9851.23440300 0 150.39995798 0 2313.32422108 0 229.93493129 0 689.27907114 0 24591
0.15150000 0.15149900 9747.13242845 0 199.07700314 0 2635.73422517 0 -324.09919338 0 758.02452807 0 25020
0.15250000 0.15250500 9450.44291008 0 236.76156301 0 2620.99402443 0 -172.98385320 0 645.26032869 0 25297
0.15350000 0.15350100 9159.16589583 0 136.62247313 0 2605.18906877 0 -10.94184289 0 800.62137907 0 25452
0.15450000 0.15450400 9040.65645644 0 94.26962846 0 2881.41532877 0 252.50884444 0 766.58693211 0 26061
0.15550000 0.15549900 9231.80214464 0 -72.70978345 0 2600.19803015 0 489.72958301 0 913.23251992 0 26128
0.15650000 0.15649500 9108.68985852 0 -123.45278587 0 2385.41700125 0 289.52460514 0 745.88521301 0 26331
0.15750000 0.15749700 9227.08838594 0 49.64319933 0 2062.62989646 0 -130.67537332 0 872.12854403 0 27345
0.15850000 0.15849900 9113.00433413 0 168.00945137 0 2250.38167840 0 -464.11002718 0 666.35578529 0 26980
0.15950000 0.15949700 9202.12210161 0 31.36657044 0 2553.06044312 0 -56.51297581 0 276.48246664 0 27777
0.16050000 0.16050000 9032.24932915 0 15.71711337 0 2471.62887512 0 -22.83222713 0 320.74854279 0 28224
0.16150000 0.16150500 9083.12464955 0 -23.79771582 0 2369.02421216 0 149.83097957 0 -257.91802119 0 28075
0.16250000 0.16249700 9187.14898573 0 -0.13622541 0 2071.56940120 0 33.33004504 0 -246.37319429 0 28590
0.16350000 0.16349900 8949.76409744 0 142.70044906 0 2186.72929911 0 162.32632206 0 -347.72566112 0 29163
0.16450000 0.16449100 8886.38899808 0 127.07849815 0 1981.23160206 0 -130.10084932 0 -280.48860698 0 28996
0.16550000 0.16550500 8676.94283491 0 169.31488525 0 1976.44020498 0 -164.55454352 0 -573.38715423 0 30777
0.16650000 0.16650700 8587.17068681 0 47.41664155 0 2028.96811372 0 189.39660645 0 -591.28501875 0 29211
0.16750000 0.16749900 8538.52469700 0 14.55830511 0 1809.41787013 0 100.85657942 0 -719.26744945 0 30922
0.16850000 0.16850800 8502.05684143 0 173.52954009 0 1899.75566928 0 19.34326930 0 -894.25215458 0 30867
0.16950000 0.16949900 8169.96422241 0 183.04800531 0 1895.86265915 0 -345.06044650 0 -897.13475667 0 30852
0.17050000 0.17049200 8069.30051891 0 279.57691059 0 2147.32227636 0 -129.02167586 0 -784.61789099 0 31257
0.17150000 0.17149500 7657.77274734 0 90.51326188 0 2322.98465362 0 90.31461854 0 -397.80463358 0 32608
0.17250000 0.17250900 7733.15961300 0 -38.82384762 0 2209.65480321 0 526.13421875 0 -18.21962014 0 32361
0.17350000 0.17350400 7860.36455080 0 -92.33354912 0 1898.69091437 0 420.47171279 0 108.39493325 0 32508
0.17450000 0.17449800 7884.95373443 0 -60.71010656 0 1790.57392652 0 366.99550670 0 129.28675547 0 32791
0.17550000 0.17549800 8006.24706426 0 86.07578489 0 1632.41345804 0 -148.15509971 0 665.70916851 0 33633
0.17650000 0.17650100 7900.82523726 0 26.71758433 0 1620.06895583 0 -21.26692650 0 693.18317247 0 33984
0.17750000 0.17750300 7901.41307070 0 42.46009654 0 1852.30752873 0 -88.70905687 0 535.88448999 0 34069
0.17850000 0.17849800 7906.71466284 0 10.29208730 0 1568.67234917 0 253.22200841 0 384.01605754 0 34536
