### header ###
fiducial parameters:
Omega_m = 0.31
Omega_nu = 0
Omega_de = 0.69
Omega_k = 0
H_0 = 100
w_de = -1
zeff = 0
beta = 0
fgrowth = 0
b_1 = 2
gamma = 0.55
Lx = 3500 Ly = 3500 Lz = 3500
nx = 700 ny = 700 nz = 700
xoffset = 1379.75464 yoffset = 22.6059522 zoffset = 368.141391
bins = 400 dk = 0.001
kx_ny = 0.628318531 ky_ny = 0.628318531 kz_ny = 0.628318531
############################
A(data) = 3.35680234 (not used)
A(ran) = 3.36238281 (used)
Ngal = 189106
weighted Ngal = 0
Nran = 9399747
weighted Nran = 0
SN(data) = 6605.09002
SN(ran) = 133.740063
SN(data+ran) = 6738.83009
############################
13 columns: k_central k_mean P_0(k) sigma^{lin}_{P_0(k)} P^img_1(k) sigma^{lin}_{P_1(k)} P_2(k) sigma^{lin}_{P_2(k)} P^img_3(k) sigma^{lin}_{P_3(k)} P_4(k) sigma^{lin}_{P_4(k)} N_modes
### header ###
0.00050000 0 0 0 0 0 0 0 0 0 0 0 0
0.00150000 0.00179520 49905.28431641 0 -54309.15497667 0 -71998.06134151 0 88175.23756231 0 140312.51435257 0 3
0.00250000 0.00253879 67914.17171320 0 -39479.33736114 0 -20013.95398110 0 -76233.23489619 0 -77691.61638291 0 6
0.00350000 0.00331552 106797.68997428 0 -27880.71815253 0 -66510.46982744 0 -7768.91763196 0 37188.78336739 0 7
0.00450000 0.00420575 121341.02197264 0 -14369.97659006 0 -37448.87193583 0 -61188.58079577 0 -11767.53813813 0 24
0.00550000 0.00557378 116948.90798114 0 24257.66775743 0 2162.67249293 0 -76344.47960158 0 23678.59636476 0 45
0.00650000 0.00659388 94797.79126009 0 19626.31664776 0 10325.95981478 0 -11557.69269186 0 -38875.42168731 0 40
0.00750000 0.00754703 77369.30619959 0 13993.09771776 0 68855.70342214 0 -4640.16861124 0 28201.25374434 0 57
0.00850000 0.00846663 71581.47598413 0 -585.79598538 0 35204.67914532 0 22781.42944362 0 -16462.44180631 0 75
0.00950000 0.00948925 78809.16538741 0 4712.80486006 0 65718.66927730 0 16774.21535252 0 693.25637437 0 112
0.01050000 0.01054430 80292.05841939 0 -1551.22589638 0 52750.50906953 0 21870.73126220 0 -6839.87461079 0 105
0.01150000 0.01145670 72276.89403279 0 3043.86809047 0 59773.12224124 0 2200.09419144 0 15297.42247887 0 144
0.01250000 0.01249090 80323.55741872 0 4802.10008669 0 58853.77292620 0 11836.96903102 0 4413.58654879 0 169
0.01350000 0.01339930 78070.82440657 0 -6206.17907315 0 57172.23655688 0 16142.57168632 0 26903.14005352 0 180
0.01450000 0.01448870 82580.39417375 0 23.85195177 0 47349.42889166 0 17672.82412927 0 16387.46531494 0 267
0.01550000 0.01550050 81848.81882304 0 -2897.60847631 0 30815.44886503 0 12222.83177285 0 -7068.90782777 0 238
0.01650000 0.01653350 84633.37472886 0 2770.95809836 0 38149.72467098 0 -643.71088848 0 14230.67115639 0 315
0.01750000 0.01747870 83845.23427372 0 5563.05601811 0 41848.08429337 0 -758.37833725 0 4439.09630177 0 297
0.01850000 0.01844180 76314.42245785 0 4369.97596239 0 47855.85294431 0 -4305.84666163 0 5742.75559106 0 388
0.01950000 0.01947590 74078.43715309 0 3236.58872864 0 37389.09038428 0 849.31727927 0 -19417.35849725 0 399
0.02050000 0.02045430 71901.67884003 0 -1047.67890021 0 45690.18582820 0 9325.73349160 0 7400.72316687 0 462
0.02150000 0.02154770 76158.14749285 0 -2767.04290584 0 35386.13112740 0 15568.93498016 0 2705.30930363 0 571
0.02250000 0.02255340 78526.56168917 0 -461.74538399 0 27512.15767794 0 11863.80972764 0 10840.71335634 0 510
0.02350000 0.02348930 76611.11197621 0 1326.96189408 0 28720.21084954 0 5378.23231216 0 7331.03717644 0 555
0.02450000 0.02439640 79240.05838885 0 1857.72003284 0 25089.72935248 0 7654.74485057 0 22538.53223045 0 592
0.02550000 0.02547300 74003.46066172 0 2686.11044171 0 28998.59989294 0 4631.85021353 0 31905.93534898 0 837
0.02650000 0.02652900 69779.37830399 0 2355.93659976 0 16212.77896300 0 -26.29977894 0 18948.42269028 0 723
0.02750000 0.02749970 65552.19041111 0 2436.12595369 0 27906.11699354 0 5536.23750389 0 23273.21311630 0 826
0.02850000 0.02848090 61921.04344223 0 4071.75585884 0 21064.17942013 0 -8928.26935776 0 8772.48240542 0 831
0.02950000 0.02946900 59001.61858152 0 3710.02756157 0 34321.15439643 0 -1076.49715724 0 15588.78822270 0 996
0.03050000 0.03053250 54522.10595807 0 1463.70526126 0 28639.02328788 0 -2235.65256885 0 1773.31602407 0 1041
0.03150000 0.03150510 54178.72250056 0 -720.43091601 0 25037.82255077 0 6912.73268354 0 -4603.67857328 0 1036
0.03250000 0.03246190 53570.03761204 0 -187.15729378 0 23174.39055149 0 4849.81441596 0 -1576.79110534 0 1059
0.03350000 0.03345080 55820.66329677 0 -501.73691283 0 16806.49073564 0 4821.04385107 0 -3085.07188713 0 1302
0.03450000 0.03451200 51299.66959674 0 559.21149541 0 15913.31664540 0 1772.65055225 0 -4293.76834816 0 1339
0.03550000 0.03553350 51986.10377586 0 1995.47269894 0 12845.38065755 0 -715.25354528 0 -9041.73230254 0 1365
0.03650000 0.03647120 50023.18373997 0 2030.19923658 0 16254.92551141 0 -3845.90581539 0 -6050.05938491 0 1308
0.03750000 0.03744890 45276.15144613 0 2316.91776889 0 12092.39929674 0 -683.46284746 0 -6081.79129938 0 1579
0.03850000 0.03847530 45551.65677832 0 -1337.75362871 0 16508.13753773 0 6041.90735515 0 -910.44752037 0 1662
0.03950000 0.03950240 45332.49472662 0 -1170.30982839 0 7343.70332336 0 5676.35259493 0 -9797.00954112 0 1683
0.04050000 0.04050350 46851.76688459 0 1271.94955722 0 6058.89906888 0 702.88020596 0 -5204.36670880 0 1822
0.04150000 0.04152450 42543.72416596 0 3071.08588778 0 9697.77660203 0 -7226.05899733 0 -7666.22423941 0 1887
0.04250000 0.04250150 40724.87877842 0 3147.94788263 0 10817.28874839 0 -4926.15512455 0 -9207.15750502 0 1920
0.04350000 0.04349210 36865.14224044 0 813.97074371 0 15395.69048383 0 -952.83142039 0 -8503.95343611 0 2005
0.04450000 0.04448520 37228.60076443 0 -706.59908430 0 12976.47860548 0 3292.85437076 0 -9012.45154260 0 2151
0.04550000 0.04548030 37751.99434842 0 -411.05195922 0 12032.50683322 0 4568.75239409 0 -7464.74155565 0 2274
0.04650000 0.04648670 38569.63738744 0 141.31959504 0 9402.44020969 0 581.80093624 0 -6077.95374523 0 2311
0.04750000 0.04749250 37077.53866200 0 1004.21471761 0 11880.44652306 0 -553.00153424 0 -5325.10547878 0 2568
0.04850000 0.04851840 36119.14833370 0 1198.82529574 0 12741.23431821 0 -1970.27349947 0 -2032.58384393 0 2493
0.04950000 0.04949480 34705.13163477 0 837.51402748 0 13958.82591919 0 -907.52388085 0 -2339.14452758 0 2644
0.05050000 0.05050630 34799.96136868 0 -190.84622589 0 14344.91048495 0 1002.97915827 0 -1928.79242289 0 2829
0.05150000 0.05149060 34773.12067207 0 -260.90598965 0 14136.50689430 0 2783.50224211 0 -3150.85377623 0 2784
0.05250000 0.05249300 35007.58857555 0 477.15438391 0 12567.21343809 0 449.93436836 0 -613.05925659 0 3055
0.05350000 0.05348950 35081.34503526 0 279.80649837 0 11993.46581996 0 2224.31736557 0 -716.65879993 0 3009
0.05450000 0.05448610 34666.64518136 0 177.87063458 0 12651.50653490 0 98.21055256 0 1966.16975660 0 3336
0.05550000 0.05550870 33460.25568931 0 1029.73667090 0 12381.87953709 0 -392.19914265 0 478.40214357 0 3349
0.05650000 0.05647670 32687.97564580 0 1139.52066566 0 14317.73705243 0 -1212.82238629 0 1606.16059486 0 3324
0.05750000 0.05747970 30727.49567323 0 1591.86404199 0 14041.56624842 0 -30.95020691 0 3100.16700618 0 3639
0.05850000 0.05849280 30439.67911243 0 -287.36403997 0 14725.89310012 0 3887.32034479 0 4710.96372136 0 3846
0.05950000 0.05951020 31192.99320915 0 -1968.49890796 0 11170.49900640 0 4469.33090465 0 6040.75387067 0 3787
0.06050000 0.06049470 32715.92546211 0 -621.85457577 0 10763.94009107 0 2483.58518543 0 3541.56337113 0 3930
0.06150000 0.06148310 32904.14307432 0 715.72824851 0 7698.21125141 0 -1763.93287145 0 7006.73057768 0 4083
0.06250000 0.06249100 31603.47840820 0 1225.53289799 0 11479.72157732 0 -2617.21192627 0 4379.10401748 0 4303
0.06350000 0.06350600 31794.02517177 0 -66.20712559 0 11428.14751151 0 -72.91973981 0 5869.99380245 0 4470
0.06450000 0.06451750 31067.21903576 0 -264.38529813 0 14020.60388619 0 2016.62361152 0 3121.93902579 0 4479
0.06550000 0.06550280 32103.24774269 0 434.17045014 0 10857.90471161 0 -353.72932603 0 3162.06697635 0 4636
0.06650000 0.06648880 30961.40901687 0 502.99576368 0 12610.24728225 0 -578.17300571 0 2402.59726532 0 4653
0.06750000 0.06749660 30594.62313379 0 1060.22082572 0 12635.75703523 0 -1549.91713514 0 1532.09358164 0 5220
0.06850000 0.06852730 29219.20380025 0 922.26740896 0 16024.89408670 0 -1795.65369472 0 1565.24516932 0 5029
0.06950000 0.06949320 28350.20851935 0 892.65391310 0 13220.92858622 0 702.03838411 0 -1881.04482002 0 5040
0.07050000 0.07048030 27991.18647414 0 6.31927601 0 16335.00395337 0 421.77492843 0 1049.91932199 0 5475
0.07150000 0.07148790 27575.37750055 0 282.46173092 0 12995.77728817 0 2241.88582154 0 -2071.74686035 0 5509
0.07250000 0.07249820 26604.34320773 0 828.88618537 0 13133.19721836 0 1464.82547215 0 675.01911923 0 5916
0.07350000 0.07351270 25717.49109975 0 318.65008832 0 12385.42872011 0 548.08813399 0 2999.78058260 0 5721
0.07450000 0.07449140 25280.27611605 0 113.56720203 0 12066.88954376 0 1278.88155531 0 -102.30076417 0 6028
0.07550000 0.07549160 25421.68887714 0 530.90343344 0 11915.05105754 0 479.66875826 0 2098.13281789 0 6183
0.07650000 0.07648840 23708.65350849 0 495.69997433 0 10786.06702898 0 -444.62723062 0 423.64157687 0 6330
0.07750000 0.07749960 24232.71256429 0 81.15084980 0 11536.61941766 0 943.42719449 0 3883.56042903 0 6583
0.07850000 0.07848650 24279.62832738 0 -550.47717781 0 10587.23514129 0 1153.01865234 0 -842.94871398 0 6549
0.07950000 0.07947320 24503.89232968 0 389.16791852 0 10617.83575367 0 -771.27518106 0 2018.35383824 0 6828
0.08050000 0.08048110 23766.43864459 0 539.72426237 0 9412.93248200 0 -198.42927724 0 -12.56388608 0 7147
0.08150000 0.08149960 23432.37179251 0 331.47151199 0 10951.12622196 0 -114.43897011 0 293.16695421 0 7386
0.08250000 0.08250610 23038.96703676 0 -30.66605044 0 10447.98516360 0 509.66600952 0 -1570.28057273 0 7227
0.08350000 0.08350160 22554.39264209 0 346.49786562 0 9609.12466482 0 917.26749737 0 -1417.32187562 0 7798
0.08450000 0.08449610 22666.63555520 0 29.60850481 0 7546.61677152 0 1349.04446721 0 -792.19983322 0 7371
0.08550000 0.08548940 22340.55436493 0 26.99863526 0 7724.80794170 0 1109.49679552 0 -1182.07758835 0 8256
0.08650000 0.08650700 22080.13306058 0 232.44043268 0 6007.42482384 0 1073.98389201 0 -94.97070302 0 8037
0.08750000 0.08749060 21456.03140831 0 468.45444902 0 5235.16696273 0 40.65189870 0 -704.67697987 0 8155
0.08850000 0.08849210 20750.18763452 0 409.78645365 0 5729.34633395 0 128.35398580 0 -124.23804262 0 8718
0.08950000 0.08949900 20215.92467753 0 343.59197202 0 5224.89651435 0 185.99937282 0 -1137.71280055 0 8571
0.09050000 0.09049190 19579.62270861 0 261.46387686 0 6491.21174352 0 182.08307118 0 -280.51078938 0 8932
0.09150000 0.09150830 19390.29597670 0 529.35732059 0 5179.08987096 0 -374.77376312 0 -1275.26582511 0 9285
0.09250000 0.09250820 18826.75225976 0 328.79964265 0 6090.54225377 0 -836.18752032 0 -1048.94884226 0 9204
0.09350000 0.09350330 18361.03289990 0 494.43225052 0 6553.57754396 0 467.59820862 0 -803.39639654 0 9349
0.09450000 0.09448040 18027.85334358 0 162.50710857 0 6862.62265573 0 -472.38184186 0 -1139.04374419 0 9564
0.09550000 0.09549270 17973.28465459 0 224.40375137 0 6805.63608581 0 855.00262682 0 654.16877808 0 10155
0.09650000 0.09649430 17592.08021548 0 -19.93875567 0 7523.18107237 0 269.33973581 0 -41.83776948 0 9913
0.09750000 0.09749140 17907.84659260 0 75.26308790 0 6168.67973627 0 523.27601730 0 1888.22082445 0 10476
0.09850000 0.09850240 17575.99797991 0 350.44300437 0 7642.76635787 0 30.35316778 0 1361.62188455 0 10575
0.09950000 0.09950330 17397.76244495 0 304.66076161 0 7389.03304528 0 -265.80718958 0 2554.29156598 0 10882
0.10050000 0.10051200 16862.27945629 0 -166.62859735 0 7334.87473059 0 1475.00719095 0 2634.45873752 0 10875
0.10150000 0.10150300 17522.09476274 0 -232.31066568 0 6624.46138366 0 795.32755076 0 2769.53842515 0 11118
0.10250000 0.10250800 17171.28020327 0 209.46279997 0 6126.89919736 0 845.09707883 0 2942.48345917 0 11575
0.10350000 0.10349800 16770.00069768 0 631.38080483 0 5642.83499776 0 10.01937695 0 3037.04700435 0 11364
0.10450000 0.10450100 15815.15955241 0 453.48576962 0 5800.15253527 0 -14.08171638 0 4233.88697583 0 12093
0.10550000 0.10551000 15712.56598064 0 53.68394420 0 5655.10186158 0 715.98778251 0 3592.70488026 0 12067
0.10650000 0.10649700 15589.01004664 0 -100.35215178 0 5245.42631990 0 878.60247569 0 4000.12890895 0 12054
0.10750000 0.10749900 15521.02100934 0 -137.53416952 0 4350.00071668 0 87.32831376 0 2765.60105024 0 12807
0.10850000 0.10850100 15863.07352323 0 195.40470783 0 4432.49703958 0 -501.80456913 0 2582.90685411 0 12736
0.10950000 0.10950300 15625.50008459 0 124.28018916 0 4569.85042259 0 -365.12664001 0 1610.05360499 0 12933
0.11050000 0.11050200 15408.66718426 0 322.39114905 0 5180.11026108 0 -992.39150166 0 664.88065610 0 13428
0.11150000 0.11150900 15032.12104787 0 475.15575022 0 5586.23661973 0 -992.73089229 0 943.16544225 0 13453
0.11250000 0.11250000 14841.35246036 0 135.71188586 0 5956.82678336 0 363.36757618 0 -825.48784262 0 13668
0.11350000 0.11349100 14466.91365138 0 -56.64485014 0 6310.10358856 0 139.21448585 0 660.47966915 0 13791
0.11450000 0.11448600 14657.79315086 0 166.74616404 0 6288.27611296 0 148.15177236 0 -611.13160657 0 14205
0.11550000 0.11549300 14201.05766053 0 231.48880799 0 6062.22642796 0 -28.61961369 0 417.41054243 0 14776
0.11650000 0.11649800 14401.25376545 0 154.08445360 0 6832.85388312 0 -197.02402259 0 86.43425238 0 14553
0.11750000 0.11747300 14139.50151747 0 0.91208236 0 6334.13821234 0 288.29015492 0 -151.75086577 0 14568
0.11850000 0.11849100 14160.24205577 0 74.80313596 0 6552.83443377 0 -100.99765944 0 65.59001139 0 16015
0.11950000 0.11950300 14341.02856602 0 85.51335029 0 6630.33971804 0 -179.92361513 0 -879.02172293 0 15270
0.12050000 0.12050700 14168.00589363 0 86.50878522 0 6652.57756792 0 283.53535878 0 -172.03111939 0 15999
0.12150000 0.12150000 13907.47367732 0 174.34585219 0 6728.98482370 0 -164.31941015 0 -1069.53632203 0 15670
0.12250000 0.12250700 13885.95675524 0 173.43193756 0 6565.37857752 0 -21.59167675 0 -657.55713875 0 16887
0.12350000 0.12352200 13630.52648952 0 103.41598402 0 6325.60908189 0 527.09582553 0 -1454.92103327 0 16407
0.12450000 0.12449800 13579.50698356 0 81.08130799 0 6055.42752423 0 121.95547428 0 -509.33660097 0 16306
0.12550000 0.12549900 13291.35768684 0 121.91000038 0 5532.15594341 0 630.74860661 0 -1147.02940599 0 17523
0.12650000 0.12650100 13063.76632546 0 32.88539895 0 5039.68461652 0 474.75757625 0 -180.59685079 0 17154
0.12750000 0.12750600 12892.29642064 0 95.13385453 0 4514.28352588 0 795.56712062 0 -767.08714509 0 18007
0.12850000 0.12850300 12763.63853605 0 64.78201770 0 4030.28587345 0 339.23534986 0 -202.14039174 0 17496
0.12950000 0.12949900 12734.80142398 0 53.99194674 0 3585.50669344 0 262.73603715 0 -310.38492836 0 18405
0.13050000 0.13049000 12491.34965097 0 125.79746491 0 3620.52160220 0 319.32665134 0 -177.99374686 0 18100
0.13150000 0.13148800 12328.97452764 0 139.44518275 0 3382.01650303 0 36.41772336 0 86.52209466 0 19059
0.13250000 0.13249300 12194.54922063 0 127.29477649 0 3478.09954219 0 59.65599920 0 -332.52517570 0 18957
0.13350000 0.13349100 11950.21015186 0 192.49548687 0 3186.71161597 0 -257.62077711 0 -270.87697571 0 19468
0.13450000 0.13450700 11753.34140603 0 124.11382121 0 3743.03496369 0 -351.76618417 0 -697.68952579 0 19953
0.13550000 0.13551000 11773.19464857 0 113.98644928 0 3378.94424147 0 226.27372718 0 -1188.03356111 0 19956
0.13650000 0.13649900 11585.75342014 0 -107.89216929 0 3343.99587989 0 102.38982648 0 -430.02899720 0 19723
0.13750000 0.13749600 11663.50271075 0 8.27785939 0 2662.67474256 0 318.45488326 0 -1624.09506033 0 20946
0.13850000 0.13851100 11728.38621290 0 97.33512439 0 3008.76445213 0 75.87266008 0 -985.49277716 0 20955
0.13950000 0.13949800 11492.03280593 0 151.75197488 0 2568.76557800 0 69.57241657 0 -1689.75494626 0 20506
0.14050000 0.14048300 11391.99020946 0 94.29524913 0 2678.52406300 0 353.94671349 0 -815.68987924 0 21447
0.14150000 0.14148400 11234.82794870 0 45.74564181 0 2444.30016584 0 287.83763408 0 -539.68987966 0 21771
0.14250000 0.14249400 11022.90844861 0 73.08111672 0 2012.93024294 0 449.82456551 0 -227.11665815 0 22470
0.14350000 0.14350900 11186.69215395 0 69.38220254 0 2214.16892036 0 411.53886276 0 273.13181605 0 22519
0.14450000 0.14449900 11047.79709456 0 50.86755656 0 1805.72450155 0 330.41341181 0 457.37101591 0 22218
0.14550000 0.14550500 10786.47740327 0 140.10954545 0 2160.08824404 0 -30.23704294 0 1286.42356924 0 23559
0.14650000 0.14650700 10647.09433122 0 289.35490982 0 2083.00442525 0 -556.52964399 0 777.74356712 0 23044
0.14750000 0.14750500 10494.51273480 0 256.41738225 0 3045.37649326 0 -327.06608857 0 1211.82417856 0 23649
0.14850000 0.14849900 10022.51575747 0 288.08829513 0 3175.24331832 0 -521.72214061 0 649.95301412 0 23640
0.14950000 0.14949500 9916.87210654 0 255.38146445 0 3706.06800426 0 -239.69518461 0 864.19833821 0 24457
0.15050000 0.15050000 9626.50457044 0 -48.62757843 0 3521.16665994 0 308.65026515 0 267.61505468 0 24591
0.15150000 0.15149900 9864.48838336 0 60.21111361 0 3902.61510538 0 -37.89074522 0 310.87737750 0 25020
0.15250000 0.15250500 9598.33293019 0 122.34477530 0 3430.50721609 0 -75.15339596 0 -302.63994553 0 25297
0.15350000 0.15350100 9507.04128811 0 22.09577165 0 3615.03145971 0 92.31646868 0 134.83235394 0 25452
0.15450000 0.15450400 9464.62855098 0 86.42648854 0 3302.53698570 0 237.98935852 0 -190.29055692 0 26061
0.15550000 0.15549900 9445.48514505 0 -25.88075352 0 2960.77284293 0 416.84267314 0 20.68474957 0 26128
0.15650000 0.15649500 9434.84868717 0 25.38708434 0 2636.89880085 0 214.02571839 0 -72.02423657 0 26331
0.15750000 0.15749700 9332.11092984 0 63.92344814 0 2604.59014414 0 162.38399628 0 51.75429776 0 27345
0.15850000 0.15849900 9119.15994843 0 69.71050197 0 2595.73936897 0 87.77196164 0 235.51602160 0 26980
0.15950000 0.15949700 9189.53359307 0 87.66670618 0 2391.77225710 0 -19.26618548 0 219.55578919 0 27777
0.16050000 0.16050000 9111.36283698 0 -31.62721357 0 2391.72789231 0 124.09829353 0 -1.48569910 0 28224
0.16150000 0.16150500 9257.83318388 0 -67.81424003 0 2174.27388494 0 437.29040384 0 95.51638991 0 28075
0.16250000 0.16249700 9090.20083320 0 78.91819185 0 1828.72764402 0 34.28621713 0 299.00425117 0 28590
0.16350000 0.16349900 9081.35005804 0 177.36265776 0 1988.26342092 0 -59.12206898 0 107.45107239 0 29163
0.16450000 0.16449100 8908.28302086 0 253.72000315 0 2384.71825584 0 -366.66609815 0 -223.51312826 0 28996
0.16550000 0.16550500 8402.43571044 0 372.43795704 0 2427.03117219 0 -510.59545183 0 -372.03978307 0 30777
0.16650000 0.16650700 8185.84681644 0 214.11001149 0 2869.89157514 0 -143.55890770 0 -150.81365962 0 29211
0.16750000 0.16749900 7833.64585735 0 -3.16007056 0 2637.95246456 0 297.71989056 0 -471.09082654 0 30922
0.16850000 0.16850800 8175.55418567 0 -14.73199326 0 2727.97971019 0 288.80478645 0 -238.48402590 0 30867
0.16950000 0.16949900 8039.45410792 0 -27.38837992 0 2117.25404143 0 403.37241445 0 -99.07954784 0 30852
0.17050000 0.17049200 8124.03557585 0 -105.41506136 0 2197.14393305 0 284.71989862 0 335.53310832 0 31257
0.17150000 0.17149500 8193.84356944 0 -94.61123733 0 1837.96661108 0 336.26069084 0 443.99725063 0 32608
0.17250000 0.17250900 8325.47389482 0 12.32697811 0 1504.15485653 0 309.00518346 0 679.35355899 0 32361
0.17350000 0.17350400 8313.09611903 0 88.30611369 0 1725.41314445 0 -61.07633788 0 669.70089029 0 32508
0.17450000 0.17449800 8271.92559595 0 93.07111372 0 1505.43034418 0 -149.57588204 0 783.67403013 0 32791
0.17550000 0.17549800 8030.53678557 0 57.04457688 0 1770.88705193 0 74.02664126 0 761.39736106 0 33633
0.17650000 0.17650100 7963.72341516 0 164.72978443 0 1727.39846870 0 -135.17063545 0 620.59350668 0 33984
0.17750000 0.17750300 7987.21457029 0 70.98443685 0 1599.77206542 0 40.63060360 0 459.02027690 0 34069
0.17850000 0.17849800 7775.02888148 0 78.48818615 0 1788.72169663 0 -56.53238540 0 439.46982404 0 34536
