### header ###
fiducial parameters:
Omega_m = 0.31
Omega_nu = 0
Omega_de = 0.69
Omega_k = 0
H_0 = 100
w_de = -1
zeff = 0
beta = 0
fgrowth = 0
b_1 = 2
gamma = 0.55
Lx = 3500 Ly = 3500 Lz = 3500
nx = 700 ny = 700 nz = 700
xoffset = 1379.75464 yoffset = 22.6059522 zoffset = 368.141391
bins = 400 dk = 0.001
kx_ny = 0.628318531 ky_ny = 0.628318531 kz_ny = 0.628318531
############################
A(data) = 3.36441903 (not used)
A(ran) = 3.36656814 (used)
Ngal = 188972
weighted Ngal = 0
Nran = 9399747
weighted Nran = 0
SN(data) = 6642.52359
SN(ran) = 133.906537
SN(data+ran) = 6776.43012
############################
13 columns: k_central k_mean P_0(k) sigma^{lin}_{P_0(k)} P^img_1(k) sigma^{lin}_{P_1(k)} P_2(k) sigma^{lin}_{P_2(k)} P^img_3(k) sigma^{lin}_{P_3(k)} P_4(k) sigma^{lin}_{P_4(k)} N_modes
### header ###
0.00050000 0 0 0 0 0 0 0 0 0 0 0 0
0.00150000 0.00179520 51681.53950766 0 -54802.15868102 0 -103360.52804003 0 122304.84698744 0 46622.29001973 0 3
0.00250000 0.00253879 88265.96355335 0 -55199.66717964 0 -41934.37380563 0 -68201.87736204 0 15487.74741850 0 6
0.00350000 0.00331552 117524.54110276 0 -29691.57787827 0 -93185.02031185 0 -68764.64469519 0 -81097.16840586 0 7
0.00450000 0.00420575 139607.11422667 0 -10149.08849705 0 -79808.70405639 0 -83668.99515422 0 -9631.37360590 0 24
0.00550000 0.00557378 117415.84737266 0 12987.01524258 0 -49503.89389885 0 -78950.02358865 0 -1935.94624492 0 45
0.00650000 0.00659388 109610.63934429 0 20649.36865426 0 -11270.20886697 0 -50240.12755227 0 -45461.59625910 0 40
0.00750000 0.00754703 96084.81375396 0 1480.14241513 0 -15238.52822307 0 -9854.43975892 0 -41294.52265368 0 57
0.00850000 0.00846663 83738.20422317 0 5887.75080877 0 25934.76764797 0 -19816.53067542 0 -43966.50291048 0 75
0.00950000 0.00948925 85081.79182148 0 7628.74708493 0 -282.12344941 0 -4617.34292792 0 -32462.04796397 0 112
0.01050000 0.01054430 65541.09921416 0 5039.38515420 0 41608.84717520 0 -6724.53725372 0 -29439.91861951 0 105
0.01150000 0.01145670 74560.23874852 0 3633.03247236 0 36576.77111979 0 -9971.13024201 0 -18845.82911851 0 144
0.01250000 0.01249090 63878.97243950 0 -1909.09445711 0 36881.77903586 0 17208.99027289 0 -12789.81376084 0 169
0.01350000 0.01339930 72700.79958015 0 5590.10744746 0 29248.92820807 0 -2721.72427511 0 -13867.54536830 0 180
0.01450000 0.01448870 65573.70733319 0 3624.44788592 0 44253.98673538 0 6403.60237883 0 -3338.74974373 0 267
0.01550000 0.01550050 65846.77260206 0 -1038.20036330 0 42919.27209463 0 12822.64370381 0 5291.55460801 0 238
0.01650000 0.01653350 68930.79082548 0 -3627.66433304 0 33931.96429551 0 12593.94322274 0 14177.54432300 0 315
0.01750000 0.01747870 70429.43335712 0 -5171.02657078 0 24358.15400178 0 16404.54575824 0 12981.80238002 0 297
0.01850000 0.01844180 77619.30177881 0 -3344.14006545 0 5486.47130318 0 9044.98202325 0 6303.88142707 0 388
0.01950000 0.01947590 72429.06525492 0 6466.45619193 0 26575.61700764 0 -4164.28971498 0 12164.38116493 0 399
0.02050000 0.02045430 66304.28447617 0 9545.03972885 0 15947.25570806 0 -15883.37041364 0 10397.55349108 0 462
0.02150000 0.02154770 56790.36664595 0 4176.41239325 0 33013.16954032 0 2798.39771961 0 5940.24544392 0 571
0.02250000 0.02255340 56728.47776698 0 -210.15821801 0 23410.96578240 0 6665.68736272 0 11991.46940451 0 510
0.02350000 0.02348930 54948.00792088 0 -5908.54680304 0 22150.11851333 0 19475.80910517 0 13567.30666691 0 555
0.02450000 0.02439640 66355.30398213 0 -6454.15605452 0 6128.39650895 0 11641.32031685 0 12645.40637658 0 592
0.02550000 0.02547300 69952.95553623 0 -72.83810860 0 2274.46066698 0 2202.14606287 0 7752.79103160 0 837
0.02650000 0.02652900 70607.44706814 0 1762.23591832 0 8784.66053967 0 -4033.59105014 0 12047.92359698 0 723
0.02750000 0.02749970 62387.31736194 0 2904.36301526 0 12900.28208245 0 -8639.69859556 0 22267.35246507 0 826
0.02850000 0.02848090 62789.37325131 0 5104.23538275 0 19359.57336115 0 -4794.22533685 0 10438.73510535 0 831
0.02950000 0.02946900 59044.76333765 0 3902.42655504 0 24817.88411528 0 -2632.83942277 0 8570.22333788 0 996
0.03050000 0.03053250 54398.21728816 0 1426.77157542 0 35708.55222268 0 2751.89233081 0 12600.93067681 0 1041
0.03150000 0.03150510 53465.66944875 0 636.02690724 0 36986.25811112 0 56.41382051 0 11586.86253984 0 1036
0.03250000 0.03246190 53246.39648509 0 2632.66196361 0 34741.06711289 0 1798.17139643 0 14030.25322753 0 1059
0.03350000 0.03345080 51026.71523984 0 591.28723699 0 34399.12551097 0 3687.56788775 0 6322.98046821 0 1302
0.03450000 0.03451200 49744.01831278 0 671.42778965 0 34398.23821522 0 2100.43978686 0 19733.56852225 0 1339
0.03550000 0.03553350 49132.67153699 0 1569.57073613 0 31451.19627411 0 5089.48409081 0 3021.08677194 0 1365
0.03650000 0.03647120 47448.80601631 0 949.22345402 0 34919.74629572 0 1096.98814360 0 15542.09428354 0 1308
0.03750000 0.03744890 44100.92821749 0 1884.66055023 0 27322.94185801 0 3110.68146089 0 4529.09027381 0 1579
0.03850000 0.03847530 44547.68163057 0 245.13319847 0 27497.40638600 0 4671.27941868 0 11054.08580323 0 1662
0.03950000 0.03950240 41656.09567420 0 -554.29698604 0 20630.62453142 0 1270.84043752 0 1739.27714063 0 1683
0.04050000 0.04050350 43047.48633135 0 2089.06021879 0 21681.84817817 0 1499.77383373 0 2037.55270016 0 1822
0.04150000 0.04152450 39894.70268685 0 -607.62013361 0 18646.07666147 0 -87.04748466 0 84.89934163 0 1887
0.04250000 0.04250150 41480.74385044 0 -448.18528660 0 14935.62763442 0 603.25352937 0 -10524.40351058 0 1920
0.04350000 0.04349210 40513.36965262 0 1018.50794311 0 16212.55713906 0 428.95426021 0 -7593.01124836 0 2005
0.04450000 0.04448520 38895.71857772 0 761.47389032 0 10137.43164905 0 -965.30790783 0 -13030.60364659 0 2151
0.04550000 0.04548030 39945.05672099 0 -786.39580986 0 14139.27969353 0 2753.68910471 0 -5352.82237995 0 2274
0.04650000 0.04648670 38850.46649417 0 -184.40445870 0 12395.29988539 0 1760.19513808 0 -9284.84024845 0 2311
0.04750000 0.04749250 40436.84039368 0 751.09585733 0 8382.05009045 0 1753.76224385 0 -3960.24496473 0 2568
0.04850000 0.04851840 38545.90222597 0 -21.89136089 0 11167.50438323 0 77.27702744 0 -4038.57099757 0 2493
0.04950000 0.04949480 39748.40979910 0 445.85502612 0 9990.47328949 0 3148.23625375 0 655.59954249 0 2644
0.05050000 0.05050630 38025.72508910 0 277.06697272 0 12232.59202616 0 1204.09361429 0 1892.72385041 0 2829
0.05150000 0.05149060 38162.81228338 0 1437.13075337 0 13958.38227131 0 -1337.36543682 0 5510.10664388 0 2784
0.05250000 0.05249300 36692.45230396 0 788.32124165 0 11656.62616864 0 401.11313763 0 6437.68562705 0 3055
0.05350000 0.05348950 36641.76553390 0 626.98203612 0 13937.75264498 0 -572.89359597 0 4395.04206749 0 3009
0.05450000 0.05448610 35216.21399015 0 620.91626051 0 14203.49772386 0 1715.98562704 0 8147.89274048 0 3336
0.05550000 0.05550870 33671.87572708 0 312.09519093 0 14544.21929411 0 2707.86027892 0 7507.56466707 0 3349
0.05650000 0.05647670 34792.41935476 0 572.61298868 0 14143.27252443 0 181.51409278 0 7681.85173591 0 3324
0.05750000 0.05747970 32958.82267528 0 380.97817869 0 14721.78935725 0 -294.05646821 0 5073.35749045 0 3639
0.05850000 0.05849280 33432.63860891 0 646.34615688 0 14745.08087085 0 -1902.45083013 0 4243.43649641 0 3846
0.05950000 0.05951020 32584.27295434 0 586.66997170 0 15004.39305549 0 -2446.44076685 0 953.09428175 0 3787
0.06050000 0.06049470 33138.50006584 0 10.06883260 0 15694.48732961 0 -1120.77654281 0 -2247.93052387 0 3930
0.06150000 0.06148310 32417.57226420 0 -332.11923790 0 17325.00419297 0 828.43477365 0 -1746.37550668 0 4083
0.06250000 0.06249100 32864.65841319 0 -38.29745941 0 14257.17911709 0 838.70189467 0 -5865.64605325 0 4303
0.06350000 0.06350600 33147.04028749 0 -8.12252717 0 14327.60821771 0 2763.26080768 0 -1458.73640502 0 4470
0.06450000 0.06451750 32581.94380298 0 69.95284462 0 11541.72136826 0 2227.47835670 0 -3118.43420755 0 4479
0.06550000 0.06550280 32783.13811562 0 121.53844528 0 12207.52592106 0 2134.73376782 0 1523.32044485 0 4636
0.06650000 0.06648880 31920.79755289 0 1330.07852042 0 11561.57461080 0 -1078.69765071 0 -1349.23301755 0 4653
0.06750000 0.06749660 30444.78106302 0 1084.97083171 0 12685.00194968 0 -344.63454453 0 2716.02339988 0 5220
0.06850000 0.06852730 29097.31154578 0 192.50325071 0 12495.12065793 0 1365.14888518 0 2887.00529203 0 5029
0.06950000 0.06949320 29415.96163411 0 -294.39807708 0 11828.87245725 0 1554.69744102 0 3488.90236802 0 5040
0.07050000 0.07048030 30108.38505958 0 16.87381430 0 11926.47499039 0 2177.43487607 0 3650.64529311 0 5475
0.07150000 0.07148790 28865.39461760 0 515.58538134 0 9110.09844053 0 459.36964960 0 3089.46400112 0 5509
0.07250000 0.07249820 28217.55780385 0 764.77241229 0 9826.12393311 0 1244.04410570 0 5877.38053962 0 5916
0.07350000 0.07351270 27322.49821013 0 772.05821957 0 8845.69539648 0 -118.91315896 0 4215.39795052 0 5721
0.07450000 0.07449140 26398.93424025 0 138.00998187 0 8921.12662692 0 1523.49790400 0 6557.59255726 0 6028
0.07550000 0.07549160 25490.23247428 0 304.45113799 0 7352.07717705 0 1457.81583568 0 4732.55828182 0 6183
0.07650000 0.07648840 25570.97638807 0 469.07333781 0 7003.48085697 0 -502.94141681 0 5190.63580698 0 6330
0.07750000 0.07749960 24329.64962562 0 317.25148839 0 5515.38605362 0 1133.87524641 0 3614.66545021 0 6583
0.07850000 0.07848650 24373.68167751 0 448.47809420 0 7066.36794367 0 -470.32775219 0 4207.60083907 0 6549
0.07950000 0.07947320 22877.92285707 0 501.00267559 0 5804.69992602 0 -673.60166426 0 1426.35010994 0 6828
0.08050000 0.08048110 22854.63134348 0 631.17672681 0 7449.02532958 0 -761.68573218 0 849.21302202 0 7147
0.08150000 0.08149960 22313.15910846 0 151.38485627 0 7508.28559487 0 -256.87544868 0 2097.68917001 0 7386
0.08250000 0.08250610 22383.47729712 0 56.91103887 0 7454.95911994 0 808.08686373 0 761.60920292 0 7227
0.08350000 0.08350160 22498.60392144 0 -92.75324001 0 7145.65891065 0 694.82577874 0 1554.44234349 0 7798
0.08450000 0.08449610 21975.54307336 0 451.78216177 0 7114.07118174 0 833.32931887 0 1984.80296748 0 7371
0.08550000 0.08548940 21765.36489119 0 419.13633267 0 7437.44611996 0 -305.30848751 0 2367.40489740 0 8256
0.08650000 0.08650700 21017.15274506 0 738.13024810 0 8498.17492250 0 -809.54313789 0 3922.88981340 0 8037
0.08750000 0.08749060 20403.14408201 0 468.68070944 0 9066.12184463 0 -478.48865490 0 2047.57914220 0 8155
0.08850000 0.08849210 20143.49916145 0 -9.17086711 0 8765.82768726 0 109.41809617 0 2627.67092499 0 8718
0.08950000 0.08949900 20151.48482326 0 -305.79428194 0 9011.75279719 0 651.52020025 0 1360.64585921 0 8571
0.09050000 0.09049190 20511.17234029 0 -204.74571390 0 8030.92497747 0 513.63222155 0 1176.85363459 0 8932
0.09150000 0.09150830 21029.68579762 0 221.03535486 0 7796.53471236 0 -83.38217680 0 -9.19178511 0 9285
0.09250000 0.09250820 20398.81851520 0 199.52952398 0 8143.36753213 0 -673.77468693 0 -497.35478091 0 9204
0.09350000 0.09350330 19921.12066264 0 467.76014009 0 7672.79022801 0 -245.14096231 0 -140.51326502 0 9349
0.09450000 0.09448040 19769.50400036 0 279.14324479 0 8112.52291341 0 606.67960011 0 -1356.46447796 0 9564
0.09550000 0.09549270 19456.17768657 0 5.39728699 0 7734.35746227 0 316.80229491 0 -808.20997602 0 10155
0.09650000 0.09649430 19430.33519768 0 100.43256296 0 7175.12822094 0 799.36696469 0 -1099.48033555 0 9913
0.09750000 0.09749140 18949.08816210 0 371.28890904 0 6784.80681794 0 108.30165628 0 -221.07971965 0 10476
0.09850000 0.09850240 18207.53073414 0 297.87738556 0 7272.07637347 0 -63.35258423 0 -880.98264655 0 10575
0.09950000 0.09950330 18080.09288121 0 307.37034103 0 7144.44997018 0 572.66622643 0 346.76959995 0 10882
0.10050000 0.10051200 17785.06704238 0 193.65118960 0 6416.40162011 0 653.62420031 0 346.73188988 0 10875
0.10150000 0.10150300 17485.93746069 0 363.09916921 0 6247.07231630 0 171.51759697 0 262.05725589 0 11118
0.10250000 0.10250800 17175.49485811 0 89.64349021 0 6029.98431843 0 347.55152933 0 1037.53378236 0 11575
0.10350000 0.10349800 17021.21630856 0 92.21343146 0 6118.35897571 0 570.56999021 0 981.39347077 0 11364
0.10450000 0.10450100 16624.37328175 0 30.23238464 0 4998.17026634 0 853.82917819 0 1932.91834815 0 12093
0.10550000 0.10551000 16625.26057751 0 339.21649482 0 5522.60642284 0 947.38342444 0 2484.86067308 0 12067
0.10650000 0.10649700 16305.94501737 0 247.82281373 0 4531.13105405 0 208.37253531 0 3106.44462365 0 12054
0.10750000 0.10749900 15642.13688002 0 273.42240541 0 4576.26113443 0 374.89687541 0 2900.63637308 0 12807
0.10850000 0.10850100 15277.68014830 0 310.16421354 0 5126.96124530 0 -32.00054326 0 3800.67591423 0 12736
0.10950000 0.10950300 15110.64672226 0 165.17121407 0 4500.59698885 0 81.23170462 0 3026.85419435 0 12933
0.11050000 0.11050200 15078.70407505 0 99.20576566 0 5361.17405126 0 141.11773525 0 3246.23806999 0 13428
0.11150000 0.11150900 14913.66706446 0 -69.43954403 0 4092.10820524 0 410.77246105 0 2727.78006864 0 13453
0.11250000 0.11250000 14974.66864767 0 -92.58531929 0 4900.52336841 0 -220.03492890 0 2495.68568130 0 13668
0.11350000 0.11349100 15114.75046513 0 93.98868844 0 3904.26769373 0 190.88393596 0 2465.53980800 0 13791
0.11450000 0.11448600 15285.11125025 0 -5.79464021 0 5217.13267649 0 -116.45424060 0 2128.81106865 0 14205
0.11550000 0.11549300 15146.36037643 0 122.06416801 0 4458.02897496 0 -331.55802333 0 1831.14552495 0 14776
0.11650000 0.11649800 14824.16110509 0 405.21244402 0 5192.05548019 0 -408.30910621 0 1560.29849548 0 14553
0.11750000 0.11747300 14488.43057346 0 336.39711256 0 5866.85499372 0 -712.58500329 0 1748.19446298 0 14568
0.11850000 0.11849100 14347.12872434 0 112.19411185 0 5817.06661062 0 316.09467655 0 1429.82165458 0 16015
0.11950000 0.11950300 14328.16277756 0 -46.89834991 0 6119.30172746 0 866.96337361 0 1835.12726466 0 15270
0.12050000 0.12050700 14138.05966187 0 104.77986851 0 5040.01735242 0 127.74175173 0 1350.88560590 0 15999
0.12150000 0.12150000 14284.57437355 0 88.97324918 0 5596.89526000 0 -101.44053094 0 1130.93607922 0 15670
0.12250000 0.12250700 14039.12618509 0 0.87505440 0 5321.32338062 0 -205.16496115 0 782.31535850 0 16887
0.12350000 0.12352200 13995.09413321 0 109.13172146 0 5025.57661400 0 -589.50709988 0 164.07429469 0 16407
0.12450000 0.12449800 14154.36372138 0 -79.13935032 0 5047.90319345 0 227.17100501 0 -523.74739317 0 16306
0.12550000 0.12549900 14120.86830660 0 -85.02544854 0 4269.55626522 0 468.67627296 0 -1637.65959419 0 17523
0.12650000 0.12650100 13954.38944041 0 132.44663748 0 4333.48592443 0 245.69108568 0 -1459.44624163 0 17154
0.12750000 0.12750600 13851.35222076 0 183.12564369 0 3114.18627912 0 288.86578804 0 -1161.70305955 0 18007
0.12850000 0.12850300 13493.66111918 0 92.60262156 0 3740.05143171 0 415.44740057 0 -1933.70582313 0 17496
0.12950000 0.12949900 13630.74831346 0 -4.65890164 0 2788.10508884 0 115.77878670 0 -2114.01541192 0 18405
0.13050000 0.13049000 13143.40111955 0 218.67514815 0 2991.07399300 0 -94.93998040 0 -1953.00450582 0 18100
0.13150000 0.13148800 12951.52341235 0 263.49134766 0 2791.45463032 0 -560.31396039 0 -1488.10589454 0 19059
0.13250000 0.13249300 12727.81396990 0 205.17272499 0 3158.78398205 0 -8.94656983 0 -2695.28286158 0 18957
0.13350000 0.13349100 12781.60627510 0 114.31142135 0 3471.21190889 0 25.23258397 0 -2618.34322835 0 19468
0.13450000 0.13450700 12344.39129140 0 96.32094534 0 3378.80005591 0 -150.63176399 0 -2356.11405891 0 19953
0.13550000 0.13551000 12391.41796646 0 120.04002457 0 3309.11406549 0 148.48672650 0 -1839.55265224 0 19956
0.13650000 0.13649900 12377.99761816 0 -47.71277650 0 3541.16408804 0 322.91021707 0 -2092.01047718 0 19723
0.13750000 0.13749600 12405.72561053 0 43.53316985 0 3277.20469187 0 256.50943918 0 -1500.47257914 0 20946
0.13850000 0.13851100 12240.68859994 0 138.70429080 0 3140.69423983 0 629.30675100 0 -950.32259164 0 20955
0.13950000 0.13949800 12071.76967041 0 158.62075316 0 2767.14272661 0 421.64405230 0 -221.14848507 0 20506
0.14050000 0.14048300 11783.95310961 0 201.76994576 0 3079.22682634 0 186.04151937 0 104.87769287 0 21447
0.14150000 0.14148400 11442.45515557 0 295.85989683 0 2842.72923381 0 159.68218070 0 574.19348425 0 21771
0.14250000 0.14249400 11121.36500392 0 95.94040637 0 2644.04153168 0 230.47950906 0 883.43934668 0 22470
0.14350000 0.14350900 11088.55724335 0 60.89011669 0 2745.34852461 0 76.71980571 0 976.68969414 0 22519
0.14450000 0.14449900 10978.42165765 0 160.84342902 0 2267.41775691 0 282.28205353 0 1119.64524073 0 22218
0.14550000 0.14550500 10741.09222535 0 78.55462242 0 2419.05660159 0 -36.13356689 0 582.31778601 0 23559
0.14650000 0.14650700 10757.82884155 0 58.11343553 0 2206.31635293 0 39.16057636 0 623.30863169 0 23044
0.14750000 0.14750500 10519.17955681 0 84.62283809 0 2393.03665355 0 34.93882315 0 538.69721754 0 23649
0.14850000 0.14849900 10530.14875060 0 166.85929425 0 2225.24902612 0 -461.31171819 0 119.95684059 0 23640
0.14950000 0.14949500 10323.13155956 0 137.10826755 0 2900.38127555 0 -104.27000619 0 216.00549705 0 24457
0.15050000 0.15050000 10317.15340440 0 115.88858955 0 2544.85295738 0 66.62393277 0 -243.12458270 0 24591
0.15150000 0.15149900 10049.75573718 0 65.64491282 0 2970.47764026 0 80.36936406 0 622.88827533 0 25020
0.15250000 0.15250500 10037.72178849 0 15.22155869 0 2420.25445086 0 310.63226205 0 183.11566162 0 25297
0.15350000 0.15350100 10370.42442335 0 -118.69577150 0 2606.49783001 0 498.75670821 0 1057.61661267 0 25452
0.15450000 0.15450400 10169.39647866 0 -71.44693977 0 2004.04619418 0 287.70453972 0 551.37334653 0 26061
0.15550000 0.15549900 10228.03563692 0 248.66463558 0 2113.50521686 0 -87.63287803 0 1238.08813294 0 26128
0.15650000 0.15649500 9966.08374740 0 238.10470696 0 2253.04356567 0 -251.31321341 0 864.11848160 0 26331
0.15750000 0.15749700 9676.65896304 0 167.82533750 0 2111.19824790 0 -61.87545862 0 839.56146243 0 27345
0.15850000 0.15849900 9372.52725152 0 224.32167652 0 2623.37863177 0 163.22914549 0 987.18307557 0 26980
0.15950000 0.15949700 9121.89947408 0 212.32432878 0 2453.74986564 0 -234.92042432 0 418.31114762 0 27777
0.16050000 0.16050000 8891.51313107 0 295.97524528 0 2778.10082920 0 -219.58462630 0 765.22936960 0 28224
0.16150000 0.16150500 8575.89093952 0 195.29601410 0 2780.99563160 0 -211.13313423 0 445.24722853 0 28075
0.16250000 0.16249700 8376.28266804 0 58.01760759 0 3031.27958193 0 77.37451906 0 653.07296782 0 28590
0.16350000 0.16349900 8331.70714750 0 32.82217913 0 3126.96333801 0 192.17495128 0 623.93306608 0 29163
0.16450000 0.16449100 8502.58921889 0 -38.06776073 0 2535.03724808 0 354.50681894 0 602.94741234 0 28996
0.16550000 0.16550500 8457.76969202 0 -76.71492558 0 2475.26678772 0 252.17167205 0 853.41880390 0 30777
0.16650000 0.16650700 8413.21635388 0 55.62024537 0 2260.76303874 0 -120.84413635 0 67.18226363 0 29211
0.16750000 0.16749900 8417.03172563 0 208.86720269 0 2911.32828694 0 -298.33877935 0 746.57397634 0 30922
0.16850000 0.16850800 8191.04858781 0 113.69031432 0 2509.74931903 0 -136.17549789 0 -218.54316291 0 30867
0.16950000 0.16949900 8077.91837894 0 76.80376607 0 2762.30696474 0 -36.59063512 0 276.10092947 0 30852
0.17050000 0.17049200 8098.75873800 0 60.78974135 0 2665.22571785 0 152.83447571 0 -453.98709172 0 31257
0.17150000 0.17149500 8055.58070828 0 14.78101635 0 2338.84506526 0 132.73944508 0 -431.32999460 0 32608
0.17250000 0.17250900 7957.45688888 0 46.55884837 0 2466.32728298 0 194.53737623 0 -112.39153516 0 32361
0.17350000 0.17350400 7817.45270980 0 69.93476597 0 2070.93720298 0 -133.34169707 0 -651.60338423 0 32508
0.17450000 0.17449800 7849.33990103 0 80.20099969 0 2234.87618507 0 40.48131609 0 -380.58111384 0 32791
0.17550000 0.17549800 7792.15368956 0 36.30414950 0 2428.38429822 0 132.08950094 0 -653.94029943 0 33633
0.17650000 0.17650100 7672.93441357 0 49.11193100 0 2036.01102379 0 -110.08279160 0 -591.11975991 0 33984
0.17750000 0.17750300 7715.25842112 0 72.46167337 0 2295.55612357 0 -13.70494842 0 -407.29980729 0 34069
0.17850000 0.17849800 7537.84363474 0 142.58953709 0 2533.79503402 0 -65.71212547 0 -496.48634019 0 34536
