### header ###
fiducial parameters:
Omega_m = 0.31
Omega_nu = 0
Omega_de = 0.69
Omega_k = 0
H_0 = 100
w_de = -1
zeff = 0
beta = 0
fgrowth = 0
b_1 = 2
gamma = 0.55
Lx = 3500 Ly = 3500 Lz = 3500
nx = 700 ny = 700 nz = 700
xoffset = 1379.75464 yoffset = 22.6059522 zoffset = 368.141391
bins = 400 dk = 0.001
kx_ny = 0.628318531 ky_ny = 0.628318531 kz_ny = 0.628318531
############################
A(data) = 3.34660758 (not used)
A(ran) = 3.34638469 (used)
Ngal = 187948
weighted Ngal = 0
Nran = 9399747
weighted Nran = 0
SN(data) = 6636.46208
SN(ran) = 133.103732
SN(data+ran) = 6769.56581
############################
13 columns: k_central k_mean P_0(k) sigma^{lin}_{P_0(k)} P^img_1(k) sigma^{lin}_{P_1(k)} P_2(k) sigma^{lin}_{P_2(k)} P^img_3(k) sigma^{lin}_{P_3(k)} P_4(k) sigma^{lin}_{P_4(k)} N_modes
### header ###
0.00050000 0 0 0 0 0 0 0 0 0 0 0 0
0.00150000 0.00179520 22517.12622034 0 -27799.86332678 0 -13820.40778127 0 -16974.18963350 0 42042.62388784 0 3
0.00250000 0.00253879 34192.27468789 0 -19257.31252529 0 -25808.66073867 0 -9353.25075122 0 -9291.11786592 0 6
0.00350000 0.00331552 51157.14771595 0 -10571.09744973 0 -16253.48365580 0 -56021.63578547 0 -6653.54250206 0 7
0.00450000 0.00420575 56566.10264366 0 -2413.12281122 0 -30924.80806694 0 -25052.35201877 0 -6874.52351005 0 24
0.00550000 0.00557378 52613.64369919 0 -1666.82944217 0 -14304.87126397 0 -18951.30640149 0 -7203.66587069 0 45
0.00650000 0.00659388 56058.23673540 0 -5969.83675738 0 -13739.99660340 0 -22723.75521949 0 -25496.22172064 0 40
0.00750000 0.00754703 62602.26475879 0 -5987.66031088 0 1117.31608937 0 -11226.39863902 0 -29096.97880988 0 57
0.00850000 0.00846663 72773.22509622 0 475.97871703 0 -7199.87268133 0 -24286.28304555 0 -40249.28825328 0 75
0.00950000 0.00948925 63058.66751321 0 4105.48418876 0 4636.53069864 0 -21210.13957196 0 -24461.19122143 0 112
0.01050000 0.01054430 68110.92954707 0 821.71350830 0 3304.93268424 0 -1002.71296954 0 -16182.83273124 0 105
0.01150000 0.01145670 68371.68358732 0 -1896.07339189 0 15335.57619637 0 -2771.41283744 0 -36244.81159513 0 144
0.01250000 0.01249090 73495.15110558 0 -5810.40080125 0 -2063.61701299 0 11409.73612458 0 -17216.97593470 0 169
0.01350000 0.01339930 75517.85269303 0 -6322.10426365 0 2762.68406544 0 -245.57462811 0 -12213.62607938 0 180
0.01450000 0.01448870 77246.74847332 0 5849.15344339 0 -4487.40955568 0 -1495.04898383 0 -15428.52042679 0 267
0.01550000 0.01550050 73391.22659018 0 7122.10120833 0 8767.23626927 0 -6201.64277360 0 -16778.65183130 0 238
0.01650000 0.01653350 65794.75488837 0 4341.97069009 0 3738.53193773 0 3073.42613034 0 8162.78821798 0 315
0.01750000 0.01747870 59642.80067710 0 -1688.27981706 0 18116.13927129 0 5469.16903594 0 -4363.73161851 0 297
0.01850000 0.01844180 64116.87861404 0 -2338.47905576 0 5589.54179642 0 -10.63367398 0 8785.03764037 0 388
0.01950000 0.01947590 65470.33737763 0 -510.33369958 0 6531.43951485 0 -82.65060145 0 -7404.10598194 0 399
0.02050000 0.02045430 65045.54453452 0 1791.40576629 0 14076.50351881 0 -7242.45178642 0 -3048.07165411 0 462
0.02150000 0.02154770 65721.10934063 0 1841.20524059 0 16637.90454203 0 -8007.18981600 0 -9618.18617273 0 571
0.02250000 0.02255340 62685.55964787 0 869.45445645 0 20230.56505750 0 -2864.83398933 0 -2269.29216920 0 510
0.02350000 0.02348930 64261.39691028 0 1032.65920130 0 27822.26754462 0 1752.00983473 0 -15538.43418855 0 555
0.02450000 0.02439640 66025.67360883 0 821.27318778 0 20110.33648258 0 7099.17570424 0 -10855.77520180 0 592
0.02550000 0.02547300 63763.95672715 0 -1837.96661108 0 20026.70885759 0 3658.16512464 0 -11958.75037351 0 837
0.02650000 0.02652900 65807.95341274 0 1067.75063933 0 18256.33200071 0 -5963.52586632 0 -10608.45260105 0 723
0.02750000 0.02749970 62927.68047725 0 4222.85123487 0 22140.02552410 0 -6035.76283204 0 -9360.50439403 0 826
0.02850000 0.02848090 60399.10939700 0 3227.17230243 0 26996.30610788 0 -8586.41648542 0 -12930.56105012 0 831
0.02950000 0.02946900 58522.92252124 0 -397.38871370 0 22329.68499192 0 8507.84644624 0 -16534.09093859 0 996
0.03050000 0.03053250 56557.67333398 0 103.80217950 0 31863.23424073 0 3464.18009002 0 -5536.65896937 0 1041
0.03150000 0.03150510 58207.15614412 0 398.69082022 0 20100.90896517 0 4305.02591306 0 -12407.83293795 0 1036
0.03250000 0.03246190 57555.65923538 0 1037.07238857 0 33856.65506824 0 4749.40580999 0 2987.18098287 0 1059
0.03350000 0.03345080 55010.22953576 0 1578.89843276 0 17501.02148854 0 4109.23301333 0 4865.12026775 0 1302
0.03450000 0.03451200 54340.54306403 0 813.09343003 0 32317.75149167 0 -235.80882920 0 9554.00141599 0 1339
0.03550000 0.03553350 53982.63013851 0 1272.24901954 0 24331.31330516 0 3802.06231385 0 13411.80808570 0 1365
0.03650000 0.03647120 53593.44003760 0 -316.09911302 0 26590.47921155 0 9951.45445863 0 13396.05858603 0 1308
0.03750000 0.03744890 52766.59130511 0 374.59075837 0 22503.37313613 0 -1016.25643013 0 15691.60361841 0 1579
0.03850000 0.03847530 48848.40415921 0 3294.36277355 0 20389.94555764 0 1268.89947806 0 15460.46307401 0 1662
0.03950000 0.03950240 47917.29817541 0 2255.35053463 0 24084.20143716 0 1328.82521517 0 17879.67495235 0 1683
0.04050000 0.04050350 43128.67389301 0 168.55957474 0 17572.44879689 0 3747.29398332 0 11094.52430731 0 1822
0.04150000 0.04152450 44675.89586729 0 -355.26878417 0 20619.20059856 0 4688.22676762 0 12640.08260204 0 1887
0.04250000 0.04250150 44901.71263715 0 -817.78833370 0 10068.11166813 0 4396.79447661 0 7589.08496464 0 1920
0.04350000 0.04349210 43124.57015014 0 473.83035218 0 9534.46981816 0 433.06909428 0 7325.62467233 0 2005
0.04450000 0.04448520 43068.55960555 0 2300.97971888 0 6634.49891690 0 -1623.30758534 0 4042.28654855 0 2151
0.04550000 0.04548030 38473.58762187 0 1395.22821130 0 11731.49174804 0 -2132.73735237 0 1050.57592085 0 2274
0.04650000 0.04648670 37948.30853440 0 2014.06154502 0 8687.81220792 0 -2746.40218832 0 -2176.56976271 0 2311
0.04750000 0.04749250 36063.91417290 0 1191.21673463 0 12667.03421063 0 -477.71781671 0 -1969.51929808 0 2568
0.04850000 0.04851840 34007.71717067 0 474.05217612 0 12570.42988521 0 65.33779757 0 -2634.10381922 0 2493
0.04950000 0.04949480 33726.22259212 0 29.64078020 0 11762.21436359 0 748.25762003 0 -4478.58096290 0 2644
0.05050000 0.05050630 34997.27376239 0 -624.11274347 0 11130.12704951 0 2008.79322647 0 -1353.04838930 0 2829
0.05150000 0.05149060 35836.10098759 0 -1324.96547863 0 8140.97183359 0 4533.33820224 0 314.88019048 0 2784
0.05250000 0.05249300 36290.61823852 0 -1010.27051114 0 5964.69044200 0 3255.03338917 0 1062.60543306 0 3055
0.05350000 0.05348950 37758.53815462 0 234.47455820 0 7028.00349342 0 2132.65971399 0 3671.26382824 0 3009
0.05450000 0.05448610 36548.04491969 0 431.84351702 0 5196.80251248 0 -1044.16520901 0 5088.98498695 0 3336
0.05550000 0.05550870 34886.25088094 0 1163.78820458 0 7051.98266122 0 648.60210634 0 4998.42536387 0 3349
0.05650000 0.05647670 34714.89188809 0 1129.18367010 0 5309.18961116 0 -1384.80248617 0 5969.45965668 0 3324
0.05750000 0.05747970 33314.18462550 0 270.05622713 0 7886.91687629 0 1373.03472621 0 9397.37153268 0 3639
0.05850000 0.05849280 33196.28520194 0 -57.10180746 0 5219.02927117 0 3772.17153808 0 8150.84299887 0 3846
0.05950000 0.05951020 33691.50714568 0 -108.77269941 0 4277.29792069 0 1948.70112141 0 10404.48548917 0 3787
0.06050000 0.06049470 32769.49594337 0 391.70225702 0 4583.76987476 0 -193.38721911 0 7759.90048884 0 3930
0.06150000 0.06148310 31995.21948442 0 842.58492272 0 3516.58599560 0 -1040.21008818 0 9564.89297139 0 4083
0.06250000 0.06249100 30964.18181611 0 891.83649189 0 5241.55549217 0 -2021.86974768 0 7831.08379085 0 4303
0.06350000 0.06350600 30211.97683908 0 473.01293097 0 6780.28160958 0 -1394.08581801 0 5910.48776251 0 4470
0.06450000 0.06451750 30107.60867580 0 981.29475911 0 8067.74775133 0 -996.06601521 0 4154.35200252 0 4479
0.06550000 0.06550280 28732.96572603 0 198.40376749 0 8295.39456870 0 327.46758990 0 4459.93666083 0 4636
0.06650000 0.06648880 28414.75928559 0 517.38104612 0 9343.08012362 0 -416.36796992 0 3920.77139479 0 4653
0.06750000 0.06749660 28526.22581492 0 46.62084816 0 10018.95548325 0 847.60923494 0 2995.01136791 0 5220
0.06850000 0.06852730 27936.06322531 0 233.55287974 0 10362.86022703 0 551.30347199 0 5272.74393799 0 5029
0.06950000 0.06949320 28395.68242684 0 225.48070660 0 9905.85854797 0 -500.64886640 0 4443.73242209 0 5040
0.07050000 0.07048030 28020.24541014 0 -187.27153311 0 9472.27038568 0 1174.01428817 0 3975.86137003 0 5475
0.07150000 0.07148790 29073.68729628 0 -168.67492319 0 10177.54850842 0 249.23250486 0 3348.75400338 0 5509
0.07250000 0.07249820 28548.96276866 0 78.97664246 0 8278.51376694 0 314.07718782 0 4784.86436663 0 5916
0.07350000 0.07351270 28425.18501072 0 536.34477466 0 10362.17257282 0 -101.39372609 0 4438.31991798 0 5721
0.07450000 0.07449140 27706.03180060 0 75.36989613 0 8967.77620129 0 1319.48642734 0 2959.83009119 0 6028
0.07550000 0.07549160 28107.31130619 0 -338.76064663 0 8202.98271572 0 1308.60596313 0 5434.24285675 0 6183
0.07650000 0.07648840 28044.75695540 0 164.51017873 0 7621.75963085 0 954.76461601 0 2491.00519619 0 6330
0.07750000 0.07749960 27965.78763313 0 619.37458414 0 6882.56462784 0 -195.97812272 0 3322.77842013 0 6583
0.07850000 0.07848650 26854.22787498 0 770.86258853 0 7510.29310152 0 -725.39089929 0 3248.86668366 0 6549
0.07950000 0.07947320 25449.86051739 0 834.86655876 0 8491.87512263 0 -1530.87354998 0 3062.39038937 0 6828
0.08050000 0.08048110 25226.81654676 0 305.56913064 0 8359.35750150 0 732.04229010 0 1693.64795639 0 7147
0.08150000 0.08149960 24231.49253263 0 470.12478328 0 8523.26321000 0 -426.62732709 0 325.85160250 0 7386
0.08250000 0.08250610 24465.84952415 0 53.22743054 0 7010.76777337 0 1234.68313547 0 507.89696361 0 7227
0.08350000 0.08350160 23723.95936028 0 203.19516457 0 7447.21746447 0 764.54282451 0 516.49818684 0 7798
0.08450000 0.08449610 23933.36115866 0 -150.94231751 0 5638.55379573 0 1056.44427316 0 1708.38815713 0 7371
0.08550000 0.08548940 23480.50758727 0 -67.39543643 0 4309.73967176 0 2115.11344042 0 -777.08807738 0 8256
0.08650000 0.08650700 23200.89851220 0 504.34334411 0 3554.52898036 0 -95.50230409 0 1160.87121978 0 8037
0.08750000 0.08749060 22167.30986860 0 1102.95077108 0 3553.57513742 0 -514.70030382 0 661.78732127 0 8155
0.08850000 0.08849210 21017.92912885 0 529.18429791 0 4723.68532426 0 -129.81691468 0 1935.81315055 0 8718
0.08950000 0.08949900 20066.96990251 0 547.39160682 0 5080.72204522 0 -597.68574850 0 1572.43226494 0 8571
0.09050000 0.09049190 19778.26604595 0 718.58201348 0 5249.35260362 0 -781.27500423 0 556.01057597 0 8932
0.09150000 0.09150830 18214.29636428 0 765.52106808 0 6562.94960538 0 -515.12398754 0 1396.19314543 0 9285
0.09250000 0.09250820 18098.39335617 0 317.78830232 0 7502.25198373 0 -356.93690019 0 1163.07836798 0 9204
0.09350000 0.09350330 18218.17828321 0 -357.77983116 0 7172.61051923 0 1290.56058570 0 1361.02295991 0 9349
0.09450000 0.09448040 18529.84091746 0 -398.84609698 0 6705.38275659 0 1172.51697658 0 1275.13273074 0 9564
0.09550000 0.09549270 18960.84483086 0 25.08773294 0 6130.93639305 0 -139.06919117 0 1798.85905064 0 10155
0.09650000 0.09649430 18690.99600911 0 404.34400330 0 5760.17986147 0 -284.61675049 0 1039.32611979 0 9913
0.09750000 0.09749140 18263.31945479 0 298.91330335 0 7670.57198862 0 -497.10522898 0 2800.79341815 0 10476
0.09850000 0.09850240 18021.19862541 0 218.37014023 0 5900.40586448 0 513.85515461 0 638.05992364 0 10575
0.09950000 0.09950330 17935.35276103 0 213.84271364 0 7559.91511667 0 754.44650793 0 2237.12769805 0 10882
0.10050000 0.10051200 17191.24435778 0 549.38913139 0 6544.42730648 0 -605.99970974 0 627.48890382 0 10875
0.10150000 0.10150300 16884.35093822 0 418.06270481 0 7033.40490634 0 721.68422127 0 3368.66270190 0 11118
0.10250000 0.10250800 16110.62903911 0 11.08879016 0 6579.57530961 0 468.00414643 0 2127.65758417 0 11575
0.10350000 0.10349800 16258.80743034 0 164.70871116 0 5824.65298933 0 187.73292690 0 2141.45503317 0 11364
0.10450000 0.10450100 15913.98211722 0 210.70945050 0 6534.75578274 0 7.35633620 0 1577.11275005 0 12093
0.10550000 0.10551000 15588.78822270 0 419.65207333 0 5932.11559656 0 -910.42201061 0 -182.55444705 0 12067
0.10650000 0.10649700 15103.65926818 0 279.64567601 0 6572.03329568 0 -509.01717450 0 792.02015583 0 12054
0.10750000 0.10749900 14791.66389803 0 148.82722625 0 6578.52164590 0 -178.51725136 0 -1448.43268306 0 12807
0.10850000 0.10850100 15007.72041458 0 -159.15756709 0 5804.94393235 0 903.78392924 0 -1242.61334129 0 12736
0.10950000 0.10950300 14914.33253627 0 -214.76328299 0 5810.84444913 0 444.53184633 0 -2100.79470516 0 12933
0.11050000 0.11050200 14983.31978129 0 74.46108345 0 4294.03453688 0 356.93579107 0 -2669.42928150 0 13428
0.11150000 0.11150900 14989.41993961 0 117.68536346 0 4871.29806445 0 229.46355542 0 -1117.92610520 0 13453
0.11250000 0.11250000 14621.85767275 0 78.64612479 0 3510.81857319 0 582.96773015 0 -2048.26679641 0 13668
0.11350000 0.11349100 14716.46558272 0 -94.01042719 0 4252.84183142 0 691.83115556 0 -493.75014190 0 13791
0.11450000 0.11448600 14833.58862249 0 117.90053268 0 3251.17365263 0 528.44895156 0 -1153.65085057 0 14205
0.11550000 0.11549300 14690.73400580 0 200.87155881 0 3745.28647667 0 39.00873787 0 483.75586433 0 14776
0.11650000 0.11649800 14108.77890193 0 330.99015405 0 4151.43501772 0 -459.33526689 0 591.53235244 0 14553
0.11750000 0.11747300 14068.96150488 0 285.40866195 0 4095.96794178 0 -253.31184710 0 1030.07827977 0 14568
0.11850000 0.11849100 14015.28011165 0 19.66225213 0 5263.23878220 0 93.54570604 0 803.85446298 0 16015
0.11950000 0.11950300 13806.10013721 0 117.70754585 0 4371.39563560 0 -184.39114926 0 784.36279346 0 15270
0.12050000 0.12050700 14072.17795200 0 120.45594446 0 5746.87042513 0 159.86740369 0 1913.54202708 0 15999
0.12150000 0.12150000 13528.15474169 0 82.06886817 0 5040.31681474 0 -279.23086525 0 791.98355488 0 15670
0.12250000 0.12250700 13828.28253110 0 50.65504923 0 5714.20685012 0 278.50106449 0 1100.29221117 0 16887
0.12350000 0.12352200 13589.71088475 0 124.12823977 0 5274.58507668 0 -139.82561081 0 433.85546014 0 16407
0.12450000 0.12449800 13400.82780072 0 127.06518872 0 5809.16967839 0 191.34754799 0 1307.39702267 0 16306
0.12550000 0.12549900 13451.18183487 0 -55.44822090 0 5028.71542273 0 326.49932840 0 124.92791507 0 17523
0.12650000 0.12650100 13519.72543201 0 -16.05716947 0 5192.24403054 0 73.10285547 0 793.51746742 0 17154
0.12750000 0.12750600 13455.39648971 0 102.60665938 0 4367.32516632 0 265.33137723 0 -437.52220985 0 18007
0.12850000 0.12850300 13326.51678117 0 207.28781624 0 4644.29453651 0 271.62674062 0 365.07118403 0 17496
0.12950000 0.12949900 12773.50970133 0 224.24292902 0 3940.79100528 0 13.36511415 0 227.16767765 0 18405
0.13050000 0.13049000 12672.57980910 0 160.65266044 0 4445.60683438 0 498.04243512 0 365.23866110 0 18100
0.13150000 0.13148800 12458.40879603 0 131.99855312 0 4210.98365413 0 409.90512945 0 1046.34241098 0 19059
0.13250000 0.13249300 12083.19360327 0 281.59883580 0 3434.65532374 0 300.29304825 0 528.57317296 0 18957
0.13350000 0.13349100 12073.65517390 0 -9.72016973 0 3796.71635692 0 20.08416126 0 937.00871882 0 19468
0.13450000 0.13450700 11670.04651695 0 30.81134512 0 3126.34223098 0 22.63236376 0 604.51459847 0 19953
0.13550000 0.13551000 12061.12212134 0 12.44875945 0 3274.93099649 0 357.21639835 0 781.84176439 0 19956
0.13650000 0.13649900 11668.27192544 0 96.56594988 0 2926.61195633 0 26.86276810 0 315.36820315 0 19723
0.13750000 0.13749600 11760.88341996 0 259.86674450 0 2676.01745249 0 -382.47659940 0 -383.93176444 0 20946
0.13850000 0.13851100 11446.66981041 0 22.58178790 0 2872.22072650 0 365.73665585 0 256.60704171 0 20955
0.13950000 0.13949800 11156.85683416 0 5.69608383 0 2189.20263603 0 598.03179385 0 11.29915689 0 20506
0.14050000 0.14048300 11493.25283760 0 79.01945448 0 2241.75272717 0 205.28030960 0 659.95616465 0 21447
0.14150000 0.14148400 11164.39884808 0 142.71154025 0 1974.34396875 0 108.05432259 0 -77.12840540 0 21771
0.14250000 0.14249400 11044.42537069 0 203.72199643 0 2603.39229487 0 -241.97775294 0 171.58414415 0 22470
0.14350000 0.14350900 10646.69504813 0 268.83619547 0 2384.84025900 0 -590.29124750 0 -209.39736190 0 22519
0.14450000 0.14449900 10212.14195170 0 296.02515567 0 3125.90967430 0 -347.62694947 0 -444.78361650 0 22218
0.14550000 0.14550500 10343.56154434 0 120.39272463 0 3071.44080608 0 -286.36915960 0 -266.86307153 0 23559
0.14650000 0.14650700 9894.16842639 0 155.74480579 0 3462.36113372 0 145.74830998 0 -1230.44629824 0 23044
0.14750000 0.14750500 9952.59685191 0 207.73922796 0 3422.71010463 0 43.67546990 0 -442.50659376 0 23649
0.14850000 0.14849900 9598.74330448 0 10.57869492 0 2948.55034390 0 196.01028719 0 -906.63214862 0 23640
0.14950000 0.14949500 9641.47768632 0 10.67939190 0 3191.80247537 0 322.03844899 0 -376.20341841 0 24457
0.15050000 0.15050000 9627.66914612 0 76.38817892 0 2620.68347091 0 281.40030337 0 -323.23297090 0 24591
0.15150000 0.15149900 9497.73577387 0 117.97484370 0 2529.91311509 0 -65.70702352 0 -521.15316220 0 25020
0.15250000 0.15250500 9361.58024013 0 17.50068875 0 2720.57079063 0 148.94035646 0 -396.22413802 0 25297
0.15350000 0.15350100 9382.85315588 0 5.31987043 0 2359.27505004 0 425.45498757 0 -213.50221389 0 25452
0.15450000 0.15450400 9303.47345932 0 -27.09923242 0 1958.98266098 0 183.89204540 0 -39.98598324 0 26061
0.15550000 0.15549900 9258.46538210 0 126.64815971 0 2421.15283781 0 114.47446194 0 70.92920269 0 26128
0.15650000 0.15649500 9213.86767918 0 165.49285878 0 1915.66044570 0 -83.32350437 0 313.00466908 0 26331
0.15750000 0.15749700 8794.99753523 0 150.62954575 0 2536.82293079 0 124.09607529 0 390.31253004 0 27345
0.15850000 0.15849900 8874.85415326 0 107.36877571 0 2331.08122740 0 31.26819152 0 1336.06776678 0 26980
0.15950000 0.15949700 8719.27793366 0 28.64512345 0 2593.48785599 0 290.74463680 0 899.40179733 0 27777
0.16050000 0.16050000 8794.46515778 0 2.83921332 0 2370.62134452 0 64.35389749 0 1458.81404340 0 28224
0.16150000 0.16150500 8804.16995511 0 5.45296480 0 2424.75747682 0 -35.93070890 0 1182.98706650 0 28075
0.16250000 0.16249700 8951.19486185 0 65.09467854 0 2178.15580387 0 -37.33307984 0 926.10829046 0 28590
0.16350000 0.16349900 8752.67352767 0 13.81508401 0 2548.71269391 0 -519.61148583 0 490.71115394 0 29163
0.16450000 0.16449100 8585.88410797 0 215.04610851 0 2646.06012953 0 -443.74437134 0 -215.26682333 0 28996
0.16550000 0.16550500 8643.09250183 0 136.46165077 0 3002.97484732 0 -214.52149489 0 -356.34019379 0 30777
0.16650000 0.16650700 8324.67532864 0 79.72263637 0 2707.11716873 0 -11.61947066 0 -1052.54128095 0 29211
0.16750000 0.16749900 8382.05009045 0 -71.75849149 0 2818.25096215 0 557.18735197 0 -261.83765019 0 30922
0.16850000 0.16850800 8443.79478386 0 -52.05387099 0 2198.21977915 0 484.74630822 0 -821.45064694 0 30867
0.16950000 0.16949900 8508.48973566 0 5.99651109 0 2074.39765642 0 322.98785545 0 -61.20699218 0 30852
0.17050000 0.17049200 8430.34116197 0 122.98695560 0 1884.32781432 0 33.22312590 0 1.47559502 0 31257
0.17150000 0.17149500 8156.46623572 0 182.42800740 0 2078.50139929 0 -211.47252485 0 221.91045030 0 32608
0.17250000 0.17250900 8105.80164806 0 162.14220819 0 2255.16198429 0 53.43217403 0 315.32716572 0 32361
0.17350000 0.17350400 7836.11919427 0 23.77531160 0 2267.34011853 0 248.98406205 0 452.98222928 0 32508
0.17450000 0.17449800 7737.21899108 0 89.03935272 0 2025.09728599 0 182.68088669 0 614.63087920 0 32791
0.17550000 0.17549800 7933.93246015 0 63.17124316 0 2260.75194755 0 24.37323803 0 949.71923052 0 33633
0.17650000 0.17650100 7632.18535598 0 47.62094139 0 1965.26027845 0 61.18869171 0 460.86030647 0 33984
0.17750000 0.17750300 7716.28990244 0 65.57736743 0 2175.56046379 0 57.18000039 0 705.06849912 0 34069
0.17850000 0.17849800 7531.41074051 0 43.74856089 0 1636.38410654 0 -137.53860600 0 231.61081115 0 34536
