### header ###
fiducial parameters:
Omega_m = 0.31
Omega_nu = 0
Omega_de = 0.69
Omega_k = 0
H_0 = 100
w_de = -1
zeff = 0
beta = 0
fgrowth = 0
b_1 = 2
gamma = 0.55
Lx = 3500 Ly = 3500 Lz = 3500
nx = 700 ny = 700 nz = 700
xoffset = 1379.75464 yoffset = 22.6059522 zoffset = 368.141391
bins = 400 dk = 0.001
kx_ny = 0.628318531 ky_ny = 0.628318531 kz_ny = 0.628318531
############################
A(data) = 3.31770313 (not used)
A(ran) = 3.31319543 (used)
Ngal = 186021
weighted Ngal = 0
Nran = 9399747
weighted Nran = 0
SN(data) = 6663.69708
SN(ran) = 131.783617
SN(data+ran) = 6795.48069
############################
13 columns: k_central k_mean P_0(k) sigma^{lin}_{P_0(k)} P^img_1(k) sigma^{lin}_{P_1(k)} P_2(k) sigma^{lin}_{P_2(k)} P^img_3(k) sigma^{lin}_{P_3(k)} P_4(k) sigma^{lin}_{P_4(k)} N_modes
### header ###
0.00050000 0 0 0 0 0 0 0 0 0 0 0 0
0.00150000 0.00179520 43741.24070046 0 -39969.90100216 0 -55182.36491240 0 40416.65441523 0 -40800.96438949 0 3
0.00250000 0.00253879 56488.79700093 0 -21176.75506915 0 -5281.40616280 0 -69340.49964075 0 17699.99756179 0 6
0.00350000 0.00331552 61364.37626740 0 6190.55157665 0 -40925.85126712 0 -9542.44438877 0 10822.87871165 0 7
0.00450000 0.00420575 58642.04197646 0 1091.90282980 0 -23707.32256486 0 -22963.54689751 0 4491.10292426 0 24
0.00550000 0.00557378 59212.79497141 0 -8218.38838828 0 -33059.41983160 0 2426.95353382 0 -19378.76113187 0 45
0.00650000 0.00659388 76338.15761932 0 -11803.47361624 0 -54850.62721168 0 -4167.73907723 0 15619.28901430 0 40
0.00750000 0.00754703 58352.89447202 0 17.23760556 0 -26683.20161803 0 -29794.83692186 0 -29120.49214741 0 57
0.00850000 0.00846663 70327.50525717 0 4509.56976718 0 -43806.67876246 0 -32458.05513306 0 -17900.63731458 0 75
0.00950000 0.00948925 62446.54435364 0 32.40603742 0 -20743.86565226 0 -25793.46579885 0 -38143.73542463 0 112
0.01050000 0.01054430 64671.99302130 0 -2554.46902513 0 -15132.16364434 0 -21544.31733601 0 -30518.31569879 0 105
0.01150000 0.01145670 71462.57835285 0 -1877.83946411 0 1499.00854114 0 -20122.98044710 0 -38766.94978115 0 144
0.01250000 0.01249090 70175.22312307 0 74.99745373 0 2565.27185096 0 -11810.57198228 0 -33820.38685422 0 169
0.01350000 0.01339930 69921.90018477 0 1609.73196028 0 3293.96349046 0 9294.97760246 0 -37803.90115014 0 180
0.01450000 0.01448870 78284.21903585 0 -2457.92015570 0 20443.51603890 0 -5227.72476958 0 -17768.76298287 0 267
0.01550000 0.01550050 75004.55209826 0 4110.45304500 0 5588.75432144 0 -7462.19058036 0 -35153.43781542 0 238
0.01650000 0.01653350 77402.24705453 0 4585.94374936 0 35443.36170365 0 -6124.44804284 0 -2148.03211296 0 315
0.01750000 0.01747870 65127.06483209 0 5401.31309301 0 22358.74392792 0 -4087.77154724 0 -26917.22587364 0 297
0.01850000 0.01844180 63030.82860887 0 6626.42452552 0 45468.25097727 0 -5491.00760273 0 -2566.27005868 0 388
0.01950000 0.01947590 58916.99274881 0 2936.73821915 0 44910.03103486 0 1440.52465964 0 -1087.41311327 0 399
0.02050000 0.02045430 55368.25337325 0 466.30053858 0 48751.35618591 0 11525.75004465 0 -5198.74347195 0 462
0.02150000 0.02154770 59858.63536971 0 -1626.74585640 0 42386.11825733 0 11504.67677045 0 5864.88076066 0 571
0.02250000 0.02255340 62365.91135183 0 -3414.77989881 0 39722.01275036 0 3283.11629984 0 -695.07976715 0 510
0.02350000 0.02348930 65444.60580071 0 -1751.65491643 0 31006.43927648 0 6099.68140005 0 5108.93805026 0 555
0.02450000 0.02439640 68942.43658227 0 588.47561856 0 31658.60165704 0 6266.82573806 0 3588.44586063 0 592
0.02550000 0.02547300 65370.29478116 0 2.13018638 0 29736.94087379 0 5773.88858090 0 10243.70749821 0 837
0.02650000 0.02652900 66352.64209486 0 -130.65208181 0 24492.69022076 0 8599.87010732 0 7950.38070523 0 723
0.02750000 0.02749970 67153.09377862 0 931.39990052 0 20981.77182680 0 5104.37956831 0 19281.82407055 0 826
0.02850000 0.02848090 61404.85913626 0 1024.37407718 0 13267.95526128 0 5128.92438716 0 12162.71748539 0 831
0.02950000 0.02946900 63882.52162253 0 2366.18486574 0 20005.85740733 0 759.85346644 0 13280.59922580 0 996
0.03050000 0.03053250 56849.37181372 0 2094.45054051 0 16880.46901929 0 -3817.43471282 0 3995.93643651 0 1041
0.03150000 0.03150510 54832.65947262 0 3867.33400789 0 19996.09715401 0 -4980.12488890 0 815.90172110 0 1036
0.03250000 0.03246190 50904.93389735 0 2261.88324964 0 18521.85525565 0 -4416.39262162 0 1165.87334961 0 1059
0.03350000 0.03345080 49863.13776800 0 1062.47344782 0 23232.06477562 0 1288.16488716 0 -6202.85171407 0 1302
0.03450000 0.03451200 47914.08172829 0 973.75829079 0 21630.60684827 0 2322.04190188 0 -9940.00834338 0 1339
0.03550000 0.03553350 48297.50440679 0 -668.93559770 0 15928.73340916 0 1966.85741081 0 -7434.78423270 0 1365
0.03650000 0.03647120 47004.71449051 0 29.10485356 0 16614.94576435 0 2478.96015631 0 -10480.32709391 0 1308
0.03750000 0.03744890 47723.53496472 0 904.74442690 0 16419.51887412 0 -119.00410678 0 -7364.61022960 0 1579
0.03850000 0.03847530 45814.07449811 0 1149.90202600 0 15569.71136395 0 -2778.56665947 0 -14940.28593713 0 1662
0.03950000 0.03950240 45299.77569563 0 1694.28015461 0 17537.28970256 0 -2892.30688417 0 -9426.82975178 0 1683
0.04050000 0.04050350 42536.18215204 0 312.13955571 0 14251.07895877 0 3064.84154390 0 -11607.71399010 0 1822
0.04150000 0.04152450 42229.62146839 0 -648.37695504 0 16276.55334546 0 6139.13278760 0 -3679.17185166 0 1887
0.04250000 0.04250150 42722.07061289 0 469.40718284 0 10296.86760518 0 3773.95722078 0 -4884.51877121 0 1920
0.04350000 0.04349210 42609.27313993 0 529.73996688 0 11521.75721375 0 3561.68280239 0 678.83892746 0 2005
0.04450000 0.04448520 40353.21276869 0 1583.56782668 0 12710.95535054 0 -224.42593377 0 2013.20752286 0 2151
0.04550000 0.04548030 38220.59741948 0 1340.10496247 0 13026.72172766 0 -4141.39748448 0 5075.53136505 0 2274
0.04650000 0.04648670 38307.66331553 0 654.39614762 0 13860.89065013 0 1642.20698494 0 3910.55640240 0 2311
0.04750000 0.04749250 38635.29727338 0 -672.19973696 0 15036.33570271 0 824.23342825 0 1781.14640911 0 2568
0.04850000 0.04851840 38266.29315091 0 414.72980013 0 11880.00287518 0 3.72788439 0 -1138.75537307 0 2493
0.04950000 0.04949480 39219.91426452 0 876.95210558 0 16368.16663225 0 -1399.06576544 0 340.54300198 0 2644
0.05050000 0.05050630 36163.73494544 0 519.53939305 0 16663.30338304 0 -1545.91321304 0 -1127.96363844 0 2829
0.05150000 0.05149060 36955.20275966 0 817.69184029 0 15976.86920391 0 744.37015550 0 -2664.05005098 0 2784
0.05250000 0.05249300 37069.33117626 0 -745.34618084 0 15331.02880562 0 2327.89805387 0 -3073.37067435 0 3055
0.05350000 0.05348950 36555.69784559 0 -114.81939817 0 13876.86197374 0 1624.56089060 0 -4946.31892060 0 3009
0.05450000 0.05448610 36914.38715489 0 1256.82116458 0 14545.88297365 0 -952.25689638 0 -4711.77337874 0 3336
0.05550000 0.05550870 34284.44253453 0 1056.66609710 0 13029.49452689 0 -1770.54322483 0 -4477.12801610 0 3349
0.05650000 0.05647670 33364.20592373 0 1082.07048370 0 15155.34424596 0 807.49237558 0 -3877.09426121 0 3324
0.05750000 0.05747970 33223.01498658 0 -522.27004574 0 11352.50554832 0 1568.60580199 0 -5332.50330715 0 3639
0.05850000 0.05849280 33109.33021786 0 -419.93600797 0 12224.05180451 0 2794.85962779 0 -8323.99876563 0 3846
0.05950000 0.05951020 33655.23893166 0 828.80965611 0 9703.54402444 0 -641.59801546 0 -4928.58409668 0 3787
0.06050000 0.06049470 31750.65859171 0 689.68944543 0 10550.77837692 0 -1931.87577564 0 -7602.81586646 0 3930
0.06150000 0.06148310 31310.67080877 0 1063.32968822 0 10597.73850480 0 -1487.87297941 0 -7862.81570532 0 4083
0.06250000 0.06249100 29841.64177298 0 1124.56973217 0 11506.45136196 0 -1600.40426364 0 -10651.22025648 0 4303
0.06350000 0.06350600 29818.35025939 0 -331.89408660 0 13986.11026368 0 651.15862723 0 -9032.59315625 0 4470
0.06450000 0.06451750 29600.29732739 0 9.74965013 0 10617.50301776 0 2533.95031078 0 -10195.44970029 0 4479
0.06550000 0.06550280 29784.18937279 0 -301.85025230 0 11821.99591514 0 522.26782750 0 -7170.73610695 0 4636
0.06650000 0.06648880 29939.35521809 0 67.83553513 0 10554.60483987 0 1403.99025689 0 -4927.04242031 0 4653
0.06750000 0.06749660 30866.35745903 0 -322.76048591 0 9201.65627134 0 2355.45967829 0 -4863.66732095 0 5220
0.06850000 0.06852730 30192.12359654 0 -249.33676211 0 8292.64395185 0 772.74365554 0 -3741.81493203 0 5029
0.06950000 0.06949320 30471.62175964 0 765.22493313 0 9789.00169693 0 -1165.42970173 0 -3671.18618986 0 5040
0.07050000 0.07048030 28865.17279366 0 1458.72531383 0 10224.61954826 0 -1978.66953556 0 -3181.94240128 0 5475
0.07150000 0.07148790 27996.28842473 0 1031.00439472 0 12001.11874585 0 -822.44885466 0 -2513.02122213 0 5509
0.07250000 0.07249820 26500.19686839 0 307.37810486 0 11772.97282463 0 886.92198252 0 -3106.36698527 0 5916
0.07350000 0.07351270 26961.25792553 0 -365.84978606 0 10321.71188635 0 1703.81858399 0 -2336.99283537 0 5721
0.07450000 0.07449140 26284.02943987 0 275.79481243 0 10483.86518573 0 2245.62355491 0 -2297.45271825 0 6028
0.07550000 0.07549160 26623.86371436 0 379.50304950 0 9255.61494449 0 402.73134327 0 -57.20983571 0 6183
0.07650000 0.07648840 25832.61772407 0 380.65764310 0 8418.48467243 0 644.56491065 0 -438.68567641 0 6330
0.07750000 0.07749960 24660.38911862 0 578.19075163 0 8689.89735295 0 316.23664387 0 1521.32402940 0 6583
0.07850000 0.07848650 24538.71868810 0 195.55665723 0 8138.22121674 0 811.72477633 0 813.34852756 0 6549
0.07950000 0.07947320 24213.19205766 0 390.21936399 0 8260.32420395 0 64.78490141 0 1542.50821557 0 6828
0.08050000 0.08048110 23549.60574425 0 503.06785646 0 8243.11066628 0 61.37391470 0 542.46156978 0 7147
0.08150000 0.08149960 22964.98875311 0 69.83427973 0 8110.72613951 0 259.00828585 0 1408.43782686 0 7386
0.08250000 0.08250610 23230.29018411 0 -249.89243108 0 8636.79270196 0 602.67567801 0 1433.37083760 0 7227
0.08350000 0.08350160 23231.84295169 0 106.35204568 0 6443.14249595 0 983.09264214 0 -814.69721711 0 7798
0.08450000 0.08449610 23164.63029818 0 394.07355493 0 8456.42765719 0 -1537.94973363 0 505.96487710 0 7371
0.08550000 0.08548940 22197.36701233 0 959.02474476 0 7707.59440403 0 -1305.26751285 0 -1830.72405947 0 8256
0.08650000 0.08650700 21703.91966010 0 562.17395412 0 9956.01294057 0 -1058.00924105 0 -134.95990271 0 8037
0.08750000 0.08749060 21032.01494898 0 244.18933761 0 9580.07682001 0 -87.41227412 0 -4253.08583775 0 8155
0.08850000 0.08849210 20658.35252379 0 590.41325067 0 10733.63894101 0 -257.90582088 0 -1766.23984041 0 8718
0.08950000 0.08949900 20113.44201772 0 212.47295082 0 10346.38979956 0 273.14623460 0 -2968.78068713 0 8571
0.09050000 0.09049190 19610.45623612 0 187.71074451 0 10209.40242605 0 1100.43417849 0 -1100.40977786 0 8932
0.09150000 0.09150830 19729.24295544 0 42.95487484 0 9173.98373495 0 1584.68803757 0 -1022.00943399 0 9285
0.09250000 0.09250820 19236.79381094 0 98.17683532 0 8199.05643200 0 1613.15914013 0 -473.44770589 0 9204
0.09350000 0.09350330 19234.90830746 0 86.57355781 0 7490.97223644 0 1000.76313712 0 1306.45427093 0 9349
0.09450000 0.09448040 18963.17398222 0 -133.85189213 0 6297.82563353 0 1204.55944456 0 519.38966189 0 9564
0.09550000 0.09549270 18894.74129705 0 78.91375537 0 5041.08210733 0 351.63087157 0 1480.76352216 0 10155
0.09650000 0.09649430 18459.41181684 0 409.22856644 0 5584.45093702 0 31.96205681 0 1120.45489810 0 9913
0.09750000 0.09749140 17996.79799212 0 510.83280344 0 5032.34224414 0 -813.15664986 0 185.18195161 0 10476
0.09850000 0.09850240 17558.47388873 0 330.96797165 0 6637.75972880 0 -337.08365765 0 -159.18973156 0 10575
0.09950000 0.09950330 16974.85510532 0 535.79243306 0 6487.39637177 0 -569.49858058 0 -726.20277490 0 10882
0.10050000 0.10051200 16810.26174260 0 171.67620108 0 6647.46452613 0 -84.87571738 0 -465.16923649 0 10875
0.10150000 0.10150300 16630.47344007 0 -145.52204956 0 6793.86832585 0 719.96619486 0 -472.13561729 0 11118
0.10250000 0.10250800 16709.66458628 0 -138.03216426 0 6374.51016923 0 1090.17593043 0 471.35257879 0 11575
0.10350000 0.10349800 16898.76949425 0 8.06764793 0 5869.91616407 0 610.58259232 0 -49.23748335 0 11364
0.10450000 0.10450100 16835.99331952 0 183.98410234 0 5384.03300817 0 24.29027588 0 1085.32353177 0 12093
0.10550000 0.10551000 16477.63674613 0 268.02764721 0 5707.29703442 0 262.14154899 0 1432.23953551 0 12067
0.10650000 0.10649700 16537.30738571 0 155.71929603 0 6138.07912389 0 -597.83991614 0 1422.85638290 0 12054
0.10750000 0.10749900 16074.47173706 0 155.44756171 0 5664.77338532 0 95.97911465 0 300.17215421 0 12807
0.10850000 0.10850100 16118.83652485 0 62.50566043 0 6165.20819162 0 -138.86400403 0 614.91259560 0 12736
0.10950000 0.10950300 15863.96081898 0 156.66537513 0 5854.35521476 0 -298.47298283 0 -315.21625375 0 12933
0.11050000 0.11050200 15979.86382709 0 76.72457492 0 5734.59247011 0 329.38193049 0 -782.55936484 0 13428
0.11150000 0.11150900 15686.94531569 0 54.71431640 0 5959.17811711 0 -148.18504595 0 -712.34986991 0 13453
0.11250000 0.11250000 15493.29301697 0 199.49957775 0 6074.90366607 0 151.49798647 0 -1312.59879403 0 13668
0.11350000 0.11349100 15335.57619637 0 319.33219693 0 5337.22815705 0 489.03749232 0 -366.27901538 0 13791
0.11450000 0.11448600 15077.59495535 0 149.38511346 0 5602.03048418 0 382.84926362 0 -180.92182286 0 14205
0.11550000 0.11549300 14650.69478482 0 138.00332715 0 5073.77895593 0 635.80730154 0 141.92739263 0 14776
0.11650000 0.11649800 14454.93515868 0 335.15157114 0 5385.66341412 0 399.58255245 0 706.09887131 0 14553
0.11750000 0.11747300 13766.17182819 0 291.23154035 0 4263.05682381 0 210.87027286 0 1017.13152557 0 14568
0.11850000 0.11849100 13907.91732519 0 142.87125349 0 4917.75908846 0 77.15646613 0 1441.95542404 0 16015
0.11950000 0.11950300 13505.97234779 0 169.98590267 0 4918.57983704 0 -55.41439275 0 632.05404049 0 15270
0.12050000 0.12050700 13365.77961836 0 219.99056411 0 4429.25841008 0 -67.86758869 0 319.09928180 0 15999
0.12150000 0.12150000 13201.07534368 0 105.95132074 0 4824.29357178 0 -135.68748523 0 252.12952551 0 15670
0.12250000 0.12250700 12872.77591402 0 -7.80296761 0 4193.91430203 0 550.21986205 0 134.34101392 0 16887
0.12350000 0.12352200 13128.53891564 0 -38.94363255 0 4283.30934943 0 577.08274105 0 367.24505863 0 16407
0.12450000 0.12449800 13083.95230391 0 -11.06245966 0 3603.57425327 0 583.62876549 0 115.13882464 0 16306
0.12550000 0.12549900 13021.28704115 0 50.53825893 0 3427.30186017 0 -102.27170524 0 531.55226846 0 17523
0.12650000 0.12650100 12677.12719985 0 225.03705872 0 3395.35921296 0 -248.77665667 0 300.75333293 0 17154
0.12750000 0.12750600 12666.47965078 0 347.34301483 0 3942.73196475 0 -523.93705264 0 402.30211395 0 18007
0.12850000 0.12850300 12064.67130437 0 326.48380073 0 4460.93486856 0 -310.83966743 0 -20.81063466 0 17496
0.12950000 0.12949900 12013.09723856 0 122.47676054 0 4272.40670283 0 248.08567510 0 518.47352902 0 18405
0.13050000 0.13049000 11840.96186192 0 -128.96400164 0 4457.06404082 0 850.25670365 0 757.93136201 0 18100
0.13150000 0.13148800 11921.26212783 0 53.76002982 0 3999.58544030 0 715.60180886 0 1859.18407084 0 19059
0.13250000 0.13249300 11939.45169082 0 42.62291531 0 3615.28655724 0 421.70061741 0 1463.91599400 0 18957
0.13350000 0.13349100 11776.07835978 0 63.44752488 0 3578.07559148 0 194.75254545 0 2627.58219541 0 19468
0.13450000 0.13450700 11651.19148214 0 205.58309927 0 3961.62027315 0 -343.71952078 0 2255.05107232 0 19953
0.13550000 0.13551000 11645.09132382 0 38.86799059 0 3717.55848430 0 -26.64892982 0 2230.66153023 0 19956
0.13650000 0.13649900 11421.49279334 0 -37.81066678 0 3668.76830893 0 72.50770184 0 1570.12529598 0 19723
0.13750000 0.13749600 11530.18652343 0 179.48994933 0 3974.20878168 0 -295.91313458 0 868.25217070 0 20946
0.13850000 0.13851100 11513.32790407 0 52.95225794 0 3630.22639953 0 -252.62641113 0 798.74142118 0 20955
0.13950000 0.13949800 11330.43406640 0 49.67669475 0 3910.36785205 0 167.50812927 0 424.08411563 0 20506
0.14050000 0.14048300 11263.55414880 0 136.91638985 0 3924.49803696 0 -593.89699563 0 -58.13062689 0 21447
0.14150000 0.14148400 11216.52747374 0 99.05392718 0 3948.56593434 0 173.49515738 0 -381.79781815 0 21771
0.14250000 0.14249400 11146.43110902 0 84.75892708 0 4060.58702352 0 83.04932998 0 -541.46225293 0 22470
0.14350000 0.14350900 10771.99230005 0 187.57432279 0 3780.60084776 0 -241.54963274 0 -612.92283487 0 22519
0.14450000 0.14449900 10779.90032348 0 167.34619779 0 4006.86126550 0 128.69115819 0 -448.99494398 0 22218
0.14550000 0.14550500 10588.37753457 0 -38.36866490 0 3793.92137529 0 563.04350396 0 -416.82825459 0 23559
0.14650000 0.14650700 10646.87250728 0 74.59129410 0 3723.19281235 0 260.44459586 0 -60.38790729 0 23044
0.14750000 0.14750500 10637.52262825 0 32.07884711 0 3284.10341637 0 455.07846550 0 330.68070965 0 23649
0.14850000 0.14849900 10289.91342470 0 204.90209978 0 3478.72064922 0 83.04234253 0 574.51623808 0 23640
0.14950000 0.14949500 10045.35253199 0 320.83727236 0 3644.38985803 0 -112.45253674 0 1240.41728430 0 24457
0.15050000 0.15050000 9906.90112049 0 106.57597695 0 3662.06922597 0 174.51222014 0 1512.73944297 0 24591
0.15150000 0.15149900 9717.19728788 0 64.89182054 0 3717.04828924 0 256.48503855 0 1451.93750129 0 25020
0.15250000 0.15250500 9676.55914226 0 60.17284898 0 3487.61578917 0 271.95836741 0 1967.71143298 0 25297
0.15350000 0.15350100 9485.80164595 0 59.62217105 0 3458.50139718 0 139.21559497 0 1573.31956070 0 25452
0.15450000 0.15450400 9668.04110301 0 -80.20011240 0 2986.64860541 0 464.77882635 0 1903.87050334 0 26061
0.15550000 0.15549900 9579.41134820 0 -101.61277722 0 2782.00493052 0 469.76653762 0 1628.73118065 0 26128
0.15650000 0.15649500 9774.67187047 0 -1.38580069 0 2055.55371281 0 383.56353670 0 1777.56395250 0 26331
0.15750000 0.15749700 9482.85138756 0 162.97404796 0 1958.72756345 0 109.31328435 0 1361.74388771 0 27345
0.15850000 0.15849900 9303.91710720 0 252.20716388 0 2012.65296301 0 -438.38732322 0 1389.29442093 0 26980
0.15950000 0.15949700 8969.19587450 0 259.83568915 0 1983.10601434 0 -148.44568907 0 1170.56492592 0 27777
0.16050000 0.16050000 8638.40092552 0 235.67240747 0 2530.64513409 0 -346.84169273 0 943.25417182 0 28224
0.16150000 0.16150500 8440.48960717 0 110.79395915 0 2347.30764853 0 95.91955492 0 617.73974171 0 28075
0.16250000 0.16249700 8606.66901105 0 -39.56263225 0 2367.58235655 0 369.27252943 0 910.65714399 0 28590
0.16350000 0.16349900 8300.67397844 0 -47.36362562 0 1990.28201877 0 371.51849682 0 1172.30624384 0 29163
0.16450000 0.16449100 8689.68662021 0 -31.79491247 0 2087.16362411 0 209.35632447 0 1270.33024246 0 28996
0.16550000 0.16550500 8659.81802682 0 -37.07099486 0 1668.30457136 0 120.46038093 0 1136.29312735 0 30777
0.16650000 0.16650700 8650.32396224 0 41.38591412 0 1907.17568003 0 -232.44930564 0 997.98035580 0 29211
0.16750000 0.16749900 8637.43599138 0 135.60319213 0 1758.17654023 0 -348.13270805 0 681.63723645 0 30922
0.16850000 0.16850800 8478.11094722 0 142.33887604 0 2112.72883308 0 -206.11104025 0 837.66930423 0 30867
0.16950000 0.16949900 8312.12009369 0 97.09666365 0 2299.91496397 0 -108.61476077 0 -75.84703942 0 30852
0.17050000 0.17049200 8370.82579914 0 115.67120209 0 2355.21567196 0 -29.63811831 0 392.89456069 0 31257
0.17150000 0.17149500 8047.08485142 0 162.65462149 0 2305.97075750 0 -181.53294781 0 -496.76362011 0 32608
0.17250000 0.17250900 7964.79926126 0 108.24032196 0 2217.40754987 0 38.15271929 0 231.00634092 0 32361
0.17350000 0.17350400 7851.48050204 0 45.12409114 0 2531.56570343 0 172.83634028 0 -257.12500061 0 32508
0.17450000 0.17449800 7845.51343808 0 68.02841104 0 2313.43513305 0 139.82561081 0 47.44714234 0 32791
0.17550000 0.17549800 7697.50141481 0 54.74747908 0 2250.29294882 0 51.97623261 0 -222.19327582 0 33633
0.17650000 0.17650100 7693.78586383 0 99.71939899 0 2275.64742505 0 -50.12988105 0 7.06139909 0 33984
0.17750000 0.17750300 7582.64097921 0 149.90861795 0 2453.77204804 0 -298.48296491 0 124.94566098 0 34069
0.17850000 0.17849800 7389.84270266 0 143.79182284 0 2442.86940144 0 -6.37479854 0 23.78518277 0 34536
