### header ###
fiducial parameters:
Omega_m = 0.31
Omega_nu = 0
Omega_de = 0.69
Omega_k = 0
H_0 = 100
w_de = -1
zeff = 0
beta = 0
fgrowth = 0
b_1 = 2
gamma = 0.55
Lx = 3500 Ly = 3500 Lz = 3500
nx = 700 ny = 700 nz = 700
xoffset = 1379.75464 yoffset = 22.6059522 zoffset = 368.141391
bins = 400 dk = 0.001
kx_ny = 0.628318531 ky_ny = 0.628318531 kz_ny = 0.628318531
############################
A(data) = 3.32393305 (not used)
A(ran) = 3.31681359 (used)
Ngal = 186272
weighted Ngal = 0
Nran = 9399747
weighted Nran = 0
SN(data) = 6730.48234
SN(ran) = 131.92753
SN(data+ran) = 6862.40987
############################
13 columns: k_central k_mean P_0(k) sigma^{lin}_{P_0(k)} P^img_1(k) sigma^{lin}_{P_1(k)} P_2(k) sigma^{lin}_{P_2(k)} P^img_3(k) sigma^{lin}_{P_3(k)} P_4(k) sigma^{lin}_{P_4(k)} N_modes
### header ###
0.00050000 0 0 0 0 0 0 0 0 0 0 0 0
0.00150000 0.00179520 98949.11536584 0 -70695.40025994 0 -94665.47328050 0 108002.08305089 0 25547.90669841 0 3
0.00250000 0.00253879 129976.62791653 0 -46600.32944977 0 14038.68253721 0 -169086.40659535 0 18209.97079747 0 6
0.00350000 0.00331552 145122.76646902 0 6268.93306548 0 -72317.70963756 0 912.16665589 0 -29331.55762533 0 7
0.00450000 0.00420575 144142.30465880 0 17591.74747958 0 4117.05230718 0 -70304.76830342 0 13094.93258889 0 24
0.00550000 0.00557378 110758.68914040 0 16668.40533364 0 31003.99921315 0 -10607.85367642 0 13094.93258889 0 45
0.00650000 0.00659388 99090.74995087 0 5835.67763910 0 80247.69363160 0 13678.21863640 0 -3540.21024510 0 40
0.00750000 0.00754703 82121.88409191 0 9374.24638705 0 39675.76245909 0 9991.50477081 0 -12778.38982799 0 57
0.00850000 0.00846663 83001.74874581 0 16656.20501699 0 55770.19835066 0 10250.39548997 0 2960.32919506 0 75
0.00950000 0.00948925 73827.77610206 0 3147.65951151 0 55290.83681855 0 2569.67505615 0 9489.10682264 0 112
0.01050000 0.01054430 64009.18309167 0 -678.24333018 0 46839.12292007 0 28276.67388359 0 1895.67410880 0 105
0.01150000 0.01145670 74922.80997676 0 -7173.34253823 0 35746.26229230 0 21156.56909070 0 2617.68884773 0 144
0.01250000 0.01249090 82267.17877193 0 -9271.77481844 0 9255.23784379 0 23726.84307149 0 3740.49507959 0 169
0.01350000 0.01339930 88674.89598483 0 -895.90252469 0 12787.26278554 0 14436.30194781 0 19881.74691348 0 180
0.01450000 0.01448870 94321.20252723 0 -3843.07756017 0 -8258.97107792 0 8510.50833351 0 18877.66085375 0 267
0.01550000 0.01550050 99309.80109060 0 -2405.88025961 0 -13911.13377231 0 4096.99942310 0 12590.61586365 0 238
0.01650000 0.01653350 93901.62254668 0 2488.16584977 0 -13052.12056867 0 -5512.99035508 0 11508.55868938 0 315
0.01750000 0.01747870 89538.78931512 0 4765.00003290 0 -12196.76746002 0 -18259.21571192 0 4253.54057683 0 297
0.01850000 0.01844180 84008.49669280 0 4366.14949944 0 8246.64875811 0 -6555.88451293 0 -2697.26818584 0 388
0.01950000 0.01947590 79686.70088996 0 7557.89651882 0 8508.43427968 0 -16716.76295233 0 -16169.07964703 0 399
0.02050000 0.02045430 74328.43273230 0 2676.82710986 0 19537.80889611 0 -7095.29378531 0 -5409.87549706 0 462
0.02150000 0.02154770 73663.73729919 0 -2729.75430170 0 17518.43466775 0 12970.71118307 0 -7287.14931012 0 571
0.02250000 0.02255340 75320.54029932 0 -2045.20562606 0 17930.80537028 0 5178.56858470 0 -15351.88025588 0 510
0.02350000 0.02348930 79005.47957340 0 47.50226559 0 9671.26864132 0 626.42525804 0 -2897.28683160 0 555
0.02450000 0.02439640 81577.08449781 0 1087.29665571 0 6390.86968473 0 -2617.12319669 0 -14719.01655802 0 592
0.02550000 0.02547300 73051.61413962 0 2342.21678913 0 10126.85064717 0 -5731.05437828 0 -2951.00149842 0 837
0.02650000 0.02652900 73551.49438608 0 5255.65240349 0 16593.09610636 0 -6030.68306384 0 -22640.46033041 0 723
0.02750000 0.02749970 70635.17506051 0 213.45563087 0 21782.55624646 0 -956.78986858 0 -13688.31162562 0 826
0.02850000 0.02848090 63105.25054039 0 3150.59867870 0 19034.37946663 0 5921.92278656 0 -24569.44130364 0 831
0.02950000 0.02946900 62933.33698770 0 1555.83983431 0 10378.69845627 0 3077.45223483 0 -9206.56967158 0 996
0.03050000 0.03053250 59180.96323617 0 194.66381588 0 12568.54438173 0 3636.42637863 0 -7375.94543289 0 1041
0.03150000 0.03150510 58572.72199553 0 2046.18165139 0 10523.54948841 0 3348.60981782 0 -15562.72390987 0 1036
0.03250000 0.03246190 55963.85064937 0 3035.37223361 0 7252.40059008 0 -3524.61602219 0 330.95466222 0 1059
0.03350000 0.03345080 50366.45628551 0 2156.74979376 0 11508.55868938 0 -1760.94933947 0 -7188.06055658 0 1302
0.03450000 0.03451200 52406.57105217 0 -589.78992540 0 12505.76820700 0 2559.53770214 0 1175.66687651 0 1339
0.03550000 0.03553350 51991.64937434 0 -481.50656959 0 14327.16456984 0 1589.39070507 0 -5326.05932172 0 1365
0.03650000 0.03647120 52738.75240077 0 456.60683244 0 8905.06657374 0 -708.19621666 0 147.68150560 0 1308
0.03750000 0.03744890 52194.50736652 0 -127.04744280 0 12329.75091143 0 928.29547450 0 -533.78825377 0 1579
0.03850000 0.03847530 54510.79293719 0 414.54346802 0 12920.24623695 0 1875.47703916 0 2413.83264783 0 1662
0.03950000 0.03950240 51874.41542259 0 2604.10213147 0 14400.14464576 0 -3423.95231869 0 -729.94938123 0 1683
0.04050000 0.04050350 47832.22869481 0 3469.85878286 0 18182.02098116 0 -2640.68089901 0 -471.69418765 0 1822
0.04150000 0.04152450 44503.76049065 0 1998.45623092 0 19417.02576134 0 -1014.46520183 0 479.86285420 0 1887
0.04250000 0.04250150 42609.05131599 0 908.08065894 0 24179.58573091 0 3336.89751384 0 -957.11484065 0 1920
0.04350000 0.04349210 41537.41986685 0 838.41352355 0 17629.34663723 0 432.51786179 0 -2867.91734208 0 2005
0.04450000 0.04448520 39581.04363715 0 1030.50639997 0 18607.36838412 0 2245.81210526 0 -5287.87233063 0 2151
0.04550000 0.04548030 38319.75272020 0 831.76546010 0 17309.58742921 0 -1591.70876524 0 1457.06163428 0 2274
0.04650000 0.04648670 36571.22552131 0 55.01056227 0 13548.56254407 0 4269.66717719 0 -4464.83896989 0 2311
0.04750000 0.04749250 38639.29010428 0 -704.08138259 0 13309.87998575 0 5424.09441154 0 389.71582365 0 2568
0.04850000 0.04851840 37681.56524780 0 -563.26643702 0 9694.57124611 0 2290.21016664 0 -2666.58993508 0 2493
0.04950000 0.04949480 38157.04486097 0 1253.63799106 0 9056.30613533 0 729.32161948 0 524.47386657 0 2644
0.05050000 0.05050630 35601.07852425 0 1691.23007545 0 10646.31794743 0 -3265.42584071 0 366.67497111 0 2829
0.05150000 0.05149060 33218.02394796 0 1962.32111126 0 13305.77624287 0 -3145.77400803 0 -538.58852381 0 2784
0.05250000 0.05249300 33258.06316894 0 1063.77111786 0 16305.05772161 0 -2271.04457832 0 -988.72807931 0 3055
0.05350000 0.05348950 31271.29705961 0 -263.77417318 0 16380.81059677 0 -288.08274953 0 -3882.25166779 0 3009
0.05450000 0.05448610 32370.98923702 0 -436.12582816 0 16523.33247755 0 2419.89953256 0 113.67589576 0 3336
0.05550000 0.05550870 34597.87976029 0 -1388.40712518 0 13718.70150526 0 2798.68609073 0 -3085.27152868 0 3349
0.05650000 0.05647670 34834.67681513 0 166.21045923 0 14299.99113731 0 698.83302819 0 -2610.45738732 0 3324
0.05750000 0.05747970 34022.02481473 0 1052.71874010 0 14094.58216983 0 -1857.33184095 0 -2794.04997041 0 3639
0.05850000 0.05849280 32995.31271324 0 932.80737342 0 14538.67369564 0 122.54330772 0 -2514.89563442 0 3846
0.05950000 0.05951020 32382.52408185 0 473.21257251 0 14440.84933856 0 1311.11257364 0 -784.99499169 0 3787
0.06050000 0.06049470 31479.36791435 0 850.28997724 0 16233.18676539 0 -709.37299265 0 -3035.92679346 0 3930
0.06150000 0.06148310 30426.81332397 0 754.16146417 0 13920.89402562 0 652.44631520 0 -2165.42310978 0 4083
0.06250000 0.06249100 29041.63373710 0 656.47796529 0 13830.50077049 0 1378.30304476 0 -2467.83568577 0 4303
0.06350000 0.06350600 28503.59977315 0 56.33407480 0 13016.29600253 0 1190.52908042 0 15.63648037 0 4470
0.06450000 0.06451750 28804.94759423 0 66.13037451 0 12593.38866289 0 2645.16174258 0 -1284.87080166 0 4479
0.06550000 0.06550280 28449.03108416 0 -270.08506425 0 11159.51872142 0 1373.61146845 0 156.38587697 0 4636
0.06650000 0.06648880 28792.85818956 0 -359.94816016 0 9373.79164797 0 1790.54065293 0 1225.48853320 0 4653
0.06750000 0.06749660 28914.52862008 0 -14.11510088 0 9222.48553920 0 124.37446434 0 294.27607391 0 5220
0.06850000 0.06852730 29254.14107063 0 143.00989345 0 7086.84229323 0 692.06739806 0 889.48848549 0 5029
0.06950000 0.06949320 27737.53079993 0 615.67345172 0 8447.28851090 0 -471.17733787 0 -214.68342637 0 5040
0.07050000 0.07048030 27971.33323160 0 673.15357990 0 9895.98738269 0 -1137.72389175 0 1913.40893272 0 5475
0.07150000 0.07148790 27288.11549959 0 102.16700434 0 7828.66590992 0 1779.31636162 0 -1410.93334618 0 5509
0.07250000 0.07249820 27152.35924894 0 185.60785357 0 8798.53562706 0 -54.04884458 0 -112.30835118 0 5916
0.07350000 0.07351270 26465.92506982 0 926.71941541 0 7489.16437133 0 -1501.68151961 0 -1729.90507921 0 5721
0.07450000 0.07449140 25397.73189173 0 783.58419143 0 10146.28242422 0 -681.14589642 0 -1541.79837897 0 6028
0.07550000 0.07549160 23886.00174769 0 957.49194134 0 9819.65776529 0 -1468.59647911 0 -2698.77658862 0 6183
0.07650000 0.07648840 24082.75958155 0 400.58630578 0 9629.55464960 0 601.34251614 0 -3083.26402203 0 6330
0.07750000 0.07749960 23000.81331925 0 20.30154872 0 10718.65473393 0 1373.84438358 0 -2581.53154568 0 6583
0.07850000 0.07848650 23038.19065297 0 229.57446739 0 9340.01895326 0 440.79078560 0 -1524.59593250 0 6549
0.07950000 0.07947320 23090.54110257 0 205.96685469 0 9395.16438449 0 1111.87031167 0 -2131.88333021 0 6828
0.08050000 0.08048110 22101.31724675 0 279.66009457 0 9192.49494266 0 -42.34552448 0 -966.97269649 0 7147
0.08150000 0.08149960 22303.28794318 0 295.02583882 0 8321.28142237 0 361.78153501 0 200.95474279 0 7386
0.08250000 0.08250610 21617.40832390 0 179.04519234 0 8884.60331537 0 567.12173707 0 -1067.74509373 0 7227
0.08350000 0.08350160 21284.45059152 0 625.75091326 0 8962.74079787 0 16.46754376 0 -57.49687589 0 7798
0.08450000 0.08449610 20580.15958530 0 406.81955846 0 7882.53585350 0 136.29195546 0 426.48646889 0 7371
0.08550000 0.08548940 20489.87724215 0 -114.78612458 0 9174.66029796 0 1134.35216788 0 -383.81641599 0 8256
0.08650000 0.08650700 20352.23548802 0 -170.77670501 0 7122.68904177 0 1299.51118164 0 1599.26187036 0 8037
0.08750000 0.08749060 20290.67934496 0 88.69951844 0 6119.02444753 0 1508.93516241 0 1499.44109782 0 8155
0.08850000 0.08849210 20755.06776118 0 -312.34141550 0 6204.44884643 0 907.33643962 0 2769.03932129 0 8718
0.08950000 0.08949900 20421.55546895 0 306.10594457 0 5604.24872357 0 -164.09980445 0 1838.34371177 0 8571
0.09050000 0.09049190 20281.36273952 0 252.07628776 0 5911.94070931 0 -87.84239074 0 3069.81040013 0 8932
0.09150000 0.09150830 19977.13120723 0 301.85579790 0 6683.57746339 0 -1257.91919308 0 1698.93845733 0 9285
0.09250000 0.09250820 19862.67005472 0 582.38766055 0 7880.78344438 0 -501.87888015 0 1186.43642875 0 9204
0.09350000 0.09350330 19004.32232290 0 299.30925908 0 7777.10293531 0 -555.21644627 0 624.44104290 0 9349
0.09450000 0.09448040 19048.46528676 0 355.75679683 0 10253.67848427 0 -385.72188363 0 937.87383218 0 9564
0.09550000 0.09549270 18629.10713014 0 154.70556063 0 8227.11716028 0 325.62866944 0 829.20561184 0 10155
0.09650000 0.09649430 18489.24713663 0 -183.97412026 0 8943.34229441 0 1171.92914314 0 347.13006385 0 9913
0.09750000 0.09749140 18658.38789009 0 14.14183067 0 7255.80558754 0 1102.10451275 0 1271.65009490 0 10476
0.09850000 0.09850240 18577.64397630 0 170.80665124 0 7187.77218546 0 823.39604288 0 627.29702612 0 10575
0.09950000 0.09950330 17871.80020252 0 512.33566063 0 6709.73050580 0 -692.64746766 0 1049.57438577 0 10882
0.10050000 0.10051200 17212.65036789 0 497.70193538 0 6536.47491827 0 124.22251494 0 887.80595092 0 10875
0.10150000 0.10150300 17010.67967146 0 -79.15066334 0 6670.73385733 0 698.90290273 0 1484.12415484 0 11118
0.10250000 0.10250800 17078.22506087 0 -11.38222996 0 5779.23453783 0 862.60342409 0 924.64203422 0 11575
0.10350000 0.10349800 17032.97297732 0 127.04855192 0 5436.16163382 0 225.52063491 0 608.87676623 0 11364
0.10450000 0.10450100 16435.60110969 0 276.78303808 0 5160.16828896 0 -382.93577495 0 394.89541262 0 12093
0.10550000 0.10551000 16338.22040049 0 286.03309634 0 6090.24279145 0 -134.43972557 0 1052.48360673 0 12067
0.10650000 0.10649700 16177.28713277 0 127.39792463 0 5693.74359175 0 -161.62646753 0 123.94856238 0 12054
0.10750000 0.10749900 15945.70294049 0 238.80456149 0 5489.74320628 0 32.82639378 0 -289.17190507 0 12807
0.10850000 0.10850100 15433.06781754 0 502.53104253 0 6423.44453017 0 -793.25349693 0 -451.66903156 0 12736
0.10950000 0.10950300 14870.74413227 0 404.74217727 0 6540.83375867 0 -203.71312347 0 -639.54725315 0 12933
0.11050000 0.11050200 14753.06653265 0 19.15549534 0 7269.24811824 0 547.85632798 0 -465.25352958 0 13428
0.11150000 0.11150900 14661.34233389 0 -109.46545558 0 5736.07869050 0 624.21810984 0 -538.20809575 0 13453
0.11250000 0.11250000 14951.26622211 0 52.07117326 0 6454.91025591 0 453.18187083 0 -459.00474922 0 13668
0.11350000 0.11349100 14569.83995906 0 91.69957630 0 5210.93269740 0 468.98793560 0 343.14832414 0 13791
0.11450000 0.11448600 14543.77564623 0 -16.99870118 0 5729.41288113 0 242.44025585 0 375.75089757 0 14205
0.11550000 0.11549300 14556.75234666 0 255.29828047 0 5043.98800093 0 1.00106038 0 -320.09748952 0 14776
0.11650000 0.11649800 14084.48918061 0 405.82245986 0 6185.18343733 0 -582.41317031 0 -75.42934494 0 14553
0.11750000 0.11747300 13486.45184116 0 353.75927226 0 5621.85045313 0 -262.99002556 0 -276.16193105 0 14568
0.11850000 0.11849100 13532.81304440 0 -164.97711813 0 5898.98619128 0 559.25475108 0 160.17795721 0 16015
0.11950000 0.11950300 13600.02569791 0 -93.33630424 0 4819.60199547 0 660.23788105 0 -808.80446417 0 15270
0.12050000 0.12050700 13720.58700874 0 -86.61991901 0 4405.52324861 0 834.98190721 0 -661.10964913 0 15999
0.12150000 0.12150000 13743.76761036 0 -20.83481347 0 4216.72889415 0 390.47113416 0 -348.82590786 0 15670
0.12250000 0.12250700 13417.24277220 0 186.99314407 0 3483.44549912 0 221.21946873 0 -46.51281991 0 16887
0.12350000 0.12352200 13563.53565995 0 -33.43208405 0 3332.03956958 0 350.24114459 0 -827.21917847 0 16407
0.12450000 0.12449800 13440.42337383 0 -11.57610408 0 2523.91277754 0 347.88204700 0 -281.32377411 0 16306
0.12550000 0.12549900 13113.01123991 0 175.33629608 0 2906.01560360 0 97.43272692 0 -766.06010026 0 17523
0.12650000 0.12650100 13097.37265222 0 356.89142628 0 3000.11331851 0 -679.17277248 0 -194.60170517 0 17154
0.12750000 0.12750600 12665.81417896 0 166.07292838 0 3031.61231784 0 -137.03173830 0 -1220.32003543 0 18007
0.12850000 0.12850300 12530.83431210 0 186.19457789 0 3898.78864244 0 -316.31206401 0 -434.69173639 0 17496
0.12950000 0.12949900 12477.48565478 0 161.59652130 0 3230.22238159 0 -227.99397183 0 -1050.90754764 0 18405
0.13050000 0.13049000 12364.13362197 0 -53.27234989 0 3973.23275635 0 464.16437404 0 -710.13384876 0 18100
0.13150000 0.13148800 12547.24928359 0 -73.20478357 0 3374.06411482 0 315.53789846 0 -505.44580909 0 19059
0.13250000 0.13249300 12333.85465430 0 86.98304480 0 3486.90595257 0 313.81099909 0 -508.18311649 0 18957
0.13350000 0.13349100 12374.67025907 0 170.64582889 0 3194.36454186 0 68.25167684 0 -120.51250956 0 19468
0.13450000 0.13450700 12086.07731448 0 307.39474166 0 3317.29936883 0 -38.14928102 0 149.30082036 0 19953
0.13550000 0.13551000 11611.70682100 0 178.75571209 0 3453.72109130 0 90.33225354 0 615.27084127 0 19956
0.13650000 0.13649900 11612.15046888 0 65.46468087 0 3322.11294831 0 204.89100858 0 502.01530187 0 19723
0.13750000 0.13749600 11493.58557350 0 89.61576222 0 3463.63662137 0 282.41847525 0 402.07696265 0 20946
0.13850000 0.13851100 11350.17639696 0 49.09096864 0 2768.97277411 0 92.25069788 0 258.96724842 0 20955
0.13950000 0.13949800 11274.97808165 0 1.13520619 0 2901.59021602 0 137.34007357 0 14.57771471 0 20506
0.14050000 0.14048300 11456.20823979 0 54.80271324 0 2811.41878483 0 -302.48910525 0 38.46482558 0 21447
0.14150000 0.14148400 11150.20211599 0 191.22887218 0 3177.70556404 0 -207.77693803 0 -592.68140044 0 21771
0.14250000 0.14249400 10989.94541128 0 307.87166313 0 3076.08801760 0 -470.10481913 0 -776.14421652 0 22470
0.14350000 0.14350900 10648.48073084 0 69.76063418 0 3518.28294873 0 -80.84506550 0 -999.61297999 0 22519
0.14450000 0.14449900 10731.39851922 0 -45.41301682 0 3497.76423438 0 240.00130164 0 -838.21388200 0 22218
0.14550000 0.14550500 10611.51377141 0 121.26782007 0 3391.86548592 0 257.31687832 0 -1176.54308107 0 23559
0.14650000 0.14650700 10575.24555739 0 175.84981849 0 3214.31760517 0 -164.39483029 0 -1195.70866940 0 23044
0.14750000 0.14750500 10286.15350893 0 132.31576135 0 3444.85922494 0 165.61486195 0 -483.78359233 0 23649
0.14850000 0.14849900 10253.20156280 0 45.31308513 0 3176.27479964 0 437.08632581 0 -185.94502596 0 23640
0.14950000 0.14949500 10294.40535946 0 -30.96340543 0 3111.89040135 0 273.72741332 0 273.12183397 0 24457
0.15050000 0.15050000 10136.48889731 0 85.47209104 0 3006.98986062 0 165.94427050 0 -78.55728430 0 24591
0.15150000 0.15149900 10116.81311393 0 186.92105129 0 2945.83300064 0 119.19487536 0 871.06268000 0 25020
0.15250000 0.15250500 9856.58035993 0 71.60432385 0 3011.24888025 0 -17.54782634 0 565.75419249 0 25297
0.15350000 0.15350100 9756.84831697 0 120.51029132 0 3209.63712006 0 136.79771404 0 970.64166444 0 25452
0.15450000 0.15450400 9765.98746326 0 81.68699826 0 3139.21911063 0 -41.11684168 0 838.11738859 0 26061
0.15550000 0.15549900 9642.05442856 0 29.72939886 0 3074.95671552 0 144.43067578 0 798.96989984 0 26128
0.15650000 0.15649500 9630.43085416 0 92.90807312 0 3215.03853297 0 -201.03016293 0 743.81226830 0 26331
0.15750000 0.15749700 9498.02414499 0 172.45036663 0 3130.53470342 0 -135.35696756 0 436.45080023 0 27345
0.15850000 0.15849900 9379.00451054 0 20.37053596 0 3097.99313158 0 19.92500258 0 444.21241985 0 26980
0.15950000 0.15949700 9401.14253965 0 6.65268848 0 3102.01923607 0 238.60381083 0 61.36171438 0 27777
0.16050000 0.16050000 9194.32499015 0 303.51836833 0 3101.24285228 0 -239.26151881 0 252.86376274 0 28224
0.16150000 0.16150500 8917.99890938 0 265.36021435 0 3220.61740504 0 -275.55635170 0 -39.59623858 0 28075
0.16250000 0.16249700 8555.31676918 0 96.97776602 0 3272.15819726 0 309.96013551 0 174.51222014 0 28590
0.16350000 0.16349900 8606.82428781 0 -78.71821757 0 2880.41712104 0 521.42822389 0 251.86777326 0 29163
0.16450000 0.16449100 8467.76286047 0 30.91604602 0 2865.98747381 0 19.25642523 0 -45.24542883 0 28996
0.16550000 0.16550500 8565.82013269 0 155.04273302 0 2809.00090389 0 48.57245518 0 367.24173127 0 30777
0.16650000 0.16650700 8348.98723235 0 44.58073340 0 2575.95267362 0 -34.52833796 0 -615.73334418 0 29211
0.16750000 0.16749900 8242.46737686 0 97.54108791 0 2681.39668301 0 46.23265627 0 389.25664809 0 30922
0.16850000 0.16850800 8011.69284196 0 166.11285669 0 2310.36287150 0 -61.58043278 0 -721.41248694 0 30867
0.16950000 0.16949900 8114.46387288 0 87.48691788 0 2439.09839447 0 -38.30500143 0 -267.83022391 0 30852
0.17050000 0.17049200 7845.40252611 0 -23.30837221 0 2575.81957926 0 230.36970621 0 -997.43688715 0 31257
0.17150000 0.17149500 7790.07963574 0 132.05400910 0 2037.55270016 0 -166.83267538 0 -710.90357783 0 32608
0.17250000 0.17250900 7741.34491634 0 96.09512857 0 2336.38281954 0 60.70056813 0 -649.33301621 0 32361
0.17350000 0.17350400 7632.83973660 0 -35.45733661 0 1849.10217281 0 143.71307534 0 -1105.24886709 0 32508
0.17450000 0.17449800 7659.79134518 0 -10.25705021 0 2155.97340998 0 261.73672030 0 -536.50448790 0 32791
0.17550000 0.17549800 7782.34907146 0 -39.90235561 0 1605.22893432 0 314.27017465 0 -853.78037692 0 33633
0.17650000 0.17650100 7844.17140325 0 -1.37720502 0 1801.07729003 0 15.68794352 0 -359.91155921 0 33984
0.17750000 0.17750300 7719.77253828 0 145.75829205 0 1585.07622946 0 -155.83464448 0 -545.21440486 0 34069
0.17850000 0.17849800 7706.85129384 0 85.23573764 0 2186.57402236 0 1.45909132 0 160.26335942 0 34536
