### header ###
fiducial parameters:
Omega_m = 0.31
Omega_nu = 0
Omega_de = 0.69
Omega_k = 0
H_0 = 100
w_de = -1
zeff = 0
beta = 0
fgrowth = 0
b_1 = 2
gamma = 0.55
Lx = 3500 Ly = 3500 Lz = 3500
nx = 700 ny = 700 nz = 700
xoffset = 1379.75464 yoffset = 22.6059522 zoffset = 368.141391
bins = 400 dk = 0.001
kx_ny = 0.628318531 ky_ny = 0.628318531 kz_ny = 0.628318531
############################
A(data) = 3.37280526 (not used)
A(ran) = 3.3771488 (used)
Ngal = 189548
weighted Ngal = 0
Nran = 9399747
weighted Nran = 0
SN(data) = 6625.17737
SN(ran) = 134.327387
SN(data+ran) = 6759.50476
############################
13 columns: k_central k_mean P_0(k) sigma^{lin}_{P_0(k)} P^img_1(k) sigma^{lin}_{P_1(k)} P_2(k) sigma^{lin}_{P_2(k)} P^img_3(k) sigma^{lin}_{P_3(k)} P_4(k) sigma^{lin}_{P_4(k)} N_modes
### header ###
0.00050000 0 0 0 0 0 0 0 0 0 0 0 0
0.00150000 0.00179520 9290.46348530 0 -10668.71107407 0 -7229.57490676 0 4412.93216817 0 60283.65003677 0 3
0.00250000 0.00253879 21496.29245323 0 -15770.79476462 0 -21659.11122443 0 7462.95587294 0 -13158.81788331 0 6
0.00350000 0.00331552 39602.89329514 0 -19185.66339300 0 -33788.44420700 0 6553.45554080 0 4075.99269608 0 7
0.00450000 0.00420575 60445.35968827 0 -18963.39580616 0 -35222.86870832 0 -14712.25092788 0 -14375.30036459 0 24
0.00550000 0.00557378 72237.07663574 0 1488.70481918 0 -13903.25902247 0 -32839.14866021 0 -10335.57588253 0 45
0.00650000 0.00659388 62836.28901440 0 5009.12836892 0 -29820.67941075 0 -16729.07418094 0 -10126.61773203 0 40
0.00750000 0.00754703 72592.54949793 0 -8303.67969282 0 15242.85378988 0 -3343.51895842 0 9104.31992692 0 57
0.00850000 0.00846663 78463.34186657 0 -12092.84294462 0 -19841.26404461 0 2141.56594514 0 -15564.72032532 0 75
0.00950000 0.00948925 88214.94404738 0 -569.05049622 0 -13281.59743353 0 2871.65507546 0 -11830.86887270 0 112
0.01050000 0.01054430 93493.46649898 0 -2649.27657664 0 2179.75293623 0 76.26307022 0 19155.93898518 0 105
0.01150000 0.01145670 85799.83591191 0 -507.96461991 0 -21115.97530987 0 7512.13424021 0 5430.52730577 0 144
0.01250000 0.01249090 94541.47369862 0 2796.11293304 0 -485.45281747 0 -1190.36271247 0 16838.32247088 0 169
0.01350000 0.01339930 77927.08249412 0 9038.23857550 0 -6873.63621430 0 -7107.57174033 0 15055.30164949 0 180
0.01450000 0.01448870 69996.10029235 0 4315.36290861 0 -5934.07873842 0 7076.50529768 0 28005.71594214 0 267
0.01550000 0.01550050 72054.40462201 0 -3203.49259695 0 8950.97303791 0 11337.97608032 0 19826.29092873 0 238
0.01650000 0.01653350 72506.81454552 0 -5231.89505963 0 -15127.50534162 0 8600.56885273 0 24718.39607866 0 315
0.01750000 0.01747870 77221.79328018 0 -2379.62739644 0 -6033.86623736 0 6320.19657778 0 29891.66307122 0 297
0.01850000 0.01844180 82225.47587140 0 -1353.91350267 0 -22969.31431992 0 -11486.15447155 0 22692.92169197 0 388
0.01950000 0.01947590 81961.17264813 0 198.74648547 0 -5478.49673257 0 -2638.07446773 0 12397.29630085 0 399
0.02050000 0.02045430 81330.63810162 0 2342.33879230 0 -3391.39965565 0 -9980.48012104 0 4654.40970812 0 462
0.02150000 0.02154770 77118.53423659 0 4982.39858428 0 10682.83016779 0 -13996.09234093 0 1849.92292139 0 571
0.02250000 0.02255340 73351.40919313 0 5842.56527240 0 20855.99765341 0 -12106.81785277 0 -1577.16820604 0 510
0.02350000 0.02348930 70079.72791734 0 2952.85372831 0 32183.10436072 0 -3440.41165496 0 -10960.56483057 0 555
0.02450000 0.02439640 67584.20860399 0 -185.91507972 0 24408.61894789 0 4190.96404364 0 -18446.54602838 0 592
0.02550000 0.02547300 63477.24928604 0 2631.98540060 0 35503.25416717 0 1002.84384566 0 -2964.69912665 0 837
0.02650000 0.02652900 61006.57425385 0 4624.78512108 0 28045.86607509 0 618.94979129 0 -8301.90510130 0 723
0.02750000 0.02749970 59931.83726957 0 699.01159646 0 32639.95076302 0 9364.03139466 0 2769.86006986 0 826
0.02850000 0.02848090 55313.01921245 0 -780.72266262 0 24193.67155104 0 7479.63703315 0 -7298.99470846 0 831
0.02950000 0.02946900 58747.63017141 0 -666.88816274 0 19656.81743937 0 5272.83266756 0 5158.18296471 0 996
0.03050000 0.03053250 56291.37369525 0 662.08789270 0 16521.44697407 0 3241.01411622 0 2814.20267526 0 1041
0.03150000 0.03150510 56627.43696278 0 1154.79324386 0 7243.36126457 0 3385.51023007 0 4360.70372174 0 1036
0.03250000 0.03246190 59672.52508492 0 -2415.21904744 0 13274.38815551 0 1181.11265421 0 -5419.10337292 0 1059
0.03350000 0.03345080 57052.00798196 0 2270.39019770 0 10723.93414368 0 -8769.03304317 0 -11514.43702377 0 1302
0.03450000 0.03451200 50369.89455657 0 5977.76696320 0 17155.97435148 0 -11215.86200192 0 -11768.53634585 0 1339
0.03550000 0.03553350 48741.92866851 0 2875.00461693 0 22718.76418086 0 -3712.58962807 0 -18048.48296990 0 1365
0.03650000 0.03647120 46592.01105206 0 102.89369956 0 26856.11337846 0 4156.55915071 0 -18696.09795971 0 1308
0.03750000 0.03744890 44512.63344821 0 229.31271514 0 21522.80041393 0 6166.74986800 0 -18392.64281121 0 1579
0.03850000 0.03847530 43931.56564009 0 -639.99644662 0 18370.34950534 0 5122.39167216 0 -9698.95226890 0 1662
0.03950000 0.03950240 44869.65907797 0 -591.49131501 0 14063.97046625 0 4909.90652102 0 -10354.70819727 0 1683
0.04050000 0.04050350 44783.92412556 0 1180.26972325 0 11112.04839849 0 2263.03673412 0 -5497.60686492 0 1822
0.04150000 0.04152450 41773.32962594 0 1298.34660596 0 10932.32664314 0 729.81074127 0 209.14670085 0 1887
0.04250000 0.04250150 40771.57271757 0 273.51002586 0 7315.58713909 0 1108.01501161 0 465.34669564 0 1920
0.04350000 0.04349210 41625.04032274 0 -1696.03256373 0 8211.12365428 0 6708.19992062 0 -217.57157405 0 2005
0.04450000 0.04448520 42800.26355137 0 -617.18074538 0 3358.19261198 0 2016.33524040 0 240.62573603 0 2151
0.04550000 0.04548030 41751.03632007 0 2008.44939937 0 4914.63137092 0 -3351.77080895 0 142.60062828 0 2274
0.04650000 0.04648670 39819.17163563 0 1662.24877783 0 7799.40733237 0 -4889.42108026 0 1639.19017937 0 2311
0.04750000 0.04749250 38129.53869254 0 824.85897176 0 11852.38579478 0 1212.11254968 0 1680.64907356 0 2568
0.04850000 0.04851840 38494.77180804 0 -289.76750235 0 10184.08122342 0 398.58323561 0 1276.35276241 0 2493
0.04950000 0.04949480 38886.06923638 0 599.96277124 0 11652.96607365 0 1416.74513338 0 -244.24812095 0 2644
0.05050000 0.05050630 38475.25130141 0 960.30134153 0 14846.56532292 0 -4777.94345973 0 2249.35019708 0 2829
0.05150000 0.05149060 36886.77007449 0 1580.44010914 0 17259.12248310 0 -2665.75809531 0 1299.55554642 0 2784
0.05250000 0.05249300 36330.32472360 0 1263.19860283 0 21468.45354889 0 -2853.35460049 0 -1872.49350718 0 3055
0.05350000 0.05348950 35350.08473731 0 570.34594803 0 21129.06292227 0 736.33569243 0 -2706.51824409 0 3009
0.05450000 0.05448610 35327.23687160 0 -696.48724004 0 21725.21475824 0 3113.82026962 0 1807.96492333 0 3336
0.05550000 0.05550870 37037.49944102 0 -812.79507684 0 19478.36008047 0 4234.60790363 0 315.44695064 0 3349
0.05650000 0.05647670 36236.27137348 0 798.18464310 0 16941.13786659 0 1586.55135866 0 1549.69531120 0 3324
0.05750000 0.05747970 35489.83381886 0 697.55088583 0 15509.81890042 0 2029.56703836 0 3488.91345921 0 3639
0.05850000 0.05849280 33732.21183848 0 405.72707556 0 16208.56430816 0 1434.95687877 0 5929.68662443 0 3846
0.05950000 0.05951020 33598.11926737 0 471.30488664 0 11851.83123493 0 1694.87907925 0 4634.21263848 0 3787
0.06050000 0.06049470 33486.98547395 0 68.38022381 0 12507.65371048 0 2964.72130905 0 2808.66816799 0 3930
0.06150000 0.06148310 31929.11595060 0 7.49829243 0 10358.61229860 0 -1040.28661744 0 3400.11733645 0 4083
0.06250000 0.06249100 31919.79934517 0 500.27509307 0 10208.85895740 0 1500.68331188 0 2712.72931438 0 4303
0.06350000 0.06350600 31733.35632447 0 612.08766774 0 9119.65905230 0 -531.76411032 0 -606.35906452 0 4470
0.06450000 0.06451750 30548.04010661 0 526.97382236 0 10047.77041292 0 -1511.89651200 0 -1443.66346837 0 4479
0.06550000 0.06550280 30311.46487571 0 560.12319180 0 9655.48586806 0 948.46037967 0 164.78745866 0 4636
0.06650000 0.06648880 30091.08279234 0 -188.83982836 0 9675.71621130 0 -664.81854539 0 -2958.73206270 0 4653
0.06750000 0.06749660 30187.13255792 0 28.55195739 0 9050.00633546 0 1422.59019417 0 -2357.31190818 0 5220
0.06850000 0.06852730 29418.95625728 0 307.96039270 0 8921.64791318 0 136.85427914 0 -1830.56878271 0 5029
0.06950000 0.06949320 29801.49164003 0 264.24443993 0 10148.54502840 0 -315.57339029 0 -1450.16290978 0 5040
0.07050000 0.07048030 28820.25344602 0 706.21865624 0 9187.90318712 0 -133.93729435 0 -2496.59515945 0 5475
0.07150000 0.07148790 28208.35211038 0 924.85498520 0 10672.37116906 0 -1593.87154864 0 -2758.76887292 0 5509
0.07250000 0.07249820 26910.68206744 0 811.29776525 0 12666.92329866 0 -1170.48728754 0 -1998.81114922 0 5916
0.07350000 0.07351270 26320.40856586 0 327.14150871 0 11387.22099477 0 805.96400864 0 -2862.49374678 0 5721
0.07450000 0.07449140 26412.57641250 0 114.66855789 0 11841.96006965 0 553.49065603 0 -4018.55138708 0 6028
0.07550000 0.07549160 25743.22267667 0 380.51567578 0 11864.69702339 0 9.23132522 0 -3170.84011313 0 6183
0.07650000 0.07648840 24958.96414046 0 372.11409409 0 9490.44885747 0 758.64230774 0 -3967.69824908 0 6330
0.07750000 0.07749960 24978.37373512 0 256.32088883 0 11550.26158991 0 656.61327789 0 -2718.03090653 0 6583
0.07850000 0.07848650 24376.78721265 0 402.20562053 0 9320.33207868 0 -134.22344723 0 -4679.96382589 0 6549
0.07950000 0.07947320 23702.88608608 0 554.12729073 0 10537.00311031 0 -179.50547701 0 -3483.11276321 0 6828
0.08050000 0.08048110 23018.55923437 0 408.30688797 0 10233.75869455 0 -210.39446051 0 -3161.91169959 0 7147
0.08150000 0.08149960 23078.56260986 0 9.42648592 0 9963.05585063 0 822.27805023 0 -3746.11831644 0 7386
0.08250000 0.08250610 23602.73257763 0 -350.47073237 0 9508.28350217 0 1303.17127663 0 -2822.89817367 0 7227
0.08350000 0.08350160 22954.00846813 0 -40.05208677 0 9388.57621350 0 676.82032961 0 -3004.09505821 0 7798
0.08450000 0.08449610 23732.27775799 0 411.82279741 0 8024.13716493 0 -205.92581726 0 -977.01355709 0 7371
0.08550000 0.08548940 23006.80256561 0 227.47268557 0 9237.35883431 0 388.07654474 0 -3308.00494579 0 8256
0.08650000 0.08650700 22593.76639125 0 566.97422416 0 10108.63890178 0 -784.65227370 0 -1598.05292989 0 8037
0.08750000 0.08749060 22026.22984341 0 351.18167809 0 8961.69822536 0 318.84307515 0 -2495.79659327 0 8155
0.08850000 0.08849210 21733.75497989 0 -132.94130486 0 9343.20212679 0 1533.52434605 0 -1648.66206157 0 8718
0.08950000 0.08949900 21692.05207936 0 4.78587367 0 7426.88730047 0 805.84976931 0 -2606.96366029 0 8571
0.09050000 0.09049190 21402.35001508 0 506.12015386 0 7678.94584231 0 203.21623784 0 -1442.15506559 0 8932
0.09150000 0.09150830 20450.72531692 0 689.02508273 0 6796.53021311 0 -175.72781533 0 -1770.53213363 0 9285
0.09250000 0.09250820 19743.99424738 0 330.84153201 0 6131.79041522 0 1096.05981042 0 -855.63593417 0 9204
0.09350000 0.09350330 18887.86475495 0 399.21987031 0 7171.23521081 0 66.57579698 0 -734.07641562 0 9349
0.09450000 0.09448040 19262.63629983 0 53.69547905 0 5687.13323837 0 498.23320371 0 -1188.65466814 0 9564
0.09550000 0.09549270 18741.12821932 0 -162.01355030 0 6284.37201164 0 1539.41377163 0 445.74744151 0 10155
0.09650000 0.09649430 18815.77197478 0 319.63609573 0 5188.10701408 0 -641.39726480 0 30.95996716 0 9913
0.09750000 0.09749140 18490.79990420 0 516.43940350 0 5961.01925581 0 -200.21274171 0 584.72790311 0 10476
0.09850000 0.09850240 18205.42340672 0 19.57041702 0 6168.76846584 0 775.31681323 0 525.19812173 0 10575
0.09950000 0.09950330 17948.77310934 0 -36.80469522 0 5863.86037054 0 59.20026192 0 810.86188121 0 10882
0.10050000 0.10051200 18190.33937887 0 134.65600391 0 5395.33493786 0 486.17818175 0 437.40907965 0 10875
0.10150000 0.10150300 17597.51490199 0 305.15321076 0 5916.31064091 0 -67.03508344 0 977.78106792 0 11118
0.10250000 0.10250800 17483.60830933 0 537.52598714 0 6212.03522514 0 -778.05633888 0 2029.20102886 0 11575
0.10350000 0.10349800 16683.04571361 0 350.95763591 0 6791.45044491 0 -280.30227487 0 -277.69362535 0 11364
0.10450000 0.10450100 16423.84444093 0 285.86451014 0 7684.70217353 0 -35.80149645 0 940.18191027 0 12093
0.10550000 0.10551000 16012.47194612 0 337.40862972 0 7128.51192017 0 -513.90284676 0 -444.49413626 0 12067
0.10650000 0.10649700 15957.79234516 0 165.05032003 0 8082.14412497 0 162.55369159 0 655.96222463 0 12054
0.10750000 0.10749900 15519.91188965 0 24.75865712 0 7448.38204015 0 342.17673529 0 -318.68668927 0 12807
0.10850000 0.10850100 15756.48712055 0 61.43979641 0 7282.81265211 0 829.43298138 0 -99.24203388 0 12736
0.10950000 0.10950300 15666.75933724 0 -14.62008308 0 6464.70378282 0 654.43607593 0 -99.95364507 0 12933
0.11050000 0.11050200 15334.91072455 0 214.35845430 0 6700.28080600 0 134.42641613 0 356.42448689 0 13428
0.11150000 0.11150900 15024.68994591 0 409.41378943 0 6480.55310326 0 -399.97296259 0 397.36764042 0 13453
0.11250000 0.11250000 14838.46874915 0 99.14720414 0 5744.55236497 0 672.87297262 0 740.80100833 0 13668
0.11350000 0.11349100 14330.15919301 0 93.66471458 0 6499.23067892 0 678.51617362 0 578.54788817 0 13791
0.11450000 0.11448600 14582.15118768 0 40.46800666 0 5231.47359414 0 196.83990872 0 578.67876429 0 14205
0.11550000 0.11549300 14325.72271423 0 223.85695537 0 5443.34872945 0 489.67856350 0 1024.68906717 0 14776
0.11650000 0.11649800 13833.82812958 0 365.08892994 0 5879.21058712 0 -720.69045002 0 689.56744226 0 14553
0.11750000 0.11747300 13732.78732538 0 274.94079027 0 5557.61024041 0 -611.75715007 0 649.47165618 0 14568
0.11850000 0.11849100 13198.30254445 0 164.06320350 0 6598.08651732 0 -276.43033802 0 -262.51310409 0 16015
0.11950000 0.11950300 13622.09717984 0 -64.21237382 0 6154.88228726 0 615.21205792 0 -442.28809718 0 15270
0.12050000 0.12050700 13350.69559051 0 -112.35826156 0 5785.96689437 0 279.19980990 0 -561.44748072 0 15999
0.12150000 0.12150000 13644.39048570 0 16.23595956 0 5689.26274818 0 332.05490895 0 -607.59351474 0 15670
0.12250000 0.12250700 13564.42295571 0 15.95036124 0 5199.23148462 0 292.72441546 0 -614.56987762 0 16887
0.12350000 0.12352200 13386.63106863 0 128.69559467 0 5056.15504398 0 127.11177174 0 -747.34481453 0 16407
0.12450000 0.12449800 13509.85426672 0 78.48796432 0 4682.45934521 0 71.47721873 0 -359.78511956 0 16306
0.12550000 0.12549900 13116.89315885 0 125.95828726 0 4869.91166483 0 123.90530671 0 -1216.53793727 0 17523
0.12650000 0.12650100 12835.62040424 0 374.14045577 0 4650.15068850 0 -118.96085111 0 -787.31859745 0 17154
0.12750000 0.12750600 12628.43684525 0 288.23580805 0 4833.80981876 0 -9.46472837 0 -663.49203824 0 18007
0.12850000 0.12850300 12165.60119660 0 8.10429325 0 4636.66379301 0 636.96300426 0 -822.19264801 0 17496
0.12950000 0.12949900 12101.60499021 0 -14.49364344 0 4086.54042438 0 710.35345446 0 429.24928605 0 18405
0.13050000 0.13049000 12263.86920156 0 -115.71334864 0 3763.03239179 0 870.10883707 0 32.53635898 0 18100
0.13150000 0.13148800 12382.54500890 0 -245.44707934 0 2752.97926811 0 769.99082045 0 848.72279111 0 19059
0.13250000 0.13249300 12590.50495168 0 24.78339049 0 2749.72954740 0 217.48949920 0 792.04122911 0 18957
0.13350000 0.13349100 12390.19793480 0 36.11049720 0 2267.19593297 0 -25.82374477 0 783.66848453 0 19468
0.13450000 0.13450700 12446.43030333 0 133.44484520 0 2467.97987133 0 -229.34377050 0 948.97612033 0 19953
0.13550000 0.13551000 12323.98348902 0 -69.40449585 0 2345.43323625 0 -101.33671733 0 -31.42357919 0 19956
0.13650000 0.13649900 12424.46973337 0 162.25312016 0 2475.94335074 0 96.33259109 0 237.01333319 0 19723
0.13750000 0.13749600 12018.64283703 0 265.21491967 0 2660.22358803 0 -450.49003733 0 -826.16329652 0 20946
0.13850000 0.13851100 11836.08173527 0 297.81305662 0 2675.34088947 0 -395.58750331 0 -93.04992953 0 20955
0.13950000 0.13949800 11594.95911361 0 93.42226101 0 3238.98442718 0 135.37693171 0 -246.23677257 0 20506
0.14050000 0.14048300 11246.69552944 0 206.23304341 0 3065.70665726 0 222.29420572 0 38.32784929 0 21447
0.14150000 0.14148400 11378.79168509 0 60.82179491 0 3210.29150068 0 331.94177875 0 168.79914459 0 21771
0.14250000 0.14249400 10989.46848981 0 148.92039230 0 3135.68101881 0 -255.57888776 0 116.64168183 0 22470
0.14350000 0.14350900 11068.72618321 0 122.80727821 0 2965.94134071 0 258.95061163 0 330.47330427 0 22519
0.14450000 0.14449900 11023.64046761 0 -122.32813850 0 3285.46763359 0 155.86569983 0 357.94065351 0 22218
0.14550000 0.14550500 10940.61176726 0 163.27905587 0 2990.39742998 0 -409.19529285 0 94.29280906 0 23559
0.14650000 0.14650700 11042.26258729 0 92.61526552 0 3037.11355153 0 220.56397899 0 122.58434515 0 23044
0.14750000 0.14750500 10734.63714873 0 35.84131385 0 3242.54470140 0 111.78817404 0 444.78250738 0 23649
0.14850000 0.14849900 10735.29152935 0 243.06912672 0 3123.42524618 0 -158.83259502 0 18.10005704 0 23640
0.14950000 0.14949500 10511.06080065 0 220.96658944 0 3588.59004619 0 -98.78585295 0 587.62714199 0 24457
0.15050000 0.15050000 10149.80942485 0 152.91765968 0 3676.34359644 0 19.03903777 0 409.98387695 0 24591
0.15150000 0.15149900 10059.67126725 0 72.11706988 0 3747.18307135 0 342.13680698 0 846.23947211 0 25020
0.15250000 0.15250500 10039.86238950 0 40.43151662 0 3449.34006850 0 255.32711759 0 470.63165098 0 25297
0.15350000 0.15350100 9979.94774359 0 73.02998631 0 3135.64774522 0 200.91703272 0 920.12126235 0 25452
0.15450000 0.15450400 9783.28973050 0 98.63589996 0 3320.49363356 0 -4.28858876 0 1054.89816030 0 26061
0.15550000 0.15549900 9634.71205618 0 178.51281488 0 3091.73769650 0 154.40942567 0 949.04710399 0 26128
0.15650000 0.15649500 9587.59665154 0 91.02600791 0 3059.79504929 0 131.81998485 0 973.60412315 0 26331
0.15750000 0.15749700 9317.78110338 0 -17.94533484 0 2650.11950761 0 269.67468996 0 859.07309610 0 27345
0.15850000 0.15849900 9401.64164351 0 26.54167794 0 2784.56699702 0 145.47657565 0 865.02906886 0 26980
0.15950000 0.15949700 9228.29732641 0 137.36891068 0 2676.33909720 0 22.18971409 0 500.82854380 0 27777
0.16050000 0.16050000 9361.40278098 0 -23.17527785 0 2143.04107434 0 35.32058215 0 819.17251508 0 28224
0.16150000 0.16150500 9101.09238861 0 53.95323847 0 2396.03127672 0 314.31564856 0 742.50572530 0 28075
0.16250000 0.16249700 9134.87617451 0 51.55454530 0 1790.98430081 0 81.83495483 0 393.67538096 0 28590
0.16350000 0.16349900 9138.36990155 0 80.56967108 0 1993.03263561 0 92.22640816 0 385.97032644 0 29163
0.16450000 0.16449100 9068.60627274 0 36.26344481 0 1359.99147859 0 184.71612133 0 407.86324010 0 28996
0.16550000 0.16550500 8929.66684857 0 52.53411982 0 1544.99264369 0 83.43208719 0 -184.86585249 0 30777
0.16650000 0.16650700 8814.30730912 0 201.69119826 0 1403.77952415 0 -286.37137784 0 70.64804085 0 29211
0.16750000 0.16749900 8408.03676490 0 279.59465651 0 1679.51777148 0 -218.21486348 0 -302.35490177 0 30922
0.16850000 0.16850800 8271.07157379 0 224.75866968 0 1826.79777575 0 -197.40334152 0 -500.16529022 0 30867
0.16950000 0.16949900 7961.97100604 0 52.68484918 0 1834.83889354 0 7.78843814 0 -379.51414070 0 30852
0.17050000 0.17049200 8078.90549546 0 -5.32916486 0 1995.39506056 0 123.59142583 0 -69.34582342 0 31257
0.17150000 0.17149500 7984.18667353 0 -55.19201425 0 1746.80806336 0 297.20969550 0 -426.13155059 0 32608
0.17250000 0.17250900 8288.69548574 0 -62.62156344 0 1974.99834937 0 19.49721512 0 -107.49832089 0 32361
0.17350000 0.17350400 8161.53491273 0 65.00650352 0 1722.49615965 0 -238.38087777 0 -302.75196662 0 32508
0.17450000 0.17449800 8146.05160179 0 148.92150142 0 2140.30154869 0 -155.67493125 0 -69.36534392 0 32791
0.17550000 0.17549800 8118.70071011 0 10.91755317 0 2176.25920920 0 -17.56679229 0 -51.14051092 0 33633
0.17650000 0.17650100 8215.72650102 0 -14.74574634 0 2312.43692533 0 164.23955353 0 7.71042266 0 33984
0.17750000 0.17750300 8071.28584316 0 94.71494002 0 2288.30248077 0 -150.27351833 0 -84.58523893 0 34069
0.17850000 0.17849800 7974.85897689 0 79.44202909 0 2150.18380517 0 -46.17420566 0 -251.14573634 0 34536
