### header ###
fiducial parameters:
Omega_m = 0.31
Omega_nu = 0
Omega_de = 0.69
Omega_k = 0
H_0 = 100
w_de = -1
zeff = 0
beta = 0
fgrowth = 0
b_1 = 2
gamma = 0.55
Lx = 3500 Ly = 3500 Lz = 3500
nx = 700 ny = 700 nz = 700
xoffset = 1379.75464 yoffset = 22.6059522 zoffset = 368.141391
bins = 400 dk = 0.001
kx_ny = 0.628318531 ky_ny = 0.628318531 kz_ny = 0.628318531
############################
A(data) = 3.32090853 (not used)
A(ran) = 3.31614863 (used)
Ngal = 186458
weighted Ngal = 0
Nran = 9399747
weighted Nran = 0
SN(data) = 6676.71814
SN(ran) = 131.901081
SN(data+ran) = 6808.61923
############################
13 columns: k_central k_mean P_0(k) sigma^{lin}_{P_0(k)} P^img_1(k) sigma^{lin}_{P_1(k)} P_2(k) sigma^{lin}_{P_2(k)} P^img_3(k) sigma^{lin}_{P_3(k)} P_4(k) sigma^{lin}_{P_4(k)} N_modes
### header ###
0.00050000 0 0 0 0 0 0 0 0 0 0 0 0
0.00150000 0.00179520 37317.44125199 0 -20628.51720400 0 -48610.83072058 0 74571.88450531 0 24666.48927694 0 3
0.00250000 0.00253879 55589.96640025 0 -7474.14689067 0 11124.69236301 0 -63531.59615108 0 -16684.59848118 0 6
0.00350000 0.00331552 77733.87384328 0 -20063.53163146 0 -74067.78960402 0 48017.11894794 0 60587.43792118 0 7
0.00450000 0.00420575 78413.09874439 0 -19325.74521046 0 -37902.72371495 0 5920.59184293 0 12199.76208320 0 24
0.00550000 0.00557378 110486.84390320 0 -10279.56533795 0 -86944.89108484 0 -15446.70998979 0 14268.15940207 0 45
0.00650000 0.00659388 96584.80491239 0 -6629.76297580 0 -25504.76194229 0 -10221.66928988 0 -33313.74097762 0 40
0.00750000 0.00754703 114965.80196680 0 10013.58734393 0 -92504.90811499 0 -16322.80363673 0 7884.03316508 0 57
0.00850000 0.00846663 88441.31537710 0 6370.08478165 0 -27860.19943818 0 -45918.33174943 0 -4700.73763778 0 75
0.00950000 0.00948925 73668.50651388 0 18002.78723848 0 -20411.24065578 0 -31438.66322155 0 5168.34250111 0 112
0.01050000 0.01054430 49203.54428549 0 793.72709104 0 -11175.26822109 0 17547.38269178 0 6429.15649660 0 105
0.01150000 0.01145670 57991.76509939 0 -8334.41339956 0 -19469.15438700 0 16331.67659429 0 -3535.09720331 0 144
0.01250000 0.01249090 66870.26825644 0 -10314.44715235 0 -33559.52190199 0 13079.07217725 0 3533.20060863 0 169
0.01350000 0.01339930 75565.43392794 0 -2701.02810160 0 -44659.14815990 0 1639.31218254 0 15617.51442279 0 180
0.01450000 0.01448870 74843.39700661 0 1171.97350793 0 -24826.75707284 0 -27776.23907728 0 6203.71682743 0 267
0.01550000 0.01550050 72860.84555211 0 7677.69253706 0 -26068.86021907 0 -12179.46519278 0 -4623.37653906 0 238
0.01650000 0.01653350 64820.61506041 0 2064.40448797 0 2673.61066275 0 -10539.77590955 0 1560.42049865 0 315
0.01750000 0.01747870 69318.42815882 0 755.71644998 0 228.70491755 0 -2326.25655672 0 4800.81350784 0 297
0.01850000 0.01844180 64403.58605515 0 1206.96623430 0 11553.47803702 0 -1772.47309310 0 4634.63410397 0 388
0.01950000 0.01947590 66895.00162563 0 1422.12436390 0 23634.23157697 0 -8524.68288321 0 1306.88682761 0 399
0.02050000 0.02045430 64888.38227376 0 1054.46005802 0 25453.40970041 0 3167.44620687 0 4015.65658468 0 462
0.02150000 0.02154770 66334.67435581 0 523.78399412 0 27909.11161672 0 1413.22922395 0 7579.08070499 0 571
0.02250000 0.02255340 62564.99833705 0 1448.90960453 0 23291.29176733 0 6013.62480293 0 9474.49971626 0 510
0.02350000 0.02348930 66347.20740836 0 93.88542940 0 25710.94729355 0 -1460.41117576 0 2814.54650237 0 555
0.02450000 0.02439640 62122.57049078 0 3390.09089441 0 26746.53235261 0 5085.72417505 0 -2252.46682343 0 592
0.02550000 0.02547300 57898.04448517 0 3823.12449686 0 28937.59830973 0 -4150.70299872 0 4081.64920652 0 837
0.02650000 0.02652900 51908.02174935 0 3898.25626498 0 25082.07642659 0 959.61035996 0 -858.77585203 0 723
0.02750000 0.02749970 51960.81584682 0 1671.07737060 0 34321.48713234 0 2362.42494997 0 4869.35710498 0 826
0.02850000 0.02848090 45872.08145815 0 887.07504104 0 24408.06438805 0 4825.23632352 0 -531.03874604 0 831
0.02950000 0.02946900 48546.27995434 0 -28.70911965 0 27608.76200336 0 4292.24885417 0 1324.22236844 0 996
0.03050000 0.03053250 47505.59294469 0 -600.86781291 0 23874.79963877 0 6062.64789344 0 6387.63105522 0 1041
0.03150000 0.03150510 45980.66427628 0 1077.79593640 0 20072.29367705 0 2053.13583187 0 4488.72940811 0 1036
0.03250000 0.03246190 49604.49105517 0 -667.73442107 0 20261.39858501 0 4818.30432543 0 14791.77481000 0 1059
0.03350000 0.03345080 45830.15673369 0 -186.33543609 0 18990.34741475 0 4581.65145614 0 8346.54716902 0 1302
0.03450000 0.03451200 48897.75998563 0 381.04583499 0 16127.04401059 0 4765.33276880 0 18597.49721884 0 1339
0.03550000 0.03553350 46727.98912665 0 -323.23408002 0 17586.31279307 0 -902.39420226 0 15481.42543624 0 1365
0.03650000 0.03647120 48791.17358296 0 -521.98167462 0 8387.50695935 0 8797.30450419 0 18962.06486253 0 1308
0.03750000 0.03744890 48585.09914366 0 -1764.28778975 0 13108.68567310 0 3542.88322356 0 14898.02847676 0 1579
0.03850000 0.03847530 51501.75120513 0 -614.70297198 0 5814.41581455 0 -464.65016847 0 14804.41877452 0 1662
0.03950000 0.03950240 51327.61941305 0 966.34271651 0 11461.08836645 0 -1758.67564409 0 9282.58873547 0 1683
0.04050000 0.04050350 49392.42736952 0 2583.71651148 0 11084.20949415 0 -6522.24491258 0 2953.88520963 0 1822
0.04150000 0.04152450 44644.95142780 0 2832.92461571 0 12082.97177933 0 -5242.33187596 0 3673.94789790 0 1887
0.04250000 0.04250150 45640.16452997 0 844.70001398 0 20613.21135221 0 908.31579231 0 2731.61762279 0 1920
0.04350000 0.04349210 44644.17504402 0 -1114.68747569 0 17407.63361024 0 4099.82767832 0 1246.76144895 0 2005
0.04450000 0.04448520 45398.82008437 0 -133.68552418 0 13965.14790145 0 1778.99471690 0 -3401.47046247 0 2151
0.04550000 0.04548030 45387.95071136 0 596.86499993 0 15576.58790605 0 -1175.27868462 0 2443.13559016 0 2274
0.04650000 0.04648670 43022.19840231 0 1382.12950770 0 13511.96159414 0 339.25531401 0 -259.89779985 0 2311
0.04750000 0.04749250 42773.53376673 0 984.02652092 0 18419.26168388 0 -2440.73989162 0 -1930.15664011 0 2568
0.04850000 0.04851840 41626.81491425 0 1713.73411406 0 17600.84226107 0 416.50217340 0 -1221.99480616 0 2493
0.04950000 0.04949480 38453.73437934 0 1627.73297292 0 17556.58838525 0 136.25979099 0 -3952.41457968 0 2644
0.05050000 0.05050630 37789.14985820 0 1462.76250952 0 20767.04625388 0 -1121.89675371 0 -1237.07883401 0 2829
0.05150000 0.05149060 35494.82485749 0 1195.68648700 0 19178.67593893 0 762.74272325 0 -5980.28466491 0 2784
0.05250000 0.05249300 34198.26393424 0 224.02997804 0 20152.26120704 0 1071.21774749 0 -1217.31432105 0 3055
0.05350000 0.05348950 34317.05065356 0 -300.97293863 0 15125.17619026 0 1669.08095515 0 -6727.13259381 0 3009
0.05450000 0.05448610 35257.58415477 0 -614.01864513 0 17123.14440851 0 2423.50417157 0 -3834.47079133 0 3336
0.05550000 0.05550870 35365.39058910 0 -282.19665131 0 11977.05084848 0 -1434.64632525 0 -8518.53836010 0 3349
0.05650000 0.05647670 35378.36728953 0 746.21129420 0 13971.58079568 0 431.00169517 0 -8712.62321549 0 3324
0.05750000 0.05747970 34444.59941846 0 490.53813127 0 12084.41363494 0 -105.19412472 0 -8907.92810256 0 3639
0.05850000 0.05849280 33627.51093929 0 95.63351295 0 11891.64863198 0 930.33625474 0 -10602.58535787 0 3846
0.05950000 0.05951020 33926.19687310 0 459.37963168 0 11778.96207098 0 1566.94212245 0 -6826.18807375 0 3787
0.06050000 0.06049470 32310.98586153 0 225.41748678 0 9265.41956259 0 2291.48565429 0 -6583.75669086 0 3930
0.06150000 0.06148310 32941.63132001 0 -282.50831395 0 9163.48037144 0 2505.49029941 0 -2059.99019159 0 4083
0.06250000 0.06249100 32959.59905906 0 -322.22034462 0 9494.53041795 0 2656.14202755 0 -2297.95182211 0 4303
0.06350000 0.06350600 33434.30228845 0 349.20300856 0 5139.47211546 0 177.61220969 0 -1705.36026036 0 4470
0.06450000 0.06451750 31426.24108097 0 1444.69494969 0 8886.35572449 0 -2641.50164758 0 -838.55549087 0 4479
0.06550000 0.06550280 31320.43106209 0 1051.75269685 0 7993.19272545 0 -1675.82440289 0 -1950.49789531 0 4636
0.06650000 0.06648880 29653.86780865 0 227.74996549 0 11386.66643492 0 -146.20859465 0 -2791.90936940 0 4653
0.06750000 0.06749660 29526.42995571 0 270.59082283 0 9814.43381153 0 392.43982162 0 -3778.70425308 0 5220
0.06850000 0.06852730 29731.39527531 0 87.40362299 0 9955.84657262 0 55.30880456 0 -3635.98273075 0 5029
0.06950000 0.06949320 28822.91533329 0 705.70735206 0 10517.59351565 0 -613.29549909 0 -6039.53383900 0 5040
0.07050000 0.07048030 28285.87957705 0 854.70760098 0 10083.53952308 0 -798.40979440 0 -4599.43064485 0 5475
0.07150000 0.07148790 27158.34849530 0 670.52274798 0 10888.06167612 0 135.33478516 0 -5621.34025807 0 5509
0.07250000 0.07249820 26504.74425914 0 334.15669078 0 11074.41596724 0 38.29224655 0 -4107.11459471 0 5916
0.07350000 0.07351270 26066.97471559 0 321.72013164 0 11141.21824646 0 1170.57601711 0 -5570.42057288 0 5721
0.07450000 0.07449140 25502.76552683 0 -17.62990120 0 9949.31385762 0 917.82871194 0 -3006.45748316 0 6028
0.07550000 0.07549160 25803.44787610 0 136.22319004 0 9917.93686145 0 1188.53266497 0 -1503.83321182 0 6183
0.07650000 0.07648840 25740.78261334 0 41.81026331 0 10543.24745419 0 1013.21855129 0 -2042.21100288 0 6330
0.07750000 0.07749960 25881.19716671 0 -107.94962169 0 8411.20884723 0 771.71993806 0 1503.78884703 0 6583
0.07850000 0.07848650 25711.50185340 0 -24.37689812 0 8835.21421536 0 1821.67364276 0 982.51368166 0 6549
0.07950000 0.07947320 26026.71367067 0 -108.96291344 0 8035.83837771 0 1069.95446016 0 2437.95600119 0 6828
0.08050000 0.08048110 25546.35393084 0 387.45432859 0 8063.03399263 0 1183.97418303 0 3471.92174549 0 7147
0.08150000 0.08149960 25111.13536259 0 6.16749298 0 6128.24123220 0 1267.71271998 0 4869.45692575 0 7386
0.08250000 0.08250610 24928.79608476 0 162.43612491 0 6768.71349117 0 620.92402435 0 5324.17381824 0 7227
0.08350000 0.08350160 24739.24752892 0 788.78374456 0 6316.69175954 0 -488.33098307 0 3712.63399286 0 7798
0.08450000 0.08449610 23724.84665603 0 804.04412244 0 6933.32903627 0 -835.40448182 0 4490.85891793 0 7371
0.08550000 0.08548940 22502.37492840 0 509.82128628 0 6799.97957536 0 -373.34299871 0 3277.26014785 0 8256
0.08650000 0.08650700 22012.47675920 0 373.34965343 0 8446.60085669 0 -375.21852012 0 3626.79921967 0 8037
0.08750000 0.08749060 21845.22150922 0 379.67718129 0 6795.94237968 0 -184.42664109 0 309.91355249 0 8155
0.08850000 0.08849210 21296.42908422 0 538.12602089 0 9500.87458260 0 -479.47022583 0 2134.86686218 0 8718
0.08950000 0.08949900 20712.81030081 0 494.04960422 0 8695.34313065 0 -875.21189678 0 703.58227873 0 8571
0.09050000 0.09049190 20550.21335354 0 138.64883481 0 9838.97863037 0 381.65363259 0 386.91640554 0 8932
0.09150000 0.09150830 20234.55788840 0 299.49780943 0 9617.52070091 0 -871.02940641 0 -261.44724006 0 9285
0.09250000 0.09250820 19399.72349411 0 670.50943855 0 9809.99733275 0 -54.75091735 0 -745.14986665 0 9204
0.09350000 0.09350330 19253.20878242 0 430.89632880 0 10491.20755811 0 25.17102783 0 -478.47645459 0 9349
0.09450000 0.09448040 18809.89364040 0 87.29692568 0 9334.36244282 0 519.35860654 0 -1390.00425754 0 9564
0.09550000 0.09549270 18261.54486328 0 302.95937200 0 10031.21125588 0 852.85869845 0 -924.40357349 0 10155
0.09650000 0.09649430 17723.39998735 0 385.32481878 0 7982.45644680 0 -257.66514190 0 -1987.33176038 0 9913
0.09750000 0.09749140 17701.99397724 0 18.99855490 0 8112.71146376 0 775.57856548 0 -1408.38237088 0 10476
0.09850000 0.09850240 17154.53249588 0 366.84355730 0 8066.71627002 0 255.65763526 0 -2122.63327195 0 10575
0.09950000 0.09950330 16528.87807603 0 324.65597147 0 7659.31442372 0 -236.46210070 0 -2427.88519436 0 10882
0.10050000 0.10051200 16510.46668909 0 111.49314820 0 7299.30526197 0 968.47999016 0 -1501.83679636 0 10875
0.10150000 0.10150300 16016.35386505 0 -131.12234856 0 7150.96050279 0 552.26729700 0 -1821.37418044 0 11118
0.10250000 0.10250800 16270.56409910 0 180.94067789 0 6701.02391619 0 595.56732989 0 -131.29648035 0 11575
0.10350000 0.10349800 16099.20510625 0 116.51635130 0 6435.33429330 0 354.52012837 0 -985.24766171 0 11364
0.10450000 0.10450100 15807.06297864 0 239.47114243 0 6767.12745000 0 -150.85026057 0 61.01722180 0 12093
0.10550000 0.10551000 15492.29480925 0 280.91007247 0 6543.29600439 0 -50.97869036 0 53.43539048 0 12067
0.10650000 0.10649700 15182.07403061 0 235.42396466 0 7280.20622083 0 51.27593444 0 487.52021658 0 12054
0.10750000 0.10749900 15358.09132617 0 -37.17636123 0 7253.62062174 0 570.60326380 0 665.46516218 0 12807
0.10850000 0.10850100 15562.61299790 0 -329.07359521 0 5902.83483662 0 1157.93205259 0 495.86079668 0 12736
0.10950000 0.10950300 15399.57240276 0 12.85159173 0 6054.31840454 0 347.34301483 0 662.48495756 0 12933
0.11050000 0.11050200 15702.69481535 0 103.22776641 0 5001.19816310 0 68.82376077 0 598.21147124 0 13428
0.11150000 0.11150900 15143.14392932 0 144.49722296 0 5705.79972283 0 290.46624776 0 1033.86703265 0 13453
0.11250000 0.11250000 15384.26655097 0 318.73881790 0 5108.68295273 0 66.91629672 0 376.61268357 0 13668
0.11350000 0.11349100 14858.98746350 0 159.69992662 0 4997.17205861 0 -20.82205859 0 577.14485176 0 13791
0.11450000 0.11448600 14562.63068105 0 240.94848986 0 5495.85445580 0 261.37514728 0 819.42761261 0 14205
0.11550000 0.11549300 14126.41390507 0 204.09466064 0 5085.23616238 0 249.21475895 0 698.34168817 0 14776
0.11650000 0.11649800 13988.88306292 0 300.83208043 0 5163.73965438 0 155.55736456 0 837.34433216 0 14553
0.11750000 0.11747300 13660.69454522 0 84.33247056 0 4765.97605823 0 -273.43349660 0 664.20852956 0 14568
0.11850000 0.11849100 13510.51973854 0 33.18597039 0 5033.93937650 0 561.78687134 0 1391.39065715 0 16015
0.11950000 0.11950300 13627.64277831 0 -66.37759729 0 4110.96324006 0 354.19626542 0 530.73151989 0 15270
0.12050000 0.12050700 13539.02411470 0 48.95243959 0 3924.15420986 0 345.99987088 0 789.57787427 0 15999
0.12150000 0.12150000 13366.44509018 0 263.54680364 0 4059.82173093 0 -347.30974124 0 369.50100809 0 15670
0.12250000 0.12250700 13309.43633787 0 55.71496419 0 4562.39713824 0 -182.44686244 0 692.10843548 0 16887
0.12350000 0.12352200 13015.29779480 0 139.48622018 0 3999.29706918 0 95.13241267 0 -401.65438804 0 16407
0.12450000 0.12449800 13198.30254445 0 59.31705222 0 4349.56816000 0 -1.68756998 0 85.83255494 0 16306
0.12550000 0.12549900 12921.57718059 0 -26.25075585 0 4164.43390054 0 299.49004559 0 -899.77113419 0 17523
0.12650000 0.12650100 13164.36348178 0 -30.59584317 0 3794.25411120 0 458.57441078 0 362.98492988 0 17154
0.12750000 0.12750600 12690.10390028 0 217.90763732 0 3484.73207797 0 -28.87881497 0 -820.59107917 0 18007
0.12850000 0.12850300 12742.67617381 0 216.53565626 0 3605.34884478 0 0.40396136 0 43.67369531 0 17496
0.12950000 0.12949900 12213.95881529 0 153.76059065 0 3547.77444142 0 204.87880827 0 -963.07524989 0 18405
0.13050000 0.13049000 12233.14658601 0 215.07938210 0 3554.78407789 0 117.14854953 0 -123.48938682 0 18100
0.13150000 0.13148800 11842.62554146 0 90.12085533 0 3029.61590239 0 -19.38940868 0 -275.95785303 0 19059
0.13250000 0.13249300 11872.57177322 0 78.53121999 0 3459.81015842 0 153.10621003 0 -464.86090121 0 18957
0.13350000 0.13349100 11729.49533259 0 12.57985740 0 3117.02562554 0 198.60340903 0 -794.72640789 0 19468
0.13450000 0.13450700 11535.95394585 0 121.29554807 0 2857.01469548 0 -231.22372838 0 -741.70826824 0 19953
0.13550000 0.13551000 11593.73908195 0 197.74051391 0 3343.55223201 0 -332.32997064 0 -711.20525839 0 19956
0.13650000 0.13649900 11460.86654251 0 101.09781295 0 3289.33846133 0 39.97788666 0 -612.24738098 0 19723
0.13750000 0.13749600 11307.69711265 0 -35.61161516 0 2854.72990891 0 546.10946446 0 -1025.24362702 0 20946
0.13850000 0.13851100 11502.79126697 0 -101.36222709 0 2765.54559425 0 323.59676216 0 -460.65068285 0 20955
0.13950000 0.13949800 11361.04576997 0 72.37017100 0 2520.17504417 0 582.60393889 0 -31.95762033 0 20506
0.14050000 0.14048300 11251.24292019 0 256.74900903 0 2703.35725296 0 47.09388771 0 409.70548791 0 21447
0.14150000 0.14148400 11015.54389384 0 115.76214991 0 2630.42154183 0 -94.33295920 0 203.57670175 0 21771
0.14250000 0.14249400 11073.10720600 0 147.97542232 0 2819.30462586 0 -243.62701393 0 342.95977379 0 22470
0.14350000 0.14350900 10774.68746091 0 188.82873716 0 2973.90482012 0 -197.76602366 0 274.65020091 0 22519
0.14450000 0.14449900 10705.97749582 0 98.85461837 0 3482.66911533 0 -114.66079405 0 533.70950627 0 22218
0.14550000 0.14550500 10603.62793038 0 -18.34317607 0 3255.23303071 0 -265.80497134 0 189.38662437 0 23559
0.14650000 0.14650700 10769.33041279 0 2.29418082 0 3484.54352762 0 503.75772891 0 145.52981340 0 23044
0.14750000 0.14750500 10714.31807592 0 43.67824270 0 3334.51290650 0 276.04990996 0 737.13204038 0 23649
0.14850000 0.14849900 10622.19459407 0 52.62506763 0 3374.88486339 0 141.38725134 0 482.89851481 0 23640
0.14950000 0.14949500 10571.72964796 0 320.14074519 0 3800.12135438 0 -418.78363261 0 1045.20001769 0 24457
0.15050000 0.15050000 10154.82264587 0 212.01821174 0 3885.88958039 0 -55.87112824 0 1062.57215947 0 24591
0.15150000 0.15149900 10109.65929190 0 86.85993252 0 4388.99736515 0 -244.72947890 0 1105.79344486 0 25020
0.15250000 0.15250500 9920.15510084 0 105.15663647 0 3889.44985461 0 343.91028937 0 861.41444778 0 25297
0.15350000 0.15350100 9807.74581977 0 50.84803606 0 4166.49686318 0 235.66353452 0 1308.57268954 0 25452
0.15450000 0.15450400 9900.13549035 0 -36.23616046 0 3950.71762655 0 265.83269934 0 1086.60789238 0 26061
0.15550000 0.15549900 9873.05078740 0 13.77526661 0 3611.21608796 0 264.83005513 0 1184.15164218 0 26128
0.15650000 0.15649500 9692.79665460 0 201.20762208 0 3360.66594890 0 -92.75046722 0 757.48549590 0 26331
0.15750000 0.15749700 9496.56010699 0 115.50705238 0 3474.28417044 0 -63.85712278 0 710.16934059 0 27345
0.15850000 0.15849900 9362.21243836 0 142.02610428 0 3388.12775255 0 196.07683437 0 757.96463560 0 26980
0.15950000 0.15949700 9326.77606411 0 143.32377432 0 3473.84052256 0 -46.38238743 0 324.79017495 0 27777
0.16050000 0.16050000 8981.72892705 0 82.99553768 0 2887.28257196 0 111.38334535 0 286.18726397 0 28224
0.16150000 0.16150500 8845.44029895 0 112.47250089 0 3157.50849440 0 238.30767587 0 540.35535148 0 28075
0.16250000 0.16249700 8747.66030665 0 86.19878627 0 2476.80846410 0 119.60303141 0 49.89796413 0 28590
0.16350000 0.16349900 8742.82454478 0 1.47881147 0 2696.24779572 0 353.09269133 0 576.49268938 0 29163
0.16450000 0.16449100 8655.96938148 0 0.53223660 0 2449.81249073 0 205.34463854 0 483.51407624 0 28996
0.16550000 0.16550500 8494.13772681 0 97.05618078 0 2006.41971033 0 192.38013843 0 406.81955846 0 30777
0.16650000 0.16650700 8538.69106495 0 90.07471595 0 2225.68158280 0 -9.84396967 0 749.09167805 0 29211
0.16750000 0.16749900 8510.66361026 0 39.59158027 0 1900.46550588 0 197.98119288 0 1012.36674736 0 30922
0.16850000 0.16850800 8231.64236864 0 153.59644094 0 2127.36921305 0 195.66091448 0 977.07677691 0 30867
0.16950000 0.16949900 8233.37259536 0 128.98951139 0 2088.55002373 0 -28.46500241 0 1163.74383979 0 30852
0.17050000 0.17049200 8072.29514208 0 41.09355016 0 2096.75750947 0 -40.69992359 0 1049.58436784 0 31257
0.17150000 0.17149500 8120.90785831 0 51.53169744 0 2148.70867598 0 45.07484622 0 1032.41519497 0 32608
0.17250000 0.17250900 7951.00181226 0 73.72884263 0 2474.17985042 0 -373.80217427 0 735.21991802 0 32361
0.17350000 0.17350400 8000.82346895 0 158.34236411 0 2435.56030265 0 -396.62009375 0 578.92831623 0 32508
0.17450000 0.17449800 7769.93802208 0 87.08918756 0 2783.77952203 0 -29.23994434 0 411.78730558 0 32791
0.17550000 0.17549800 7733.84726721 0 18.65295320 0 2649.76458931 0 75.64639967 0 19.55921491 0 33633
0.17650000 0.17650100 7767.13194925 0 32.11156614 0 2694.85030490 0 229.97375048 0 211.02776786 0 33984
0.17750000 0.17750300 7648.67796584 0 97.62826472 0 2290.67599691 0 43.00533978 0 -296.32129063 0 34069
0.17850000 0.17849800 7492.49173042 0 52.60798719 0 2379.37229891 0 13.27993375 0 110.60940163 0 34536
