### header ###
fiducial parameters:
Omega_m = 0.31
Omega_nu = 0
Omega_de = 0.69
Omega_k = 0
H_0 = 100
w_de = -1
zeff = 0
beta = 0
fgrowth = 0
b_1 = 2
gamma = 0.55
Lx = 3500 Ly = 3500 Lz = 3500
nx = 700 ny = 700 nz = 700
xoffset = 1379.75464 yoffset = 22.6059522 zoffset = 368.141391
bins = 400 dk = 0.001
kx_ny = 0.628318531 ky_ny = 0.628318531 kz_ny = 0.628318531
############################
A(data) = 3.32207291 (not used)
A(ran) = 3.32082289 (used)
Ngal = 187079
weighted Ngal = 0
Nran = 9399747
weighted Nran = 0
SN(data) = 6633.67915
SN(ran) = 132.087002
SN(data+ran) = 6765.76615
############################
13 columns: k_central k_mean P_0(k) sigma^{lin}_{P_0(k)} P^img_1(k) sigma^{lin}_{P_1(k)} P_2(k) sigma^{lin}_{P_2(k)} P^img_3(k) sigma^{lin}_{P_3(k)} P_4(k) sigma^{lin}_{P_4(k)} N_modes
### header ###
0.00050000 0 0 0 0 0 0 0 0 0 0 0 0
0.00150000 0.00179520 34555.62229991 0 -39297.55264316 0 -52647.91549776 0 39602.44964726 0 25660.59325941 0 3
0.00250000 0.00253879 60344.54070801 0 -32036.14600115 0 -16106.96894412 0 -49851.38109924 0 -7786.91864461 0 6
0.00350000 0.00331552 73902.08712161 0 -6950.55366513 0 -34005.49893128 0 -28946.13853138 0 -1768.05879671 0 7
0.00450000 0.00420575 93084.09041962 0 -5213.73877022 0 -11807.46644714 0 -52619.85476948 0 26549.55269481 0 24
0.00550000 0.00557378 93738.69286351 0 -4082.49213749 0 492.07315292 0 -11742.47203302 0 27898.57497962 0 45
0.00650000 0.00659388 104991.26672733 0 -197.80262461 0 2542.40180285 0 21481.20842538 0 -34321.15439643 0 40
0.00750000 0.00754703 96459.47438687 0 -10087.11088850 0 -1414.16088449 0 21850.43437178 0 21312.51131980 0 57
0.00850000 0.00846663 103708.12615239 0 8959.83490427 0 6736.41592565 0 5116.02532511 0 6605.00742421 0 75
0.00950000 0.00948925 119122.78258300 0 -2601.68425054 0 -6907.73055372 0 4057.75876830 0 50998.87633550 0 112
0.01050000 0.01054430 86694.11912184 0 4944.52214670 0 8928.59100247 0 -7605.51102732 0 2199.32889885 0 105
0.01150000 0.01145670 94611.68097530 0 12560.11507205 0 11546.82331886 0 -15396.79960352 0 36913.49985914 0 144
0.01250000 0.01249090 81975.59120416 0 4689.03642500 0 29394.55562400 0 1262.84368452 0 26836.14922395 0 169
0.01350000 0.01339930 77733.65201934 0 6720.75515556 0 38371.88134586 0 14467.02456335 0 30506.55903003 0 180
0.01450000 0.01448870 73720.96787545 0 4513.50714209 0 32606.12261232 0 9991.56022679 0 34002.72613204 0 267
0.01550000 0.01550050 66854.29693283 0 604.55230854 0 30868.68661038 0 14479.22488000 0 1958.99375218 0 238
0.01650000 0.01653350 64633.83930380 0 -347.18884719 0 25937.65135917 0 11007.87987675 0 39614.42813997 0 315
0.01750000 0.01747870 70717.80447778 0 -4119.48127931 0 13956.38585586 0 13429.33217688 0 16733.28883578 0 297
0.01850000 0.01844180 75412.70814596 0 -4111.70635025 0 7908.24524802 0 11753.23049406 0 28270.46281329 0 388
0.01950000 0.01947590 73240.27539971 0 488.63044539 0 2961.43831475 0 -6906.74343719 0 -2344.61248767 0 399
0.02050000 0.02045430 73174.28277787 0 4704.04281447 0 10917.53098641 0 -17300.04899984 0 8373.80933112 0 462
0.02150000 0.02154770 67717.74661525 0 5047.28208642 0 13708.38669209 0 -7181.93821587 0 -6396.83674869 0 571
0.02250000 0.02255340 62264.31598778 0 3798.29130689 0 18866.56965680 0 390.02194068 0 -4720.83488665 0 510
0.02350000 0.02348930 60434.37940329 0 -2552.93843995 0 14784.01097213 0 5957.27043124 0 -10625.63286512 0 555
0.02450000 0.02439640 67401.86932617 0 -4855.68165914 0 17696.44837877 0 14992.96912264 0 -6322.29281400 0 592
0.02550000 0.02547300 70743.64696667 0 -4590.46895772 0 712.63491368 0 9170.27927517 0 2516.19330446 0 837
0.02650000 0.02652900 71748.62032214 0 -1093.06962372 0 -110.71177338 0 2184.82161324 0 5752.38275001 0 723
0.02750000 0.02749970 73081.00581153 0 4227.73136153 0 -6195.80880400 0 -10405.47260570 0 2183.93431748 0 826
0.02850000 0.02848090 70775.14596600 0 3466.99725404 0 2199.89454989 0 -8468.73888580 0 -3107.44283138 0 831
0.02950000 0.02946900 63610.12182548 0 2233.31232630 0 15489.85474592 0 -8350.76182386 0 -8604.99424031 0 996
0.03050000 0.03053250 62756.65422031 0 5094.79677415 0 22204.13264246 0 -9979.21572459 0 -11891.20498410 0 1041
0.03150000 0.03150510 59352.32222902 0 3879.52323334 0 25214.72714209 0 -6729.17337405 0 -19379.98116354 0 1036
0.03250000 0.03246190 52440.51011483 0 1532.49286473 0 28254.82422560 0 5579.61517515 0 -10137.24309871 0 1059
0.03350000 0.03345080 52765.03853754 0 1264.46299928 0 31630.31910482 0 5131.14262655 0 -9575.82889158 0 1302
0.03450000 0.03451200 52733.76136214 0 -427.40592912 0 23127.58570037 0 8916.50159780 0 2603.21483572 0 1339
0.03550000 0.03553350 52312.73952599 0 -843.96134026 0 24554.80092367 0 7351.87753551 0 3853.82493001 0 1365
0.03650000 0.03647120 53304.84709301 0 517.48973985 0 16738.72352229 0 5300.23901522 0 11162.18060869 0 1308
0.03750000 0.03744890 50543.47178881 0 791.96026337 0 16293.19014088 0 740.95739420 0 8402.10297454 0 1579
0.03850000 0.03847530 49709.63560224 0 1755.17082586 0 14863.09120637 0 -1627.91043208 0 6587.68297458 0 1662
0.03950000 0.03950240 46748.06419312 0 2788.85929024 0 17405.85901872 0 -782.67804064 0 8209.34906277 0 1683
0.04050000 0.04050350 43680.68276512 0 2129.97564433 0 20403.47681792 0 -963.12405115 0 6395.16197795 0 1822
0.04150000 0.04152450 40970.32696689 0 1400.34125309 0 17051.38436426 0 3637.38022156 0 7403.47378371 0 1887
0.04250000 0.04250150 40308.18250908 0 531.16851305 0 19912.02588114 0 3253.09242970 0 4443.89879005 0 1920
0.04350000 0.04349210 39414.34294702 0 803.88884569 0 12995.66637620 0 -241.39768334 0 3044.41155912 0 2005
0.04450000 0.04448520 37757.76177083 0 980.77458198 0 14342.02677375 0 -435.15091195 0 593.11728448 0 2151
0.04550000 0.04548030 36603.05725655 0 431.26566566 0 16365.50474498 0 -992.69983694 0 1509.77809338 0 2274
0.04650000 0.04648670 37322.65411456 0 241.05829271 0 15163.55173170 0 -786.78843823 0 -2313.72350417 0 2311
0.04750000 0.04749250 36687.12852942 0 129.66940176 0 15295.53697539 0 617.79408857 0 -6158.56456465 0 2568
0.04850000 0.04851840 35082.23233101 0 1521.83422446 0 16325.79825991 0 -856.94913189 0 -3011.64816334 0 2493
0.04950000 0.04949480 34466.67090039 0 514.47737076 0 15725.87541698 0 1021.43934647 0 -2204.33102867 0 2644
0.05050000 0.05050630 34924.51551041 0 -767.86020152 0 16926.71931056 0 3654.01701699 0 1496.04719156 0 2829
0.05150000 0.05149060 36327.88466027 0 -745.67004379 0 14235.66219501 0 3681.22372310 0 -1111.48211977 0 2784
0.05250000 0.05249300 36468.07738969 0 185.36384724 0 13086.05963133 0 134.14691797 0 2983.62070865 0 3055
0.05350000 0.05348950 35393.00766950 0 873.70682136 0 13637.62485557 0 -1608.80029973 0 -694.62946455 0 3009
0.05450000 0.05448610 35104.52563688 0 1284.69334251 0 14346.57416450 0 -2338.87833885 0 4433.88343920 0 3336
0.05550000 0.05550870 33665.11009694 0 679.83269870 0 17557.69750494 0 419.87278815 0 52.48908956 0 3349
0.05650000 0.05647670 33494.52748788 0 -87.31910807 0 15963.11611970 0 1004.13818835 0 -4277.66393019 0 3324
0.05750000 0.05747970 33591.02090133 0 518.35374409 0 16982.06438333 0 2.17796725 0 -1513.57128274 0 3639
0.05850000 0.05849280 32346.47769177 0 233.01606580 0 14613.65018701 0 1170.40964916 0 -5014.11940755 0 3846
0.05950000 0.05951020 32851.01624094 0 -55.86147890 0 14421.21791996 0 79.54584269 0 -1906.46584343 0 3787
0.06050000 0.06049470 31231.81239847 0 535.71590380 0 13566.86301904 0 365.06785667 0 -6769.87806685 0 3930
0.06150000 0.06148310 31431.78667945 0 660.75251259 0 12781.27353919 0 1483.80251013 0 -607.10772031 0 4083
0.06250000 0.06249100 30796.48291825 0 64.08360502 0 12904.94038517 0 1559.41119972 0 -3139.90676484 0 4303
0.06350000 0.06350600 30336.08733293 0 206.07776666 0 11089.03416482 0 769.29983888 0 -1395.48330883 0 4470
0.06450000 0.06451750 30411.84020809 0 335.15711674 0 12459.96156360 0 940.68655973 0 363.97537377 0 4479
0.06550000 0.06550280 29625.03069658 0 -19.32053235 0 11159.85145733 0 1875.65449831 0 1840.06284730 0 4636
0.06650000 0.06648880 29982.83271013 0 -182.65537694 0 10856.86213910 0 1844.10004299 0 3759.90467425 0 4653
0.06750000 0.06749660 29889.99939167 0 208.16512992 0 10523.90440671 0 1492.89729162 0 4643.78434145 0 5220
0.06850000 0.06852730 29850.18199463 0 365.09225730 0 9491.63561555 0 395.06399882 0 5384.33247048 0 5029
0.06950000 0.06949320 28542.08622656 0 900.71499505 0 10218.33083959 0 -284.82415587 0 5533.68652859 0 5040
0.07050000 0.07048030 28250.83139470 0 808.43069084 0 11722.95152639 0 -899.53600081 0 5758.77127946 0 5475
0.07150000 0.07148790 26632.62575995 0 794.74859028 0 11075.04816547 0 -151.58671605 0 3572.34144266 0 5509
0.07250000 0.07249820 25833.28319589 0 184.67508391 0 10244.57261157 0 1383.40499535 0 3643.44710629 0 5916
0.07350000 0.07351270 26553.87826162 0 -542.69337580 0 8927.11587328 0 2038.12944240 0 3326.82670701 0 5721
0.07450000 0.07449140 26578.16798293 0 -141.90742847 0 8368.59646855 0 1101.16065189 0 1097.14452948 0 6028
0.07550000 0.07549160 25955.39727429 0 749.52201649 0 7368.81379325 0 -813.85539527 0 2651.97173750 0 6183
0.07650000 0.07648840 24723.05438137 0 775.49205414 0 7075.22981003 0 -912.36407920 0 889.14687663 0 6330
0.07750000 0.07749960 24596.72564813 0 80.14188361 0 8133.65164360 0 933.76010723 0 1920.34093081 0 6583
0.07850000 0.07848650 24729.04362773 0 -358.91446060 0 7197.80971870 0 1065.81189810 0 353.00396175 0 6549
0.07950000 0.07947320 24257.55684546 0 566.47179293 0 8398.73125066 0 -57.23479091 0 789.14420846 0 6828
0.08050000 0.08048110 24582.63982801 0 122.45457815 0 6790.06404529 0 101.65581107 0 1979.14645703 0 7147
0.08150000 0.08149960 24059.91171584 0 -278.98796804 0 6569.90378587 0 889.43081127 0 1260.21507085 0 7386
0.08250000 0.08250610 24411.05901122 0 119.43111786 0 6299.07893879 0 874.44993155 0 1707.45649659 0 7227
0.08350000 0.08350160 23991.92267855 0 663.71164394 0 6249.15746132 0 -1171.78495758 0 527.35314130 0 7798
0.08450000 0.08449610 23481.83853090 0 923.90446962 0 7449.75734858 0 -1100.45636089 0 580.32358880 0 7371
0.08550000 0.08548940 21751.16815910 0 785.36654678 0 7660.03535152 0 -606.19935128 0 -364.13619613 0 8256
0.08650000 0.08650700 20718.68863519 0 579.60820660 0 7312.42614796 0 -137.29681790 0 -450.17837469 0 8037
0.08750000 0.08749060 20360.11023785 0 96.78156275 0 7887.02778826 0 1574.36213321 0 -674.71522043 0 8155
0.08850000 0.08849210 20314.19268249 0 68.42381221 0 6555.71814497 0 733.80800865 0 461.07880305 0 8718
0.08950000 0.08949900 19821.74353799 0 460.72943035 0 6138.58931895 0 -97.00150118 0 -320.19398294 0 8571
0.09050000 0.09049190 19217.38421628 0 341.73530565 0 7123.23251042 0 -380.81181074 0 298.34543407 0 8932
0.09150000 0.09150830 18876.77355800 0 352.92965073 0 7113.38352753 0 -188.79768181 0 261.31525482 0 9285
0.09250000 0.09250820 18907.71799748 0 59.61008165 0 7921.05558050 0 61.13478849 0 -215.71268945 0 9204
0.09350000 0.09350330 18634.54181665 0 223.81813618 0 7430.85794898 0 88.24965949 0 390.69739458 0 9349
0.09450000 0.09448040 18661.71524917 0 128.63459309 0 7146.47965922 0 957.72707472 0 449.62825132 0 9564
0.09550000 0.09549270 18297.81307730 0 -49.35138994 0 7120.82572068 0 934.16493592 0 2134.31230234 0 10155
0.09650000 0.09649430 18490.68899223 0 121.68817644 0 7227.26793779 0 438.61136539 0 1277.48406450 0 9913
0.09750000 0.09749140 17735.15665612 0 296.51982305 0 6207.07746010 0 402.15349191 0 2626.21797819 0 10476
0.09850000 0.09850240 17981.04849246 0 203.29609446 0 6461.64261246 0 -16.69225141 0 749.37561269 0 10575
0.09950000 0.09950330 17303.82000680 0 462.19346835 0 6880.85658351 0 -852.47161568 0 1608.04609834 0 10882
0.10050000 0.10051200 16760.01862043 0 580.52655771 0 6881.94352081 0 -472.10345282 0 470.29004212 0 10875
0.10150000 0.10150300 16373.04675891 0 233.11921394 0 7075.11889806 0 29.37126411 0 9.57532979 0 11118
0.10250000 0.10250800 16288.08819028 0 -70.88106690 0 6827.94048287 0 622.10080035 0 70.85977180 0 11575
0.10350000 0.10349800 16260.36019791 0 177.09425079 0 6923.21386466 0 420.01808283 0 -266.24196450 0 11364
0.10450000 0.10450100 15592.11558178 0 320.90381954 0 6100.51323982 0 243.83774667 0 513.36714195 0 12093
0.10550000 0.10551000 15503.38600620 0 192.56314318 0 6547.82121275 0 442.26813303 0 468.21266093 0 12067
0.10650000 0.10649700 15095.11904653 0 152.48843036 0 6390.70331678 0 88.52117200 0 1381.79677179 0 12054
0.10750000 0.10749900 15282.00571511 0 51.20506169 0 6389.11727561 0 332.79469179 0 908.90917135 0 12807
0.10850000 0.10850100 14833.69953446 0 134.18684628 0 6470.49338762 0 -281.86391540 0 909.53915134 0 12736
0.10950000 0.10950300 15009.38409412 0 91.32913033 0 6040.23258441 0 34.21124063 0 98.53585737 0 12933
0.11050000 0.11050200 14765.15593732 0 13.14573027 0 6208.77441324 0 242.64987947 0 475.27886251 0 13428
0.11150000 0.11150900 14993.96733036 0 29.92937314 0 6292.25785267 0 -134.90888320 0 93.44987809 0 13453
0.11250000 0.11250000 14654.68761572 0 40.94792275 0 5999.01769655 0 312.03862582 0 -555.00127705 0 13668
0.11350000 0.11349100 15032.45378377 0 6.29956695 0 5769.30791656 0 516.79654004 0 41.44691570 0 13791
0.11450000 0.11448600 14637.05261257 0 39.67287875 0 5530.80281738 0 343.49215125 0 -227.28080786 0 14205
0.11550000 0.11549300 14595.12788811 0 282.77006619 0 5605.55748481 0 -331.95397906 0 648.90933249 0 14776
0.11650000 0.11649800 14423.43615935 0 283.04623700 0 5978.44352621 0 296.75273819 0 599.94280708 0 14553
0.11750000 0.11747300 14169.89139711 0 34.63570074 0 5542.70367171 0 219.75099425 0 515.89704397 0 14568
0.11850000 0.11849100 14165.23309439 0 79.27643751 0 6081.22564833 0 171.31462806 0 430.31736832 0 16015
0.11950000 0.11950300 13851.35222076 0 431.94111955 0 6012.31604169 0 -543.91451658 0 249.10273786 0 15270
0.12050000 0.12050700 13557.32458966 0 113.62376714 0 5931.68303988 0 569.98992061 0 893.68872178 0 15999
0.12150000 0.12150000 13563.86839586 0 -327.88905538 0 5187.94064612 0 563.44944177 0 224.83963541 0 15670
0.12250000 0.12250700 13716.81600178 0 54.25624997 0 4896.74127025 0 966.07985514 0 405.97219102 0 16887
0.12350000 0.12352200 13371.76886472 0 345.77471958 0 4258.17669715 0 -121.47078898 0 172.32170875 0 16407
0.12450000 0.12449800 13053.78424821 0 182.63652191 0 4113.74713049 0 179.14612223 0 658.55756472 0 16306
0.12550000 0.12549900 12590.83768759 0 216.15411908 0 4093.88279676 0 1.89382188 0 -90.83779030 0 17523
0.12650000 0.12650100 12586.51212078 0 115.23531805 0 3446.96655236 0 50.13176656 0 -1.53748390 0 17154
0.12750000 0.12750600 12254.21986021 0 -44.97890737 0 3964.18233964 0 246.41977732 0 -196.96634836 0 18007
0.12850000 0.12850300 12207.41500909 0 182.38475174 0 3308.16022255 0 -103.83800407 0 -732.12436495 0 17496
0.12950000 0.12949900 12269.30388806 0 169.37699596 0 3970.12722121 0 -137.59849846 0 -616.66944120 0 18405
0.13050000 0.13049000 11882.33202654 0 155.46530762 0 3800.53172867 0 -160.15244745 0 -919.66874151 0 18100
0.13150000 0.13148800 11987.14383770 0 76.71004545 0 3967.79806985 0 -65.95713001 0 5.09568407 0 19059
0.13250000 0.13249300 11821.33044332 0 58.34601793 0 3981.28496534 0 285.99538627 0 -389.56276513 0 18957
0.13350000 0.13349100 11723.83882215 0 151.01884677 0 4177.43278337 0 325.25045963 0 -231.66183066 0 19468
0.13450000 0.13450700 11864.14246354 0 -36.30836415 0 3834.47079133 0 103.10764875 0 692.32915030 0 19953
0.13550000 0.13551000 11603.49933526 0 -10.70168520 0 3930.87547521 0 463.76620007 0 473.57303641 0 19956
0.13650000 0.13649900 11577.32411046 0 83.45792968 0 3553.18694553 0 150.84804233 0 811.68373890 0 19723
0.13750000 0.13749600 11599.95015224 0 127.91366528 0 3754.98018281 0 19.60202693 0 624.36229540 0 20946
0.13850000 0.13851100 11528.63375586 0 149.74225000 0 3485.51955295 0 -114.24265593 0 607.05559169 0 20955
0.13950000 0.13949800 11367.70048814 0 -0.17088207 0 3701.54279591 0 145.81596628 0 749.01293055 0 20506
0.14050000 0.14048300 11292.05852495 0 52.94161039 0 3221.16087369 0 38.75807682 0 533.52206504 0 21447
0.14150000 0.14148400 11125.13601088 0 246.43419587 0 3613.83361044 0 113.85002755 0 222.73785359 0 21771
0.14250000 0.14249400 10795.39472561 0 329.99971016 0 3662.27995871 0 -419.49568745 0 247.39025705 0 22470
0.14350000 0.14350900 10622.57169477 0 151.31276349 0 3570.81085748 0 -140.00417908 0 -43.40140643 0 22519
0.14450000 0.14449900 10262.56253302 0 88.15993171 0 4066.92009697 0 -44.18189396 0 -188.17324742 0 22218
0.14550000 0.14550500 10569.86632687 0 -9.13299067 0 3574.98114753 0 -20.27980997 0 -393.18404093 0 23559
0.14650000 0.14650700 10370.06950504 0 -117.47130336 0 3694.79934816 0 222.32637019 0 -1028.25821435 0 23044
0.14750000 0.14750500 10749.47717025 0 -20.31241809 0 3347.62270129 0 101.30122550 0 -564.88020617 0 23649
0.14850000 0.14849900 10564.63128191 0 69.52705357 0 3219.81883886 0 -5.42948473 0 -1228.62734194 0 23640
0.14950000 0.14949500 10515.96310970 0 103.30828850 0 3482.53602097 0 -71.13893723 0 -812.85718754 0 24457
0.15050000 0.15050000 10467.12856954 0 126.51173799 0 3374.67413065 0 219.38165740 0 -777.91991715 0 24591
0.15150000 0.15149900 10237.44097194 0 200.80279339 0 3901.37289133 0 -20.43164846 0 -441.95757951 0 25020
0.15250000 0.15250500 10079.87942809 0 114.35578613 0 3572.01979795 0 100.01442483 0 -393.90164138 0 25297
0.15350000 0.15350100 9926.88745739 0 104.62936097 0 3685.00582126 0 146.27181447 0 -226.54989798 0 25452
0.15450000 0.15450400 9672.05611630 0 109.36785304 0 3672.04021203 0 28.42662687 0 43.41981781 0 26061
0.15550000 0.15549900 9775.75880777 0 51.90003609 0 3452.66742759 0 534.24410196 0 367.02434381 0 26128
0.15650000 0.15649500 9560.05720952 0 -35.74337858 0 3120.30861984 0 338.58873308 0 260.66974716 0 26331
0.15750000 0.15749700 9595.85959327 0 71.82370773 0 2878.19888165 0 105.45221687 0 96.75361293 0 27345
0.15850000 0.15849900 9352.06399315 0 144.59704373 0 2828.96505840 0 95.20195448 0 98.68203934 0 26980
0.15950000 0.15949700 9194.51354050 0 230.17339203 0 2804.75297546 0 -100.58861610 0 312.46674602 0 27777
0.16050000 0.16050000 8965.19195240 0 143.82287819 0 2586.53367551 0 27.02237042 0 331.04006443 0 28224
0.16150000 0.16150500 8765.19548903 0 21.71057438 0 2744.15067534 0 355.64033926 0 472.15336321 0 28075
0.16250000 0.16249700 8712.88940422 0 79.57101971 0 2556.84254128 0 250.38377111 0 480.11462437 0 28590
0.16350000 0.16349900 8703.15133330 0 34.86140660 0 2316.11920271 0 461.56127012 0 1144.61152506 0 29163
0.16450000 0.16449100 8648.70464748 0 75.77849582 0 2360.91654719 0 120.21082900 0 1064.15376415 0 28996
0.16550000 0.16550500 8609.16453036 0 66.83111633 0 2043.48649053 0 -157.01696608 0 975.79907103 0 30777
0.16650000 0.16650700 8423.55334943 0 81.49390052 0 2220.76818255 0 113.35425105 0 688.43059458 0 29211
0.16750000 0.16749900 8497.53163308 0 111.24803275 0 2201.29204071 0 -356.66960234 0 678.62597647 0 30922
0.16850000 0.16850800 8267.26729324 0 23.48804960 0 2059.77945885 0 110.02079181 0 226.56542566 0 30867
0.16950000 0.16949900 8170.89588295 0 144.32530941 0 1919.39817907 0 121.99983907 0 80.95342649 0 30852
0.17050000 0.17049200 8103.90505339 0 23.64410274 0 1812.09084860 0 -29.60473381 0 -299.57988429 0 31257
0.17150000 0.17149500 7974.13804909 0 69.62942532 0 1587.22792167 0 138.64994393 0 -395.51651965 0 32608
0.17250000 0.17250900 7848.81861477 0 152.49952156 0 1418.13153300 0 -11.59507003 0 -235.72009962 0 32361
0.17350000 0.17350400 7900.35940699 0 -34.88946733 0 1515.70079255 0 159.79198355 0 -522.20904415 0 32508
0.17450000 0.17449800 7753.51195940 0 40.38071894 0 1169.20070869 0 186.66484464 0 -364.40903957 0 32791
0.17550000 0.17549800 7800.17262496 0 92.15731000 0 1336.53359705 0 -160.42196354 0 -556.23572727 0 33633
0.17650000 0.17650100 7663.17416025 0 150.37888470 0 1387.44219104 0 -266.07337831 0 -62.53782490 0 33984
0.17750000 0.17750300 7695.68245851 0 13.13408451 0 1676.06840922 0 150.00178401 0 -22.29008942 0 34069
0.17850000 0.17849800 7527.99465185 0 -65.34301044 0 1868.63377064 0 200.14064893 0 13.56342475 0 34536
