### header ###
fiducial parameters:
Omega_m = 0.31
Omega_nu = 0
Omega_de = 0.69
Omega_k = 0
H_0 = 100
w_de = -1
zeff = 0
beta = 0
fgrowth = 0
b_1 = 2
gamma = 0.55
Lx = 3500 Ly = 3500 Lz = 3500
nx = 700 ny = 700 nz = 700
xoffset = 1379.75464 yoffset = 22.6059522 zoffset = 368.141391
bins = 400 dk = 0.001
kx_ny = 0.628318531 ky_ny = 0.628318531 kz_ny = 0.628318531
############################
A(data) = 3.30658229 (not used)
A(ran) = 3.31237401 (used)
Ngal = 186361
weighted Ngal = 0
Nran = 9399747
weighted Nran = 0
SN(data) = 6649.02022
SN(ran) = 131.750944
SN(data+ran) = 6780.77116
############################
13 columns: k_central k_mean P_0(k) sigma^{lin}_{P_0(k)} P^img_1(k) sigma^{lin}_{P_1(k)} P_2(k) sigma^{lin}_{P_2(k)} P^img_3(k) sigma^{lin}_{P_3(k)} P_4(k) sigma^{lin}_{P_4(k)} N_modes
### header ###
0.00050000 0 0 0 0 0 0 0 0 0 0 0 0
0.00150000 0.00179520 13488.33734464 0 -19939.42113761 0 -20624.52437310 0 11185.91577016 0 29795.83512958 0 3
0.00250000 0.00253879 25162.93125234 0 -15437.61520829 0 -15588.78822270 0 -27664.55072401 0 -21220.01073725 0 6
0.00350000 0.00331552 44667.79929352 0 -16773.32805677 0 -47708.45093687 0 13967.47705281 0 24551.91721246 0 7
0.00450000 0.00420575 51340.37428954 0 -10842.36594469 0 -35991.71048077 0 -19157.49175276 0 -4068.28431420 0 24
0.00550000 0.00557378 58208.70891169 0 3025.57870670 0 -36098.29688344 0 -24954.41674971 0 6045.02398149 0 45
0.00650000 0.00659388 44604.13582303 0 -2451.78672378 0 -20904.90983195 0 2372.32938885 0 -11102.39905714 0 40
0.00750000 0.00754703 44813.53762142 0 1858.34113987 0 -22306.94803817 0 -10311.66326191 0 7101.79322672 0 57
0.00850000 0.00846663 51748.19760132 0 -7423.85940370 0 -35185.71319854 0 9444.50911971 0 915.57276248 0 75
0.00950000 0.00948925 55463.08310716 0 -5915.62298670 0 -28852.19609323 0 -6014.22372757 0 13202.51719929 0 112
0.01050000 0.01054430 65211.57975283 0 -2000.11991046 0 -33772.91653128 0 -19009.75700941 0 -11775.96744781 0 105
0.01150000 0.01145670 65646.57649714 0 -2603.38120367 0 -29628.35805566 0 -6207.16618968 0 7192.81868007 0 144
0.01250000 0.01249090 64366.76328128 0 2421.14174662 0 -5388.74676687 0 -14183.42265739 0 -10371.48917825 0 169
0.01350000 0.01339930 64305.09622625 0 7373.09499527 0 9762.14990911 0 -13701.95379786 0 1523.84173111 0 180
0.01450000 0.01448870 56976.14419484 0 7305.61615304 0 19246.99771213 0 -13689.97530516 0 -2927.67671124 0 267
0.01550000 0.01550050 47549.29226066 0 4542.45516613 0 34898.89484546 0 418.82356092 0 -1060.36279304 0 238
0.01650000 0.01653350 47586.33685847 0 -1011.09791443 0 38357.57370179 0 7753.03503793 0 4404.51394968 0 315
0.01750000 0.01747870 53272.46079792 0 -2098.69846894 0 26913.67669062 0 19933.76462716 0 4076.73580627 0 297
0.01850000 0.01844180 55706.86761608 0 -4367.60244624 0 26990.31686153 0 5651.59704335 0 87.69232685 0 388
0.01950000 0.01947590 56044.26182725 0 1147.41759788 0 17185.14419945 0 381.59484924 0 2799.47356572 0 399
0.02050000 0.02045430 56895.84392893 0 -60.75358405 0 27278.24433431 0 -2063.52828341 0 861.15602289 0 462
0.02150000 0.02154770 62649.62416976 0 -2620.80547408 0 13999.97425986 0 -4056.38345987 0 -10299.37421570 0 571
0.02250000 0.02255340 60363.83939070 0 -1632.22490769 0 25712.83279703 0 -1113.20125530 0 -19092.05369076 0 510
0.02350000 0.02348930 63066.98591092 0 4150.42571880 0 20266.72235955 0 -14906.67961038 0 -13192.20238612 0 555
0.02450000 0.02439640 65382.05144992 0 -3204.90117896 0 19556.22028305 0 8475.14959764 0 -18504.44207645 0 592
0.02550000 0.02547300 70535.02155207 0 -6650.30387255 0 16779.20639115 0 14169.33683726 0 -12072.32423026 0 837
0.02650000 0.02652900 77980.43115144 0 -3146.25092950 0 4355.00284651 0 4495.59485902 0 -17808.91311582 0 723
0.02750000 0.02749970 73738.49196662 0 4491.63530171 0 14982.21066160 0 -1928.38204860 0 -3100.12264139 0 826
0.02850000 0.02848090 71235.65246329 0 6107.96652417 0 20800.76349261 0 -15040.55035755 0 -9166.43062983 0 831
0.02950000 0.02946900 65775.45620568 0 6130.80329869 0 29052.61402208 0 -8049.13672285 0 360.69237947 0 996
0.03050000 0.03053250 58505.62025400 0 2939.67738634 0 37948.53035834 0 -115.44050520 0 -2789.52476205 0 1041
0.03150000 0.03150510 58509.61308490 0 1284.34951541 0 34934.71941160 0 3815.83758046 0 -2979.91624887 0 1036
0.03250000 0.03246190 53699.25005648 0 1367.82186364 0 38059.77506373 0 5628.33880335 0 -1629.28574050 0 1059
0.03350000 0.03345080 52700.04412342 0 2348.36131224 0 33111.10480938 0 5199.34239658 0 6979.60150994 0 1302
0.03450000 0.03451200 52734.75956987 0 -1049.85166569 0 28715.99619470 0 9974.02504442 0 9056.21740575 0 1339
0.03550000 0.03553350 51402.04134457 0 261.45389478 0 24439.67429935 0 8547.80802884 0 11515.10249558 0 1365
0.03650000 0.03647120 51007.52746912 0 -2117.96387804 0 16649.21756292 0 7486.10320098 0 13987.21938337 0 1308
0.03750000 0.03744890 52000.74415583 0 94.83195215 0 12774.50790905 0 4001.77040610 0 14097.46588104 0 1579
0.03850000 0.03847530 50404.72091498 0 2125.32843281 0 9914.44313441 0 -3767.74615049 0 6803.93913267 0 1662
0.03950000 0.03950240 47437.71481936 0 2353.76272515 0 13032.26732613 0 -5757.89507490 0 4686.19707858 0 1683
0.04050000 0.04050350 44769.17283362 0 2006.83008461 0 16752.25478256 0 -2526.44157044 0 985.98078982 0 1822
0.04150000 0.04152450 43538.27179631 0 1259.95997332 0 18125.23405279 0 -1219.80984037 0 -2176.13720603 0 1887
0.04250000 0.04250150 42301.49242461 0 668.07602994 0 17472.96076026 0 -145.97789775 0 -8886.71064279 0 1920
0.04350000 0.04349210 41458.33963261 0 1089.83099421 0 19371.99550174 0 1365.62580664 0 -5538.64429362 0 2005
0.04450000 0.04448520 38706.94640566 0 1768.32498544 0 17683.58259031 0 499.06837084 0 -6848.08209653 0 2151
0.04550000 0.04548030 38896.05131363 0 436.70589776 0 20710.70297339 0 112.90173021 0 -753.32075144 0 2274
0.04650000 0.04648670 36634.88899180 0 1339.19548432 0 17477.95179889 0 1533.84599076 0 -4340.16282499 0 2311
0.04750000 0.04749250 36014.55834648 0 405.97662749 0 18439.55857430 0 1523.69754555 0 -2180.22985770 0 2568
0.04850000 0.04851840 34521.23958937 0 807.32157114 0 19186.43977679 0 -77.50029324 0 940.55013800 0 2493
0.04950000 0.04949480 35355.29759988 0 595.34439683 0 20324.28567171 0 103.74927449 0 -1764.90889678 0 2644
0.05050000 0.05050630 33873.73551154 0 -106.17292285 0 18616.01951774 0 -321.53712689 0 -3766.19338292 0 2829
0.05150000 0.05149060 34285.44074225 0 405.33999279 0 19009.31336153 0 65.72499126 0 -3823.57923593 0 2784
0.05250000 0.05249300 34140.58971011 0 -284.65556968 0 18787.15668666 0 -133.12541873 0 -2946.29883092 0 3055
0.05350000 0.05348950 34911.87154589 0 -74.20265856 0 18287.60917611 0 3380.36391468 0 -3398.07655621 0 3009
0.05450000 0.05448610 36124.80484415 0 -625.82744252 0 16067.81701889 0 3404.29871770 0 -818.28854669 0 3336
0.05550000 0.05550870 34737.96157774 0 937.10410311 0 15817.37779180 0 -320.90049218 0 -3100.55519807 0 3349
0.05650000 0.05647670 33924.31136962 0 1642.04061699 0 16151.66646782 0 1416.35694148 0 1182.05540595 0 3324
0.05750000 0.05747970 31524.73090987 0 603.81585306 0 17239.04741662 0 -346.50562946 0 2683.19345691 0 3639
0.05850000 0.05849280 31386.97824378 0 570.56333549 0 15847.43493553 0 1319.51970093 0 395.24256709 0 3846
0.05950000 0.05951020 30805.91043566 0 797.18532625 0 17724.39819508 0 190.88837244 0 953.14862862 0 3787
0.06050000 0.06049470 29405.09226110 0 911.46791049 0 15384.15563900 0 -892.66944078 0 -896.77318365 0 3930
0.06150000 0.06148310 28265.91542255 0 405.95222686 0 15696.48374506 0 330.92915246 0 -1551.35899074 0 4083
0.06250000 0.06249100 28014.14525182 0 226.31809197 0 13908.58279701 0 569.46530699 0 -3855.14478244 0 4303
0.06350000 0.06350600 27801.63791829 0 -82.96869698 0 11288.17660602 0 2485.86997201 0 -3368.25232761 0 4470
0.06450000 0.06451750 28001.39037533 0 -406.55115150 0 10794.69598021 0 2214.87875697 0 -4567.43254166 0 4479
0.06550000 0.06550280 28340.78100195 0 -835.13052925 0 7989.17771215 0 1465.45767037 0 -4458.90517952 0 4636
0.06650000 0.06648880 29119.60485165 0 -775.14046320 0 5798.27812299 0 1682.31275311 0 -2990.46397716 0 4653
0.06750000 0.06749660 29574.34392653 0 -295.81885940 0 3571.16577578 0 1804.40464911 0 -3719.29980222 0 5220
0.06850000 0.06852730 29935.80603507 0 -278.62084942 0 2913.79053266 0 1016.75664312 0 -1901.71881114 0 5029
0.06950000 0.06949320 29645.43849897 0 1106.17054555 0 3650.07964207 0 -386.49161270 0 -3782.12034174 0 5040
0.07050000 0.07048030 28534.98786051 0 1135.35037560 0 4563.91663222 0 -1217.96870167 0 564.79147660 0 5475
0.07150000 0.07148790 26567.07678599 0 1123.38297410 0 6195.86425999 0 -1422.32400544 0 541.64747592 0 5509
0.07250000 0.07249820 25990.11272074 0 624.39224164 0 7818.26236718 0 583.43577867 0 2073.33290152 0 5916
0.07350000 0.07351270 25015.52924490 0 535.27225592 0 7426.51019977 0 1038.33234854 0 1487.38496674 0 5721
0.07450000 0.07449140 24813.44763650 0 400.52974067 0 9216.09700976 0 166.46444764 0 4347.13918787 0 6028
0.07550000 0.07549160 24150.19405900 0 250.01665249 0 8464.53532216 0 219.84748767 0 3558.59944964 0 6183
0.07650000 0.07648840 24189.34598423 0 -12.83961324 0 8884.34821784 0 446.08572302 0 4778.29837804 0 6330
0.07750000 0.07749960 24501.23044241 0 -312.97361372 0 7229.05362050 0 791.82827813 0 4191.81806581 0 6583
0.07850000 0.07848650 24906.72460284 0 -95.30842997 0 7426.93166526 0 921.26920123 0 3644.66713796 0 6549
0.07950000 0.07947320 24015.76875199 0 718.18827599 0 7292.16253114 0 -848.52425869 0 3590.50882326 0 6828
0.08050000 0.08048110 23526.64696657 0 740.36956077 0 8073.02716108 0 -851.25602049 0 1967.12359954 0 7147
0.08150000 0.08149960 23009.46445287 0 75.30124162 0 7403.03013583 0 -77.59390294 0 1943.64353560 0 7386
0.08250000 0.08250610 22218.66211047 0 383.05777812 0 8773.34751879 0 160.88224821 0 581.32956037 0 7227
0.08350000 0.08350160 22607.96312335 0 198.83965153 0 7545.59638141 0 426.21584369 0 -192.88700613 0 7798
0.08450000 0.08449610 22189.38135052 0 -250.73314381 0 7410.81615609 0 289.43809380 0 371.33438295 0 7371
0.08550000 0.08548940 22435.93865868 0 -50.64329256 0 6400.03101341 0 779.63572532 0 -832.14256079 0 8256
0.08650000 0.08650700 22032.55182567 0 233.90890716 0 5960.99707341 0 55.25046486 0 446.47724227 0 8037
0.08750000 0.08749060 21867.62572705 0 623.25539395 0 6592.08617977 0 -405.19580723 0 -1583.71201224 0 8155
0.08850000 0.08849210 21735.30774746 0 -206.27740820 0 6793.70195789 0 648.66532616 0 550.37513880 0 8718
0.08950000 0.08949900 21214.90878665 0 119.40338987 0 5869.28396585 0 274.09342282 0 -1396.60351972 0 8571
0.09050000 0.09049190 21471.55908403 0 309.29577282 0 6460.26730404 0 -88.41990937 0 -379.68383601 0 8932
0.09150000 0.09150830 20992.30846390 0 320.33595026 0 6163.27832335 0 -678.37531542 0 -905.42209903 0 9285
0.09250000 0.09250820 20437.74861649 0 349.19746296 0 6348.70095394 0 176.47536200 0 -1280.68942041 0 9204
0.09350000 0.09350330 19926.99899702 0 380.33267103 0 7420.39895025 0 -452.06055081 0 -149.34740339 0 9349
0.09450000 0.09448040 19814.42334800 0 52.98930254 0 5516.09589023 0 764.81012236 0 -2940.73105005 0 9564
0.09550000 0.09549270 20161.57781248 0 -125.46251076 0 5998.21913037 0 795.08798091 0 -1030.67165881 0 10155
0.09650000 0.09649430 19405.15818061 0 -25.03737890 0 4491.10292426 0 1148.57108237 0 -2047.42386544 0 9913
0.09750000 0.09749140 19579.62270861 0 300.67125807 0 4058.83461440 0 352.00242667 0 -1310.87965851 0 10476
0.09850000 0.09850240 19038.03956162 0 653.88262520 0 3980.59731113 0 -714.71118574 0 -2409.91745530 0 10575
0.09950000 0.09950330 17814.56962627 0 717.85997656 0 4085.48676067 0 8.36891811 0 6.73438624 0 10882
0.10050000 0.10051200 17249.14040585 0 344.84084080 0 5071.88236126 0 -61.33121359 0 -1402.99204916 0 10875
0.10150000 0.10150300 17092.64361691 0 -35.20157361 0 4496.38233401 0 592.45070355 0 -829.77126289 0 11118
0.10250000 0.10250800 16792.18309158 0 383.10436115 0 4604.18876834 0 -5.91145270 0 -633.17536050 0 11575
0.10350000 0.10349800 16550.72773402 0 281.08642250 0 4533.63766456 0 -510.07194733 0 -796.80822556 0 11364
0.10450000 0.10450100 16176.84348489 0 237.15862787 0 5609.29521818 0 -134.74029701 0 -960.07840847 0 12093
0.10550000 0.10551000 15869.39550549 0 426.67058276 0 5400.42579726 0 -94.59415688 0 -1018.79631424 0 12067
0.10650000 0.10649700 15083.14055383 0 542.22865464 0 5506.97892634 0 -73.30061151 0 -403.56096480 0 12054
0.10750000 0.10749900 14473.56836955 0 198.27067313 0 5569.00089967 0 -95.08372232 0 -779.34624508 0 12807
0.10850000 0.10850100 14653.24576011 0 206.26077141 0 5675.99767663 0 1011.60256389 0 -264.61710415 0 12736
0.10950000 0.10950300 13835.04816124 0 241.24906130 0 4599.37518887 0 218.30692041 0 -578.57339792 0 12933
0.11050000 0.11050200 13927.65965576 0 6.81720420 0 4791.11980171 0 915.89218895 0 355.91651007 0 13428
0.11150000 0.11150900 13606.56950411 0 15.68616893 0 4112.33854848 0 299.13845465 0 316.73020213 0 13453
0.11250000 0.11250000 13567.30666691 0 173.01269032 0 3746.83924425 0 8.27733810 0 -315.85399757 0 13668
0.11350000 0.11349100 13626.64457059 0 49.05858234 0 3942.05540173 0 -259.00939497 0 416.91254769 0 13791
0.11450000 0.11448600 13569.19217039 0 -113.46405390 0 3705.55780920 0 199.70809225 0 -611.03844051 0 14205
0.11550000 0.11549300 13687.53524183 0 -109.81416281 0 3880.88745056 0 281.77185847 0 -106.62133994 0 14776
0.11650000 0.11649800 13937.53082104 0 -11.25834129 0 3642.64854011 0 -163.22359989 0 -588.64642299 0 14553
0.11750000 0.11747300 13824.51152414 0 132.08839182 0 3894.44089323 0 271.79643593 0 -633.40716652 0 14568
0.11850000 0.11849100 13674.89127731 0 315.89614412 0 3449.28461252 0 -412.14333300 0 -695.05647563 0 16015
0.11950000 0.11950300 13331.84055570 0 322.11165089 0 4365.80567233 0 -634.65936265 0 -1219.42164847 0 15270
0.12050000 0.12050700 12831.84939728 0 359.57993242 0 4605.05388171 0 -429.55540309 0 -771.71882894 0 15999
0.12150000 0.12150000 12414.26583218 0 255.90053247 0 4915.76267301 0 -111.81812027 0 -1491.85471911 0 15670
0.12250000 0.12250700 12445.87574348 0 -16.41718972 0 5022.87036194 0 548.41976078 0 -1063.03244414 0 16887
0.12350000 0.12352200 12391.86161434 0 -174.38467138 0 4067.37483605 0 669.00547224 0 -1477.22543034 0 16407
0.12450000 0.12449800 12717.83189265 0 -161.79727196 0 3745.34193266 0 358.56065142 0 -726.96695837 0 16306
0.12550000 0.12549900 12634.31517963 0 104.48550815 0 3718.17959133 0 -115.10666017 0 -1128.74002222 0 17523
0.12650000 0.12650100 12569.98623733 0 218.78606012 0 3910.33457846 0 -136.88089802 0 -923.59169787 0 17154
0.12750000 0.12750600 12493.01333051 0 214.69008109 0 4200.33610506 0 -596.58217441 0 -1168.79033440 0 18007
0.12850000 0.12850300 12081.19718782 0 173.47962971 0 4471.73769439 0 -429.13615584 0 -1735.68359282 0 17496
0.12950000 0.12949900 11963.85232411 0 299.05416155 0 5276.63694812 0 -139.57162240 0 -1411.35481166 0 18405
0.13050000 0.13049000 11823.65959468 0 21.58602024 0 5028.00558613 0 0.35801053 0 -1782.16679923 0 18100
0.13150000 0.13148800 11865.80614309 0 -25.81176627 0 5052.11784829 0 544.22839745 0 -1066.11136042 0 19059
0.13250000 0.13249300 11701.54551628 0 88.37565549 0 4656.32848520 0 401.57342231 0 -1278.26044828 0 18957
0.13350000 0.13349100 11705.98199506 0 -20.30897982 0 4300.76689343 0 446.35523910 0 -817.58092832 0 19468
0.13450000 0.13450700 11827.31968968 0 -237.03662470 0 4011.35320026 0 888.80194040 0 -168.25234858 0 19953
0.13550000 0.13551000 11943.33360975 0 -6.57968622 0 3406.62786906 0 349.98493794 0 -563.68013866 0 19956
0.13650000 0.13649900 11907.17630770 0 54.30250026 0 2836.45161634 0 139.32539782 0 -101.25619524 0 19723
0.13750000 0.13749600 11541.72136826 0 286.18948221 0 3334.29108256 0 -240.31296428 0 -398.51890667 0 20946
0.13850000 0.13851100 11640.76575701 0 98.88600646 0 3013.24529570 0 -150.03616672 0 -274.58809021 0 20955
0.13950000 0.13949800 11344.51988652 0 170.23545460 0 3611.34918233 0 67.80913808 0 -476.90261374 0 20506
0.14050000 0.14048300 11183.80844274 0 204.29984779 0 3162.62153619 0 50.80555677 0 1.27003078 0 21447
0.14150000 0.14148400 10859.12474328 0 73.92593320 0 3427.10221862 0 394.70686228 0 -51.02227876 0 21771
0.14250000 0.14249400 10826.33916510 0 163.59515499 0 3331.44064494 0 176.20140944 0 440.23733487 0 22470
0.14350000 0.14350900 10587.84515712 0 171.37341141 0 2876.32446937 0 566.41300959 0 627.40571985 0 22519
0.14450000 0.14449900 10457.62341375 0 -10.02016442 0 2642.26694017 0 646.10104142 0 1387.20927591 0 22218
0.14550000 0.14550500 10395.65689640 0 -63.74487987 0 1902.57283330 0 542.78210537 0 1233.04163832 0 23559
0.14650000 0.14650700 10494.05799573 0 16.82612215 0 1866.14934252 0 171.76603978 0 954.45406250 0 23044
0.14750000 0.14750500 10077.81646546 0 236.69279759 0 1494.43896800 0 -253.32626566 0 1168.10268019 0 23649
0.14850000 0.14849900 9940.32998809 0 254.02057459 0 1646.93183484 0 -428.63705198 0 809.87365556 0 23640
0.14950000 0.14949500 9725.21622328 0 91.00693106 0 1791.52776946 0 -157.76562187 0 355.51833610 0 24457
0.15050000 0.15050000 9730.36253866 0 -50.95417881 0 1903.92595933 0 286.28043003 0 -192.66850955 0 24591
0.15150000 0.15149900 9827.49924153 0 -36.73038420 0 1791.16175996 0 -126.58937637 0 -15.39879602 0 25020
0.15250000 0.15250500 9727.26809471 0 88.45695396 0 1623.03030542 0 -64.54488790 0 -660.47966915 0 25297
0.15350000 0.15350100 9701.05959632 0 189.09492589 0 2116.52202243 0 -573.09989223 0 -291.79164579 0 25452
0.15450000 0.15450400 9540.71416204 0 216.03100680 0 2616.24699213 0 -177.17854389 0 52.58014828 0 26061
0.15550000 0.15549900 9420.39685755 0 81.97536938 0 2235.83002800 0 439.19587147 0 -88.28858960 0 26128
0.15650000 0.15649500 9345.04326548 0 -31.02340881 0 2550.30982627 0 284.67109735 0 733.48525482 0 26331
0.15750000 0.15749700 9242.80461201 0 41.16763936 0 2222.85332757 0 369.89474558 0 333.59436709 0 27345
0.15850000 0.15849900 9325.23438773 0 67.71819026 0 2585.00309033 0 186.18903229 0 1487.57351709 0 26980
0.15950000 0.15949700 9217.78287170 0 -23.93724308 0 2087.50745122 0 -44.26596523 0 813.98516227 0 27777
0.16050000 0.16050000 9373.63637121 0 42.44090877 0 2242.04109830 0 -94.89395194 0 1069.70158087 0 28224
0.16150000 0.16150500 9209.32028843 0 210.61850269 0 2245.63464611 0 -411.33145738 0 286.17617278 0 28075
0.16250000 0.16249700 9018.39642416 0 184.52646187 0 2548.85687947 0 -457.63942288 0 -78.95490372 0 28590
0.16350000 0.16349900 8719.08938332 0 212.53062504 0 2743.84012182 0 -232.52916226 0 57.48456466 0 29163
0.16450000 0.16449100 8676.34391028 0 117.82843990 0 2730.22013197 0 196.79665305 0 -497.18175824 0 28996
0.16550000 0.16550500 8452.15754636 0 92.27898043 0 2792.14228453 0 5.47193074 0 -678.53391954 0 30777
0.16650000 0.16650700 8206.63171952 0 5.80730636 0 2415.82906328 0 492.27501271 0 -505.81292770 0 29211
0.16750000 0.16749900 8278.56922293 0 39.17022570 0 2177.61233522 0 424.38468707 0 22.82257778 0 30922
0.16850000 0.16850800 8321.61415828 0 -111.05282768 0 1580.19610280 0 510.08858413 0 -165.06141122 0 30867
0.16950000 0.16949900 8162.95458594 0 180.92182286 0 1735.25103614 0 -84.92873330 0 5.25250250 0 30852
0.17050000 0.17049200 7971.08796993 0 198.09210485 0 1475.04046454 0 -260.44570498 0 -162.19433681 0 31257
0.17150000 0.17149500 7813.31569334 0 103.99117350 0 1782.10025205 0 -41.68127269 0 -83.78423269 0 32608
0.17250000 0.17250900 7727.15927545 0 73.28375289 0 1650.13719076 0 99.50278792 0 -13.77493387 0 32361
0.17350000 0.17350400 7648.74451302 0 7.74828801 0 1608.03500714 0 163.24134580 0 -412.18991602 0 32508
0.17450000 0.17449800 7690.60269031 0 26.61399255 0 1441.56723215 0 167.70000698 0 116.91785263 0 32791
0.17550000 0.17549800 7566.58092603 0 58.17188614 0 1216.19411016 0 136.75667661 0 -236.06281761 0 33633
0.17650000 0.17650100 7515.06231621 0 104.71287768 0 1455.77505544 0 -175.45497188 0 125.00333520 0 33984
0.17750000 0.17750300 7451.07720101 0 115.56139924 0 1676.12386521 0 -115.25971869 0 -320.76739782 0 34069
