### header ###
fiducial parameters:
Omega_m = 0.31
Omega_nu = 0
Omega_de = 0.69
Omega_k = 0
H_0 = 100
w_de = -1
zeff = 0
beta = 0
fgrowth = 0
b_1 = 2
gamma = 0.55
Lx = 3500 Ly = 3500 Lz = 3500
nx = 700 ny = 700 nz = 700
xoffset = 1379.75464 yoffset = 22.6059522 zoffset = 368.141391
bins = 400 dk = 0.001
kx_ny = 0.628318531 ky_ny = 0.628318531 kz_ny = 0.628318531
############################
A(data) = 3.34751009 (not used)
A(ran) = 3.34841868 (used)
Ngal = 188015
weighted Ngal = 0
Nran = 9399747
weighted Nran = 0
SN(data) = 6672.89451
SN(ran) = 133.184635
SN(data+ran) = 6806.07914
############################
13 columns: k_central k_mean P_0(k) sigma^{lin}_{P_0(k)} P^img_1(k) sigma^{lin}_{P_1(k)} P_2(k) sigma^{lin}_{P_2(k)} P^img_3(k) sigma^{lin}_{P_3(k)} P_4(k) sigma^{lin}_{P_4(k)} N_modes
### header ###
0.00050000 0 0 0 0 0 0 0 0 0 0 0 0
0.00150000 0.00179520 48005.91683902 0 -66039.20486911 0 -80328.99210523 0 79503.80705228 0 56923.35009736 0 3
0.00250000 0.00253879 67063.58781924 0 -51161.58419473 0 -16663.96885486 0 -117939.35186862 0 -48087.76987250 0 6
0.00350000 0.00331552 98514.11862153 0 -16541.18930464 0 -101199.74105058 0 11854.16038629 0 24440.78341904 0 7
0.00450000 0.00420575 129982.17351500 0 -17744.80599746 0 -66682.82702801 0 -64963.80241301 0 -7762.34055217 0 24
0.00550000 0.00557378 165373.07385708 0 -27037.12171265 0 -89411.90602204 0 -28133.48653098 0 1019.52611499 0 45
0.00650000 0.00659388 166338.00799158 0 -12787.15187358 0 -19708.61332911 0 -34843.32794875 0 -74318.33974308 0 40
0.00750000 0.00754703 182949.29366093 0 6809.61782551 0 -74404.96199124 0 -47081.79830930 0 -14660.23321419 0 57
0.00850000 0.00846663 164697.61996294 0 21277.68496138 0 -10919.59394904 0 -59103.54668147 0 -60684.15315857 0 75
0.00950000 0.00948925 134932.17471299 0 26756.29260592 0 15827.02713314 0 -53885.58216521 0 -24642.97593941 0 112
0.01050000 0.01054430 102443.39696438 0 21785.55086964 0 55353.05843343 0 -5382.64660855 0 -45110.44896372 0 105
0.01150000 0.01145670 89046.22925865 0 10785.07991245 0 54849.40718001 0 872.26052927 0 -34259.93098927 0 144
0.01250000 0.01249090 74349.17327059 0 2328.53025210 0 50907.37396068 0 20172.00353761 0 -19390.85053655 0 169
0.01350000 0.01339930 78581.57402603 0 1674.56000644 0 32061.32301823 0 33318.28836837 0 -23818.34544631 0 180
0.01450000 0.01448870 76276.71238822 0 -6007.34718546 0 14866.86221334 0 20498.97202364 0 1109.98480818 0 267
0.01550000 0.01550050 87253.89183182 0 -7868.42785098 0 -5693.93214210 0 22810.48837962 0 -8128.97115849 0 238
0.01650000 0.01653350 86583.31806433 0 -4757.15855665 0 -17999.01623151 0 11192.12684045 0 21802.63131294 0 315
0.01750000 0.01747870 90098.11837722 0 -813.46720337 0 -28959.78070363 0 7653.50263651 0 9190.64271277 0 297
0.01850000 0.01844180 87203.42688571 0 3843.64321121 0 -35155.76696678 0 -9135.64146710 0 20885.83297320 0 388
0.01950000 0.01947590 77241.31378681 0 7974.75915612 0 -8907.75064340 0 -13467.81863029 0 10126.88392076 0 399
0.02050000 0.02045430 74024.86667183 0 7226.69119555 0 1601.71302488 0 -13057.77707911 0 23252.91622589 0 462
0.02150000 0.02154770 67323.12182783 0 1290.51622091 0 13987.55211928 0 -1448.74323657 0 13509.85426672 0 571
0.02250000 0.02255340 70052.22174891 0 -1053.91880761 0 20405.58414534 0 -5430.48294099 0 11451.54993707 0 510
0.02350000 0.02348930 72003.16329211 0 -22.45512643 0 28176.85311105 0 -3286.65439167 0 10899.75179770 0 555
0.02450000 0.02439640 73802.37726105 0 557.37035672 0 35560.37383145 0 -1851.47568896 0 4915.70721703 0 592
0.02550000 0.02547300 73498.25664073 0 2812.35044537 0 41532.42882822 0 -1997.63548234 0 18659.71883372 0 837
0.02650000 0.02652900 72512.80379188 0 3405.21928704 0 51474.46686064 0 -178.03922077 0 5619.79858169 0 723
0.02750000 0.02749970 71689.72606635 0 4095.15828440 0 60569.69200606 0 982.01346868 0 23434.14638402 0 826
0.02850000 0.02848090 65054.30658010 0 2096.32495279 0 55756.11253053 0 4998.33663429 0 11777.29839144 0 831
0.02950000 0.02946900 65463.01718765 0 1539.29176846 0 58988.75279306 0 9642.13206694 0 27098.78876768 0 996
0.03050000 0.03053250 63579.62103387 0 1796.77390561 0 53168.97993039 0 11117.15034908 0 19297.68448218 0 1041
0.03150000 0.03150510 62295.59316317 0 1737.51364032 0 56666.69979998 0 6242.00363929 0 26875.63388509 0 1036
0.03250000 0.03246190 54499.81265221 0 1921.26150016 0 47126.16309709 0 5672.57049677 0 27296.21207336 0 1059
0.03350000 0.03345080 58306.97691665 0 749.18928058 0 43048.48453908 0 11118.25946878 0 27325.82556921 0 1302
0.03450000 0.03451200 54032.76234872 0 -620.96838914 0 38843.81177600 0 8411.33085040 0 25924.12009890 0 1339
0.03550000 0.03553350 54324.79356436 0 2366.88361114 0 30883.54881430 0 2007.80610995 0 22008.81666421 0 1365
0.03650000 0.03647120 51124.31777298 0 2531.79861857 0 29832.76881542 0 3680.78007522 0 26826.49988260 0 1308
0.03750000 0.03744890 47287.87274859 0 1721.36485756 0 28231.75453594 0 2226.06977469 0 26770.15660211 0 1579
0.03850000 0.03847530 44568.42216886 0 1758.93074162 0 26635.62038313 0 6040.37676997 0 19443.64463402 0 1662
0.03950000 0.03950240 43574.65092230 0 556.22352695 0 24461.52395734 0 5736.23396726 0 24020.09431880 0 1683
0.04050000 0.04050350 40502.50027961 0 761.45281704 0 20362.32847724 0 3358.79153662 0 19636.74237289 0 1822
0.04150000 0.04152450 39337.92460005 0 906.67540429 0 18024.63689646 0 3709.47300173 0 26258.29786295 0 1887
0.04250000 0.04250150 38979.23529074 0 551.07166597 0 16987.72089378 0 2026.21749688 0 19367.66993493 0 1920
0.04350000 0.04349210 39382.73303572 0 -1157.23330718 0 10327.42385278 0 5851.57132432 0 19384.86129020 0 2005
0.04450000 0.04448520 36566.01265875 0 -910.35435431 0 11385.55731523 0 3041.11747363 0 20782.35210567 0 2151
0.04550000 0.04548030 41389.24147562 0 622.58770389 0 6037.58178834 0 -1899.99967561 0 17288.29233107 0 2274
0.04650000 0.04648670 39885.05334550 0 -141.37172366 0 8585.77319600 0 2518.62227659 0 16755.69305362 0 2311
0.04750000 0.04749250 38328.62567776 0 534.94728385 0 8132.01014645 0 -1387.69728857 0 15115.08320104 0 2568
0.04850000 0.04851840 39443.06914712 0 114.83048936 0 8724.35770187 0 -836.31617820 0 13241.11456467 0 2493
0.04950000 0.04949480 38872.98162398 0 611.31682955 0 8618.32585904 0 1842.41418105 0 10071.90485748 0 2644
0.05050000 0.05050630 38324.63284686 0 370.39495856 0 9463.67470804 0 -2000.57464954 0 9249.03786470 0 2829
0.05150000 0.05149060 37652.61722377 0 1527.59055568 0 11427.48203969 0 -1309.54871487 0 7189.73532732 0 2784
0.05250000 0.05249300 35757.46440122 0 776.24625553 0 11525.08457284 0 -615.70117971 0 6407.81703367 0 3055
0.05350000 0.05348950 35165.74904403 0 512.53641129 0 12366.57368530 0 -1195.83067256 0 3494.44796649 0 3009
0.05450000 0.05448610 34698.25509267 0 1006.88215047 0 14929.63838806 0 -1246.83908733 0 1866.81481434 0 3336
0.05550000 0.05550870 33088.81150351 0 1090.88465792 0 13729.12723039 0 -2285.11930724 0 -2288.85704061 0 3349
0.05650000 0.05647670 33223.34772249 0 234.68640007 0 16255.14733535 0 -795.18114696 0 -1507.04965893 0 3324
0.05750000 0.05747970 32811.08793193 0 -952.84694806 0 14630.06515849 0 2743.64048028 0 -3317.75410791 0 3639
0.05850000 0.05849280 34117.18728455 0 -334.29200338 0 14266.49572253 0 897.26119632 0 -3642.82599927 0 3846
0.05950000 0.05951020 34719.43927884 0 -77.45293382 0 11520.20444618 0 1274.15670541 0 -4561.05510341 0 3787
0.06050000 0.06049470 33528.02290266 0 578.82960457 0 12285.71885955 0 1205.21382518 0 -2821.14576455 0 3930
0.06150000 0.06148310 32797.22393574 0 780.92008593 0 12247.89787795 0 -48.74935977 0 -384.29999218 0 4083
0.06250000 0.06249100 32417.35044026 0 655.56959626 0 11710.30756187 0 1769.54501710 0 -590.33450317 0 4303
0.06350000 0.06350600 31527.61462108 0 346.82505593 0 10655.94510638 0 2115.30199077 0 -145.89471378 0 4470
0.06450000 0.06451750 30180.14510384 0 497.78622847 0 9720.18081986 0 -559.06952809 0 377.21493557 0 4479
0.06550000 0.06550280 30745.90706017 0 274.00912973 0 10246.58011822 0 -450.35694296 0 1276.29730642 0 4636
0.06650000 0.06648880 30326.43799159 0 -317.19603240 0 8694.85511798 0 496.02161904 0 -1426.82703140 0 4653
0.06750000 0.06749660 30517.20657910 0 -490.17101265 0 8546.63236197 0 849.22411321 0 -3579.20689357 0 5220
0.06850000 0.06852730 31170.14534344 0 226.21272560 0 7346.38739302 0 -516.60798969 0 -2338.29050541 0 5029
0.06950000 0.06949320 30852.04981496 0 1.73899986 0 7234.02247674 0 -64.94006725 0 -5656.19989008 0 5040
0.07050000 0.07048030 30342.96387504 0 776.24847377 0 8174.34524520 0 -898.65868713 0 -3544.81309183 0 5475
0.07150000 0.07148790 29764.22521828 0 1014.79571950 0 8328.26887645 0 200.64197103 0 -4381.54408080 0 5509
0.07250000 0.07249820 27551.19869120 0 879.06165124 0 8473.09772620 0 325.70076222 0 -2137.69511741 0 5916
0.07350000 0.07351270 27256.83832420 0 591.31052850 0 9864.41074498 0 275.16705069 0 -3120.63026455 0 5721
0.07450000 0.07449140 26455.49934469 0 704.39415434 0 9550.81824246 0 980.86220243 0 -416.26925826 0 6028
0.07550000 0.07549160 25341.27769927 0 372.73298288 0 8510.65251907 0 1380.74310808 0 917.84313049 0 6183
0.07650000 0.07648840 24416.38278576 0 378.81539529 0 7350.38022392 0 38.56808462 0 289.56453345 0 6330
0.07750000 0.07749960 24753.33334904 0 74.96052005 0 8145.81868665 0 499.53420111 0 -383.38385931 0 6583
0.07850000 0.07848650 24350.83381179 0 85.44403031 0 8139.38579242 0 225.91326328 0 210.74272409 0 6549
0.07950000 0.07947320 24173.81830850 0 149.28972916 0 7598.15756374 0 -275.50976867 0 -37.84327490 0 6828
0.08050000 0.08048110 24295.82147493 0 -289.91390615 0 6577.65653254 0 235.53931311 0 -2749.13062277 0 7147
0.08150000 0.08149960 24552.91542019 0 82.76750267 0 6743.95793958 0 479.58113780 0 -961.31618605 0 7386
0.08250000 0.08250610 24408.17530001 0 254.56515236 0 6975.35358151 0 -215.04056291 0 -2034.21424988 0 7227
0.08350000 0.08350160 23872.02683954 0 748.91643713 0 6999.45475248 0 -523.60542585 0 -1616.64177598 0 7798
0.08450000 0.08449610 23348.63325555 0 700.37692281 0 8265.14887462 0 -120.06331608 0 -1136.81441360 0 7371
0.08550000 0.08548940 22085.34592315 0 549.73074026 0 8320.07248191 0 -817.58536480 0 -3000.70115195 0 8256
0.08650000 0.08650700 21470.44996434 0 608.57841303 0 9428.99253518 0 -373.34854431 0 -177.46247853 0 8037
0.08750000 0.08749060 21212.35781135 0 32.34925049 0 8900.70773334 0 928.66370224 0 -2275.04850041 0 8155
0.08850000 0.08849210 21233.43108556 0 -84.92718054 0 8791.06016031 0 1268.64438053 0 -634.61499786 0 8718
0.08950000 0.08949900 21399.13356796 0 247.38692969 0 8141.51530224 0 -34.42940448 0 -1844.82097079 0 8571
0.09050000 0.09049190 20801.87261230 0 313.38287889 0 8582.88948479 0 446.04690383 0 -229.93160393 0 8932
0.09150000 0.09150830 19750.09440570 0 738.31879845 0 8067.86975450 0 -135.33256692 0 90.98641234 0 9285
0.09250000 0.09250820 19566.53509621 0 331.50034911 0 8258.69379799 0 886.05686916 0 670.01477116 0 9204
0.09350000 0.09350330 18838.84166443 0 -142.27787445 0 7781.23995177 0 866.53081693 0 1825.44464972 0 9349
0.09450000 0.09448040 19392.95786397 0 23.68735841 0 7050.31898168 0 974.84190073 0 1410.22350957 0 9564
0.09550000 0.09549270 19053.12358947 0 196.29644007 0 6971.50493617 0 528.38351349 0 2084.22445692 0 10155
0.09650000 0.09649430 18622.45241197 0 398.44126829 0 6741.62878822 0 5.21758742 0 1225.44416842 0 9913
0.09750000 0.09749140 18612.47033472 0 323.37271998 0 6586.37421334 0 -241.39102862 0 2254.27468853 0 10476
0.09850000 0.09850240 17461.53682740 0 264.80676362 0 6121.55324044 0 267.41319490 0 767.69716093 0 10575
0.09950000 0.09950330 17773.53219756 0 -288.70940216 0 6251.84153099 0 865.09339781 0 1171.58531603 0 10882
0.10050000 0.10051200 17912.06124744 0 -41.26734922 0 5092.41216681 0 264.88107464 0 -302.76305781 0 10875
0.10150000 0.10150300 17946.55486995 0 334.90201921 0 4992.01465203 0 -490.11001106 0 -517.95557012 0 11118
0.10250000 0.10250800 16884.46185019 0 592.84665928 0 5520.58782499 0 -719.83310050 0 -635.26937848 0 11575
0.10350000 0.10349800 16791.73944370 0 422.78422735 0 6238.05517318 0 -444.81689009 0 -1042.74997228 0 11364
0.10450000 0.10450100 15985.52033753 0 235.87093990 0 5983.04637295 0 557.91604361 0 -1314.29574717 0 12093
0.10550000 0.10551000 16173.73794975 0 51.03104081 0 6111.03878573 0 293.00724098 0 -104.19458605 0 12067
0.10650000 0.10649700 15836.12191464 0 -39.11499154 0 5837.49659539 0 870.97173219 0 -402.68919672 0 12054
0.10750000 0.10749900 15807.28480258 0 210.19481896 0 5367.14111521 0 22.67207024 0 119.38009835 0 12807
0.10850000 0.10850100 15500.39138302 0 210.14490858 0 5745.20674559 0 12.70152783 0 423.64379511 0 12736
0.10950000 0.10950300 15224.66422689 0 377.27815539 0 5624.58997878 0 -30.88798529 0 -156.74966823 0 12933
0.11050000 0.11050200 15201.81636117 0 111.42660102 0 6321.33897106 0 -192.49326863 0 107.73023781 0 13428
0.11150000 0.11150900 14462.69899654 0 144.42956666 0 5090.37138657 0 -164.00774751 0 -940.56788392 0 13453
0.11250000 0.11250000 14924.64734944 0 26.91966594 0 6507.59344142 0 252.35689504 0 148.48894474 0 13668
0.11350000 0.11349100 14392.60263183 0 -32.90735952 0 4577.82499320 0 317.48994912 0 -1556.79367724 0 13791
0.11450000 0.11448600 14759.61033885 0 -30.58297738 0 5148.99945364 0 985.19553308 0 -502.70295608 0 14205
0.11550000 0.11549300 14639.71449984 0 43.90905051 0 3909.42510031 0 -134.69482310 0 -1058.48061692 0 14776
0.11650000 0.11649800 14429.97996555 0 151.65991795 0 3908.57107814 0 402.21005701 0 -1033.17383284 0 14553
0.11750000 0.11747300 14345.35413283 0 138.55234140 0 4248.61608538 0 222.98296905 0 -723.29688130 0 14568
0.11850000 0.11849100 13962.81875009 0 191.16010676 0 3206.24321379 0 64.95126936 0 -880.79076885 0 16015
0.11950000 0.11950300 13773.49201818 0 139.71469884 0 3713.88729811 0 368.24437548 0 -639.07698640 0 15270
0.12050000 0.12050700 13675.11310125 0 -21.18030425 0 3317.45464559 0 246.52070721 0 -257.02407072 0 15999
0.12150000 0.12150000 13760.29349381 0 -48.79583189 0 3408.13627184 0 785.20794267 0 -80.49813286 0 15670
0.12250000 0.12250700 13947.40198633 0 -218.97017399 0 2135.86506991 0 575.67970464 0 556.52188015 0 16887
0.12350000 0.12352200 13679.77140397 0 189.95560277 0 2512.26702074 0 -357.64895503 0 174.51000190 0 16407
0.12450000 0.12449800 13943.74189134 0 161.77730781 0 2118.03042522 0 47.40189025 0 682.43580263 0 16306
0.12550000 0.12549900 13415.02453281 0 192.05849371 0 3129.82486682 0 -361.81702684 0 252.85821715 0 17523
0.12650000 0.12650100 13316.53470391 0 322.34900250 0 2860.77461125 0 -556.58066350 0 -108.83725018 0 17154
0.12750000 0.12750600 13009.64128436 0 250.96273159 0 3813.06478122 0 -357.06112159 0 -338.59649691 0 18007
0.12850000 0.12850300 12713.61723781 0 290.61043332 0 3950.81744732 0 -210.84809046 0 -520.90693763 0 17496
0.12950000 0.12949900 12545.91833995 0 107.45739437 0 4020.20397543 0 468.38235624 0 -190.50350790 0 18405
0.13050000 0.13049000 12471.27458449 0 11.62423987 0 3631.75698471 0 291.92030368 0 -466.52236251 0 18100
0.13150000 0.13148800 12580.30105049 0 -214.06786494 0 3073.13775922 0 1032.05029459 0 762.86916289 0 19059
0.13250000 0.13249300 12370.23378029 0 268.31380009 0 3228.28142213 0 -171.02514782 0 244.68511411 0 18957
0.13350000 0.13349100 12258.43451505 0 202.01173386 0 2890.26610393 0 -331.29072548 0 700.79949741 0 19468
0.13450000 0.13450700 11969.28701061 0 130.93823469 0 3650.68965790 0 -113.82008132 0 509.15914182 0 19953
0.13550000 0.13551000 11874.34636474 0 193.76099245 0 3449.78371638 0 -193.77097452 0 383.20861840 0 19956
0.13650000 0.13649900 11614.70144418 0 87.76819063 0 3582.23479034 0 -189.40547940 0 -141.51701834 0 19723
0.13750000 0.13749600 11625.23808128 0 185.31504597 0 4171.72081694 0 -71.71490308 0 -233.98876378 0 20946
0.13850000 0.13851100 11426.48383197 0 30.15297167 0 3756.12257609 0 385.20725209 0 694.67937494 0 20955
0.13950000 0.13949800 11453.87908843 0 -122.53665300 0 3582.68952941 0 614.27263354 0 -106.43933340 0 20506
0.14050000 0.14048300 11599.95015224 0 56.68622031 0 3099.22425444 0 72.67052061 0 532.30868809 0 21447
0.14150000 0.14148400 11354.50196377 0 383.16314449 0 3636.42637863 0 -440.88062429 0 -0.05807595 0 21771
0.14250000 0.14249400 10879.39945130 0 421.51206706 0 3705.66872117 0 -638.91949140 0 45.35645171 0 22470
0.14350000 0.14350900 10396.02290590 0 217.12127146 0 4638.70457325 0 -298.09810038 0 141.98950333 0 22519
0.14450000 0.14449900 10408.99960633 0 88.84470221 0 4454.50197433 0 216.41365309 0 -99.20221648 0 22218
0.14550000 0.14550500 10351.41411178 0 -112.78749089 0 4257.01212147 0 547.20194736 0 293.09597055 0 23559
0.14650000 0.14650700 10468.21550684 0 37.61257800 0 3995.59260940 0 409.02559754 0 371.07817630 0 23044
0.14750000 0.14750500 10342.61879260 0 50.22759450 0 3818.76565645 0 334.27869394 0 985.50941395 0 23649
0.14850000 0.14849900 10236.60913217 0 169.91491901 0 4055.25215778 0 109.11109183 0 1162.70126728 0 23640
0.14950000 0.14949500 10129.82308795 0 71.84677742 0 3618.73591949 0 313.65461322 0 1695.40036551 0 24457
0.15050000 0.15050000 9979.19354219 0 108.90723563 0 3607.96636726 0 201.83760206 0 1433.99194463 0 24591
0.15150000 0.15149900 9875.08047644 0 43.51642214 0 3371.18040361 0 231.18158183 0 1732.01240663 0 25020
0.15250000 0.15250500 9757.32523844 0 26.65236809 0 3422.89865498 0 257.57530321 0 1211.66890181 0 25297
0.15350000 0.15350100 9708.72361341 0 115.78655054 0 2996.04284923 0 -145.81042068 0 1397.31335632 0 25452
0.15450000 0.15450400 9544.10806831 0 4.80573800 0 2783.22496219 0 346.89382135 0 1223.62521212 0 26061
0.15550000 0.15549900 9535.75639701 0 21.41754495 0 2658.87046200 0 151.19186944 0 711.98386042 0 26128
0.15650000 0.15649500 9410.54787466 0 116.15810564 0 1989.58327336 0 204.74349566 0 789.44256166 0 26331
0.15750000 0.15749700 9381.25602352 0 70.99109157 0 2405.49206772 0 142.08599674 0 675.44169383 0 27345
0.15850000 0.15849900 9192.05129478 0 60.31781092 0 1834.66143439 0 -34.33989852 0 774.83989176 0 26980
0.15950000 0.15949700 9188.90139485 0 140.97798617 0 1980.77686298 0 -63.10380868 0 460.21923529 0 27777
0.16050000 0.16050000 9020.24865405 0 133.84856477 0 1860.21555216 0 -74.06967511 0 91.18106285 0 28224
0.16150000 0.16150500 8890.04909308 0 37.51009534 0 2252.66646497 0 -124.13267624 0 441.37640079 0 28075
0.16250000 0.16249700 8842.43458458 0 99.76465108 0 2143.48472221 0 -4.80277665 0 -15.71711337 0 28590
0.16350000 0.16349900 8821.08403045 0 85.89510929 0 2108.83582295 0 118.82442939 0 293.40097847 0 29163
0.16450000 0.16449100 8608.16632264 0 33.08016037 0 2216.71989566 0 58.40546675 0 -67.99425016 0 28996
0.16550000 0.16550500 8626.67753034 0 203.13416299 0 2188.82553534 0 -150.69831117 0 -145.01961834 0 30777
0.16650000 0.16650700 8317.12222352 0 240.71224737 0 2430.12561614 0 -154.98505880 0 -89.90302422 0 29211
0.16750000 0.16749900 8135.34859673 0 79.17861316 0 2321.12133254 0 99.28673140 0 32.57595456 0 30922
0.16850000 0.16850800 7978.62998386 0 17.19224257 0 2281.61448901 0 214.77326506 0 123.97518125 0 30867
0.16950000 0.16949900 8036.52603192 0 80.19190491 0 1911.32378769 0 169.26164751 0 -180.95287821 0 30852
0.17050000 0.17049200 7919.79118404 0 -9.99419993 0 1942.29040957 0 289.45916707 0 121.58170095 0 31257
0.17150000 0.17149500 7971.48725302 0 -79.62481201 0 1223.00410509 0 338.98690705 0 -181.00944331 0 32608
0.17250000 0.17250900 8095.61992926 0 -82.41923908 0 1414.41598202 0 271.51582865 0 131.13011240 0 32361
0.17350000 0.17350400 8030.75860951 0 107.65038120 0 1165.51843130 0 -278.85709191 0 -193.19534140 0 32508
0.17450000 0.17449800 7924.16111564 0 214.37176373 0 1717.94876890 0 -389.87220953 0 -10.11360776 0 32791
0.17550000 0.17549800 7720.21618616 0 156.98036513 0 1544.58226940 0 -223.53752889 0 -424.04085996 0 33633
0.17650000 0.17650100 7633.87121792 0 136.51045204 0 2166.12185518 0 54.92249817 0 163.90681762 0 33984
0.17750000 0.17750300 7430.45866589 0 89.77480999 0 2224.47264233 0 -61.48992862 0 179.96576168 0 34069
