### header ###
fiducial parameters:
Omega_m = 0.31
Omega_nu = 0
Omega_de = 0.69
Omega_k = 0
H_0 = 100
w_de = -1
zeff = 0
beta = 0
fgrowth = 0
b_1 = 2
gamma = 0.55
Lx = 3500 Ly = 3500 Lz = 3500
nx = 700 ny = 700 nz = 700
xoffset = 1379.75464 yoffset = 22.6059522 zoffset = 368.141391
bins = 400 dk = 0.001
kx_ny = 0.628318531 ky_ny = 0.628318531 kz_ny = 0.628318531
############################
A(data) = 3.34932623 (not used)
A(ran) = 3.35309295 (used)
Ngal = 189127
weighted Ngal = 0
Nran = 9399747
weighted Nran = 0
SN(data) = 6605.56622
SN(ran) = 133.370556
SN(data+ran) = 6738.93678
############################
13 columns: k_central k_mean P_0(k) sigma^{lin}_{P_0(k)} P^img_1(k) sigma^{lin}_{P_1(k)} P_2(k) sigma^{lin}_{P_2(k)} P^img_3(k) sigma^{lin}_{P_3(k)} P_4(k) sigma^{lin}_{P_4(k)} N_modes
### header ###
0.00050000 0 0 0 0 0 0 0 0 0 0 0 0
0.00150000 0.00179520 24509.10519224 0 -25258.09372216 0 -30333.53635763 0 44960.60689295 0 71725.77245643 0 3
0.00250000 0.00253879 28679.39524478 0 -21032.34768488 0 -10520.83214516 0 -33293.11135130 0 -41578.45729556 0 6
0.00350000 0.00331552 63961.82368070 0 -20472.24223900 0 -50171.69486710 0 12067.99866345 0 -21249.06967325 0 7
0.00450000 0.00420575 85599.63980699 0 -16672.28725257 0 -34548.85666977 0 -31777.38837635 0 -9003.22366673 0 24
0.00550000 0.00557378 76376.97680864 0 18729.14972662 0 -2070.40482552 0 -52401.46910157 0 19564.98232863 0 45
0.00650000 0.00659388 73709.76576653 0 2987.04788850 0 33214.47476493 0 11518.98441452 0 -9507.37402402 0 40
0.00750000 0.00754703 56927.23201629 0 -7315.46513593 0 30492.36229793 0 40178.52641675 0 6760.21763431 0 57
0.00850000 0.00846663 85155.65919315 0 -10055.98898986 0 23226.51917715 0 19033.60308284 0 11627.34540870 0 75
0.00950000 0.00948925 86529.19302322 0 -2261.19559542 0 30400.63809917 0 16302.28492238 0 61865.14380961 0 112
0.01050000 0.01054430 99847.50231865 0 -7733.71417284 0 -13333.06058737 0 30780.73341859 0 38862.66681082 0 105
0.01150000 0.01145670 100566.76644074 0 -4443.04476788 0 36822.88478007 0 2383.81986888 0 50681.22445490 0 144
0.01250000 0.01249090 104851.07399790 0 10462.25953408 0 8487.53846463 0 -3195.99494781 0 52769.91866419 0 169
0.01350000 0.01339930 96637.37718592 0 8182.03144469 0 54162.75117695 0 9083.46847666 0 70083.05527643 0 180
0.01450000 0.01448870 88299.45896813 0 4552.70343211 0 45402.70200331 0 4877.70877628 0 75294.36507452 0 267
0.01550000 0.01550050 89514.27776987 0 -1035.55622194 0 40386.81909544 0 25921.12547572 0 17713.41791010 0 238
0.01650000 0.01653350 85372.04844561 0 1017.22580075 0 48661.07384275 0 14411.90131452 0 68456.08759609 0 315
0.01750000 0.01747870 82215.71561809 0 2885.98490191 0 26078.06591254 0 4570.79317433 0 27102.33795071 0 297
0.01850000 0.01844180 92715.52994503 0 -1134.91781892 0 39765.82297831 0 6437.21979678 0 49633.54999117 0 388
0.01950000 0.01947590 81453.63947578 0 2731.52889321 0 30042.17061380 0 -3382.46015091 0 -538.49868511 0 399
0.02050000 0.02045430 84774.12201814 0 4763.85763961 0 29228.18766977 0 -11422.82373697 0 -4245.78783016 0 462
0.02150000 0.02154770 73309.48446867 0 3737.91083070 0 36801.92241784 0 -11417.72178638 0 -21303.74927421 0 571
0.02250000 0.02255340 70068.30398449 0 5724.48838969 0 36635.55446361 0 -6905.51231433 0 -25508.08930137 0 510
0.02350000 0.02348930 67333.32572903 0 828.36378999 0 34969.87850593 0 3098.02640517 0 -41002.26961410 0 555
0.02450000 0.02439640 64273.70813889 0 -90.72765472 0 28770.12123581 0 14459.37163746 0 -32887.83901481 0 592
0.02550000 0.02547300 61720.73642535 0 424.21721000 0 22305.06253469 0 7107.61610512 0 -23026.54489617 0 837
0.02650000 0.02652900 60019.01407758 0 1295.78453946 0 5330.06324382 0 7011.62179553 0 -23039.07794873 0 723
0.02750000 0.02749970 62003.89468344 0 -654.44605801 0 9698.33116187 0 9797.87465448 0 -8671.43051003 0 826
0.02850000 0.02848090 56468.94375839 0 -46.41799017 0 -975.77688863 0 -1374.74277054 0 -12140.53509149 0 831
0.02950000 0.02946900 57779.14685389 0 3330.15406610 0 9530.01115699 0 -2811.13041371 0 -862.70989958 0 996
0.03050000 0.03053250 52749.17812590 0 1992.08988387 0 8265.19323941 0 -2534.39395865 0 -6921.18417561 0 1041
0.03150000 0.03150510 50961.27717785 0 1554.04306040 0 18040.94095598 0 -4723.10858202 0 -484.05865401 0 1036
0.03250000 0.03246190 47695.36332447 0 2099.45267033 0 15465.34320066 0 1367.85513723 0 2312.45910772 0 1059
0.03350000 0.03345080 51712.37303518 0 -879.63950260 0 20059.53880056 0 3537.18234833 0 -2106.93922827 0 1302
0.03450000 0.03451200 51972.12886771 0 -228.30452534 0 20096.13975048 0 -286.39466936 0 2251.89008119 0 1339
0.03550000 0.03553350 51702.72369383 0 53.00815757 0 15649.01342213 0 4077.13508936 0 1923.92338743 0 1365
0.03650000 0.03647120 51104.90817833 0 252.67743064 0 20894.48410682 0 1128.83984300 0 3278.56890909 0 1308
0.03750000 0.03744890 50869.44206711 0 -271.68108749 0 12788.03916933 0 3999.89599382 0 3691.83799858 0 1579
0.03850000 0.03847530 49909.60988322 0 1830.01422287 0 13270.94988446 0 97.57325238 0 5814.80400644 0 1662
0.03950000 0.03950240 48108.51041079 0 2710.69962534 0 17000.25394633 0 -1676.71169865 0 4597.45641180 0 1683
0.04050000 0.04050350 43748.11724257 0 3483.10167201 0 19589.16113798 0 -4150.76954590 0 1757.69961876 0 1822
0.04150000 0.04152450 39368.42539166 0 2360.14016340 0 18286.05640853 0 -2888.51369482 0 -681.98217267 0 1887
0.04250000 0.04250150 38485.12246670 0 461.38824745 0 22266.68699325 0 849.75427243 0 -976.07635095 0 1920
0.04350000 0.04349210 37918.58412658 0 -1133.24304818 0 18540.93211440 0 4796.26611709 0 -1795.03258769 0 2005
0.04450000 0.04448520 39701.49403601 0 -1268.97711644 0 17311.14019679 0 3083.00892450 0 -4054.25395006 0 2151
0.04550000 0.04548030 41211.67141248 0 319.35548845 0 14773.69615897 0 602.16326471 0 538.82587542 0 2274
0.04650000 0.04648670 41105.97230556 0 154.41718951 0 14398.59187818 0 -994.48662876 0 -1105.29212276 0 2311
0.04750000 0.04749250 40435.95309792 0 758.22306049 0 16882.46543474 0 123.57257080 0 296.46436707 0 2568
0.04850000 0.04851840 39485.65934340 0 510.74961947 0 15035.89205483 0 1627.21168667 0 -55.25124125 0 2493
0.04950000 0.04949480 38940.41610142 0 644.51721850 0 18324.87559785 0 2014.66046966 0 768.81737182 0 2644
0.05050000 0.05050630 38466.15651992 0 217.61704796 0 16716.43021642 0 1464.21545632 0 3473.88488735 0 2829
0.05150000 0.05149060 36626.79241802 0 724.02335470 0 15448.26275736 0 1275.48764905 0 1248.28094293 0 2784
0.05250000 0.05249300 37587.29007374 0 111.43436486 0 16451.35060936 0 373.65798871 0 4027.50198302 0 3055
0.05350000 0.05348950 35995.70331167 0 1105.95093985 0 14290.34179597 0 -148.44014348 0 395.32686018 0 3009
0.05450000 0.05448610 34514.14122333 0 1636.90539280 0 14974.89047161 0 -2159.83314652 0 421.18376763 0 3336
0.05550000 0.05550870 34048.20003953 0 625.81524220 0 17292.39607394 0 323.66996406 0 1033.50213227 0 3349
0.05650000 0.05647670 32522.82772324 0 -247.79064926 0 15319.71578473 0 2620.20654944 0 -1073.58793628 0 3324
0.05750000 0.05747970 34301.52297783 0 -730.76125685 0 13327.40407692 0 3146.80548935 0 1230.66812218 0 3639
0.05850000 0.05849280 33961.68870334 0 -128.96511075 0 11398.97766354 0 -181.92113970 0 -3209.38202253 0 3846
0.05950000 0.05951020 34291.31907664 0 743.25770845 0 12763.08397620 0 -1202.47429954 0 1416.74513338 0 3787
0.06050000 0.06049470 32778.59072487 0 420.05024730 0 11880.11378715 0 -75.57264321 0 -2933.02266817 0 3930
0.06150000 0.06148310 32983.11239659 0 486.74716015 0 14430.42361342 0 -106.88153942 0 785.03713823 0 4083
0.06250000 0.06249100 32086.83277121 0 501.57830871 0 10472.20833774 0 912.27978610 0 -5872.03458269 0 4303
0.06350000 0.06350600 31979.80272066 0 365.68341810 0 13148.94671803 0 651.40041533 0 697.65070660 0 4470
0.06450000 0.06451750 30809.23779474 0 316.90211568 0 10445.98874815 0 1342.43411383 0 -1831.07897777 0 4479
0.06550000 0.06550280 30957.63800991 0 -59.95945435 0 9646.30235699 0 2627.21618591 0 507.10948863 0 4636
0.06650000 0.06648880 29993.92390708 0 338.36136354 0 7878.68720815 0 633.01897462 0 -2537.53276739 0 4653
0.06750000 0.06749660 29661.74255848 0 666.49886173 0 8403.16772944 0 -249.04950011 0 -1315.80414995 0 5220
0.06850000 0.06852730 28990.17058326 0 248.17440467 0 8979.31104611 0 -185.76645769 0 -792.16877787 0 5029
0.06950000 0.06949320 29206.00527588 0 59.69992034 0 6738.52325307 0 -239.62309183 0 -4024.11916795 0 5040
0.07050000 0.07048030 28911.75582084 0 97.58168169 0 8692.98070570 0 4.92619949 0 -3385.41040929 0 5475
0.07150000 0.07148790 28162.87820290 0 606.84485894 0 7715.31387711 0 -697.37009932 0 -5415.07726842 0 5509
0.07250000 0.07249820 28114.96423208 0 244.45441722 0 9143.00602187 0 -71.98918838 0 -2047.27967988 0 5916
0.07350000 0.07351270 27619.96411228 0 321.14338940 0 8646.97442076 0 530.30339969 0 -4116.58647691 0 5721
0.07450000 0.07449140 27510.93764628 0 555.98173886 0 8782.17611156 0 918.28566925 0 -2597.81342280 0 6028
0.07550000 0.07549160 26758.06719743 0 359.81950227 0 8664.62051510 0 888.65442748 0 396.48034467 0 6183
0.07650000 0.07648840 26015.28973781 0 250.08098143 0 8319.52901326 0 1263.03223487 0 1157.90987020 0 6330
0.07750000 0.07749960 25815.53728077 0 90.63803784 0 8309.50257121 0 1406.53014099 0 1925.23214867 0 6583
0.07850000 0.07848650 25309.88961190 0 546.40449030 0 7184.17863765 0 69.95927752 0 1011.67798403 0 6549
0.07950000 0.07947320 24292.05046797 0 1010.22170987 0 7768.49616647 0 -883.64453382 0 1168.75706081 0 6828
0.08050000 0.08048110 23204.11495932 0 751.09252997 0 7213.10447929 0 -115.25639133 0 661.74295648 0 7147
0.08150000 0.08149960 22530.10292077 0 150.79258635 0 7773.30974595 0 798.61719978 0 1457.18363745 0 7386
0.08250000 0.08250610 22225.76047651 0 -156.04426810 0 5965.24500184 0 1381.68585982 0 89.80952543 0 7227
0.08350000 0.08350160 22534.53939955 0 -85.80083412 0 5221.99062075 0 1981.00977812 0 1429.82165458 0 7798
0.08450000 0.08449610 22096.54803207 0 206.45043087 0 4219.27986945 0 153.99239667 0 2111.05406234 0 7371
0.08550000 0.08548940 21959.79357369 0 315.92719947 0 3830.72196676 0 139.62375102 0 -207.38541878 0 8256
0.08650000 0.08650700 20855.88674144 0 738.73250010 0 4903.18525567 0 -832.13368784 0 2457.02176874 0 8037
0.08750000 0.08749060 20502.63211864 0 644.12237189 0 4744.31495059 0 -1117.67100767 0 971.58552531 0 8155
0.08850000 0.08849210 19984.00774934 0 -144.31421821 0 6361.26728008 0 212.45298666 0 2278.25385633 0 8718
0.08950000 0.08949900 20639.38657701 0 -111.81257467 0 5804.78865559 0 13.40947893 0 -668.28343532 0 8571
0.09050000 0.09049190 20294.11761601 0 145.75940117 0 6460.46694558 0 -877.67746986 0 420.09350297 0 8932
0.09150000 0.09150830 20465.36569689 0 277.13241079 0 6995.14027687 0 -835.14272957 0 -1642.17371135 0 9285
0.09250000 0.09250820 19962.37991529 0 352.39616416 0 7542.14701915 0 -1354.98934877 0 -2367.95945725 0 9204
0.09350000 0.09350330 19929.21723641 0 373.44725596 0 7504.54786150 0 -35.22453239 0 -3630.82532417 0 9349
0.09450000 0.09448040 19153.27709792 0 96.46978920 0 8474.70594976 0 56.76208409 0 -4286.82525887 0 9564
0.09550000 0.09549270 19121.77809858 0 429.69071569 0 7413.76641448 0 358.81463983 0 -3848.02423400 0 10155
0.09650000 0.09649430 18633.09996104 0 245.16979942 0 6793.50231635 0 1367.55567491 0 -3873.13470389 0 9913
0.09750000 0.09749140 18237.14422999 0 86.51089255 0 5931.62758389 0 995.00791502 0 -2291.68529584 0 10476
0.09850000 0.09850240 17976.72292565 0 159.17974948 0 5239.12652004 0 1098.49876462 0 -2046.27038096 0 10575
0.09950000 0.09950330 17153.64520012 0 348.37338702 0 4726.22520836 0 456.38833586 0 -1476.50450254 0 10882
0.10050000 0.10051200 16717.98298399 0 674.64756413 0 5140.22631685 0 -319.29448687 0 -917.64570719 0 10875
0.10150000 0.10150300 16156.99024235 0 206.46152207 0 4403.48246837 0 411.44902407 0 -841.99487104 0 11118
0.10250000 0.10250800 15833.90367525 0 31.19587692 0 5456.48070663 0 71.91587557 0 -169.04980565 0 11575
0.10350000 0.10349800 15658.44093953 0 348.58855624 0 4329.52636712 0 -111.34119880 0 -1070.50458353 0 11364
0.10450000 0.10450100 15295.42606342 0 83.72345293 0 5694.44233716 0 -59.13094194 0 -474.74981241 0 12093
0.10550000 0.10551000 15499.17135135 0 20.66012712 0 5365.81017158 0 -254.80139485 0 -1118.43630026 0 12067
0.10650000 0.10649700 15573.48237091 0 177.14527030 0 5292.13135025 0 47.66186791 0 -1074.09591310 0 12054
0.10750000 0.10749900 15337.23987591 0 216.21179331 0 5659.81562028 0 -233.41091242 0 -831.69336732 0 12807
0.10850000 0.10850100 15008.49679837 0 158.18486911 0 5831.92881453 0 -338.60536987 0 -781.57113919 0 12736
0.10950000 0.10950300 14983.09795735 0 171.22035289 0 6301.76300845 0 372.67087218 0 -1355.65482059 0 12933
0.11050000 0.11050200 14958.91914801 0 196.52602785 0 5755.96520663 0 -42.41406807 0 -1076.81214723 0 13428
0.11150000 0.11150900 14672.43353083 0 -10.72432234 0 6086.90434117 0 327.55077387 0 124.22362406 0 13453
0.11250000 0.11250000 14655.57491147 0 -203.70646875 0 5422.88547108 0 811.84567038 0 -562.44679756 0 13668
0.11350000 0.11349100 15097.55910986 0 -142.76921448 0 5704.71278553 0 453.88172535 0 196.70903259 0 13791
0.11450000 0.11448600 15049.86696298 0 113.72358791 0 4486.14515922 0 80.36659126 0 31.94297995 0 14205
0.11550000 0.11549300 14997.73833733 0 197.68173057 0 5318.18457188 0 -60.50525215 0 432.67313855 0 14776
0.11650000 0.11649800 14593.13147265 0 158.85366829 0 5261.06490760 0 -184.78599588 0 -77.74285771 0 14553
0.11750000 0.11747300 14509.61475963 0 445.96371985 0 6079.46214802 0 -369.79492481 0 408.05955428 0 14568
0.11850000 0.11849100 13951.39481723 0 298.32657903 0 5689.07419783 0 -93.04870950 0 -292.00016030 0 16015
0.11950000 0.11950300 13962.92966206 0 142.58510061 0 6451.50525845 0 34.08125181 0 329.09134113 0 15270
0.12050000 0.12050700 13717.92512147 0 -115.39281305 0 5624.50124920 0 765.99133484 0 927.30724885 0 15999
0.12150000 0.12150000 14095.02581771 0 -269.13787603 0 5784.62485954 0 1256.21114875 0 1032.22331726 0 15670
0.12250000 0.12250700 14035.13335419 0 54.23395666 0 4687.84966692 0 355.73905092 0 1900.42114109 0 16887
0.12350000 0.12352200 13969.36255629 0 69.34781983 0 5219.08472715 0 315.14970657 0 2000.78538228 0 16407
0.12450000 0.12449800 13908.58279701 0 193.05448320 0 4705.47357887 0 103.69304212 0 2918.54865615 0 16306
0.12550000 0.12549900 13759.62802200 0 82.73001442 0 5147.86815155 0 135.49338928 0 1400.77380977 0 17523
0.12650000 0.12650100 13655.25985871 0 261.88756058 0 4963.01117201 0 -341.62328456 0 2492.29177504 0 17154
0.12750000 0.12750600 13096.15262055 0 277.37641712 0 4991.30481543 0 -555.34399504 0 1486.45330620 0 18007
0.12850000 0.12850300 12954.40712355 0 267.49748800 0 5399.40540714 0 -81.55734217 0 1037.91864689 0 17496
0.12950000 0.12949900 12973.59489427 0 -116.86572400 0 5215.25826421 0 532.57376770 0 469.67558981 0 18405
0.13050000 0.13049000 12624.44401434 0 144.21107008 0 4989.10875843 0 -325.11292878 0 365.55476022 0 18100
0.13150000 0.13148800 12787.26278554 0 271.82305481 0 5163.55110403 0 -297.68328961 0 203.30385830 0 19059
0.13250000 0.13249300 12431.34627548 0 -21.88936447 0 5128.74692801 0 1.33925094 0 -254.42540327 0 18957
0.13350000 0.13349100 12330.97094309 0 -31.69908453 0 4656.31739400 0 573.37162656 0 -625.06658641 0 19468
0.13450000 0.13450700 12787.26278554 0 -59.07005127 0 4500.69680962 0 559.37453601 0 59.31860499 0 19953
0.13550000 0.13551000 12574.97727596 0 -219.02673909 0 3700.44476741 0 983.64276551 0 414.43810165 0 19956
0.13650000 0.13649900 12918.58255741 0 14.54521750 0 3672.27312716 0 580.51879387 0 1118.43630026 0 19723
0.13750000 0.13749600 12571.42809293 0 284.91399457 0 2990.89653385 0 218.12280654 0 894.88435281 0 20946
0.13850000 0.13851100 12178.35607309 0 378.41056660 0 3726.97491051 0 -507.65850288 0 1840.96123425 0 20955
0.13950000 0.13949800 11709.08753021 0 414.58117809 0 3658.73077569 0 -216.10309958 0 2113.89340876 0 20506
0.14050000 0.14048300 11354.94561165 0 297.33169867 0 4643.98398299 0 -108.48687927 0 2188.85880893 0 21447
0.14150000 0.14148400 11065.80919841 0 177.30165617 0 4319.85484338 0 315.89614412 0 2379.30575173 0 21771
0.14250000 0.14249400 10831.47438929 0 37.70297126 0 4109.39938129 0 386.52155893 0 1761.43735214 0 22470
0.14350000 0.14350900 10970.68000218 0 -23.45111592 0 3833.52803959 0 348.66397638 0 2379.93794995 0 22519
0.14450000 0.14449900 10664.71824317 0 51.28824566 0 3772.97010426 0 106.03794298 0 1925.43179021 0 22218
0.14550000 0.14550500 10820.98211697 0 122.33257498 0 3905.01080392 0 -219.00899318 0 1729.01778346 0 23559
0.14650000 0.14650700 10732.62964208 0 -3.25686344 0 3365.10242768 0 -71.26415684 0 966.56897693 0 23044
0.14750000 0.14750500 10578.27345416 0 128.99616611 0 3620.05577193 0 -201.23978655 0 1181.20138379 0 23649
0.14850000 0.14849900 10591.68271127 0 42.74913313 0 3124.24599475 0 253.53588928 0 164.97711813 0 23640
0.14950000 0.14949500 10495.81040485 0 -121.91000038 0 3217.32331954 0 332.92778615 0 493.62370226 0 24457
0.15050000 0.15050000 10628.00638127 0 37.83939298 0 2688.10685716 0 398.83389666 0 425.48826117 0 24591
0.15150000 0.15149900 10510.39532883 0 102.42875658 0 2410.94893662 0 76.54755942 0 -2.33288909 0 25020
0.15250000 0.15250500 10384.52133467 0 207.25565177 0 2493.54508029 0 -149.02575868 0 335.58634606 0 25297
0.15350000 0.15350100 10064.21865800 0 261.77443037 0 2731.87272032 0 -357.21307099 0 118.75899132 0 25452
0.15450000 0.15450400 9833.39975831 0 180.52808537 0 2687.23065260 0 136.00247522 0 249.16928504 0 26061
0.15550000 0.15549900 9676.25967995 0 -52.77624065 0 2900.48109632 0 388.23071238 0 295.55377980 0 26128
0.15650000 0.15649500 9638.30560399 0 93.53805311 0 2682.02888123 0 72.17308043 0 662.39844622 0 26331
0.15750000 0.15749700 9727.42337147 0 74.26310558 0 2414.59794042 0 233.09370418 0 503.74774683 0 27345
0.15850000 0.15849900 9476.74013805 0 50.10958416 0 2584.73690160 0 15.96810716 0 825.48784262 0 26980
0.15950000 0.15949700 9517.85520513 0 47.78775300 0 2473.75838494 0 -33.90956008 0 634.43975695 0 27777
0.16050000 0.16050000 9426.96284614 0 112.70652515 0 2626.83908522 0 7.66202068 0 655.54519562 0 28224
0.16150000 0.16150500 9220.83295086 0 265.71846001 0 2526.59684720 0 -241.23020626 0 606.57201550 0 28075
0.16250000 0.16249700 8983.59224814 0 175.60026656 0 2776.47042325 0 -259.09257895 0 -71.50039933 0 28590
0.16350000 0.16349900 8897.12527673 0 84.87438644 0 3086.46937795 0 -84.58645897 0 312.78617250 0 29163
0.16450000 0.16449100 8556.21515613 0 77.34157821 0 2840.38899126 0 255.77409282 0 83.33426283 0 28996
0.16550000 0.16550500 8534.79805482 0 155.10595284 0 2808.63489440 0 33.31263186 0 67.55869885 0 30777
0.16650000 0.16650700 8453.37757803 0 88.28648227 0 2693.61918204 0 -24.95053483 0 -366.84910290 0 29211
0.16750000 0.16749900 8355.65304172 0 108.75473168 0 2895.13513939 0 -74.47683295 0 -75.85136499 0 30922
0.16850000 0.16850800 8224.79910012 0 82.90370256 0 3059.08521268 0 -241.51635915 0 -533.59083046 0 30867
0.16950000 0.16949900 8217.21272141 0 69.72858062 0 2760.19963732 0 -35.86959640 0 -768.88613724 0 30852
0.17050000 0.17049200 8164.44080633 0 57.01984351 0 3187.72091489 0 -179.00748227 0 -1080.87152531 0 31257
0.17150000 0.17149500 8117.66922880 0 14.23499672 0 2815.01233264 0 -45.28302799 0 -1416.43457986 0 32608
0.17250000 0.17250900 8188.14269421 0 -35.88601137 0 3197.32589145 0 381.60594044 0 -636.94858570 0 32361
0.17350000 0.17350400 8174.37851879 0 51.15326580 0 2751.13812942 0 127.97023039 0 -1076.28753362 0 32508
0.17450000 0.17449800 8161.51273033 0 12.98036052 0 2845.52421545 0 336.05550369 0 -581.02455245 0 32791
0.17550000 0.17549800 8150.08879748 0 10.54644172 0 2297.72999817 0 404.85752572 0 -530.29230849 0 33633
0.17650000 0.17650100 8083.91871648 0 135.33922164 0 2430.46944325 0 3.35890245 0 23.88045615 0 33984
0.17750000 0.17750300 7795.20376873 0 202.30897793 0 2662.39746263 0 -2.39302556 0 238.79014294 0 34069
0.17850000 0.17849800 7670.62744460 0 115.59134547 0 2391.48388598 0 72.72231650 0 207.66491694 0 34536
