### header ###
fiducial parameters:
Omega_m = 0.31
Omega_nu = 0
Omega_de = 0.69
Omega_k = 0
H_0 = 100
w_de = -1
zeff = 0
beta = 0
fgrowth = 0
b_1 = 2
gamma = 0.55
Lx = 3500 Ly = 3500 Lz = 3500
nx = 700 ny = 700 nz = 700
xoffset = 1379.75464 yoffset = 22.6059522 zoffset = 368.141391
bins = 400 dk = 0.001
kx_ny = 0.628318531 ky_ny = 0.628318531 kz_ny = 0.628318531
############################
A(data) = 3.29064882 (not used)
A(ran) = 3.2941072 (used)
Ngal = 185053
weighted Ngal = 0
Nran = 9399747
weighted Nran = 0
SN(data) = 6689.42991
SN(ran) = 131.024375
SN(data+ran) = 6820.45428
############################
13 columns: k_central k_mean P_0(k) sigma^{lin}_{P_0(k)} P^img_1(k) sigma^{lin}_{P_1(k)} P_2(k) sigma^{lin}_{P_2(k)} P^img_3(k) sigma^{lin}_{P_3(k)} P_4(k) sigma^{lin}_{P_4(k)} N_modes
### header ###
0.00050000 0 0 0 0 0 0 0 0 0 0 0 0
0.00150000 0.00179520 30386.44136708 0 -21805.51502414 0 -38335.39130790 0 43900.51028864 0 -20770.26270100 0 3
0.00250000 0.00253879 55758.21985795 0 -26801.43377750 0 -22977.63271763 0 -38508.85762817 0 27721.22674042 0 6
0.00350000 0.00331552 59987.84781416 0 -10511.97027880 0 -38635.96274519 0 -40406.33960207 0 -30532.84516679 0 7
0.00450000 0.00420575 66068.15289314 0 1303.81456605 0 -39716.35623992 0 -34116.96546061 0 846.95818168 0 24
0.00550000 0.00557378 51419.45452378 0 301.43322330 0 -24370.79796630 0 -25649.05841458 0 -1521.15766145 0 45
0.00650000 0.00659388 60974.07704679 0 2217.86228895 0 -5671.92720735 0 -7049.27640917 0 -9048.23174395 0 40
0.00750000 0.00754703 49295.04666031 0 -5080.50022128 0 -24466.07134808 0 9550.31913860 0 -17572.33788492 0 57
0.00850000 0.00846663 71558.40629448 0 -12743.23073366 0 -13486.00819328 0 -2661.09979259 0 -12581.41017019 0 75
0.00950000 0.00948925 80023.31871733 0 -8145.66340990 0 -34913.75704937 0 -6499.85178595 0 -4647.24479490 0 112
0.01050000 0.01054430 77940.72466637 0 -1148.44907920 0 -4229.46158825 0 -22378.48625849 0 -9904.71615469 0 105
0.01150000 0.01145670 88998.86984768 0 5218.68544406 0 -17777.63594043 0 -15656.22270014 0 -351.28371710 0 144
0.01250000 0.01249090 78162.88134124 0 5612.67803325 0 21184.29708307 0 -10543.42491334 0 -10687.27773776 0 169
0.01350000 0.01339930 74472.95102854 0 6771.59720237 0 17173.49844266 0 -5216.21210714 0 6805.31444110 0 180
0.01450000 0.01448870 68934.34000850 0 1147.57287464 0 20409.68788821 0 8357.59400118 0 4790.79815700 0 267
0.01550000 0.01550050 72895.00643871 0 5672.91432388 0 37667.14669177 0 -3713.53237981 0 -23477.62387606 0 238
0.01650000 0.01653350 66517.67910545 0 1788.11168080 0 31503.32489976 0 -10936.51911558 0 -6127.03229173 0 315
0.01750000 0.01747870 64083.27228729 0 4009.75606790 0 48505.57526154 0 -9119.28195160 0 -8753.27245231 0 297
0.01850000 0.01844180 61271.76477288 0 1136.38185692 0 41965.76189299 0 -232.54025346 0 -10195.50515627 0 388
0.01950000 0.01947590 63993.10085610 0 -1260.20397965 0 41944.57770682 0 9383.01952383 0 -32018.28917407 0 399
0.02050000 0.02045430 70492.32044382 0 -2430.73563198 0 41023.01015239 0 6102.55402006 0 -16192.26024865 0 462
0.02150000 0.02154770 66540.19423526 0 440.89947933 0 32526.70964217 0 5322.41031792 0 -14942.61508849 0 571
0.02250000 0.02255340 72268.79745902 0 -3083.19747485 0 32121.65912963 0 10558.81949471 0 -1304.83495617 0 510
0.02350000 0.02348930 70211.49133709 0 -701.38843997 0 13917.56666654 0 13682.98785108 0 -1929.49116829 0 555
0.02450000 0.02439640 72188.60810508 0 -399.54040591 0 20615.20776766 0 9297.53966895 0 -4624.11964926 0 592
0.02550000 0.02547300 70325.61975369 0 -8.64879338 0 8557.64592054 0 1703.31948013 0 10825.82897004 0 837
0.02650000 0.02652900 68141.87398655 0 3238.99551838 0 12019.75195673 0 -236.50868372 0 4498.96658290 0 723
0.02750000 0.02749970 62518.30439789 0 3324.74156199 0 11695.88900584 0 -5288.64871441 0 11336.86696063 0 826
0.02850000 0.02848090 59817.04338115 0 2988.83357121 0 11723.61699821 0 -1173.47081952 0 -3537.35980748 0 831
0.02950000 0.02946900 57794.56361765 0 1064.37447897 0 19049.79623039 0 -4023.40933135 0 3569.09172195 0 996
0.03050000 0.03053250 56759.53311844 0 2389.60947369 0 18448.20970792 0 -1856.52218357 0 -4778.63111394 0 1041
0.03150000 0.03150510 55060.91630582 0 1652.15578860 0 21829.13927364 0 -2012.86369575 0 -5090.53775452 0 1036
0.03250000 0.03246190 51740.98832331 0 2004.22365333 0 22481.74530208 0 -3736.44679271 0 -6319.30928202 0 1059
0.03350000 0.03345080 53570.59217188 0 1100.98319274 0 29443.68962648 0 -1877.04089793 0 -13636.73755981 0 1302
0.03450000 0.03451200 51340.92884938 0 -148.21055570 0 25217.83267723 0 2540.18356346 0 -8073.68154170 0 1339
0.03550000 0.03553350 51162.24966655 0 1553.03376148 0 28737.95676466 0 2584.01597380 0 -6938.35334849 0 1365
0.03650000 0.03647120 49905.61705231 0 1070.85839271 0 27289.44644322 0 1167.67012351 0 -3129.07066543 0 1308
0.03750000 0.03744890 51040.80105996 0 -592.42963027 0 26013.29332236 0 9545.09518484 0 2655.59855890 0 1579
0.03850000 0.03847530 49791.37772375 0 522.45970520 0 26502.52601975 0 5083.99394832 0 9935.28349348 0 1662
0.03950000 0.03950240 47351.75804302 0 1646.80983168 0 21656.00568928 0 2735.45517693 0 10994.83662914 0 1683
0.04050000 0.04050350 47428.84186181 0 1277.76134442 0 25778.27085903 0 2783.99025478 0 19719.37179015 0 1822
0.04150000 0.04152450 44129.54350562 0 1111.97013244 0 26896.15259944 0 2324.33777965 0 21505.94179457 0 1887
0.04250000 0.04250150 47053.73758102 0 566.91654993 0 26869.09007889 0 4382.80847726 0 23421.72424344 0 1920
0.04350000 0.04349210 42618.81156930 0 -156.42913264 0 22811.48658735 0 4274.58057744 0 20741.09285302 0 2005
0.04450000 0.04448520 44997.54057879 0 84.06960919 0 23007.13530152 0 1890.86052932 0 25983.67982651 0 2151
0.04550000 0.04548030 45012.84643058 0 -667.05231246 0 18828.19411536 0 4710.58662067 0 19842.92772416 0 2274
0.04650000 0.04648670 43974.71039622 0 39.35067948 0 18540.48846653 0 1972.05918218 0 18653.28593949 0 2311
0.04750000 0.04749250 42858.04868747 0 1761.28207538 0 13376.31625546 0 -2339.72126982 0 12451.42134195 0 2568
0.04850000 0.04851840 41274.00393933 0 1550.93752525 0 16976.07513698 0 -343.39454871 0 11540.16860069 0 2493
0.04950000 0.04949480 39573.39071126 0 445.76851479 0 13696.96275924 0 -641.69894535 0 6980.13388739 0 2644
0.05050000 0.05050630 38563.31540518 0 419.84506016 0 13181.11118918 0 1547.86526370 0 1958.53901310 0 2829
0.05150000 0.05149060 38803.21799517 0 457.48081876 0 11155.41497855 0 1000.17530368 0 1959.43740005 0 2784
0.05250000 0.05249300 35549.28263450 0 -532.07022736 0 9295.56543590 0 3155.82263247 0 2182.00444921 0 3055
0.05350000 0.05348950 38877.63992670 0 384.93884512 0 10228.75656473 0 -567.53211136 0 -134.97432126 0 3009
0.05450000 0.05448610 38070.20078887 0 -91.06538166 0 5582.94253424 0 1711.72660741 0 930.78655733 0 3336
0.05550000 0.05550870 37943.76114366 0 -313.08785305 0 7541.52591213 0 96.15147185 0 1881.26664396 0 3349
0.05650000 0.05647670 37445.54457674 0 1190.93945471 0 6014.26809236 0 -1871.35111389 0 -297.62228803 0 3324
0.05750000 0.05747970 36270.65408402 0 1136.90314318 0 9538.68447300 0 -512.98671389 0 206.63676298 0 3639
0.05850000 0.05849280 34950.35799930 0 1009.77251640 0 9373.82492156 0 -857.65120465 0 -353.09380045 0 3846
0.05950000 0.05951020 33326.16311820 0 832.65608321 0 13317.86564755 0 -671.92689352 0 1383.49372493 0 3787
0.06050000 0.06049470 33150.14582263 0 506.20777432 0 12051.14004409 0 1687.93598996 0 3107.13227786 0 3930
0.06150000 0.06148310 32557.87590560 0 229.59775891 0 11092.52789186 0 1040.38089262 0 2016.56815553 0 4083
0.06250000 0.06249100 32530.59156111 0 162.66127620 0 10418.22748219 0 1421.07070019 0 1753.27423118 0 4303
0.06350000 0.06350600 31314.33090376 0 670.74789928 0 12219.83714967 0 1623.71795963 0 4112.66019319 0 4470
0.06450000 0.06451750 31430.34482384 0 299.39133394 0 9846.48737071 0 -537.59586168 0 4977.06371855 0 4479
0.06550000 0.06550280 30184.13793474 0 992.91944264 0 9888.87792544 0 925.00693460 0 4077.52328126 0 4636
0.06650000 0.06648880 28654.44005164 0 1133.29850417 0 10680.64520199 0 446.51051586 0 5483.44340641 0 4653
0.06750000 0.06749660 27540.77296607 0 764.15241438 0 10479.41761576 0 350.69921102 0 5251.89248773 0 5220
0.06850000 0.06852730 26734.88659581 0 389.03704240 0 11260.67043759 0 2037.45287939 0 8201.01957386 0 5029
0.06950000 0.06949320 26069.63660286 0 -95.22424778 0 9305.50314836 0 1295.01924687 0 4739.73428625 0 5040
0.07050000 0.07048030 26683.20161803 0 -31.21961208 0 9112.46086548 0 215.83580173 0 7568.52188550 0 5475
0.07150000 0.07148790 26078.06591254 0 108.40003520 0 8354.02263576 0 -344.59683446 0 3458.93395386 0 5509
0.07250000 0.07249820 25977.46875622 0 594.11105573 0 8478.13312962 0 -615.09227300 0 5369.41481059 0 5916
0.07350000 0.07351270 25707.39811053 0 179.59642482 0 9486.91076565 0 403.73398747 0 3413.87042066 0 5721
0.07450000 0.07449140 25877.09342384 0 -563.93412707 0 7290.89813469 0 1078.32387738 0 1651.06885130 0 6028
0.07550000 0.07549160 26230.12622270 0 236.91462153 0 8970.75973327 0 256.11459257 0 2768.99495650 0 6183
0.07650000 0.07648840 25616.11755965 0 575.01090546 0 7198.85229121 0 -810.17200876 0 2070.93720298 0 6330
0.07750000 0.07749960 25007.21084719 0 242.04873660 0 8865.00517037 0 -37.69077094 0 2897.44210836 0 6583
0.07850000 0.07848650 24796.47810517 0 141.08889814 0 8301.45036223 0 101.79888751 0 1341.42481490 0 6549
0.07950000 0.07947320 25279.16699636 0 -264.42411732 0 7477.82916805 0 1194.31117858 0 1950.25388898 0 6828
0.08050000 0.08048110 25183.11723079 0 438.62467483 0 8753.66064420 0 -70.40492181 0 1405.05501179 0 7147
0.08150000 0.08149960 24694.88274113 0 5.79010391 0 6761.93676983 0 706.47042641 0 2303.04268151 0 7386
0.08250000 0.08250610 24968.39165787 0 91.30362057 0 7985.82817067 0 93.90750088 0 1377.14956027 0 7227
0.08350000 0.08350160 23923.71181732 0 542.65344749 0 5856.86182527 0 -172.95390697 0 161.14289134 0 7798
0.08450000 0.08449610 23776.75345775 0 848.25363348 0 8137.26737381 0 567.71511611 0 2891.97414826 0 7371
0.08550000 0.08548940 22302.17882349 0 179.39567416 0 5779.75582408 0 539.32276104 0 408.94906828 0 8256
0.08650000 0.08650700 22344.54719583 0 262.57521479 0 7282.62410176 0 759.04159083 0 1818.21318931 0 8037
0.08750000 0.08749060 21446.27115499 0 692.67519565 0 5613.02186036 0 -309.09058567 0 -238.11025256 0 8155
0.08850000 0.08849210 20752.73860982 0 640.05855733 0 6370.66152389 0 -767.69716093 0 711.96611450 0 8718
0.08950000 0.08949900 19832.94564690 0 289.67988189 0 7212.83829057 0 -678.00265121 0 -255.87502272 0 8571
0.09050000 0.09049190 19951.62145425 0 -12.29780826 0 6167.71480213 0 240.89414300 0 -1242.42479094 0 8932
0.09150000 0.09150830 19697.85486807 0 76.18887011 0 6660.65195930 0 852.83318870 0 -1319.24242101 0 9285
0.09250000 0.09250820 19812.53784452 0 206.43268496 0 4928.90574140 0 -137.12157699 0 -2696.78017317 0 9204
0.09350000 0.09350330 19358.68606540 0 78.03333616 0 5713.87411421 0 473.44216029 0 -1044.98595759 0 9349
0.09450000 0.09448040 19313.43398185 0 383.64006596 0 6366.80178735 0 -273.06859622 0 -1524.67357088 0 9564
0.09550000 0.09549270 18834.73792156 0 364.52993362 0 5977.43422729 0 -55.54682164 0 -655.77478340 0 10155
0.09650000 0.09649430 18294.04207034 0 545.48835743 0 7006.39784177 0 -467.22887176 0 -1254.71383716 0 9913
0.09750000 0.09749140 17845.07041787 0 604.34601227 0 7588.29748966 0 -495.36280194 0 -265.70847793 0 10476
0.09850000 0.09850240 17080.99786011 0 -26.24055195 0 7523.83545299 0 708.72415763 0 6.55235751 0 10575
0.09950000 0.09950330 17127.69179926 0 -27.97466059 0 7605.02301465 0 881.41631236 0 -399.07790299 0 10882
0.10050000 0.10051200 17656.52006975 0 69.81531378 0 6726.50039558 0 533.16381938 0 199.09253082 0 10875
0.10150000 0.10150300 16668.62715758 0 338.76619223 0 6113.67849060 0 361.91906586 0 -503.99508052 0 11118
0.10250000 0.10250800 16731.51424427 0 343.36238424 0 6304.60235487 0 -744.80493042 0 435.82303848 0 11575
0.10350000 0.10349800 16093.21585990 0 -79.96997006 0 6004.98476051 0 526.92613021 0 -2286.56116285 0 11364
0.10450000 0.10450100 16348.64612562 0 85.84042969 0 5951.21463770 0 726.69522405 0 -439.34782087 0 12093
0.10550000 0.10551000 16035.76345971 0 78.19316031 0 4700.74872897 0 -171.24808088 0 -2529.72456474 0 12067
0.10650000 0.10649700 16027.77779791 0 44.59393192 0 5214.24896528 0 44.70562028 0 -667.89967991 0 12054
0.10750000 0.10749900 15947.58844397 0 173.68259861 0 4549.91954168 0 270.55976747 0 -1942.23495359 0 12807
0.10850000 0.10850100 15782.99508126 0 -34.53221987 0 4436.24586415 0 538.77818327 0 -1563.02692993 0 12736
0.10950000 0.10950300 15851.09503052 0 54.92493823 0 4502.30503318 0 250.48137364 0 -1317.33473513 0 12933
0.11050000 0.11050200 15558.62016700 0 360.79552761 0 4452.57210606 0 -509.89781554 0 -1231.55541793 0 13428
0.11150000 0.11150900 15154.01330233 0 430.63235831 0 5180.48736177 0 -583.74633218 0 -1174.22502091 0 13453
0.11250000 0.11250000 15044.21045254 0 8.89819003 0 5080.24512375 0 146.96057780 0 -1116.20696967 0 13668
0.11350000 0.11349100 14830.70491129 0 34.20636051 0 5932.62579162 0 353.49862913 0 -786.79509295 0 13791
0.11450000 0.11448600 15197.37988239 0 -48.19857093 0 5018.32297119 0 161.36693352 0 -603.27016617 0 14205
0.11550000 0.11549300 15102.88288439 0 -97.51857278 0 5077.81615162 0 754.48089064 0 -619.72839332 0 14776
0.11650000 0.11649800 15050.19969889 0 208.75961808 0 4732.73574097 0 362.89952767 0 -287.07345061 0 14553
0.11750000 0.11747300 14809.74254905 0 188.04126218 0 4200.33610506 0 -169.11746195 0 559.56641371 0 14568
0.11850000 0.11849100 14593.46420856 0 256.96417826 0 5174.86412492 0 225.86557113 0 825.68748417 0 16015
0.11950000 0.11950300 14335.92661543 0 76.08283827 0 4870.08912398 0 256.86324836 0 152.93984208 0 15270
0.12050000 0.12050700 14109.00072586 0 172.26070716 0 4312.24628227 0 246.06042254 0 523.12184966 0 15999
0.12150000 0.12150000 13925.21959243 0 271.56352080 0 4703.23315709 0 -343.66295568 0 -134.51181835 0 15670
0.12250000 0.12250700 13687.64615380 0 155.41983372 0 4467.68940750 0 163.32009330 0 1318.11111892 0 16887
0.12350000 0.12352200 13685.53882638 0 -119.16382001 0 3926.66082037 0 662.79551107 0 440.00774709 0 16407
0.12450000 0.12449800 13518.83813625 0 -167.73328057 0 3760.35941333 0 1074.18131532 0 1208.14190118 0 16306
0.12550000 0.12549900 13810.64752796 0 -3.62041069 0 3189.62860076 0 98.91040709 0 1082.48307623 0 17523
0.12650000 0.12650100 13636.62664784 0 232.75764092 0 3270.93816559 0 326.43278122 0 1252.79506009 0 17154
0.12750000 0.12750600 13421.23560311 0 277.53058476 0 3841.95734927 0 -753.85756537 0 1110.25099691 0 18007
0.12850000 0.12850300 12851.03716800 0 415.14904737 0 4243.75814112 0 -378.18763354 0 1382.42897002 0 17496
0.12950000 0.12949900 12755.43105030 0 145.45661150 0 4470.51766272 0 -89.81961842 0 1683.61042315 0 18405
0.13050000 0.13049000 12599.82155712 0 14.31130416 0 4687.48365742 0 286.57323763 0 937.71855542 0 18100
0.13150000 0.13148800 12806.78329217 0 82.60191110 0 4397.65958997 0 289.17523243 0 1484.13524604 0 19059
0.13250000 0.13249300 12452.08681377 0 247.07304882 0 4667.47513813 0 50.60081328 0 1454.35538223 0 18957
0.13350000 0.13349100 12184.34531944 0 213.46117647 0 4291.68320313 0 75.21606122 0 2425.89987011 0 19468
0.13450000 0.13450700 12105.26508520 0 -14.56928540 0 4360.38207703 0 511.28976076 0 1761.43735214 0 19953
0.13550000 0.13551000 11977.05084848 0 -15.11663597 0 3854.14657472 0 528.53324465 0 2244.48116162 0 19956
0.13650000 0.13649900 11989.02934118 0 -49.43324297 0 3062.78967246 0 350.15019678 0 1567.78505342 0 19723
0.13750000 0.13749600 11930.80055720 0 145.63185241 0 3144.56506756 0 53.92462318 0 1712.62499437 0 20946
0.13850000 0.13851100 11680.02859420 0 154.89522010 0 2938.15789236 0 96.60022168 0 1828.78310000 0 20955
0.13950000 0.13949800 11430.69848681 0 280.19579938 0 3204.39098390 0 -268.30825449 0 854.86287774 0 20506
0.14050000 0.14048300 11210.42731542 0 179.99348967 0 2958.19968524 0 -317.09510251 0 1114.97584681 0 21447
0.14150000 0.14148400 10824.45366162 0 208.42910041 0 3466.32069103 0 6.90748655 0 252.34247649 0 21771
0.14250000 0.14249400 10720.65114938 0 131.51054045 0 3382.98143716 0 -71.49574103 0 548.17908181 0 22470
0.14350000 0.14350900 10682.79689420 0 -77.22323514 0 3110.91437602 0 348.82036226 0 354.86728284 0 22519
0.14450000 0.14449900 10660.35940277 0 45.37985414 0 2996.68613865 0 402.06254409 0 559.62408794 0 22218
0.14550000 0.14550500 10722.27046413 0 117.05094699 0 2876.61284049 0 56.34250411 0 1005.76083046 0 23559
0.14650000 0.14650700 10571.62982718 0 45.86232120 0 2842.32995072 0 -99.55070189 0 601.49113818 0 23044
0.14750000 0.14750500 10495.38893936 0 154.09776304 0 2999.74730901 0 184.08170487 0 1250.48809112 0 23649
0.14850000 0.14849900 10380.81687489 0 99.39997252 0 3184.99248044 0 -214.93186918 0 508.88297102 0 23640
0.14950000 0.14949500 10104.03605504 0 200.54547762 0 3107.26537223 0 -52.16877579 0 1097.15340243 0 24457
0.15050000 0.15050000 9846.66482986 0 256.42403696 0 3272.05837648 0 -210.22143784 0 571.00254689 0 24591
0.15150000 0.15149900 9769.90265578 0 227.42721166 0 3862.70897876 0 -433.50386920 0 526.86956511 0 25020
0.15250000 0.15250500 9465.24965801 0 138.34826337 0 3905.54318138 0 108.47512260 0 377.67522024 0 25297
0.15350000 0.15350100 9293.89066516 0 -4.75347628 0 3660.29463446 0 250.87067465 0 315.25840030 0 25452
0.15450000 0.15450400 9375.68824265 0 -45.14904633 0 3439.08071133 0 305.75213539 0 1014.22563197 0 26061
0.15550000 0.15549900 9276.46639475 0 -2.23634022 0 3203.58132652 0 631.73461402 0 609.72746103 0 26128
0.15650000 0.15649500 9452.71660546 0 48.63201491 0 3129.38121894 0 212.41971307 0 1190.39598606 0 26331
0.15750000 0.15749700 9358.61889055 0 -31.15007028 0 2559.88152924 0 127.53767371 0 396.54134625 0 27345
0.15850000 0.15849900 9293.29174052 0 95.44218980 0 2857.80217047 0 -75.23558173 0 1139.32102411 0 26980
0.15950000 0.15949700 9188.84593886 0 197.96344697 0 2749.43008509 0 -257.67623310 0 634.59170635 0 27777
0.16050000 0.16050000 9109.02259442 0 23.31580331 0 2791.57663349 0 68.91859051 0 747.72635170 0 28224
0.16150000 0.16150500 8985.54429880 0 81.43877727 0 2796.07965945 0 65.39835551 0 88.09538094 0 28075
0.16250000 0.16249700 8894.56321023 0 108.56329762 0 2659.44720424 0 -87.95219359 0 43.98158694 0 28590
0.16350000 0.16349900 8857.06387335 0 162.28306639 0 2833.57899633 0 -114.85821736 0 366.60066009 0 29163
0.16450000 0.16449100 8574.17180399 0 126.59270373 0 2763.01680135 0 -108.00219396 0 -319.79026337 0 28996
0.16550000 0.16550500 8519.25928790 0 45.45083780 0 2754.69840364 0 224.54460958 0 -108.42465765 0 30777
0.16650000 0.16650700 8471.57823222 0 -12.61013637 0 2633.03906431 0 138.57674203 0 -567.50771073 0 29211
0.16750000 0.16749900 8441.13289660 0 35.63058111 0 2283.14507419 0 313.29969491 0 -150.83695114 0 30922
0.16850000 0.16850800 8398.50942672 0 61.26178270 0 2222.26549414 0 349.30837493 0 97.25959333 0 30867
0.16950000 0.16949900 8233.68314888 0 122.92928138 0 1861.99014367 0 108.32749877 0 144.89983341 0 30852
0.17050000 0.17049200 8231.33181512 0 79.38601854 0 1972.93538674 0 301.41991386 0 319.61169510 0 31257
0.17150000 0.17149500 7906.55938609 0 126.73578017 0 1766.11783725 0 -59.21490230 0 217.43404321 0 32608
0.17250000 0.17250900 7954.22935057 0 126.01707061 0 2049.71974321 0 -194.12256547 0 678.29545880 0 32361
0.17350000 0.17350400 7708.13787268 0 35.08799975 0 2110.31095214 0 -160.77910008 0 208.53335766 0 32508
0.17450000 0.17449800 7847.34348558 0 30.13655670 0 2028.39137148 0 6.51994903 0 193.32621753 0 32791
0.17550000 0.17549800 7826.63622088 0 -20.79222327 0 2118.97317696 0 139.16568459 0 -85.49992995 0 33633
0.17650000 0.17650100 7867.11908974 0 73.26567424 0 1979.57901371 0 -172.51025909 0 105.49968720 0 33984
0.17750000 0.17750300 7728.04657120 0 123.16774211 0 2315.46482209 0 73.71786234 0 -102.58015142 0 34069
0.17850000 0.17849800 7641.12486072 0 34.85674830 0 2126.73701482 0 48.47008343 0 -34.42995904 0 34536
