### header ###
fiducial parameters:
Omega_m = 0.31
Omega_nu = 0
Omega_de = 0.69
Omega_k = 0
H_0 = 100
w_de = -1
zeff = 0
beta = 0
fgrowth = 0
b_1 = 2
gamma = 0.55
Lx = 3500 Ly = 3500 Lz = 3500
nx = 700 ny = 700 nz = 700
xoffset = 1379.75464 yoffset = 22.6059522 zoffset = 368.141391
bins = 400 dk = 0.001
kx_ny = 0.628318531 ky_ny = 0.628318531 kz_ny = 0.628318531
############################
A(data) = 3.35543577 (not used)
A(ran) = 3.35223241 (used)
Ngal = 188106
weighted Ngal = 0
Nran = 9399747
weighted Nran = 0
SN(data) = 6678.95786
SN(ran) = 133.336328
SN(data+ran) = 6812.29419
############################
13 columns: k_central k_mean P_0(k) sigma^{lin}_{P_0(k)} P^img_1(k) sigma^{lin}_{P_1(k)} P_2(k) sigma^{lin}_{P_2(k)} P^img_3(k) sigma^{lin}_{P_3(k)} P_4(k) sigma^{lin}_{P_4(k)} N_modes
### header ###
0.00050000 0 0 0 0 0 0 0 0 0 0 0 0
0.00150000 0.00179520 21871.06399811 0 -20356.45014286 0 -35678.71690289 0 37941.09925639 0 -11475.39601051 0 3
0.00250000 0.00253879 46852.09962050 0 -23831.21123477 0 -14774.69436670 0 -33104.56100318 0 17450.77836636 0 6
0.00350000 0.00331552 56147.96451871 0 -11754.33961376 0 -20687.07872389 0 -27252.51275739 0 -15208.36016737 0 7
0.00450000 0.00420575 63499.32076796 0 4106.10529579 0 -1181.88903800 0 -45030.03778584 0 641.36842769 0 24
0.00550000 0.00557378 49071.55904181 0 9765.38853862 0 20599.79100390 0 -15786.98791216 0 14307.97679912 0 45
0.00650000 0.00659388 42697.55906763 0 6531.57260922 0 23389.11612441 0 30052.26360303 0 280.29340192 0 40
0.00750000 0.00754703 45845.57349745 0 -11634.22195081 0 8559.50924162 0 18339.95962570 0 5532.78814164 0 57
0.00850000 0.00846663 47826.46127240 0 -4039.53593171 0 1103.72493663 0 24251.01303926 0 1476.47122894 0 75
0.00950000 0.00948925 63708.94439029 0 -3588.96714688 0 -14217.91627990 0 8254.95606462 0 15468.55964778 0 112
0.01050000 0.01054430 55253.23766090 0 -4433.55070329 0 -19150.28247474 0 4327.21939815 0 31829.40609004 0 105
0.01150000 0.01145670 67792.72310662 0 -6288.89721999 0 -33842.23651220 0 10772.13648561 0 14534.12630489 0 144
0.01250000 0.01249090 66018.57524278 0 -4272.57307079 0 -31341.61524826 0 -7017.28939717 0 22858.51326241 0 169
0.01350000 0.01339930 67986.70814125 0 -2506.99870219 0 -43344.84132153 0 59.37883019 0 16758.35494089 0 180
0.01450000 0.01448870 70796.55197611 0 4001.95895645 0 -21676.41349167 0 -15739.29576528 0 5890.27960167 0 267
0.01550000 0.01550050 71985.63920093 0 4576.40531999 0 -21241.63857130 0 -26786.23883768 0 4883.05473321 0 238
0.01650000 0.01653350 58342.57965886 0 6346.58253532 0 17026.65099506 0 -14891.48467056 0 -6759.39688573 0 315
0.01750000 0.01747870 55059.69627415 0 6330.75539727 0 17732.38385688 0 -21806.29140793 0 -3982.28317306 0 297
0.01850000 0.01844180 57527.37668316 0 1470.45980020 0 43154.96002978 0 4066.23244276 0 -67.37891055 0 388
0.01950000 0.01947590 54067.58870713 0 -1593.02861767 0 36110.49720008 0 8116.07209644 0 -4142.75061051 0 399
0.02050000 0.02045430 58940.06243846 0 -1636.76120724 0 40416.43259129 0 13071.19742742 0 17424.71405354 0 462
0.02150000 0.02154770 64074.95388958 0 -1381.27548554 0 37623.00372791 0 9429.64691580 0 13729.68179024 0 571
0.02250000 0.02255340 63777.48798743 0 2490.23990360 0 36572.22372904 0 2586.63349628 0 37746.67057389 0 510
0.02350000 0.02348930 63731.12678418 0 1926.85146342 0 39654.02371307 0 4556.91808695 0 21836.01581575 0 555
0.02450000 0.02439640 62113.80844519 0 -927.77640648 0 40201.04154656 0 5780.73184941 0 31181.12562842 0 592
0.02550000 0.02547300 61517.54569726 0 878.42945302 0 34359.19720196 0 9395.24202287 0 30051.15448333 0 837
0.02650000 0.02652900 65224.11280538 0 -786.52668598 0 39740.53504927 0 -1140.37468782 0 33490.20192107 0 723
0.02750000 0.02749970 60644.89032137 0 2341.55131731 0 31054.90780715 0 11811.01563016 0 25498.21813609 0 826
0.02850000 0.02848090 62238.47349889 0 1263.89734823 0 33551.64715216 0 -2451.34307591 0 24157.84698489 0 831
0.02950000 0.02946900 59418.75849874 0 638.99823890 0 38193.09125105 0 2241.79709196 0 28310.83477019 0 996
0.03050000 0.03053250 59748.27796008 0 218.38899527 0 32010.19260030 0 6066.74054512 0 21133.49940105 0 1041
0.03150000 0.03150510 59788.53900500 0 613.70254602 0 28935.71280625 0 1888.70883712 0 14929.30565216 0 1036
0.03250000 0.03246190 56190.44380302 0 1163.86584296 0 30305.14289345 0 5822.47911473 0 17019.10898114 0 1059
0.03350000 0.03345080 57136.96655059 0 1774.58042052 0 28571.92154635 0 1522.10041319 0 18161.83500271 0 1302
0.03450000 0.03451200 52105.66687896 0 2847.49844850 0 23308.37221063 0 4592.97556823 0 16497.15725276 0 1339
0.03550000 0.03553350 48883.23051763 0 402.20562053 0 20205.27712846 0 5357.11467317 0 12056.79655453 0 1365
0.03650000 0.03647120 49677.13839518 0 -1998.56714289 0 17277.53387003 0 7734.69019818 0 16211.44801937 0 1308
0.03750000 0.03744890 51676.65938101 0 -532.45065541 0 11365.70407269 0 4225.43548376 0 9384.70538577 0 1579
0.03850000 0.03847530 49190.45667309 0 2454.72589097 0 7350.02530562 0 -4064.29148330 0 7261.08499729 0 1662
0.03950000 0.03950240 45553.54228180 0 2839.26878037 0 11232.72062128 0 -4719.69249336 0 10292.63076795 0 1683
0.04050000 0.04050350 43528.73336693 0 1094.34622049 0 12454.08322922 0 748.43397007 0 1419.21847030 0 1822
0.04150000 0.04152450 41864.94291273 0 -23.40652930 0 11781.95669416 0 4227.01043372 0 3463.90281010 0 1887
0.04250000 0.04250150 42795.82707259 0 9.91855797 0 10022.19411276 0 762.55417290 0 492.94935748 0 1920
0.04350000 0.04349210 41760.13110157 0 191.55162601 0 12917.91708559 0 10.78483591 0 2798.73045552 0 2005
0.04450000 0.04448520 42806.47462167 0 -119.94574940 0 9745.01400983 0 -630.88391921 0 -259.62162904 0 2151
0.04550000 0.04548030 42456.43644598 0 270.70728039 0 11194.89963969 0 -1415.78019924 0 2372.06320012 0 2274
0.04650000 0.04648670 41354.19329326 0 521.46593396 0 13016.51782646 0 -830.08514376 0 -1149.03691264 0 2311
0.04750000 0.04749250 42126.36242480 0 894.40964958 0 14481.22129545 0 -863.91773093 0 134.38094222 0 2568
0.04850000 0.04851840 41185.49618768 0 600.76133742 0 16931.71034919 0 2055.66462478 0 575.30704042 0 2493
0.04950000 0.04949480 41684.04549050 0 157.97635461 0 12402.95281129 0 2530.55640451 0 854.68763683 0 2644
0.05050000 0.05050630 39640.82518870 0 381.35749763 0 13170.13090420 0 2075.48459372 0 3985.36652581 0 2829
0.05150000 0.05149060 39912.67042590 0 308.41735002 0 11705.42743522 0 503.64127134 0 1725.22459410 0 2784
0.05250000 0.05249300 37668.69945934 0 866.30899299 0 10697.00471749 0 418.28896523 0 2774.61819336 0 3055
0.05350000 0.05348950 37983.91127661 0 716.27726275 0 8633.35443091 0 -2.34085257 0 806.58622479 0 3009
0.05450000 0.05448610 36313.79884015 0 671.80821771 0 9211.70489577 0 162.71562307 0 467.75237626 0 3336
0.05550000 0.05550870 35491.60841037 0 764.69699215 0 7587.24382595 0 -795.57488446 0 -3230.76585024 0 3349
0.05650000 0.05647670 34759.70032376 0 63.56287333 0 7017.76631864 0 538.13933033 0 -5416.10874974 0 3324
0.05750000 0.05747970 33652.35522045 0 -146.74540858 0 5346.81095121 0 1642.31789691 0 -4390.21739682 0 3639
0.05850000 0.05849280 34331.24738565 0 -158.39116538 0 3538.96803104 0 1101.35363872 0 -6909.37205086 0 3846
0.05950000 0.05951020 34132.71496028 0 391.91188064 0 4493.24352527 0 493.95643817 0 -3932.56133714 0 3787
0.06050000 0.06049470 33500.51673423 0 510.88049559 0 3611.00535522 0 -693.28410236 0 -6047.15349131 0 3930
0.06150000 0.06148310 33408.01615168 0 396.56907424 0 3786.54572932 0 350.59384465 0 -4169.80203987 0 4083
0.06250000 0.06249100 31984.57193535 0 758.28849855 0 5243.09716855 0 -2253.68685509 0 -5501.83261095 0 4303
0.06350000 0.06350600 31670.46923777 0 1396.06005107 0 7728.31275993 0 -3093.53447040 0 -4448.49054558 0 4470
0.06450000 0.06451750 30136.33487589 0 1060.24744459 0 10943.89476155 0 -156.21618166 0 -4798.80600119 0 4479
0.06550000 0.06550280 29526.98451556 0 -151.81852207 0 8584.99681221 0 1275.99784411 0 -4145.35704179 0 4636
0.06650000 0.06648880 29842.30724480 0 -103.23652846 0 9671.69010680 0 2217.39645868 0 -3817.50126000 0 4653
0.06750000 0.06749660 28847.75961445 0 806.56626063 0 7666.77879926 0 446.27649161 0 -2079.94325490 0 5220
0.06850000 0.06852730 27930.62853880 0 813.44280274 0 7926.52354059 0 455.92139647 0 -302.47357757 0 5029
0.06950000 0.06949320 27053.53668414 0 127.51992779 0 7081.81798102 0 1224.54578146 0 -793.08934722 0 5040
0.07050000 0.07048030 26816.29598141 0 -71.31661820 0 6890.32846570 0 1364.36141019 0 990.51376202 0 5475
0.07150000 0.07148790 26504.96608308 0 279.64123954 0 7237.23892385 0 165.46180343 0 -412.17549747 0 5509
0.07250000 0.07249820 27363.53563884 0 -387.96119629 0 4986.56887433 0 326.09006324 0 721.13520702 0 5916
0.07350000 0.07351270 26486.44378417 0 -35.66440926 0 5962.86039450 0 623.33968705 0 -566.70692631 0 5721
0.07450000 0.07449140 27244.41618361 0 389.42856165 0 5082.08626245 0 -958.92936047 0 -243.55159379 0 6028
0.07550000 0.07549160 27447.27417580 0 59.61984190 0 6791.65008646 0 539.56011266 0 1596.74416865 0 6183
0.07650000 0.07648840 26417.01289128 0 321.86875368 0 6835.30503764 0 67.59851625 0 1284.42715379 0 6330
0.07750000 0.07749960 26820.84337216 0 220.33771857 0 6585.78637990 0 619.46109547 0 2889.26789621 0 6583
0.07850000 0.07848650 26061.98367696 0 214.31298039 0 7358.07751460 0 186.13246719 0 800.45279287 0 6549
0.07950000 0.07947320 26096.36638750 0 770.03074876 0 8418.83959073 0 -536.03976675 0 4410.66956399 0 6828
0.08050000 0.08048110 24450.32184842 0 765.33362686 0 9247.82892423 0 -280.70377620 0 2781.59455624 0 7147
0.08150000 0.08149960 24758.43529964 0 464.40394390 0 9133.05721821 0 -1197.37234894 0 2146.06897110 0 7386
0.08250000 0.08250610 23588.86858145 0 343.48216917 0 9935.72714135 0 550.54594324 0 546.75497212 0 7227
0.08350000 0.08350160 23313.69598516 0 565.57229686 0 9318.52421358 0 26.61343799 0 1276.59676874 0 7798
0.08450000 0.08449610 22652.77155902 0 163.50309805 0 9891.32907997 0 200.10182974 0 975.87005469 0 7371
0.08550000 0.08548940 22868.93898754 0 -161.91816601 0 8261.55532681 0 1146.45266375 0 -438.21540966 0 8256
0.08650000 0.08650700 22534.20666364 0 -392.74926601 0 7048.35583982 0 1834.49506643 0 211.67882112 0 8037
0.08750000 0.08749060 22616.28152106 0 363.51841646 0 5843.95167202 0 471.34370583 0 260.63758268 0 8155
0.08850000 0.08849210 22126.60517580 0 435.21967737 0 5646.97201422 0 -175.27418537 0 -39.16312734 0 8718
0.08950000 0.08949900 21483.98122462 0 459.88982674 0 6225.35575267 0 41.34188206 0 -142.51522607 0 8571
0.09050000 0.09049190 20771.59364463 0 330.78274866 0 5204.51089436 0 -134.64713095 0 289.09648493 0 8932
0.09150000 0.09150830 21110.20788746 0 -8.59219500 0 5689.35147776 0 981.18051979 0 378.41611220 0 9285
0.09250000 0.09250820 20445.29063041 0 238.38864161 0 4854.96073134 0 282.35747367 0 253.89191670 0 9204
0.09350000 0.09350330 19950.06868668 0 833.94155294 0 5155.60980702 0 -586.45591159 0 760.15292876 0 9349
0.09450000 0.09448040 19206.62575524 0 567.39347140 0 6511.95228182 0 -1046.98126392 0 757.32578266 0 9564
0.09550000 0.09549270 18399.74117725 0 401.75975441 0 6822.02887490 0 312.28595951 0 958.31490816 0 10155
0.09650000 0.09649430 18410.94328617 0 13.49976128 0 7367.07247533 0 381.04250763 0 1436.16581923 0 9913
0.09750000 0.09749140 18259.88118374 0 -45.49043337 0 6071.09938552 0 919.93049376 0 238.49844446 0 10476
0.09850000 0.09850240 18280.84354597 0 399.09232155 0 6402.49325913 0 -573.09101927 0 895.36681988 0 10575
0.09950000 0.09950330 17637.11047509 0 231.55424605 0 6700.97955140 0 -542.59799150 0 -483.84903039 0 10882
0.10050000 0.10051200 17101.96022234 0 456.54915822 0 7301.15749186 0 -708.56111704 0 -239.75396795 0 10875
0.10150000 0.10150300 16972.85868987 0 356.89475364 0 6782.71058172 0 415.28990557 0 -874.25805385 0 11118
0.10250000 0.10250800 16589.87965924 0 -195.61987705 0 6460.40039840 0 1195.73085179 0 -877.38577138 0 11575
0.10350000 0.10349800 16564.03717035 0 98.69956343 0 6311.41234980 0 265.73176944 0 -1365.55925946 0 11364
0.10450000 0.10450100 16722.41946277 0 227.42942990 0 4553.49090709 0 591.03657593 0 -1181.60066688 0 12093
0.10550000 0.10551000 15817.93235165 0 376.30989390 0 5743.56524844 0 -167.07668171 0 -1172.91625967 0 12067
0.10650000 0.10649700 15471.99791883 0 450.22163036 0 5417.56169654 0 -364.23158042 0 -566.83558419 0 12054
0.10750000 0.10749900 15049.86696298 0 220.85567747 0 5316.62071312 0 496.44752100 0 -845.91228180 0 12807
0.10850000 0.10850100 14948.04977500 0 39.04933166 0 5339.66822037 0 600.56724147 0 -318.21753164 0 12736
0.10950000 0.10950300 14596.12609583 0 72.21445059 0 5279.59829770 0 562.30704848 0 -417.20757352 0 12933
0.11050000 0.11050200 14925.31282125 0 77.78134417 0 4768.81540465 0 159.95724239 0 -123.93081646 0 13428
0.11150000 0.11150900 14571.72546254 0 62.35271283 0 5000.64360326 0 -259.56617306 0 190.03656851 0 13453
0.11250000 0.11250000 14345.02139692 0 240.66011874 0 4943.76794531 0 -355.05361495 0 -583.80622464 0 13668
0.11350000 0.11349100 14652.13664042 0 149.08565114 0 5580.87957160 0 -19.81309240 0 274.95853618 0 13791
0.11450000 0.11448600 14087.26197985 0 115.81538765 0 5346.15657059 0 -231.61302939 0 -917.44384740 0 14205
0.11550000 0.11549300 14034.91153025 0 195.78735413 0 5575.40052031 0 39.07539597 0 -487.31946591 0 14776
0.11650000 0.11649800 13979.78828142 0 137.96339884 0 5352.77801517 0 99.06912212 0 -421.59968752 0 14553
0.11750000 0.11747300 13949.06566587 0 -329.04253986 0 5306.57208868 0 796.42557926 0 -271.67443277 0 14568
0.11850000 0.11849100 14545.43932578 0 -300.12113470 0 4296.86279210 0 1014.00713539 0 -260.33922949 0 16015
0.11950000 0.11950300 14560.74517757 0 -65.48353590 0 3523.29616975 0 509.66379128 0 -828.66990703 0 15270
0.12050000 0.12050700 14490.20516497 0 278.78389001 0 3803.70381100 0 -598.42331310 0 459.91533649 0 15999
0.12150000 0.12150000 14255.18270164 0 310.33390885 0 3748.33655583 0 168.02830641 0 -222.59921363 0 15670
0.12250000 0.12250700 13697.96096696 0 111.81479291 0 4331.81115369 0 187.78505553 0 992.76527500 0 16887
0.12350000 0.12352200 13531.37118880 0 333.31819629 0 4382.54228853 0 -120.63007625 0 114.77392426 0 16407
0.12450000 0.12449800 13513.73618565 0 252.25152867 0 4548.72169241 0 134.61053000 0 1688.23545228 0 16306
0.12550000 0.12549900 13120.88598975 0 -56.61357297 0 4666.09982971 0 644.15009988 0 1793.01398985 0 17523
0.12650000 0.12650100 13096.81809237 0 -238.49289886 0 4324.55751088 0 880.45248734 0 2988.83357121 0 17154
0.12750000 0.12750600 13657.25627416 0 -42.65374884 0 3931.17493752 0 409.56130235 0 2319.08055230 0 18007
0.12850000 0.12850300 13518.72722428 0 75.57896519 0 3380.78538017 0 -32.56209056 0 2076.32752469 0 17496
0.12950000 0.12949900 13413.13902933 0 238.85114452 0 3654.46066486 0 -495.63120891 0 2013.03006371 0 18405
0.13050000 0.13049000 13078.85035331 0 216.31050496 0 3787.62157542 0 -509.13806855 0 1564.69060947 0 18100
0.13150000 0.13148800 12786.93004964 0 190.36375882 0 4031.86082342 0 -109.70014530 0 1263.67552430 0 19059
0.13250000 0.13249300 12597.15966985 0 305.07335414 0 4009.73388551 0 -188.71117048 0 407.87322217 0 18957
0.13350000 0.13349100 12290.70989817 0 180.61681494 0 4029.40966890 0 0.43781169 0 -237.10871748 0 19468
0.13450000 0.13450700 11954.31389473 0 212.83119648 0 3946.64715727 0 14.29233821 0 -32.10690784 0 19953
0.13550000 0.13551000 11721.39875882 0 113.01596954 0 4125.57034644 0 434.13606743 0 305.90630303 0 19956
0.13650000 0.13649900 11731.71357198 0 -30.20521121 0 3470.28024834 0 430.71443317 0 200.81388459 0 19723
0.13750000 0.13749600 11775.19106402 0 -28.91386315 0 3457.68064861 0 215.68163409 0 -70.63140405 0 20946
0.13850000 0.13851100 11777.29839144 0 129.59952722 0 3324.69719720 0 -116.12039557 0 -57.69618470 0 20955
0.13950000 0.13949800 11645.20223579 0 156.87721699 0 3843.34374889 0 -502.01530187 0 235.71455402 0 20506
0.14050000 0.14048300 11463.52842977 0 94.92589458 0 3381.77249669 0 -20.90091700 0 47.53520644 0 21447
0.14150000 0.14148400 11378.01530130 0 156.00877627 0 3616.02966744 0 -34.50537918 0 -487.76311379 0 21771
0.14250000 0.14249400 11157.85504188 0 154.58244835 0 3737.00135255 0 177.94383648 0 -509.87230579 0 22470
0.14350000 0.14350900 11069.53584058 0 145.38119136 0 3536.19523180 0 388.56899388 0 287.29527455 0 22519
0.14450000 0.14449900 10711.01289923 0 51.75518506 0 3845.79490342 0 261.04241137 0 -357.31732824 0 22218
0.14550000 0.14550500 10648.53618682 0 124.83585813 0 2986.61533182 0 -101.49254865 0 77.15269512 0 23559
0.14650000 0.14650700 10311.96272423 0 304.40344584 0 3698.06016007 0 109.75027751 0 -163.39218608 0 23044
0.14750000 0.14750500 10026.37549401 0 291.76613604 0 3310.48937391 0 -406.73193801 0 476.81610240 0 23649
0.14850000 0.14849900 9756.17175396 0 136.01578465 0 3631.33551923 0 339.96071414 0 37.53915428 0 23640
0.14950000 0.14949500 9703.48856845 0 -124.48870367 0 3116.52652168 0 639.43855942 0 496.06154735 0 24457
0.15050000 0.15050000 9882.72231114 0 -185.49915984 0 2810.57585386 0 660.74696699 0 517.02280046 0 24591
0.15150000 0.15149900 10165.17073262 0 -9.24106329 0 2394.91106583 0 375.86624602 0 797.05555925 0 25020
0.15250000 0.15250500 9879.73877916 0 145.26695203 0 2324.11595571 0 -234.12518550 0 616.00396938 0 25297
0.15350000 0.15350100 9977.30803871 0 67.40009473 0 2470.20920191 0 23.21431886 0 1424.06532336 0 25452
0.15450000 0.15450400 9746.15640311 0 101.82839009 0 2326.53383665 0 -92.42128049 0 759.04491819 0 26061
0.15550000 0.15549900 9624.74107012 0 203.24507496 0 2529.14782250 0 -177.65546536 0 563.09785082 0 26128
0.15650000 0.15649500 9580.94193337 0 152.13794854 0 2772.58850431 0 -42.42050097 0 941.05811482 0 26331
0.15750000 0.15749700 9301.94287414 0 -28.65577100 0 2367.85963648 0 279.06006082 0 264.48068243 0 27345
0.15850000 0.15849900 9458.31765991 0 -75.33673345 0 2236.73950615 0 518.33267082 0 660.55398017 0 26980
0.15950000 0.15949700 9296.11999574 0 138.68321752 0 2019.65150829 0 -141.71444165 0 79.59763858 0 27777
0.16050000 0.16050000 9203.45304524 0 221.12963004 0 1925.23214867 0 -36.27109773 0 439.66281087 0 28224
0.16150000 0.16150500 8902.65978401 0 91.04730301 0 1883.70670729 0 54.72285662 0 176.80698879 0 28075
0.16250000 0.16249700 8852.47211781 0 15.75515618 0 1577.04620287 0 87.46828467 0 -19.08440076 0 28590
0.16350000 0.16349900 8954.30039700 0 -51.08050755 0 1876.13141978 0 123.60029879 0 178.72022026 0 29163
0.16450000 0.16449100 8799.12346049 0 149.79326950 0 1709.28654408 0 -286.92261033 0 -132.77604603 0 28996
0.16550000 0.16550500 8811.14631799 0 118.56045890 0 2033.52659567 0 -69.37743333 0 -363.59494572 0 30777
0.16650000 0.16650700 8553.65308964 0 211.41374151 0 2595.87246334 0 -775.23917485 0 -445.37144993 0 29211
0.16750000 0.16749900 8568.24910482 0 180.88854927 0 2758.07012751 0 -102.64226213 0 -326.76551713 0 30922
0.16850000 0.16850800 8413.63781936 0 95.91378750 0 3349.54147836 0 -152.32760801 0 -446.78557755 0 30867
0.16950000 0.16949900 8300.34124254 0 -31.30900713 0 2804.88606983 0 336.13646943 0 -23.52265414 0 30852
0.17050000 0.17049200 8476.03689339 0 -70.45871412 0 3234.92504910 0 451.79436209 0 158.76604784 0 31257
0.17150000 0.17149500 8390.76777125 0 53.98540294 0 2738.62725926 0 138.03770986 0 290.61486980 0 32608
0.17250000 0.17250900 8442.95185290 0 23.64166268 0 2650.46333472 0 343.37680280 0 845.08931499 0 32361
0.17350000 0.17350400 8177.90551942 0 151.83626798 0 2840.22262330 0 -84.28710756 0 552.20074982 0 32508
0.17450000 0.17449800 8333.27100627 0 124.71163673 0 2592.55619545 0 -174.25601349 0 777.36424819 0 32791
0.17550000 0.17549800 7991.39595154 0 55.79448807 0 2897.36446998 0 83.21347970 0 255.76854722 0 33633
0.17650000 0.17650100 8066.77172600 0 40.09101687 0 2641.54601237 0 83.56229784 0 707.13700735 0 33984
0.17750000 0.17750300 8074.11409838 0 12.26464559 0 2524.03478070 0 95.68198148 0 60.80027799 0 34069
0.17850000 0.17849800 8061.63650182 0 55.00867677 0 2585.86820369 0 -124.95231570 0 484.92487649 0 34536
