### header ###
fiducial parameters:
Omega_m = 0.31
Omega_nu = 0
Omega_de = 0.69
Omega_k = 0
H_0 = 100
w_de = -1
zeff = 0
beta = 0
fgrowth = 0
b_1 = 2
gamma = 0.55
Lx = 3500 Ly = 3500 Lz = 3500
nx = 700 ny = 700 nz = 700
xoffset = 1379.75464 yoffset = 22.6059522 zoffset = 368.141391
bins = 400 dk = 0.001
kx_ny = 0.628318531 ky_ny = 0.628318531 kz_ny = 0.628318531
############################
A(data) = 3.33086332 (not used)
A(ran) = 3.33058214 (used)
Ngal = 186929
weighted Ngal = 0
Nran = 9399747
weighted Nran = 0
SN(data) = 6623.64236
SN(ran) = 132.47518
SN(data+ran) = 6756.11754
############################
13 columns: k_central k_mean P_0(k) sigma^{lin}_{P_0(k)} P^img_1(k) sigma^{lin}_{P_1(k)} P_2(k) sigma^{lin}_{P_2(k)} P^img_3(k) sigma^{lin}_{P_3(k)} P_4(k) sigma^{lin}_{P_4(k)} N_modes
### header ###
0.00050000 0 0 0 0 0 0 0 0 0 0 0 0
0.00150000 0.00179520 12486.35861234 0 -29724.96238108 0 -44282.71293547 0 47425.07085484 0 45895.04023584 0 3
0.00250000 0.00253879 18692.10512881 0 -29960.98305214 0 -17429.81600413 0 -40239.08435209 0 -33750.95596132 0 6
0.00350000 0.00331552 41325.24526923 0 -20121.09494362 0 -64290.45584628 0 15617.40351082 0 -13391.62210725 0 7
0.00450000 0.00420575 67917.60998426 0 -22506.92231915 0 -51873.30630290 0 -27521.14154747 0 -14099.90594437 0 24
0.00550000 0.00557378 82638.62295773 0 -10839.13840638 0 -63634.96610664 0 -32182.32797693 0 14595.12788811 0 45
0.00650000 0.00659388 117291.62596684 0 -11817.33761242 0 -74009.67173201 0 -29987.82374876 0 -48831.54553985 0 40
0.00750000 0.00754703 87078.98365595 0 2819.65954416 0 -45210.60247216 0 -39604.44606271 0 -13840.48284775 0 57
0.00850000 0.00846663 110141.35311826 0 5407.72380485 0 -45563.30253512 0 -42653.19427984 0 -38246.88355625 0 75
0.00950000 0.00948925 86076.56127577 0 2462.64500560 0 -6259.08408259 0 -31841.05184684 0 -8694.88839157 0 112
0.01050000 0.01054430 94193.87558626 0 -1244.70957751 0 -17396.43150132 0 8439.33612269 0 -35174.62200159 0 105
0.01150000 0.01145670 92785.95904565 0 -7591.46957198 0 -9199.19402561 0 9073.25348427 0 -19701.73678701 0 144
0.01250000 0.01249090 109859.52580381 0 -4592.14372846 0 -6328.25987796 0 -5028.19413648 0 -40077.26378862 0 169
0.01350000 0.01339930 118175.59436362 0 -373.36518111 0 23836.75683324 0 -22684.93603017 0 -1991.43550325 0 180
0.01450000 0.01448870 101125.76276693 0 7832.45909927 0 5027.88358296 0 -3922.51271271 0 -7746.42468455 0 267
0.01550000 0.01550050 107365.33743409 0 2487.00127409 0 25399.72830719 0 -9801.61238786 0 4457.25259117 0 238
0.01650000 0.01653350 99828.98001974 0 -360.97964148 0 20818.95305560 0 21688.05924846 0 -2278.93041935 0 315
0.01750000 0.01747870 109534.33190929 0 8891.84586698 0 52818.16537092 0 -149.62468331 0 13519.94725594 0 297
0.01850000 0.01844180 83559.08139246 0 9494.35295880 0 28766.35022885 0 -23086.32644773 0 6969.29778798 0 388
0.01950000 0.01947590 76683.20475638 0 12342.61669989 0 55030.63733815 0 -3135.39264769 0 2249.38347068 0 399
0.02050000 0.02045430 68990.12872915 0 3702.01971738 0 56749.10739331 0 5665.59413389 0 5096.89301037 0 462
0.02150000 0.02154770 64560.63740394 0 -1308.57268954 0 50669.02413826 0 16532.42725905 0 13374.87439986 0 571
0.02250000 0.02255340 66443.81173378 0 550.48605077 0 46110.65310451 0 20426.10285969 0 11329.21403473 0 510
0.02350000 0.02348930 68144.97952170 0 -2957.53421343 0 29974.95796030 0 17210.21030456 0 18723.16048026 0 555
0.02450000 0.02439640 66533.76134103 0 -1820.10978399 0 15864.07173095 0 5738.89585452 0 7410.88270327 0 592
0.02550000 0.02547300 70131.74563103 0 645.00079469 0 18831.85421036 0 -97.14191574 0 15911.43114192 0 837
0.02650000 0.02652900 67230.17759741 0 2732.90420163 0 17002.13944981 0 -6879.29272474 0 3860.33546262 0 723
0.02750000 0.02749970 62658.16439141 0 4046.65648015 0 24258.99870106 0 -6863.65413704 0 -796.72836894 0 826
0.02850000 0.02848090 60475.19500806 0 4820.16764652 0 28830.56825918 0 187.46119258 0 -4171.07752752 0 831
0.02950000 0.02946900 53303.84888528 0 5.70164052 0 21623.28665829 0 6047.34204165 0 637.01180552 0 996
0.03050000 0.03053250 55090.19706576 0 -349.85849830 0 20170.56168201 0 9814.18980520 0 -1615.17773798 0 1041
0.03150000 0.03150510 55570.11315771 0 -615.92522189 0 15274.90734906 0 6690.64255585 0 234.72632837 0 1036
0.03250000 0.03246190 54845.63617305 0 -412.84429664 0 9353.56130474 0 2959.34207853 0 7360.96122581 0 1059
0.03350000 0.03345080 55849.94405671 0 -540.76461665 0 8920.60534067 0 95.81163757 0 4325.02334116 0 1302
0.03450000 0.03451200 54948.22974482 0 808.40185373 0 9131.79282176 0 -4546.15962591 0 -842.10134653 0 1339
0.03550000 0.03553350 54989.37808550 0 2176.81376904 0 12854.14270314 0 -6199.63526695 0 -4033.82396528 0 1365
0.03650000 0.03647120 53241.40544646 0 955.63527497 0 18411.27602208 0 -2233.86688614 0 -6657.75715690 0 1308
0.03750000 0.03744890 53287.98847364 0 776.66217542 0 20679.64762193 0 -1859.22843563 0 -6098.93828986 0 1579
0.03850000 0.03847530 51510.84598663 0 481.26367238 0 20847.01378388 0 3592.05049964 0 -5366.14290749 0 1662
0.03950000 0.03950240 53692.04077847 0 -149.89419940 0 16576.01566306 0 2420.09917410 0 -5279.72030087 0 1683
0.04050000 0.04050350 51231.68055944 0 1485.97638473 0 22078.80211695 0 2728.50099644 0 -565.85290414 0 1822
0.04150000 0.04152450 49096.95788282 0 2364.78737492 0 18138.09984125 0 -622.32373341 0 3081.97744318 0 1887
0.04250000 0.04250150 47465.11007583 0 1589.43506986 0 22532.65389607 0 1790.91775362 0 2628.63585912 0 1920
0.04350000 0.04349210 44603.58126319 0 290.88438588 0 18914.70545156 0 2445.79747743 0 4913.12296814 0 2005
0.04450000 0.04448520 44908.70009123 0 365.16102272 0 16487.28608747 0 3940.43608698 0 5130.12223643 0 2151
0.04550000 0.04548030 45159.25023029 0 -157.33750167 0 17186.03149521 0 3831.12124986 0 10672.91463771 0 2274
0.04650000 0.04648670 43470.28275902 0 589.78437980 0 11598.73012057 0 2403.12964277 0 7138.16126151 0 2311
0.04750000 0.04749250 41575.46267238 0 1868.47849388 0 13521.38911155 0 -1649.87100203 0 6117.94860143 0 2568
0.04850000 0.04851840 39773.03225633 0 2214.49056508 0 16572.24465610 0 -2756.31771839 0 7347.36341835 0 2493
0.04950000 0.04949480 37563.88764818 0 787.95301391 0 14976.88688706 0 -204.09798800 0 2190.36721171 0 2644
0.05050000 0.05050630 37117.24514707 0 110.39179235 0 16555.82968461 0 692.67630477 0 3944.96129533 0 2829
0.05150000 0.05149060 37651.06445619 0 -512.15709236 0 11244.58820202 0 2793.24031303 0 337.35761022 0 2784
0.05250000 0.05249300 37605.81237264 0 -1263.87516584 0 10619.95417229 0 5108.07293690 0 156.66870249 0 3055
0.05350000 0.05348950 38222.15018706 0 378.10112220 0 6846.38514340 0 1354.67879526 0 -42.98593019 0 3009
0.05450000 0.05448610 38184.88376531 0 368.02809714 0 8075.86650750 0 -468.83154972 0 3788.32032083 0 3336
0.05550000 0.05550870 37409.83092257 0 1242.34715256 0 7033.31617676 0 -614.53993139 0 300.26199290 0 3349
0.05650000 0.05647670 35745.59682049 0 1046.99679160 0 9196.52104715 0 -1540.16797302 0 2162.59485456 0 3324
0.05750000 0.05747970 33684.07604372 0 1215.24026722 0 8906.39751738 0 707.34774009 0 1150.42331226 0 3639
0.05850000 0.05849280 33289.78399221 0 310.80861208 0 9464.80601013 0 2046.75839363 0 2950.53566815 0 3846
0.05950000 0.05951020 33326.38494214 0 -263.63109674 0 10590.48486200 0 1791.48340467 0 8134.27275063 0 3787
0.06050000 0.06049470 32332.94643149 0 80.11260285 0 6980.62190006 0 1282.29764397 0 2453.45040333 0 3930
0.06150000 0.06148310 32911.46326431 0 732.54028484 0 7858.52341210 0 -608.98989643 0 8219.97442945 0 4083
0.06250000 0.06249100 30760.21470423 0 548.30552145 0 8016.25132390 0 -2152.87896603 0 -160.10031883 0 4303
0.06350000 0.06350600 31098.16347524 0 1343.18831522 0 10439.13438844 0 -2008.18321064 0 3905.83155250 0 4470
0.06450000 0.06451750 29808.59000607 0 200.23714234 0 8830.14553836 0 -30.70331686 0 -1085.71505102 0 4479
0.06550000 0.06550280 29384.79537068 0 -456.43713713 0 9767.81751075 0 1848.76943691 0 -562.25602897 0 4636
0.06650000 0.06648880 29977.39802363 0 -47.82513033 0 7942.52813779 0 776.44478796 0 -2166.72077982 0 4653
0.06750000 0.06749660 30244.47404614 0 359.61209689 0 7956.96887622 0 880.69316631 0 -1528.32257468 0 5220
0.06850000 0.06852730 29184.37744183 0 523.51669627 0 8524.53869765 0 218.78606012 0 12.94021039 0 5029
0.06950000 0.06949320 28840.10668855 0 362.73870531 0 8669.10135867 0 -383.45927945 0 1194.82137364 0 5040
0.07050000 0.07048030 28402.33714501 0 395.52871997 0 9008.09270220 0 531.60328797 0 1785.05051044 0 5475
0.07150000 0.07148790 28248.83497925 0 285.42862610 0 8989.33748816 0 -238.47293470 0 1932.18632915 0 5509
0.07250000 0.07249820 27389.48903970 0 625.54905348 0 10714.56208225 0 182.44131684 0 1745.44384614 0 5916
0.07350000 0.07351270 27546.65130045 0 196.21214697 0 9707.32612260 0 -1148.67090314 0 1558.93427825 0 5721
0.07450000 0.07449140 26090.48805312 0 379.09378433 0 11294.16585238 0 -42.69445353 0 -662.59476040 0 6028
0.07550000 0.07549160 27117.64380250 0 73.23273339 0 9867.03935865 0 169.79402496 0 966.94718674 0 6183
0.07650000 0.07648840 26198.73813534 0 26.55598559 0 10778.43628548 0 1023.14739080 0 -2111.42007184 0 6330
0.07750000 0.07749960 26322.95954116 0 735.30088376 0 9243.75845495 0 -600.56502323 0 -1147.91670175 0 6583
0.07850000 0.07848650 25576.52198654 0 504.62616963 0 9921.71895961 0 -722.76450385 0 -3373.78683489 0 6549
0.07950000 0.07947320 24701.31563536 0 495.19754310 0 9541.55709301 0 -82.04690760 0 -1867.56901573 0 6828
0.08050000 0.08048110 23759.78392642 0 523.85830514 0 10728.89190871 0 11.29627318 0 -2880.82749533 0 7147
0.08150000 0.08149960 23845.85161474 0 257.44220884 0 9277.10968417 0 564.67280079 0 -1994.51885600 0 7386
0.08250000 0.08250610 23312.69777744 0 94.88873908 0 10251.87061917 0 1266.70342106 0 -2505.01337794 0 7227
0.08350000 0.08350160 23085.55006394 0 489.58983393 0 10343.31753800 0 426.35559277 0 -1754.00625018 0 7798
0.08450000 0.08449610 22023.23522024 0 792.66011790 0 9088.08241459 0 339.24533194 0 93.64885417 0 7371
0.08550000 0.08548940 21313.28770358 0 584.85101540 0 10375.77038027 0 -55.46419223 0 131.58928795 0 8256
0.08650000 0.08650700 20787.67588021 0 262.23804240 0 10269.59435189 0 779.44495673 0 1908.22934374 0 8037
0.08750000 0.08749060 20710.70297339 0 89.80741811 0 9266.89469179 0 1146.02010707 0 314.04169599 0 8155
0.08850000 0.08849210 20190.74766045 0 271.33504214 0 9383.62953967 0 610.33858598 0 1961.12326199 0 8718
0.08950000 0.08949900 19887.07068801 0 6.53261518 0 7780.51902397 0 666.40347744 0 1181.42320773 0 8571
0.09050000 0.09049190 19586.94289859 0 -187.69410772 0 7473.14868294 0 1347.00368697 0 1854.25957939 0 8932
0.09150000 0.09150830 20062.08977585 0 -17.30803466 0 6328.13787479 0 1204.11579668 0 213.65416329 0 9285
0.09250000 0.09250820 19638.73878834 0 132.93575926 0 5605.21365771 0 679.56983733 0 1478.56746517 0 9204
0.09350000 0.09350330 19470.15259473 0 335.98230179 0 4417.41301174 0 75.62665734 0 984.22061687 0 9349
0.09450000 0.09448040 18601.60096171 0 478.96557637 0 4654.80899121 0 -361.63734945 0 827.24025174 0 9564
0.09550000 0.09549270 18289.38376762 0 381.38855298 0 4547.75675827 0 82.30200513 0 1647.76367461 0 10155
0.09650000 0.09649430 17508.45259049 0 256.64364266 0 4691.66503867 0 159.75981908 0 22.11052294 0 9913
0.09750000 0.09749140 17414.39924037 0 390.41013258 0 4309.67312458 0 113.21672021 0 883.16095764 0 10476
0.09850000 0.09850240 16835.21693574 0 96.73631066 0 4304.58226518 0 -69.67146096 0 -302.55121595 0 10575
0.09950000 0.09950330 16700.23706888 0 -31.35592289 0 4420.88455638 0 447.93573467 0 739.24824075 0 10882
0.10050000 0.10051200 16907.97518772 0 268.68424607 0 3893.88633339 0 -126.68143330 0 -434.28579858 0 10875
0.10150000 0.10150300 16750.59110302 0 -3.63513980 0 3721.08548493 0 -203.74085146 0 -561.42086184 0 11118
0.10250000 0.10250800 16614.05846859 0 -136.17993437 0 4141.28657251 0 213.00865563 0 -702.21029766 0 11575
0.10350000 0.10349800 16735.28525123 0 -169.04647829 0 3243.33217639 0 56.18423273 0 -1707.31231103 0 11364
0.10450000 0.10450100 17157.97076693 0 36.22739842 0 3352.20336563 0 61.68147359 0 -1346.91495739 0 12093
0.10550000 0.10551000 16968.64403502 0 6.14686335 0 3240.82556588 0 118.99190646 0 -2531.74316258 0 12067
0.10650000 0.10649700 17051.05162835 0 127.08958935 0 3259.70278308 0 -50.88685525 0 -835.31131576 0 12054
0.10750000 0.10749900 16828.45130560 0 36.22451470 0 3068.32417974 0 301.23136352 0 -881.10686796 0 12807
0.10850000 0.10850100 16734.28704351 0 12.22615913 0 3182.91842661 0 487.51688922 0 -615.27084127 0 12736
0.10950000 0.10950300 16619.71497903 0 270.11722872 0 4154.39636730 0 -449.76467305 0 -1448.62123341 0 12933
0.11050000 0.11050200 16055.83852619 0 750.94945353 0 3991.13394823 0 -1223.46993536 0 -2023.48906243 0 13428
0.11150000 0.11150900 15527.67572751 0 618.11684240 0 5840.23612104 0 -1620.84533962 0 -1611.02963032 0 13453
0.11250000 0.11250000 14788.66927485 0 401.35714397 0 5885.00019192 0 -460.39225796 0 -2506.85451663 0 13668
0.11350000 0.11349100 14979.32695039 0 -241.63170759 0 6581.79354900 0 988.38314308 0 -2070.83738220 0 13791
0.11450000 0.11448600 14893.14835010 0 -99.42470589 0 6024.47199355 0 274.52597950 0 -2176.64740109 0 14205
0.11550000 0.11549300 15043.76680466 0 210.69392283 0 5234.61240288 0 749.27246456 0 -2216.73098686 0 14776
0.11650000 0.11649800 14698.49784366 0 151.54456950 0 5524.97993898 0 428.37529973 0 -1271.01789668 0 14553
0.11750000 0.11747300 14443.51122582 0 137.31234558 0 4793.98133052 0 475.90107865 0 -635.76515499 0 14568
0.11850000 0.11849100 14406.35571605 0 15.86518085 0 4263.65574844 0 1135.25055483 0 453.26505480 0 16015
0.11950000 0.11950300 14131.95950355 0 142.81136103 0 4363.44324738 0 200.71184557 0 276.38264587 0 15270
0.12050000 0.12050700 13696.74093530 0 354.30495915 0 3841.79098132 0 66.58533541 0 759.88008532 0 15999
0.12150000 0.12150000 13611.22780683 0 385.88492422 0 4295.69821643 0 -303.39636516 0 708.66204693 0 15670
0.12250000 0.12250700 13181.99848493 0 73.72751168 0 3909.20327637 0 10.13424848 0 1202.71830587 0 16887
0.12350000 0.12352200 12892.51824458 0 209.52712891 0 4746.02299492 0 96.45880892 0 892.67387726 0 16407
0.12450000 0.12449800 12667.92150638 0 299.47784528 0 4037.26223633 0 9.07655866 0 713.92149252 0 16306
0.12550000 0.12549900 12564.77337476 0 -6.52008213 0 4403.19409725 0 606.67294539 0 1471.55782870 0 17523
0.12650000 0.12650100 12461.73615511 0 36.15708023 0 3897.74606992 0 228.15257594 0 1613.17023133 0 17154
0.12750000 0.12750600 12584.29388139 0 -70.65824475 0 3922.75671904 0 476.33030798 0 1797.48374222 0 18007
0.12850000 0.12850300 12611.68913785 0 -14.93551672 0 3735.90332405 0 124.73160088 0 1507.98131947 0 17496
0.12950000 0.12949900 12596.05055016 0 85.76356770 0 3443.61701088 0 -137.81477680 0 1743.31433632 0 18405
0.13050000 0.13049000 12591.50315941 0 60.74859301 0 3776.27528095 0 3.51639745 0 1368.50951785 0 18100
0.13150000 0.13148800 12537.15629436 0 103.38725782 0 3743.65607072 0 -285.54619279 0 2088.69420929 0 19059
0.13250000 0.13249300 12545.80742798 0 17.67615149 0 4087.78263843 0 310.70990043 0 1074.13473229 0 18957
0.13350000 0.13349100 12613.46372937 0 -32.26085365 0 3650.23491883 0 34.99494461 0 1219.67674600 0 19468
0.13450000 0.13450700 12566.10431840 0 98.20977618 0 4221.14319054 0 -287.19323554 0 1450.31818654 0 19953
0.13550000 0.13551000 12453.19593346 0 210.78708888 0 3870.06244234 0 58.67498283 0 969.09333335 0 19956
0.13650000 0.13649900 12249.67246946 0 192.92804356 0 4654.90881199 0 -674.44681346 0 946.37856200 0 19723
0.13750000 0.13749600 11881.11199488 0 242.28276086 0 4480.31118963 0 17.11416054 0 204.03365906 0 20946
0.13850000 0.13851100 11784.72949339 0 6.87932600 0 4316.98222337 0 382.42114342 0 548.01049561 0 20955
0.13950000 0.13949800 11799.81352124 0 -112.32055149 0 3991.89924082 0 461.85296860 0 61.95110059 0 20506
0.14050000 0.14048300 11714.30039277 0 98.36228014 0 3889.35003383 0 47.92062553 0 -139.51062081 0 21447
0.14150000 0.14148400 11660.28626364 0 245.31509410 0 3892.55538975 0 -506.87768261 0 -677.88064804 0 21771
0.14250000 0.14249400 11326.21941156 0 279.72775087 0 4102.71138953 0 -226.69408354 0 -734.21727382 0 22470
0.14350000 0.14350900 11016.20936566 0 133.56241189 0 3825.67547215 0 172.62338930 0 -526.34495149 0 22519
0.14450000 0.14449900 10996.02338721 0 -79.78419251 0 3634.85142866 0 904.78324609 0 115.24197277 0 22218
0.14550000 0.14550500 11018.70488497 0 -86.71064501 0 3261.86556649 0 983.88566272 0 351.21495168 0 23559
0.14650000 0.14650700 11057.76808062 0 45.08782292 0 2973.31698668 0 465.41878842 0 859.74855000 0 23044
0.14750000 0.14750500 10883.88029487 0 183.81107966 0 2900.30363717 0 212.45742314 0 1560.57577540 0 23649
0.14850000 0.14849900 10627.69582776 0 254.85241436 0 2896.10007353 0 -137.46096762 0 1842.17017472 0 23640
0.14950000 0.14949500 10482.17932380 0 169.51896328 0 3057.62117469 0 -339.13996556 0 1865.41732352 0 24457
0.15050000 0.15050000 10153.43624625 0 183.11455250 0 3394.15027249 0 241.48641291 0 1931.17703023 0 24591
0.15150000 0.15149900 10011.20273659 0 85.04796367 0 3267.16715863 0 41.68615282 0 1906.01110436 0 25020
0.15250000 0.15250500 9914.15476329 0 135.38136819 0 3243.58727392 0 67.54306026 0 1818.03573016 0 25297
0.15350000 0.15350100 9833.44412310 0 200.06190143 0 3102.58488711 0 -94.39562446 0 1344.85199476 0 25452
0.15450000 0.15450400 9290.49675889 0 163.79257829 0 2920.95544589 0 58.58325863 0 1533.23597493 0 26061
0.15550000 0.15549900 9392.81305074 0 19.00731695 0 2760.88729153 0 352.68453528 0 915.59716311 0 26128
0.15650000 0.15649500 9183.32252278 0 47.55993981 0 2313.64586579 0 211.19857229 0 1110.15117614 0 26331
0.15750000 0.15749700 9135.64146710 0 130.98259948 0 2343.25936164 0 130.67204597 0 773.61209626 0 27345
0.15850000 0.15849900 8927.02714370 0 132.04291791 0 1924.03429940 0 -73.71952602 0 858.24680193 0 26980
0.15950000 0.15949700 8826.23034584 0 81.01797726 0 1873.09243181 0 -7.38149103 0 185.76645769 0 27777
0.16050000 0.16050000 8685.56069494 0 62.25755036 0 2123.59820609 0 -277.99197855 0 419.01100215 0 28224
0.16150000 0.16150500 8601.31196292 0 91.99892771 0 2172.08891914 0 -93.44943445 0 -453.73310331 0 28075
0.16250000 0.16249700 8607.24575329 0 112.83074655 0 2288.06956563 0 -422.26737757 0 -368.65696800 0 28590
0.16350000 0.16349900 8491.81966665 0 -41.71044254 0 2273.63991840 0 50.06111563 0 -578.80298570 0 29163
0.16450000 0.16449100 8641.11826877 0 35.00370666 0 2642.74386164 0 4.16782781 0 -467.90765301 0 28996
0.16550000 0.16550500 8650.37941822 0 15.80096282 0 2371.33118112 0 198.95610910 0 -597.07240531 0 30777
0.16650000 0.16650700 8639.62095718 0 52.93817212 0 2482.56479531 0 94.93243839 0 -375.58120226 0 29211
0.16750000 0.16749900 8678.18504897 0 40.28544556 0 2230.81680698 0 10.70167411 0 -80.68357767 0 30922
0.16850000 0.16850800 8470.29165337 0 72.73030216 0 2295.28993484 0 200.14730365 0 -139.04589966 0 30867
0.16950000 0.16949900 8388.52734947 0 132.33017991 0 2721.84627828 0 -166.82269330 0 166.65077975 0 30852
0.17050000 0.17049200 8338.91642552 0 87.22804934 0 2238.62500964 0 142.02388604 0 -237.08431685 0 31257
0.17150000 0.17149500 8170.30804951 0 32.46504259 0 2582.54084461 0 167.46820096 0 251.35092348 0 32608
0.17250000 0.17250900 8235.02518371 0 39.94561128 0 2183.80122312 0 -1.08205496 0 21.94093854 0 32361
0.17350000 0.17350400 8196.69400705 0 62.33529965 0 2362.40276758 0 55.16528447 0 164.89504327 0 32508
0.17450000 0.17449800 8097.78271267 0 137.48425913 0 2299.50458968 0 3.57795359 0 88.10902312 0 32791
0.17550000 0.17549800 7854.71913155 0 14.61975035 0 2130.35274503 0 121.62606573 0 172.41931128 0 33633
0.17650000 0.17650100 8015.21984259 0 0.17042290 0 2301.42336676 0 175.02130608 0 358.08372995 0 33984
0.17750000 0.17750300 7936.59434742 0 58.84068531 0 2035.40100795 0 111.04173649 0 -27.63782094 0 34069
0.17850000 0.17849800 7912.03843738 0 99.12169439 0 2041.27934234 0 -7.81914966 0 232.22082698 0 34536
