### header ###
fiducial parameters:
Omega_m = 0.31
Omega_nu = 0
Omega_de = 0.69
Omega_k = 0
H_0 = 100
w_de = -1
zeff = 0
beta = 0
fgrowth = 0
b_1 = 2
gamma = 0.55
Lx = 3500 Ly = 3500 Lz = 3500
nx = 700 ny = 700 nz = 700
xoffset = 1379.75464 yoffset = 22.6059522 zoffset = 368.141391
bins = 400 dk = 0.001
kx_ny = 0.628318531 ky_ny = 0.628318531 kz_ny = 0.628318531
############################
A(data) = 3.31972478 (not used)
A(ran) = 3.31773279 (used)
Ngal = 186159
weighted Ngal = 0
Nran = 9399747
weighted Nran = 0
SN(data) = 6671.13129
SN(ran) = 131.964092
SN(data+ran) = 6803.09538
############################
13 columns: k_central k_mean P_0(k) sigma^{lin}_{P_0(k)} P^img_1(k) sigma^{lin}_{P_1(k)} P_2(k) sigma^{lin}_{P_2(k)} P^img_3(k) sigma^{lin}_{P_3(k)} P_4(k) sigma^{lin}_{P_4(k)} N_modes
### header ###
0.00050000 0 0 0 0 0 0 0 0 0 0 0 0
0.00150000 0.00179520 39064.63750724 0 -35361.84140608 0 -61820.33537394 0 61038.51690106 0 -365.40170170 0 3
0.00250000 0.00253879 55362.37503887 0 -21250.84426476 0 -1023.87608244 0 -81454.52677153 0 18775.28910592 0 6
0.00350000 0.00331552 61638.10700808 0 1786.70309878 0 -42902.74621118 0 -15385.93023051 0 -30735.14859913 0 7
0.00450000 0.00420575 68535.94421412 0 -4457.33022955 0 -30540.16535678 0 -17274.98289473 0 13939.85997240 0 24
0.00550000 0.00557378 69051.79578418 0 -6618.17267499 0 -40024.69151508 0 -4726.95722736 0 4903.46253560 0 45
0.00650000 0.00659388 74832.74945754 0 -6582.80284792 0 -8918.36491888 0 -11601.83565572 0 -22236.18620164 0 40
0.00750000 0.00754703 69119.00843769 0 -128.24196471 0 -39294.77984392 0 -6662.65946595 0 -9343.30194756 0 57
0.00850000 0.00846663 69950.29364896 0 8293.02105255 0 -26160.36259389 0 -29781.86022143 0 -16304.94680964 0 75
0.00950000 0.00948925 53097.99626992 0 13926.77236001 0 -10812.60826328 0 -32425.22519010 0 -14371.97300551 0 112
0.01050000 0.01054430 35491.38658643 0 8643.44742013 0 3269.34103323 0 -3341.27853664 0 -1477.81326378 0 105
0.01150000 0.01145670 29480.84513625 0 2420.02153572 0 4459.88120485 0 5606.81079007 0 -11386.88825886 0 144
0.01250000 0.01249090 31886.63666629 0 -5365.90999235 0 -5376.94573332 0 10017.28071251 0 4215.27594735 0 169
0.01350000 0.01339930 38276.27522816 0 -8318.46425835 0 -11175.93369291 0 20836.14441087 0 -11895.86328682 0 180
0.01450000 0.01448870 46929.62708717 0 -4280.75837414 0 -15852.75871006 0 -5915.41225396 0 -294.01210342 0 267
0.01550000 0.01550050 51365.10765873 0 1054.54102376 0 -25348.93062516 0 -13343.59722447 0 -4110.07594430 0 238
0.01650000 0.01653350 50030.39301798 0 -845.25790118 0 -3946.20350939 0 -12739.90337458 0 -746.92002168 0 315
0.01750000 0.01747870 50357.02876811 0 -2281.80303935 0 -1602.76668859 0 -6037.40432919 0 -5793.17617239 0 297
0.01850000 0.01844180 64353.23202101 0 -6145.08876036 0 -157.98744581 0 2456.11229059 0 -16406.20943778 0 388
0.01950000 0.01947590 69210.28898857 0 -2947.81832490 0 1591.96386277 0 -13521.38911155 0 -19379.09386778 0 399
0.02050000 0.02045430 67107.28713522 0 4807.52368199 0 15928.28976128 0 -8920.79389102 0 -15075.59853990 0 462
0.02150000 0.02154770 71216.24286863 0 1892.70166802 0 23287.18802446 0 -6228.96039168 0 -11340.85979153 0 571
0.02250000 0.02255340 61825.43732454 0 1011.69351171 0 39055.98637362 0 112.18967537 0 -1454.17792308 0 510
0.02350000 0.02348930 66266.57440655 0 3684.61762937 0 34313.27964659 0 2735.23335299 0 -2690.65783246 0 555
0.02450000 0.02439640 59623.50199441 0 543.62392722 0 33333.15057228 0 7930.80474261 0 -8707.16634660 0 592
0.02550000 0.02547300 62028.40622869 0 -154.51922852 0 28298.41262960 0 11179.37196396 0 6788.94383440 0 837
0.02650000 0.02652900 59242.29755530 0 1606.60424274 0 41048.07625749 0 2032.24001682 0 15061.17998387 0 723
0.02750000 0.02749970 58303.20590969 0 5315.28976948 0 33793.10250972 0 -5796.11533958 0 11376.46253373 0 826
0.02850000 0.02848090 54183.60262721 0 3071.11916137 0 34493.51159700 0 804.70515778 0 12257.54721930 0 831
0.02950000 0.02946900 49303.47596999 0 1261.25764336 0 37017.86802242 0 597.06796883 0 9118.33919986 0 996
0.03050000 0.03053250 52193.28733485 0 -675.34963690 0 33817.94679089 0 7284.94216193 0 13913.35201170 0 1041
0.03150000 0.03150510 50115.57341054 0 -1189.90797339 0 29518.99885376 0 9760.45295598 0 5075.19862914 0 1036
0.03250000 0.03246190 53247.50560478 0 -787.96854159 0 25050.68833923 0 1090.71939909 0 5857.88221539 0 1059
0.03350000 0.03345080 54760.34486852 0 -1023.44463488 0 20296.33585540 0 4604.92078734 0 3113.96445518 0 1302
0.03450000 0.03451200 54053.83562292 0 -210.73717850 0 18121.24122188 0 2424.97930076 0 6650.02659262 0 1339
0.03550000 0.03553350 56342.83684909 0 -1032.74016704 0 16490.39162262 0 -50.83905219 0 -2622.18078250 0 1365
0.03650000 0.03647120 54911.62879489 0 1075.91819676 0 14236.99313865 0 665.93431981 0 -323.72098357 0 1308
0.03750000 0.03744890 52890.59088699 0 2741.68842962 0 14169.00410135 0 -3959.94550241 0 -7350.94587496 0 1579
0.03850000 0.03847530 48929.48080890 0 2458.65217469 0 20561.52637443 0 28.59687674 0 -4298.10500616 0 1662
0.03950000 0.03950240 46746.28960161 0 2080.15398764 0 20470.68947143 0 -694.72041237 0 -2434.56209492 0 1683
0.04050000 0.04050350 44238.01541177 0 1474.91846137 0 21297.42729195 0 2325.02543386 0 -4461.06796292 0 1822
0.04150000 0.04152450 43490.69056140 0 982.40166057 0 22693.80898773 0 374.36671619 0 -1576.99074689 0 1887
0.04250000 0.04250150 42576.33228499 0 74.49158424 0 19650.71728104 0 3264.89346325 0 -455.60640648 0 1920
0.04350000 0.04349210 42307.37075900 0 -53.57569412 0 17378.46376226 0 3856.83064438 0 2891.14230849 0 2005
0.04450000 0.04448520 42470.07861823 0 -678.16014620 0 12234.14479374 0 2793.37340739 0 -633.33285550 0 2151
0.04550000 0.04548030 44034.82468368 0 -1311.70040708 0 12796.57939098 0 4470.66184828 0 2960.62865737 0 2274
0.04650000 0.04648670 43500.56172668 0 229.57668563 0 8590.20967478 0 778.92145224 0 -2073.53254306 0 2311
0.04750000 0.04749250 42831.42981480 0 1758.20981382 0 8991.81082508 0 -3215.42672487 0 1499.27472987 0 2568
0.04850000 0.04851840 40728.87160932 0 1683.68806153 0 11800.58990503 0 -4351.19856595 0 -3512.70407667 0 2493
0.04950000 0.04949480 38608.12384085 0 1903.18284913 0 12616.68017648 0 -1903.18284913 0 -6817.06001866 0 2644
0.05050000 0.05050630 36927.36385532 0 1512.08506235 0 14002.96888304 0 -1581.21649292 0 -10647.48252311 0 2829
0.05150000 0.05149060 36028.31143070 0 110.07968606 0 16120.27838046 0 -931.69603548 0 -6388.67362774 0 2784
0.05250000 0.05249300 34224.43915904 0 858.95552942 0 16014.57927354 0 2531.48806505 0 -5872.02349149 0 3055
0.05350000 0.05348950 35096.42906311 0 175.46717220 0 14593.02056068 0 1220.32003543 0 -8150.51026296 0 3009
0.05450000 0.05448610 34072.15702494 0 -191.00150265 0 11880.11378715 0 2346.69763270 0 -6417.31109826 0 3336
0.05550000 0.05550870 34548.41302190 0 167.43049089 0 13267.28978946 0 -840.49755945 0 -3702.60755082 0 3349
0.05650000 0.05647670 34228.43198994 0 106.76752192 0 14350.23425949 0 400.19145917 0 -4240.00931655 0 3324
0.05750000 0.05747970 33714.68774730 0 798.61941802 0 11142.66010206 0 1307.26392830 0 -3636.68147616 0 3639
0.05850000 0.05849280 34022.69028655 0 -664.01665185 0 12458.29788406 0 2550.21000550 0 -2717.07706359 0 3846
0.05950000 0.05951020 33801.30999546 0 -411.52777157 0 8883.02836541 0 2017.53308967 0 -1188.41066181 0 3787
0.06050000 0.06049470 34494.28798079 0 508.85080655 0 9394.28817993 0 2094.18435178 0 -1275.88693214 0 3930
0.06150000 0.06148310 32981.44871705 0 284.74873573 0 8689.14315156 0 -472.64026675 0 -1216.00555981 0 4083
0.06250000 0.06249100 31745.88937702 0 1320.58445584 0 7697.67887396 0 -585.50761426 0 -1582.74707810 0 4303
0.06350000 0.06350600 31396.51667315 0 324.22896039 0 8700.56708441 0 102.61519961 0 -351.86600494 0 4470
0.06450000 0.06451750 30108.60688352 0 274.68902010 0 8399.25253692 0 544.17405059 0 -2128.57815352 0 4479
0.06550000 0.06550280 30475.06003069 0 563.63910123 0 7643.27655293 0 1437.08638858 0 -1705.59317550 0 4636
0.06650000 0.06648880 28852.52882914 0 280.53297177 0 5891.88782523 0 1026.49249580 0 -187.56212247 0 4653
0.06750000 0.06749660 29608.72663707 0 173.01823591 0 5347.53187901 0 1631.44852390 0 915.79569554 0 5220
0.06850000 0.06852730 27980.64983704 0 592.37750165 0 5308.12485625 0 874.10166797 0 2970.97674413 0 5029
0.06950000 0.06949320 27712.35378286 0 621.13586621 0 5366.33145784 0 131.84771284 0 2081.28528973 0 5040
0.07050000 0.07048030 26845.79856529 0 902.86668725 0 7594.30891840 0 -1298.26896758 0 3902.53746700 0 5475
0.07150000 0.07148790 25971.03586199 0 1050.30862300 0 8018.24773935 0 -845.73260441 0 4027.82362773 0 5509
0.07250000 0.07249820 24734.03466635 0 604.93495483 0 8865.17153832 0 406.52675086 0 4957.04410805 0 5916
0.07350000 0.07351270 24043.05309648 0 -228.15257594 0 8658.15434728 0 1845.41989543 0 4918.75729619 0 5721
0.07450000 0.07449140 24827.31163269 0 -214.48156658 0 8436.09749318 0 2098.75392492 0 6607.66931148 0 6028
0.07550000 0.07549160 24508.32880846 0 486.59410163 0 8605.13842587 0 -543.50303317 0 7990.89684768 0 6183
0.07650000 0.07648840 23937.24307759 0 702.81698614 0 8499.41713656 0 -1031.47244323 0 4519.94003632 0 6330
0.07750000 0.07749960 22921.84399698 0 943.05896675 0 10340.21200286 0 -1776.08882330 0 5593.60117450 0 6583
0.07850000 0.07848650 22268.79432067 0 312.54882088 0 11217.52568146 0 -1226.49783213 0 3715.27369773 0 6549
0.07950000 0.07947320 22369.72421290 0 -156.52229869 0 11287.62204618 0 1323.04670156 0 5066.35894518 0 6828
0.08050000 0.08048110 22321.36659421 0 -421.81152938 0 9892.07219017 0 1470.06051711 0 1423.02275085 0 7147
0.08150000 0.08149960 23309.59224229 0 -435.39159092 0 8861.93290881 0 806.43094803 0 2779.79778233 0 7386
0.08250000 0.08250610 22998.04052002 0 88.04047952 0 7223.50802203 0 1691.61826735 0 1409.69113212 0 7227
0.08350000 0.08350160 23087.76830333 0 19.14185317 0 6388.06361190 0 -353.65501501 0 3120.92972687 0 7798
0.08450000 0.08449610 22976.96724582 0 -85.40831666 0 6526.35974665 0 898.51228333 0 3813.46406431 0 7371
0.08550000 0.08548940 23293.95365460 0 -38.26196758 0 5007.97488444 0 1167.34847880 0 1703.24184175 0 8256
0.08650000 0.08650700 23185.03810056 0 -35.41851742 0 4837.51427854 0 297.50139398 0 1593.88263984 0 8037
0.08750000 0.08749060 22900.32707490 0 279.35730489 0 5337.64962253 0 -979.00220870 0 1258.24083779 0 8155
0.08850000 0.08849210 22378.15352258 0 847.45506730 0 5623.82468619 0 -1857.20983778 0 -601.04305382 0 8718
0.08950000 0.08949900 21790.32008433 0 440.29944557 0 6776.85442973 0 -810.28846633 0 -950.59543508 0 8571
0.09050000 0.09049190 21340.12840020 0 288.40439424 0 7215.42253945 0 -187.44233754 0 -1169.52235340 0 8932
0.09150000 0.09150830 20937.40703901 0 289.24177961 0 6877.52922443 0 859.37477666 0 -2254.69615401 0 9285
0.09250000 0.09250820 20427.54471530 0 586.33723579 0 7379.37261274 0 231.03295979 0 -1173.93664979 0 9204
0.09350000 0.09350330 19648.60995362 0 455.82490306 0 5743.46542767 0 1015.57210328 0 -541.64303945 0 9349
0.09450000 0.09448040 19099.15205681 0 219.41271275 0 6284.60492677 0 394.00478951 0 -517.29009831 0 9564
0.09550000 0.09549270 18474.38493272 0 588.14953737 0 6195.73116563 0 -132.27694216 0 49.28428820 0 10155
0.09650000 0.09649430 18142.64723199 0 271.91732998 0 5895.83629134 0 631.11905259 0 799.67640909 0 9913
0.09750000 0.09749140 17639.88327433 0 -7.20784725 0 5710.67984949 0 451.41171579 0 915.32986526 0 10476
0.09850000 0.09850240 17707.09592784 0 271.15869211 0 5483.73177753 0 -55.84473119 0 295.69131064 0 10575
0.09950000 0.09950330 17103.73481385 0 407.29093433 0 5823.06694816 0 -178.95979012 0 801.70942549 0 10882
0.10050000 0.10051200 16697.35335767 0 354.31605035 0 6623.26353439 0 -639.81898747 0 776.46807947 0 10875
0.10150000 0.10150300 16446.91413058 0 315.98265546 0 6785.79393447 0 -298.43416364 0 -28.15966176 0 11118
0.10250000 0.10250800 16432.82831046 0 38.63407724 0 7579.60199125 0 -132.88030328 0 862.73873669 0 11575
0.10350000 0.10349800 16337.88766458 0 136.08676832 0 7821.20153437 0 27.83812796 0 -125.75531836 0 11364
0.10450000 0.10450100 16320.36357340 0 47.78875120 0 7637.96386959 0 413.01953756 0 734.08196122 0 12093
0.10550000 0.10551000 16084.23199037 0 34.99050813 0 7306.59217837 0 466.84178899 0 705.25372211 0 12067
0.10650000 0.10649700 16276.99699333 0 -42.15630866 0 7154.52077701 0 618.02589459 0 1192.05966560 0 12054
0.10750000 0.10749900 16223.98107192 0 98.09220949 0 6999.96494754 0 481.62857276 0 1265.31702144 0 12807
0.10850000 0.10850100 15527.78663948 0 506.22219287 0 6704.38454887 0 -133.10101810 0 1483.80251013 0 12736
0.10950000 0.10950300 15524.68110434 0 241.23020626 0 7532.25367148 0 50.44842023 0 1655.47205649 0 12933
0.11050000 0.11050200 15167.10091472 0 62.53704852 0 6129.27271351 0 622.04201700 0 1058.53718202 0 13428
0.11150000 0.11150900 15045.87413208 0 -140.79941790 0 5494.47914738 0 1395.59422080 0 1946.26105808 0 13453
0.11250000 0.11250000 14721.78935725 0 -117.04429227 0 4568.79675888 0 859.76629591 0 660.63716414 0 13668
0.11350000 0.11349100 15154.56786217 0 60.73428537 0 3340.14723455 0 966.43255520 0 1628.38735354 0 13791
0.11450000 0.11448600 14735.09879359 0 27.38982178 0 3001.02279666 0 160.36428932 0 857.17428319 0 14205
0.11550000 0.11549300 14563.62888877 0 235.68128043 0 2575.22065462 0 72.69181571 0 1635.14189249 0 14776
0.11650000 0.11649800 14382.62055458 0 98.61227571 0 2349.43715835 0 -401.13421091 0 -41.40743104 0 14553
0.11750000 0.11747300 14054.98659673 0 139.42521860 0 2575.93049122 0 48.89365624 0 15.71056957 0 14568
0.11850000 0.11849100 14057.75939596 0 195.61100410 0 2360.00706904 0 -423.40533438 0 -97.40954632 0 16015
0.11950000 0.11950300 13844.03203077 0 75.72703267 0 2718.44128081 0 -39.67786979 0 -487.32944799 0 15270
0.12050000 0.12050700 13781.69950392 0 237.57565687 0 2859.33275565 0 97.01192691 0 -407.22660539 0 15999
0.12150000 0.12150000 13615.77519758 0 92.44878666 0 3300.16346955 0 25.56287981 0 -495.61679035 0 15670
0.12250000 0.12250700 13309.87998575 0 352.62575193 0 3002.18737234 0 -419.09085877 0 328.26061048 0 16887
0.12350000 0.12352200 13140.29558441 0 234.91044224 0 3950.05215473 0 -83.77580338 0 120.32174097 0 16407
0.12450000 0.12449800 12723.26657915 0 47.36029826 0 3964.83672026 0 273.32147551 0 689.12379439 0 16306
0.12550000 0.12549900 12725.81755445 0 -111.34452616 0 3776.94075276 0 428.97755173 0 441.33758160 0 17523
0.12650000 0.12650100 13209.50465336 0 -104.60618037 0 3448.28640479 0 673.02714025 0 1068.24197935 0 17154
0.12750000 0.12750600 13035.70559718 0 -70.09802839 0 2767.23145619 0 276.59337861 0 580.11063782 0 18007
0.12850000 0.12850300 12977.25498927 0 195.74853494 0 2999.50330268 0 -353.78921849 0 292.33511444 0 17496
0.12950000 0.12949900 12952.52162007 0 414.72425453 0 3393.73989820 0 -641.05676505 0 352.68342616 0 18405
0.13050000 0.13049000 12299.58285573 0 311.15243919 0 3333.34833082 0 -646.43710469 0 -782.18448238 0 18100
0.13150000 0.13148800 11819.44493984 0 369.65628485 0 4295.95331396 0 -346.62985086 0 -529.46490520 0 19059
0.13250000 0.13249300 11635.44198247 0 336.42927703 0 4598.72080825 0 -319.28228655 0 -1000.33390780 0 18957
0.13350000 0.13349100 11188.46674546 0 74.79825584 0 4478.96915480 0 605.71466598 0 -537.58255224 0 19468
0.13450000 0.13450700 11268.76701136 0 -67.73804351 0 3941.98885455 0 636.16887456 0 -171.41888531 0 19953
0.13550000 0.13551000 11328.88129882 0 -157.58372624 0 3524.02818875 0 765.10625732 0 313.18434647 0 19956
0.13650000 0.13649900 11402.74867050 0 94.58506210 0 3245.49495979 0 273.61982871 0 586.59566068 0 19723
0.13750000 0.13749600 11310.69173583 0 57.30644004 0 3157.02048174 0 137.89685166 0 633.05113909 0 20946
0.13850000 0.13851100 11340.30523168 0 -74.67015251 0 2675.08579194 0 243.72239822 0 1216.29393093 0 20955
0.13950000 0.13949800 11272.64893030 0 148.76622467 0 2968.82505192 0 -193.55469618 0 784.74654887 0 20506
0.14050000 0.14048300 11187.35762576 0 145.83593043 0 2860.76352005 0 -92.50890095 0 995.79317176 0 21447
0.14150000 0.14148400 11025.06014082 0 154.94623961 0 3649.61381180 0 -293.08820672 0 832.13146960 0 21771
0.14250000 0.14249400 10927.89016436 0 79.33355718 0 2786.29722374 0 82.09260333 0 395.80821813 0 22470
0.14350000 0.14350900 10908.74675842 0 -40.35953475 0 3407.94772149 0 362.64332102 0 623.42398014 0 22519
0.14450000 0.14449900 10947.25539423 0 22.59909017 0 2684.45785336 0 166.13614821 0 307.18955452 0 22218
0.14550000 0.14550500 10889.03770145 0 47.26480306 0 2877.06757957 0 205.09730485 0 640.24599855 0 23559
0.14650000 0.14650700 10664.15259213 0 287.28307423 0 2766.58816676 0 -51.10324450 0 418.28896523 0 23044
0.14750000 0.14750500 10436.96051384 0 206.76209351 0 2921.83165045 0 -136.32966553 0 911.39359947 0 23649
0.14850000 0.14849900 10192.92090739 0 181.41759936 0 3159.98183132 0 98.88112633 0 97.81337680 0 23640
0.14950000 0.14949500 9869.74561071 0 208.55664917 0 3052.14212339 0 -148.48007179 0 474.08212235 0 24457
0.15050000 0.15050000 9663.26079712 0 132.23701385 0 3126.89679082 0 50.13997404 0 588.30481413 0 24591
0.15150000 0.15149900 9531.40864780 0 50.89051534 0 3038.48885995 0 264.55277521 0 674.08745868 0 25020
0.15250000 0.15250500 9515.18222667 0 59.79375187 0 3031.03557560 0 126.85001950 0 318.51033924 0 25297
0.15350000 0.15350100 9324.03653846 0 234.94704319 0 2810.87531618 0 -55.83641280 0 18.07565640 0 25452
0.15450000 0.15450400 8984.26881115 0 288.58961723 0 2803.25566388 0 -293.82798955 0 298.45412780 0 26061
0.15550000 0.15549900 8802.19572205 0 150.03505760 0 3325.02993311 0 -243.61370449 0 115.97953737 0 26128
0.15650000 0.15649500 8615.45323903 0 20.27603896 0 3179.49124675 0 77.60233225 0 -593.31581691 0 26331
0.15750000 0.15749700 8551.30175588 0 68.96162435 0 3331.62919529 0 126.36311595 0 -682.46685798 0 27345
0.15850000 0.15849900 8570.27879386 0 0.93755441 0 2650.59642908 0 124.44877536 0 -359.44905630 0 26980
0.15950000 0.15949700 8609.54163106 0 -80.84817103 0 2731.91708510 0 494.26477344 0 -100.23946522 0 27777
0.16050000 0.16050000 8697.94956193 0 -37.96505624 0 2495.73004609 0 311.17351246 0 -221.69971756 0 28224
0.16150000 0.16150500 8902.58214563 0 -13.53591858 0 2135.13305091 0 32.60811903 0 306.65163146 0 28075
0.16250000 0.16249700 8707.83181841 0 -10.72073988 0 2232.99068159 0 217.46398944 0 160.34099780 0 28590
0.16350000 0.16349900 8905.03330015 0 -64.32151120 0 2225.71485639 0 141.40166989 0 479.06096066 0 29163
0.16450000 0.16449100 8824.28938637 0 67.58886691 0 2269.81345545 0 -121.12807099 0 -47.69447603 0 28996
0.16550000 0.16550500 8808.78389304 0 175.01354224 0 2241.34235289 0 -226.44564073 0 464.27306777 0 30777
0.16650000 0.16650700 8534.07712702 0 238.03483242 0 2674.67541765 0 -236.14821982 0 52.65290654 0 29211
0.16750000 0.16749900 8348.11102779 0 146.76537274 0 2633.27197945 0 82.47990793 0 301.16037985 0 30922
0.16850000 0.16850800 8188.46433892 0 109.34323059 0 2746.29127635 0 25.48723785 0 215.67719762 0 30867
0.16950000 0.16949900 8014.52109718 0 90.64613442 0 2783.79061323 0 255.94711550 0 429.02080739 0 30852
0.17050000 0.17049200 7949.92596615 0 24.31001821 0 2446.04148376 0 313.53039181 0 705.52101995 0 31257
0.17150000 0.17149500 7844.52632155 0 23.37303389 0 2208.37931556 0 266.90743632 0 270.29468787 0 32608
0.17250000 0.17250900 7938.87913399 0 139.55276736 0 2261.12904824 0 16.95932743 0 918.12262866 0 32361
0.17350000 0.17350400 7790.95584029 0 2.36387790 0 2113.54958165 0 -81.34860584 0 469.90406846 0 32508
0.17450000 0.17449800 7736.57570166 0 -42.07989031 0 2053.65711813 0 243.60483153 0 797.46704265 0 32791
0.17550000 0.17549800 7897.64206374 0 -138.24067876 0 1834.50615763 0 236.49648341 0 366.65167959 0 33633
0.17650000 0.17650100 7924.87095225 0 115.23420893 0 1604.61891848 0 7.03202960 0 566.94316880 0 33984
0.17750000 0.17750300 7977.97560324 0 40.35276912 0 1713.91157321 0 256.97859681 0 812.26380850 0 34069
0.17850000 0.17849800 7708.60370295 0 16.55882431 0 1468.16392243 0 203.17298218 0 763.72873066 0 34536
