### header ###
fiducial parameters:
Omega_m = 0.31
Omega_nu = 0
Omega_de = 0.69
Omega_k = 0
H_0 = 100
w_de = -1
zeff = 0
beta = 0
fgrowth = 0
b_1 = 2
gamma = 0.55
Lx = 3500 Ly = 3500 Lz = 3500
nx = 700 ny = 700 nz = 700
xoffset = 1379.75464 yoffset = 22.6059522 zoffset = 368.141391
bins = 400 dk = 0.001
kx_ny = 0.628318531 ky_ny = 0.628318531 kz_ny = 0.628318531
############################
A(data) = 3.39542276 (not used)
A(ran) = 3.39829057 (used)
Ngal = 190592
weighted Ngal = 0
Nran = 9399747
weighted Nran = 0
SN(data) = 6571.0734
SN(ran) = 135.168309
SN(data+ran) = 6706.24171
############################
13 columns: k_central k_mean P_0(k) sigma^{lin}_{P_0(k)} P^img_1(k) sigma^{lin}_{P_1(k)} P_2(k) sigma^{lin}_{P_2(k)} P^img_3(k) sigma^{lin}_{P_3(k)} P_4(k) sigma^{lin}_{P_4(k)} N_modes
### header ###
0.00050000 0 0 0 0 0 0 0 0 0 0 0 0
0.00150000 0.00179520 39013.17435340 0 -21129.95021803 0 -1710.44002857 0 10991.02125739 0 122810.60556828 0 3
0.00250000 0.00253879 54430.27084734 0 -25952.06991521 0 -21696.37764617 0 -34643.35366777 0 -41600.19604158 0 6
0.00350000 0.00331552 80839.96354863 0 -30294.60625634 0 -52489.86594125 0 7081.67379546 0 20137.50991510 0 7
0.00450000 0.00420575 101370.76730752 0 -24048.82051889 0 -58194.73400354 0 -19048.57619872 0 -42095.30707335 0 24
0.00550000 0.00557378 119227.03983431 0 7370.15582808 0 -23889.66184269 0 -69864.11504867 0 -5916.58792083 0 45
0.00650000 0.00659388 103229.43009210 0 19455.17947885 0 3409.64467463 0 -54660.74591993 0 -56514.41766588 0 40
0.00750000 0.00754703 83965.13011273 0 18249.12272270 0 50916.35783021 0 -22777.43661272 0 20153.48123871 0 57
0.00850000 0.00846663 71882.38015734 0 4949.67955328 0 44354.47297973 0 13036.14924506 0 -33502.62406165 0 75
0.00950000 0.00948925 74839.84782358 0 -4074.11828379 0 45230.01206682 0 34167.65223066 0 -6837.54545943 0 112
0.01050000 0.01054430 79224.41980115 0 -2977.67582708 0 34544.08745509 0 12149.62987299 0 2959.79681760 0 105
0.01150000 0.01145670 77650.57895420 0 2808.20233771 0 12415.26403990 0 9975.36707925 0 -5104.95631056 0 144
0.01250000 0.01249090 74402.41101594 0 6216.95971658 0 25459.62077071 0 -10829.65543299 0 2028.30264191 0 169
0.01350000 0.01339930 61769.20495601 0 4175.45855031 0 21922.19441604 0 -12180.01975263 0 -4728.63199810 0 180
0.01450000 0.01448870 61498.91248638 0 5337.27252183 0 34897.34207789 0 -1244.28811203 0 545.84105749 0 267
0.01550000 0.01550050 50850.91976821 0 1746.74151618 0 25164.48401991 0 -350.08808607 0 -30257.11801066 0 238
0.01650000 0.01653350 57199.07725350 0 -616.34003265 0 31496.11562175 0 7253.90899286 0 -6639.10176363 0 315
0.01750000 0.01747870 57365.22338378 0 1669.09204634 0 37952.52318924 0 1799.44688408 0 -10049.72246359 0 297
0.01850000 0.01844180 53204.58267259 0 1499.23036508 0 26219.36776166 0 -291.73064421 0 -8952.22634317 0 388
0.01950000 0.01947590 57840.81390892 0 -1104.63996037 0 37162.05358275 0 1059.55202654 0 -1778.08523875 0 399
0.02050000 0.02045430 59329.25253937 0 -2795.03708694 0 30250.57420446 0 6950.32075000 0 4349.76780155 0 462
0.02150000 0.02154770 63483.90400421 0 -294.72748562 0 34355.98075484 0 7937.98074704 0 8350.48454394 0 571
0.02250000 0.02255340 68123.46259962 0 -284.65556968 0 35039.08757489 0 4038.00534653 0 13542.12964984 0 510
0.02350000 0.02348930 64634.06112774 0 770.65407403 0 36667.82984673 0 8223.67888923 0 16461.99815843 0 555
0.02450000 0.02439640 64987.87031038 0 1965.13827529 0 34079.36630296 0 5521.03147287 0 23389.67068426 0 592
0.02550000 0.02547300 66106.30661064 0 -1938.39739944 0 29111.50827788 0 8385.86546220 0 27406.01492315 0 837
0.02650000 0.02652900 62451.53539227 0 1936.53407836 0 35638.89950585 0 1802.91842872 0 18804.68077783 0 723
0.02750000 0.02749970 64404.36243894 0 3925.40751511 0 32402.15550045 0 -6597.76487260 0 23345.41680844 0 826
0.02850000 0.02848090 59627.27300137 0 2131.11803762 0 35879.91121553 0 5033.72864375 0 9982.86472838 0 831
0.02950000 0.02946900 55672.92855342 0 849.18973050 0 33286.01298525 0 5137.08750811 0 18733.25346949 0 996
0.03050000 0.03053250 57255.64235793 0 528.92920038 0 30855.70990996 0 4029.66476643 0 20155.25583022 0 1041
0.03150000 0.03150510 54917.61804125 0 668.34221866 0 27016.60299830 0 10683.42909242 0 14056.65027627 0 1036
0.03250000 0.03246190 54815.02446948 0 2068.96296992 0 24067.45372977 0 2588.59663814 0 26063.98009241 0 1059
0.03350000 0.03345080 51960.59402288 0 1146.08665425 0 24979.92650270 0 4358.66294150 0 21123.07367592 0 1302
0.03450000 0.03451200 51131.08340312 0 -914.88954475 0 21308.40757693 0 5024.90005098 0 26851.67689968 0 1339
0.03550000 0.03553350 52844.11877178 0 -1142.48201524 0 16749.48198333 0 5260.31070621 0 19139.96766158 0 1365
0.03650000 0.03647120 53057.40248909 0 -347.31085036 0 17084.87977904 0 1899.72239569 0 23306.26488321 0 1308
0.03750000 0.03744890 54456.44607214 0 351.01198278 0 15422.75300438 0 6.43011034 0 14927.19832473 0 1579
0.03850000 0.03847530 52489.97685322 0 1327.42772435 0 17472.51711238 0 99.42437316 0 16773.43896874 0 1662
0.03950000 0.03950240 50259.53714693 0 1315.73760277 0 13341.93354493 0 -3702.19717653 0 7832.80292638 0 1683
0.04050000 0.04050350 50633.53230803 0 1062.52224908 0 17688.68454090 0 2567.27935761 0 9556.54130009 0 1822
0.04150000 0.04152450 48019.00445142 0 1059.15939817 0 17120.03887337 0 -548.68927687 0 9100.59328474 0 1887
0.04250000 0.04250150 45645.59921647 0 1675.97967965 0 15478.76354897 0 3167.69021320 0 4191.71824504 0 1920
0.04350000 0.04349210 45822.61471976 0 918.85021118 0 15526.89934373 0 -1780.21474857 0 6727.52078570 0 2005
0.04450000 0.04448520 42760.44615433 0 804.36243980 0 11185.91577016 0 4258.89762495 0 1336.24522593 0 2151
0.04550000 0.04548030 40724.98969039 0 1598.26366263 0 14050.77194189 0 -1695.62218944 0 3281.49698509 0 2274
0.04650000 0.04648670 40340.67971614 0 -507.60859249 0 9230.01646193 0 2263.24746686 0 3587.08164340 0 2311
0.04750000 0.04749250 40504.82943097 0 -573.69992598 0 10417.55091918 0 4329.48200233 0 56.91425532 0 2568
0.04850000 0.04851840 42088.98509108 0 -777.71029353 0 4191.09713801 0 820.01211869 0 -1133.94179359 0 2493
0.04950000 0.04949480 40290.65841790 0 354.41365288 0 4743.82693792 0 -50.81897712 0 -2238.54737126 0 2644
0.05050000 0.05050630 40163.44238890 0 2678.47969821 0 6575.46047554 0 -4976.24296997 0 -1882.71959076 0 2829
0.05150000 0.05149060 37650.73172028 0 1488.77136636 0 9505.56615891 0 -4922.86103906 0 -6653.20976615 0 2784
0.05250000 0.05249300 35473.75158329 0 1887.56644383 0 13961.37689448 0 -1786.91383153 0 -5176.68308122 0 3055
0.05350000 0.05348950 35753.58248229 0 -543.07158561 0 14239.10046607 0 1992.61117013 0 -6796.95167860 0 3009
0.05450000 0.05448610 35475.08252692 0 -786.33037180 0 12317.77241873 0 3400.19497483 0 -4379.54766535 0 3336
0.05550000 0.05550870 37668.25581146 0 -549.38580403 0 10721.82681626 0 1149.21437179 0 -6047.27549447 0 3349
0.05650000 0.05647670 36902.29775022 0 489.94918871 0 11318.78830960 0 -502.69408312 0 -3748.23673506 0 3324
0.05750000 0.05747970 35592.64921457 0 1211.56908103 0 11012.19435236 0 -392.49860496 0 -2483.54082065 0 3639
0.05850000 0.05849280 35346.42464232 0 902.83563190 0 11484.49079201 0 -530.56515193 0 -2782.09366010 0 3846
0.05950000 0.05951020 33459.36839355 0 314.35224950 0 14087.92745166 0 350.83119627 0 -3506.51518877 0 3787
0.06050000 0.06049470 33778.90577763 0 636.39735321 0 11538.28309721 0 632.54427139 0 -3163.61974392 0 3930
0.06150000 0.06148310 32014.96181498 0 980.34868001 0 13669.12385490 0 -570.95485474 0 -3156.08882119 0 4083
0.06250000 0.06249100 31820.75495642 0 297.70325377 0 12784.26816237 0 270.85257507 0 -1466.25623656 0 4303
0.06350000 0.06350600 31369.12141669 0 -52.16112286 0 11584.20065257 0 2134.02393122 0 -958.14299460 0 4470
0.06450000 0.06451750 31739.67830673 0 -371.74919371 0 10048.56897910 0 2138.44931880 0 -2231.49337000 0 4479
0.06550000 0.06550280 31922.12849653 0 -60.43959227 0 9790.84283562 0 809.54535613 0 -878.12000862 0 4636
0.06650000 0.06648880 31347.38267067 0 1117.71537246 0 8510.73015745 0 -745.02564524 0 -2688.39522828 0 4653
0.06750000 0.06749660 29991.26201981 0 825.07857746 0 9649.89590480 0 -1251.14247174 0 -2018.42038543 0 5220
0.06850000 0.06852730 28350.43034329 0 994.79829140 0 9736.34069382 0 -783.56977288 0 -2456.55593847 0 5029
0.06950000 0.06949320 28224.76708187 0 138.22958757 0 11294.05494041 0 206.27851732 0 -3800.14353678 0 5040
0.07050000 0.07048030 28008.37782941 0 -143.92713544 0 9805.36121242 0 659.72768599 0 -3967.47642514 0 5475
0.07150000 0.07148790 27588.46511295 0 204.11129744 0 8601.96634354 0 693.51812662 0 -6648.22981872 0 5509
0.07250000 0.07249820 27281.23895748 0 646.97059126 0 9207.76752085 0 -514.69253998 0 -4224.37072885 0 5916
0.07350000 0.07351270 26324.17957282 0 622.04423524 0 9016.48873829 0 -183.28313869 0 -5537.57953872 0 5721
0.07450000 0.07449140 26450.61921803 0 216.34377855 0 8942.48827225 0 873.94860945 0 -3139.79585288 0 6028
0.07550000 0.07549160 25476.36847810 0 493.82334380 0 8060.57174691 0 1039.27953676 0 -4119.23727298 0 6183
0.07650000 0.07648840 24809.23298166 0 564.22804379 0 8781.28881580 0 321.10567933 0 -1192.39240151 0 6330
0.07750000 0.07749960 23665.50875236 0 922.98833676 0 9108.19075465 0 -575.43680743 0 -2482.98626080 0 6583
0.07850000 0.07848650 22688.81794910 0 882.95244313 0 9569.19635581 0 69.35147993 0 -97.58622908 0 6549
0.07950000 0.07947320 22201.47075520 0 329.32869274 0 10111.43388341 0 480.35641247 0 -207.77361067 0 6828
0.08050000 0.08048110 21698.37406162 0 -246.85677048 0 9318.86804068 0 1559.98794196 0 865.13443524 0 7147
0.08150000 0.08149960 22254.70850055 0 -531.96153363 0 8752.91753401 0 2219.86979560 0 1864.90712846 0 7386
0.08250000 0.08250610 22655.87709416 0 -320.62099402 0 5602.69595600 0 1948.05783199 0 1226.89711522 0 7227
0.08350000 0.08350160 22993.82586518 0 276.13753042 0 7017.51122111 0 -404.24307341 0 1806.95562441 0 7798
0.08450000 0.08449610 22008.04028042 0 724.31172582 0 6150.85618277 0 -1619.47003120 0 2360.88327360 0 7371
0.08550000 0.08548940 21225.00177587 0 642.41210932 0 7284.75361158 0 -241.11374870 0 731.43781986 0 8256
0.08650000 0.08650700 21156.90182661 0 -129.50968853 0 7091.54496074 0 302.69761975 0 1023.98255793 0 8037
0.08750000 0.08749060 21223.44900830 0 -129.53741652 0 7245.62386874 0 595.57842108 0 -1833.13084921 0 8155
0.08850000 0.08849210 21164.00019266 0 260.34255685 0 7100.99466054 0 -649.34743477 0 -2.70659588 0 8718
0.08950000 0.08949900 20531.91287858 0 258.20195583 0 6352.70487603 0 86.27520461 0 -890.58762311 0 8571
0.09050000 0.09049190 20416.67534229 0 143.30935577 0 7085.38934643 0 68.93400727 0 -128.38060468 0 8932
0.09150000 0.09150830 20611.99132055 0 326.05678964 0 7025.96271318 0 891.24311285 0 -1087.22456293 0 9285
0.09250000 0.09250820 19747.76525434 0 363.33097523 0 7122.01247876 0 95.30166434 0 7.89805244 0 9204
0.09350000 0.09350330 19354.80414647 0 526.87178335 0 7671.96947943 0 -7.31658535 0 1790.18573462 0 9349
0.09450000 0.09448040 18851.59654092 0 300.66793071 0 7347.62960708 0 311.14911183 0 837.79019828 0 9564
0.09550000 0.09549270 18801.57524269 0 -85.71143907 0 8024.51426563 0 280.21021794 0 2912.24885629 0 10155
0.09650000 0.09649430 18889.19569858 0 172.88403243 0 7305.71597381 0 674.94591733 0 1116.57297917 0 9913
0.09750000 0.09749140 18297.14760548 0 344.13322243 0 7700.47385559 0 -483.63718853 0 2712.48530805 0 10476
0.09850000 0.09850240 18169.04428073 0 420.63918986 0 8162.74385320 0 223.84253681 0 1772.45091070 0 10575
0.09950000 0.09950330 17656.52006975 0 341.63326664 0 8626.51116239 0 -331.62900699 0 1827.48542996 0 10882
0.10050000 0.10051200 16974.07872153 0 251.68920499 0 8088.75447835 0 259.50960796 0 1707.35667582 0 10875
0.10150000 0.10150300 17027.20555491 0 222.84321996 0 7834.04514044 0 290.09358354 0 766.25419620 0 11118
0.10250000 0.10250800 16586.66321213 0 128.58357358 0 7943.33779517 0 209.86873777 0 1477.32525111 0 11575
0.10350000 0.10349800 16248.15988127 0 406.36703763 0 7493.65630610 0 139.16346635 0 -86.79094527 0 11364
0.10450000 0.10450100 15913.87120525 0 141.44159820 0 7831.63835070 0 300.89197289 0 1161.42577963 0 12093
0.10550000 0.10551000 15623.28184521 0 -61.20100294 0 6629.77406700 0 427.14639511 0 158.86919597 0 12067
0.10650000 0.10649700 16050.84748756 0 -9.25237631 0 6778.29628533 0 342.97086499 0 193.98281639 0 12054
0.10750000 0.10749900 15712.12233276 0 249.25468726 0 6203.88319538 0 -337.95764397 0 -180.42826459 0 12807
0.10850000 0.10850100 15361.19686132 0 163.26574644 0 6120.06702004 0 149.54593581 0 -283.34791756 0 12736
0.10950000 0.10950300 15446.26634191 0 -151.18743296 0 5773.07892352 0 847.22326128 0 -388.53128381 0 12933
0.11050000 0.11050200 15294.64967963 0 48.06747298 0 5372.85308164 0 884.90893027 0 -606.04740188 0 13428
0.11150000 0.11150900 15333.91251683 0 369.71506819 0 5518.39176800 0 -310.41487459 0 476.69299012 0 13453
0.11250000 0.11250000 14671.54623508 0 298.45190956 0 5444.35802837 0 -158.58193397 0 406.49680463 0 13668
0.11350000 0.11349100 14615.09204261 0 215.33226139 0 6001.93468135 0 -71.49640650 0 808.56378520 0 13791
0.11450000 0.11448600 14726.44765997 0 -112.57897638 0 5174.73103056 0 704.20116752 0 274.49492415 0 14205
0.11550000 0.11549300 14468.79915486 0 -162.05902421 0 5451.38984723 0 237.61003958 0 1137.22478789 0 14776
0.11650000 0.11649800 14741.64259979 0 16.75059110 0 5161.63232696 0 418.12370639 0 676.28573392 0 14553
0.11750000 0.11747300 14995.96374581 0 59.93028450 0 4787.45970672 0 -86.61470615 0 763.09098683 0 14568
0.11850000 0.11849100 14742.97354342 0 103.26458919 0 5080.20075897 0 -130.50456889 0 407.33973560 0 16015
0.11950000 0.11950300 14575.27464557 0 192.99680898 0 5205.94165877 0 201.67234323 0 807.67205297 0 15270
0.12050000 0.12050700 14524.03331567 0 68.29703983 0 4794.94626466 0 152.69029015 0 297.23964173 0 15999
0.12150000 0.12150000 14226.23467761 0 151.71426482 0 4784.49835713 0 270.06510009 0 -9.99342355 0 15670
0.12250000 0.12250700 13924.66503259 0 269.33862669 0 5046.57224982 0 -283.60745156 0 571.73345677 0 16887
0.12350000 0.12352200 13689.53165728 0 206.30402707 0 4716.99733250 0 -53.23652532 0 116.51524218 0 16407
0.12450000 0.12449800 13511.62885823 0 68.89008613 0 4882.27834943 0 417.36839588 0 -30.95231424 0 16306
0.12550000 0.12549900 13500.98130916 0 48.03885769 0 4652.51311345 0 241.09156630 0 273.40244125 0 17523
0.12650000 0.12650100 13180.66754130 0 145.73832790 0 4244.34597455 0 125.63331519 0 -13.82118417 0 17154
0.12750000 0.12750600 13198.63528035 0 226.09404979 0 4633.97972335 0 72.51480021 0 782.53940068 0 18007
0.12850000 0.12850300 12940.98677525 0 104.15266133 0 4529.87774879 0 431.33997668 0 834.01031836 0 17496
0.12950000 0.12949900 12788.37190524 0 115.85198860 0 4177.31078020 0 347.12008177 0 878.22537499 0 18405
0.13050000 0.13049000 12711.06626251 0 104.32723677 0 4584.05824588 0 -117.56225117 0 717.22001449 0 18100
0.13150000 0.13148800 12404.72740280 0 96.03335060 0 3761.16907070 0 -84.99505866 0 780.75815445 0 19059
0.13250000 0.13249300 12655.38845383 0 -68.54725724 0 4448.79000790 0 -19.25110145 0 503.38395557 0 18957
0.13350000 0.13349100 12698.75503390 0 -144.97192619 0 3616.28476497 0 347.18884719 0 50.11978807 0 19468
0.13450000 0.13450700 12747.55630047 0 -105.62612684 0 3511.06257952 0 409.68996023 0 53.42707208 0 19953
0.13550000 0.13551000 13012.52499556 0 14.95925188 0 3082.31017909 0 123.64910006 0 -343.42005847 0 19956
0.13650000 0.13649900 12951.19067644 0 48.30382639 0 3198.14664002 0 -39.13673029 0 197.70502208 0 19723
0.13750000 0.13749600 12601.26341272 0 197.88691771 0 3283.57103892 0 -123.78552178 0 -1135.93820904 0 20946
0.13850000 0.13851100 12477.15291887 0 245.71326807 0 3460.35362707 0 -221.05420990 0 365.74109233 0 20955
0.13950000 0.13949800 12242.90683933 0 159.44704733 0 3350.80587482 0 83.60289162 0 -619.83265057 0 20506
0.14050000 0.14048300 12109.92338792 0 141.50814538 0 3556.17047751 0 202.76260789 0 61.12547189 0 21447
0.14150000 0.14148400 11995.12949950 0 171.29466391 0 3624.49225071 0 104.74082750 0 -685.95282118 0 21771
0.14250000 0.14249400 11644.20402806 0 91.31826095 0 3340.92361833 0 -136.74447629 0 -187.40130012 0 22470
0.14350000 0.14350900 11602.16839163 0 204.86882619 0 3202.25038289 0 299.88600133 0 -363.72138536 0 22519
0.14450000 0.14449900 11346.29447803 0 111.27354250 0 3198.54592311 0 -217.87103637 0 -331.79093847 0 22218
0.14550000 0.14550500 11204.65989300 0 168.71817886 0 3088.13305749 0 124.69056345 0 -603.70494109 0 23559
0.14650000 0.14650700 10751.34049134 0 272.09811649 0 3385.73205401 0 -255.67649029 0 -881.52833344 0 23044
0.14750000 0.14750500 10685.19259274 0 255.85838592 0 3435.90862900 0 -459.03136810 0 -1131.69028061 0 23649
0.14850000 0.14849900 10272.23405676 0 195.87941106 0 3635.02888781 0 211.12758863 0 -1428.65707890 0 23640
0.14950000 0.14949500 10083.16242239 0 96.80496517 0 3516.91873151 0 199.93435267 0 -902.39420226 0 24457
0.15050000 0.15050000 10042.71282712 0 8.23950603 0 3319.90580012 0 198.63335527 0 -1143.67986451 0 24591
0.15150000 0.15149900 9976.90875562 0 99.76864391 0 3074.05832856 0 429.28477788 0 -633.78870369 0 25020
0.15250000 0.15250500 9775.40388947 0 156.41693232 0 2923.52860358 0 26.46237589 0 -576.31744846 0 25297
0.15350000 0.15350100 9743.52778944 0 72.27567400 0 3040.41872822 0 89.18864023 0 -454.16898735 0 25452
0.15450000 0.15450400 9490.52649585 0 111.25468747 0 2886.66146493 0 96.33558572 0 -458.62543029 0 26061
0.15550000 0.15549900 9537.37571176 0 76.01695656 0 3142.54646972 0 -229.97485960 0 -672.46925305 0 26128
0.15650000 0.15649500 9239.27761138 0 210.30351269 0 3296.38137139 0 -513.80191687 0 -796.40339687 0 26331
0.15750000 0.15749700 9360.48221163 0 122.34588442 0 3545.63384041 0 -5.35730322 0 -1071.98747656 0 27345
0.15850000 0.15849900 9080.64022143 0 -8.79138181 0 3489.81184617 0 9.52190349 0 -969.64678408 0 26980
0.15950000 0.15949700 9120.98999593 0 57.14395400 0 3326.31651195 0 367.52899327 0 -702.69831033 0 27777
0.16050000 0.16050000 9087.23948362 0 42.52564551 0 3230.07819603 0 355.95865662 0 -445.87166292 0 28224
0.16150000 0.16150500 9081.71606754 0 -89.30188135 0 2830.99474744 0 477.01907131 0 -170.54822635 0 28075
0.16250000 0.16249700 9057.89217649 0 -3.59864976 0 2666.54557029 0 588.94588531 0 -339.18876683 0 28590
0.16350000 0.16349900 9004.87625508 0 195.49787389 0 2393.76867255 0 -65.56461255 0 57.33305891 0 29163
0.16450000 0.16449100 8672.41762656 0 224.82299862 0 2466.42710375 0 -271.83858248 0 220.48744973 0 28996
0.16550000 0.16550500 8398.06577885 0 170.61699177 0 2493.66708346 0 144.18777857 0 226.08850419 0 30777
0.16650000 0.16650700 8378.36781307 0 70.08238980 0 2493.11252361 0 15.28500034 0 -164.42034004 0 29211
0.16750000 0.16749900 8275.18640786 0 34.05751664 0 2318.67017801 0 189.23023849 0 16.00847912 0 30922
0.16850000 0.16850800 8073.06043467 0 86.93269077 0 2061.13258487 0 36.16916963 0 -311.34098953 0 30867
0.16950000 0.16949900 8090.86180577 0 115.24308189 0 2198.53033267 0 -50.49877427 0 45.68985309 0 30852
0.17050000 0.17049200 8077.13090395 0 -38.09715240 0 1700.65759286 0 345.94552401 0 -230.03253383 0 31257
0.17150000 0.17149500 8050.51203128 0 -60.75790962 0 1882.81941154 0 282.24323434 0 22.88380119 0 32608
0.17250000 0.17250900 8033.89741825 0 25.97425231 0 1447.29028977 0 194.92113165 0 332.02385360 0 32361
0.17350000 0.17350400 8028.25199900 0 94.51396753 0 1394.11909160 0 -52.22678275 0 9.42761723 0 32508
0.17450000 0.17449800 8037.38005409 0 17.71009055 0 1720.21137308 0 -30.86824296 0 347.24430317 0 32791
0.17550000 0.17549800 8046.17537327 0 -22.97108891 0 1577.29020920 0 96.54554208 0 -44.31920297 0 33633
0.17650000 0.17650100 8057.25547902 0 83.58215108 0 1650.24810273 0 -167.74991736 0 417.38392356 0 33984
0.17750000 0.17750300 7899.07282815 0 138.51795869 0 1681.03726546 0 -297.22965966 0 -104.81402940 0 34069
0.17850000 0.17849800 7884.97591682 0 182.74521564 0 2048.16697564 0 -43.38554601 0 197.88802683 0 34536
