### header ###
fiducial parameters:
Omega_m = 0.31
Omega_nu = 0
Omega_de = 0.69
Omega_k = 0
H_0 = 100
w_de = -1
zeff = 0
beta = 0
fgrowth = 0
b_1 = 2
gamma = 0.55
Lx = 3500 Ly = 3500 Lz = 3500
nx = 700 ny = 700 nz = 700
xoffset = 1379.75464 yoffset = 22.6059522 zoffset = 368.141391
bins = 400 dk = 0.001
kx_ny = 0.628318531 ky_ny = 0.628318531 kz_ny = 0.628318531
############################
A(data) = 3.31168871 (not used)
A(ran) = 3.31513163 (used)
Ngal = 186179
weighted Ngal = 0
Nran = 9399747
weighted Nran = 0
SN(data) = 6637.58664
SN(ran) = 131.86063
SN(data+ran) = 6769.44727
############################
13 columns: k_central k_mean P_0(k) sigma^{lin}_{P_0(k)} P^img_1(k) sigma^{lin}_{P_1(k)} P_2(k) sigma^{lin}_{P_2(k)} P^img_3(k) sigma^{lin}_{P_3(k)} P_4(k) sigma^{lin}_{P_4(k)} N_modes
### header ###
0.00050000 0 0 0 0 0 0 0 0 0 0 0 0
0.00150000 0.00179520 23442.79751764 0 -30781.95345025 0 -44502.87319490 0 39754.28813348 0 15832.79455556 0 3
0.00250000 0.00253879 37021.97176529 0 -23122.81648568 0 -8309.04783214 0 -60358.18288026 0 3576.53391511 0 6
0.00350000 0.00331552 56810.99627228 0 -9843.08237325 0 -56088.07205519 0 -3027.51966617 0 -20770.70634888 0 7
0.00450000 0.00420575 57725.02181278 0 5659.80452909 0 -8119.15544919 0 -51293.79126235 0 -14180.64985815 0 24
0.00550000 0.00557378 43980.03417076 0 7208.16889665 0 7988.52333153 0 -24073.33206415 0 -11574.77313517 0 45
0.00650000 0.00659388 49563.12089055 0 -16707.22452296 0 28190.49528330 0 2666.31265516 0 -10111.18987707 0 40
0.00750000 0.00754703 71929.85048028 0 -27231.32857122 0 13327.29316495 0 9781.69259814 0 -59977.86573690 0 57
0.00850000 0.00846663 107393.84181025 0 -16958.10739792 0 -12105.70873308 0 -15427.63313104 0 -41404.43641544 0 75
0.00950000 0.00948925 106985.02029074 0 5948.34201770 0 -3153.06092443 0 -46603.10224901 0 -38403.04760928 0 112
0.01050000 0.01054430 114650.81197347 0 6347.43655748 0 39987.86874121 0 -11538.17218524 0 -18323.10100634 0 105
0.01150000 0.01145670 98994.36744939 0 6991.74637060 0 25841.26885769 0 -4045.44753968 0 -32155.26545638 0 144
0.01250000 0.01249090 104359.29032522 0 5591.57148546 0 43791.37291067 0 107.21715904 0 -27144.15176320 0 169
0.01350000 0.01339930 91860.28774836 0 11144.65651751 0 61849.28339798 0 -6310.35868609 0 -24347.06280483 0 180
0.01450000 0.01448870 75914.47389590 0 9952.66339909 0 49858.81220119 0 6284.01709333 0 -9689.39165713 0 267
0.01550000 0.01550050 71905.44984699 0 1913.69730384 0 62977.47995155 0 9880.58171013 0 -8258.56070363 0 238
0.01650000 0.01653350 67686.80217577 0 -2009.44760709 0 37764.97104885 0 26788.78981298 0 -12166.48849235 0 315
0.01750000 0.01747870 72105.97868782 0 -4447.13741956 0 21187.73535413 0 10229.92114041 0 -12420.03325459 0 297
0.01850000 0.01844180 72748.82446293 0 1409.77986169 0 31807.55643205 0 -1907.89660784 0 -2477.18556479 0 388
0.01950000 0.01947590 69185.77744332 0 2485.28213857 0 10863.26175974 0 8057.99858922 0 -10785.97829940 0 399
0.02050000 0.02045430 68300.03445503 0 445.16515367 0 16669.18171742 0 -2709.93433275 0 6841.67138469 0 462
0.02150000 0.02154770 70208.60762588 0 -2674.24286097 0 11396.09395233 0 6551.02656866 0 -603.62286623 0 571
0.02250000 0.02255340 69359.90923540 0 939.98892344 0 9214.64406296 0 7770.76986185 0 -8240.78151492 0 510
0.02350000 0.02348930 72407.21559693 0 671.97125831 0 16537.19647374 0 -4996.65077236 0 1742.00557508 0 555
0.02450000 0.02439640 71294.10307121 0 4081.56047695 0 4261.75915376 0 -847.25986223 0 -5082.77391666 0 592
0.02550000 0.02547300 64326.72406030 0 1750.25742561 0 18006.11459756 0 2554.84612583 0 11572.66580774 0 837
0.02650000 0.02652900 62850.70757043 0 1337.29888964 0 10616.18316532 0 4548.28913572 0 4585.48901029 0 723
0.02750000 0.02749970 63306.44485303 0 176.43987017 0 16829.33860136 0 9617.13250902 0 27125.85128824 0 826
0.02850000 0.02848090 58704.92906316 0 1160.40538951 0 7919.39190095 0 6528.83308357 0 15007.05494276 0 831
0.02950000 0.02946900 57756.52081211 0 2955.53779797 0 8949.98592138 0 -551.32121790 0 24938.00177823 0 996
0.03050000 0.03053250 52998.17549739 0 3851.99488251 0 13923.22317698 0 -2973.67190498 0 23511.89567463 0 1041
0.03150000 0.03150510 50221.16160549 0 1601.96812241 0 17531.96592802 0 -771.77761228 0 19516.62470994 0 1036
0.03250000 0.03246190 48361.16787727 0 -105.64819832 0 17088.09622616 0 -259.46524317 0 12654.94480595 0 1059
0.03350000 0.03345080 48338.87457141 0 -115.55474452 0 15796.85907744 0 3070.85297265 0 13616.88431727 0 1302
0.03450000 0.03451200 49791.26681178 0 -780.58513178 0 11525.97186859 0 3655.93579406 0 15291.65505645 0 1339
0.03550000 0.03553350 49479.27144162 0 -67.54461303 0 14151.59092215 0 3341.65563733 0 11743.47024075 0 1365
0.03650000 0.03647120 49643.42115646 0 2288.26920718 0 13696.85184727 0 504.10821073 0 10996.42267030 0 1308
0.03750000 0.03744890 45517.05224384 0 2522.31564518 0 16191.92751274 0 -2642.53312890 0 14362.98913598 0 1579
0.03850000 0.03847530 43645.74549474 0 1342.82230572 0 17850.06145650 0 237.88399215 0 15438.50250405 0 1662
0.03950000 0.03950240 43109.48612229 0 -593.54984116 0 15292.76417615 0 4994.08870586 0 14864.20032607 0 1683
0.04050000 0.04050350 43487.91776216 0 -103.84421514 0 15217.45494887 0 2371.28681633 0 14045.55907932 0 1822
0.04150000 0.04152450 42884.33482424 0 947.66181349 0 17893.09530066 0 1286.24611009 0 15771.34932446 0 1887
0.04250000 0.04250150 43337.63204352 0 181.70818872 0 14423.32524738 0 -745.48038432 0 13820.29686930 0 1920
0.04350000 0.04349210 41712.54986666 0 -247.30818219 0 14788.33653894 0 1155.59181004 0 14445.50764127 0 2005
0.04450000 0.04448520 43431.35265773 0 302.13640519 0 13596.92016277 0 -649.04131773 0 6455.43154217 0 2151
0.04550000 0.04548030 42112.27660468 0 1475.59502439 0 16802.38699277 0 -1892.90130956 0 9162.94799399 0 2274
0.04650000 0.04648670 40518.13886731 0 1883.86198405 0 17225.73798028 0 -225.14907981 0 7254.86283580 0 2311
0.04750000 0.04749250 39396.48611993 0 405.16031540 0 15119.74150376 0 1924.77740959 0 5450.75764901 0 2568
0.04850000 0.04851840 38748.53839422 0 -614.08630143 0 17866.47642798 0 3284.07014278 0 6203.42845631 0 2493
0.04950000 0.04949480 38413.47333441 0 221.09968380 0 12817.20901730 0 1392.41104727 0 1883.83980166 0 2644
0.05050000 0.05050630 38840.70624086 0 1276.23075924 0 14141.71975686 0 -821.26653307 0 9734.72137906 0 2829
0.05150000 0.05149060 35979.95381200 0 973.05178154 0 12272.18759927 0 190.75527807 0 5361.87279666 0 2784
0.05250000 0.05249300 35701.01020876 0 839.14443343 0 16295.63020421 0 1317.83383899 0 7864.53484085 0 3055
0.05350000 0.05348950 35064.93006378 0 1044.09644359 0 14080.16361380 0 -542.84643431 0 3326.50506230 0 3009
0.05450000 0.05448610 33812.84484029 0 721.98479270 0 16394.89641689 0 915.44743195 0 6508.11472767 0 3336
0.05550000 0.05550870 31661.37445627 0 826.50046891 0 16083.89925446 0 1134.10816155 0 7020.76094182 0 3349
0.05650000 0.05647670 32660.13674146 0 -152.52835867 0 15103.43744424 0 1435.28961468 0 5381.26020893 0 3324
0.05750000 0.05747970 31956.51120707 0 -493.84885356 0 14455.93336640 0 2532.29772243 0 7398.48274508 0 3639
0.05850000 0.05849280 32585.82572191 0 -201.02794469 0 10747.01492453 0 2371.80810259 0 7485.75937387 0 3846
0.05950000 0.05951020 33554.30903943 0 -671.89029257 0 10926.50376474 0 2332.42326223 0 7782.13833872 0 3787
0.06050000 0.06049470 31618.11878818 0 981.31915975 0 8916.27977386 0 -1444.81695285 0 3116.10505619 0 3930
0.06150000 0.06148310 31363.79764215 0 2070.41591672 0 12597.04875788 0 -2362.51367955 0 6872.70455375 0 4083
0.06250000 0.06249100 29389.45367340 0 1071.49391830 0 12364.79909379 0 -592.31206358 0 4246.96349703 0 4303
0.06350000 0.06350600 29219.42562418 0 -273.66086614 0 13781.58859195 0 502.25265348 0 5008.29652915 0 4470
0.06450000 0.06451750 28864.84005775 0 -361.64733153 0 12965.16558459 0 1105.41634416 0 1349.39938551 0 4479
0.06550000 0.06550280 29869.81341323 0 -99.14809144 0 12379.55038573 0 1236.30245023 0 3868.82022828 0 4636
0.06650000 0.06648880 29669.95004422 0 34.49018424 0 10823.91019297 0 -961.04334261 0 1689.93240541 0 4653
0.06750000 0.06749660 30069.12222239 0 360.73563514 0 14249.63710317 0 -989.63201186 0 936.08260387 0 5220
0.06850000 0.06852730 29844.19274828 0 378.81761353 0 12795.58118326 0 -531.91938708 0 348.78265219 0 5029
0.06950000 0.06949320 29171.51165337 0 36.59052420 0 12653.72477429 0 87.99045822 0 -843.90144780 0 5040
0.07050000 0.07048030 29055.27590935 0 681.05051213 0 12898.50749094 0 1769.09027803 0 -418.33998473 0 5475
0.07150000 0.07148790 27882.71456798 0 381.65363259 0 12186.45264686 0 1117.85955802 0 -411.24827340 0 5509
0.07250000 0.07249820 27435.73933097 0 -83.14371607 0 10966.25461460 0 2582.89576291 0 2796.66749289 0 5916
0.07350000 0.07351270 27932.95769016 0 -363.00378492 0 8860.84597151 0 3153.26056597 0 1700.80177842 0 5721
0.07450000 0.07449140 27621.29505591 0 -150.59959952 0 7555.73373542 0 1565.51135804 0 3072.00645713 0 6028
0.07550000 0.07549160 26834.04189653 0 506.46619920 0 5115.62604202 0 118.29537929 0 2933.71032238 0 6183
0.07650000 0.07648840 26674.43957244 0 570.61879147 0 5586.65808521 0 417.58467422 0 4959.76145131 0 6330
0.07750000 0.07749960 25954.95362641 0 112.54015719 0 6139.90917138 0 673.07705064 0 3484.33279487 0 6583
0.07850000 0.07848650 25794.57491854 0 211.75645949 0 5502.19862045 0 522.29999197 0 2811.47424081 0 6549
0.07950000 0.07947320 25379.65324071 0 611.16931663 0 5644.88686919 0 -1384.45865906 0 3231.57550762 0 6828
0.08050000 0.08048110 24904.72818739 0 685.78201674 0 7551.21961826 0 -2226.85724967 0 2283.92145797 0 7147
0.08150000 0.08149960 24067.67555370 0 930.75217462 0 9288.65562020 0 -1231.85488025 0 818.23087246 0 7386
0.08250000 0.08250610 23404.08924029 0 454.66587298 0 10069.38715578 0 -1018.69205698 0 475.43413926 0 7227
0.08350000 0.08350160 22879.47562464 0 528.28369272 0 11175.71186897 0 256.09019194 0 905.03168890 0 7798
0.08450000 0.08449610 22927.27868349 0 12.29958286 0 11465.52484523 0 1544.98155249 0 1552.44592804 0 7371
0.08550000 0.08548940 22613.95236970 0 -240.48265959 0 9722.08850574 0 1855.94544133 0 1282.46401193 0 8256
0.08650000 0.08650700 22713.44040633 0 88.18466508 0 9116.05441329 0 1429.47782747 0 4787.06042363 0 8037
0.08750000 0.08749060 22209.90006488 0 521.11434301 0 8513.30331514 0 392.05384797 0 3037.85666172 0 8155
0.08850000 0.08849210 21609.97722195 0 503.19429610 0 8500.77026259 0 726.47340011 0 5346.92186318 0 8718
0.08950000 0.08949900 20443.95968678 0 412.17217011 0 8772.56004380 0 -193.76542892 0 3447.26601467 0 8571
0.09050000 0.09049190 20359.77750194 0 380.22730466 0 7813.43769651 0 282.80223067 0 4947.62768184 0 8932
0.09150000 0.09150830 19939.42113761 0 211.04107729 0 7134.12406582 0 272.85786348 0 1717.18347631 0 9285
0.09250000 0.09250820 19536.14521657 0 476.73291843 0 7598.82303556 0 -814.91127721 0 1966.73540765 0 9204
0.09350000 0.09350330 18873.55711088 0 479.64103027 0 7563.25356695 0 -396.96946645 0 1001.94434959 0 9349
0.09450000 0.09448040 18307.46241864 0 441.01150041 0 7936.66089460 0 514.75132332 0 762.55417290 0 9564
0.09550000 0.09549270 17378.68558620 0 209.39847102 0 6702.98705805 0 392.99549059 0 1207.88680365 0 10155
0.09650000 0.09649430 17519.65469941 0 -155.40319692 0 6401.14013311 0 1769.47846992 0 651.52463673 0 9913
0.09750000 0.09749140 17652.63815082 0 -203.42586147 0 5115.00493499 0 1609.83178105 0 2031.33053867 0 10476
0.09850000 0.09850240 17386.89307194 0 327.31674962 0 5009.12836892 0 -197.35010378 0 2236.60641179 0 10575
0.09950000 0.09950330 17267.77361672 0 0.05000455 0 3672.42840392 0 759.84570261 0 1994.52994720 0 10882
0.10050000 0.10051200 17409.96276159 0 -259.01383145 0 3730.92337662 0 834.51274958 0 3259.63623590 0 10875
0.10150000 0.10150300 17373.80545954 0 14.79920591 0 3254.12391102 0 1.93160959 0 1838.36589417 0 11118
0.10250000 0.10250800 17393.54779011 0 251.51729143 0 3358.27025036 0 66.13592011 0 2477.80667182 0 11575
0.10350000 0.10349800 16839.20976664 0 287.12779748 0 3679.67095553 0 -430.12770885 0 1731.66857953 0 11364
0.10450000 0.10450100 16676.05825953 0 306.22462038 0 3794.58684711 0 -719.35728815 0 1945.08539120 0 12093
0.10550000 0.10551000 16375.70864617 0 294.08752356 0 4653.82187469 0 175.38620646 0 665.34870461 0 12067
0.10650000 0.10649700 16127.82039438 0 261.92194329 0 4443.69914850 0 -522.14138785 0 928.21894524 0 12054
0.10750000 0.10749900 15737.18843786 0 335.55307247 0 4927.24206185 0 -131.74234647 0 469.43712907 0 12807
0.10850000 0.10850100 15188.39601287 0 169.52118152 0 4483.28363041 0 131.94420626 0 -68.54326440 0 12736
0.10950000 0.10950300 15502.16597453 0 -20.94084531 0 4256.41319683 0 252.18498149 0 -552.80632917 0 12933
0.11050000 0.11050200 14873.96057938 0 355.15454484 0 4821.76477888 0 -590.31342989 0 -987.84078355 0 13428
0.11150000 0.11150900 14632.28339788 0 533.87254686 0 4613.17263787 0 -315.43807769 0 -822.58305814 0 13453
0.11250000 0.11250000 14062.97225853 0 181.65162362 0 5153.16974369 0 -485.23653913 0 -1161.63651237 0 13668
0.11350000 0.11349100 13931.65248666 0 116.32447359 0 5684.17188878 0 611.73274944 0 -107.50431013 0 13791
0.11450000 0.11448600 13711.15949133 0 -14.48477048 0 5191.41219077 0 658.46439866 0 -788.00625166 0 14205
0.11550000 0.11549300 14178.20979482 0 -52.56595155 0 4714.87891389 0 394.75344530 0 50.82296995 0 14776
0.11650000 0.11649800 14003.74526683 0 -46.40124246 0 4613.02845231 0 163.68721192 0 -376.55057287 0 14553
0.11750000 0.11747300 14155.47284108 0 80.34773623 0 4311.94681995 0 -366.66166167 0 539.86179322 0 14568
0.11850000 0.11849100 13777.04120120 0 217.78119768 0 5121.99238907 0 57.06842295 0 421.57750512 0 16015
0.11950000 0.11950300 13909.91374064 0 75.40716255 0 4541.40150242 0 356.46330608 0 32.89194276 0 15270
0.12050000 0.12050700 13641.61768647 0 13.72735264 0 4497.79091602 0 357.97503622 0 105.01677648 0 15999
0.12150000 0.12150000 13572.29770554 0 184.71723045 0 4289.30968698 0 22.08712051 0 -514.74023213 0 15670
0.12250000 0.12250700 13066.09547682 0 298.93326751 0 4431.82047657 0 239.29922888 0 821.68245295 0 16887
0.12350000 0.12352200 13109.35114492 0 -3.86374046 0 4133.28981951 0 -117.15742248 0 356.87257125 0 16407
0.12450000 0.12449800 12910.59689561 0 -72.80971513 0 3683.55287446 0 657.71241551 0 -498.16887477 0 16306
0.12550000 0.12549900 13018.18150601 0 97.85951618 0 3620.26650467 0 -270.87808483 0 -5.02299237 0 17523
0.12650000 0.12650100 12896.84381139 0 84.15456776 0 3113.08825062 0 105.49569436 0 -886.96967467 0 17154
0.12750000 0.12750600 12964.27828884 0 72.01514178 0 3498.21897345 0 -154.88634714 0 -1342.48956981 0 18007
0.12850000 0.12850300 12605.25624362 0 81.35914248 0 3203.59241772 0 -281.40141249 0 -2175.17227189 0 17496
0.12950000 0.12949900 12450.31222226 0 342.54052655 0 3404.26544411 0 -255.48128522 0 -1492.34273178 0 18405
0.13050000 0.13049000 12094.61753613 0 270.09837368 0 3541.55227993 0 -186.48073077 0 -1480.10914154 0 18100
0.13150000 0.13148800 11828.98336922 0 141.50370890 0 3734.21746212 0 426.57187111 0 -1831.65572001 0 19059
0.13250000 0.13249300 11797.81710579 0 50.25432428 0 3691.81581619 0 521.96503782 0 -1144.82225780 0 18957
0.13350000 0.13349100 11662.72632696 0 22.59088268 0 3030.93575483 0 289.93387030 0 -1162.16888983 0 19468
0.13450000 0.13450700 11627.78905658 0 74.32277622 0 3538.18055606 0 284.00673465 0 -270.53314860 0 19953
0.13550000 0.13551000 11513.54972801 0 105.05138101 0 3196.44968689 0 144.48835000 0 182.06199791 0 19956
0.13650000 0.13649900 11404.19052610 0 19.38763409 0 2900.07072204 0 672.93841068 0 543.32446490 0 19723
0.13750000 0.13749600 11421.93644122 0 -48.16119360 0 2556.40998460 0 530.45978556 0 672.79977072 0 20946
0.13850000 0.13851100 11434.13675786 0 17.72972197 0 1999.82044814 0 424.78175192 0 950.13958689 0 20955
0.13950000 0.13949800 11236.26980431 0 228.05386429 0 2177.17977854 0 -118.32088904 0 1027.23782423 0 20506
0.14050000 0.14048300 10988.93611236 0 246.70260284 0 1940.48254447 0 -244.20819265 0 1283.38458127 0 21447
0.14150000 0.14148400 10643.71151615 0 200.92146920 0 2223.74062333 0 -62.45985379 0 809.41558913 0 21771
0.14250000 0.14249400 10427.17807813 0 188.18877510 0 2158.62420605 0 131.64807130 0 483.53293127 0 22470
0.14350000 0.14350900 10287.66191172 0 176.81142527 0 2282.64597032 0 -286.71076847 0 153.75060858 0 22519
0.14450000 0.14449900 9957.27733702 0 107.80177603 0 2249.19492033 0 -67.50246648 0 402.38197056 0 22218
0.14550000 0.14550500 10060.64729258 0 -37.39607784 0 2210.75283170 0 452.87686291 0 674.93260789 0 23559
0.14650000 0.14650700 9869.61251635 0 -42.78639956 0 1909.12773070 0 368.10906287 0 163.86134371 0 23044
0.14750000 0.14750500 10161.81009995 0 -11.22140760 0 1446.08134931 0 335.63736557 0 1161.39250604 0 23649
0.14850000 0.14849900 9951.31027307 0 112.70763427 0 1857.96403918 0 -103.88159247 0 526.19965681 0 23640
0.14950000 0.14949500 9934.21873857 0 251.01153285 0 1643.74866132 0 -179.64078961 0 1434.51323089 0 24457
0.15050000 0.15050000 9611.86419047 0 126.40858986 0 2178.06707430 0 98.52975721 0 1264.40754329 0 24591
0.15150000 0.15149900 9434.33849211 0 66.14324030 0 1947.21490102 0 82.06853543 0 1475.55065960 0 25020
0.15250000 0.15250500 9523.10134129 0 -11.76210345 0 1898.51345522 0 295.51828797 0 1420.91542343 0 25297
0.15350000 0.15350100 9477.70507218 0 73.11317028 0 1595.16921868 0 281.99700977 0 1426.98230816 0 25452
0.15450000 0.15450400 9402.95040475 0 92.88821988 0 1710.08511026 0 -134.61385736 0 1676.20150359 0 26061
0.15550000 0.15549900 9145.25753485 0 199.10140378 0 1682.65658021 0 -395.31798723 0 1150.61186261 0 26128
0.15650000 0.15649500 9106.02797125 0 147.94325785 0 2102.14783119 0 -330.16053252 0 739.39686279 0 26331
0.15750000 0.15749700 8898.26767001 0 156.51231662 0 2400.72285303 0 -237.96163052 0 587.10696486 0 27345
0.15850000 0.15849900 8786.47949597 0 90.19250446 0 2428.09592710 0 -125.77639163 0 566.82116564 0 26980
0.15950000 0.15949700 8820.09691392 0 -25.19343204 0 2345.82142814 0 83.38372957 0 588.41461698 0 27777
0.16050000 0.16050000 8874.88742685 0 -40.82092854 0 2416.82727100 0 439.98445558 0 606.87591430 0 28224
0.16150000 0.16150500 8813.91911722 0 57.17500936 0 2106.56212757 0 147.18683822 0 807.54006772 0 28075
0.16250000 0.16249700 8787.84371320 0 163.46649710 0 2447.74952809 0 35.14678310 0 994.23485859 0 28590
0.16350000 0.16349900 8597.47440878 0 155.78806145 0 2645.28374574 0 -243.45288213 0 1208.27499554 0 29163
0.16450000 0.16449100 8408.81314869 0 170.72679462 0 2801.48107236 0 -87.83861973 0 1161.53669160 0 28996
0.16550000 0.16550500 8325.80663073 0 95.64870789 0 3059.24048944 0 -184.28800113 0 1094.91630801 0 30777
0.16650000 0.16650700 8302.72584988 0 -28.16332185 0 2916.62987908 0 93.05935705 0 1124.78046491 0 29211
0.16750000 0.16749900 8284.28118935 0 29.28763649 0 2961.43831475 0 218.54427203 0 1331.07672815 0 30922
0.16850000 0.16850800 8350.97255660 0 -15.52412654 0 2625.26413525 0 163.22359989 0 597.98631994 0 30867
0.16950000 0.16949900 8303.86824316 0 5.20763861 0 2626.47307572 0 82.06642811 0 744.40564733 0 30852
0.17050000 0.17049200 8241.56898991 0 126.41302634 0 2704.18909273 0 -151.37265595 0 376.08696084 0 31257
0.17150000 0.17149500 8133.88455874 0 121.62162926 0 2408.33141414 0 -19.79179731 0 544.03097415 0 32608
0.17250000 0.17250900 8090.63998184 0 -46.14936138 0 2532.46409038 0 176.57961925 0 304.02190867 0 32361
0.17350000 0.17350400 8018.78011681 0 42.58797804 0 2266.90756185 0 -18.87089522 0 126.25664046 0 32508
0.17450000 0.17449800 8115.93900207 0 16.99016096 0 2129.64290842 0 310.16643178 0 246.25784584 0 32791
0.17550000 0.17549800 8040.85159873 0 -83.02271111 0 1781.34605066 0 353.91122166 0 209.04244360 0 33633
0.17650000 0.17650100 8104.00487416 0 51.95271927 0 1704.98315967 0 221.36032693 0 614.32032569 0 33984
0.17750000 0.17750300 8033.08776087 0 155.96995708 0 1759.40766309 0 -70.15037884 0 509.36432897 0 34069
0.17850000 0.17849800 7767.81960346 0 245.22525541 0 1818.26864530 0 -485.60698510 0 786.71634545 0 34536
