### header ###
fiducial parameters:
Omega_m = 0.31
Omega_nu = 0
Omega_de = 0.69
Omega_k = 0
H_0 = 100
w_de = -1
zeff = 0
beta = 0
fgrowth = 0
b_1 = 2
gamma = 0.55
Lx = 3500 Ly = 3500 Lz = 3500
nx = 700 ny = 700 nz = 700
xoffset = 1379.75464 yoffset = 22.6059522 zoffset = 368.141391
bins = 400 dk = 0.001
kx_ny = 0.628318531 ky_ny = 0.628318531 kz_ny = 0.628318531
############################
A(data) = 3.32039262 (not used)
A(ran) = 3.32430415 (used)
Ngal = 187034
weighted Ngal = 0
Nran = 9399747
weighted Nran = 0
SN(data) = 6667.67858
SN(ran) = 132.22547
SN(data+ran) = 6799.90405
############################
13 columns: k_central k_mean P_0(k) sigma^{lin}_{P_0(k)} P^img_1(k) sigma^{lin}_{P_1(k)} P_2(k) sigma^{lin}_{P_2(k)} P^img_3(k) sigma^{lin}_{P_3(k)} P_4(k) sigma^{lin}_{P_4(k)} N_modes
### header ###
0.00050000 0 0 0 0 0 0 0 0 0 0 0 0
0.00150000 0.00179520 84446.59897226 0 -67996.35748259 0 -141685.60453476 0 168765.87100354 0 27563.39900784 0 3
0.00250000 0.00253879 145246.98787484 0 -68072.88674153 0 -51133.07981857 0 -112381.55307787 0 -14418.77785663 0 6
0.00350000 0.00331552 157415.14004673 0 -21338.46472065 0 -113354.25105022 0 -69753.31399116 0 6356.29842384 0 7
0.00450000 0.00420575 169222.82831781 0 1233.82911331 0 -96638.04265774 0 -81780.38613787 0 15455.36112341 0 24
0.00550000 0.00557378 120085.49847810 0 14147.48717927 0 -74018.98833744 0 -58144.04723348 0 5796.02661001 0 45
0.00650000 0.00659388 133764.27167434 0 8127.92858598 0 -92373.14469524 0 -28027.45468816 0 -61049.94083392 0 40
0.00750000 0.00754703 84813.27394336 0 8663.44484823 0 -54797.38946633 0 -47105.42255880 0 -50939.09478395 0 57
0.00850000 0.00846663 86677.81506233 0 14700.27243517 0 -24943.54737671 0 -73470.97229623 0 -69221.26927355 0 75
0.00950000 0.00948925 61601.61697012 0 13562.09380435 0 14727.88951558 0 -62583.07698807 0 -58065.74338303 0 112
0.01050000 0.01054430 55748.34869267 0 9780.57238725 0 40480.31788571 0 -12628.88049312 0 -71013.60670038 0 105
0.01150000 0.01145670 55097.29543181 0 -8452.70101501 0 43849.49078268 0 8018.94648476 0 -69576.07666393 0 144
0.01250000 0.01249090 77366.42248839 0 -15028.57186484 0 34733.30327502 0 30044.83250107 0 -62157.61867314 0 169
0.01350000 0.01339930 89236.55419828 0 -13103.36189857 0 33015.27686774 0 11245.58640974 0 -34351.54427607 0 180
0.01450000 0.01448870 93692.55348420 0 7684.90181508 0 14352.23067494 0 -21058.41199771 0 -44808.43567082 0 267
0.01550000 0.01550050 88689.42545283 0 11233.05335719 0 45087.71200998 0 -24446.21810555 0 -55494.47119452 0 238
0.01650000 0.01653350 70147.27330676 0 9954.41580821 0 42747.58036587 0 -8713.28868731 0 -43196.99566621 0 315
0.01750000 0.01747870 65176.64248244 0 5630.43503957 0 47518.90238103 0 3849.55481918 0 -47934.60044265 0 297
0.01850000 0.01844180 59209.91126021 0 -582.83241755 0 36306.92229804 0 -1740.50826349 0 -42262.89505923 0 388
0.01950000 0.01947590 58734.65347098 0 1075.78510239 0 33741.52844391 0 10559.77333765 0 -59506.04621873 0 399
0.02050000 0.02045430 58078.72008346 0 465.85356334 0 21056.30467029 0 -704.58270469 0 -45010.73910315 0 462
0.02150000 0.02154770 59374.83735883 0 -4742.74000062 0 13290.35947912 0 11203.32894937 0 -41553.72392636 0 571
0.02250000 0.02255340 64519.48906326 0 -3418.29580825 0 11614.47962024 0 3071.98427473 0 -46330.48062802 0 510
0.02350000 0.02348930 67700.33343604 0 -1510.93157786 0 457.00056993 0 -845.39210467 0 -41576.01723223 0 555
0.02450000 0.02439640 69399.50480851 0 1589.20215473 0 8205.54478222 0 -10148.83339952 0 -42720.62875729 0 592
0.02550000 0.02547300 66365.61879529 0 2330.07192847 0 4624.96258023 0 -6524.05277769 0 -30004.34963221 0 837
0.02650000 0.02652900 67177.27258796 0 -1087.25118180 0 16490.16979868 0 143.16517021 0 -36283.74169642 0 723
0.02750000 0.02749970 64326.39132439 0 2796.14620663 0 18774.62363410 0 -4703.24424829 0 -22757.02881033 0 826
0.02850000 0.02848090 65016.81833442 0 2367.68217732 0 15292.20961630 0 -2501.98548117 0 -32665.01686812 0 831
0.02950000 0.02946900 62113.25388534 0 915.50177882 0 18402.29215255 0 578.60112592 0 -17267.32996884 0 996
0.03050000 0.03053250 63075.52613257 0 -2156.42814905 0 24804.13103107 0 5255.19766442 0 -18048.26114596 0 1041
0.03150000 0.03150510 65322.38081034 0 627.64307146 0 18989.12738308 0 2449.40211644 0 -20700.38816022 0 1036
0.03250000 0.03246190 62346.16902126 0 2477.77339823 0 18707.96554044 0 -6510.82097973 0 -13912.24289200 0 1059
0.03350000 0.03345080 59876.93584467 0 3639.54300497 0 23640.10991135 0 -3668.87922090 0 -19598.81047933 0 1302
0.03450000 0.03451200 56476.81850823 0 3174.54457291 0 30579.87184185 0 -1321.61593715 0 -14282.91069401 0 1339
0.03550000 0.03553350 51828.94151511 0 3078.96063761 0 34309.95228751 0 -1779.33854401 0 -16235.84865266 0 1365
0.03650000 0.03647120 47644.56564245 0 2298.07382528 0 32171.56951589 0 3746.72833228 0 -10129.96727351 0 1308
0.03750000 0.03744890 46605.20957643 0 -292.70001482 0 28113.18964057 0 6242.29201041 0 -9741.57573878 0 1579
0.03850000 0.03847530 47844.65083540 0 205.12059636 0 31247.11825026 0 1853.30573646 0 -8904.07945721 0 1662
0.03950000 0.03950240 47034.21707439 0 1374.97568567 0 30146.64968906 0 -321.65580270 0 -6660.90705683 0 1683
0.04050000 0.04050350 44159.26791344 0 1750.53470553 0 31057.56969441 0 -884.61612268 0 -7142.87502022 0 1822
0.04150000 0.04152450 42793.71974517 0 953.67102399 0 26124.09437987 0 2624.28810992 0 187.48004761 0 1887
0.04250000 0.04250150 40762.25611214 0 61.07090320 0 29155.20759385 0 4003.38972085 0 -4563.62826110 0 1920
0.04350000 0.04349210 43846.05251162 0 -135.14068922 0 22522.67181882 0 6279.54734096 0 3369.49454167 0 2005
0.04450000 0.04448520 41017.02090604 0 371.88339720 0 23296.06098202 0 5705.20079820 0 544.12303108 0 2151
0.04550000 0.04548030 41145.67879064 0 2190.26739094 0 21145.92154163 0 -822.39450780 0 8950.90649073 0 2274
0.04650000 0.04648670 37476.71084017 0 2018.26510867 0 21745.17891275 0 264.31986007 0 7848.14205176 0 2311
0.04750000 0.04749250 35811.58944233 0 1272.95885614 0 20480.44972474 0 805.09334968 0 5674.11217315 0 2568
0.04850000 0.04851840 33507.28236437 0 -116.96776302 0 22876.59191343 0 2245.20208943 0 8065.76242708 0 2493
0.04950000 0.04949480 35129.25900607 0 -567.62195006 0 15240.63555049 0 3877.80409781 0 2941.17469793 0 2644
0.05050000 0.05050630 36219.41275412 0 -474.29729158 0 17765.43562379 0 1696.39857323 0 5371.74396195 0 2829
0.05150000 0.05149060 35003.37392071 0 -129.44646870 0 13336.72068236 0 966.20407655 0 2423.77036029 0 2784
0.05250000 0.05249300 35855.06693437 0 284.08880951 0 10718.31090682 0 1895.00863698 0 2076.83771975 0 3055
0.05350000 0.05348950 35609.61874590 0 18.08985313 0 12087.96281796 0 -561.26003949 0 148.04862422 0 3009
0.05450000 0.05448610 34488.18782247 0 954.07252532 0 11577.65684637 0 -56.26919130 0 -493.11794368 0 3336
0.05550000 0.05550870 34188.06003305 0 971.22284317 0 12553.46035388 0 -1143.42476698 0 -2223.14169870 0 3349
0.05650000 0.05647670 32535.91533564 0 322.92019915 0 12344.94585125 0 -1412.86321445 0 -2974.50374476 0 3324
0.05750000 0.05747970 32451.62223883 0 455.68182662 0 13353.35747778 0 227.57472458 0 -5863.77164096 0 3639
0.05850000 0.05849280 32494.43425906 0 629.76149008 0 15719.88617062 0 -3057.24407399 0 -5875.47285375 0 3846
0.05950000 0.05951020 31551.12795861 0 267.17695241 0 13810.31479205 0 222.95967753 0 -7451.37666333 0 3787
0.06050000 0.06049470 32042.91163129 0 -549.77510505 0 14489.87242907 0 2053.24674384 0 -7352.27681860 0 3930
0.06150000 0.06148310 32095.15116892 0 -377.47890606 0 11919.93118419 0 1383.32735697 0 -7252.11221896 0 4083
0.06250000 0.06249100 33205.37998344 0 89.60844203 0 12655.16662989 0 2336.36063714 0 -5239.60344151 0 4303
0.06350000 0.06350600 32424.33789434 0 258.24964798 0 9981.00140730 0 1814.08726405 0 -4734.42160291 0 4470
0.06450000 0.06451750 31484.35895298 0 682.74302878 0 10676.56364151 0 -438.79991574 0 -2716.02339988 0 4479
0.06550000 0.06550280 30244.69587008 0 731.00637230 0 8636.29359810 0 114.76394218 0 -3552.12219062 0 4636
0.06650000 0.06648880 29960.53940426 0 304.62748802 0 11941.55901824 0 1096.11637552 0 -2373.80451804 0 4653
0.06750000 0.06749660 28709.23056457 0 429.34910682 0 7586.25670942 0 386.77554734 0 -3691.84908978 0 5220
0.06850000 0.06852730 28457.68221778 0 970.02277566 0 9098.65232528 0 546.29136009 0 -1691.75136171 0 5029
0.06950000 0.06949320 27304.08682320 0 206.96838977 0 7518.26767213 0 465.63173940 0 -3262.60867668 0 5040
0.07050000 0.07048030 26856.55702633 0 153.13726538 0 6813.89902753 0 2152.28004139 0 507.50655348 0 5475
0.07150000 0.07148790 26684.53256167 0 -71.81993672 0 4320.64231836 0 2311.93782146 0 -1163.76602219 0 5509
0.07250000 0.07249820 26289.24230243 0 98.89754130 0 4405.81161973 0 122.19393502 0 959.78560087 0 5916
0.07350000 0.07351270 26098.69553886 0 445.72858648 0 2916.56333190 0 458.70972338 0 -524.84763991 0 5721
0.07450000 0.07449140 25858.46021296 0 276.54901383 0 4559.24723831 0 -695.63210875 0 913.60851150 0 6028
0.07550000 0.07549160 25032.05512835 0 376.26774735 0 3887.45343916 0 -976.70189446 0 -316.08691271 0 6183
0.07650000 0.07648840 24878.22022668 0 398.47897836 0 5455.37158694 0 -816.35978754 0 -2695.21631440 0 6330
0.07750000 0.07749960 24518.86544556 0 770.20155320 0 6089.22240133 0 -1929.60208026 0 -2272.83026102 0 6583
0.07850000 0.07848650 24332.42242486 0 138.45917534 0 7252.97733232 0 -231.70175897 0 -3920.86012436 0 6549
0.07950000 0.07947320 23692.01671307 0 -25.80821709 0 7534.62718762 0 728.76816876 0 -2251.03605902 0 6828
0.08050000 0.08048110 23666.72878403 0 132.49876610 0 7142.89720261 0 -21.94171492 0 -2727.08132324 0 7147
0.08150000 0.08149960 23547.94206471 0 650.59186707 0 7374.15975018 0 -250.23736731 0 -2370.23315262 0 7386
0.08250000 0.08250610 22229.97513135 0 825.60319107 0 8068.53522632 0 321.14560764 0 -1565.37826368 0 7227
0.08350000 0.08350160 21598.99693697 0 561.24451181 0 8178.08297857 0 6.70090191 0 -657.42737175 0 7798
0.08450000 0.08449610 21010.05437902 0 120.99275839 0 8582.62329606 0 1328.04883138 0 865.79990705 0 7371
0.08550000 0.08548940 20967.24235880 0 -171.03623902 0 7780.51902397 0 800.05683714 0 -1458.74749622 0 8256
0.08650000 0.08650700 21046.43350501 0 108.20483013 0 6468.84079928 0 -360.40068099 0 -454.73020192 0 8037
0.08750000 0.08749060 20897.03508212 0 194.91891341 0 6830.06999268 0 -218.98459255 0 -2128.54487992 0 8155
0.08850000 0.08849210 20573.72669107 0 154.80759964 0 6962.53215784 0 -648.09523863 0 -1241.44876561 0 8718
0.08950000 0.08949900 20857.66133295 0 337.97095341 0 7134.93372320 0 -92.19768196 0 -3165.78252733 0 8571
0.09050000 0.09049190 20238.21798339 0 199.37868370 0 7425.25689452 0 -228.67497132 0 -3031.76759460 0 8932
0.09150000 0.09150830 20098.46890184 0 163.34227570 0 6690.98638295 0 210.87027286 0 -3373.55391976 0 9285
0.09250000 0.09250820 20338.03875593 0 -398.11075062 0 6595.92373391 0 866.40881376 0 -3091.61569333 0 9204
0.09350000 0.09350330 20493.09368926 0 -88.30799919 0 6025.63656923 0 574.79684536 0 -3106.65535639 0 9349
0.09450000 0.09448040 20373.64149813 0 431.22130087 0 6548.66414371 0 -186.63600753 0 -3216.19201745 0 9564
0.09550000 0.09549270 19562.54226531 0 492.29164950 0 5944.75956108 0 -403.41012452 0 -2985.42857375 0 10155
0.09650000 0.09649430 19421.68406406 0 406.83619526 0 6896.79463353 0 11.17349363 0 -2459.21782574 0 9913
0.09750000 0.09749140 18647.18578117 0 238.46627999 0 6405.97589498 0 537.80992178 0 -1215.92792143 0 10476
0.09850000 0.09850240 18137.76710534 0 369.25811088 0 6603.16628552 0 947.96016669 0 -1645.72289437 0 10575
0.09950000 0.09950330 17934.90911315 0 376.76796033 0 5697.59223709 0 549.36029428 0 345.86234003 0 10882
0.10050000 0.10051200 17167.06554843 0 244.66071348 0 5898.36508425 0 899.66576781 0 -604.26393741 0 10875
0.10150000 0.10150300 16688.48040011 0 429.52656597 0 5662.23350122 0 -83.80164587 0 119.58195814 0 11118
0.10250000 0.10250800 16138.02429557 0 369.10283412 0 5675.21020165 0 -594.03341735 0 710.20150507 0 11575
0.10350000 0.10349800 16113.84548623 0 193.18314109 0 6009.24378014 0 39.55076467 0 -21.80806600 0 11364
0.10450000 0.10450100 15779.66772218 0 53.92673051 0 5675.77585269 0 170.60479146 0 -135.10076091 0 12093
0.10550000 0.10551000 15823.14521421 0 46.31484204 0 5760.97842765 0 324.18015912 0 -278.16278298 0 12067
0.10650000 0.10649700 15648.01521440 0 134.55174666 0 6108.50999282 0 155.33332238 0 378.13217756 0 12054
0.10750000 0.10749900 15654.33719666 0 228.28012471 0 5959.02284036 0 338.86712212 0 -63.97613132 0 12807
0.10850000 0.10850100 15208.13834343 0 308.32529308 0 6001.91249896 0 308.61144596 0 908.50323354 0 12736
0.10950000 0.10950300 14732.21508239 0 402.71359735 0 6484.72339331 0 232.25299145 0 1919.83073575 0 12933
0.11050000 0.11050200 14340.69583011 0 179.46998518 0 5735.56849544 0 569.04273239 0 2484.07319810 0 13428
0.11150000 0.11150900 14235.44037107 0 -12.81088704 0 6232.68703386 0 880.55785371 0 3469.17112865 0 13453
0.11250000 0.11250000 14248.52798347 0 119.81487327 0 4941.13933163 0 565.42145658 0 2841.78648207 0 13668
0.11350000 0.11349100 14025.59492481 0 -6.35774028 0 5336.00812538 0 -62.09639527 0 3517.65075051 0 13791
0.11450000 0.11448600 14115.43362009 0 168.09596271 0 4955.51352288 0 -460.37894853 0 2264.54513690 0 14205
0.11550000 0.11549300 13947.73472224 0 171.02625694 0 5485.76146658 0 75.69786282 0 2297.91854852 0 14776
0.11650000 0.11649800 13697.62823105 0 -6.08578413 0 5188.11810527 0 -303.55607840 0 1230.74576056 0 14553
0.11750000 0.11747300 13736.33650840 0 44.33717071 0 5531.92302827 0 -231.15939944 0 918.45647368 0 14568
0.11850000 0.11849100 13848.24668561 0 76.65636406 0 5545.28792060 0 -153.99572403 0 42.08854144 0 16015
0.11950000 0.11950300 13866.99080845 0 84.43905696 0 5169.28525286 0 -531.33155364 0 -1165.74025524 0 15270
0.12050000 0.12050700 13496.87756629 0 246.86342519 0 6336.52281969 0 -572.48987640 0 -1046.04738514 0 15999
0.12150000 0.12150000 13452.40186653 0 205.33465646 0 5391.44192773 0 -293.77697005 0 -1941.91330888 0 15670
0.12250000 0.12250700 13413.91541312 0 -110.54706910 0 5927.98967130 0 597.57927301 0 -1409.38057860 0 16887
0.12350000 0.12352200 13340.04804144 0 -145.54201371 0 5329.71941671 0 681.19026121 0 -1608.52301981 0 16407
0.12450000 0.12449800 13492.21926357 0 49.51032679 0 4652.21365113 0 1017.86243545 0 -1232.53144327 0 16306
0.12550000 0.12549900 13399.27503315 0 -37.72082808 0 4289.93079401 0 662.61028808 0 -513.04660635 0 17523
0.12650000 0.12650100 13258.97139175 0 116.55517049 0 3481.38253649 0 668.50636838 0 286.59098354 0 17154
0.12750000 0.12750600 13194.86427339 0 195.97368624 0 3390.87836939 0 400.53417715 0 715.94230861 0 18007
0.12850000 0.12850300 12876.87965689 0 194.89118542 0 3589.61043631 0 -114.07628797 0 1200.91044077 0 17496
0.12950000 0.12949900 12514.41934062 0 168.96107607 0 3659.48497708 0 26.16335722 0 1497.45577357 0 18405
0.13050000 0.13049000 12404.06193098 0 231.52097246 0 3846.42710164 0 73.39100477 0 1438.41733221 0 18100
0.13150000 0.13148800 12337.07110142 0 -15.98674037 0 3862.11005413 0 247.30929131 0 1797.49483341 0 19059
0.13250000 0.13249300 12425.02429322 0 -23.37702672 0 3463.86953651 0 155.39321484 0 1712.95773027 0 18957
0.13350000 0.13349100 12251.00341310 0 142.13701625 0 4090.08960740 0 14.82715573 0 2033.84824038 0 19468
0.13450000 0.13450700 12151.62628844 0 247.60431715 0 3472.83122364 0 -135.11961594 0 1477.87981096 0 19953
0.13550000 0.13551000 11867.35891066 0 31.03128356 0 3708.96280667 0 207.91225063 0 1730.28217991 0 19956
0.13650000 0.13649900 11630.67276778 0 102.98886203 0 3451.31430156 0 282.57153377 0 1569.31563860 0 19723
0.13750000 0.13749600 11656.62616864 0 86.18603139 0 3006.86785745 0 193.10439359 0 783.75055939 0 20946
0.13850000 0.13851100 11402.30502262 0 -9.15465178 0 2417.93639070 0 147.74694367 0 246.21680841 0 20955
0.13950000 0.13949800 11393.76480097 0 221.06086461 0 2577.29470845 0 226.45562281 0 302.46248638 0 20506
0.14050000 0.14048300 11053.33160184 0 44.52339191 0 1570.28057273 0 -159.76425556 0 -191.01148472 0 21447
0.14150000 0.14148400 11084.05421739 0 53.46411668 0 2048.17806684 0 -93.49257920 0 -954.72468770 0 21771
0.14250000 0.14249400 10863.33939812 0 268.69977375 0 1853.37228364 0 -490.38729099 0 -1410.14587119 0 22470
0.14350000 0.14350900 10568.02518817 0 254.18139694 0 2267.16265938 0 -454.59599844 0 -1485.65474002 0 22519
0.14450000 0.14449900 10319.43819097 0 299.28707669 0 2710.18943028 0 -299.07967131 0 -1807.68764341 0 22218
0.14550000 0.14550500 10148.88885550 0 65.69260496 0 2909.95297852 0 212.92103517 0 -1531.26174187 0 23559
0.14650000 0.14650700 9997.79347948 0 2.97333917 0 2733.59185584 0 488.88776116 0 -1397.43535949 0 23044
0.14750000 0.14750500 9984.39531356 0 140.17387439 0 3077.41896124 0 -54.77365430 0 -771.88408777 0 23649
0.14850000 0.14849900 9977.21930914 0 78.39690560 0 2774.50728139 0 -10.24517154 0 -202.88128370 0 23640
0.14950000 0.14949500 9734.21118400 0 108.48643562 0 3135.54792444 0 10.90947878 0 -351.37133756 0 24457
0.15050000 0.15050000 9730.55108901 0 78.89157298 0 3150.16612202 0 10.23677550 0 -230.61593079 0 24591
0.15150000 0.15149900 9814.11216682 0 -2.44244794 0 2870.36849661 0 311.80903804 0 -107.78181188 0 25020
0.15250000 0.15250500 9657.77065463 0 -16.54496031 0 2792.43065565 0 274.44168641 0 -27.16744328 0 25297
0.15350000 0.15350100 9635.85444946 0 75.16448716 0 2437.57890049 0 137.94676204 0 -389.62043935 0 25452
0.15450000 0.15450400 9669.30549946 0 116.03721159 0 2599.58801432 0 -126.73578017 0 -415.24443166 0 26061
0.15550000 0.15549900 9263.94443340 0 218.77385980 0 2229.49695455 0 -214.92632358 0 -497.71746305 0 26128
0.15650000 0.15649500 9197.86308198 0 162.74667842 0 2486.92363572 0 189.86243672 0 -577.58849963 0 26331
0.15750000 0.15749700 8812.07797853 0 78.57270107 0 2416.39471432 0 167.02011660 0 -883.05337303 0 27345
0.15850000 0.15849900 8972.54541598 0 3.90110670 0 1862.04559965 0 355.22885586 0 -507.11059775 0 26980
0.15950000 0.15949700 8744.37731236 0 7.99087467 0 1979.39046336 0 229.30051483 0 -297.09545617 0 27777
0.16050000 0.16050000 8719.30011606 0 88.55766203 0 1350.40868443 0 221.30819831 0 -472.43618873 0 28224
0.16150000 0.16150500 8668.10315094 0 93.86380157 0 1622.25392163 0 29.95333013 0 241.15922260 0 28075
0.16250000 0.16249700 8693.54635674 0 -96.67164898 0 1235.79225517 0 626.42858540 0 476.50222153 0 28590
0.16350000 0.16349900 8652.99694070 0 -56.44210306 0 1404.23426322 0 429.35576154 0 1041.32475348 0 29163
0.16450000 0.16449100 8742.39198810 0 59.51103726 0 707.25013756 0 181.85902900 0 799.82835848 0 28996
0.16550000 0.16550500 8579.37357536 0 197.57525508 0 1343.21049761 0 -182.22614762 0 1649.82663725 0 30777
0.16650000 0.16650700 8376.80395430 0 254.60508066 0 1531.33938025 0 -564.88575177 0 1030.68385912 0 29211
0.16750000 0.16749900 8319.51792206 0 156.79070566 0 2196.71137637 0 -326.80100896 0 1434.39122772 0 30922
0.16850000 0.16850800 7987.94658929 0 115.52036181 0 2208.01330606 0 -482.26964394 0 794.49571099 0 30867
0.16950000 0.16949900 8172.49301531 0 55.38910482 0 2543.28909861 0 -179.25037948 0 1058.00591369 0 30852
0.17050000 0.17049200 8082.33267532 0 -110.55616388 0 2657.12914408 0 353.14592907 0 269.38410060 0 31257
0.17150000 0.17149500 8260.40184232 0 42.09397613 0 2551.46331076 0 22.32036839 0 204.46177926 0 32608
0.17250000 0.17250900 8276.50626029 0 103.79363928 0 2455.89046665 0 -127.78278916 0 480.70356693 0 32361
0.17350000 0.17350400 7935.21903900 0 115.95291850 0 2618.12140442 0 106.96915988 0 338.63753434 0 32508
0.17450000 0.17449800 7882.71331265 0 188.35625217 0 2552.72770721 0 -260.73629434 0 359.11964775 0 32791
0.17550000 0.17549800 7686.12184674 0 129.16031582 0 2633.40507381 0 -111.20144972 0 4.00065020 0 33633
0.17650000 0.17650100 7492.09244733 0 60.54983876 0 2552.58352165 0 275.41771174 0 -49.21186268 0 33984
0.17750000 0.17750300 7575.81989309 0 -12.33818022 0 2501.22018858 0 21.05297731 0 94.34039030 0 34069
