### header ###
fiducial parameters:
Omega_m = 0.31
Omega_nu = 0
Omega_de = 0.69
Omega_k = 0
H_0 = 100
w_de = -1
zeff = 0
beta = 0
fgrowth = 0
b_1 = 2
gamma = 0.55
Lx = 3500 Ly = 3500 Lz = 3500
nx = 700 ny = 700 nz = 700
xoffset = 1379.75464 yoffset = 22.6059522 zoffset = 368.141391
bins = 400 dk = 0.001
kx_ny = 0.628318531 ky_ny = 0.628318531 kz_ny = 0.628318531
############################
A(data) = 3.32706914 (not used)
A(ran) = 3.33365268 (used)
Ngal = 187233
weighted Ngal = 0
Nran = 9399747
weighted Nran = 0
SN(data) = 6618.87915
SN(ran) = 132.597312
SN(data+ran) = 6751.47646
############################
13 columns: k_central k_mean P_0(k) sigma^{lin}_{P_0(k)} P^img_1(k) sigma^{lin}_{P_1(k)} P_2(k) sigma^{lin}_{P_2(k)} P^img_3(k) sigma^{lin}_{P_3(k)} P_4(k) sigma^{lin}_{P_4(k)} N_modes
### header ###
0.00050000 0 0 0 0 0 0 0 0 0 0 0 0
0.00150000 0.00179520 16243.50157855 0 -12748.44359623 0 13814.52944689 0 -28885.58059604 0 98134.57786197 0 3
0.00250000 0.00253879 28106.64583437 0 -13921.22676153 0 -22784.75680270 0 6954.13612175 0 -26472.69069996 0 6
0.00350000 0.00331552 41655.76293829 0 -14403.47200484 0 -6946.57192543 0 -17252.57867690 0 8857.67388918 0 7
0.00450000 0.00420575 50659.59662085 0 -6968.00011793 0 -20823.94409423 0 -5105.79924152 0 -3907.65050880 0 24
0.00550000 0.00557378 58900.24504141 0 -210.41997026 0 -8685.57178614 0 -3334.51290650 0 23699.44781502 0 45
0.00650000 0.00659388 49782.61567816 0 846.09861391 0 -20071.51729326 0 2188.00478676 0 -20997.74315041 0 40
0.00750000 0.00754703 57997.86525771 0 -3574.07166938 0 -11749.01583922 0 16834.66237589 0 28690.70826566 0 57
0.00850000 0.00846663 62351.04914791 0 -7249.60560845 0 -21653.56562595 0 12028.29217838 0 2497.89282950 0 75
0.00950000 0.00948925 65446.26948025 0 2247.30941685 0 -9388.36548076 0 -12138.98232392 0 17634.33767586 0 112
0.01050000 0.01054430 54794.50575512 0 -504.00838996 0 -20451.72352464 0 7709.09171562 0 22118.84133793 0 105
0.01150000 0.01145670 65326.70637715 0 -9028.36741022 0 -21375.62023043 0 11170.60991837 0 23773.20427473 0 144
0.01250000 0.01249090 72100.21126540 0 -8112.06817434 0 -29362.39115285 0 6460.99932304 0 3256.98543983 0 169
0.01350000 0.01339930 88957.72150701 0 -5941.28801644 0 -29645.77123487 0 -75.82075328 0 14633.83616545 0 180
0.01450000 0.01448870 79727.18375882 0 2132.72626117 0 -15196.38167467 0 -24705.08664232 0 9765.81000411 0 267
0.01550000 0.01550050 91930.71684898 0 10420.11298567 0 -7616.38040033 0 -18704.30544545 0 -8045.18825674 0 238
0.01650000 0.01653350 74634.21703216 0 406.61658956 0 20573.83760304 0 -8297.97881759 0 3277.31560384 0 315
0.01750000 0.01747870 75860.68159070 0 5766.20238141 0 28003.71952669 0 856.73285355 0 14448.72408839 0 297
0.01850000 0.01844180 73762.00530415 0 968.12174450 0 35831.33177290 0 8657.42232828 0 35929.15612998 0 388
0.01950000 0.01947590 74421.82061060 0 -1955.68857549 0 35069.14471862 0 15644.68785532 0 19259.75258862 0 399
0.02050000 0.02045430 78805.50529242 0 -1615.56592987 0 40237.75340846 0 12275.73678229 0 43039.16793364 0 462
0.02150000 0.02154770 79476.96635566 0 3258.44947783 0 39714.91438432 0 1909.14991309 0 47366.17659905 0 571
0.02250000 0.02255340 73406.42152999 0 5787.19801723 0 36519.76236747 0 -1592.71806416 0 36726.72410253 0 510
0.02350000 0.02348930 74570.55356168 0 2206.90418636 0 60579.00861150 0 1221.55115829 0 50179.90235284 0 555
0.02450000 0.02439640 67342.19868658 0 5517.62647541 0 43776.51070676 0 4144.59174920 0 22876.37008950 0 592
0.02550000 0.02547300 64888.27136179 0 1356.88594345 0 53145.02294498 0 5813.27342126 0 46656.67273027 0 837
0.02650000 0.02652900 60898.54599558 0 -97.20946112 0 43146.41980813 0 8705.31411671 0 23589.53405327 0 723
0.02750000 0.02749970 68662.16203539 0 -1229.37045213 0 44004.32389207 0 10696.19506011 0 35651.43255840 0 826
0.02850000 0.02848090 59457.35586412 0 1215.97228622 0 32274.16308766 0 3796.42798580 0 12614.68376103 0 831
0.02950000 0.02946900 60945.46175867 0 3935.47832194 0 41783.97717501 0 63.40748566 0 21116.52986972 0 996
0.03050000 0.03053250 55908.94922448 0 1937.21064137 0 32760.06842597 0 688.34741060 0 17130.02095062 0 1041
0.03150000 0.03150510 57316.86576509 0 -2754.42112371 0 28276.34114768 0 14958.36458816 0 14106.78248647 0 1036
0.03250000 0.03246190 57113.45321306 0 -2435.40502589 0 17356.05954443 0 12539.26362178 0 16725.96864580 0 1059
0.03350000 0.03345080 57639.17594840 0 1229.42590812 0 14192.07379101 0 612.63557287 0 12874.77232947 0 1302
0.03450000 0.03451200 57442.52902651 0 1996.85909856 0 11321.11746096 0 4039.38065495 0 16493.60806973 0 1339
0.03550000 0.03553350 51226.68952082 0 2084.75683437 0 13315.20376028 0 -2016.87870905 0 15209.35837510 0 1365
0.03650000 0.03647120 48858.94079631 0 3146.10674394 0 12922.46447634 0 -3640.55230389 0 13640.39765480 0 1308
0.03750000 0.03744890 47426.40179848 0 1947.58091052 0 15135.26917948 0 -1346.75968063 0 9361.92406724 0 1579
0.03850000 0.03847530 45097.80499920 0 1001.86338385 0 21499.50890034 0 -356.27586485 0 10003.09507162 0 1662
0.03950000 0.03950240 43927.35098525 0 1433.83666788 0 15960.12149652 0 650.51201045 0 7333.34414541 0 1683
0.04050000 0.04050350 44392.07213738 0 582.47306277 0 24846.38849144 0 2081.40729289 0 12453.75049331 0 1822
0.04150000 0.04152450 42351.18098694 0 -262.54194120 0 17832.31554138 0 2447.33915381 0 9014.88051473 0 1887
0.04250000 0.04250150 42593.85637617 0 74.25744907 0 18906.38705385 0 7010.71231738 0 12411.38212097 0 1920
0.04350000 0.04349210 44453.51736848 0 -952.56412254 0 14596.45883174 0 1723.81601209 0 11913.83102587 0 2005
0.04450000 0.04448520 43714.40000385 0 637.07280711 0 15808.06118636 0 936.53512471 0 14922.76184596 0 2151
0.04550000 0.04548030 42869.36170836 0 1793.77928244 0 16808.04350321 0 -2593.31039684 0 10131.89714178 0 2274
0.04650000 0.04648670 40163.10965300 0 1687.01542061 0 18644.41298193 0 -1412.77448487 0 9324.44691275 0 2311
0.04750000 0.04749250 39774.58502390 0 963.90819878 0 19014.96987197 0 -591.77746789 0 8290.99136351 0 2568
0.04850000 0.04851840 38620.98962931 0 -206.31622739 0 19929.54997232 0 3201.49618150 0 8831.27684045 0 2493
0.04950000 0.04949480 39038.57319441 0 -179.50991349 0 18302.47138002 0 3651.68786563 0 7157.10502590 0 2644
0.05050000 0.05050630 38456.95082645 0 573.70214422 0 18074.32545879 0 -746.12811022 0 6577.64544134 0 2829
0.05150000 0.05149060 37974.48375920 0 847.37853804 0 17524.20209016 0 542.37173108 0 4185.37408038 0 2784
0.05250000 0.05249300 36318.12440695 0 1727.13227997 0 20421.55546895 0 -2228.44329084 0 7875.61494660 0 3055
0.05350000 0.05348950 33885.04853242 0 1909.60465217 0 17775.08496513 0 673.71479447 0 7070.67132808 0 3009
0.05450000 0.05448610 32833.38123779 0 368.98859479 0 20591.91625407 0 3530.69399812 0 7244.57020503 0 3336
0.05550000 0.05550870 33123.74877390 0 -1069.27235155 0 16824.45847470 0 4526.81657843 0 8626.65534795 0 3349
0.05650000 0.05647670 33448.38810857 0 -632.46774213 0 13921.89223335 0 4589.39311161 0 8778.88202606 0 3324
0.05750000 0.05747970 33348.34551210 0 -331.41494689 0 9161.87214788 0 1160.41648071 0 8349.80798092 0 3639
0.05850000 0.05849280 33318.73201625 0 290.66810754 0 8706.73378992 0 494.17160739 0 8555.19476601 0 3846
0.05950000 0.05951020 33388.16290914 0 421.02405439 0 9380.29108938 0 -1057.08201698 0 5687.61015984 0 3787
0.06050000 0.06049470 33314.07371353 0 21.80185493 0 8141.88131174 0 -636.42508121 0 2392.34899934 0 3930
0.06150000 0.06148310 32152.82539305 0 844.99503982 0 8458.36861665 0 -2115.52381471 0 770.14609721 0 4083
0.06250000 0.06249100 32374.09477217 0 720.62944844 0 9630.39758057 0 -529.32848347 0 -533.12943667 0 4303
0.06350000 0.06350600 31218.94661001 0 -385.43683987 0 8751.77514072 0 2138.81532830 0 168.37656999 0 4470
0.06450000 0.06451750 31177.46553342 0 104.70589023 0 7753.26795306 0 2250.57022875 0 527.71249608 0 4479
0.06550000 0.06550280 30388.21595859 0 682.23172460 0 8117.81341436 0 507.87034474 0 439.43211397 0 4636
0.06650000 0.06648880 29889.11209592 0 604.99373817 0 7020.13983479 0 341.83623554 0 3361.59760945 0 4653
0.06750000 0.06749660 29409.97238775 0 659.19419942 0 9634.36822907 0 -404.33180299 0 3595.86587139 0 5220
0.06850000 0.06852730 28495.50319937 0 610.38184165 0 8824.75521664 0 -317.28365286 0 4419.13214726 0 5029
0.06950000 0.06949320 27629.16980575 0 234.34700944 0 9916.89428894 0 424.67416731 0 1145.33245286 0 5040
0.07050000 0.07048030 27647.58119268 0 446.77559547 0 9711.99551651 0 -865.18545474 0 4287.63491624 0 5475
0.07150000 0.07148790 27489.86437208 0 -125.35825351 0 10725.96383272 0 1255.78968327 0 3510.03109820 0 5509
0.07250000 0.07249820 28114.63149617 0 -400.22473276 0 8410.56555781 0 1968.15508086 0 5363.92466810 0 5916
0.07350000 0.07351270 28413.65016590 0 -615.98511435 0 8111.06996661 0 737.78309364 0 3380.96283932 0 5721
0.07450000 0.07449140 28614.40083066 0 594.16207523 0 6500.61707853 0 658.17602754 0 4519.98440111 0 6028
0.07550000 0.07549160 28046.97519479 0 903.83938523 0 9788.30295152 0 -1363.49629683 0 4809.67537420 0 6183
0.07650000 0.07648840 26545.78168785 0 909.56244285 0 8259.68091452 0 -1174.74630716 0 2856.27158529 0 6330
0.07750000 0.07749960 25960.16648898 0 622.07529059 0 11271.42889863 0 -636.23985822 0 2734.23514527 0 6583
0.07850000 0.07848650 24843.17204432 0 591.95714528 0 9464.22926789 0 411.82723388 0 1449.70817071 0 6549
0.07950000 0.07947320 24709.30129716 0 73.93502798 0 10431.72546888 0 1130.31497219 0 2413.61082389 0 6828
0.08050000 0.08048110 24206.09369162 0 14.99308003 0 8537.40448611 0 932.73860799 0 1663.42444470 0 7147
0.08150000 0.08149960 23745.03263448 0 390.30032973 0 7516.54853660 0 1354.85625441 0 2308.33318245 0 7386
0.08250000 0.08250610 23471.30189380 0 455.95467006 0 7174.79548503 0 -561.13138160 0 836.13982817 0 7227
0.08350000 0.08350160 22683.38326260 0 971.89829706 0 7635.24652634 0 -563.92303587 0 247.18285167 0 7798
0.08450000 0.08449610 21588.68212381 0 442.96909668 0 8688.38895016 0 -1068.74884705 0 793.09267458 0 7371
0.08550000 0.08548940 20493.09368926 0 338.07521066 0 7237.11692068 0 -125.20297675 0 -1656.00443395 0 8256
0.08650000 0.08650700 20691.18246676 0 -75.25798595 0 7655.22177204 0 1480.05368556 0 -1142.62620080 0 8037
0.08750000 0.08749060 20542.11677977 0 20.17411087 0 6561.96248886 0 648.16954965 0 -2234.07761889 0 8155
0.08850000 0.08849210 20387.06184644 0 377.97135520 0 6533.84630459 0 513.19966487 0 -825.17728911 0 8718
0.08950000 0.08949900 19897.71823708 0 584.21105333 0 6826.37662410 0 -745.52918559 0 -1618.50509706 0 8571
0.09050000 0.09049190 19147.84241141 0 577.36223922 0 7254.71865024 0 -817.84822617 0 -898.09636345 0 8932
0.09150000 0.09150830 18826.30861188 0 170.98300127 0 7721.87986570 0 188.93632177 0 -911.47012873 0 9285
0.09250000 0.09250820 18604.81740883 0 147.02934322 0 8274.95349272 0 216.12528197 0 -1078.34605977 0 9204
0.09350000 0.09350330 18455.64080987 0 -96.53112352 0 6887.76639921 0 1387.70837977 0 123.28530880 0 9349
0.09450000 0.09448040 18785.49300711 0 -3.33879411 0 8118.86707807 0 236.75379918 0 46.75549530 0 9564
0.09550000 0.09549270 18405.39768770 0 253.67563836 0 7129.45467191 0 613.44523025 0 988.71587899 0 10155
0.09650000 0.09649430 18019.20220996 0 398.01425721 0 7789.17015759 0 16.30206310 0 2575.17628983 0 9913
0.09750000 0.09749140 17693.56466756 0 62.97903272 0 7072.15754847 0 623.34079617 0 2821.30104131 0 10476
0.09850000 0.09850240 17875.34938554 0 -152.95758799 0 6972.64732945 0 1164.39822041 0 2816.70928577 0 10575
0.09950000 0.09950330 17986.26135502 0 137.61180790 0 6953.09354923 0 3.11614942 0 2735.53281531 0 10882
0.10050000 0.10051200 17453.99481348 0 527.15460887 0 6436.42123060 0 -418.06381393 0 2518.02335196 0 10875
0.10150000 0.10150300 17104.17846173 0 289.91168791 0 6540.44556678 0 137.74046578 0 2242.37383420 0 11118
0.10250000 0.10250800 16399.00015976 0 211.37048584 0 6909.73806036 0 -554.62195811 0 1402.55949248 0 11575
0.10350000 0.10349800 16430.38824713 0 412.48826922 0 6330.45593496 0 522.15580641 0 1128.87311659 0 11364
0.10450000 0.10450100 15580.35891302 0 194.70485331 0 6958.71678609 0 458.72857842 0 406.96152578 0 12093
0.10550000 0.10551000 15386.48479036 0 168.84794586 0 5032.33115294 0 409.20638405 0 755.37151376 0 12067
0.10650000 0.10649700 15552.85274458 0 -115.27302812 0 5403.14314051 0 678.34536919 0 263.95052321 0 12054
0.10750000 0.10749900 15216.90038902 0 52.74773627 0 4509.73613513 0 221.04422782 0 -363.02929467 0 12807
0.10850000 0.10850100 15300.86074992 0 254.81470429 0 4806.85821018 0 -316.84887794 0 -278.28367703 0 12736
0.10950000 0.10950300 14839.46695687 0 154.71554271 0 4683.35773216 0 -506.65364043 0 -1164.42040281 0 12933
0.11050000 0.11050200 14783.23458835 0 102.26272137 0 4983.05296490 0 -156.45907887 0 -1226.73074726 0 13428
0.11150000 0.11150900 14672.32261886 0 -4.33242117 0 4886.60391624 0 649.11673787 0 -215.48421079 0 13453
0.11250000 0.11250000 15077.59495535 0 -321.69351277 0 3934.05864873 0 1082.51524070 0 -642.24352312 0 13668
0.11350000 0.11349100 15283.44757071 0 -219.93510812 0 4082.62523185 0 1067.70738366 0 923.97656240 0 13791
0.11450000 0.11448600 15294.98241554 0 200.36580023 0 3370.55929658 0 -117.13524009 0 489.27928041 0 14205
0.11550000 0.11549300 15174.31019274 0 312.20055730 0 3816.23686355 0 -105.06457954 0 1731.33584362 0 14776
0.11650000 0.11649800 14467.24638729 0 441.52613195 0 4184.74188216 0 -712.08589943 0 588.91261172 0 14553
0.11750000 0.11747300 14253.85175801 0 302.11644103 0 5238.74941934 0 -337.19900610 0 1262.13384792 0 14568
0.11850000 0.11849100 13911.24468428 0 153.05851789 0 4878.57388965 0 248.99071677 0 1144.17896838 0 16015
0.11950000 0.11950300 13946.18195466 0 -62.69687267 0 4706.72688413 0 511.58589572 0 1180.86864788 0 15270
0.12050000 0.12050700 14193.73747055 0 -265.84046317 0 4333.59683640 0 479.55119157 0 1536.03095656 0 15999
0.12150000 0.12150000 14267.49393025 0 33.40147235 0 3851.44032266 0 649.06239101 0 583.89717246 0 15670
0.12250000 0.12250700 14086.92924394 0 225.43079621 0 4010.54354289 0 -297.40933705 0 1560.19867471 0 16887
0.12350000 0.12352200 13706.05754074 0 408.11057379 0 4441.36999714 0 -772.42311995 0 693.72442288 0 16407
0.12450000 0.12449800 13524.38373472 0 300.13444414 0 4799.67111456 0 -291.41343598 0 1265.33920384 0 16306
0.12550000 0.12549900 13075.07934635 0 58.28446179 0 5459.40878263 0 99.79027174 0 247.66975521 0 17523
0.12650000 0.12650100 13143.29020758 0 81.10570863 0 4676.73628758 0 -45.27271318 0 495.95063538 0 17154
0.12750000 0.12750600 13197.41524869 0 18.51142953 0 5116.72407052 0 300.75555117 0 215.34002523 0 18007
0.12850000 0.12850300 12967.27291201 0 170.56819051 0 4676.21500132 0 -42.26034408 0 -68.85082330 0 17496
0.12950000 0.12949900 12791.58835235 0 148.94368382 0 4631.14037693 0 34.41587322 0 -19.68177263 0 18405
0.13050000 0.13049000 12721.04833976 0 41.04918538 0 4453.80322892 0 417.88080918 0 -135.49006192 0 18100
0.13150000 0.13148800 12676.90537591 0 66.00426760 0 4064.31366569 0 308.77226832 0 444.54626488 0 19059
0.13250000 0.13249300 12505.76820700 0 115.11553313 0 4122.94173276 0 -181.13144648 0 -923.16246855 0 18957
0.13350000 0.13349100 12172.03409083 0 283.26917006 0 3952.92477474 0 -9.86127194 0 -363.67591145 0 19468
0.13450000 0.13450700 11953.20477504 0 172.54575092 0 4235.65047615 0 -229.48130134 0 -306.50966414 0 19953
0.13550000 0.13551000 11901.85253317 0 81.33940015 0 4328.35070024 0 115.38837657 0 -695.40917570 0 19956
0.13650000 0.13649900 11728.71894881 0 69.26141941 0 4052.20207862 0 246.61054590 0 -858.01277768 0 19723
0.13750000 0.13749600 11571.22395214 0 160.54396671 0 4002.71315784 0 6.33384984 0 -729.69206546 0 20946
0.13850000 0.13851100 11497.35658047 0 111.02177233 0 3876.43988059 0 253.45936002 0 5.70586627 0 20955
0.13950000 0.13949800 11394.20844885 0 -72.76268846 0 3410.40996722 0 1100.06595075 0 -86.93524174 0 20506
0.14050000 0.14048300 11276.97449711 0 92.33077632 0 3011.33760982 0 335.24140984 0 828.46028341 0 21447
0.14150000 0.14148400 11160.18419324 0 147.13249136 0 2666.94485338 0 622.39138971 0 804.10401491 0 21771
0.14250000 0.14249400 10800.54104100 0 233.90557980 0 2465.17379850 0 86.76909561 0 1295.24107081 0 22470
0.14350000 0.14350900 10507.52270882 0 257.13941917 0 2476.59773136 0 -213.67634569 0 1145.03299054 0 22519
0.14450000 0.14449900 10150.34180230 0 185.71100170 0 2645.90485277 0 -18.12179578 0 832.70599360 0 22218
0.14550000 0.14550500 10171.68126523 0 108.19939544 0 2710.31143345 0 -183.91533692 0 982.95732954 0 23559
0.14650000 0.14650700 9958.29772714 0 -30.67059783 0 2505.13538110 0 -247.06861234 0 -272.54287349 0 23044
0.14750000 0.14750500 10025.42165107 0 145.96126096 0 2881.01604568 0 -179.75170158 0 -242.25836022 0 23649
0.14850000 0.14849900 9895.55482601 0 156.11968824 0 2960.50665421 0 -400.57521458 0 -514.89439977 0 23640
0.14950000 0.14949500 9732.32568052 0 210.50980896 0 3513.93519953 0 -140.66521442 0 -549.10186939 0 24457
0.15050000 0.15050000 9552.54846919 0 38.26529494 0 3580.98148508 0 29.96652865 0 -224.17860008 0 24591
0.15150000 0.15149900 9755.21791102 0 -59.50770990 0 3509.08834646 0 472.29200317 0 -64.08926153 0 25020
0.15250000 0.15250500 9650.68337978 0 -9.32818465 0 3177.06227462 0 381.84440117 0 156.91049059 0 25297
0.15350000 0.15350100 9683.51332275 0 53.73307821 0 3151.98507832 0 84.06994192 0 391.74440357 0 25452
0.15450000 0.15450400 9523.75572191 0 184.91354464 0 2916.16404881 0 -45.16546130 0 488.12912329 0 26061
0.15550000 0.15549900 9507.62912155 0 75.66181643 0 2959.76354401 0 -150.51641554 0 -98.67094815 0 26128
0.15650000 0.15649500 9279.88248341 0 68.66249477 0 3145.15290100 0 -88.17767763 0 280.20910882 0 26331
0.15750000 0.15749700 9236.03898188 0 66.22853160 0 2906.53688986 0 54.08755286 0 -517.48197601 0 27345
0.15850000 0.15849900 9138.84682302 0 -18.18102277 0 2798.25353405 0 281.14076936 0 -340.85244637 0 26980
0.15950000 0.15949700 9158.16768810 0 -6.24129380 0 2391.37297401 0 105.21253611 0 -1104.68210692 0 27777
0.16050000 0.16050000 9235.57315160 0 3.71780249 0 2366.16268334 0 208.78623695 0 -456.72661737 0 28224
0.16150000 0.16150500 9153.52047658 0 41.08312444 0 2140.35700467 0 94.26674475 0 -754.74707937 0 28075
0.16250000 0.16249700 9079.40909857 0 136.81435084 0 2144.64929789 0 -162.61691142 0 -1043.23909407 0 28590
0.16350000 0.16349900 8908.29411206 0 258.17200960 0 2360.50617290 0 -297.39824585 0 -567.47776450 0 29163
0.16450000 0.16449100 8598.31733975 0 121.34989493 0 2330.40466438 0 -40.16255509 0 -897.16359378 0 28996
0.16550000 0.16550500 8636.82597555 0 4.07705745 0 2886.33982021 0 367.33600645 0 -282.08795758 0 30777
0.16650000 0.16650700 8511.90582432 0 26.98843136 0 2141.16666205 0 320.52782797 0 -1091.47138224 0 29211
0.16750000 0.16749900 8515.27754819 0 105.88288805 0 2490.65027789 0 229.69757968 0 137.11935875 0 30922
0.16850000 0.16850800 8265.38178975 0 74.77097149 0 1943.86535954 0 224.77086999 0 419.44466795 0 30867
0.16950000 0.16949900 8396.91229436 0 -9.77172161 0 1989.58327336 0 481.56313470 0 497.91488636 0 30852
0.17050000 0.17049200 8252.94855798 0 58.51105494 0 1825.99920957 0 34.61662388 0 697.40337291 0 31257
0.17150000 0.17149500 8164.71808625 0 167.44823681 0 1579.89664049 0 -72.91474877 0 588.54549310 0 32608
0.17250000 0.17250900 8039.16573680 0 81.37899572 0 1912.71018731 0 15.08924071 0 1132.38902602 0 32361
0.17350000 0.17350400 7903.13220623 0 7.57729502 0 1654.05238328 0 89.33892595 0 340.95559451 0 32508
0.17450000 0.17449800 7973.89404276 0 109.40733770 0 1658.73286839 0 58.98453814 0 851.47562619 0 32791
0.17550000 0.17549800 7779.75373138 0 76.20406505 0 1691.29662263 0 -138.66436249 0 204.23108237 0 33633
0.17650000 0.17650100 7808.73502900 0 108.75706083 0 1732.70006084 0 103.81238340 0 535.11808828 0 33984
0.17750000 0.17750300 7618.50991014 0 111.76044605 0 1687.10415019 0 -111.04617297 0 289.88728728 0 34069
0.17850000 0.17849800 7472.39448155 0 43.89851387 0 1690.29841491 0 48.14788416 0 151.81075823 0 34536
