### header ###
fiducial parameters:
Omega_m = 0.31
Omega_nu = 0
Omega_de = 0.69
Omega_k = 0
H_0 = 100
w_de = -1
zeff = 0
beta = 0
fgrowth = 0
b_1 = 2
gamma = 0.55
Lx = 3500 Ly = 3500 Lz = 3500
nx = 700 ny = 700 nz = 700
xoffset = 1379.75464 yoffset = 22.6059522 zoffset = 368.141391
bins = 400 dk = 0.001
kx_ny = 0.628318531 ky_ny = 0.628318531 kz_ny = 0.628318531
############################
A(data) = 3.33497654 (not used)
A(ran) = 3.33308551 (used)
Ngal = 187517
weighted Ngal = 0
Nran = 9399747
weighted Nran = 0
SN(data) = 6692.19733
SN(ran) = 132.574752
SN(data+ran) = 6824.77208
############################
13 columns: k_central k_mean P_0(k) sigma^{lin}_{P_0(k)} P^img_1(k) sigma^{lin}_{P_1(k)} P_2(k) sigma^{lin}_{P_2(k)} P^img_3(k) sigma^{lin}_{P_3(k)} P_4(k) sigma^{lin}_{P_4(k)} N_modes
### header ###
0.00050000 0 0 0 0 0 0 0 0 0 0 0 0
0.00150000 0.00179520 31569.20660963 0 -21570.49256081 0 -33284.01656980 0 27450.60153488 0 17212.09580804 0 3
0.00250000 0.00253879 42096.85984092 0 -13475.91520406 0 22625.70903847 0 -72519.45851004 0 6812.21316560 0 6
0.00350000 0.00331552 36829.65041021 0 9197.03124221 0 -23228.07194472 0 11637.32748595 0 2781.62782983 0 7
0.00450000 0.00420575 41168.08300847 0 5460.76190865 0 28616.84089399 0 -19923.56072597 0 -6593.67222093 0 24
0.00550000 0.00557378 51518.05526465 0 -10638.02173212 0 33041.67391648 0 18772.18357078 0 3262.85268302 0 45
0.00650000 0.00659388 49284.17728731 0 -8108.77408885 0 42265.00238665 0 3893.02122002 0 -32801.66041452 0 40
0.00750000 0.00754703 104239.06175030 0 -31013.31581859 0 4030.54097098 0 16952.33997551 0 3122.40485606 0 57
0.00850000 0.00846663 105034.30057148 0 -11450.88446525 0 6556.30597841 0 -3816.43650510 0 -22324.47212935 0 75
0.00950000 0.00948925 136386.23063290 0 13328.06954874 0 1320.36263190 0 -42362.60491980 0 -18272.96879614 0 112
0.01050000 0.01054430 110162.09365656 0 6816.16163171 0 52866.30116567 0 -24938.66725005 0 -20755.51140906 0 105
0.01150000 0.01145670 101324.40610427 0 9007.78214868 0 44465.71768512 0 -6330.93285642 0 -32633.85060469 0 144
0.01250000 0.01249090 102685.96144164 0 2784.24535231 0 60049.40395722 0 9637.40721704 0 -35465.65500951 0 169
0.01350000 0.01339930 100119.68029176 0 -3666.09533046 0 27814.83644266 0 16674.28366802 0 -43047.26450741 0 180
0.01450000 0.01448870 95646.82238648 0 3883.19441953 0 43624.11766069 0 -1446.08134931 0 -35410.86449659 0 267
0.01550000 0.01550050 93276.74451061 0 3403.05650364 0 24300.36886568 0 -5880.47498357 0 -29027.76974092 0 238
0.01650000 0.01653350 85547.73300527 0 3362.52926999 0 29984.71821361 0 5698.36862088 0 -33154.47138944 0 315
0.01750000 0.01747870 82359.79026645 0 6883.08591410 0 24980.92471042 0 1678.30883101 0 -24594.06376087 0 297
0.01850000 0.01844180 72483.30120799 0 5079.76820229 0 14612.65197928 0 9111.77321127 0 -14994.96553809 0 388
0.01950000 0.01947590 69293.47296568 0 -1518.51795658 0 7592.45668851 0 13552.33355103 0 -10519.43465434 0 399
0.02050000 0.02045430 70577.38992441 0 -2395.01088661 0 3592.67160667 0 11160.62784112 0 -6751.95469258 0 462
0.02150000 0.02154770 68464.40599381 0 2312.89166440 0 -7396.44196485 0 324.93214227 0 -4236.42685993 0 571
0.02250000 0.02255340 59502.60794767 0 6914.30763351 0 925.27534157 0 -7293.00546211 0 -6976.56252198 0 510
0.02350000 0.02348930 54379.80590123 0 4751.39113424 0 2962.89126155 0 -14849.44903413 0 222.19882142 0 555
0.02450000 0.02439640 51868.20435230 0 3468.15073853 0 7934.56465838 0 156.99367456 0 -9676.32622713 0 592
0.02550000 0.02547300 48283.75132258 0 -313.79990790 0 11772.19644084 0 1996.77036898 0 -1889.05266422 0 837
0.02650000 0.02652900 50415.92302390 0 -1296.86038556 0 13382.97097363 0 528.49220722 0 -7679.01238950 0 723
0.02750000 0.02749970 54684.25925746 0 -2506.87669903 0 8176.87403811 0 8513.14803838 0 4630.29744596 0 826
0.02850000 0.02848090 56139.75703297 0 -1356.40902198 0 15711.12412504 0 -4090.38906972 0 -5927.40183786 0 831
0.02950000 0.02946900 56846.48810251 0 2840.06734655 0 9767.42931886 0 -7802.75687385 0 3559.27601265 0 996
0.03050000 0.03053250 56012.09735610 0 1653.87492413 0 27206.37337808 0 -3715.35133611 0 6028.27627410 0 1041
0.03150000 0.03150510 55710.30588714 0 755.10421591 0 26378.08278999 0 3130.66779779 0 151.84846830 0 1036
0.03250000 0.03246190 54611.50100548 0 201.91524044 0 31328.41672389 0 3007.47787328 0 7279.37438106 0 1059
0.03350000 0.03345080 55979.60014904 0 -799.30596311 0 22649.22237600 0 6872.76000974 0 7408.12099523 0 1302
0.03450000 0.03451200 55338.08531755 0 -532.06246352 0 22555.16902587 0 10162.06519748 0 21285.11606333 0 1339
0.03550000 0.03553350 56847.70813418 0 -1100.18129920 0 19597.03588781 0 7091.78896707 0 18639.42194330 0 1365
0.03650000 0.03647120 56965.27482183 0 -676.80036546 0 8261.10058773 0 7176.99154203 0 20144.05372130 0 1308
0.03750000 0.03744890 57342.04278216 0 586.06328322 0 9553.85723043 0 598.87139746 0 16624.81692963 0 1579
0.03850000 0.03847530 55035.40655284 0 643.64545042 0 3477.30097601 0 -1520.41455125 0 13260.30233539 0 1662
0.03950000 0.03950240 52442.61744225 0 2912.59268339 0 11312.24450340 0 -4524.93107495 0 11374.35520631 0 1683
0.04050000 0.04050350 48368.48806726 0 3722.66043490 0 9495.80590560 0 -5991.50895622 0 -4670.30339335 0 1822
0.04150000 0.04152450 46209.80840523 0 1599.19532318 0 13618.21526091 0 -3999.99581459 0 -1375.51915432 0 1887
0.04250000 0.04250150 42109.06015756 0 711.93616827 0 11826.98695377 0 1126.39977967 0 -12422.80605383 0 1920
0.04350000 0.04349210 43687.89204314 0 573.18862181 0 13257.30771221 0 549.80505128 0 -5770.79413695 0 2005
0.04450000 0.04448520 41006.26244500 0 606.11505819 0 10102.10618677 0 2383.18767066 0 -9258.70938844 0 2151
0.04550000 0.04548030 40815.93750537 0 640.19497905 0 10449.38265442 0 3816.53632587 0 -958.00990024 0 2274
0.04650000 0.04648670 41353.63873342 0 -830.19716485 0 7221.63360975 0 3176.58535315 0 -684.71726184 0 2311
0.04750000 0.04749250 40058.51966577 0 752.27485157 0 6413.67318566 0 1717.51621222 0 -1023.78735286 0 2568
0.04850000 0.04851840 40023.24965948 0 1040.47073131 0 9336.13703433 0 -1434.15831259 0 4750.01582582 0 2493
0.04950000 0.04949480 38460.16727357 0 496.10258478 0 6756.31353298 0 -374.42549954 0 -795.76343480 0 2644
0.05050000 0.05050630 39694.17384602 0 307.82951658 0 12542.36915693 0 -1502.19171467 0 6839.94115797 0 2829
0.05150000 0.05149060 36608.82467897 0 949.51737074 0 8918.93056993 0 47.83189596 0 -1564.11386723 0 2784
0.05250000 0.05249300 38581.06132030 0 -389.94652054 0 12076.87162101 0 844.58577465 0 4771.18892079 0 3055
0.05350000 0.05348950 36054.70847943 0 371.12032285 0 10448.45099388 0 597.60256453 0 -766.48378398 0 3009
0.05450000 0.05448610 37994.66973765 0 1160.62721345 0 11848.50387585 0 597.51050759 0 2700.69536570 0 3336
0.05550000 0.05550870 35328.12416736 0 950.50005079 0 11557.02722005 0 -1825.18955219 0 2272.61952828 0 3349
0.05650000 0.05647670 34642.46637202 0 574.67262396 0 11339.63975986 0 1666.16397035 0 4053.58847824 0 3324
0.05750000 0.05747970 34280.89335151 0 -608.76252690 0 10780.70998085 0 2935.38509312 0 3909.62474185 0 3639
0.05850000 0.05849280 35478.96444585 0 -478.30343191 0 9244.84539225 0 2266.50827876 0 4032.01610018 0 3846
0.05950000 0.05951020 35659.30730823 0 300.33630392 0 8907.95028495 0 695.53228798 0 5923.93029321 0 3787
0.06050000 0.06049470 34529.33616315 0 840.69276452 0 9252.57595652 0 -1461.87521376 0 6325.74217625 0 3930
0.06150000 0.06148310 33898.02523285 0 1507.89258990 0 11738.70102606 0 -2900.92474420 0 5142.67747138 0 4083
0.06250000 0.06249100 32439.64374613 0 266.39835038 0 11241.03901899 0 914.49913461 0 3623.20567186 0 4303
0.06350000 0.06350600 32685.75740641 0 -118.12568398 0 14758.83395506 0 357.21528923 0 4793.47113546 0 4470
0.06450000 0.06451750 32249.98427832 0 556.99214690 0 9391.63738386 0 454.99417241 0 34.84488072 0 4479
0.06550000 0.06550280 31759.97519714 0 934.89140932 0 13924.99776849 0 170.82772452 0 3411.55236050 0 4636
0.06650000 0.06648880 30237.59750403 0 292.82534535 0 10269.10633922 0 142.61948332 0 2812.92718761 0 4653
0.06750000 0.06749660 29863.82416688 0 485.74895242 0 12164.04842902 0 2029.05684330 0 2103.22367729 0 5220
0.06850000 0.06852730 28913.19767644 0 519.51942889 0 8293.06541734 0 900.16376256 0 3406.10658280 0 5029
0.06950000 0.06949320 28191.82622693 0 451.34295037 0 10164.71599355 0 997.19509906 0 706.32513173 0 5040
0.07050000 0.07048030 27785.11203484 0 645.32909412 0 9633.21474459 0 30.61425455 0 3184.80393009 0 5475
0.07150000 0.07148790 27008.28460059 0 461.05329330 0 8823.16917548 0 -453.23954505 0 993.90212268 0 5509
0.07250000 0.07249820 26247.53940191 0 311.64267009 0 9140.03358109 0 -544.97150765 0 842.29655160 0 5916
0.07350000 0.07351270 26296.89522833 0 -225.62156480 0 8913.98389609 0 589.27307562 0 -1147.49523626 0 5721
0.07450000 0.07449140 26103.46475355 0 72.00005776 0 9105.97251526 0 224.67437658 0 -2043.65285848 0 6028
0.07550000 0.07549160 26177.77577310 0 484.99807839 0 7407.18933469 0 -38.45062884 0 -1792.35960923 0 6183
0.07650000 0.07648840 26111.56132732 0 -259.43751517 0 8756.45562583 0 605.52500651 0 -1348.02407709 0 6330
0.07750000 0.07749960 26060.98546924 0 -104.09809264 0 6753.51855135 0 715.03283046 0 -1361.57751976 0 6583
0.07850000 0.07848650 26287.46771092 0 275.75155677 0 7310.21899977 0 391.89968033 0 -2327.45440599 0 6549
0.07950000 0.07947320 25072.53799721 0 635.15513916 0 6646.35540643 0 -270.44663727 0 -2651.72773117 0 6828
0.08050000 0.08048110 24501.89591423 0 1229.02662503 0 9174.70466275 0 -2043.32012257 0 -2054.46677551 0 7147
0.08150000 0.08149960 23065.14226155 0 374.80260023 0 7740.70162692 0 505.19847539 0 -2096.91278623 0 7386
0.08250000 0.08250610 23516.11032947 0 -410.84011736 0 7925.24805294 0 2565.56022208 0 -1058.61149304 0 7227
0.08350000 0.08350160 23036.19423752 0 74.29449367 0 6920.96235168 0 543.17473374 0 -1392.33340890 0 7798
0.08450000 0.08449610 22994.93498487 0 765.80056625 0 6369.37494505 0 1077.69057003 0 890.59316871 0 7371
0.08550000 0.08548940 21629.38681661 0 1112.43596271 0 6672.40862807 0 -760.96702262 0 -840.91237022 0 8256
0.08650000 0.08650700 20283.13733103 0 753.51928387 0 8345.43804933 0 -1537.91646004 0 1905.03507902 0 8037
0.08750000 0.08749060 19195.20182238 0 472.05354243 0 8649.12611297 0 290.04810963 0 -165.94981610 0 8155
0.08850000 0.08849210 19734.56672997 0 61.37812935 0 7545.43001345 0 465.96225707 0 785.69484621 0 8718
0.08950000 0.08949900 19130.98379205 0 -176.20140944 0 8677.02047329 0 1029.54479320 0 -779.83203951 0 8571
0.09050000 0.09049190 19379.98116354 0 244.12611779 0 7251.84603023 0 2.31159399 0 -123.64244534 0 8932
0.09150000 0.09150830 18699.09258289 0 340.51638311 0 7757.19423678 0 -498.46944620 0 -280.18914467 0 9285
0.09250000 0.09250820 18720.27676906 0 239.37132166 0 7575.87534907 0 -110.53231781 0 18.32787022 0 9204
0.09350000 0.09350330 18650.40222828 0 54.34719778 0 7787.21810692 0 1145.06626413 0 811.17798032 0 9349
0.09450000 0.09448040 18395.63743438 0 -33.88992866 0 6692.41714736 0 914.01112195 0 -60.21355367 0 9564
0.09550000 0.09549270 18100.27885965 0 350.53284307 0 7006.48657134 0 397.55508165 0 1340.75934309 0 10155
0.09650000 0.09649430 17689.90457257 0 149.71895848 0 5918.98361937 0 816.82672693 0 1450.92820237 0 9913
0.09750000 0.09749140 17249.25131781 0 279.54141876 0 6778.15209977 0 377.82716964 0 2453.80532163 0 10476
0.09850000 0.09850240 17180.48589674 0 403.72955099 0 5875.15120903 0 -435.37162677 0 992.46359444 0 10575
0.09950000 0.09950330 16476.63853840 0 243.99191430 0 6551.72531407 0 414.52904946 0 1976.29601942 0 10882
0.10050000 0.10051200 16571.13553640 0 111.21808652 0 5642.81281536 0 -117.19956903 0 1097.16449363 0 10875
0.10150000 0.10150300 16248.27079324 0 -28.23375095 0 5999.12860852 0 313.94187522 0 844.73550581 0 11118
0.10250000 0.10250800 16486.06605581 0 171.42775827 0 5454.29574083 0 80.18192283 0 911.01317141 0 11575
0.10350000 0.10349800 16074.13900115 0 11.42637292 0 5262.00765934 0 355.43182476 0 2.07865668 0 11364
0.10450000 0.10450100 16147.22998904 0 131.59261531 0 5079.40219279 0 20.35944477 0 828.70872622 0 12093
0.10550000 0.10551000 15821.81427058 0 207.50742194 0 5391.48629252 0 96.39436906 0 350.62822736 0 12067
0.10650000 0.10649700 15731.97557530 0 -27.32438371 0 5039.57370455 0 675.92970650 0 2046.45893131 0 12054
0.10750000 0.10749900 15819.81785513 0 -295.52050621 0 4419.67561591 0 1104.40593612 0 2243.44968031 0 12807
0.10850000 0.10850100 16483.62599248 0 -280.31669343 0 4271.13121518 0 1153.00756115 0 2276.45708243 0 12736
0.10950000 0.10950300 16376.70685390 0 46.65267990 0 3746.59523791 0 111.12048398 0 2718.05308892 0 12933
0.11050000 0.11050200 16203.90600544 0 252.24265571 0 4024.70700139 0 -299.62203084 0 2686.54299839 0 13428
0.11150000 0.11150900 16088.44664521 0 304.78941950 0 4475.91907564 0 -794.25503202 0 3326.41633273 0 13453
0.11250000 0.11250000 15800.29734850 0 395.56532092 0 5226.16091081 0 -311.05150929 0 2183.73467594 0 13668
0.11350000 0.11349100 15532.00129432 0 170.61588265 0 5705.14534221 0 -199.39421138 0 2338.01322549 0 13791
0.11450000 0.11448600 15185.84503757 0 283.34791756 0 5292.50845095 0 19.70373320 0 1990.89203460 0 14205
0.11550000 0.11549300 15105.98841954 0 15.91930589 0 4884.38567685 0 811.46413320 0 2016.05796048 0 14776
0.11650000 0.11649800 14791.33116212 0 78.37538867 0 5241.28930344 0 456.67448874 0 2067.18837841 0 14553
0.11750000 0.11747300 14751.95741295 0 41.11928174 0 3982.13898750 0 242.99814306 0 1946.09469013 0 14568
0.11850000 0.11849100 14684.30111157 0 53.18384213 0 3811.52310485 0 315.62440979 0 1690.32059730 0 16015
0.11950000 0.11950300 14569.83995906 0 64.57583234 0 3273.45586730 0 259.97211087 0 1195.10974476 0 15270
0.12050000 0.12050700 14443.51122582 0 29.67394288 0 3107.95302644 0 211.68103936 0 1233.54074219 0 15999
0.12150000 0.12150000 14453.71512702 0 156.37256753 0 2646.35959185 0 289.78413914 0 975.98540313 0 15670
0.12250000 0.12250700 13922.89044107 0 314.37886838 0 3304.01211489 0 -190.77413311 0 1535.69822065 0 16887
0.12350000 0.12352200 13577.17783220 0 503.41279268 0 3160.12601688 0 -454.27213549 0 893.27612925 0 16407
0.12450000 0.12449800 13025.39078402 0 297.80307454 0 4029.87549917 0 155.38545101 0 1439.02734805 0 16306
0.12550000 0.12549900 12640.08260204 0 120.76317061 0 3569.21372512 0 161.65974112 0 1607.18098498 0 17523
0.12650000 0.12650100 12798.46489446 0 -162.49269001 0 3772.80373630 0 660.10035021 0 1834.84998474 0 17154
0.12750000 0.12750600 12891.07638898 0 -48.37725011 0 3088.59888776 0 462.17794067 0 1408.00527018 0 18007
0.12850000 0.12850300 12959.39816218 0 125.77971899 0 2774.19672787 0 -106.18922691 0 1529.99734542 0 17496
0.12950000 0.12949900 12639.63895416 0 102.24475363 0 2878.78671509 0 -551.48204026 0 1046.13167823 0 18405
0.13050000 0.13049000 12787.26278554 0 108.45471480 0 2744.32813449 0 -314.82806185 0 232.92733623 0 18100
0.13150000 0.13148800 12514.75207653 0 301.26463711 0 3847.79131887 0 -511.82879293 0 293.15253566 0 19059
0.13250000 0.13249300 12188.78179822 0 279.06449729 0 3532.69041357 0 -605.97641822 0 -589.99178518 0 18957
0.13350000 0.13349100 12001.78421767 0 108.51427453 0 4174.08324189 0 80.55469796 0 -567.72177083 0 19468
0.13450000 0.13450700 11916.16017723 0 -48.58066266 0 4063.74801465 0 702.96671730 0 -166.87593104 0 19953
0.13550000 0.13551000 11919.48753632 0 -9.75170200 0 3653.21845081 0 513.73980616 0 182.58217504 0 19956
0.13650000 0.13649900 12128.55659879 0 -211.56901827 0 3369.90491596 0 649.39734516 0 873.71458519 0 19723
0.13750000 0.13749600 12114.47077867 0 84.12073961 0 2843.90490069 0 450.91483017 0 511.96965113 0 20946
0.13850000 0.13851100 12115.46898639 0 150.68721998 0 2994.44571687 0 -159.48919388 0 1189.64178467 0 20955
0.13950000 0.13949800 11686.12875253 0 235.18328569 0 3094.24430701 0 57.60690057 0 918.74262657 0 20506
0.14050000 0.14048300 11553.92168490 0 240.18874287 0 2980.61499427 0 -187.70076243 0 1462.03049052 0 21447
0.14150000 0.14148400 11001.55789449 0 186.03708289 0 2627.65983379 0 305.44601836 0 883.13433876 0 21771
0.14250000 0.14249400 11086.25027438 0 164.52348817 0 3070.66442230 0 176.83249854 0 1391.03573885 0 22470
0.14350000 0.14350900 10721.49408035 0 175.15107309 0 2522.75929305 0 -58.54976322 0 1181.41211653 0 22519
0.14450000 0.14449900 10511.49335733 0 74.97471678 0 2661.72089962 0 365.15104065 0 1111.33793421 0 22218
0.14550000 0.14550500 10511.46008374 0 -95.62231084 0 2178.15580387 0 121.21125497 0 1009.80578999 0 23559
0.14650000 0.14650700 10622.26114125 0 89.21193174 0 2115.32417316 0 235.90088613 0 652.75354135 0 23044
0.14750000 0.14750500 10503.19714201 0 119.39229867 0 2253.24320721 0 -252.95471056 0 1043.26793118 0 23649
0.14850000 0.14849900 10249.68565337 0 72.67329341 0 1823.37059589 0 -142.14256185 0 571.50386899 0 23640
0.14950000 0.14949500 10414.68939037 0 -102.54521415 0 2238.10372338 0 321.79555178 0 944.97552559 0 24457
0.15050000 0.15050000 10423.20742962 0 5.97497198 0 1910.23685039 0 201.79434640 0 405.19802547 0 24591
0.15150000 0.15149900 10421.35519973 0 298.39867181 0 2348.61640977 0 -148.11406229 0 981.55651136 0 25020
0.15250000 0.15250500 9911.83670313 0 250.23736731 0 2326.20110074 0 -348.91574655 0 876.20899539 0 25297
0.15350000 0.15350100 9758.09053103 0 247.90599771 0 2770.62536245 0 53.69736455 0 927.37934163 0 25452
0.15450000 0.15450400 9434.72668401 0 207.51185842 0 2837.36109449 0 3.76536154 0 1218.42344075 0 26061
0.15550000 0.15549900 9121.51128219 0 140.39791657 0 2908.33366376 0 178.23109848 0 1140.77397091 0 26128
0.15650000 0.15649500 9106.82653743 0 135.15510777 0 2835.44231742 0 -102.54587962 0 1341.08098780 0 26331
0.15750000 0.15749700 8878.92462254 0 52.61209093 0 2875.54808558 0 10.10342604 0 993.61042420 0 27345
0.15850000 0.15849900 8936.89830898 0 73.37348068 0 2884.60959349 0 -39.35433957 0 573.16976677 0 26980
0.15950000 0.15949700 8923.07867759 0 61.64908729 0 2692.66533910 0 -429.70735248 0 265.59867508 0 27777
0.16050000 0.16050000 8729.10473416 0 114.36022261 0 3214.22887559 0 -235.44281970 0 -88.63796230 0 28224
0.16150000 0.16150500 8792.57965429 0 -90.50527622 0 2801.28143082 0 137.31456382 0 -76.78668562 0 28075
0.16250000 0.16249700 9044.17236587 0 -151.59337077 0 2605.98763495 0 524.64023452 0 -814.97116968 0 28590
0.16350000 0.16349900 9076.40338420 0 55.30481173 0 2416.82727100 0 283.23589647 0 -268.27054442 0 29163
0.16450000 0.16449100 8879.19081126 0 130.93490733 0 2057.16193637 0 40.46190650 0 -174.90263027 0 28996
0.16550000 0.16550500 8742.92436556 0 182.80510810 0 2215.65514076 0 116.39878461 0 333.17622897 0 30777
0.16650000 0.16650700 8613.73410350 0 87.56444535 0 2084.84556395 0 118.96417847 0 -7.09173351 0 29211
0.16750000 0.16749900 8394.69405497 0 173.21455010 0 2046.41456652 0 41.86926848 0 335.77045993 0 30922
0.16850000 0.16850800 8087.58990267 0 291.88481185 0 2489.81843812 0 -406.86614149 0 45.08859931 0 30867
0.16950000 0.16949900 7957.17960896 0 117.70089113 0 2388.00125013 0 -259.86341714 0 167.82755574 0 30852
0.17050000 0.17049200 7834.68842986 0 -6.26272200 0 2764.89121363 0 297.77312831 0 316.47954108 0 31257
0.17150000 0.17149500 8004.51683753 0 -157.80000458 0 2340.55310959 0 385.42131219 0 -41.56625698 0 32608
0.17250000 0.17250900 8119.28854355 0 -77.98786225 0 2116.94348792 0 396.11877165 0 467.05584909 0 32361
0.17350000 0.17350400 8174.91089625 0 67.74214725 0 1936.24570724 0 -99.03961953 0 282.24988906 0 32508
0.17450000 0.17449800 7994.61239866 0 170.47946093 0 2526.39720565 0 -181.97770481 0 754.66500451 0 32791
0.17550000 0.17549800 8052.95209461 0 24.11536770 0 2241.45326486 0 138.70983639 0 793.28455229 0 33633
0.17650000 0.17650100 7959.27584518 0 -55.17404651 0 2244.41461444 0 247.41909416 0 866.66834777 0 33984
0.17750000 0.17750300 8030.53678557 0 112.46030058 0 2247.98597986 0 -66.75225792 0 837.17574597 0 34069
0.17850000 0.17849800 7906.59265968 0 152.43186526 0 2407.67703352 0 -120.39494287 0 943.38837530 0 34536
