### header ###
fiducial parameters:
Omega_m = 0.31
Omega_nu = 0
Omega_de = 0.69
Omega_k = 0
H_0 = 100
w_de = -1
zeff = 0
beta = 0
fgrowth = 0
b_1 = 2
gamma = 0.55
Lx = 3500 Ly = 3500 Lz = 3500
nx = 700 ny = 700 nz = 700
xoffset = 1379.75464 yoffset = 22.6059522 zoffset = 368.141391
bins = 400 dk = 0.001
kx_ny = 0.628318531 ky_ny = 0.628318531 kz_ny = 0.628318531
############################
A(data) = 3.31427208 (not used)
A(ran) = 3.31444711 (used)
Ngal = 185606
weighted Ngal = 0
Nran = 9399747
weighted Nran = 0
SN(data) = 6698.85443
SN(ran) = 131.833403
SN(data+ran) = 6830.68783
############################
13 columns: k_central k_mean P_0(k) sigma^{lin}_{P_0(k)} P^img_1(k) sigma^{lin}_{P_1(k)} P_2(k) sigma^{lin}_{P_2(k)} P^img_3(k) sigma^{lin}_{P_3(k)} P_4(k) sigma^{lin}_{P_4(k)} N_modes
### header ###
0.00050000 0 0 0 0 0 0 0 0 0 0 0 0
0.00150000 0.00179520 132860.33912306 0 -75051.80059726 0 -149480.49774998 0 210811.48951456 0 -117660.96282522 0 3
0.00250000 0.00253879 227756.62021206 0 -64420.11193861 0 -5554.08323978 0 -183382.95946161 0 123001.37415579 0 6
0.00350000 0.00331552 222961.89577134 0 -1482.00573622 0 -91078.02562760 0 -77469.57062001 0 57857.56161631 0 7
0.00450000 0.00420575 199305.48180048 0 41256.70167209 0 -12846.48977725 0 -107420.12794702 0 51866.54067276 0 24
0.00550000 0.00557378 135132.92537775 0 25175.35339292 0 8906.41969977 0 -11013.29238086 0 22164.20433345 0 45
0.00650000 0.00659388 118541.60386291 0 9169.26997625 0 61714.19261915 0 65582.91302666 0 -62605.48120591 0 40
0.00750000 0.00754703 99725.05550434 0 -267.56070782 0 -18512.20591431 0 18377.78060730 0 37174.25389939 0 57
0.00850000 0.00846663 86164.73629150 0 9719.93681353 0 -5269.36112292 0 23359.72445250 0 4892.71516575 0 75
0.00950000 0.00948925 91001.38545669 0 2442.72521588 0 -34707.79352204 0 -6758.44304279 0 29214.98914540 0 112
0.01050000 0.01054430 70825.61091211 0 8906.24224062 0 -25755.09025741 0 -3849.68791355 0 2495.41949258 0 105
0.01150000 0.01145670 62443.43881849 0 7050.36334647 0 -23711.86995561 0 -10297.94345129 0 13747.64952929 0 144
0.01250000 0.01249090 55007.12400062 0 -438.12778921 0 -23768.21323610 0 6081.43638107 0 6590.76632733 0 169
0.01350000 0.01339930 56637.19721610 0 1105.66035049 0 -12544.03283647 0 -5209.66830094 0 -8875.48635148 0 180
0.01450000 0.01448870 50690.31923640 0 5256.59515523 0 -13972.24626749 0 -14948.82615878 0 2597.43632211 0 267
0.01550000 0.01550050 44407.71072508 0 3217.65605545 0 -8418.10757173 0 -942.11732413 0 -4736.62875110 0 238
0.01650000 0.01653350 39102.23666490 0 -955.11842520 0 7254.50791750 0 -5394.50309809 0 8662.04735741 0 315
0.01750000 0.01747870 48004.80771933 0 -126.34315180 0 397.71035841 0 9840.54248914 0 1347.01477816 0 297
0.01850000 0.01844180 48311.47931495 0 -3412.53947703 0 3340.24705532 0 2263.92402987 0 10508.33236620 0 388
0.01950000 0.01947590 50242.45670363 0 -612.14201461 0 7634.94706402 0 -421.73610924 0 10106.94194864 0 399
0.02050000 0.02045430 55429.25495647 0 -1591.57567087 0 2896.34407986 0 -165.04810179 0 10257.13893772 0 462
0.02150000 0.02154770 57887.17511216 0 -1683.88770307 0 7009.85829522 0 3009.23028240 0 3843.03319538 0 571
0.02250000 0.02255340 54368.04923246 0 1461.58684264 0 12350.93509760 0 -6584.01178839 0 9574.64213351 0 510
0.02350000 0.02348930 58836.47065896 0 -1089.57367844 0 8956.26353886 0 7233.85610878 0 12807.67058793 0 555
0.02450000 0.02439640 57892.49888670 0 -2239.36811983 0 15711.12412504 0 4095.54647630 0 3429.78628828 0 592
0.02550000 0.02547300 61105.06408275 0 -287.06457765 0 5724.43293370 0 3539.98842116 0 11137.33632753 0 837
0.02650000 0.02652900 60489.72447606 0 2075.31822577 0 7813.91461798 0 -539.06322704 0 16277.55155318 0 723
0.02750000 0.02749970 58113.76826582 0 97.19958996 0 9038.09438994 0 2246.23357074 0 20834.36981936 0 826
0.02850000 0.02848090 57721.36171779 0 364.34581975 0 11984.14921452 0 -152.28324322 0 10865.69073187 0 831
0.02950000 0.02946900 58561.96353449 0 1193.86753070 0 9646.67945769 0 -3217.25677236 0 8894.68521340 0 996
0.03050000 0.03053250 57887.28602413 0 566.37751776 0 15619.84357415 0 -1888.37610121 0 13820.62960521 0 1041
0.03150000 0.03150510 56352.48619044 0 1010.51895395 0 17360.93967108 0 50.33739735 0 422.60787732 0 1036
0.03250000 0.03246190 58326.05377540 0 828.20629500 0 14957.25546846 0 -7237.28328864 0 2581.17662738 0 1059
0.03350000 0.03345080 55153.74962427 0 1364.88269645 0 25694.42141010 0 -1889.08593781 0 -2960.28483027 0 1302
0.03450000 0.03451200 55950.76303697 0 295.59148987 0 20300.55051024 0 -1891.39290678 0 -3723.56991305 0 1339
0.03550000 0.03553350 55945.55017441 0 1010.66203039 0 23680.14913233 0 883.35172622 0 -11723.50608624 0 1365
0.03650000 0.03647120 53161.21609253 0 1664.22301088 0 25376.21496966 0 -2829.22015593 0 -12568.32255779 0 1308
0.03750000 0.03744890 52997.84276148 0 2866.32020972 0 26580.16439838 0 -1524.82884764 0 -6387.10976897 0 1579
0.03850000 0.03847530 48006.36048690 0 1109.41915714 0 25418.02878215 0 2460.54876937 0 -8104.70361957 0 1662
0.03950000 0.03950240 47083.68381278 0 706.11550811 0 27295.21386564 0 4807.81205312 0 -5100.29800784 0 1683
0.04050000 0.04050350 47712.55467974 0 943.93184395 0 23778.41713729 0 1707.00175751 0 -5075.85300976 0 1822
0.04150000 0.04152450 43794.92209369 0 1638.45816037 0 22880.58474434 0 3466.99725404 0 -2679.87718902 0 1887
0.04250000 0.04250150 43638.64712869 0 2093.74070390 0 23093.20298983 0 -32.79556026 0 -1805.49158641 0 1920
0.04350000 0.04349210 40760.70334457 0 512.42217197 0 22140.91281986 0 1585.24259742 0 2671.99134799 0 2005
0.04450000 0.04448520 39396.04247206 0 676.27131536 0 16551.72594174 0 5091.74669499 0 -1484.02433407 0 2151
0.04550000 0.04548030 39383.39850754 0 -42.44889443 0 16791.18488385 0 3745.98522208 0 3286.38820294 0 2274
0.04650000 0.04648670 38524.05256799 0 -1120.99836675 0 9509.31498348 0 6598.50798280 0 1204.02706711 0 2311
0.04750000 0.04749250 39222.13250391 0 -621.98545190 0 6270.72983939 0 3906.66339227 0 5224.47504887 0 2568
0.04850000 0.04851840 37880.20858514 0 755.95712896 0 3511.70586894 0 -48.76022914 0 386.28753467 0 2493
0.04950000 0.04949480 37830.18728691 0 1359.33709797 0 2736.54211423 0 -4321.05269265 0 701.57255384 0 2644
0.05050000 0.05050630 35254.70044356 0 2384.51861429 0 7403.71779004 0 -3568.39297655 0 -54.27399588 0 2829
0.05150000 0.05149060 32511.18196645 0 1660.59618948 0 10042.60191515 0 -4272.28469967 0 -1906.03328675 0 2784
0.05250000 0.05249300 31622.11161908 0 962.11697047 0 13354.13386157 0 -681.97219059 0 -4375.74338480 0 3055
0.05350000 0.05348950 32603.57163703 0 -574.25670407 0 14474.01201743 0 769.48284363 0 -3399.75132695 0 3009
0.05450000 0.05448610 32382.08043397 0 -743.27212701 0 12548.69113919 0 2724.06451767 0 -2927.83198800 0 3336
0.05550000 0.05550870 33731.21363075 0 -351.95473452 0 14963.57745073 0 154.15321902 0 -1283.21821332 0 3349
0.05650000 0.05647670 35038.42210307 0 -363.81122406 0 13522.60914321 0 -510.24497000 0 2018.55347979 0 3324
0.05750000 0.05747970 35261.13333779 0 -780.65833368 0 13580.50519128 0 2897.88575624 0 1049.47789235 0 3639
0.05850000 0.05849280 36963.85389328 0 -431.43979745 0 12079.64442025 0 1311.09039125 0 1831.44498727 0 3846
0.05950000 0.05951020 36722.39853572 0 527.83449924 0 14269.82308161 0 -274.05682187 0 4165.89793854 0 3787
0.06050000 0.06049470 35794.73082297 0 1188.76558011 0 13547.23160044 0 -24.51476170 0 2794.85962779 0 3930
0.06150000 0.06148310 33743.74668330 0 1005.40369392 0 13378.97814273 0 302.41146687 0 4976.03223723 0 4083
0.06250000 0.06249100 33502.84588559 0 71.04965309 0 14197.17574160 0 975.51735462 0 3201.08580721 0 4303
0.06350000 0.06350600 33563.62564486 0 -8.21845494 0 11362.37671361 0 3080.70195554 0 3908.27161583 0 4470
0.06450000 0.06451750 32771.15962291 0 276.64772548 0 11435.80043740 0 1733.62063019 0 3597.70701008 0 4479
0.06550000 0.06550280 32195.08285342 0 737.86295025 0 9659.27905742 0 -392.76035721 0 3861.97695977 0 4636
0.06650000 0.06648880 30789.49546417 0 1278.01644195 0 12420.36599050 0 -524.45057506 0 3526.74553200 0 4653
0.06750000 0.06749660 28844.43225536 0 1362.77536903 0 11590.30081089 0 -1961.95510176 0 456.54250350 0 5220
0.06850000 0.06852730 27950.70360528 0 1194.92119441 0 13925.33050440 0 -2373.76015325 0 2778.43356511 0 5029
0.06950000 0.06949320 26461.59950301 0 749.81371497 0 14039.68074494 0 703.08872046 0 -2736.32029029 0 5040
0.07050000 0.07048030 27532.01092048 0 -554.56539301 0 13967.47705281 0 1296.90475035 0 -520.21928342 0 5475
0.07150000 0.07148790 25896.61393047 0 419.27829999 0 11491.81098199 0 557.07644000 0 -4403.31610041 0 5509
0.07250000 0.07249820 25948.07708431 0 881.79230393 0 14118.65006721 0 -372.94038826 0 -709.05689354 0 5916
0.07350000 0.07351270 24820.10235467 0 166.64634327 0 10467.55003502 0 860.33305608 0 -4140.83183344 0 5721
0.07450000 0.07449140 24858.58880808 0 190.45137928 0 12419.14595883 0 1374.19930188 0 -1880.54571616 0 6028
0.07550000 0.07549160 24471.50603459 0 -319.61280422 0 10313.14948230 0 1236.19153826 0 -1773.10529132 0 6183
0.07650000 0.07648840 24639.75949229 0 -504.26570573 0 7455.07003191 0 3553.15367194 0 -1374.86477370 0 6330
0.07750000 0.07749960 25698.52515297 0 -417.19426409 0 6376.04075441 0 1339.63913219 0 73.80481732 0 6583
0.07850000 0.07848650 25218.27632511 0 349.17195320 0 4202.27706453 0 60.94024890 0 -911.81617407 0 6549
0.07950000 0.07947320 24850.71405825 0 675.80326685 0 7321.45438228 0 -976.08966039 0 1014.84341164 0 6828
0.08050000 0.08048110 23804.70327406 0 774.83656440 0 6674.40504352 0 -1131.31317992 0 -380.09531942 0 7147
0.08150000 0.08149960 22806.60646069 0 697.66401604 0 7630.24439651 0 -925.30085132 0 -96.71756654 0 7386
0.08250000 0.08250610 22493.83470675 0 457.10149983 0 8471.05694596 0 471.53780177 0 12.86534481 0 7227
0.08350000 0.08350160 22117.73221824 0 -148.26933904 0 6920.16378550 0 1764.74252883 0 366.90899536 0 7798
0.08450000 0.08449610 22462.77935530 0 186.49071285 0 9080.48494468 0 1432.30608270 0 3020.11074661 0 7371
0.08550000 0.08548940 21477.32650645 0 393.06314689 0 5646.65036951 0 -169.05867860 0 610.50939042 0 8256
0.08650000 0.08650700 21083.47810282 0 503.52481377 0 7602.72713689 0 -48.02721194 0 3476.67986898 0 8037
0.08750000 0.08749060 20500.85752713 0 468.60307106 0 6831.77803701 0 -664.91614793 0 1717.06147315 0 8155
0.08850000 0.08849210 20117.65667256 0 313.68455945 0 7917.78367740 0 -1.14130635 0 2709.64596163 0 8718
0.08950000 0.08949900 19871.87574819 0 64.87429645 0 7927.90994021 0 549.08966908 0 1087.26781859 0 8571
0.09050000 0.09049190 19635.85507713 0 156.67757545 0 7534.07262778 0 -61.84096500 0 1584.55494320 0 8932
0.09150000 0.09150830 19623.32202458 0 109.63637092 0 7338.23536326 0 368.00702386 0 210.40222435 0 9285
0.09250000 0.09250820 19444.53192978 0 444.23349313 0 7887.81526324 0 -725.91994938 0 629.36220699 0 9204
0.09350000 0.09350330 18730.14793434 0 433.54047015 0 8281.15347181 0 -606.63190796 0 811.53511686 0 9349
0.09450000 0.09448040 18643.08203830 0 297.64779778 0 8624.22637582 0 304.75060031 0 -415.31652444 0 9564
0.09550000 0.09549270 18273.74517992 0 138.03770986 0 8661.17115285 0 -93.82165502 0 270.98788768 0 10155
0.09650000 0.09649430 17956.20421129 0 321.81440681 0 9209.79720990 0 24.47494431 0 -268.15630510 0 9913
0.09750000 0.09749140 17941.89656723 0 187.40351836 0 9102.40114985 0 107.98655538 0 1149.01473025 0 10476
0.09850000 0.09850240 17373.13998773 0 57.98677406 0 8261.63296519 0 635.84390249 0 -334.68795911 0 10575
0.09950000 0.09950330 17605.61147576 0 -34.58933954 0 8845.49575493 0 637.25581186 0 650.77709006 0 10882
0.10050000 0.10051200 17422.27399021 0 99.45775766 0 7622.30309950 0 392.60618957 0 -784.02783931 0 10875
0.10150000 0.10150300 17566.01590266 0 64.62252628 0 7195.66911769 0 573.73541781 0 276.61223365 0 11118
0.10250000 0.10250800 16923.61377541 0 248.60474312 0 7125.53947939 0 -131.47172127 0 100.39063823 0 11575
0.10350000 0.10349800 16858.95209721 0 155.44312523 0 6270.51910665 0 907.43958776 0 -723.65179960 0 11364
0.10450000 0.10450100 16592.43063454 0 106.35382027 0 6487.05254467 0 313.93743874 0 -572.95348843 0 12093
0.10550000 0.10551000 16180.61449185 0 355.53275465 0 6097.49643425 0 -198.82079649 0 -420.15450455 0 12067
0.10650000 0.10649700 15734.30472666 0 256.51054830 0 5834.81252573 0 370.01785787 0 -345.82906644 0 12054
0.10750000 0.10749900 15626.05464444 0 117.67649050 0 5621.53989962 0 -2.85048198 0 -833.51565098 0 12807
0.10850000 0.10850100 15379.71916022 0 273.01535848 0 6245.50845753 0 -410.15024491 0 -1491.66616876 0 12736
0.10950000 0.10950300 15048.64693132 0 483.17246737 0 6522.55546610 0 -582.86790938 0 -1245.63014686 0 12933
0.11050000 0.11050200 14563.18524089 0 70.81862346 0 6094.86782058 0 193.56689650 0 -1580.22937639 0 13428
0.11150000 0.11150900 14548.87759683 0 -4.04154344 0 6590.35595304 0 729.27059998 0 -792.35954646 0 13453
0.11250000 0.11250000 14487.43236574 0 134.29997649 0 6239.51921118 0 191.16343412 0 -1690.46478286 0 13668
0.11350000 0.11349100 14503.62551328 0 173.27776992 0 6160.56098010 0 441.86774082 0 -533.98456795 0 13791
0.11450000 0.11448600 13902.14990278 0 247.05419378 0 6206.02379639 0 -29.77409638 0 -413.12046745 0 14205
0.11550000 0.11549300 13718.81241723 0 243.84661962 0 5822.81185064 0 79.30549645 0 288.44432255 0 14776
0.11650000 0.11649800 13688.08980168 0 -23.82111825 0 6140.24190729 0 647.38983851 0 296.47324002 0 14553
0.11750000 0.11747300 13648.82696448 0 -189.99885844 0 5375.84770482 0 983.88677184 0 1044.13526278 0 14568
0.11850000 0.11849100 13997.97784441 0 -198.01890295 0 4688.57059473 0 794.61438680 0 1237.33393154 0 16015
0.11950000 0.11950300 14147.81991518 0 -40.10621181 0 4956.62264257 0 167.60573180 0 1103.51864036 0 15270
0.12050000 0.12050700 14119.98101084 0 245.32840354 0 4334.62831771 0 -364.98245445 0 1508.12550503 0 15999
0.12150000 0.12150000 13846.91574198 0 257.00410656 0 4939.85275278 0 -119.11390963 0 1248.59149645 0 15670
0.12250000 0.12250700 13551.77899119 0 150.90571656 0 5048.25811176 0 43.34140305 0 1984.99151782 0 16887
0.12350000 0.12352200 13473.69696467 0 147.77356254 0 5422.77455911 0 563.18436216 0 1770.59868081 0 16407
0.12450000 0.12449800 13370.65974502 0 75.30467989 0 4838.75649260 0 333.38917995 0 2181.84917246 0 16306
0.12550000 0.12549900 13260.41324736 0 58.78367656 0 5122.03675386 0 377.15171575 0 2458.71872188 0 17523
0.12650000 0.12650100 13138.74281683 0 23.20145307 0 4192.74972635 0 293.95442920 0 2489.89607650 0 17154
0.12750000 0.12750600 13132.86448245 0 57.63496129 0 4564.99247833 0 489.59759777 0 2999.14838437 0 18007
0.12850000 0.12850300 13024.39257630 0 76.88495363 0 4060.08791965 0 -1.13527274 0 2303.77470051 0 17496
0.12950000 0.12949900 12921.68809256 0 220.23235220 0 4274.09256477 0 -330.59087096 0 2092.05484196 0 18405
0.13050000 0.13049000 12435.22819441 0 304.27478796 0 4147.16490689 0 -681.90120693 0 915.04703974 0 18100
0.13150000 0.13148800 12259.32181081 0 270.97014176 0 4696.73371568 0 -241.25017042 0 1376.92773633 0 19059
0.13250000 0.13249300 12101.27225430 0 60.39944213 0 4945.37616886 0 36.72805505 0 291.99572382 0 18957
0.13350000 0.13349100 11986.92201376 0 20.81351837 0 4620.83665496 0 253.16211594 0 8.49382717 0 19468
0.13450000 0.13450700 12030.06676989 0 112.93944028 0 4969.32206308 0 -206.62678091 0 44.37332801 0 19953
0.13550000 0.13551000 11706.20381900 0 220.99764479 0 4270.66538491 0 -95.53114120 0 -123.84208688 0 19956
0.13650000 0.13649900 11584.53338848 0 4.83168031 0 4339.95209225 0 644.19557379 0 237.90617454 0 19723
0.13750000 0.13749600 11428.03659954 0 143.90273480 0 4514.96008889 0 127.12064470 0 -168.11259950 0 20946
0.13850000 0.13851100 11250.46653640 0 352.22646884 0 4310.48278196 0 261.00137394 0 255.94378814 0 20955
0.13950000 0.13949800 10859.54620876 0 217.69357722 0 4449.97676598 0 -163.19698102 0 665.85224495 0 20506
0.14050000 0.14048300 10469.52426808 0 183.59147396 0 4473.87829540 0 35.85018681 0 441.96977983 0 21447
0.14150000 0.14148400 10441.37481022 0 -59.55074374 0 3872.05885779 0 518.91163130 0 293.24570171 0 21771
0.14250000 0.14249400 10594.00077143 0 -177.65213800 0 3684.68417655 0 606.27366230 0 431.25679270 0 22470
0.14350000 0.14350900 10559.27423378 0 -15.12173792 0 2851.42473222 0 351.76285681 0 225.44299653 0 22519
0.14450000 0.14449900 10663.43166432 0 17.46142592 0 2958.55460354 0 227.20206036 0 11.45609733 0 22218
0.14550000 0.14550500 10444.33615981 0 67.98160619 0 2441.94883209 0 -134.02935128 0 95.05510703 0 23559
0.14650000 0.14650700 10398.91770831 0 172.53022325 0 2378.72900949 0 -65.54353928 0 -287.43946011 0 23044
0.14750000 0.14750500 10328.38878691 0 126.24444014 0 2584.44853048 0 -75.25199670 0 -142.73150441 0 23649
0.14850000 0.14849900 10217.56554700 0 54.48716869 0 2703.95617760 0 68.41937573 0 -128.61019245 0 23640
0.14950000 0.14949500 10010.35980562 0 119.25254959 0 2485.27104737 0 39.69849941 0 -56.66514703 0 24457
0.15050000 0.15050000 10044.63160419 0 189.64837662 0 2761.92986405 0 -81.88153785 0 -160.19015752 0 24591
0.15150000 0.15149900 9701.07068752 0 205.43114987 0 3052.43049451 0 -293.70265903 0 62.78227489 0 25020
0.15250000 0.15250500 9527.03871621 0 212.29660079 0 3360.03375068 0 -369.31800334 0 -218.52208963 0 25297
0.15350000 0.15350100 9348.54808372 0 129.31337434 0 4015.06875124 0 -378.96845381 0 -378.16545115 0 25452
0.15450000 0.15450400 9219.89019912 0 122.78176846 0 3662.63487701 0 -80.42648373 0 -847.65249061 0 26061
0.15550000 0.15549900 9216.97321432 0 7.25616051 0 4045.21462455 0 240.54144293 0 -473.83035218 0 26128
0.15650000 0.15649500 9157.91259057 0 -134.62383944 0 3411.98491718 0 534.86964547 0 -499.76711625 0 26331
0.15750000 0.15749700 9396.26241299 0 -107.06598603 0 2822.66525853 0 810.27626601 0 -461.04996594 0 27345
0.15850000 0.15849900 9366.01671891 0 18.58906791 0 2468.29042484 0 210.62404829 0 -96.33059468 0 26980
0.15950000 0.15949700 9249.70333652 0 60.65919797 0 2049.59774005 0 262.02730966 0 123.76777586 0 27777
0.16050000 0.16050000 9304.59367021 0 61.13035201 0 1815.37384289 0 89.72456686 0 276.01330901 0 28224
0.16150000 0.16150500 9087.94932022 0 90.01171795 0 1834.21778651 0 102.25617756 0 -258.15426369 0 28075
0.16250000 0.16249700 8956.86246349 0 182.72303324 0 1907.12022405 0 -285.67041420 0 -269.45619338 0 28590
0.16350000 0.16349900 8673.75966139 0 221.18175866 0 2136.79673045 0 -262.52530441 0 70.16657199 0 29163
0.16450000 0.16449100 8578.99647466 0 96.50383917 0 2463.05537988 0 -87.06356689 0 -460.75272186 0 28996
0.16550000 0.16550500 8412.08505179 0 214.54145905 0 2488.78695680 0 106.61989809 0 -196.72345115 0 30777
0.16650000 0.16650700 8205.28968469 0 121.26005623 0 2675.57380461 0 -34.29653194 0 -62.32121383 0 29211
0.16750000 0.16749900 7955.36065266 0 173.92771406 0 2757.63757083 0 -8.70691125 0 49.30391962 0 30922
0.16850000 0.16850800 8028.14108703 0 72.23474748 0 2924.21625779 0 65.66576427 0 104.51556529 0 30867
0.16950000 0.16949900 7878.01064514 0 89.39737655 0 2893.27181831 0 -59.36951358 0 187.28706079 0 30852
0.17050000 0.17049200 7747.70017220 0 105.30248571 0 3244.49675207 0 -48.23428458 0 430.28076737 0 31257
0.17150000 0.17149500 7733.80290242 0 -63.01186266 0 2645.61648165 0 379.26126141 0 486.97785705 0 32608
0.17250000 0.17250900 7842.41899413 0 -45.52259784 0 2802.74546882 0 326.37510700 0 799.38249237 0 32361
0.17350000 0.17350400 7917.95004535 0 -28.16664921 0 2373.24995819 0 333.21504815 0 690.42590091 0 32508
0.17450000 0.17449800 7921.99833224 0 0.42203779 0 2514.05270345 0 229.26502300 0 1508.97952720 0 32791
0.17550000 0.17549800 7890.37732974 0 9.09083303 0 1972.60265083 0 174.60760444 0 968.21269231 0 33633
0.17650000 0.17650100 7968.00461718 0 -12.74445077 0 2127.31375706 0 103.16232835 0 1156.12418749 0 33984
0.17750000 0.17750300 7908.11215366 0 93.94210542 0 2001.52849247 0 -194.07043684 0 872.94485613 0 34069
0.17850000 0.17849800 7765.94519118 0 181.97326833 0 2326.04582398 0 -343.37347544 0 642.86573927 0 34536
