### header ###
fiducial parameters:
Omega_m = 0.31
Omega_nu = 0
Omega_de = 0.69
Omega_k = 0
H_0 = 100
w_de = -1
zeff = 0
beta = 0
fgrowth = 0
b_1 = 2
gamma = 0.55
Lx = 3500 Ly = 3500 Lz = 3500
nx = 700 ny = 700 nz = 700
xoffset = 1379.75464 yoffset = 22.6059522 zoffset = 368.141391
bins = 400 dk = 0.001
kx_ny = 0.628318531 ky_ny = 0.628318531 kz_ny = 0.628318531
############################
A(data) = 3.30735656 (not used)
A(ran) = 3.30298636 (used)
Ngal = 185773
weighted Ngal = 0
Nran = 9399747
weighted Nran = 0
SN(data) = 6662.98115
SN(ran) = 131.377547
SN(data+ran) = 6794.3587
############################
13 columns: k_central k_mean P_0(k) sigma^{lin}_{P_0(k)} P^img_1(k) sigma^{lin}_{P_1(k)} P_2(k) sigma^{lin}_{P_2(k)} P^img_3(k) sigma^{lin}_{P_3(k)} P_4(k) sigma^{lin}_{P_4(k)} N_modes
### header ###
0.00050000 0 0 0 0 0 0 0 0 0 0 0 0
0.00150000 0.00179520 19154.49712958 0 -24715.06871957 0 -47194.70669423 0 57623.31553677 0 14067.29782534 0 3
0.00250000 0.00253879 38560.54260595 0 -28943.92029199 0 -20781.02116204 0 -38010.08650141 0 -14642.26547514 0 6
0.00350000 0.00331552 60388.46184793 0 -21766.69583483 0 -55787.83335380 0 -10148.51175481 0 -15266.36712741 0 7
0.00450000 0.00420575 80518.09701319 0 -12501.77537610 0 -39633.06135084 0 -48207.55479954 0 -11098.84987412 0 24
0.00550000 0.00557378 72729.74760418 0 10065.76033437 0 -11921.26212783 0 -63227.91917864 0 -5667.21344865 0 45
0.00650000 0.00659388 72035.88232310 0 15900.00720906 0 35267.67714399 0 -26225.57883195 0 -35923.61053151 0 40
0.00750000 0.00754703 46621.29181201 0 11854.71494614 0 29599.41003163 0 -7787.47320445 0 -14125.63752129 0 57
0.00850000 0.00846663 50574.85987617 0 2443.41287009 0 56320.43263126 0 3423.64176517 0 -26137.95837606 0 75
0.00950000 0.00948925 52416.55312942 0 -5141.47962211 0 49968.83687492 0 7761.02069973 0 -12574.31180414 0 112
0.01050000 0.01054430 52710.35893658 0 -4175.36982073 0 28582.45818345 0 22561.60192010 0 -11238.48804369 0 105
0.01150000 0.01145670 71563.84098099 0 -6515.03563457 0 33268.26707013 0 9131.46008585 0 -10555.27031168 0 144
0.01250000 0.01249090 69025.95329529 0 -5328.32192590 0 21661.32946382 0 3888.99511553 0 -1245.87415319 0 169
0.01350000 0.01339930 85555.60775511 0 -2865.07799566 0 13105.69104993 0 2526.36393206 0 -12039.05063942 0 180
0.01450000 0.01448870 82911.24457871 0 -2757.51556766 0 13496.54483038 0 -1663.77936301 0 -15682.06518903 0 267
0.01550000 0.01550050 87101.83152166 0 1567.85160060 0 14021.04753407 0 -5704.83478870 0 -23582.99024707 0 238
0.01650000 0.01653350 79636.01411990 0 5049.84415292 0 9459.21604687 0 85.28598076 0 -10486.20542829 0 315
0.01750000 0.01747870 77680.30336202 0 2010.09089652 0 18205.86705460 0 -3815.66012131 0 -4025.41683799 0 297
0.01850000 0.01844180 75592.60736046 0 747.14184562 0 19995.87533007 0 3428.45534465 0 -23711.20448379 0 388
0.01950000 0.01947590 72010.92712997 0 3219.91865963 0 4853.01977188 0 -3043.91245526 0 -15940.82281383 0 399
0.02050000 0.02045430 68417.60114268 0 3641.72797077 0 16865.38499144 0 -8614.37739293 0 -3553.59731982 0 462
0.02150000 0.02154770 64729.88906937 0 3736.72407263 0 18764.64155685 0 -6146.99644623 0 -13926.32871213 0 571
0.02250000 0.02255340 62890.96861535 0 3989.95828135 0 30041.39423002 0 806.65388109 0 -6676.66764769 0 510
0.02350000 0.02348930 60215.66099947 0 2211.15211479 0 27673.86732945 0 506.62369420 0 -15199.04356194 0 555
0.02450000 0.02439640 61288.62339224 0 30.46707437 0 30630.78043585 0 11083.49965754 0 -2192.50781272 0 592
0.02550000 0.02547300 59159.66813803 0 -34.91375705 0 31959.72765418 0 4708.03564537 0 6700.58026831 0 837
0.02650000 0.02652900 58846.67456015 0 1571.68915474 0 21809.28603111 0 2863.76923442 0 -716.52237821 0 723
0.02750000 0.02749970 58739.53359763 0 -129.04164001 0 25074.64532463 0 2708.68102750 0 11395.42848051 0 826
0.02850000 0.02848090 54030.87684524 0 2822.53216417 0 30580.09366579 0 -1422.09109031 0 8303.86824316 0 831
0.02950000 0.02946900 53079.14123511 0 2337.32557128 0 30426.48058806 0 6089.61059322 0 21141.70688679 0 996
0.03050000 0.03053250 53898.11521777 0 -1030.81584437 0 27805.29801329 0 10591.89344401 0 14972.45040828 0 1041
0.03150000 0.03150510 53329.91319811 0 -1269.42076431 0 14423.10342344 0 7017.40030914 0 10983.56797304 0 1036
0.03250000 0.03246190 54324.34991649 0 -969.70224006 0 19774.93868686 0 4012.89487664 0 21694.71396663 0 1059
0.03350000 0.03345080 55813.45401875 0 -164.63994574 0 13039.80934006 0 3272.00292050 0 13222.37044182 0 1302
0.03450000 0.03451200 56726.25952759 0 -1774.80224446 0 11272.64893030 0 2593.46567360 0 15588.34457482 0 1339
0.03550000 0.03553350 55711.41500683 0 1277.00714303 0 6604.55268514 0 -300.40506934 0 6934.54906794 0 1365
0.03650000 0.03647120 54181.71712373 0 3376.16035104 0 13826.39702762 0 -6865.00726307 0 8140.80546563 0 1308
0.03750000 0.03744890 50222.04890125 0 3084.76133362 0 15762.25454297 0 -6750.37974261 0 2421.75176245 0 1579
0.03850000 0.03847530 46743.29497844 0 2516.13784848 0 21275.46672199 0 -1884.59400305 0 968.37906027 0 1662
0.03950000 0.03950240 45065.97326396 0 909.74101112 0 20567.40470881 0 -834.63031627 0 -3726.94163692 0 1683
0.04050000 0.04050350 45452.83421351 0 -158.01073732 0 22468.65768968 0 2617.74430372 0 -2474.60131591 0 1822
0.04150000 0.04152450 45729.67048934 0 -1968.96473823 0 17728.83467386 0 3647.15156607 0 -4623.82018694 0 1887
0.04250000 0.04250150 47844.31809949 0 515.96913675 0 16251.04359247 0 1855.29106071 0 -8716.56059041 0 1920
0.04350000 0.04349210 47132.48507935 0 1129.49422362 0 13719.69971298 0 -2739.33709586 0 -9357.39885888 0 2005
0.04450000 0.04448520 44423.90387262 0 1958.12863881 0 17226.84709998 0 -3059.69522852 0 -10285.96495858 0 2151
0.04550000 0.04548030 42544.38963778 0 1128.16327998 0 16829.33860136 0 -2130.50802178 0 -10019.93150858 0 2274
0.04650000 0.04648670 42142.99922022 0 90.39902255 0 18640.75288694 0 2820.90175822 0 -9591.07928738 0 2311
0.04750000 0.04749250 41072.58780275 0 -416.82825459 0 12847.48798497 0 4033.46904698 0 -13905.92090974 0 2568
0.04850000 0.04851840 41671.95608583 0 1419.67320937 0 14521.37142840 0 1913.99676616 0 -7105.12058580 0 2493
0.04950000 0.04949480 39112.21874215 0 1530.95118835 0 10423.11870005 0 767.42542660 0 -9216.62938722 0 2644
0.05050000 0.05050630 37309.89923806 0 970.50746096 0 13612.11510258 0 1039.48916038 0 -1403.53551781 0 2829
0.05150000 0.05149060 35335.33344537 0 435.45037426 0 12418.03683914 0 2091.98829478 0 -3768.75544942 0 2784
0.05250000 0.05249300 35174.95473750 0 1328.86957996 0 12593.38866289 0 -1218.16834322 0 -499.30794069 0 3055
0.05350000 0.05348950 32958.82267528 0 905.72156135 0 12034.94689655 0 345.24345125 0 -4656.90522744 0 3009
0.05450000 0.05448610 32025.38754011 0 921.82708844 0 13127.87344382 0 -121.40091444 0 1994.00866094 0 3336
0.05550000 0.05550870 31619.67155575 0 571.65470927 0 13021.06521721 0 1643.67102294 0 -904.38618124 0 3349
0.05650000 0.05647670 30819.10896003 0 59.28067310 0 14274.81412024 0 1580.59538589 0 1356.95249063 0 3324
0.05750000 0.05747970 30630.00405206 0 -87.28494718 0 10192.34416514 0 1367.08984464 0 -905.08049016 0 3639
0.05850000 0.05849280 30665.49588229 0 223.67284150 0 10667.28030966 0 689.12268527 0 2359.08649969 0 3846
0.05950000 0.05951020 30271.98021457 0 -182.22171114 0 9396.77260805 0 1815.22965733 0 456.91516772 0 3787
0.06050000 0.06049470 29673.05557937 0 307.09417022 0 9083.35756469 0 715.75043090 0 1363.32992888 0 3930
0.06150000 0.06148310 31356.69927611 0 -29.53519200 0 7104.24438125 0 956.63126446 0 2624.39902189 0 4083
0.06250000 0.06249100 29553.15974036 0 104.28109739 0 7504.53677030 0 364.57318929 0 1923.77920187 0 4303
0.06350000 0.06350600 30303.92286178 0 42.89043498 0 5977.29004173 0 335.99006563 0 161.05970736 0 4470
0.06450000 0.06451750 30179.81236793 0 315.46358744 0 8264.32812604 0 -1236.93464845 0 644.37746942 0 4479
0.06550000 0.06550280 29301.94412948 0 898.86941987 0 6742.13898328 0 -1528.17838912 0 -1115.43058589 0 4636
0.06650000 0.06648880 28698.36119156 0 925.44170952 0 10639.36376695 0 -814.87467626 0 -1091.91503012 0 4653
0.06750000 0.06749660 27806.96169283 0 179.84043116 0 9837.79187230 0 -667.00240207 0 -2893.99274611 0 5220
0.06850000 0.06852730 27555.08061013 0 521.71437677 0 11328.99221079 0 -148.05860630 0 -1644.91323700 0 5029
0.06950000 0.06949320 27690.28230093 0 -66.94347016 0 10889.50353172 0 1083.10085590 0 -2448.49263829 0 5040
0.07050000 0.07048030 27259.61112343 0 -577.31011059 0 9160.48574826 0 1905.83364520 0 -684.63629610 0 5475
0.07150000 0.07148790 28646.78712575 0 -728.64061999 0 9337.97817303 0 1553.79905407 0 -1651.14648968 0 5509
0.07250000 0.07249820 28637.24869637 0 127.42454350 0 8206.69826670 0 27.15125013 0 -1526.88071907 0 5916
0.07350000 0.07351270 28688.15729036 0 735.28646520 0 8341.72249835 0 -161.00979698 0 -2126.20463737 0 5721
0.07450000 0.07449140 27373.40680412 0 562.48894411 0 8314.36051548 0 -1761.00479545 0 -3257.96146516 0 6028
0.07550000 0.07549160 27038.11992038 0 1003.53704547 0 10114.23995624 0 -1771.14214946 0 -2599.26636960 0 6183
0.07650000 0.07648840 25422.13252502 0 1087.91998098 0 11104.95003244 0 -915.79569554 0 -4666.94276068 0 6330
0.07750000 0.07749960 25424.35076441 0 330.53874233 0 11648.30777093 0 204.42628743 0 -3043.59081055 0 6583
0.07850000 0.07848650 23981.16421751 0 258.58792949 0 12034.94689655 0 1527.50182610 0 -4091.83092532 0 6549
0.07950000 0.07947320 24258.55505318 0 534.36277777 0 11120.14497226 0 431.78695191 0 -1554.07633399 0 6828
0.08050000 0.08048110 22803.50092555 0 429.67851537 0 11010.04266015 0 888.89954294 0 -2696.85781155 0 7147
0.08150000 0.08149960 23084.99550409 0 229.09865504 0 11793.49153898 0 279.98284840 0 -405.50525162 0 7386
0.08250000 0.08250610 22829.78706231 0 139.19008522 0 9804.08572478 0 680.86085266 0 -1292.75664269 0 7227
0.08350000 0.08350160 22042.64481490 0 492.26946711 0 11358.93844255 0 716.84624116 0 -499.41108883 0 7798
0.08450000 0.08449610 21968.88835519 0 280.21021794 0 10016.67069668 0 114.63639342 0 2438.49946984 0 7371
0.08550000 0.08548940 21614.08096482 0 -193.68889967 0 9325.93313314 0 2278.30931232 0 176.94230139 0 8256
0.08650000 0.08650700 21673.75160440 0 -71.38959828 0 8190.53839275 0 1767.58187524 0 3060.29415315 0 8037
0.08750000 0.08749060 21586.90753230 0 -20.92997594 0 6200.55583630 0 1041.79169287 0 1368.57606503 0 8155
0.08850000 0.08849210 21863.74380812 0 -116.46865915 0 6560.80900437 0 689.57853346 0 4249.31483079 0 8718
0.08950000 0.08949900 21209.03045227 0 120.80753540 0 4184.20950470 0 922.26075424 0 1952.25030443 0 8571
0.09050000 0.09049190 21197.49560744 0 103.26669651 0 5304.20966373 0 235.89866789 0 3318.91868359 0 8932
0.09150000 0.09150830 20937.40703901 0 87.55058135 0 3947.61209140 0 -109.67130819 0 1301.55196187 0 9285
0.09250000 0.09250820 20728.22706456 0 556.88678053 0 4677.37957700 0 -746.45419141 0 1335.49102454 0 9204
0.09350000 0.09350330 20359.33385407 0 199.12802265 0 4887.59103276 0 -199.12691353 0 1108.86016081 0 9349
0.09450000 0.09448040 19847.25329097 0 298.39423534 0 4937.77869895 0 -773.64647897 0 -566.83114771 0 9564
0.09550000 0.09549270 19669.79413979 0 500.58342834 0 5820.37178731 0 -646.96393655 0 453.04101262 0 10155
0.09650000 0.09649430 19329.73804136 0 494.94355469 0 6557.32636853 0 -37.42247489 0 -860.53935234 0 9913
0.09750000 0.09749140 18434.78935961 0 89.67975843 0 6105.62628162 0 672.50141752 0 288.36446594 0 10476
0.09850000 0.09850240 18562.78177239 0 203.40922467 0 6427.22662833 0 302.75196662 0 -76.16879504 0 10575
0.09950000 0.09950330 17915.49951849 0 530.55184250 0 5965.59992015 0 469.31956239 0 727.08563418 0 10882
0.10050000 0.10051200 17349.07209035 0 431.85793557 0 6353.61435418 0 121.83125288 0 1143.92387085 0 10875
0.10150000 0.10150300 16557.38245218 0 358.41424762 0 5596.93962478 0 287.22096353 0 1329.40195741 0 11118
0.10250000 0.10250800 16439.70485256 0 60.87170530 0 5954.03180173 0 918.19361232 0 1883.87307525 0 11575
0.10350000 0.10349800 16364.17380135 0 -257.74499852 0 4209.07596826 0 1360.20221134 0 1092.75907020 0 11364
0.10450000 0.10450100 16765.00965906 0 -306.70819657 0 3503.16564729 0 821.88320362 0 2088.87166844 0 12093
0.10550000 0.10551000 16497.60090063 0 -50.27728306 0 3122.54904162 0 436.21344861 0 1189.40886953 0 12067
0.10650000 0.10649700 16736.83801881 0 181.11480969 0 2053.04710230 0 -121.60831982 0 1912.62145774 0 12054
0.10750000 0.10749900 16614.83485238 0 205.98460060 0 2386.59266812 0 -687.83499730 0 295.67356472 0 12807
0.10850000 0.10850100 16087.78117340 0 547.26183982 0 3619.16847617 0 -708.15185187 0 479.42586104 0 12736
0.10950000 0.10950300 15662.54468240 0 562.26822929 0 3765.06208083 0 -861.47101288 0 -36.15940938 0 12933
0.11050000 0.11050200 14963.24471482 0 318.08998288 0 4727.03486574 0 -919.95600351 0 -908.29693728 0 13428
0.11150000 0.11150900 14641.60000332 0 371.29223640 0 5727.91556955 0 -329.05030370 0 -619.81934113 0 13453
0.11250000 0.11250000 14216.25260035 0 277.90103073 0 5847.86686454 0 174.13068297 0 -992.84845897 0 13668
0.11350000 0.11349100 14051.99197355 0 17.60949339 0 5536.65896937 0 1048.90558659 0 -246.53845312 0 13791
0.11450000 0.11448600 14219.13631156 0 -110.13192560 0 5233.61419515 0 349.77309608 0 -28.70801053 0 14205
0.11550000 0.11549300 13887.62043478 0 119.35126124 0 4348.58104347 0 707.91560937 0 568.86416412 0 14776
0.11650000 0.11649800 14129.85217613 0 88.44308997 0 5143.66458790 0 35.52521474 0 685.88072840 0 14553
0.11750000 0.11747300 13665.13102400 0 -33.69394721 0 4228.07518863 0 233.72257505 0 799.32038166 0 14568
0.11850000 0.11849100 14059.42307551 0 -40.90289249 0 4682.78098992 0 67.12946953 0 562.09631574 0 16015
0.11950000 0.11950300 14031.58417117 0 343.34131097 0 4506.71932956 0 -1003.35071336 0 -549.98251043 0 15270
0.12050000 0.12050700 13461.16391212 0 602.09228105 0 5757.27396787 0 -1070.95488612 0 -342.56159982 0 15999
0.12150000 0.12150000 13005.75936542 0 286.64643953 0 6276.06470512 0 -623.70902390 0 -438.28750244 0 15670
0.12250000 0.12250700 13081.95588846 0 -3.35991175 0 7078.00260927 0 237.44810811 0 -335.66953004 0 16887
0.12350000 0.12352200 13044.57855474 0 -172.74539247 0 6483.04862257 0 994.75725397 0 -251.66258611 0 16407
0.12450000 0.12449800 13324.07671784 0 -111.45876549 0 5848.80961628 0 816.99309488 0 628.85201193 0 16306
0.12550000 0.12549900 13167.80175284 0 -61.85039252 0 5269.42767010 0 858.62722999 0 993.86330350 0 17523
0.12650000 0.12650100 13259.52595160 0 28.07448136 0 4820.79984474 0 910.65159839 0 1850.23347490 0 17154
0.12750000 0.12750600 13306.21989075 0 51.76893814 0 4770.56781376 0 469.64231622 0 1939.75052547 0 18007
0.12850000 0.12850300 12857.24823829 0 83.59324228 0 3596.17642490 0 234.68750919 0 1880.30170983 0 17496
0.12950000 0.12949900 13104.13828236 0 89.96336033 0 3466.01013752 0 108.00108484 0 1684.77499883 0 18405
0.13050000 0.13049000 12389.86519889 0 158.22923390 0 3062.73421648 0 -382.62854880 0 770.33242932 0 18100
0.13150000 0.13148800 12522.40500242 0 281.65429178 0 3586.50490116 0 -122.26602780 0 387.39998173 0 19059
0.13250000 0.13249300 12259.09998687 0 60.74105100 0 3574.83696197 0 -397.79132415 0 -367.26613191 0 18957
0.13350000 0.13349100 11881.22290684 0 119.86256542 0 2807.20412999 0 338.98136145 0 -680.54142619 0 19468
0.13450000 0.13450700 11962.96502835 0 -73.15498410 0 2743.58502429 0 455.37792782 0 -351.70740083 0 19953
0.13550000 0.13551000 11999.45506631 0 7.59566204 0 2416.11743440 0 329.49173334 0 -926.07945335 0 19956
0.13650000 0.13649900 12012.87541462 0 237.75644338 0 2751.16031181 0 -386.57146931 0 -982.54695525 0 19723
0.13750000 0.13749600 11614.25779630 0 241.83024002 0 2979.80533690 0 -349.34497588 0 -905.41433519 0 20946
0.13850000 0.13851100 11367.81140011 0 168.71152414 0 3044.40046792 0 -195.58105787 0 -696.30867177 0 20955
0.13950000 0.13949800 11375.68614994 0 28.41442655 0 3329.16694957 0 170.20439925 0 -817.50883554 0 20506
0.14050000 0.14048300 11331.09953821 0 -21.86418746 0 3339.61485709 0 -4.84297115 0 -575.78507101 0 21447
0.14150000 0.14148400 11316.12642233 0 129.57290835 0 3432.58126991 0 154.13436399 0 -683.98524284 0 21771
0.14250000 0.14249400 11267.99062758 0 180.20200418 0 3115.15121326 0 -130.71197427 0 -743.63037267 0 22470
0.14350000 0.14350900 10778.86884216 0 249.35339891 0 3576.60046229 0 -95.73499740 0 -433.55599783 0 22519
0.14450000 0.14449900 10572.59476132 0 288.65949177 0 3355.33108317 0 -6.04547872 0 -555.10442518 0 22218
0.14550000 0.14550500 10408.12340177 0 53.95102023 0 3647.29575164 0 285.79352648 0 -138.53126812 0 23559
0.14650000 0.14650700 10236.22094027 0 73.77354015 0 3344.77226368 0 631.80670680 0 -189.40215205 0 23044
0.14750000 0.14750500 10077.43936476 0 93.50533408 0 3133.70678575 0 398.19171636 0 610.29643944 0 23649
0.14850000 0.14849900 9893.79132569 0 124.53085021 0 2800.74905337 0 189.81252633 0 830.58646586 0 23640
0.14950000 0.14949500 9938.37793742 0 43.41704501 0 2895.68969924 0 474.56126206 0 1210.07176944 0 24457
0.15050000 0.15050000 9732.39222770 0 95.91367659 0 2848.47447383 0 -73.75146867 0 1279.46938875 0 24591
0.15150000 0.15149900 9589.19378390 0 175.42946213 0 2644.45190597 0 -130.27830847 0 1462.06376411 0 25020
0.15250000 0.15250500 9546.35958129 0 173.20234978 0 3131.15581045 0 -227.31075409 0 1167.41502598 0 25297
0.15350000 0.15350100 9335.46047132 0 120.04446105 0 3011.70361932 0 -95.05710344 0 1023.13629960 0 25452
0.15450000 0.15450400 9108.51239936 0 138.24178788 0 3255.21084832 0 -74.53794544 0 1265.36138623 0 26061
0.15550000 0.15549900 9140.46613777 0 102.79720615 0 3219.91865963 0 75.62222086 0 821.49722996 0 26128
0.15650000 0.15649500 8927.01605250 0 20.73965100 0 3219.97411561 0 178.95757188 0 564.85025994 0 26331
0.15750000 0.15749700 8925.03072825 0 71.86751795 0 3173.65727716 0 -1.22381376 0 427.49687693 0 27345
0.15850000 0.15849900 8889.13961493 0 109.37816786 0 2944.94570489 0 -93.47106228 0 597.89759037 0 26980
0.15950000 0.15949700 8686.74745301 0 103.56050232 0 3100.65501885 0 57.34525923 0 416.21602052 0 27777
0.16050000 0.16050000 8644.07961835 0 20.26849695 0 2956.71346485 0 158.11832193 0 587.92882255 0 28224
0.16150000 0.16150500 8663.00120035 0 -5.37524878 0 3016.62811077 0 360.04798093 0 611.30573836 0 28075
0.16250000 0.16249700 8686.94709456 0 -12.41337854 0 2607.49603774 0 268.30270890 0 1053.47848709 0 28590
0.16350000 0.16349900 8772.30494627 0 -5.89054579 0 2460.13839509 0 194.73479954 0 1174.44684485 0 29163
0.16450000 0.16449100 8804.92415650 0 -30.79914481 0 2647.24688760 0 162.02242326 0 1176.34343953 0 28996
0.16550000 0.16550500 8724.86789693 0 57.61688264 0 2405.27024378 0 -129.22242652 0 1187.85610196 0 30777
0.16650000 0.16650700 8638.46747270 0 190.39370505 0 2700.22953542 0 -206.61236235 0 535.89558119 0 29211
0.16750000 0.16749900 8566.27487176 0 85.63524255 0 2764.43647456 0 -160.18904840 0 938.69790811 0 30922
0.16850000 0.16850800 8407.49329625 0 64.27071352 0 2574.52190921 0 82.47746787 0 572.83148526 0 30867
0.16950000 0.16949900 8380.85224118 0 37.61856725 0 2730.39759112 0 257.97236806 0 795.20111112 0 30852
0.17050000 0.17049200 8396.96775035 0 62.44787530 0 2131.14022001 0 144.12788610 0 288.82475061 0 31257
0.17150000 0.17149500 8223.57906846 0 69.43743670 0 2448.59245906 0 263.18190326 0 526.95829469 0 32608
0.17250000 0.17250900 8018.65811364 0 96.65933776 0 1752.30929705 0 246.19684426 0 945.31824357 0 32361
0.17350000 0.17350400 8003.94009529 0 28.24628400 0 2095.12710352 0 217.31093093 0 866.60956443 0 32508
0.17450000 0.17449800 7901.36870591 0 116.36218366 0 1694.60179933 0 57.88151860 0 880.41699551 0 32791
0.17550000 0.17549800 7722.40115196 0 160.42196354 0 1789.05443254 0 0.38009421 0 603.36887782 0 33633
0.17650000 0.17650100 7620.87233509 0 57.99986167 0 1748.22773657 0 -152.99307982 0 709.69241913 0 33984
0.17750000 0.17750300 7547.94771516 0 77.90112909 0 1859.51680675 0 -106.06345274 0 494.22928161 0 34069
0.17850000 0.17849800 7492.40300084 0 105.24525514 0 1824.49080679 0 -83.41367580 0 459.57040027 0 34536
