### header ###
fiducial parameters:
Omega_m = 0.31
Omega_nu = 0
Omega_de = 0.69
Omega_k = 0
H_0 = 100
w_de = -1
zeff = 0
beta = 0
fgrowth = 0
b_1 = 2
gamma = 0.55
Lx = 3500 Ly = 3500 Lz = 3500
nx = 700 ny = 700 nz = 700
xoffset = 1379.75464 yoffset = 22.6059522 zoffset = 368.141391
bins = 400 dk = 0.001
kx_ny = 0.628318531 ky_ny = 0.628318531 kz_ny = 0.628318531
############################
A(data) = 3.30198994 (not used)
A(ran) = 3.29866413 (used)
Ngal = 185673
weighted Ngal = 0
Nran = 9399747
weighted Nran = 0
SN(data) = 6664.62451
SN(ran) = 131.205629
SN(data+ran) = 6795.83014
############################
13 columns: k_central k_mean P_0(k) sigma^{lin}_{P_0(k)} P^img_1(k) sigma^{lin}_{P_1(k)} P_2(k) sigma^{lin}_{P_2(k)} P^img_3(k) sigma^{lin}_{P_3(k)} P_4(k) sigma^{lin}_{P_4(k)} N_modes
### header ###
0.00050000 0 0 0 0 0 0 0 0 0 0 0 0
0.00150000 0.00179520 39579.49086958 0 -54300.17110714 0 -80064.35614604 0 79165.63645733 0 58185.52831007 0 3
0.00250000 0.00253879 49968.72596295 0 -35920.83773227 0 2038.75054943 0 -129516.34324317 0 -54914.40159413 0 6
0.00350000 0.00331552 82346.59174208 0 -15086.02426503 0 -99727.93921555 0 22857.07140681 0 11397.09216005 0 7
0.00450000 0.00420575 98927.59844376 0 -13351.69379824 0 -44053.90154243 0 -54828.11208187 0 -21690.05566391 0 24
0.00550000 0.00557378 107512.29579366 0 3918.55315540 0 -27381.50337789 0 -58321.72820859 0 -25048.80283574 0 45
0.00650000 0.00659388 108975.11375916 0 -4561.29910974 0 30723.39193036 0 -490.93297788 0 8947.87859396 0 40
0.00750000 0.00754703 89065.41702937 0 8604.70586919 0 12727.70305793 0 -19046.80160721 0 -26810.97220688 0 57
0.00850000 0.00846663 104904.08991931 0 935.01119425 0 13858.45058680 0 8944.56232608 0 2863.56959288 0 75
0.00950000 0.00948925 92184.15069924 0 -2736.27592551 0 11703.76375567 0 8408.62459834 0 -27323.05276998 0 112
0.01050000 0.01054430 101761.28835206 0 -4714.05816531 0 9024.59640325 0 5865.22458777 0 19178.12137908 0 105
0.01150000 0.01145670 96260.05466575 0 4893.83537665 0 8380.00931021 0 -2064.19375523 0 -25300.90574238 0 144
0.01250000 0.01249090 94568.31439523 0 9510.96757183 0 7366.90610737 0 -27110.43452448 0 -4101.89064095 0 169
0.01350000 0.01339930 80065.90891362 0 12948.30696523 0 39889.93347216 0 -19244.89038471 0 -26607.44874288 0 180
0.01450000 0.01448870 69689.20687280 0 3398.40929212 0 33512.93887481 0 -4732.17008993 0 -13346.03728780 0 267
0.01550000 0.01550050 67536.18372121 0 -3237.75330432 0 25513.52398787 0 16828.56221757 0 -39473.34811479 0 238
0.01650000 0.01653350 80401.52853327 0 -7397.24053103 0 18973.59970735 0 5310.30982205 0 -24736.47472968 0 315
0.01750000 0.01747870 86798.04363725 0 -5763.68467970 0 14914.55436021 0 12853.58814330 0 -31251.44381707 0 297
0.01850000 0.01844180 89290.45741545 0 2477.30756796 0 9391.54865429 0 -1866.39334886 0 -11873.90271686 0 388
0.01950000 0.01947590 79056.94272724 0 6375.09800267 0 10085.16992903 0 -18846.05094245 0 -22159.21329482 0 399
0.02050000 0.02045430 75174.80197142 0 9990.48438069 0 38318.42177657 0 -6340.22727947 0 -6184.97270459 0 462
0.02150000 0.02154770 64305.20713822 0 5946.84470611 0 36032.19334963 0 2137.04073679 0 472.82659886 0 571
0.02250000 0.02255340 62301.80423346 0 1436.50964634 0 47061.27959494 0 10007.96410708 0 6727.31005296 0 510
0.02350000 0.02348930 61489.15223307 0 -224.51688158 0 42738.15284846 0 9377.59592853 0 6289.56269181 0 555
0.02450000 0.02439640 59525.78854929 0 2279.41843201 0 34114.52539728 0 7218.09551792 0 8133.81801155 0 592
0.02550000 0.02547300 57357.01589804 0 3862.17660131 0 42490.15368470 0 961.99053083 0 25395.29182841 0 837
0.02650000 0.02652900 50973.47749449 0 1622.64211352 0 29628.57987960 0 7168.98369783 0 5859.98954281 0 723
0.02750000 0.02749970 55036.51567253 0 -3029.69354077 0 41845.08967019 0 10154.68955151 0 23425.71707434 0 826
0.02850000 0.02848090 50805.11312481 0 -489.50332259 0 17552.15190647 0 10739.94983207 0 5230.87466951 0 831
0.02950000 0.02946900 57386.74030586 0 105.43003448 0 23080.55902531 0 4596.45820407 0 22584.44978582 0 996
0.03050000 0.03053250 52120.30725894 0 -962.96101056 0 13618.65890878 0 3791.23730563 0 12519.18855531 0 1041
0.03150000 0.03150510 55938.78454427 0 -115.11775136 0 8240.39332303 0 3239.23952471 0 7598.97831232 0 1036
0.03250000 0.03246190 54195.35929598 0 -1535.36548474 0 6694.77957231 0 3441.04385319 0 9977.88478095 0 1059
0.03350000 0.03345080 55300.15342399 0 231.09728873 0 528.87152616 0 581.76877176 0 -2257.66859480 0 1302
0.03450000 0.03451200 53937.93261481 0 2233.47869425 0 1483.10376472 0 -2370.11114946 0 9393.01269228 0 1339
0.03550000 0.03553350 50010.76159938 0 967.58936704 0 -373.03022696 0 3385.53241246 0 85.12604570 0 1365
0.03650000 0.03647120 49803.79986433 0 1063.78442730 0 -152.04478248 0 531.49348512 0 8624.08219026 0 1308
0.03750000 0.03744890 47574.24745380 0 2310.29632431 0 4941.10605804 0 -821.95196904 0 -245.42933343 0 1579
0.03850000 0.03847530 44693.97451831 0 2090.12497370 0 4656.91631863 0 -1700.71304884 0 8252.73782523 0 1662
0.03950000 0.03950240 42800.81811122 0 98.17250976 0 5010.90296043 0 1433.71466471 0 9671.67901561 0 1683
0.04050000 0.04050350 43306.13304418 0 -66.69658011 0 5202.79175884 0 2978.56312284 0 5441.06394287 0 1822
0.04150000 0.04152450 42273.54260830 0 1471.04763364 0 7233.90047357 0 -1701.86653333 0 9474.28898352 0 1887
0.04250000 0.04250150 38672.78551906 0 2440.28515255 0 8406.52836212 0 -4330.04765337 0 1035.04048129 0 1920
0.04350000 0.04349210 37831.74005448 0 2682.19524919 0 15154.90059808 0 -4436.97788315 0 10024.75617926 0 2005
0.04450000 0.04448520 34658.10495971 0 124.51643166 0 13396.16949800 0 -583.84615295 0 1875.44376557 0 2151
0.04550000 0.04548030 36228.28571167 0 -422.67553362 0 17110.38953202 0 2280.56082530 0 7080.49812858 0 2274
0.04650000 0.04648670 38061.32783131 0 -1769.43410513 0 11722.84061442 0 2793.41777218 0 -2253.20993362 0 2311
0.04750000 0.04749250 38888.62021167 0 -812.29486385 0 13037.36927673 0 1599.96061577 0 3386.38643463 0 2568
0.04850000 0.04851840 40454.25357289 0 -54.27321950 0 11489.59274260 0 59.82624907 0 -639.34761160 0 2493
0.04950000 0.04949480 40485.08710040 0 -113.50952781 0 12304.46298239 0 -3009.71829507 0 -470.10371001 0 2644
0.05050000 0.05050630 40834.34889230 0 862.89179521 0 12390.75249465 0 651.24513857 0 -311.57057731 0 2829
0.05150000 0.05149060 38910.58078163 0 636.35298843 0 15460.79580991 0 -2290.64272332 0 -1556.70494767 0 2784
0.05250000 0.05249300 39125.30635455 0 225.47405188 0 11504.45494651 0 2236.93914770 0 -964.36737433 0 3055
0.05350000 0.05348950 39836.47390287 0 -450.94255816 0 15320.27034458 0 2138.44931880 0 909.76652087 0 3009
0.05450000 0.05448610 39026.70561368 0 97.69492281 0 11155.19315461 0 2372.54012159 0 1335.65739249 0 3336
0.05550000 0.05550870 39065.96845088 0 876.09364694 0 14586.58766645 0 1481.76172989 0 3752.41811631 0 3349
0.05650000 0.05647670 37242.90840850 0 755.18296341 0 9697.78769322 0 -1660.92892539 0 2062.90717638 0 3324
0.05750000 0.05747970 36506.78566704 0 955.89924546 0 14263.61201132 0 928.86445290 0 6869.26628270 0 3639
0.05850000 0.05849280 35951.33852388 0 1151.75425589 0 13685.20609047 0 -1435.43380024 0 1915.12806825 0 3846
0.05950000 0.05951020 34434.83916515 0 727.99622145 0 14897.03026904 0 -207.21572346 0 4160.11942493 0 3787
0.06050000 0.06049470 34333.68744898 0 537.30416320 0 17715.74706146 0 257.31576920 0 1219.32182770 0 3930
0.06150000 0.06148310 32630.85598152 0 525.47983813 0 12821.09093624 0 -266.55806362 0 2292.70568595 0 4083
0.06250000 0.06249100 32905.47401796 0 644.71131445 0 15803.84653152 0 506.96197571 0 -229.48019222 0 4303
0.06350000 0.06350600 31698.30814211 0 534.59902026 0 14405.69024423 0 675.84097692 0 1507.80386032 0 4470
0.06450000 0.06451750 30669.04506532 0 430.23972994 0 12851.25899194 0 1300.37629500 0 -1381.13129998 0 4479
0.06550000 0.06550280 30667.82503365 0 444.76919794 0 11981.15459135 0 2115.26871718 0 -576.11115220 0 4636
0.06650000 0.06648880 29662.29711833 0 126.19563888 0 10599.09163083 0 1123.95971634 0 247.77623070 0 4653
0.06750000 0.06749660 28709.45238850 0 912.09345399 0 9806.09323142 0 82.35624108 0 736.97565450 0 5220
0.06850000 0.06852730 28241.40387729 0 115.75438607 0 9528.75785173 0 873.59258203 0 758.56910584 0 5029
0.06950000 0.06949320 27323.60732982 0 378.02902942 0 10737.11048565 0 255.09752981 0 -535.00828543 0 5040
0.07050000 0.07048030 27613.19848214 0 143.59661777 0 8235.02518371 0 -460.58635391 0 289.00997360 0 5475
0.07150000 0.07148790 27479.32773498 0 142.05715963 0 9958.39754792 0 851.44900732 0 323.98273582 0 5509
0.07250000 0.07249820 27089.58307422 0 98.88667193 0 8742.75799760 0 -386.92971498 0 -607.99834343 0 5916
0.07350000 0.07351270 27807.62716464 0 150.34339287 0 9779.99564500 0 315.50018839 0 469.09108373 0 5721
0.07450000 0.07449140 26598.24304941 0 695.88276981 0 10470.34501665 0 129.13147871 0 807.95376937 0 6028
0.07550000 0.07549160 26307.98642528 0 405.61727271 0 10139.70534443 0 278.10289052 0 1402.92550198 0 6183
0.07650000 0.07648840 25943.75151750 0 359.89159505 0 10940.71158803 0 921.41560503 0 2163.90361580 0 6330
0.07750000 0.07749960 25019.41116383 0 674.86827895 0 11615.92147584 0 -453.63660990 0 2416.25052876 0 6583
0.07850000 0.07848650 25025.17858624 0 261.80548572 0 11092.30606792 0 533.52539240 0 3309.84608449 0 6549
0.07950000 0.07947320 24032.07281150 0 -183.87319037 0 10884.60122267 0 802.44588096 0 2029.16775527 0 6828
0.08050000 0.08048110 24514.87261466 0 503.24975209 0 10958.06931125 0 565.08428420 0 4422.47059754 0 7147
0.08150000 0.08149960 23937.24307759 0 372.80174830 0 11100.84628957 0 -297.87627644 0 2426.31024439 0 7386
0.08250000 0.08250610 23424.94069055 0 421.93353254 0 11160.96057703 0 38.64638847 0 2903.07643641 0 7227
0.08350000 0.08350160 23112.72349646 0 225.54725378 0 11246.58461747 0 599.96609860 0 1349.00010242 0 7798
0.08450000 0.08449610 22777.54752469 0 251.41636154 0 11195.56511151 0 418.40431367 0 3311.14375453 0 7371
0.08550000 0.08548940 21862.63468843 0 470.11701945 0 10798.04552168 0 403.02525999 0 1044.59111098 0 8256
0.08650000 0.08650700 21692.60663921 0 492.25283032 0 9941.56111095 0 613.96429827 0 3121.04063884 0 8037
0.08750000 0.08749060 21072.05416996 0 454.83556829 0 10872.01271413 0 829.74575313 0 1861.45776621 0 8155
0.08850000 0.08849210 19967.48186589 0 375.12979054 0 9644.57213027 0 479.32825851 0 2715.29138088 0 8718
0.08950000 0.08949900 19756.86003584 0 395.51651965 0 9856.42508317 0 555.62682056 0 2535.53635194 0 8571
0.09050000 0.09049190 18900.61963144 0 327.99220351 0 8197.18201972 0 717.90655959 0 1500.88295343 0 8932
0.09150000 0.09150830 18726.82057526 0 456.86525733 0 8400.53911577 0 471.64760462 0 2507.00979339 0 9285
0.09250000 0.09250820 18396.85746605 0 -17.01522706 0 6859.00692552 0 218.73171326 0 939.64398721 0 9204
0.09350000 0.09350330 17848.95233681 0 144.36745596 0 7644.64077015 0 1319.00950587 0 2657.88334548 0 9349
0.09450000 0.09448040 17585.98005716 0 150.60736336 0 6162.32448042 0 107.35724086 0 1413.15158557 0 9564
0.09550000 0.09549270 17870.58017085 0 -62.06367623 0 6558.92350089 0 436.09144545 0 1746.90788413 0 10155
0.09650000 0.09649430 17427.15411686 0 312.10739124 0 5642.66862980 0 135.98251106 0 597.69018498 0 9913
0.09750000 0.09749140 17052.38257198 0 215.75816335 0 5964.34661489 0 -240.76770335 0 1346.26057677 0 10476
0.09850000 0.09850240 16694.91329434 0 429.24817693 0 6177.31977869 0 -62.53094836 0 736.48875095 0 10575
0.09950000 0.09950330 16498.26637245 0 198.47031467 0 6057.47939567 0 215.78256399 0 802.44255361 0 10882
0.10050000 0.10051200 16257.47648670 0 -46.07926502 0 5900.07312858 0 446.70239357 0 8.95133905 0 10875
0.10150000 0.10150300 16197.91675909 0 55.36348416 0 5237.92867077 0 186.12470335 0 -28.70501591 0 11118
0.10250000 0.10250800 15797.52454926 0 402.61710394 0 5300.97103422 0 -578.34602839 0 -707.99435687 0 11575
0.10350000 0.10349800 15520.13371359 0 464.39174358 0 5231.46250295 0 -847.97302620 0 -1757.18942370 0 11364
0.10450000 0.10450100 14895.47750146 0 154.64234081 0 5334.44426661 0 133.87740188 0 -1506.37309592 0 12093
0.10550000 0.10551000 15002.72937595 0 -68.85492704 0 5542.81458368 0 98.12393031 0 -2859.09984051 0 12067
0.10650000 0.10649700 15563.05664578 0 -381.91649395 0 4644.58290763 0 504.90123131 0 -3056.68951414 0 12054
0.10750000 0.10749900 15549.52538550 0 -216.91830255 0 4219.87879409 0 490.06120980 0 -3774.27886550 0 12807
0.10850000 0.10850100 15713.67510033 0 67.72828325 0 3766.37084207 0 -156.15739831 0 -3584.76358324 0 12736
0.10950000 0.10950300 15538.43418855 0 284.13982902 0 3961.33190203 0 -661.00650100 0 -3721.27403528 0 12933
0.11050000 0.11050200 15257.71599379 0 365.97955306 0 4542.22225099 0 -45.68153469 0 -3355.60836309 0 13428
0.11150000 0.11150900 14647.81107361 0 367.65321468 0 4108.57863271 0 21.87383680 0 -3452.90034272 0 13453
0.11250000 0.11250000 14598.78798310 0 286.91373737 0 5100.97457085 0 240.48487783 0 -2197.56539853 0 13668
0.11350000 0.11349100 13916.67937078 0 140.32582379 0 4576.62714393 0 650.33233306 0 -1649.63808690 0 13791
0.11450000 0.11448600 13991.54495018 0 96.99096454 0 5263.12787023 0 269.65583492 0 -946.03917137 0 14205
0.11550000 0.11549300 13887.39861084 0 123.43503996 0 4260.49475731 0 646.01231185 0 -648.80174788 0 14776
0.11650000 0.11649800 13568.08305070 0 183.08349714 0 4560.45617878 0 167.26190470 0 175.93078423 0 14553
0.11750000 0.11747300 13488.22643267 0 25.98811631 0 4373.40314224 0 170.51051628 0 703.50464035 0 14568
0.11850000 0.11849100 13394.94946634 0 -97.07736497 0 3883.54933783 0 434.75495622 0 354.42807144 0 16015
0.11950000 0.11950300 13618.54799681 0 29.28874561 0 4016.83225156 0 -22.44259338 0 13.60745680 0 15270
0.12050000 0.12050700 13596.14377898 0 23.77653163 0 3866.56871530 0 -339.53813954 0 -845.25679206 0 15999
0.12150000 0.12150000 13419.46101159 0 389.69031390 0 4445.34064565 0 -704.56828614 0 -1166.13953833 0 15670
0.12250000 0.12250700 13252.42758555 0 241.52523210 0 4450.55350822 0 -820.60217037 0 -1366.95675028 0 16887
0.12350000 0.12352200 12689.32751649 0 91.16742068 0 5217.15485888 0 50.63331048 0 -2221.89948464 0 16407
0.12450000 0.12449800 12983.90970744 0 91.16021140 0 5010.13766785 0 596.47569892 0 -1204.22670865 0 16306
0.12550000 0.12549900 12742.45434987 0 -35.61782623 0 4802.83210569 0 741.11267096 0 -1595.32449544 0 17523
0.12650000 0.12650100 12740.90158230 0 147.78798110 0 4518.47599833 0 217.31314917 0 -211.28286538 0 17154
0.12750000 0.12750600 12516.30484410 0 195.48123709 0 4430.95536321 0 -48.01212791 0 -357.07332191 0 18007
0.12850000 0.12850300 12429.90441987 0 177.50129772 0 4816.13045083 0 -53.33678974 0 115.22422686 0 17496
0.12950000 0.12949900 12381.10315330 0 -76.38052599 0 4075.83741932 0 548.28112082 0 288.72936632 0 18405
0.13050000 0.13049000 12283.38970819 0 -199.62158091 0 4089.57941234 0 791.00198395 0 347.63693155 0 18100
0.13150000 0.13148800 12465.06351420 0 31.61678784 0 3345.55973866 0 392.58067982 0 634.93553346 0 19059
0.13250000 0.13249300 12329.63999946 0 241.80251203 0 3639.39881941 0 218.56090882 0 445.01431339 0 18957
0.13350000 0.13349100 12026.51758687 0 154.41275303 0 2620.27309662 0 -131.23436965 0 784.76207655 0 19468
0.13450000 0.13450700 11908.39633937 0 27.23321407 0 3218.29934487 0 424.09742507 0 753.51152003 0 19953
0.13550000 0.13551000 11777.40930341 0 15.00095478 0 2607.13002824 0 1.73801274 0 381.22994886 0 19956
0.13650000 0.13649900 11784.50766946 0 115.31406555 0 2687.96267160 0 -142.83021606 0 207.86344937 0 19723
0.13750000 0.13749600 11658.28984819 0 163.28127411 0 2944.06950033 0 -332.06932751 0 -233.92776219 0 20946
0.13850000 0.13851100 11407.07423731 0 118.27763338 0 2854.06443710 0 -239.91700855 0 -251.12355394 0 20955
0.13950000 0.13949800 11571.55668805 0 6.85858546 0 3038.92141663 0 174.81500982 0 -348.76712452 0 20506
0.14050000 0.14048300 11344.29806258 0 125.40927301 0 3401.41500649 0 50.46383699 0 -374.90685748 0 21447
0.14150000 0.14148400 11412.73074775 0 270.48434734 0 3526.60134644 0 -82.02783074 0 55.69011991 0 21771
0.14250000 0.14249400 10893.37435945 0 155.37768717 0 3532.19130971 0 -69.07919104 0 425.14110670 0 22470
0.14350000 0.14350900 10943.27365452 0 121.63937517 0 4182.37945721 0 -49.36148293 0 594.71441684 0 22519
0.14450000 0.14449900 10759.55906827 0 127.12286294 0 3978.26815977 0 122.28599195 0 264.46404563 0 22218
0.14550000 0.14550500 10650.56587586 0 118.58818689 0 3743.30115242 0 332.54735810 0 882.19602350 0 23559
0.14650000 0.14650700 10476.62263412 0 54.15165998 0 4124.84941863 0 166.92584143 0 833.33375535 0 23044
0.14750000 0.14750500 10296.75669322 0 219.36723884 0 3633.20993151 0 390.80941567 0 1506.20672796 0 23649
0.14850000 0.14849900 10234.25779841 0 123.56702520 0 3600.51308291 0 249.36116275 0 1399.18776861 0 23640
0.14950000 0.14949500 9900.63459421 0 32.44164016 0 3206.28757858 0 251.32652285 0 1600.33771646 0 24457
0.15050000 0.15050000 9846.68701225 0 42.80614189 0 3168.66623853 0 273.69192149 0 1848.69179853 0 24591
0.15150000 0.15149900 10044.19904751 0 26.19607625 0 3133.65132977 0 149.92969123 0 1989.47236139 0 25020
0.15250000 0.15250500 9825.03699581 0 -38.52172342 0 2531.29951471 0 411.72519487 0 1859.77190428 0 25297
0.15350000 0.15350100 9891.21816800 0 63.52372140 0 2878.28761123 0 114.87263591 0 2405.61407089 0 25452
0.15450000 0.15450400 9923.37154795 0 115.43274136 0 2594.84098202 0 -115.67342033 0 2060.18983313 0 26061
0.15550000 0.15549900 9595.92614045 0 273.92483663 0 3138.07671735 0 -228.77922857 0 2114.93598127 0 26128
0.15650000 0.15649500 9331.23472528 0 312.77508130 0 3277.30451264 0 -285.18461977 0 2134.84467979 0 26331
0.15750000 0.15749700 9219.84583433 0 -73.23827898 0 3515.86506780 0 -5.60728771 0 2018.47584141 0 27345
0.15850000 0.15849900 9244.13555565 0 -120.33837777 0 3465.87704315 0 616.90679282 0 2202.78935230 0 26980
0.15950000 0.15949700 9546.54813164 0 -47.00770911 0 2898.26285693 0 371.71481100 0 2207.32565185 0 27777
0.16050000 0.16050000 9411.72354153 0 13.54401515 0 2622.60224798 0 43.23758945 0 1917.12448370 0 28224
0.16150000 0.16150500 9351.76453083 0 252.22490980 0 2863.34776894 0 -139.32872518 0 1803.92772764 0 28075
0.16250000 0.16249700 8973.32179976 0 235.45945649 0 2806.10610149 0 -358.61610741 0 1506.06254240 0 28590
0.16350000 0.16349900 8791.12670749 0 237.11648132 0 3230.24456399 0 -332.21794955 0 1890.67197898 0 29163
0.16450000 0.16449100 8503.22141711 0 174.14399240 0 2950.29166182 0 5.14801234 0 820.71419146 0 28996
0.16550000 0.16550500 8434.41163125 0 19.59736862 0 3670.47635326 0 13.01729421 0 1400.54089464 0 30777
0.16650000 0.16650700 8454.60870089 0 64.62995738 0 3141.77008593 0 -107.05400754 0 268.28496298 0 29211
0.16750000 0.16749900 8495.29121129 0 30.44910663 0 3351.61553219 0 -14.90146675 0 1264.40754329 0 30922
0.16850000 0.16850800 8200.01027494 0 -9.60289141 0 3378.33422564 0 23.36748829 0 190.06318738 0 30867
0.16950000 0.16949900 8505.47293009 0 74.21696620 0 3418.96128006 0 153.81050104 0 980.99529680 0 30852
0.17050000 0.17049200 8382.05009045 0 24.85991975 0 3003.62922794 0 148.08078870 0 170.80110564 0 31257
0.17150000 0.17149500 8131.10066830 0 152.91876880 0 3380.60792102 0 63.46904180 0 623.25206659 0 32608
0.17250000 0.17250900 8195.44070180 0 54.98361066 0 2997.50688723 0 9.98701284 0 423.14690949 0 32361
0.17350000 0.17350400 8082.73195841 0 -42.91372650 0 2593.49894719 0 464.13775517 0 111.50313028 0 32508
0.17450000 0.17449800 8075.61140997 0 -16.59875262 0 2493.56726269 0 298.19015731 0 511.57036804 0 32791
0.17550000 0.17549800 7962.10410040 0 88.16958105 0 1867.49137735 0 118.51609411 0 3.73490512 0 33633
0.17650000 0.17650100 7976.48938284 0 73.00658388 0 1820.50906708 0 116.64944566 0 139.12242892 0 33984
0.17750000 0.17750300 7734.61255980 0 40.75582322 0 1690.01004379 0 -10.77604059 0 -425.65241088 0 34069
0.17850000 0.17849800 7702.93610131 0 143.65983759 0 1689.56639591 0 -191.15899764 0 -332.67601598 0 34536
