### header ###
fiducial parameters:
Omega_m = 0.31
Omega_nu = 0
Omega_de = 0.69
Omega_k = 0
H_0 = 100
w_de = -1
zeff = 0
beta = 0
fgrowth = 0
b_1 = 2
gamma = 0.55
Lx = 3500 Ly = 3500 Lz = 3500
nx = 700 ny = 700 nz = 700
xoffset = 1379.75464 yoffset = 22.6059522 zoffset = 368.141391
bins = 400 dk = 0.001
kx_ny = 0.628318531 ky_ny = 0.628318531 kz_ny = 0.628318531
############################
A(data) = 3.35895413 (not used)
A(ran) = 3.36023147 (used)
Ngal = 189028
weighted Ngal = 0
Nran = 9399747
weighted Nran = 0
SN(data) = 6637.90525
SN(ran) = 133.654493
SN(data+ran) = 6771.55974
############################
13 columns: k_central k_mean P_0(k) sigma^{lin}_{P_0(k)} P^img_1(k) sigma^{lin}_{P_1(k)} P_2(k) sigma^{lin}_{P_2(k)} P^img_3(k) sigma^{lin}_{P_3(k)} P_4(k) sigma^{lin}_{P_4(k)} N_modes
### header ###
0.00050000 0 0 0 0 0 0 0 0 0 0 0 0
0.00150000 0.00179520 29592.64440149 0 -29295.40032328 0 -52227.78095736 0 67217.75545683 0 27350.55893841 0 3
0.00250000 0.00253879 53090.34334403 0 -30591.07395077 0 -20931.86144053 0 -46404.90255955 0 8936.75412342 0 6
0.00350000 0.00331552 62107.26463899 0 -9540.12632860 0 -44625.98548102 0 -39268.82644306 0 -24454.31467932 0 7
0.00450000 0.00420575 73574.12042785 0 -2608.44988068 0 -44152.94593118 0 -39512.50004001 0 401.74755410 0 24
0.00550000 0.00557378 57373.76360543 0 6391.49079176 0 -30788.60816842 0 -30239.48300751 0 6263.82002369 0 45
0.00650000 0.00659388 60917.29011842 0 7014.62750990 0 -19999.64633703 0 -23657.85582647 0 -35651.87620628 0 40
0.00750000 0.00754703 40708.79654285 0 924.28600680 0 -3519.59170997 0 -6105.78155838 0 -8518.98200798 0 57
0.00850000 0.00846663 44457.06655150 0 1899.71130449 0 -21288.11068651 0 7385.21767353 0 -9844.09167217 0 75
0.00950000 0.00948925 44591.49185851 0 -9618.24162871 0 -30086.31357766 0 14739.97892025 0 6722.90684777 0 112
0.01050000 0.01054430 51336.38145863 0 -9756.51558106 0 -33229.44788081 0 9698.84135693 0 -12016.20277370 0 105
0.01150000 0.01145670 66892.11791443 0 -9471.40527231 0 -57479.01906447 0 -1534.76656010 0 -1743.81344018 0 144
0.01250000 0.01249090 66182.39222171 0 -3609.60786441 0 -49926.46850258 0 -13233.46163877 0 -8558.75504023 0 169
0.01350000 0.01339930 70731.77938593 0 2436.22577446 0 -44508.19696943 0 -31106.37096099 0 -6926.05321107 0 180
0.01450000 0.01448870 72895.22826265 0 1187.87828435 0 -37372.89723673 0 -19585.83377890 0 -9611.79764328 0 267
0.01550000 0.01550050 65184.29540834 0 5269.51639968 0 -20444.84698254 0 -12408.60932173 0 -30141.99138634 0 238
0.01650000 0.01653350 55796.15175151 0 6210.51573116 0 -4184.47569343 0 -19481.79835152 0 -11834.52896769 0 315
0.01750000 0.01747870 55895.19614026 0 3625.43500245 0 3754.79163246 0 3810.42507635 0 -18139.65260882 0 297
0.01850000 0.01844180 54199.68486279 0 -2438.08909555 0 9796.82099077 0 2.75974490 0 -8291.61247054 0 388
0.01950000 0.01947590 57714.59608765 0 -2781.03999639 0 7742.14348253 0 -3614.34380550 0 -25332.84838959 0 399
0.02050000 0.02045430 59910.32034749 0 1707.30121983 0 19147.39876353 0 -13816.30403840 0 -23833.54038613 0 462
0.02150000 0.02154770 58590.13517474 0 2930.13895696 0 28757.47727129 0 -15636.14763367 0 -21364.52903348 0 571
0.02250000 0.02255340 59762.47469217 0 1207.67607090 0 33013.28045229 0 -8605.31588502 0 -31687.99332895 0 510
0.02350000 0.02348930 59717.66625650 0 -1324.37764519 0 39877.28950764 0 3254.98902438 0 -31838.16813563 0 555
0.02450000 0.02439640 64686.96613718 0 -1220.53076817 0 36323.78091740 0 5143.73113509 0 -37476.48901623 0 592
0.02550000 0.02547300 62981.36187048 0 -999.30908120 0 37638.08775576 0 5711.92206355 0 -17699.55391391 0 837
0.02650000 0.02652900 66735.06656564 0 1994.43012643 0 29917.28373617 0 -606.70510986 0 -24131.33902419 0 723
0.02750000 0.02749970 61421.71775562 0 2368.82457061 0 39814.06968503 0 5665.61631629 0 -8708.20891911 0 826
0.02850000 0.02848090 62365.68952789 0 586.73540976 0 28503.26703724 0 4387.10077048 0 -12270.74574367 0 831
0.02950000 0.02946900 61038.96054894 0 201.20651296 0 32099.47673573 0 7141.56625898 0 1678.16464545 0 996
0.03050000 0.03053250 61056.59555209 0 -137.53416952 0 26443.52085198 0 8050.17929537 0 7260.23097512 0 1041
0.03150000 0.03150510 58673.98462367 0 2200.61547769 0 22032.33000174 0 3482.38074421 0 1572.36571776 0 1036
0.03250000 0.03246190 56507.87385968 0 1083.78518275 0 25921.79094754 0 4346.99500231 0 19196.42185404 0 1059
0.03350000 0.03345080 53190.49685247 0 1565.73318198 0 18043.82466719 0 648.06751064 0 3809.08304152 0 1302
0.03450000 0.03451200 52495.96609957 0 772.81907568 0 17228.51077952 0 6379.29047512 0 16803.82884837 0 1339
0.03550000 0.03553350 49508.77402551 0 1764.45415770 0 15569.15680410 0 1996.64836582 0 9586.13261355 0 1365
0.03650000 0.03647120 50729.69298557 0 842.11687421 0 13112.45668007 0 -88.50797347 0 11605.27392677 0 1308
0.03750000 0.03744890 47269.01771378 0 628.50485746 0 14097.68770498 0 4507.55116933 0 8787.62188926 0 1579
0.03850000 0.03847530 44398.17229570 0 1638.84635227 0 14751.18102917 0 -4896.82999982 0 1685.66229458 0 1662
0.03950000 0.03950240 44774.16387225 0 2246.98777213 0 13999.86334789 0 -3668.42448182 0 -2572.12621067 0 1683
0.04050000 0.04050350 41684.71096232 0 542.14879803 0 21507.27273821 0 -2750.27301605 0 -4996.16275969 0 1822
0.04150000 0.04152450 40674.96839216 0 1079.46405242 0 16766.34060269 0 -1503.16774000 0 -2450.16740903 0 1887
0.04250000 0.04250150 43966.50291048 0 -2041.31261593 0 16804.93796807 0 5733.30589126 0 -5364.20194802 0 1920
0.04350000 0.04349210 41752.03452780 0 -176.17589968 0 17661.95475626 0 1549.56221683 0 -9057.33761665 0 2005
0.04450000 0.04448520 44433.66412594 0 1152.58609566 0 14801.20232740 0 -210.78597976 0 -3536.00668146 0 2151
0.04550000 0.04548030 41562.15323604 0 177.81961507 0 15678.84874192 0 3334.33544735 0 2499.68960340 0 2274
0.04650000 0.04648670 41461.55607972 0 142.08156027 0 13060.32805441 0 2783.64642767 0 1102.07123916 0 2311
0.04750000 0.04749250 43648.74011791 0 -859.84726165 0 11021.55532258 0 2922.14220396 0 1605.37311988 0 2568
0.04850000 0.04851840 41810.48513571 0 1132.81049150 0 11172.71724579 0 2560.46936268 0 2042.89865709 0 2493
0.04950000 0.04949480 40998.83134304 0 1929.16952358 0 8167.16924078 0 -2926.21267324 0 4011.92994250 0 2644
0.05050000 0.05050630 38297.45941433 0 1087.07483177 0 12057.35111438 0 -732.70554367 0 3572.51890181 0 2829
0.05150000 0.05149060 36747.68646476 0 1465.93459184 0 12490.90600309 0 862.29841618 0 1236.59082135 0 2784
0.05250000 0.05249300 35724.07989841 0 120.16979157 0 11421.60370531 0 267.71931194 0 2144.89330423 0 3055
0.05350000 0.05348950 35195.47345186 0 2.43917603 0 10180.13275730 0 1874.37901066 0 1271.02898787 0 3009
0.05450000 0.05448610 36070.34706713 0 1.79259252 0 10898.97541391 0 444.74146995 0 3535.84031350 0 3336
0.05550000 0.05550870 35222.09232453 0 432.88054393 0 11736.26096273 0 -298.29552368 0 1346.01657044 0 3349
0.05650000 0.05647670 34666.09062152 0 1112.16977398 0 14047.99914265 0 -568.32956842 0 4572.66758662 0 3324
0.05750000 0.05747970 33918.10029933 0 569.14144404 0 13879.30203707 0 237.04771590 0 6838.55475835 0 3639
0.05850000 0.05849280 33612.31599947 0 68.72837648 0 14947.60612712 0 2263.34728763 0 5261.49746428 0 3846
0.05950000 0.05951020 33483.87993881 0 194.88453070 0 15605.75775403 0 1171.56313364 0 9439.54026348 0 3787
0.06050000 0.06049470 34201.36946939 0 817.64747550 0 14145.60167579 0 -1706.34737689 0 6920.67398055 0 3930
0.06150000 0.06148310 32054.11374021 0 1299.23390171 0 16815.03095729 0 -567.79719097 0 6295.76267090 0 4083
0.06250000 0.06249100 31319.32194239 0 779.50595832 0 17103.29116598 0 -1491.38888884 0 6310.89106354 0 4303
0.06350000 0.06350600 30070.45316602 0 151.31276349 0 16804.05067231 0 988.37205189 0 4553.69054864 0 4470
0.06450000 0.06451750 30252.79244385 0 -2.17498372 0 16103.64158503 0 3753.82669832 0 3656.37944194 0 4479
0.06550000 0.06550280 30335.08912521 0 -69.81287372 0 13227.69421636 0 2042.26645886 0 3955.02101096 0 4636
0.06650000 0.06648880 29754.13222906 0 236.27909595 0 11174.60274927 0 741.61399306 0 2905.97123881 0 4653
0.06750000 0.06749660 29003.25819566 0 711.91953147 0 11830.53613679 0 384.41755887 0 3443.77228764 0 5220
0.06850000 0.06852730 28175.30034348 0 689.25245227 0 11331.54318609 0 -866.43765088 0 1799.21396894 0 5029
0.06950000 0.06949320 27282.68081309 0 455.48773067 0 10566.68315334 0 -12.33540742 0 860.27316361 0 5040
0.07050000 0.07048030 27565.83907117 0 -241.49528587 0 11651.96786592 0 648.91487809 0 1962.23238169 0 5475
0.07150000 0.07148790 27349.78255462 0 -194.25233247 0 10951.79169378 0 1307.65212020 0 -531.28940709 0 5509
0.07250000 0.07249820 28156.00166079 0 3.32945532 0 10925.43900983 0 -434.51427724 0 702.24911685 0 5916
0.07350000 0.07351270 27735.42347251 0 567.05740813 0 11285.84745466 0 -213.91258818 0 -468.35462825 0 5721
0.07450000 0.07449140 27642.59015406 0 353.71823483 0 11379.45715691 0 -300.05791488 0 1032.89766203 0 6028
0.07550000 0.07549160 26886.39234613 0 -56.04115629 0 11509.00233726 0 1134.80690695 0 1542.21984445 0 6183
0.07650000 0.07648840 26958.37421432 0 430.17096452 0 11366.36954451 0 559.55088604 0 844.39611518 0 6330
0.07750000 0.07749960 26515.28089624 0 254.43982183 0 10816.22399348 0 1140.51887338 0 2687.77412125 0 6583
0.07850000 0.07848650 25672.68266408 0 683.67247109 0 11001.46916491 0 563.02132156 0 2081.75112000 0 6549
0.07950000 0.07947320 24877.00019502 0 841.77859270 0 9629.31064327 0 659.81530645 0 3895.82729285 0 6828
0.08050000 0.08048110 23661.40500949 0 523.25161667 0 9500.60839388 0 652.13354344 0 2606.00981735 0 7147
0.08150000 0.08149960 22793.29702435 0 986.73055474 0 11123.25050740 0 -414.30833464 0 3865.48177800 0 7386
0.08250000 0.08250610 21455.25502452 0 828.11867454 0 9438.57532935 0 -272.77689774 0 2295.82231230 0 7227
0.08350000 0.08350160 20810.41283395 0 153.95468660 0 11232.38788537 0 931.32115302 0 3613.37887137 0 7798
0.08450000 0.08449610 20796.10518989 0 -311.89444026 0 9341.70481520 0 815.16859298 0 3188.09801558 0 7371
0.08550000 0.08548940 21138.71226362 0 -297.89734971 0 8220.97263717 0 1647.20911477 0 2187.28385896 0 8256
0.08650000 0.08650700 21312.62223177 0 158.51538678 0 8758.08603179 0 665.01042310 0 2976.89944330 0 8037
0.08750000 0.08749060 20967.02053486 0 383.48589832 0 6716.50722713 0 -621.20906811 0 2377.24278909 0 8155
0.08850000 0.08849210 20329.83127018 0 379.88458667 0 8676.53246063 0 90.34844669 0 2643.09877994 0 8718
0.08950000 0.08949900 20059.42788859 0 127.64414920 0 7031.64140602 0 498.29198705 0 1638.13651566 0 8571
0.09050000 0.09049190 19946.74132759 0 33.95991411 0 7266.64168696 0 641.80431173 0 1110.36190888 0 8932
0.09150000 0.09150830 19742.33056784 0 -46.19594441 0 5460.98373259 0 730.29875394 0 43.88165525 0 9285
0.09250000 0.09250820 19501.09703421 0 89.76992986 0 4550.19682160 0 619.73504804 0 639.69254783 0 9204
0.09350000 0.09350330 19336.61458347 0 128.18318137 0 4092.35221158 0 161.38024296 0 -121.79021545 0 9349
0.09450000 0.09448040 18971.15964403 0 274.68014714 0 3582.98899173 0 -17.50279608 0 -1199.53513234 0 9564
0.09550000 0.09549270 18470.28118984 0 420.20774230 0 3883.44951706 0 -76.57417829 0 -1405.52084207 0 10155
0.09650000 0.09649430 17788.72713738 0 632.64852864 0 3557.25741481 0 -497.39803658 0 -1720.99884806 0 9913
0.09750000 0.09749140 17239.15832859 0 416.91365680 0 3847.95768682 0 -493.01146819 0 -1724.92513178 0 10476
0.09850000 0.09850240 16551.17138189 0 555.13104405 0 5695.21872094 0 -643.42584472 0 -1870.31963258 0 10575
0.09950000 0.09950330 16339.44043215 0 206.80313094 0 5188.43974998 0 27.51237950 0 -1490.81214660 0 10882
0.10050000 0.10051200 16332.45297807 0 -200.60647920 0 5901.90317607 0 377.75507686 0 -929.83049615 0 10875
0.10150000 0.10150300 16570.13732868 0 -86.80170373 0 4694.04964602 0 884.34660659 0 -1022.27895008 0 11118
0.10250000 0.10250800 16893.00207184 0 -136.16107933 0 5182.18431491 0 43.56932715 0 -377.72845799 0 11575
0.10350000 0.10349800 16727.85414928 0 57.79101443 0 4979.54814666 0 -125.61667840 0 -1121.26455548 0 11364
0.10450000 0.10450100 16566.92088156 0 428.81340201 0 5671.39482990 0 -377.50996141 0 -217.31647652 0 12093
0.10550000 0.10551000 16168.96873506 0 289.09759405 0 5171.50349224 0 -214.45827507 0 -662.64799815 0 12067
0.10650000 0.10649700 15907.43831102 0 241.79031171 0 6067.12873701 0 399.44502161 0 -136.23760859 0 12054
0.10750000 0.10749900 15740.84853286 0 55.31523745 0 5393.83762627 0 385.77068489 0 -814.23471420 0 12807
0.10850000 0.10850100 15329.47603805 0 215.68274321 0 5429.56237164 0 267.13702410 0 -420.54047821 0 12736
0.10950000 0.10950300 15359.20044587 0 153.31583365 0 4434.23835751 0 357.44709525 0 -922.53359768 0 12933
0.11050000 0.11050200 15127.17260571 0 -115.31073819 0 4863.25694666 0 543.45755927 0 203.27502119 0 13428
0.11150000 0.11150900 15110.75763423 0 -3.90624193 0 4065.65570052 0 961.37718763 0 397.29222028 0 13453
0.11250000 0.11250000 15137.04377100 0 99.07156218 0 3729.14878511 0 -117.83953110 0 -865.62355702 0 13668
0.11350000 0.11349100 14979.99242221 0 101.19330816 0 3685.23873640 0 -106.52573383 0 -169.36257740 0 13791
0.11450000 0.11448600 14609.32462020 0 216.93161199 0 3571.76470042 0 -271.54466576 0 -868.34533675 0 14205
0.11550000 0.11549300 14615.31386655 0 119.71394338 0 3851.12976915 0 -189.17700075 0 -3.87162630 0 14776
0.11650000 0.11649800 14523.70057976 0 82.52504910 0 3655.68069653 0 216.32270528 0 -1696.08801972 0 14553
0.11750000 0.11747300 14310.30595047 0 182.63652191 0 3820.34060642 0 -76.30754592 0 -1296.91584155 0 14568
0.11850000 0.11849100 14111.10805328 0 157.34415639 0 3046.61870731 0 356.07511418 0 -1074.75473020 0 16015
0.11950000 0.11950300 13965.03698948 0 -8.97063773 0 3500.20429771 0 425.07123216 0 -500.95831080 0 15270
0.12050000 0.12050700 13915.90298700 0 -37.91802957 0 2766.78780831 0 597.79333312 0 -610.77779738 0 15999
0.12150000 0.12150000 13974.90815476 0 -21.17797510 0 2553.79246212 0 673.74141334 0 -398.57990825 0 15670
0.12250000 0.12250700 13794.78711632 0 244.81820848 0 2570.32943677 0 -350.42858582 0 -208.29933341 0 16887
0.12350000 0.12352200 13504.08684431 0 396.08438894 0 2637.83046139 0 -334.29865810 0 -6.70573767 0 16407
0.12450000 0.12449800 12959.84181006 0 279.72220527 0 3212.76483760 0 -367.92383988 0 210.55084639 0 16306
0.12550000 0.12549900 12617.45656027 0 274.98626418 0 3517.91693923 0 -224.91838291 0 -38.23157770 0 17523
0.12650000 0.12650100 12714.94818144 0 149.64132011 0 3893.83087740 0 5.74988723 0 36.65407676 0 17154
0.12750000 0.12750600 12330.30547128 0 29.85983134 0 3552.92075680 0 202.03169801 0 106.51464263 0 18007
0.12850000 0.12850300 12246.78875826 0 88.67922155 0 3598.57212344 0 209.20437508 0 202.33116033 0 17496
0.12950000 0.12949900 12385.65054405 0 101.30843478 0 3522.03177330 0 168.59617569 0 391.30962865 0 18405
0.13050000 0.13049000 12139.86961968 0 26.21626223 0 3964.06033648 0 92.91628061 0 165.61153459 0 18100
0.13150000 0.13148800 12257.76904324 0 -30.12213814 0 3192.58995035 0 397.19129039 0 576.57365511 0 19059
0.13250000 0.13249300 12157.72644676 0 156.54559021 0 3154.64696559 0 -12.89551287 0 169.41248779 0 18957
0.13350000 0.13349100 11978.93635196 0 191.02146680 0 3296.86938406 0 -112.93056733 0 699.42197075 0 19468
0.13450000 0.13450700 11681.24862587 0 233.73366625 0 3660.35009044 0 -167.49481983 0 599.86184135 0 19953
0.13550000 0.13551000 11676.59032315 0 163.40771376 0 3608.96457498 0 -89.22945583 0 1105.80342693 0 19956
0.13650000 0.13649900 11287.95478208 0 126.51728359 0 3925.08587040 0 175.37178791 0 202.92121201 0 19723
0.13750000 0.13749600 11208.09816406 0 177.55564459 0 3836.10119728 0 -367.05983564 0 323.29508160 0 20946
0.13850000 0.13851100 11043.64898691 0 271.89071111 0 4544.34066961 0 -179.80826669 0 587.22453154 0 20955
0.13950000 0.13949800 10839.34913912 0 -24.61058964 0 4232.91095050 0 335.75604138 0 859.24057318 0 20506
0.14050000 0.14048300 10954.39812506 0 -124.38000994 0 4396.62810865 0 418.69601215 0 1204.09361429 0 21447
0.14150000 0.14148400 11098.84987412 0 -27.43296653 0 3690.81760846 0 154.61904930 0 301.05057700 0 21771
0.14250000 0.14249400 11255.45757503 0 -138.18522278 0 3875.50822004 0 167.75879032 0 399.71231946 0 22470
0.14350000 0.14350900 11317.79010187 0 128.90521829 0 3712.02397703 0 -49.57576486 0 673.43751454 0 22519
0.14450000 0.14449900 11076.20164995 0 22.41076164 0 3207.99562291 0 -86.54616255 0 141.80538946 0 22218
0.14550000 0.14550500 11311.24629568 0 24.29338141 0 3637.77950465 0 282.14452269 0 -59.50782081 0 23559
0.14650000 0.14650700 11005.40653983 0 79.02788379 0 2658.48227011 0 23.97417676 0 -610.65246686 0 23044
0.14750000 0.14750500 10943.36238410 0 207.38209142 0 3337.80699199 0 229.43250007 0 377.72956711 0 23649
0.14850000 0.14849900 10536.93656313 0 213.36357393 0 2827.46774681 0 -152.23998755 0 -727.00910492 0 23640
0.14950000 0.14949500 10361.54037459 0 307.81509802 0 3375.96070949 0 -260.11075083 0 -364.16059676 0 24457
0.15050000 0.15050000 9901.72153151 0 230.58043896 0 3165.53852099 0 -297.70436289 0 -764.11137695 0 24591
0.15150000 0.15149900 9805.06175011 0 66.46976513 0 3315.14767663 0 301.72270354 0 -270.21372213 0 25020
0.15250000 0.15250500 9761.98354116 0 20.05887333 0 2971.87513108 0 274.66905594 0 -731.06737388 0 25297
0.15350000 0.15350100 9710.14328662 0 92.54982746 0 2764.54738653 0 374.29351429 0 -657.63366801 0 25452
0.15450000 0.15450400 9318.99004385 0 133.57683045 0 2718.50782799 0 181.66493305 0 69.03937364 0 26061
0.15550000 0.15549900 9334.16280128 0 103.14092234 0 2663.37348796 0 98.59120244 0 133.03003444 0 26128
0.15650000 0.15649500 9344.98780950 0 3.28377068 0 2555.78887757 0 294.25832799 0 28.67695518 0 26331
0.15750000 0.15749700 9227.33239227 0 10.37311958 0 2618.76469384 0 -12.16083198 0 0.51260629 0 27345
0.15850000 0.15849900 9272.96157652 0 15.97487279 0 2420.70918993 0 -67.28463537 0 745.63898844 0 26980
0.15950000 0.15949700 9111.51811374 0 239.63196478 0 2902.97661564 0 -177.54788075 0 3.54187392 0 27777
0.16050000 0.16050000 8965.93506260 0 298.59165864 0 2945.73317987 0 -402.62930426 0 362.36936845 0 28224
0.16150000 0.16150500 8700.75563476 0 105.52020591 0 3451.34757515 0 15.66542839 0 344.25744384 0 28075
0.16250000 0.16249700 8726.97522435 0 -32.12565196 0 3323.64353349 0 345.83239380 0 480.09909670 0 28590
0.16350000 0.16349900 8629.96052464 0 -13.06909010 0 3122.22739691 0 426.82585952 0 568.96176665 0 29163
0.16450000 0.16449100 8767.25845166 0 31.49134641 0 2665.10371469 0 188.96404977 0 778.76506636 0 28996
0.16550000 0.16550500 8523.49612513 0 28.22077425 0 2662.61928657 0 219.09217716 0 986.59635125 0 30777
0.16650000 0.16650700 8528.39843418 0 167.63789627 0 2614.49458301 0 44.38874478 0 768.39146985 0 29211
0.16750000 0.16749900 8373.15495050 0 54.94778610 0 2154.28754804 0 252.54544539 0 1000.67329842 0 30922
0.16850000 0.16850800 8257.03011845 0 -13.09038520 0 2134.10156960 0 311.59054146 0 876.57056841 0 30867
0.16950000 0.16949900 8208.27321667 0 126.96093147 0 1893.12313350 0 58.86430956 0 1146.57466692 0 30852
0.17050000 0.17049200 8127.61803246 0 74.08819741 0 1922.98063569 0 -80.18846664 0 524.40177379 0 31257
0.17150000 0.17149500 8041.86089766 0 69.02717333 0 1954.26890228 0 -20.02548883 0 765.43899323 0 32608
0.17250000 0.17250900 7991.90614660 0 23.58165930 0 1816.42750660 0 -84.51381163 0 455.21488723 0 32361
0.17350000 0.17350400 8067.74775133 0 -24.72005976 0 1779.17217606 0 -17.48005913 0 -177.97267359 0 32508
0.17450000 0.17449800 8047.00721304 0 22.85906782 0 1915.99318161 0 -104.26468242 0 19.63873879 0 32791
0.17550000 0.17549800 7986.10545060 0 148.80393474 0 1962.28783767 0 -214.48711218 0 -362.76532418 0 33633
0.17650000 0.17650100 8023.06131883 0 42.34208621 0 1702.47654916 0 32.31298228 0 39.74197690 0 33984
0.17750000 0.17750300 7900.76978128 0 -79.12615180 0 1876.03159900 0 412.90751647 0 -84.80107363 0 34069
0.17850000 0.17849800 8056.04653855 0 35.05117698 0 1658.81050677 0 367.83621943 0 236.84474699 0 34536
