### header ###
fiducial parameters:
Omega_m = 0.31
Omega_nu = 0
Omega_de = 0.69
Omega_k = 0
H_0 = 100
w_de = -1
zeff = 0
beta = 0
fgrowth = 0
b_1 = 2
gamma = 0.55
Lx = 3500 Ly = 3500 Lz = 3500
nx = 700 ny = 700 nz = 700
xoffset = 1379.75464 yoffset = 22.6059522 zoffset = 368.141391
bins = 400 dk = 0.001
kx_ny = 0.628318531 ky_ny = 0.628318531 kz_ny = 0.628318531
############################
A(data) = 3.35077973 (not used)
A(ran) = 3.35516605 (used)
Ngal = 187765
weighted Ngal = 0
Nran = 9399747
weighted Nran = 0
SN(data) = 6619.37337
SN(ran) = 133.453014
SN(data+ran) = 6752.82638
############################
13 columns: k_central k_mean P_0(k) sigma^{lin}_{P_0(k)} P^img_1(k) sigma^{lin}_{P_1(k)} P_2(k) sigma^{lin}_{P_2(k)} P^img_3(k) sigma^{lin}_{P_3(k)} P_4(k) sigma^{lin}_{P_4(k)} N_modes
### header ###
0.00050000 0 0 0 0 0 0 0 0 0 0 0 0
0.00150000 0.00179520 15261.93064863 0 -20798.87798912 0 -19071.31315247 0 25188.21918138 0 21000.29412570 0 3
0.00250000 0.00253879 16962.54387670 0 -17350.18121004 0 -7364.34404088 0 -21794.53473917 0 -13697.96096696 0 6
0.00350000 0.00331552 27595.00891915 0 -3684.50671740 0 -14298.54928171 0 -10929.35420235 0 -16506.36294622 0 7
0.00450000 0.00420575 36561.35435603 0 -3512.99244779 0 -22940.36629589 0 -3727.82893268 0 4139.92235529 0 24
0.00550000 0.00557378 41746.26710538 0 -12392.74891010 0 -32111.56614040 0 18042.82645946 0 20286.13195421 0 45
0.00650000 0.00659388 60202.12973920 0 -17712.08696646 0 -72170.19671815 0 3639.82028489 0 -1382.38460523 0 40
0.00750000 0.00754703 70663.79034864 0 -16066.37516329 0 -40760.92516850 0 -1171.11948576 0 2015.07084395 0 57
0.00850000 0.00846663 89528.80723787 0 -4618.51859480 0 -85236.18128300 0 -24083.09231746 0 -6957.43020724 0 75
0.00950000 0.00948925 81388.42323772 0 10810.63403022 0 -49758.88051669 0 -28461.89687262 0 19485.34753455 0 112
0.01050000 0.01054430 68192.44984463 0 1360.57931203 0 -20216.70106131 0 -15289.88046494 0 -160.75248121 0 105
0.01150000 0.01145670 63042.80710158 0 7130.66361238 0 -10200.08582061 0 -12817.31992927 0 2503.34969840 0 144
0.01250000 0.01249090 60306.94155036 0 4769.64724442 0 3752.10756280 0 -2573.62352226 0 916.31476355 0 169
0.01350000 0.01339930 54669.50796551 0 -987.26736867 0 10494.43509642 0 -1320.96155653 0 21804.18408051 0 180
0.01450000 0.01448870 57293.13060362 0 -1447.68957286 0 6689.84398967 0 13265.95884583 0 28329.02433318 0 267
0.01550000 0.01550050 68494.79587344 0 -11407.40697322 0 -12102.15955005 0 14140.16698929 0 7594.68601910 0 238
0.01650000 0.01653350 74805.90876092 0 -986.03070021 0 175.08563502 0 891.16658359 0 11993.13308405 0 315
0.01750000 0.01747870 81551.57474483 0 1107.29075645 0 5332.58094552 0 -19466.49249973 0 7219.63719429 0 297
0.01850000 0.01844180 81748.99805051 0 -4181.63634701 0 13712.60134694 0 1567.04194322 0 15152.23871081 0 388
0.01950000 0.01947590 78591.44519132 0 372.98697129 0 4233.29914239 0 -7587.68747382 0 -8913.17423871 0 399
0.02050000 0.02045430 82476.35874637 0 6061.68295931 0 23792.94660530 0 -11719.84599125 0 -8230.25596902 0 462
0.02150000 0.02154770 73337.54519695 0 6615.47751413 0 31147.63021363 0 -7432.37744296 0 3266.11349492 0 571
0.02250000 0.02255340 66694.80552072 0 5764.90471137 0 39609.76983725 0 3600.74599804 0 1278.48227222 0 510
0.02350000 0.02348930 65752.16469209 0 1834.41742805 0 40036.22635991 0 5249.28605644 0 -5868.51867326 0 555
0.02450000 0.02439640 61165.51110612 0 -2664.90407314 0 33877.39560653 0 14179.65165042 0 -6102.68711443 0 592
0.02550000 0.02547300 61974.05936364 0 1025.70723905 0 31420.14092265 0 1909.56028738 0 7166.71000246 0 837
0.02650000 0.02652900 61743.47337909 0 1348.24590103 0 24029.18910029 0 2555.04576737 0 709.98966320 0 723
0.02750000 0.02749970 59075.37504123 0 1364.07303907 0 31163.49062527 0 -1143.16966945 0 5302.30197786 0 826
0.02850000 0.02848090 59750.05255159 0 459.55930907 0 23565.13341998 0 2591.85745004 0 -4499.97588182 0 831
0.02950000 0.02946900 58839.02163426 0 912.26980403 0 28035.10761405 0 1851.46459776 0 2899.15015269 0 996
0.03050000 0.03053250 58457.59537121 0 1107.31293884 0 25464.05724949 0 571.50608723 0 1242.81298284 0 1041
0.03150000 0.03150510 56616.78941371 0 -1050.78554447 0 26512.50809700 0 7292.51744944 0 -3063.41077949 0 1036
0.03250000 0.03246190 58672.21003216 0 184.29132849 0 22478.19611905 0 -1116.85025910 0 5101.15203000 0 1059
0.03350000 0.03345080 58190.63026067 0 1681.13708623 0 25819.97375955 0 995.99170419 0 -5289.62473974 0 1302
0.03450000 0.03451200 55108.27571679 0 2929.21838762 0 26202.06549442 0 -4382.85284204 0 -2713.22841825 0 1339
0.03550000 0.03553350 49469.51118831 0 4015.73422306 0 28623.49561216 0 -4506.65278238 0 -9781.01603512 0 1365
0.03650000 0.03647120 49492.80270190 0 2793.31795141 0 33258.06316894 0 -3559.61983976 0 -9408.05235535 0 1308
0.03750000 0.03744890 43156.73462129 0 1442.64307825 0 34822.80923440 0 2457.50978141 0 -9378.37231231 0 1579
0.03850000 0.03847530 42892.76413392 0 556.69379370 0 29001.48360415 0 6099.51503210 0 -9173.91718777 0 1662
0.03950000 0.03950240 41126.26919598 0 368.16008238 0 26793.55902767 0 5209.94558087 0 -6128.18577621 0 1683
0.04050000 0.04050350 42245.14914412 0 344.97948076 0 21866.18387145 0 5689.45129853 0 -3851.89506174 0 1822
0.04150000 0.04152450 40211.68909563 0 497.20283151 0 20123.09135907 0 2212.69379117 0 374.74603513 0 1887
0.04250000 0.04250150 40978.53445263 0 -754.28346734 0 17425.49043732 0 4472.71371972 0 3774.43414225 0 1920
0.04350000 0.04349210 41312.60130471 0 -1720.25573787 0 12714.61544553 0 4931.11288959 0 -2186.86239348 0 2005
0.04450000 0.04448520 44246.00107357 0 -646.65116479 0 11355.05652362 0 -2876.84575563 0 -4119.43691452 0 2151
0.04550000 0.04548030 42058.59521145 0 1622.66429592 0 13264.73881417 0 -1704.60605897 0 -4767.96138248 0 2274
0.04650000 0.04648670 40809.39369917 0 998.15116024 0 14656.90585511 0 -5403.66442676 0 -3974.07568732 0 2311
0.04750000 0.04749250 42343.30623711 0 410.96655700 0 17917.38502198 0 -2024.55381734 0 -9734.06699844 0 2568
0.04850000 0.04851840 41446.02840400 0 210.08834347 0 21473.33367555 0 978.86800522 0 -8972.16831528 0 2493
0.04950000 0.04949480 39610.87895694 0 1157.95423499 0 17724.73093099 0 -350.81899595 0 -10142.83306197 0 2644
0.05050000 0.05050630 40775.78737242 0 -346.82505593 0 22710.00213527 0 1666.23051753 0 -2308.20008809 0 2829
0.05150000 0.05149060 40528.89732835 0 -97.41941748 0 19712.27342411 0 3494.32596333 0 -6491.33374669 0 2784
0.05250000 0.05249300 41151.33530108 0 466.06651432 0 19121.33445071 0 2003.72454947 0 355.64921222 0 3055
0.05350000 0.05348950 39866.86378251 0 1262.30021587 0 15794.52992609 0 465.97667563 0 -4527.92569813 0 3009
0.05450000 0.05448610 37217.06591961 0 1995.51706373 0 22008.81666421 0 -280.01612199 0 5787.22019963 0 3336
0.05550000 0.05550870 36050.60473656 0 1450.21836577 0 17961.97163371 0 1990.16001560 0 1188.83212729 0 3349
0.05650000 0.05647670 34154.67553023 0 136.76444045 0 19427.00783860 0 1949.92115307 0 6477.76921282 0 3324
0.05750000 0.05747970 32979.78503751 0 648.67752647 0 17316.46397132 0 2836.28524839 0 3641.67251478 0 3639
0.05850000 0.05849280 33105.00465105 0 693.74771439 0 15704.24758293 0 1979.90065842 0 6461.64261246 0 3846
0.05950000 0.05951020 31608.13671092 0 75.34250087 0 15322.26676003 0 970.53407983 0 5836.78675879 0 3787
0.06050000 0.06049470 31615.12416500 0 1023.28159428 0 15187.28689317 0 399.73561097 0 4850.63516453 0 3930
0.06150000 0.06148310 29677.60297012 0 918.53411206 0 14160.24205577 0 -1224.46814308 0 4383.76232019 0 4083
0.06250000 0.06249100 29128.47780921 0 552.30611619 0 15570.93139561 0 -302.51905148 0 1262.33348947 0 4303
0.06350000 0.06350600 28117.40429541 0 498.65245095 0 13966.36793311 0 2149.48505976 0 3062.21293022 0 4470
0.06450000 0.06451750 28514.58005812 0 -274.10895050 0 12271.63303942 0 1116.80589431 0 -64.85743783 0 4479
0.06550000 0.06550280 27388.04718409 0 -415.82228303 0 10727.80497141 0 1031.00106736 0 158.23588862 0 4636
0.06650000 0.06648880 29157.09309733 0 -323.04552967 0 10106.19883845 0 2644.28553802 0 382.46218084 0 4653
0.06750000 0.06749660 28932.27453519 0 -1061.66157220 0 5663.94154555 0 1609.17740043 0 -2700.89500724 0 5220
0.06850000 0.06852730 29233.06779643 0 294.13965219 0 5904.28778342 0 669.14965780 0 -1418.27571856 0 5029
0.06950000 0.06949320 28846.98323066 0 222.85985676 0 4823.77228552 0 -985.23102491 0 -1924.94377755 0 5040
0.07050000 0.07048030 29206.89257163 0 332.90116728 0 5298.47551491 0 -344.15984130 0 -3910.82259112 0 5475
0.07150000 0.07148790 28434.94526404 0 480.94091855 0 6959.28243713 0 -615.43388186 0 -3266.59041639 0 5509
0.07250000 0.07249820 27622.51508758 0 708.41693148 0 5984.99842361 0 -1092.38307863 0 -2343.68082713 0 5916
0.07350000 0.07351270 27524.91255443 0 103.16454659 0 7853.73201502 0 1205.21382518 0 -2319.14709948 0 5721
0.07450000 0.07449140 27266.93131342 0 -68.29415612 0 6466.05690884 0 203.03101486 0 -758.70552756 0 6028
0.07550000 0.07549160 27588.90876083 0 473.54419930 0 8032.52210983 0 823.54799228 0 -293.46308917 0 6183
0.07650000 0.07648840 26822.06340383 0 678.65370447 0 8337.56329949 0 -722.50275160 0 20.30432152 0 6330
0.07750000 0.07749960 25762.18862345 0 787.03022633 0 9258.75375323 0 -1206.76659275 0 240.23976238 0 6583
0.07850000 0.07848650 25467.49552054 0 804.28701966 0 10697.01580868 0 -1282.57492390 0 -1594.02682540 0 6549
0.07950000 0.07947320 23974.84223525 0 773.49120221 0 12031.61953746 0 -731.69513563 0 695.49901439 0 6828
0.08050000 0.08048110 23946.44877106 0 5.54850437 0 11091.19694822 0 1320.69536781 0 -936.59945365 0 7147
0.08150000 0.08149960 23467.53088684 0 -479.57004660 0 10695.11921400 0 2363.70043762 0 96.55474777 0 7386
0.08250000 0.08250610 24595.94926435 0 -183.24986510 0 8406.99419239 0 1334.69245836 0 -484.97367776 0 7227
0.08350000 0.08350160 23392.55439547 0 807.14633023 0 9105.48450260 0 554.79608991 0 1103.25910635 0 7798
0.08450000 0.08449610 22993.60404124 0 588.34141508 0 7737.37426784 0 -461.49694118 0 2393.51357502 0 7371
0.08550000 0.08548940 22334.01055873 0 50.93033274 0 7402.51994077 0 1545.14792045 0 2087.39653925 0 8256
0.08650000 0.08650700 21264.15370110 0 422.74429904 0 7776.44855469 0 728.12155198 0 2671.47006174 0 8037
0.08750000 0.08749060 22024.34433993 0 369.34684045 0 6551.70313168 0 486.36340474 0 2533.27374776 0 8155
0.08850000 0.08849210 20715.02854020 0 218.76942332 0 7182.04912784 0 157.18222491 0 3418.51763218 0 8718
0.08950000 0.08949900 20460.92921811 0 482.25522539 0 6599.22891060 0 39.42332682 0 2976.66652816 0 8571
0.09050000 0.09049190 20170.67259398 0 -265.03413316 0 6469.43972391 0 1081.05231183 0 3204.26898074 0 8932
0.09150000 0.09150830 20164.90517156 0 321.12342524 0 5292.43081257 0 420.57264268 0 2281.07102036 0 9285
0.09250000 0.09250820 19627.86941533 0 401.15639330 0 5424.92625131 0 19.90770031 0 2799.93939599 0 9204
0.09350000 0.09350330 19280.49312691 0 143.56334418 0 5832.92702225 0 -464.78991755 0 2242.70657011 0 9349
0.09450000 0.09448040 19043.58516010 0 274.30970116 0 5141.79017562 0 237.53572856 0 1407.86108462 0 9564
0.09550000 0.09549270 18952.30460921 0 7.35029149 0 4970.53100354 0 298.40421741 0 23.04462355 0 10155
0.09650000 0.09649430 18627.99801045 0 143.23615387 0 4892.63752738 0 -1028.24046844 0 -149.58808236 0 9913
0.09750000 0.09749140 18806.78810525 0 168.88232857 0 4283.83063569 0 645.40451425 0 -729.30720093 0 10476
0.09850000 0.09850240 18131.99968292 0 216.83179122 0 4656.30630280 0 295.49499645 0 -1541.38800468 0 10575
0.09950000 0.09950330 18033.73167796 0 378.96956293 0 4163.45787521 0 -552.08872873 0 -1685.60683860 0 10882
0.10050000 0.10051200 17335.76265401 0 296.98121684 0 4221.98612151 0 49.79803244 0 -1752.84167450 0 10875
0.10150000 0.10150300 17208.32480108 0 208.33371612 0 4744.22622101 0 -706.64899468 0 -2631.17574322 0 11118
0.10250000 0.10250800 16960.76928519 0 12.03760878 0 4086.40733001 0 455.41674701 0 -2496.02950841 0 11575
0.10350000 0.10349800 16855.51382615 0 48.30637736 0 4463.21965513 0 544.02099207 0 -2536.59001565 0 11364
0.10450000 0.10450100 16835.10602377 0 183.64138435 0 3685.37183076 0 -60.63357730 0 -2596.71539431 0 12093
0.10550000 0.10551000 16571.91192019 0 398.74849444 0 4305.32537538 0 -21.92175077 0 -2257.94587472 0 12067
0.10650000 0.10649700 16127.59857044 0 261.19546989 0 4477.84894391 0 -314.03947775 0 -1746.76369857 0 12054
0.10750000 0.10749900 15691.38179447 0 208.50784791 0 4380.10222520 0 174.01311628 0 -1688.21326988 0 12807
0.10850000 0.10850100 15686.27984387 0 151.53680566 0 5073.41294643 0 487.66551126 0 -1669.58005901 0 12736
0.10950000 0.10950300 15577.14246590 0 88.55289282 0 3843.77630557 0 -169.40250571 0 -1742.56013493 0 12933
0.11050000 0.11050200 14936.62584214 0 430.21643842 0 4816.34118357 0 584.94861793 0 -935.90070824 0 13428
0.11150000 0.11150900 14632.39430985 0 338.54547741 0 4180.76014245 0 -235.17441273 0 -1040.90217887 0 13453
0.11250000 0.11250000 14268.27031404 0 172.15644991 0 4246.64185232 0 351.90593325 0 -924.70192669 0 13668
0.11350000 0.11349100 13855.67778757 0 293.21686460 0 4377.11869322 0 44.93742629 0 -926.06281655 0 13791
0.11450000 0.11448600 13658.91995371 0 191.09577782 0 4660.42113687 0 -364.14285084 0 -1082.92450587 0 14205
0.11550000 0.11549300 13450.96001093 0 -67.31191972 0 4086.88425148 0 702.44543104 0 -620.34062739 0 14776
0.11650000 0.11649800 13486.45184116 0 -11.89364505 0 3876.59515734 0 421.62963375 0 -125.53571266 0 14553
0.11750000 0.11747300 13449.85089123 0 -71.79841980 0 3363.10601223 0 661.78288479 0 -417.60796573 0 14568
0.11850000 0.11849100 13585.49622991 0 73.57678232 0 3497.22076573 0 392.78697608 0 175.64463135 0 16015
0.11950000 0.11950300 13408.92437449 0 198.13646964 0 3027.91894926 0 -105.43912926 0 -42.01312130 0 15270
0.12050000 0.12050700 13037.25836476 0 238.25554724 0 3387.86156382 0 -79.26545723 0 1123.57152445 0 15999
0.12150000 0.12150000 12934.99752890 0 29.40254129 0 3358.04842642 0 320.58217483 0 1236.52427417 0 15670
0.12250000 0.12250700 13239.22906118 0 -228.22466872 0 3058.39755847 0 972.94641517 0 1937.25500616 0 16887
0.12350000 0.12352200 13271.06079643 0 -180.82643857 0 2776.38169367 0 569.83908033 0 1838.31043818 0 16407
0.12450000 0.12449800 13480.35168284 0 252.97245647 0 2585.69074454 0 106.81632319 0 2584.68144562 0 16306
0.12550000 0.12549900 13042.24940338 0 339.48157443 0 3258.02801234 0 -1017.06941487 0 2458.71872188 0 17523
0.12650000 0.12650100 12876.99056886 0 234.07305687 0 3661.59230450 0 -463.22494966 0 2976.63325457 0 17154
0.12750000 0.12750600 12716.72277295 0 48.09520097 0 4504.94473805 0 164.14971483 0 2701.81557659 0 18007
0.12850000 0.12850300 12863.12657267 0 23.44534849 0 4036.24184622 0 25.21683447 0 2318.24871253 0 17496
0.12950000 0.12949900 12733.35956838 0 89.54666406 0 4642.12066191 0 155.14366291 0 2186.76257271 0 18405
0.13050000 0.13049000 12736.46510352 0 189.77370714 0 4226.05659079 0 -521.62010159 0 1675.58039656 0 18100
0.13150000 0.13148800 12307.79034147 0 235.38070899 0 4844.81228613 0 -240.09668594 0 1654.37402799 0 19059
0.13250000 0.13249300 12201.75849865 0 207.81021162 0 5079.99002622 0 -479.31383996 0 646.09105935 0 18957
0.13350000 0.13349100 12028.51400232 0 122.61429138 0 4503.87998314 0 -9.08046276 0 337.30769983 0 19468
0.13450000 0.13450700 11833.19802406 0 -61.47750648 0 4407.55293765 0 510.72743707 0 -193.09441151 0 19953
0.13550000 0.13551000 12020.97198839 0 -4.82423812 0 4010.77645802 0 261.47940453 0 -65.95047529 0 19956
0.13650000 0.13649900 11811.23745410 0 62.75598875 0 3564.15613931 0 250.89396617 0 -888.88512438 0 19723
0.13750000 0.13749600 11664.39000651 0 334.29533074 0 4058.15805139 0 -299.69745098 0 -1173.98101458 0 20946
0.13850000 0.13851100 11336.09057684 0 160.15688393 0 3651.02239381 0 -41.75281091 0 -105.84573254 0 20955
0.13950000 0.13949800 11070.61168669 0 -78.25859837 0 4005.27522434 0 617.64213917 0 -231.62301147 0 20506
0.14050000 0.14048300 11428.48024742 0 -51.85378580 0 3572.82945532 0 574.62493181 0 683.56266824 0 21447
0.14150000 0.14148400 11525.75004465 0 -70.46913984 0 3090.11838174 0 447.99008153 0 -73.51200972 0 21771
0.14250000 0.14249400 11508.00412954 0 106.76031264 0 3296.18172985 0 376.74688706 0 1248.96859714 0 22470
0.14350000 0.14350900 11146.76384493 0 202.04722569 0 3152.95001246 0 -368.57600227 0 1553.31104140 0 22519
0.14450000 0.14449900 11037.60428457 0 198.40820397 0 3161.30168376 0 -25.84160159 0 1432.20626192 0 22218
0.14550000 0.14550500 10820.06154763 0 146.17643018 0 3572.15289231 0 288.73823927 0 1296.23927854 0 23559
0.14650000 0.14650700 10519.73411666 0 164.94939013 0 3145.65200486 0 -139.00042575 0 879.65281204 0 23044
0.14750000 0.14750500 10567.94754980 0 16.11595281 0 3010.67213800 0 502.37687489 0 1434.73505483 0 23649
0.14850000 0.14849900 10373.86269440 0 65.28189794 0 2779.96415028 0 116.92894383 0 799.95036165 0 23640
0.14950000 0.14949500 10266.63300230 0 109.15723121 0 2211.77322182 0 175.37067879 0 1402.22675657 0 24457
0.15050000 0.15050000 10072.61469409 0 62.88741943 0 2741.42224089 0 233.14583281 0 650.07390817 0 24591
0.15150000 0.15149900 10060.29237428 0 78.44138130 0 1814.19817602 0 72.25127337 0 911.84944766 0 25020
0.15250000 0.15250500 9975.15634650 0 139.57827711 0 2132.34916048 0 151.00553733 0 863.74692650 0 25297
0.15350000 0.15350100 9707.38157858 0 117.75080152 0 2007.61755960 0 -156.83617957 0 889.20455085 0 25452
0.15450000 0.15450400 9550.20822663 0 112.09207284 0 2485.37086814 0 60.53087282 0 1112.45814510 0 26061
0.15550000 0.15549900 9617.56506570 0 75.40527704 0 2178.98764364 0 180.09441957 0 1032.46843271 0 26128
0.15650000 0.15649500 9382.59805835 0 -8.96295153 0 2195.18079119 0 216.51014651 0 1291.88043814 0 26331
0.15750000 0.15749700 9773.68475394 0 -19.73367943 0 2167.46389002 0 92.75046722 0 1484.41252596 0 27345
0.15850000 0.15849900 9517.84411394 0 102.66854826 0 2515.13964075 0 -150.42435861 0 1827.72943629 0 26980
0.15950000 0.15949700 9382.04349850 0 244.66071348 0 2380.44814501 0 -209.88426545 0 1606.22714204 0 27777
0.16050000 0.16050000 9285.09534598 0 109.76602701 0 2704.16691034 0 -260.88047990 0 1350.89669710 0 28224
0.16150000 0.16150500 9255.93658920 0 48.53319234 0 2779.63141438 0 82.16170149 0 960.35347016 0 28075
0.16250000 0.16249700 9079.65310491 0 56.43234281 0 2626.40652854 0 8.11425314 0 535.73254059 0 28590
0.16350000 0.16349900 8981.55146790 0 34.15900110 0 2593.07748171 0 -208.46237400 0 412.09453173 0 29163
0.16450000 0.16449100 8910.45689546 0 140.28256812 0 2465.04070414 0 66.79262988 0 210.85585430 0 28996
0.16550000 0.16550500 8745.97444472 0 50.10026756 0 2422.77215257 0 190.44361544 0 111.70720830 0 30777
0.16650000 0.16650700 8748.92470311 0 42.17394366 0 1982.46272492 0 297.69216257 0 -610.43064292 0 29211
0.16750000 0.16749900 8642.17193248 0 132.89361271 0 2174.80626240 0 95.07096744 0 -195.92377585 0 30922
0.16850000 0.16850800 8339.59298853 0 259.16688997 0 2018.14310550 0 -476.00644503 0 -350.46518677 0 30867
0.16950000 0.16949900 8037.42441888 0 226.87154270 0 2337.61394240 0 -180.71330836 0 45.61964582 0 30852
0.17050000 0.17049200 8044.99970639 0 26.14760772 0 2549.25616256 0 146.58014975 0 -233.68708322 0 31257
0.17150000 0.17149500 7932.05804787 0 -10.37842118 0 2522.22691560 0 286.52554548 0 -158.23477950 0 32608
0.17250000 0.17250900 8068.61286470 0 106.91481301 0 2265.48788864 0 -207.28116153 0 -38.05944233 0 32361
0.17350000 0.17350400 7838.03797134 0 18.54315035 0 2683.65928718 0 76.62841424 0 -44.91136198 0 32508
0.17450000 0.17449800 7938.21366218 0 17.68114253 0 2490.73900747 0 124.98115281 0 230.79117170 0 32791
0.17550000 0.17549800 7873.59634876 0 -33.12652157 0 2247.48687600 0 301.26130975 0 182.96703958 0 33633
0.17650000 0.17650100 7983.45465453 0 37.85669525 0 2188.28206669 0 104.70112102 0 426.73269346 0 33984
0.17750000 0.17750300 7820.71352171 0 191.64590119 0 2295.05701971 0 -15.00816406 0 131.66470809 0 34069
0.17850000 0.17849800 7552.17346120 0 113.69364168 0 2257.33585889 0 -68.38576941 0 469.44378379 0 34536
