### header ###
fiducial parameters:
Omega_m = 0.31
Omega_nu = 0
Omega_de = 0.69
Omega_k = 0
H_0 = 100
w_de = -1
zeff = 0
beta = 0
fgrowth = 0
b_1 = 2
gamma = 0.55
Lx = 3500 Ly = 3500 Lz = 3500
nx = 700 ny = 700 nz = 700
xoffset = 1379.75464 yoffset = 22.6059522 zoffset = 368.141391
bins = 400 dk = 0.001
kx_ny = 0.628318531 ky_ny = 0.628318531 kz_ny = 0.628318531
############################
A(data) = 3.35190382 (not used)
A(ran) = 3.35989899 (used)
Ngal = 188928
weighted Ngal = 0
Nran = 9399747
weighted Nran = 0
SN(data) = 6567.52411
SN(ran) = 133.641269
SN(data+ran) = 6701.16538
############################
13 columns: k_central k_mean P_0(k) sigma^{lin}_{P_0(k)} P^img_1(k) sigma^{lin}_{P_1(k)} P_2(k) sigma^{lin}_{P_2(k)} P^img_3(k) sigma^{lin}_{P_3(k)} P_4(k) sigma^{lin}_{P_4(k)} N_modes
### header ###
0.00050000 0 0 0 0 0 0 0 0 0 0 0 0
0.00150000 0.00179520 50977.91397327 0 -23425.16251449 0 12826.19288683 0 -14256.40273331 0 187285.95166769 0 3
0.00250000 0.00253879 45327.39277603 0 -8414.39202075 0 -1837.09040652 0 -9309.59580004 0 -79942.13115567 0 6
0.00350000 0.00331552 56240.46510126 0 1197.09506902 0 4553.87909899 0 9455.65577265 0 46787.21611835 0 7
0.00450000 0.00420575 57221.03782345 0 -4518.29853918 0 -5439.34480735 0 8675.93353599 0 -5692.22409777 0 24
0.00550000 0.00557378 73839.42185885 0 -7445.59814972 0 -1693.64795639 0 20560.86090262 0 16444.36315528 0 45
0.00650000 0.00659388 62281.06369517 0 -6589.46865729 0 -27143.59720335 0 -14157.69108047 0 -34512.81027969 0 40
0.00750000 0.00754703 78169.75788335 0 -273.45678812 0 -4002.15859799 0 -11255.90122290 0 25921.68003557 0 57
0.00850000 0.00846663 70079.17335750 0 2353.64072199 0 -7370.17801047 0 -12288.93530666 0 -20001.86457642 0 75
0.00950000 0.00948925 64021.16158438 0 7489.46383365 0 8315.00380490 0 -17110.61135596 0 7990.58629417 0 112
0.01050000 0.01054430 62901.17251655 0 3970.10503881 0 8193.91011662 0 -12270.19118382 0 -20164.35061172 0 105
0.01150000 0.01145670 60821.35126482 0 804.55764486 0 14597.34612749 0 6174.03678439 0 -8752.64025408 0 144
0.01250000 0.01249090 64280.14103312 0 -5362.13898539 0 7332.47903205 0 4985.03828915 0 -16756.13670150 0 169
0.01350000 0.01339930 66149.56227874 0 -3811.66729041 0 16308.49599267 0 -3142.23591620 0 -6269.53199012 0 180
0.01450000 0.01448870 63168.35945103 0 8000.84565134 0 6181.57879832 0 -4764.55638502 0 -6406.00916857 0 267
0.01550000 0.01550050 60498.70834559 0 -1791.56104305 0 8755.74578923 0 2446.01930137 0 -5019.38772610 0 238
0.01650000 0.01653350 64189.08230617 0 -4429.74642274 0 2469.13335581 0 18684.67402685 0 -4494.04209145 0 315
0.01750000 0.01747870 67457.54713485 0 -1279.96849261 0 9485.38018047 0 -5397.63081563 0 -6569.02758131 0 297
0.01850000 0.01844180 61982.26684939 0 4842.47204358 0 2409.04125074 0 -5234.15766381 0 4501.06281912 0 388
0.01950000 0.01947590 61517.21296135 0 -2205.26268922 0 -2630.26626507 0 9196.24376722 0 6038.52454008 0 399
0.02050000 0.02045430 65049.87010133 0 -3586.97073143 0 -7106.76208295 0 4199.72608923 0 -7650.56346932 0 462
0.02150000 0.02154770 63021.95565131 0 3656.03561483 0 -9418.44480689 0 -6109.33074140 0 -6913.34269937 0 571
0.02250000 0.02255340 55823.65791995 0 6937.52150872 0 7293.78184589 0 -12999.54829513 0 -1976.37365779 0 510
0.02350000 0.02348930 56076.53721037 0 -1928.71478451 0 -2928.08708553 0 -2751.23795019 0 -8866.92394744 0 555
0.02450000 0.02439640 61323.67157460 0 -4655.81829014 0 4602.05925853 0 7592.77833322 0 -22239.29173679 0 592
0.02550000 0.02547300 62547.25242193 0 -1439.38226635 0 -3998.54286779 0 -6517.13187079 0 -20217.81018101 0 837
0.02650000 0.02652900 67632.12257481 0 74.70098604 0 -650.99891400 0 -2831.66021926 0 -21522.80041393 0 723
0.02750000 0.02749970 64586.70171677 0 1457.15036386 0 9557.59496380 0 -11436.57682119 0 -17753.12439517 0 826
0.02850000 0.02848090 63794.01387088 0 3941.85576019 0 11568.89480078 0 -7015.60353523 0 -24180.58393864 0 831
0.02950000 0.02946900 59704.57864410 0 3855.06714407 0 22998.70599183 0 -2416.05088722 0 -16517.78687908 0 996
0.03050000 0.03053250 56312.66879339 0 1837.25677447 0 28264.80630285 0 -1324.38873639 0 -14865.86400561 0 1041
0.03150000 0.03150510 55020.98799680 0 1459.96752789 0 29398.77027884 0 3049.33605057 0 -12173.25412249 0 1036
0.03250000 0.03246190 53484.08083569 0 1665.24340100 0 32310.87494956 0 246.65934717 0 -3724.12447290 0 1059
0.03350000 0.03345080 50431.67252357 0 2000.80756467 0 27293.43927413 0 1767.38223370 0 -5757.35160625 0 1302
0.03450000 0.03451200 50339.72650087 0 -182.33151399 0 30046.16344470 0 6813.18919093 0 2982.17885304 0 1339
0.03550000 0.03553350 50769.51038261 0 -1170.47619634 0 27061.96599382 0 2644.89555385 0 -746.95107703 0 1365
0.03650000 0.03647120 51373.31514447 0 -111.52974915 0 21355.10151608 0 3393.66225982 0 -3265.62548225 0 1308
0.03750000 0.03744890 51389.28646808 0 809.40449793 0 22819.91589703 0 -2476.91937607 0 -8630.28216935 0 1579
0.03850000 0.03847530 48367.48985953 0 3197.99136326 0 24216.18668084 0 -3059.35140141 0 -1986.03409034 0 1662
0.03950000 0.03950240 45621.42040712 0 2173.32004200 0 27581.81039478 0 581.36505220 0 -5097.85794451 0 1683
0.04050000 0.04050350 45300.88481532 0 1053.40306695 0 27646.91572086 0 2434.92810442 0 -5126.24031750 0 1822
0.04150000 0.04152450 41726.63568679 0 610.38295077 0 26605.56323940 0 5015.76090470 0 852.60914652 0 1887
0.04250000 0.04250150 41965.76189299 0 1180.72446232 0 26509.95712170 0 2062.43025492 0 1228.62734194 0 1920
0.04350000 0.04349210 41273.00573160 0 785.32550936 0 22051.62868443 0 4907.33336333 0 7627.67123882 0 2005
0.04450000 0.04448520 39264.50087625 0 217.23994727 0 22965.87604887 0 4706.28323625 0 6763.40080783 0 2151
0.04550000 0.04548030 40350.99452930 0 830.09512584 0 24410.61536334 0 1978.28134367 0 14871.18778015 0 2274
0.04650000 0.04648670 37676.35238523 0 1054.34914605 0 20233.55968067 0 1138.48918434 0 10649.58985053 0 2311
0.04750000 0.04749250 37871.00289168 0 1098.52981998 0 25306.11860494 0 -805.57359850 0 14214.92165672 0 2568
0.04850000 0.04851840 34310.72867130 0 1554.19833716 0 22482.41077389 0 1339.96077691 0 12490.24053127 0 2493
0.04950000 0.04949480 35217.32310984 0 342.85440742 0 24741.46576831 0 2839.86770500 0 13371.99068866 0 2644
0.05050000 0.05050630 34742.39805652 0 -151.35601915 0 21173.53862203 0 1447.97794398 0 10162.24265663 0 2829
0.05150000 0.05149060 33974.44357983 0 709.02583819 0 22544.63238877 0 1649.56044852 0 10560.40553587 0 2784
0.05250000 0.05249300 33054.76152888 0 1225.10034131 0 21584.91111684 0 -1335.29138299 0 7638.79570936 0 3055
0.05350000 0.05348950 32039.25153630 0 78.38415072 0 20042.90200513 0 652.11912489 0 6474.57494810 0 3009
0.05450000 0.05448610 32744.65166221 0 -433.56597990 0 20808.08368259 0 2649.59822135 0 6278.12766775 0 3336
0.05550000 0.05550870 32220.03804656 0 12.13055301 0 17927.25618726 0 1303.27109740 0 4387.58878314 0 3349
0.05650000 0.05647670 32004.75791379 0 445.23724645 0 16404.98940612 0 2360.69472325 0 2898.97269354 0 3324
0.05750000 0.05747970 32758.51565839 0 -561.24340269 0 16418.96431427 0 1277.94989477 0 4451.38534799 0 3639
0.05850000 0.05849280 32392.06251122 0 95.29667330 0 14555.64322697 0 493.34309498 0 1247.13854965 0 3846
0.05950000 0.05951020 32276.04859114 0 721.68533039 0 15939.38095823 0 -843.62084052 0 4677.16884426 0 3787
0.06050000 0.06049470 31068.66089136 0 713.77619784 0 13903.25902247 0 -251.46294457 0 1675.63585254 0 3930
0.06150000 0.06148310 31069.77001106 0 -291.90477600 0 14927.30923670 0 1713.67865808 0 1278.34917786 0 4083
0.06250000 0.06249100 31581.40692628 0 -631.89987285 0 14175.65881952 0 1938.12011952 0 984.54115246 0 4303
0.06350000 0.06350600 32180.66429739 0 97.89700442 0 11894.31051924 0 700.07524225 0 -1494.21714406 0 4470
0.06450000 0.06451750 31877.76370873 0 133.50251943 0 11590.18989892 0 -466.74862293 0 431.25457446 0 4479
0.06550000 0.06550280 30327.21437537 0 688.12336842 0 11759.88521223 0 -594.46819227 0 -2521.79435892 0 4636
0.06650000 0.06648880 30416.72033474 0 1059.62411932 0 12184.23440747 0 -1043.10489059 0 -1114.99802920 0 4653
0.06750000 0.06749660 29400.54487035 0 656.51678448 0 13050.56780110 0 746.85680186 0 -2206.76000080 0 5220
0.06850000 0.06852730 28528.77679022 0 36.07888729 0 11374.90976616 0 1640.95367969 0 -2034.87972170 0 5029
0.06950000 0.06949320 29168.96067807 0 -502.50331453 0 11508.33686545 0 2474.75659266 0 38.24788176 0 5040
0.07050000 0.07048030 28927.50532051 0 -121.58059183 0 10951.10403957 0 965.29570752 0 831.78431513 0 5475
0.07150000 0.07148790 29102.74623229 0 247.72853856 0 9023.02145329 0 652.97647441 0 400.60405169 0 5509
0.07250000 0.07249820 28757.81000720 0 658.14940867 0 10546.08680061 0 -1066.55168093 0 2157.13798566 0 5916
0.07350000 0.07351270 28536.20789217 0 623.28977666 0 10469.77936561 0 -1106.35576854 0 273.59875544 0 5721
0.07450000 0.07449140 27344.45878009 0 519.35084270 0 12373.33931544 0 -402.06032585 0 827.49867663 0 6028
0.07550000 0.07549160 26890.16335309 0 470.24456821 0 11398.09036778 0 545.12345705 0 1941.81348810 0 6183
0.07650000 0.07648840 26962.25613325 0 -245.63895705 0 11457.31735948 0 2171.12398501 0 1669.66878859 0 6330
0.07750000 0.07749960 26435.31336624 0 -89.80497804 0 10006.75516661 0 1846.05209365 0 1378.60250707 0 6583
0.07850000 0.07848650 26928.87163044 0 457.02718881 0 10395.73453478 0 199.04040219 0 3264.30562982 0 6549
0.07950000 0.07947320 25908.70333514 0 451.77661617 0 8827.25073595 0 1317.91147737 0 4396.51719668 0 6828
0.08050000 0.08048110 24908.27737041 0 637.07391623 0 9838.86771840 0 270.35014385 0 3586.71563390 0 7147
0.08150000 0.08149960 24466.73681990 0 292.70777866 0 8192.87863530 0 295.24877188 0 4460.96814215 0 7386
0.08250000 0.08250610 23936.79942972 0 368.86991898 0 9494.17549965 0 1071.94865737 0 4571.85792924 0 7227
0.08350000 0.08350160 23500.69356571 0 489.54546914 0 7739.10449456 0 -203.26171175 0 3679.13857807 0 7798
0.08450000 0.08449610 23132.24400309 0 -14.09824226 0 7472.33902556 0 1555.50709840 0 5807.96073792 0 7371
0.08550000 0.08548940 22561.26918420 0 118.65473407 0 7880.23997573 0 -71.57082844 0 2627.18291232 0 8256
0.08650000 0.08650700 22440.70787337 0 462.94545150 0 5771.91434784 0 332.21794955 0 2792.71902677 0 8037
0.08750000 0.08749060 22070.81645515 0 174.76953591 0 7730.67518488 0 -773.38029024 0 1968.38799599 0 8155
0.08850000 0.08849210 21445.27294727 0 780.87904850 0 7079.95465993 0 -1189.19813679 0 1060.11767759 0 8718
0.08950000 0.08949900 20888.93850834 0 439.75486780 0 8047.30667536 0 -348.01292312 0 292.02677917 0 8571
0.09050000 0.09049190 20299.66321448 0 420.49056782 0 8144.22155429 0 -424.11849834 0 -816.24000261 0 8932
0.09150000 0.09150830 19989.22061190 0 86.39465680 0 8119.65455305 0 1058.36415935 0 206.19089687 0 9285
0.09250000 0.09250820 19918.56968734 0 -234.69194566 0 7566.58092603 0 1263.52024754 0 -757.17050590 0 9204
0.09350000 0.09350330 20053.21681829 0 196.24320232 0 7537.01179497 0 783.60637383 0 -658.07953413 0 9349
0.09450000 0.09448040 19742.10874390 0 511.71788096 0 6784.41862605 0 -1086.20639105 0 -815.50687449 0 9564
0.09550000 0.09549270 18461.74096819 0 598.29687346 0 7135.84320135 0 -517.25017000 0 873.16335271 0 10155
0.09650000 0.09649430 18694.76701608 0 283.28580685 0 8442.27528988 0 489.58428833 0 952.86580310 0 9913
0.09750000 0.09749140 18288.27464792 0 171.09613148 0 8020.35506677 0 832.97550968 0 1141.48380752 0 10476
0.09850000 0.09850240 18061.57058230 0 66.86472266 0 7113.47225711 0 1378.18104159 0 1633.07892985 0 10575
0.09950000 0.09950330 17518.43466775 0 129.60950930 0 7315.94205740 0 804.65968388 0 4061.69614321 0 10882
0.10050000 0.10051200 17558.58480070 0 321.00474943 0 6614.67894795 0 278.44671762 0 3693.42403974 0 10875
0.10150000 0.10150300 17053.71351562 0 444.63055798 0 7499.11317500 0 164.11865948 0 4392.39127142 0 11118
0.10250000 0.10250800 16656.42684093 0 201.62576020 0 6944.00985893 0 160.99759666 0 4932.19982689 0 11575
0.10350000 0.10349800 16663.41429501 0 -168.66050463 0 7423.63757976 0 326.04237109 0 4286.15978705 0 11364
0.10450000 0.10450100 16497.37907669 0 253.51259777 0 6501.07181761 0 -42.37868716 0 3442.56334717 0 12093
0.10550000 0.10551000 16567.14270550 0 274.69789306 0 6984.62582216 0 38.49976285 0 3397.31126362 0 12067
0.10650000 0.10649700 15995.83515070 0 -73.35229649 0 6531.90534513 0 26.09614456 0 4385.07108143 0 12054
0.10750000 0.10749900 16216.99361784 0 128.67895787 0 6953.34864676 0 627.10514841 0 2790.07932190 0 12807
0.10850000 0.10850100 16161.87036901 0 -50.35591965 0 6339.51744286 0 325.26487818 0 3298.91016429 0 12736
0.10950000 0.10950300 15818.70873543 0 171.83702344 0 5639.81819219 0 621.18577660 0 2298.34001400 0 12933
0.11050000 0.11050200 15869.17368155 0 322.90245323 0 5798.69958847 0 -101.03902961 0 2720.99225611 0 13428
0.11150000 0.11150900 15233.98083232 0 263.72648103 0 5545.15482623 0 -710.28468904 0 1741.51756242 0 13453
0.11250000 0.11250000 15190.50334029 0 106.88930326 0 5744.59672976 0 -239.50774338 0 1255.65658890 0 13668
0.11350000 0.11349100 14599.78619082 0 196.16334571 0 5243.74045797 0 52.29377358 0 509.47191358 0 13791
0.11450000 0.11448600 14606.32999702 0 175.47937252 0 5415.64291947 0 -109.70790914 0 -246.40424964 0 14205
0.11550000 0.11549300 14374.74580474 0 237.23848448 0 5376.43553826 0 626.26110832 0 -657.10794527 0 14776
0.11650000 0.11649800 14037.90615343 0 180.21198625 0 5034.38302437 0 206.85082308 0 -528.94029158 0 14553
0.11750000 0.11747300 13659.58542552 0 -43.98458156 0 4486.08970324 0 511.75337279 0 -339.45051908 0 14568
0.11850000 0.11849100 13729.57087827 0 72.63081413 0 4422.18222642 0 351.51108664 0 -291.54209386 0 16015
0.11950000 0.11950300 13875.86376601 0 -96.85986660 0 3236.26708393 0 633.41714859 0 -679.63749364 0 15270
0.12050000 0.12050700 13852.12860454 0 -30.46640890 0 3768.11215999 0 133.95725850 0 -163.54302636 0 15999
0.12150000 0.12150000 13653.59617917 0 174.77840887 0 2614.18402950 0 77.67608871 0 -155.43092491 0 15670
0.12250000 0.12250700 13517.95084049 0 258.16646400 0 3706.14564264 0 -263.78304614 0 310.81859416 0 16887
0.12350000 0.12352200 13155.37961226 0 143.55114386 0 2861.86154855 0 -101.34448117 0 -314.98112037 0 16407
0.12450000 0.12449800 13318.08747149 0 89.51228135 0 3795.74033159 0 393.06647425 0 -334.04023321 0 16306
0.12550000 0.12549900 12907.04771259 0 173.29773408 0 3644.42313163 0 -127.27703058 0 222.01138019 0 17523
0.12650000 0.12650100 12853.92087920 0 4.97524476 0 3114.82956854 0 526.48359146 0 740.42501675 0 17154
0.12750000 0.12750600 13130.09168321 0 -93.64630319 0 3386.24224906 0 652.72692248 0 1303.40419176 0 18007
0.12850000 0.12850300 12896.51107548 0 8.78554784 0 2183.04702173 0 223.15931908 0 337.25335296 0 17496
0.12950000 0.12949900 13032.82188598 0 261.45611302 0 3740.17343488 0 -357.98169094 0 1741.75047755 0 18405
0.13050000 0.13049000 12678.56905545 0 354.89168347 0 3153.65984906 0 -393.44579318 0 1243.14571874 0 18100
0.13150000 0.13148800 12434.78454653 0 83.83991050 0 4324.66842285 0 -241.44759372 0 2310.10777397 0 19059
0.13250000 0.13249300 12411.49303294 0 -37.06533835 0 3872.03667540 0 -14.70371071 0 1056.61285935 0 18957
0.13350000 0.13349100 12682.56188635 0 -86.00513397 0 4134.84258709 0 676.32122575 0 1674.09417617 0 19468
0.13450000 0.13450700 12764.85856771 0 1.73167967 0 4140.53237112 0 5.73162003 0 1345.95002326 0 19953
0.13550000 0.13551000 12504.88091124 0 347.72122464 0 4076.40307036 0 -369.10505236 0 1292.76773389 0 19956
0.13650000 0.13649900 12391.63979040 0 151.82295855 0 4230.33779281 0 -113.22781141 0 1861.15830390 0 19723
0.13750000 0.13749600 12134.65675711 0 -78.74860745 0 3935.64468990 0 471.62653135 0 957.07823970 0 20946
0.13850000 0.13851100 12257.99086718 0 18.76419791 0 3923.63292360 0 460.53533440 0 1605.56167022 0 20955
0.13950000 0.13949800 11969.50883455 0 164.44252243 0 3479.96286328 0 506.69245962 0 1403.55770021 0 20506
0.14050000 0.14048300 11773.08373660 0 329.17341599 0 3347.35651256 0 -107.44519405 0 2012.03185598 0 21447
0.14150000 0.14148400 11506.11862606 0 12.94686511 0 3474.89418627 0 206.31955475 0 1814.58636791 0 21771
0.14250000 0.14249400 11378.45894918 0 86.56978680 0 2993.92443061 0 348.24251090 0 1647.55294187 0 22470
0.14350000 0.14350900 11323.22478838 0 144.19554240 0 3245.93860767 0 63.84647523 0 1718.91370304 0 22519
0.14450000 0.14449900 10928.89946328 0 211.32057545 0 3122.40485606 0 -465.40658810 0 1193.32406205 0 22218
0.14550000 0.14550500 10836.67616065 0 313.43611664 0 3486.76176701 0 -359.12408423 0 1410.05714162 0 23559
0.14650000 0.14650700 10561.81411788 0 77.41755291 0 3524.42747184 0 329.14568799 0 1014.29772475 0 23044
0.14750000 0.14750500 10561.63665873 0 -138.55345052 0 3189.78387752 0 413.65395402 0 1409.32512262 0 23649
0.14850000 0.14849900 10525.90082217 0 108.65413452 0 3212.17700416 0 176.43765193 0 1011.38073996 0 23640
0.14950000 0.14949500 10479.46198054 0 282.89428760 0 3532.49077202 0 -419.79514977 0 1427.35940886 0 24457
0.15050000 0.15050000 10064.87303862 0 227.73111046 0 3638.48934126 0 -304.91031354 0 1409.42494339 0 24591
0.15150000 0.15149900 9969.91021035 0 72.24328771 0 3738.45429935 0 140.55873892 0 1225.10034131 0 25020
0.15250000 0.15250500 9870.52199450 0 38.24255799 0 4122.06552820 0 -105.30969499 0 704.84667518 0 25297
0.15350000 0.15350100 9856.69127190 0 151.74532017 0 3541.98483661 0 191.01370296 0 1151.55461435 0 25452
0.15450000 0.15450400 9814.30071716 0 53.66375823 0 4126.01399431 0 47.13104322 0 1189.87469980 0 26061
0.15550000 0.15549900 9590.35835958 0 164.54788880 0 3814.70627837 0 -243.86769290 0 874.54531585 0 26128
0.15650000 0.15649500 9548.12308160 0 81.41970041 0 3971.93508631 0 255.02100055 0 1032.95311802 0 26331
0.15750000 0.15749700 9429.90201333 0 -20.46070739 0 3812.00002632 0 277.23444980 0 625.01223955 0 27345
0.15850000 0.15849900 9410.10422678 0 9.17550323 0 3586.28307722 0 121.88892710 0 1192.52549587 0 26980
0.15950000 0.15949700 9458.12910957 0 95.08815880 0 3540.35443066 0 123.64799094 0 722.08461348 0 27777
0.16050000 0.16050000 9298.19404957 0 91.88834848 0 3020.36584414 0 103.51159014 0 874.52867905 0 28224
0.16150000 0.16150500 9076.50320497 0 70.38872866 0 3249.90925618 0 174.38245314 0 882.78718430 0 28075
0.16250000 0.16249700 9084.73287311 0 61.09053461 0 2848.17501152 0 221.65424365 0 776.75534147 0 28590
0.16350000 0.16349900 9102.72279456 0 -16.82035473 0 2728.39008447 0 511.17219407 0 1198.20418871 0 29163
0.16450000 0.16449100 8731.31188235 0 110.56492593 0 2313.80114255 0 122.22942685 0 845.28452006 0 28996
0.16550000 0.16550500 8859.34865992 0 151.86954157 0 2310.50705706 0 34.20125856 0 1148.26052885 0 30777
0.16650000 0.16650700 8630.78127321 0 120.09548056 0 2352.28759596 0 45.19851307 0 1057.76634383 0 29211
0.16750000 0.16749900 8469.47090480 0 97.86972008 0 2288.29138957 0 25.29780021 0 1412.54156973 0 30922
0.16850000 0.16850800 8522.30936706 0 2.91523239 0 2348.82714251 0 230.74791603 0 1333.98262175 0 30867
0.16950000 0.16949900 8437.41734562 0 35.88312766 0 2196.33427567 0 256.71129897 0 1287.95415442 0 30852
0.17050000 0.17049200 8441.16617019 0 72.70079958 0 2200.46020094 0 30.60859804 0 1242.56897650 0 31257
0.17150000 0.17149500 8295.11728877 0 100.73091616 0 2081.39620170 0 -186.00048194 0 1266.82542423 0 32608
0.17250000 0.17250900 8202.68325341 0 94.29924196 0 2306.70277650 0 14.47146104 0 1579.65263415 0 32361
0.17350000 0.17350400 8249.17755101 0 104.28220651 0 2343.27045284 0 -89.74109275 0 1076.31969809 0 32508
0.17450000 0.17449800 8049.95747143 0 48.93491550 0 2361.28255669 0 13.18909685 0 1177.97384548 0 32791
0.17550000 0.17549800 7938.84586040 0 41.46721259 0 2423.81472508 0 163.31454770 0 1015.71407060 0 33633
0.17650000 0.17650100 7850.24937918 0 124.62956187 0 2161.40809648 0 83.85022531 0 1105.73798887 0 33984
0.17750000 0.17750300 7919.51390412 0 11.91826750 0 2150.92691537 0 141.15877268 0 1021.94288681 0 34069
0.17850000 0.17849800 7740.85690368 0 32.56231238 0 1971.52680473 0 -116.28898176 0 572.99230762 0 34536
