### header ###
fiducial parameters:
Omega_m = 0.31
Omega_nu = 0
Omega_de = 0.69
Omega_k = 0
H_0 = 100
w_de = -1
zeff = 0
beta = 0
fgrowth = 0
b_1 = 2
gamma = 0.55
Lx = 3500 Ly = 3500 Lz = 3500
nx = 700 ny = 700 nz = 700
xoffset = 1379.75464 yoffset = 22.6059522 zoffset = 368.141391
bins = 400 dk = 0.001
kx_ny = 0.628318531 ky_ny = 0.628318531 kz_ny = 0.628318531
############################
A(data) = 3.30910168 (not used)
A(ran) = 3.29367694 (used)
Ngal = 185270
weighted Ngal = 0
Nran = 9399747
weighted Nran = 0
SN(data) = 6797.75526
SN(ran) = 131.007261
SN(data+ran) = 6928.76253
############################
13 columns: k_central k_mean P_0(k) sigma^{lin}_{P_0(k)} P^img_1(k) sigma^{lin}_{P_1(k)} P_2(k) sigma^{lin}_{P_2(k)} P^img_3(k) sigma^{lin}_{P_3(k)} P_4(k) sigma^{lin}_{P_4(k)} N_modes
### header ###
0.00050000 0 0 0 0 0 0 0 0 0 0 0 0
0.00150000 0.00179520 137945.65292382 0 14370.19841400 0 64284.46659993 0 33542.44145869 0 97013.81241035 0 3
0.00250000 0.00253879 131232.15141106 0 26339.26360067 0 86909.95381446 0 15140.14930614 0 -14320.17711576 0 6
0.00350000 0.00331552 114587.59215087 0 31671.46744550 0 123803.26769515 0 89189.08387535 0 57845.58312361 0 7
0.00450000 0.00420575 85574.24096598 0 28534.76603657 0 146358.32580905 0 86872.24374483 0 47845.98177903 0 24
0.00550000 0.00557378 88513.07542135 0 3829.20247278 0 143695.32942178 0 126338.71531751 0 90618.40642606 0 45
0.00650000 0.00659388 72025.90024585 0 -2764.33665378 0 94169.91860085 0 77726.44274133 0 6430.70926417 0 40
0.00750000 0.00754703 89009.18466085 0 11277.75088089 0 103319.37969935 0 69786.36575806 0 106717.83335626 0 57
0.00850000 0.00846663 78677.84561555 0 9095.05877747 0 88362.23514286 0 33514.60255435 0 81313.66857029 0 75
0.00950000 0.00948925 66695.80372844 0 6091.76228543 0 90463.35149273 0 48872.36114462 0 114923.65541840 0 112
0.01050000 0.01054430 62815.88121201 0 1920.68475792 0 59599.43409703 0 31220.49937758 0 49596.50539337 0 105
0.01150000 0.01145670 64915.33388234 0 -328.49463473 0 67025.32318977 0 22100.20812706 0 62911.04368183 0 144
0.01250000 0.01249090 69399.83754442 0 -1061.49409513 0 47300.18397721 0 14209.48697022 0 43045.26809196 0 169
0.01350000 0.01339930 65516.80949285 0 -149.85870757 0 38300.34312554 0 2858.84474298 0 35097.53818280 0 180
0.01450000 0.01448870 73342.09258769 0 3231.33150129 0 51607.89395993 0 1466.57788127 0 26239.11009223 0 267
0.01550000 0.01550050 65305.85492689 0 2515.67201821 0 53843.10288090 0 -3338.71647014 0 -11900.41067756 0 238
0.01650000 0.01653350 68023.19817921 0 4452.98248035 0 63420.24053372 0 7051.79411088 0 21607.53715862 0 315
0.01750000 0.01747870 59274.35111448 0 -1346.12748241 0 45342.25497994 0 10766.41342799 0 6095.51111000 0 297
0.01850000 0.01844180 76061.43225546 0 -6729.58374833 0 60299.28862446 0 22905.87267338 0 26710.37505056 0 388
0.01950000 0.01947590 77311.41015152 0 -5987.81558763 0 33462.03028082 0 23562.91518059 0 8854.13579736 0 399
0.02050000 0.02045430 83505.62182317 0 -2919.58013747 0 19474.47816154 0 2283.51108368 0 13722.47251222 0 462
0.02150000 0.02154770 84816.71221442 0 3688.24445077 0 27220.12646230 0 -1905.40108852 0 19599.14321523 0 571
0.02250000 0.02255340 81228.37726576 0 466.08647847 0 12871.55588235 0 -2410.93784542 0 -2856.30485888 0 510
0.02350000 0.02348930 81438.55544793 0 1232.60908164 0 31662.37266400 0 5731.30947581 0 16202.02050196 0 555
0.02450000 0.02439640 77375.29544595 0 1822.23929381 0 6700.35844438 0 -1147.27341232 0 -18796.47329209 0 592
0.02550000 0.02547300 71349.44814398 0 6719.56839749 0 27429.41734871 0 -4628.74467839 0 8959.72399230 0 837
0.02650000 0.02652900 63037.48332704 0 4685.68688352 0 7021.74805834 0 2036.96486672 0 -12306.23757390 0 723
0.02750000 0.02749970 60430.38657239 0 382.95906647 0 31408.38425389 0 8634.98483686 0 17669.71859412 0 826
0.02850000 0.02848090 56297.14111767 0 -552.54014045 0 4592.09936367 0 12381.21406527 0 -11714.63312868 0 831
0.02950000 0.02946900 60877.13998547 0 -413.05170203 0 14850.33632988 0 4722.84239330 0 10007.15444970 0 996
0.03050000 0.03053250 53677.73313440 0 4529.99975196 0 4411.19085025 0 -3747.71544880 0 3191.78029297 0 1041
0.03150000 0.03150510 48468.64157570 0 4877.38713157 0 11650.08236244 0 -4569.66187224 0 5670.37443978 0 1036
0.03250000 0.03246190 47367.06389480 0 2105.68592301 0 14899.80306827 0 -1054.41458411 0 9567.95414175 0 1059
0.03350000 0.03345080 39982.87770259 0 1129.47204122 0 14697.49963594 0 714.93300968 0 -1869.80943752 0 1302
0.03450000 0.03451200 42339.86796605 0 1336.52250585 0 18594.94624354 0 -883.44711052 0 6371.99246753 0 1339
0.03550000 0.03553350 40654.67150174 0 -1245.54141729 0 11764.43260298 0 4135.80752122 0 -4871.95244507 0 1365
0.03650000 0.03647120 43589.18039030 0 -1744.22381447 0 17479.94821434 0 3631.47970479 0 9098.63014288 0 1308
0.03750000 0.03744890 43825.86653318 0 -856.60974126 0 11037.43791661 0 2109.74530110 0 -6135.23977747 0 1579
0.03850000 0.03847530 47209.90163405 0 508.36612124 0 10217.23281110 0 -1066.89994452 0 5118.59848280 0 1662
0.03950000 0.03950240 42991.69761070 0 944.22686979 0 11083.52183993 0 -2709.70141762 0 -3855.42206237 0 1683
0.04050000 0.04050350 44394.95584859 0 908.48881499 0 10941.01105035 0 -399.54595150 0 -2609.82518910 0 1822
0.04150000 0.04152450 43693.21581768 0 -148.99248508 0 14561.41064938 0 -1892.56857365 0 -4659.25656119 0 1887
0.04250000 0.04250150 42049.50042995 0 774.32304198 0 11027.63329851 0 -2393.18083911 0 -13796.45079586 0 1920
0.04350000 0.04349210 42650.86512848 0 610.62473886 0 14689.73579807 0 449.62936044 0 -10048.60225270 0 2005
0.04450000 0.04448520 43165.05301900 0 -1072.53649081 0 10015.75012734 0 -1218.48998793 0 -13645.94325328 0 2151
0.04550000 0.04548030 45357.56083173 0 -2257.59095642 0 10116.80202273 0 5817.18861378 0 -10499.37067907 0 2274
0.04650000 0.04648670 45636.50443497 0 -200.35470903 0 8038.46699139 0 839.90750778 0 -11331.54318609 0 2311
0.04750000 0.04749250 46719.78164091 0 1151.29951682 0 5861.16520968 0 -1745.73221726 0 -7401.98756332 0 2568
0.04850000 0.04851840 43644.30363913 0 1340.83698146 0 8260.41293352 0 574.10253643 0 -11038.62467469 0 2493
0.04950000 0.04949480 43176.92059974 0 1674.01653779 0 11055.99348911 0 -1402.50403650 0 -6003.47635772 0 2644
0.05050000 0.05050630 39742.30964078 0 1123.44952128 0 9993.86719576 0 819.26235378 0 -6557.48164529 0 2829
0.05150000 0.05149060 40139.15266759 0 945.25169639 0 12256.88174748 0 1192.33694552 0 -1919.00998718 0 2784
0.05250000 0.05249300 38599.36179527 0 -620.15096792 0 8432.06029749 0 1553.63268611 0 -2852.37857516 0 3055
0.05350000 0.05348950 38267.51318257 0 645.23703718 0 8186.96702733 0 2125.99390463 0 -3216.35838541 0 3009
0.05450000 0.05448610 37953.07774909 0 1120.80981641 0 7918.33823724 0 -925.78775487 0 -796.93577432 0 3336
0.05550000 0.05550870 35663.63287504 0 605.71355686 0 7133.86896829 0 -1129.51640601 0 -2383.43167699 0 3349
0.05650000 0.05647670 35462.66038634 0 1352.30527911 0 9588.58376807 0 -864.89264714 0 -1126.89888353 0 3324
0.05750000 0.05747970 33881.49934940 0 778.91479752 0 10642.19202217 0 -321.45172467 0 -4574.63072848 0 3639
0.05850000 0.05849280 33122.19600632 0 222.82769229 0 10707.13098030 0 -453.76415867 0 -3865.03813012 0 3846
0.05950000 0.05951020 33580.26244029 0 692.93251142 0 11032.80179629 0 -540.17012849 0 -3380.35282349 0 3787
0.06050000 0.06049470 32020.84014937 0 402.01485194 0 12522.95956227 0 -79.47175349 0 -3841.18096549 0 3930
0.06150000 0.06148310 30653.18465368 0 1630.40595139 0 12900.72573033 0 -315.80408719 0 -3614.89836535 0 4083
0.06250000 0.06249100 30624.68027752 0 818.46822408 0 15358.42406208 0 -1697.27477779 0 -2379.25029574 0 4303
0.06350000 0.06350600 29501.80749849 0 -678.53613778 0 11622.46528204 0 3444.58194501 0 -2004.60075403 0 4470
0.06450000 0.06451750 30616.80552769 0 -396.39937893 0 13971.02623583 0 1085.27362138 0 -1561.52961834 0 4479
0.06550000 0.06550280 31103.59816175 0 189.02172399 0 10868.13079520 0 400.06834688 0 -2201.19221994 0 4636
0.06650000 0.06648880 30897.96737033 0 6.91834483 0 12572.20447672 0 782.53274596 0 1334.94755589 0 4653
0.06750000 0.06749660 29776.98009477 0 653.21160779 0 11140.77459858 0 -118.46951108 0 1280.11267817 0 5220
0.06850000 0.06852730 30035.18315973 0 347.13228209 0 12322.87436932 0 1532.92542141 0 1425.99519163 0 5029
0.06950000 0.06949320 29517.77882209 0 392.76812105 0 13141.84835198 0 -87.09340221 0 916.48778623 0 5040
0.07050000 0.07048030 28723.76003257 0 1172.82753009 0 14358.66356917 0 -1391.00246526 0 3480.41760235 0 5475
0.07150000 0.07148790 27628.28250999 0 925.11230097 0 15230.87529718 0 -34.96555294 0 2670.13911810 0 5509
0.07250000 0.07249820 26963.14342901 0 -120.84635459 0 15512.25896375 0 860.83881466 0 5642.51335304 0 5916
0.07350000 0.07351270 27432.96653173 0 59.66587037 0 16603.96547937 0 1983.97112770 0 3754.12616064 0 5721
0.07450000 0.07449140 27293.88292200 0 -266.22865507 0 12259.32181081 0 1864.46348059 0 4578.98956888 0 6028
0.07550000 0.07549160 27128.95682338 0 190.44361544 0 14094.13852195 0 738.05260972 0 5865.81242120 0 6183
0.07650000 0.07648840 26997.96978742 0 608.26675039 0 12276.84590199 0 -111.74380925 0 4762.91488787 0 6330
0.07750000 0.07749960 26347.47108641 0 499.52200079 0 12710.95535054 0 713.28818518 0 5178.30239597 0 6583
0.07850000 0.07848650 25342.16499502 0 277.68697063 0 11697.44177341 0 752.51553054 0 3885.83412440 0 6549
0.07950000 0.07947320 24768.41737689 0 429.18273887 0 10879.46599848 0 1299.43354326 0 2981.60211080 0 6828
0.08050000 0.08048110 24419.59923287 0 381.04694411 0 11092.74971580 0 444.99767660 0 3555.17226978 0 7147
0.08150000 0.08149960 23168.51221711 0 553.01151632 0 9427.88341549 0 1.81958850 0 2731.55107561 0 7386
0.08250000 0.08250610 22777.32570075 0 287.63688342 0 8925.19709620 0 994.00194346 0 2289.58905961 0 7227
0.08350000 0.08350160 22576.02047614 0 113.70695111 0 9413.98614571 0 -6.48731873 0 1193.20205889 0 7798
0.08450000 0.08449610 22071.48192696 0 490.51373063 0 8834.06073088 0 173.02821799 0 1223.64739451 0 7371
0.08550000 0.08548940 21491.41232657 0 390.30920269 0 8626.24497366 0 468.34242793 0 1594.99175953 0 8256
0.08650000 0.08650700 20776.14103538 0 216.92828463 0 7862.63824617 0 826.74114788 0 1464.69237779 0 8037
0.08750000 0.08749060 21468.12081298 0 -248.96409790 0 6905.33485518 0 1844.36623172 0 1501.54842524 0 8155
0.08850000 0.08849210 20300.55051024 0 141.55916489 0 6391.05823508 0 939.37779849 0 2376.61059087 0 8718
0.08950000 0.08949900 20662.34535469 0 482.08109359 0 5588.24412638 0 -83.88261161 0 2662.33091545 0 8571
0.09050000 0.09049190 19728.57748362 0 282.25765290 0 5781.80769552 0 53.80151089 0 2241.68617999 0 8932
0.09150000 0.09150830 19292.13888371 0 411.48895238 0 5094.75240936 0 34.33579478 0 2128.79997745 0 9285
0.09250000 0.09250820 18621.89785213 0 325.51775747 0 5693.42194704 0 -535.51848049 0 1379.02397256 0 9204
0.09350000 0.09350330 18756.54498308 0 236.98893255 0 6224.15790340 0 -38.71337930 0 2057.53903706 0 9349
0.09450000 0.09448040 18122.90490143 0 415.90879436 0 6363.57424904 0 -276.11202067 0 633.15761458 0 9564
0.09550000 0.09549270 18068.22530047 0 233.70815649 0 6867.97970385 0 -284.76759077 0 2230.85008057 0 10155
0.09650000 0.09649430 17562.91036751 0 246.81795129 0 7060.86670998 0 -327.09825304 0 502.82385013 0 9913
0.09750000 0.09749140 17546.27357209 0 306.70708745 0 8533.88857667 0 182.13187245 0 2484.00665092 0 10476
0.09850000 0.09850240 17329.32975978 0 59.50948449 0 7698.18906902 0 -97.48019724 0 1521.95622763 0 10575
0.09950000 0.09950330 16997.25932315 0 355.99747581 0 8745.96335352 0 159.83302098 0 1640.31039026 0 10882
0.10050000 0.10051200 16870.04329416 0 232.13653389 0 8304.34516463 0 -135.53220847 0 1204.80345089 0 10875
0.10150000 0.10150300 16403.43663854 0 216.21622979 0 8525.88073248 0 573.79420116 0 1933.60600236 0 11118
0.10250000 0.10250800 16353.63716425 0 32.86854033 0 7809.07885611 0 1280.66723802 0 2502.15184913 0 11575
0.10350000 0.10349800 16083.56651856 0 -262.06723797 0 6758.85341708 0 1292.19099165 0 1898.76855275 0 11364
0.10450000 0.10450100 16367.83389634 0 9.41079188 0 5815.15892474 0 858.03606919 0 3192.53449436 0 12093
0.10550000 0.10551000 16164.31043234 0 52.16655755 0 4900.44573003 0 351.95917100 0 2245.24645421 0 12067
0.10650000 0.10649700 15978.31105952 0 221.02426366 0 5338.30400315 0 -244.25477567 0 3075.11199227 0 12054
0.10750000 0.10749900 15952.57948260 0 396.44374372 0 5271.11353204 0 -706.51257296 0 902.22672519 0 12807
0.10850000 0.10850100 15060.95815993 0 369.12501651 0 5447.40810753 0 -830.82603572 0 12.95096885 0 12736
0.10950000 0.10950300 14864.42215001 0 186.88888682 0 5873.27679675 0 -685.93840262 0 -299.10518106 0 12933
0.11050000 0.11050200 14918.65810308 0 -79.51622919 0 5779.06816987 0 276.38153675 0 -1634.76479179 0 13428
0.11150000 0.11150900 15013.82057290 0 29.81335922 0 5880.73008110 0 394.07466405 0 -846.67313792 0 13453
0.11250000 0.11250000 15070.49658931 0 -44.59182459 0 5030.81165896 0 544.54227833 0 -2207.17037509 0 13668
0.11350000 0.11349100 14900.57945206 0 188.74333495 0 5069.59757468 0 163.50087981 0 -776.15641684 0 13791
0.11450000 0.11448600 14688.51576641 0 214.75108267 0 4967.78038670 0 207.31998072 0 -1037.55707387 0 14205
0.11550000 0.11549300 14366.53831900 0 0.44137086 0 4393.34511436 0 760.83060090 0 -78.83445332 0 14776
0.11650000 0.11649800 14416.55961724 0 34.75748208 0 4579.87686463 0 628.23201402 0 434.63406217 0 14553
0.11750000 0.11747300 14419.66515238 0 -62.28383649 0 3942.62105278 0 210.81925335 0 -560.87406583 0 14568
0.11850000 0.11849100 14471.57195410 0 70.06608575 0 4089.47959157 0 85.14767353 0 733.82020897 0 16015
0.11950000 0.11950300 14438.74201114 0 -92.24493046 0 3325.17411867 0 3.82316886 0 -144.19332416 0 15270
0.12050000 0.12050700 14179.65165042 0 44.78214953 0 3313.01816681 0 -185.50692368 0 -261.10008560 0 15999
0.12150000 0.12150000 14567.84354361 0 263.21295862 0 4157.63499681 0 -331.39609186 0 -1069.37328144 0 15670
0.12250000 0.12250700 14057.75939596 0 429.54098453 0 4261.88115693 0 -687.32923872 0 -1194.97665040 0 16887
0.12350000 0.12352200 13456.94925728 0 383.83083455 0 4572.74522499 0 -380.60329624 0 -1590.47764238 0 16407
0.12450000 0.12449800 13302.00523591 0 161.54217443 0 5202.96921799 0 -22.02356796 0 -1067.62309056 0 16306
0.12550000 0.12549900 13028.49631917 0 171.65290957 0 5297.16675367 0 90.17076572 0 -1472.55603642 0 17523
0.12650000 0.12650100 12872.55409008 0 228.51525808 0 5103.15953665 0 330.54983353 0 -252.80387028 0 17154
0.12750000 0.12750600 12675.24169637 0 -50.73468402 0 4932.07782372 0 428.98864292 0 -589.56033762 0 18007
0.12850000 0.12850300 13018.07059404 0 -158.00851908 0 5067.20187614 0 876.22895954 0 984.14297849 0 17496
0.12950000 0.12949900 12800.90495779 0 -73.73516461 0 4630.82982341 0 489.76396572 0 725.78463678 0 18405
0.13050000 0.13049000 13374.43075198 0 45.44495946 0 4423.45771407 0 354.43472616 0 2004.82257797 0 18100
0.13150000 0.13148800 12793.25203190 0 73.01035489 0 3891.71245878 0 357.00122913 0 1664.20082849 0 19059
0.13250000 0.13249300 12903.83126547 0 147.97320408 0 4566.96671138 0 378.89192455 0 2993.15913802 0 18957
0.13350000 0.13349100 12519.52129121 0 152.55608666 0 3873.96654367 0 98.01645661 0 2476.17626587 0 19468
0.13450000 0.13450700 12538.48723800 0 190.81960702 0 4043.55094500 0 382.41670694 0 2610.13574261 0 19953
0.13550000 0.13551000 12146.08068997 0 185.62670860 0 3698.01579528 0 -273.54108121 0 2062.72971723 0 19956
0.13650000 0.13649900 11745.13392029 0 357.66004623 0 3787.00046840 0 -149.64464746 0 2108.60290781 0 19723
0.13750000 0.13749600 11500.01846773 0 148.42350668 0 3731.79958118 0 322.80706894 0 1780.21474857 0 20946
0.13850000 0.13851100 11282.40918361 0 -98.95299728 0 3397.34453721 0 296.00075503 0 1870.16435582 0 20955
0.13950000 0.13949800 11373.35699859 0 51.02738071 0 2649.26548545 0 512.79261794 0 1097.25211409 0 20506
0.14050000 0.14048300 11281.74371179 0 57.28436856 0 3019.02380931 0 248.45833932 0 1965.98120625 0 21447
0.14150000 0.14148400 11116.26305333 0 177.27725554 0 2361.84820773 0 16.82024382 0 1431.26351018 0 21771
0.14250000 0.14249400 10920.41469761 0 177.90390817 0 2696.72471719 0 -66.31293561 0 1847.66031721 0 22470
0.14350000 0.14350900 10713.65260411 0 224.50135391 0 2951.72242622 0 -208.76405456 0 1377.64866414 0 22519
0.14450000 0.14449900 10506.15849160 0 68.10072565 0 3159.84873696 0 -191.74572196 0 1430.08784331 0 22218
0.14550000 0.14550500 10475.01441057 0 172.24517949 0 3279.65584639 0 -44.76695459 0 978.27240795 0 23559
0.14650000 0.14650700 10375.95893062 0 -2.48458339 0 3026.19981373 0 -36.47284660 0 496.04601967 0 23044
0.14750000 0.14750500 10222.52331204 0 115.14547936 0 2848.25264989 0 -122.47343318 0 645.91581843 0 23649
0.14850000 0.14849900 10247.27886363 0 156.61324651 0 3013.51148442 0 107.94684889 0 341.74196037 0 23640
0.14950000 0.14949500 10076.62970738 0 134.14913621 0 3038.21158003 0 -8.40643963 0 404.62239235 0 24457
0.15050000 0.15050000 9654.46547794 0 186.78573869 0 2976.33379225 0 -66.40388342 0 36.17515888 0 24591
0.15150000 0.15149900 9732.95787875 0 77.29144600 0 3414.79099001 0 4.50451218 0 483.22570512 0 25020
0.15250000 0.15250500 9527.62654964 0 119.61412261 0 3342.63166266 0 -20.07051909 0 635.84057513 0 25297
0.15350000 0.15350100 9542.27802081 0 39.16046545 0 3502.26726034 0 128.65677548 0 963.89932582 0 25452
0.15450000 0.15450400 9680.35233162 0 -138.43033823 0 3401.30409452 0 374.25469510 0 912.05685304 0 26061
0.15550000 0.15549900 9727.95574892 0 -87.08308740 0 3262.75286224 0 416.89258353 0 1665.36540417 0 26128
0.15650000 0.15649500 9940.48526484 0 34.69326405 0 3049.61333049 0 166.79496531 0 1723.30581703 0 26331
0.15750000 0.15749700 9699.85065586 0 115.61907347 0 3032.72143754 0 83.50295994 0 1269.11021080 0 27345
0.15850000 0.15849900 9719.79262797 0 231.02630507 0 3307.83857784 0 -13.40116054 0 2132.95917631 0 26980
0.15950000 0.15949700 9397.51571824 0 79.09110361 0 3014.87570165 0 262.80923905 0 1725.04713495 0 27777
0.16050000 0.16050000 9161.08467290 0 141.31626768 0 2620.42837338 0 161.11959983 0 1754.87136354 0 28224
0.16150000 0.16150500 9055.07501247 0 201.81209231 0 2636.22223784 0 43.87000950 0 1435.05669954 0 28075
0.16250000 0.16249700 8621.83067728 0 248.15998612 0 2740.82331625 0 -385.84721415 0 786.24053310 0 28590
0.16350000 0.16349900 8540.35474449 0 105.65274571 0 2772.45540995 0 -146.86741175 0 736.98785482 0 29163
0.16450000 0.16449100 8196.97128698 0 220.22458836 0 2899.50507099 0 -358.28669886 0 38.25132004 0 28996
0.16550000 0.16550500 8180.77813943 0 12.92989558 0 2534.79324174 0 56.97004404 0 119.69176099 0 30777
0.16650000 0.16650700 8092.31475257 0 -139.86110264 0 2790.84461449 0 412.90862559 0 -565.61222517 0 29211
0.16750000 0.16749900 8454.60870089 0 -107.18776737 0 2130.90730487 0 365.35068219 0 -92.22696272 0 30922
0.16850000 0.16850800 8365.63511897 0 97.41431553 0 2225.85904195 0 72.28321602 0 -156.55668140 0 30867
0.16950000 0.16949900 8335.07887138 0 130.05315718 0 1904.74670790 0 -117.71863705 0 38.49632458 0 30852
0.17050000 0.17049200 8159.80468600 0 -7.85390947 0 2135.99816427 0 228.68717164 0 286.05638785 0 31257
0.17150000 0.17149500 8205.93297411 0 38.63474271 0 1814.07617285 0 64.35988674 0 -112.24180400 0 32608
0.17250000 0.17250900 8228.30391836 0 131.76452886 0 2119.30591287 0 45.78923022 0 406.70310089 0 32361
0.17350000 0.17350400 7895.59019230 0 67.78429380 0 1815.19638374 0 -34.02324485 0 -18.81388647 0 32508
0.17450000 0.17449800 7999.84744362 0 103.01592455 0 2026.98278947 0 -27.35843369 0 540.94318492 0 32791
0.17550000 0.17549800 7802.55723230 0 33.82737431 0 2059.46890533 0 248.34077263 0 92.94711414 0 33633
0.17650000 0.17650100 7863.12625884 0 24.59406376 0 1680.13887850 0 104.81081295 0 595.43423552 0 33984
0.17750000 0.17750300 7693.73040785 0 -12.01842101 0 1870.77437165 0 192.09065819 0 557.18735197 0 34069
0.17850000 0.17849800 7913.08100989 0 45.62740965 0 1587.53847518 0 40.59145168 0 230.58154807 0 34536
