### header ###
fiducial parameters:
Omega_m = 0.31
Omega_nu = 0
Omega_de = 0.69
Omega_k = 0
H_0 = 100
w_de = -1
zeff = 0
beta = 0
fgrowth = 0
b_1 = 2
gamma = 0.55
Lx = 3500 Ly = 3500 Lz = 3500
nx = 700 ny = 700 nz = 700
xoffset = 1379.75464 yoffset = 22.6059522 zoffset = 368.141391
bins = 400 dk = 0.001
kx_ny = 0.628318531 ky_ny = 0.628318531 kz_ny = 0.628318531
############################
A(data) = 3.35199702 (not used)
A(ran) = 3.35452065 (used)
Ngal = 189175
weighted Ngal = 0
Nran = 9399747
weighted Nran = 0
SN(data) = 6606.45098
SN(ran) = 133.427343
SN(data+ran) = 6739.87832
############################
13 columns: k_central k_mean P_0(k) sigma^{lin}_{P_0(k)} P^img_1(k) sigma^{lin}_{P_1(k)} P_2(k) sigma^{lin}_{P_2(k)} P^img_3(k) sigma^{lin}_{P_3(k)} P_4(k) sigma^{lin}_{P_4(k)} N_modes
### header ###
0.00050000 0 0 0 0 0 0 0 0 0 0 0 0
0.00150000 0.00179520 22212.67286411 0 -16251.15450444 0 16659.19964017 0 -55497.13308179 0 95412.79813087 0 3
0.00250000 0.00253879 41128.04378749 0 -19998.53721734 0 -44449.52453757 0 20527.58731177 0 -27081.26467651 0 6
0.00350000 0.00331552 64788.56150123 0 -26146.72042165 0 -11290.39484541 0 -43868.90037734 0 10407.16955883 0 7
0.00450000 0.00420575 78980.74620420 0 -10623.30371376 0 -35623.15000618 0 -29407.53232443 0 -4568.57493494 0 24
0.00550000 0.00557378 83836.36131616 0 5656.26643726 0 -5766.56839091 0 -39125.86091440 0 69.72469870 0 45
0.00650000 0.00659388 69487.90164819 0 3516.13125653 0 11209.76184360 0 -3159.63800422 0 -12642.85540128 0 40
0.00750000 0.00754703 68644.52703224 0 -2288.93467899 0 23899.64391994 0 16709.44276234 0 -305.00902520 0 57
0.00850000 0.00846663 75993.33230620 0 -4125.85871756 0 2235.68584244 0 20602.89653905 0 -26.77348396 0 75
0.00950000 0.00948925 81877.21228723 0 -4131.00503294 0 12692.54396361 0 -9248.66076400 0 -14851.44544958 0 112
0.01050000 0.01054430 85855.29189665 0 11489.81456654 0 10949.41817763 0 -40246.40454208 0 -23555.26225470 0 105
0.01150000 0.01145670 71781.11752920 0 7850.57102389 0 44850.80404316 0 -22937.70440862 0 2989.98705570 0 144
0.01250000 0.01249090 71064.18255847 0 -750.81303181 0 37615.46171399 0 658.25255680 0 -18987.90735142 0 169
0.01350000 0.01339930 86520.87462551 0 -13955.16582419 0 35168.85457918 0 37486.91474136 0 -14035.57700207 0 180
0.01450000 0.01448870 93632.55010871 0 -12294.70272907 0 7394.74501171 0 24405.29158881 0 7401.15572355 0 267
0.01550000 0.01550050 112781.94528770 0 -6914.89546694 0 -8141.27129590 0 33346.34909665 0 8937.30868327 0 238
0.01650000 0.01653350 106255.21953155 0 1110.72791838 0 -14481.88676726 0 3422.42173351 0 39255.62791869 0 315
0.01750000 0.01747870 107187.76737095 0 7808.53538746 0 -14258.06641285 0 -4070.23636486 0 32669.67517084 0 297
0.01850000 0.01844180 99864.47184998 0 131.86324052 0 -2083.90281221 0 6844.89892300 0 49655.17782522 0 388
0.01950000 0.01947590 90716.00895921 0 10525.77881900 0 -4002.20296278 0 -16969.19859487 0 34277.34416848 0 399
0.02050000 0.02045430 78624.49695822 0 11392.98841718 0 17784.29065860 0 -11461.19927842 0 30444.78106302 0 462
0.02150000 0.02154770 65413.55044926 0 9988.07759095 0 37206.52928251 0 -8820.28546427 0 41641.23347028 0 571
0.02250000 0.02255340 57132.75189575 0 789.80746204 0 35970.52629460 0 8522.35373185 0 28434.83435207 0 510
0.02350000 0.02348930 68269.09001555 0 -7196.24585993 0 27161.34311847 0 21149.24890072 0 23656.85761874 0 555
0.02450000 0.02439640 66374.04810497 0 -3743.44533798 0 24015.54692805 0 3166.74746146 0 12340.84210838 0 592
0.02550000 0.02547300 68962.95529663 0 6150.29053173 0 27470.89842530 0 -7521.98322310 0 25823.52294258 0 837
0.02650000 0.02652900 63827.62019763 0 2898.39595130 0 28040.43138859 0 187.86047567 0 27765.59152821 0 723
0.02750000 0.02749970 60885.12564727 0 344.11547652 0 28878.14949409 0 3817.95599908 0 19135.08753492 0 826
0.02850000 0.02848090 62304.46612073 0 -1405.43211249 0 28889.68433891 0 14143.05070050 0 17748.35518048 0 831
0.02950000 0.02946900 63604.57622700 0 364.15505116 0 22201.80349110 0 7650.18636863 0 19492.00225271 0 996
0.03050000 0.03053250 60288.41925145 0 1786.11526534 0 18321.77006271 0 2027.03824545 0 20680.53491769 0 1041
0.03150000 0.03150510 57181.10951444 0 2319.04727871 0 21662.88223139 0 -4436.44550570 0 16585.55409243 0 1036
0.03250000 0.03246190 55501.12591269 0 3179.55779393 0 18010.44016437 0 682.70310047 0 16642.34102081 0 1059
0.03350000 0.03345080 50911.36679158 0 1747.97263904 0 23264.22924677 0 -2525.72064264 0 3633.56484981 0 1302
0.03450000 0.03451200 49505.66849036 0 2281.54794182 0 17066.02474423 0 -1994.80722712 0 819.34997423 0 1339
0.03550000 0.03553350 46337.24625816 0 2157.49290396 0 25664.80791425 0 -1454.21119667 0 -6456.69593862 0 1365
0.03650000 0.03647120 44732.12823582 0 757.13279583 0 16346.76062214 0 413.60404364 0 -4531.96289382 0 1308
0.03750000 0.03744890 42921.49033402 0 -1071.67581393 0 21801.52219324 0 3304.96595783 0 -10370.29132898 0 1579
0.03850000 0.03847530 45494.98076191 0 113.85779139 0 13497.87577402 0 4929.56012202 0 -9004.67661354 0 1662
0.03950000 0.03950240 44035.82289141 0 -786.11298434 0 13504.75231613 0 2502.65095299 0 -13424.23022628 0 1683
0.04050000 0.04050350 43520.52588119 0 1483.88014851 0 9811.59446511 0 406.25168918 0 -7395.12211241 0 1822
0.04150000 0.04152450 40553.40887360 0 1936.57844314 0 9934.88421039 0 -1536.69642837 0 -4809.95265413 0 1887
0.04250000 0.04250150 41222.65169746 0 401.83406543 0 10733.76094417 0 2837.69383040 0 -4345.98570339 0 1920
0.04350000 0.04349210 38383.85983856 0 205.26367280 0 11798.48257761 0 1425.57372615 0 -3470.18042757 0 2005
0.04450000 0.04448520 39936.73832328 0 647.81684959 0 10189.42718035 0 -150.09273182 0 -2397.88350661 0 2151
0.04550000 0.04548030 37467.28332276 0 907.10796097 0 12955.07259537 0 -2209.23333772 0 994.95245904 0 2274
0.04650000 0.04648670 38381.08703932 0 1206.72222797 0 17470.74252087 0 -1545.84666586 0 1479.42148733 0 2311
0.04750000 0.04749250 36742.47360219 0 737.55350586 0 16509.13574546 0 -1083.34153488 0 740.37066988 0 2568
0.04850000 0.04851840 37568.54595090 0 -199.23338902 0 22020.12968509 0 974.46258179 0 3985.43307300 0 2493
0.04950000 0.04949480 36877.67529299 0 502.72735671 0 20323.73111186 0 2707.90464371 0 5973.72976751 0 2644
0.05050000 0.05050630 37977.47838238 0 201.93187724 0 21034.45501230 0 2201.29204071 0 9135.17563683 0 2829
0.05150000 0.05149060 36252.46452102 0 232.34948487 0 21869.84396644 0 1551.62517947 0 10232.60521007 0 2784
0.05250000 0.05249300 37655.50093497 0 319.51298345 0 23066.80594110 0 713.13069018 0 12206.41680137 0 3055
0.05350000 0.05348950 36729.38598979 0 269.48170313 0 23144.00067186 0 1501.70370200 0 15265.81256756 0 3009
0.05450000 0.05448610 35283.87029153 0 535.94660069 0 19250.32507121 0 1463.79399083 0 13823.29149248 0 3336
0.05550000 0.05550870 37457.07942157 0 -200.86268585 0 21402.35001508 0 2843.13960810 0 13150.05583772 0 3349
0.05650000 0.05647670 36055.26303928 0 -28.17441305 0 19480.91105577 0 2193.23983172 0 12796.91212689 0 3324
0.05750000 0.05747970 36128.24311520 0 567.87926583 0 17887.21696628 0 -189.98111253 0 12021.52654824 0 3639
0.05850000 0.05849280 35796.17267857 0 -29.60173918 0 16185.16188260 0 2890.44356309 0 10538.11223001 0 3846
0.05950000 0.05951020 36328.88286799 0 -524.44059298 0 15119.29785588 0 2163.19377919 0 11848.94752373 0 3787
0.06050000 0.06049470 36361.82372293 0 -243.24991323 0 14397.92640637 0 877.89818468 0 10290.33489018 0 3930
0.06150000 0.06148310 35977.62466064 0 476.67524420 0 12096.72486355 0 1090.47206539 0 7113.20606838 0 4083
0.06250000 0.06249100 35979.73198806 0 408.12942882 0 14594.57332826 0 -1224.29068393 0 6409.23670688 0 4303
0.06350000 0.06350600 34313.61238250 0 1083.69201670 0 9241.79531309 0 -115.58247252 0 3412.77239217 0 4470
0.06450000 0.06451750 33537.22859613 0 741.69939528 0 15563.83302956 0 -1163.04509438 0 4354.72556658 0 4479
0.06550000 0.06550280 32262.85006678 0 433.23213487 0 9194.08098382 0 456.99946082 0 -301.14152482 0 4636
0.06650000 0.06648880 31654.71973811 0 787.95079567 0 13821.51690097 0 795.48171840 0 -1889.07484662 0 4653
0.06750000 0.06749660 30656.06836489 0 494.81156945 0 8641.18481595 0 -759.61944219 0 -2318.20434774 0 5220
0.06850000 0.06852730 29236.39515551 0 905.87129251 0 12179.57610475 0 330.17827843 0 -1773.01656175 0 5029
0.06950000 0.06949320 28622.71922837 0 579.74462832 0 10109.98093661 0 -452.04058666 0 -4737.74896199 0 5040
0.07050000 0.07048030 28374.38732870 0 627.24378837 0 11107.27918380 0 -260.88047990 0 -2366.75051678 0 5475
0.07150000 0.07148790 27305.63959077 0 270.94685025 0 9258.54302048 0 976.75291396 0 -4766.16460857 0 5509
0.07250000 0.07249820 27144.59541108 0 100.31122526 0 10795.37254322 0 990.55258121 0 -1358.86017651 0 5916
0.07350000 0.07351270 27203.71149081 0 121.30996662 0 9786.92764310 0 573.08769191 0 -1875.56576873 0 5721
0.07450000 0.07449140 26271.27456338 0 587.18238499 0 10545.99807104 0 999.58747024 0 -840.84138656 0 6028
0.07550000 0.07549160 26185.53961097 0 601.11625572 0 10726.08583588 0 -262.39110092 0 2829.66380381 0 6183
0.07650000 0.07648840 25424.90532426 0 44.40083418 0 10101.96200121 0 1996.44872427 0 2228.50983802 0 6330
0.07750000 0.07749960 26007.30407601 0 27.69860070 0 9994.64357954 0 797.93287293 0 2836.28524839 0 6583
0.07850000 0.07848650 24893.19334256 0 469.45265675 0 9475.58665356 0 -210.24694759 0 1491.35561525 0 6549
0.07950000 0.07947320 24361.81409677 0 1137.28024387 0 11738.59011409 0 -851.69412277 0 3779.36972489 0 6828
0.08050000 0.08048110 23432.03905660 0 35.22386692 0 8960.83311200 0 175.04016112 0 849.48697458 0 7147
0.08150000 0.08149960 23469.74912623 0 -61.37236193 0 9396.31786897 0 1910.86904862 0 933.06912566 0 7386
0.08250000 0.08250610 23151.32086184 0 -19.86078455 0 7210.49804801 0 215.03723555 0 -731.21377768 0 7227
0.08350000 0.08350160 23100.96682770 0 19.17612496 0 6018.57147677 0 1792.27087965 0 -350.69033807 0 7798
0.08450000 0.08449610 22616.28152106 0 127.44450765 0 5371.15612851 0 464.29525017 0 -634.25897044 0 7371
0.08550000 0.08548940 22075.58566983 0 617.43806115 0 5044.28746325 0 -936.38872091 0 -1978.15934050 0 8256
0.08650000 0.08650700 21965.67190808 0 339.93964086 0 5120.98309015 0 -227.20649684 0 -1016.62687611 0 8037
0.08750000 0.08749060 21051.53545560 0 -15.79064801 0 4324.59078448 0 901.75867668 0 -2406.78973776 0 8155
0.08850000 0.08849210 21218.79070558 0 200.19943227 0 5355.43990243 0 392.60951693 0 -50.62499209 0 8718
0.08950000 0.08949900 20986.20830558 0 562.15398996 0 4812.00452556 0 47.77533085 0 -960.95239479 0 8571
0.09050000 0.09049190 20377.63432903 0 252.39904159 0 5432.12443813 0 -82.80576730 0 768.54674661 0 8932
0.09150000 0.09150830 19708.16968124 0 270.79933733 0 5908.49134706 0 -13.79378891 0 -421.63850670 0 9285
0.09250000 0.09250820 20143.61007342 0 57.05422622 0 6274.77812628 0 37.19366349 0 1030.99995824 0 9204
0.09350000 0.09350330 20167.67797080 0 23.85383728 0 6626.47998150 0 150.61069072 0 658.56754679 0 9349
0.09450000 0.09448040 19576.96082134 0 190.84622589 0 5551.38807892 0 583.37588620 0 1260.94708985 0 9564
0.09550000 0.09549270 19438.98633130 0 434.18375957 0 6138.56713655 0 -22.71421679 0 1490.14667478 0 10155
0.09650000 0.09649430 18937.88605318 0 252.90480017 0 5545.47647094 0 610.51937249 0 653.54988929 0 9913
0.09750000 0.09749140 18562.55994845 0 464.78880843 0 6265.84971273 0 178.43517650 0 2226.36923701 0 10476
0.09850000 0.09850240 17716.52344524 0 399.80770375 0 5576.72037275 0 -339.32740679 0 1207.44315577 0 10575
0.09950000 0.09950330 17198.78637170 0 507.75832365 0 6068.71477817 0 -194.33218909 0 1028.22272252 0 10882
0.10050000 0.10051200 17020.55083674 0 -31.26663876 0 6047.35313285 0 118.96972407 0 775.84253596 0 10875
0.10150000 0.10150300 16841.20618209 0 -127.34246864 0 5840.06975309 0 836.07328099 0 -90.04266239 0 11118
0.10250000 0.10250800 17376.24552287 0 104.45689286 0 5112.94197236 0 346.03647183 0 804.79721472 0 11575
0.10350000 0.10349800 16703.34260402 0 221.33703542 0 5151.90534724 0 -450.11515487 0 -777.24557238 0 11364
0.10450000 0.10450100 16557.38245218 0 273.00648552 0 5168.85269617 0 319.34550637 0 1339.20657551 0 12093
0.10550000 0.10551000 16399.55471961 0 292.24416663 0 5884.31253771 0 -163.94230945 0 68.60914611 0 12067
0.10650000 0.10649700 16166.41775976 0 158.10390338 0 5187.85191655 0 156.67646633 0 844.87525489 0 12054
0.10750000 0.10749900 15762.80910281 0 164.06874910 0 6335.82407428 0 180.05116390 0 1213.63204367 0 12807
0.10850000 0.10850100 15715.89333972 0 -8.47663582 0 5285.48772328 0 353.06274509 0 1601.77957207 0 12736
0.10950000 0.10950300 15903.22365618 0 -54.87414055 0 5736.43360880 0 709.79002166 0 1243.84446415 0 12933
0.11050000 0.11050200 15919.19497978 0 137.03950213 0 5180.23226424 0 -123.02355655 0 2332.29016786 0 13428
0.11150000 0.11150900 15597.10662041 0 154.78430813 0 4826.66708793 0 683.53715848 0 2352.26541357 0 13453
0.11250000 0.11250000 15653.22807697 0 13.87087273 0 5084.79251450 0 -17.18603150 0 2150.99346255 0 13668
0.11350000 0.11349100 15319.93760867 0 215.96889610 0 4349.24651529 0 384.10922359 0 1781.37932425 0 13791
0.11450000 0.11448600 15022.47170652 0 390.33693068 0 5544.70008716 0 -415.17233888 0 1516.56590591 0 14205
0.11550000 0.11549300 14452.27327141 0 302.40592127 0 4843.52570729 0 -468.47219494 0 1811.49192396 0 14776
0.11650000 0.11649800 14460.81349306 0 99.95930158 0 5118.63175639 0 604.50572551 0 1263.68661549 0 14553
0.11750000 0.11747300 14141.94158080 0 -34.47221650 0 4885.04005747 0 368.94312088 0 1042.41501814 0 14568
0.11850000 0.11849100 13980.89740111 0 163.97447392 0 4430.12352344 0 -339.31631560 0 289.29501736 0 16015
0.11950000 0.11950300 14067.07600140 0 267.50857919 0 5349.92757755 0 -245.60346522 0 690.65216132 0 15270
0.12050000 0.12050700 13630.63740149 0 212.99645531 0 5012.48900160 0 -626.09030389 0 -148.95255678 0 15999
0.12150000 0.12150000 13680.32596382 0 128.17652665 0 6003.44308413 0 -272.54398261 0 -125.90726776 0 15670
0.12250000 0.12250700 13473.25331679 0 13.77182834 0 5774.90897102 0 93.28938848 0 -109.73219886 0 16887
0.12350000 0.12352200 13769.38827531 0 -65.09135118 0 5796.69208182 0 358.25009791 0 -487.79860562 0 16407
0.12450000 0.12449800 13821.29507703 0 69.22725852 0 6036.58358062 0 -112.92834909 0 -18.64430207 0 16306
0.12550000 0.12549900 13897.15886415 0 96.40690211 0 6153.28515490 0 -20.08161028 0 -47.11862108 0 17523
0.12650000 0.12650100 13678.10772443 0 36.76465600 0 5987.85995242 0 92.86049189 0 95.63284748 0 17154
0.12750000 0.12750600 13628.97372195 0 141.03566039 0 6327.63877093 0 -76.51838957 0 -186.93768808 0 18007
0.12850000 0.12850300 13691.41716076 0 89.83226239 0 6115.66381486 0 184.13050614 0 37.29104420 0 17496
0.12950000 0.12949900 13271.72626824 0 84.61152507 0 5965.54446416 0 377.19053493 0 597.10456978 0 18405
0.13050000 0.13049000 13283.81567292 0 121.65823021 0 5881.37337052 0 399.66240907 0 85.81369991 0 18100
0.13150000 0.13148800 13271.83718021 0 107.65670318 0 5810.62262519 0 364.68521038 0 109.45647171 0 19059
0.13250000 0.13249300 12754.87649046 0 252.94251024 0 5552.63029298 0 139.04146318 0 661.88825116 0 18957
0.13350000 0.13349100 12504.10452746 0 107.18044718 0 5149.77583742 0 62.73813192 0 629.92342155 0 19468
0.13450000 0.13450700 12483.47490113 0 38.67611288 0 4952.30816696 0 299.21165655 0 370.73102183 0 19953
0.13550000 0.13551000 12452.64137362 0 103.35265329 0 5123.66715981 0 17.69899935 0 -217.21111015 0 19956
0.13650000 0.13649900 12173.91959431 0 201.83760206 0 4691.26575558 0 -181.89562995 0 -521.22081850 0 19723
0.13750000 0.13749600 11902.40709302 0 288.36224770 0 4947.88277937 0 -221.00762687 0 -1183.64144712 0 20946
0.13850000 0.13851100 11553.36712506 0 237.78971697 0 4866.40684659 0 -305.65675110 0 -1171.80713997 0 20955
0.13950000 0.13949800 11300.26601070 0 74.48126943 0 4787.64825706 0 288.27240900 0 -1804.69302023 0 20506
0.14050000 0.14048300 11284.29468709 0 9.80891040 0 4349.39070085 0 351.43012090 0 -1919.63109421 0 21447
0.14150000 0.14148400 11231.94423750 0 40.13382889 0 4225.06947426 0 220.31442706 0 -2364.21063268 0 21771
0.14250000 0.14249400 10947.12229987 0 146.29288775 0 3338.93829408 0 338.95917905 0 -2052.63672801 0 22470
0.14350000 0.14350900 10871.92398456 0 156.63210154 0 3538.86821027 0 86.36759428 0 -1862.33397077 0 22519
0.14450000 0.14449900 10713.38641538 0 37.58473910 0 3104.64784975 0 542.64901101 0 -1673.18469802 0 22218
0.14550000 0.14550500 10631.96593858 0 5.03769929 0 2872.60891839 0 584.01806651 0 -967.54056578 0 23559
0.14650000 0.14650700 10700.46517093 0 -48.59940679 0 2393.02556235 0 475.71252831 0 -707.23239164 0 23044
0.14750000 0.14750500 10533.06573539 0 49.62500977 0 2480.35764712 0 382.92024728 0 -162.39397836 0 23649
0.14850000 0.14849900 10639.43031413 0 31.67656940 0 2272.93008180 0 -222.96855049 0 -53.86772534 0 23640
0.14950000 0.14949500 10534.00848713 0 138.50908573 0 2652.91448924 0 -84.97365265 0 -95.08893518 0 24457
0.15050000 0.15050000 10486.13888111 0 263.96161441 0 2846.83297669 0 -589.03461489 0 -243.25878619 0 24591
0.15150000 0.15149900 10095.95057247 0 162.97072060 0 3447.42129143 0 -322.75937679 0 -102.34157978 0 25020
0.15250000 0.15250500 10077.36172638 0 89.63284267 0 3687.88953247 0 -38.32540923 0 -432.28161930 0 25297
0.15350000 0.15350100 10080.98854778 0 0.44634526 0 3415.36773225 0 126.27327726 0 -512.91351199 0 25452
0.15450000 0.15450400 9962.53456438 0 52.39947269 0 3422.28863915 0 281.40584897 0 -312.61647718 0 26061
0.15550000 0.15549900 9943.06951373 0 155.97439356 0 3309.85717568 0 164.55676176 0 -77.04644146 0 26128
0.15650000 0.15649500 9728.42157919 0 95.00275658 0 3023.68211202 0 332.58728641 0 248.93969726 0 26331
0.15750000 0.15749700 9625.66163947 0 105.80680244 0 3065.73993085 0 162.97515708 0 164.55676176 0 27345
0.15850000 0.15849900 9305.09277407 0 215.59290452 0 2903.52008429 0 223.38336126 0 231.17603623 0 26980
0.15950000 0.15949700 9048.03210241 0 299.27598549 0 3099.64571992 0 -203.63548509 0 713.12736282 0 27777
0.16050000 0.16050000 8784.96000199 0 135.63313836 0 2916.04204564 0 104.64854874 0 851.31147648 0 28224
0.16150000 0.16150500 8663.25629788 0 77.60399593 0 3502.97709694 0 211.11760655 0 867.20183435 0 28075
0.16250000 0.16249700 8549.38297881 0 107.77482443 0 2743.21901479 0 -9.11373635 0 485.58923919 0 28590
0.16350000 0.16349900 8564.81083377 0 57.71903257 0 3169.22079838 0 29.26101761 0 1073.62342811 0 29163
0.16450000 0.16449100 8180.22357959 0 192.96908098 0 3308.43750247 0 -348.46433484 0 437.06414342 0 28996
0.16550000 0.16550500 8317.32186506 0 74.37579214 0 3263.98398510 0 -150.42435861 0 381.73681656 0 30777
0.16650000 0.16650700 8146.25124333 0 -125.38376326 0 3437.99377403 0 261.49493221 0 -209.38848895 0 29211
0.16750000 0.16749900 8472.56534875 0 -102.36952959 0 2702.75832833 0 344.77096626 0 220.15915030 0 30922
0.16850000 0.16850800 8426.43706064 0 -71.14403918 0 2697.27927704 0 216.22843010 0 -433.67134627 0 30867
0.16950000 0.16949900 8507.56916632 0 55.97660553 0 2351.07865549 0 13.06609548 0 -178.84333255 0 30852
0.17050000 0.17049200 8499.73878127 0 62.41005432 0 2191.32105465 0 28.79197089 0 -272.31661307 0 31257
0.17150000 0.17149500 8466.33209606 0 -20.91156455 0 2160.14370003 0 253.66011068 0 62.67169565 0 32608
0.17250000 0.17250900 8390.45721774 0 121.71812267 0 2138.47150119 0 110.09920657 0 -135.38247731 0 32361
0.17350000 0.17350400 8386.16492452 0 118.11459278 0 2102.55820547 0 -50.09804932 0 -53.11441124 0 32508
0.17450000 0.17449800 8111.86853279 0 90.95946073 0 2063.77228975 0 94.63364155 0 401.37378076 0 32791
0.17550000 0.17549800 8054.82650689 0 104.39822043 0 2094.13998699 0 201.32407965 0 20.45272173 0 33633
0.17650000 0.17650100 7905.49463118 0 78.51103401 0 2266.91865305 0 60.52843275 0 458.70750515 0 33984
0.17750000 0.17750300 7759.62320892 0 149.64021099 0 2135.22178049 0 -103.16487933 0 294.46684250 0 34069
0.17850000 0.17849800 7666.76770806 0 204.57269123 0 2292.31749406 0 -216.94381231 0 585.86696904 0 34536
