### header ###
fiducial parameters:
Omega_m = 0.31
Omega_nu = 0
Omega_de = 0.69
Omega_k = 0
H_0 = 100
w_de = -1
zeff = 0
beta = 0
fgrowth = 0
b_1 = 2
gamma = 0.55
Lx = 3500 Ly = 3500 Lz = 3500
nx = 700 ny = 700 nz = 700
xoffset = 1379.75464 yoffset = 22.6059522 zoffset = 368.141391
bins = 400 dk = 0.001
kx_ny = 0.628318531 ky_ny = 0.628318531 kz_ny = 0.628318531
############################
A(data) = 3.36042201 (not used)
A(ran) = 3.36381051 (used)
Ngal = 188981
weighted Ngal = 0
Nran = 9399747
weighted Nran = 0
SN(data) = 6643.2079
SN(ran) = 133.796851
SN(data+ran) = 6777.00476
############################
13 columns: k_central k_mean P_0(k) sigma^{lin}_{P_0(k)} P^img_1(k) sigma^{lin}_{P_1(k)} P_2(k) sigma^{lin}_{P_2(k)} P^img_3(k) sigma^{lin}_{P_3(k)} P_4(k) sigma^{lin}_{P_4(k)} N_modes
### header ###
0.00050000 0 0 0 0 0 0 0 0 0 0 0 0
0.00150000 0.00179520 36367.03658550 0 -37157.06254412 0 -51780.80572035 0 70212.15680891 0 1348.01298589 0 3
0.00250000 0.00253879 63339.60753191 0 -31850.03571636 0 2368.10364281 0 -77252.73771967 0 3287.37531947 0 6
0.00350000 0.00331552 75778.60673328 0 -5469.94541973 0 -44097.60085841 0 -28459.12407338 0 10755.55514618 0 7
0.00450000 0.00420575 89381.73796634 0 401.72204434 0 -18751.77576839 0 -28365.07072326 0 29924.38210221 0 24
0.00550000 0.00557378 88196.64357242 0 -7830.08558313 0 -14884.38630451 0 9838.55716489 0 21641.03257340 0 45
0.00650000 0.00659388 109190.17206798 0 -9520.00689734 0 -12267.19656064 0 27724.22136359 0 18132.77606671 0 40
0.00750000 0.00754703 114617.53838263 0 -15228.76796976 0 -41844.97875822 0 47151.56193810 0 31848.59386076 0 57
0.00850000 0.00846663 123646.88181818 0 -11566.01108958 0 -51189.09036316 0 -85.20379499 0 43506.32914910 0 75
0.00950000 0.00948925 137743.79313937 0 -1986.26700547 0 -72005.49244346 0 -1559.98794196 0 44055.34339803 0 112
0.01050000 0.01054430 115151.02495584 0 11286.73475042 0 -26274.49101049 0 -51067.30902067 0 9031.91659324 0 105
0.01150000 0.01145670 112387.09867634 0 19372.99370946 0 -5856.45145098 0 -39767.93030573 0 26719.46983205 0 144
0.01250000 0.01249090 90535.33336092 0 9356.94411981 0 22299.51693622 0 -22499.38030523 0 4809.85283335 0 169
0.01350000 0.01339930 84074.04566676 0 3613.40105376 0 17355.28316064 0 18336.41044268 0 31401.28588784 0 180
0.01450000 0.01448870 90374.84374108 0 -5134.74726556 0 18885.64651556 0 33084.92958458 0 7751.31590240 0 267
0.01550000 0.01550050 97488.62655170 0 -3713.01109355 0 14599.56436688 0 13775.82116954 0 10766.53543115 0 238
0.01650000 0.01653350 93747.45490910 0 1858.16368072 0 15495.06760848 0 9248.13947775 0 32727.79304285 0 315
0.01750000 0.01747870 94221.60357863 0 2466.52692453 0 -6330.98831241 0 -7750.83898093 0 16231.41217388 0 297
0.01850000 0.01844180 87335.63395333 0 4663.48230723 0 14188.08096011 0 -19983.12045358 0 26210.82754001 0 388
0.01950000 0.01947590 85330.90010494 0 5698.13570574 0 32075.85248623 0 -9003.37894349 0 8711.86901410 0 399
0.02050000 0.02045430 75560.66471325 0 8501.18063687 0 43753.10828120 0 -12465.72898602 0 3159.22762993 0 462
0.02150000 0.02154770 71910.55179759 0 3534.53155226 0 50046.36434159 0 1274.52271491 0 4323.28202324 0 571
0.02250000 0.02255340 71134.61165909 0 -1190.82854274 0 47640.01825170 0 13194.86427339 0 -5224.56377844 0 510
0.02350000 0.02348930 71175.75999977 0 -1928.19349825 0 46461.35675201 0 8167.92344217 0 1904.02578010 0 555
0.02450000 0.02439640 76828.05578852 0 631.42960610 0 44271.51082656 0 9555.73164271 0 1996.29344751 0 592
0.02550000 0.02547300 71161.67417964 0 3404.52054164 0 40983.74731519 0 3476.93496651 0 11096.74254670 0 837
0.02650000 0.02652900 67726.28683690 0 2314.12278726 0 33816.17219937 0 -793.85463981 0 -3932.10659807 0 723
0.02750000 0.02749970 63469.15271226 0 1532.22667600 0 34187.83820911 0 4333.90738991 0 7133.56950598 0 826
0.02850000 0.02848090 62978.92180715 0 -6.05068049 0 28934.38186261 0 3480.96107100 0 -9665.45685412 0 831
0.02950000 0.02946900 62714.06402403 0 605.15345141 0 28415.20293347 0 7528.88194760 0 5471.17654259 0 996
0.03050000 0.03053250 62418.70544930 0 -671.47880916 0 18229.04765622 0 8940.70258954 0 1733.37662386 0 1041
0.03150000 0.03150510 61690.23563374 0 762.19259988 0 20626.96443643 0 649.13448379 0 -2617.34502063 0 1036
0.03250000 0.03246190 60894.99681255 0 2319.97893925 0 14878.28614619 0 1293.00064903 0 10378.94246260 0 1059
0.03350000 0.03345080 57020.17624672 0 2248.91764040 0 25775.60897176 0 -2943.62585245 0 -1294.97488208 0 1302
0.03450000 0.03451200 53845.54294423 0 3807.66336831 0 24204.31910011 0 -3316.40098188 0 6960.38046563 0 1339
0.03550000 0.03553350 50985.01233931 0 1873.09243181 0 30423.15322897 0 4083.53471000 0 1854.07102905 0 1365
0.03650000 0.03647120 47576.90934107 0 1441.57832335 0 26580.27531035 0 1755.66992972 0 13040.69663581 0 1308
0.03750000 0.03744890 48408.97093612 0 451.60913910 0 30026.64293808 0 3228.51433726 0 2392.45991131 0 1579
0.03850000 0.03847530 47238.18418627 0 841.11977560 0 25764.85051072 0 -881.86550583 0 1749.96905449 0 1662
0.03950000 0.03950240 45646.48651223 0 1210.22704620 0 26747.75238427 0 51.73422269 0 -1527.03599583 0 1683
0.04050000 0.04050350 43697.31956055 0 1302.87181431 0 25074.86714857 0 -4367.62462863 0 -5974.12905060 0 1822
0.04150000 0.04152450 43465.84628024 0 1097.42624588 0 26868.09187116 0 -2198.77433900 0 -13334.94609085 0 1887
0.04250000 0.04250150 41737.50505980 0 707.22240957 0 24514.42896678 0 -179.20379645 0 -19055.00909295 0 1920
0.04350000 0.04349210 40458.02457985 0 -12.36224812 0 20557.97719141 0 3148.50244248 0 -15353.10028755 0 2005
0.04450000 0.04448520 40485.08710040 0 4.32546699 0 18760.53781398 0 2143.68436376 0 -19630.19856669 0 2151
0.04550000 0.04548030 40803.73718872 0 -21.29720547 0 15778.66951445 0 4351.95276735 0 -15039.55214982 0 2274
0.04650000 0.04648670 40347.33443431 0 243.67470607 0 16433.27195833 0 2642.47767291 0 -13325.18583753 0 2311
0.04750000 0.04749250 39776.02687950 0 301.33783901 0 10393.70484574 0 2671.96916560 0 -8474.21793709 0 2568
0.04850000 0.04851840 39778.24511889 0 -73.75535059 0 16974.63328138 0 637.64733111 0 -3787.16683635 0 2493
0.04950000 0.04949480 38699.40439174 0 662.83765762 0 10314.68006748 0 611.60187332 0 -5014.75160578 0 2644
0.05050000 0.05050630 38513.29410695 0 345.92334162 0 15009.49500609 0 3562.02662950 0 3432.83636744 0 2829
0.05150000 0.05149060 39374.52554998 0 -615.34404317 0 10410.82965383 0 1674.33818250 0 3651.83205119 0 2784
0.05250000 0.05249300 39417.44848217 0 -161.91151129 0 14457.26431004 0 1763.62231793 0 3712.58962807 0 3055
0.05350000 0.05348950 38030.71612773 0 1573.35283429 0 10257.05020814 0 -248.75669251 0 1582.10378868 0 3009
0.05450000 0.05448610 37452.31020688 0 1076.41840974 0 15029.57007257 0 -1533.04742458 0 5916.01117859 0 3336
0.05550000 0.05550870 36031.41696584 0 170.76117733 0 13657.47809810 0 226.13508722 0 3569.13608674 0 3349
0.05650000 0.05647670 36134.89783337 0 708.41027676 0 14493.75434800 0 78.36474113 0 2405.63625328 0 3324
0.05750000 0.05747970 34851.86817040 0 284.14426550 0 12429.46077200 0 280.22685473 0 1055.92964162 0 3639
0.05850000 0.05849280 34227.43378221 0 511.46278343 0 14015.39102362 0 548.06484248 0 -315.45804184 0 3846
0.05950000 0.05951020 35495.60124127 0 -175.92856599 0 12011.87720689 0 1056.12151932 0 1157.45513112 0 3787
0.06050000 0.06049470 33441.62247843 0 -321.54710897 0 11810.46107031 0 1333.51679148 0 306.16361880 0 3930
0.06150000 0.06148310 34973.53860092 0 612.10430454 0 10150.58580863 0 650.14711007 0 715.28460063 0 4083
0.06250000 0.06249100 34138.48238269 0 215.03723555 0 11905.29080422 0 962.43639694 0 2228.78711794 0 4303
0.06350000 0.06350600 33131.95625964 0 779.04234628 0 10565.35220971 0 -425.92414521 0 2395.33253132 0 4470
0.06450000 0.06451750 32981.44871705 0 338.86268564 0 10894.17292563 0 1046.72727551 0 2789.92404514 0 4479
0.06550000 0.06550280 32396.83172591 0 450.83164619 0 11583.97882863 0 249.55304045 0 2809.87710845 0 4636
0.06650000 0.06648880 31873.88178980 0 791.28259124 0 10782.66203152 0 959.67247066 0 4217.86019624 0 4653
0.06750000 0.06749660 31089.40142965 0 437.39022461 0 12500.88808034 0 -566.12574759 0 2469.95410438 0 5220
0.06850000 0.06852730 30234.49196889 0 594.60461399 0 11548.15426249 0 -987.29066018 0 2802.11327059 0 5029
0.06950000 0.06949320 29369.04587102 0 962.88780866 0 14252.07716650 0 192.95688067 0 272.10255297 0 5040
0.07050000 0.07048030 28725.97827196 0 321.09680637 0 10441.91827887 0 -205.17494323 0 739.16062030 0 5475
0.07150000 0.07148790 29072.02361674 0 -356.92469987 0 12246.67784629 0 2486.51326143 0 404.30629323 0 5509
0.07250000 0.07249820 28186.28062846 0 -191.71244837 0 9764.32378372 0 1090.26244177 0 942.67299310 0 5916
0.07350000 0.07351270 28901.77374359 0 411.39911368 0 8648.82665065 0 2201.41404387 0 11.72494794 0 5721
0.07450000 0.07449140 27239.64696893 0 512.97784093 0 7752.21428935 0 469.76210114 0 914.77419630 0 6028
0.07550000 0.07549160 27177.75808996 0 751.09696645 0 7341.00816250 0 350.91438024 0 2649.27657664 0 6183
0.07650000 0.07648840 26197.40719170 0 454.18895151 0 8338.99406390 0 -418.50968005 0 1253.63799106 0 6330
0.07750000 0.07749960 25311.55329145 0 610.74119643 0 7226.09227092 0 -199.26555349 0 1411.58772680 0 6583
0.07850000 0.07848650 24258.55505318 0 661.09412146 0 8465.62225946 0 391.41499502 0 1294.50905181 0 6549
0.07950000 0.07947320 23955.32172862 0 155.66162181 0 6345.96142829 0 -281.70309305 0 741.98998464 0 6828
0.08050000 0.08048110 23838.75324869 0 197.64734786 0 7965.74201300 0 67.20921524 0 -729.14637857 0 7147
0.08150000 0.08149960 23556.59319833 0 153.00749838 0 6941.72507236 0 432.21174476 0 -917.94406038 0 7386
0.08250000 0.08250610 23679.81639642 0 -112.20298481 0 6643.83770473 0 52.21813162 0 -1759.34111591 0 7227
0.08350000 0.08350160 23480.39667530 0 71.44095052 0 5119.19740744 0 -195.34037889 0 -3938.36203315 0 7798
0.08450000 0.08449610 23497.80985450 0 308.50497047 0 6014.11281560 0 -771.00344674 0 -3959.09148024 0 7371
0.08550000 0.08548940 22944.13730285 0 365.11333058 0 5946.84470611 0 -353.82581944 0 -5504.25049189 0 8256
0.08650000 0.08650700 21782.77807040 0 453.62108222 0 6887.78858160 0 -530.94557999 0 -5512.63543678 0 8037
0.08750000 0.08749060 22175.51735434 0 272.23786557 0 5739.09549607 0 643.56781204 0 -5104.32411233 0 8155
0.08850000 0.08849210 21847.43974861 0 -222.46722839 0 6385.46827182 0 651.06102470 0 -4075.97051368 0 8718
0.08950000 0.08949900 22296.07866516 0 -113.02484250 0 5984.86532925 0 737.36384639 0 -4277.37555907 0 8571
0.09050000 0.09049190 21733.42224398 0 496.64938079 0 6720.05641016 0 -155.06935189 0 -1995.32851338 0 8932
0.09150000 0.09150830 21351.44142108 0 813.65797196 0 7308.18931073 0 -1020.90475077 0 -2245.16881583 0 9285
0.09250000 0.09250820 21031.46038913 0 200.42014709 0 8749.32398620 0 -150.06500383 0 -850.33766939 0 9204
0.09350000 0.09350330 20633.17550672 0 270.40227248 0 8800.52095131 0 499.33455957 0 -14.13173768 0 9349
0.09450000 0.09448040 20634.72827429 0 281.67425594 0 9847.58539921 0 -320.82839940 0 131.45508447 0 9564
0.09550000 0.09549270 20206.49716012 0 173.37980893 0 10193.80820314 0 100.87476898 0 1270.96244069 0 10155
0.09650000 0.09649430 20240.43622278 0 193.32621753 0 10172.57965218 0 331.72106393 0 721.27162874 0 9913
0.09750000 0.09749140 19966.81639407 0 304.84487548 0 9962.57892917 0 580.56759514 0 1413.21813275 0 10476
0.09850000 0.09850240 19166.03197441 0 307.79957035 0 9285.05098119 0 158.52647798 0 -589.73446941 0 10575
0.09950000 0.09950330 19026.28289286 0 273.26380129 0 9444.53130211 0 143.40030358 0 1238.26559209 0 10882
0.10050000 0.10051200 18134.88339413 0 463.55990381 0 8889.52780682 0 507.10616127 0 -179.61527986 0 10875
0.10150000 0.10150300 17846.62318545 0 433.00254710 0 8335.20087454 0 -15.15234962 0 -776.29838416 0 11118
0.10250000 0.10250800 17149.54145725 0 321.10124285 0 7311.74958495 0 866.74044055 0 -514.81121579 0 11575
0.10350000 0.10349800 16620.60227479 0 39.00441231 0 6885.12669434 0 919.71643366 0 -618.75791359 0 11364
0.10450000 0.10450100 16346.87153411 0 242.55005870 0 5896.80122548 0 1062.15845782 0 287.08676005 0 12093
0.10550000 0.10551000 16186.27100230 0 241.77145668 0 5681.48781912 0 725.02267155 0 -333.75408033 0 12067
0.10650000 0.10649700 15685.39254812 0 213.77838470 0 5207.02859607 0 166.96244238 0 1791.00648320 0 12054
0.10750000 0.10749900 15399.23966685 0 114.53657264 0 4697.22172834 0 78.65211404 0 843.54098390 0 12807
0.10850000 0.10850100 15390.92126914 0 222.33080666 0 5555.01490032 0 -110.57124791 0 1232.66453763 0 12736
0.10950000 0.10950300 15240.52463852 0 121.83014376 0 4807.83423551 0 -279.12771712 0 -19.35136588 0 12933
0.11050000 0.11050200 15044.54318845 0 -87.43268193 0 5497.50704414 0 -199.78462151 0 -23.06347858 0 13428
0.11150000 0.11150900 15233.42627248 0 -29.87746634 0 5322.28831476 0 214.82983017 0 22.01968604 0 13453
0.11250000 0.11250000 15430.51684225 0 83.66234044 0 4951.12140888 0 -0.55628786 0 -1835.73728049 0 13668
0.11350000 0.11349100 15103.77018015 0 122.09189601 0 5064.59544486 0 -140.63748642 0 -1350.44195802 0 13791
0.11450000 0.11448600 15099.44461334 0 92.59541228 0 4555.27658980 0 504.33890763 0 -1395.43894404 0 14205
0.11550000 0.11549300 14863.09120637 0 -31.82386049 0 4386.00274198 0 332.36878983 0 -915.10804133 0 14776
0.11650000 0.11649800 14999.73475278 0 56.62721514 0 4333.34173887 0 166.78498323 0 -1784.26303545 0 14553
0.11750000 0.11747300 14961.80285921 0 121.96989284 0 4201.34540399 0 251.29214014 0 -1720.68829455 0 14568
0.11850000 0.11849100 14490.31607694 0 279.51701813 0 4096.58904881 0 -372.53555958 0 -1191.13909625 0 16015
0.11950000 0.11950300 14151.92365805 0 322.32571099 0 4695.83532873 0 -506.46176273 0 -1597.47618765 0 15270
0.12050000 0.12050700 13978.90098566 0 94.12610837 0 4598.22170438 0 430.58355704 0 -319.13921011 0 15999
0.12150000 0.12150000 14053.76656506 0 -41.44647205 0 4468.75416241 0 1071.33864154 0 -1100.18019008 0 15670
0.12250000 0.12250700 13973.13356325 0 5.43012802 0 3878.21447210 0 470.94664098 0 378.22534361 0 16887
0.12350000 0.12352200 13891.28052977 0 294.51786200 0 4304.52680920 0 -93.48947367 0 77.85443515 0 16407
0.12450000 0.12449800 13375.31804774 0 255.18736850 0 4077.82274357 0 -9.91299019 0 514.73801389 0 16306
0.12550000 0.12549900 13337.82980205 0 78.95434916 0 4384.02850892 0 168.95553047 0 967.38307078 0 17523
0.12650000 0.12650100 13187.65499538 0 -63.66114133 0 3890.74752465 0 -46.04809875 0 -72.81093517 0 17154
0.12750000 0.12750600 13404.82063162 0 -85.49527164 0 3038.17830644 0 654.33403692 0 339.18987595 0 18007
0.12850000 0.12850300 13152.49590105 0 90.60542973 0 3772.33790603 0 -162.21430097 0 -436.67151505 0 17496
0.12950000 0.12949900 13372.43433653 0 392.76257545 0 3165.46088261 0 -667.05563982 0 -62.39729944 0 18405
0.13050000 0.13049000 12612.68734558 0 209.27203138 0 3627.39814431 0 61.02775844 0 -1114.70965808 0 18100
0.13150000 0.13148800 12512.20110123 0 126.54168422 0 3875.64131441 0 106.51220256 0 80.81933392 0 19059
0.13250000 0.13249300 12310.78496465 0 62.06456353 0 3643.79093340 0 516.86752370 0 -796.11946223 0 18957
0.13350000 0.13349100 12408.94205764 0 83.59080222 0 3594.53492775 0 331.34618147 0 467.24329032 0 19468
0.13450000 0.13450700 12024.85390732 0 148.09409813 0 3319.10723394 0 180.80425617 0 153.47332865 0 19953
0.13550000 0.13551000 12046.03809350 0 215.95115018 0 3552.75438885 0 99.26210894 0 1473.97570963 0 19956
0.13650000 0.13649900 11939.45169082 0 55.11825779 0 3385.97606034 0 430.91851119 0 1383.43826894 0 19723
0.13750000 0.13749600 11629.34182415 0 17.62590837 0 3540.33224827 0 132.22148618 0 1407.98308779 0 20946
0.13850000 0.13851100 11811.34836607 0 112.57564902 0 3375.88307112 0 80.46131008 0 1820.02105442 0 20955
0.13950000 0.13949800 11418.71999410 0 349.75978664 0 3478.57646366 0 -439.54080770 0 1342.97758248 0 20506
0.14050000 0.14048300 11256.01213487 0 206.05447514 0 4101.01443639 0 -216.92384815 0 1733.96445729 0 21447
0.14150000 0.14148400 10808.00541654 0 151.79190319 0 3985.74362651 0 72.65809847 0 1251.73030518 0 21771
0.14250000 0.14249400 10998.19726181 0 19.92001154 0 3779.42518088 0 365.85200429 0 1712.83572711 0 22470
0.14350000 0.14350900 11084.86387477 0 -233.06930355 0 3432.48144914 0 793.92229611 0 1265.07301511 0 22519
0.14450000 0.14449900 11005.67272855 0 26.35811864 0 3204.71262861 0 -47.78276196 0 1216.42702530 0 22218
0.14550000 0.14550500 11077.37731683 0 128.55917295 0 3187.61000292 0 -436.35430682 0 1000.26403325 0 23559
0.14650000 0.14650700 11000.74823711 0 19.87365034 0 2945.58899431 0 26.41579286 0 846.69642943 0 23044
0.14750000 0.14750500 11033.32308255 0 43.72693306 0 3433.92330475 0 155.80469825 0 1157.63259027 0 23649
0.14850000 0.14849900 10866.71112199 0 57.72956920 0 2865.49946115 0 288.89906163 0 618.47286983 0 23640
0.14950000 0.14949500 10862.57410553 0 169.49789000 0 3284.10341637 0 62.64352401 0 1240.58365225 0 24457
0.15050000 0.15050000 10500.46870756 0 160.91330356 0 2927.29961054 0 189.56852000 0 1029.06343525 0 24591
0.15150000 0.15149900 10364.43517699 0 253.82758776 0 3380.51919144 0 -13.90581000 0 1687.29270054 0 25020
0.15250000 0.15250500 10075.17676058 0 249.41107313 0 3236.04525999 0 -215.48310167 0 1749.85814252 0 25297
0.15350000 0.15350100 9830.15003760 0 130.29050879 0 3530.05070870 0 168.26898538 0 1518.93942206 0 25452
0.15450000 0.15450400 9678.30046019 0 85.82590022 0 3341.04562150 0 -216.91164784 0 1494.06186730 0 26061
0.15550000 0.15549900 9506.23163073 0 62.54969249 0 3013.87749392 0 321.96191973 0 747.70195107 0 26128
0.15650000 0.15649500 9728.97613904 0 -11.62701267 0 3147.45986997 0 174.45010944 0 1340.26023922 0 26331
0.15750000 0.15749700 9377.99521162 0 67.39599099 0 2709.08031059 0 87.31744439 0 175.02463344 0 27345
0.15850000 0.15849900 9558.84826905 0 130.26167168 0 2837.44982407 0 -163.23801844 0 780.91564945 0 26980
0.15950000 0.15949700 9196.11067286 0 109.09878061 0 2620.78329168 0 -149.42282353 0 -161.53773795 0 27777
0.16050000 0.16050000 9131.98137211 0 66.85207869 0 2467.43640268 0 232.19420811 0 266.20536355 0 28224
0.16150000 0.16150500 9083.69030059 0 22.79606982 0 2470.40884346 0 320.94818433 0 172.08879361 0 28075
0.16250000 0.16249700 8955.42060789 0 117.51677726 0 2078.50139929 0 142.02166780 0 48.80437211 0 28590
0.16350000 0.16349900 8956.23026527 0 85.58045204 0 2275.82488420 0 188.87199283 0 769.08577878 0 29163
0.16450000 0.16449100 8788.17644911 0 34.80262326 0 1974.46597192 0 143.42248598 0 242.43249201 0 28996
0.16550000 0.16550500 8707.34380575 0 105.60383353 0 2156.40596666 0 60.43449032 0 1057.33378715 0 30777
0.16650000 0.16650700 8687.79002553 0 106.77661670 0 2079.89889011 0 -94.85968014 0 659.53137181 0 29211
0.16750000 0.16749900 8581.74709151 0 58.91322174 0 2575.00992188 0 101.77016131 0 1499.99565767 0 30922
0.16850000 0.16850800 8569.92387556 0 68.60171501 0 2322.08626667 0 -107.78025911 0 1139.87558396 0 30867
0.16950000 0.16949900 8596.36528908 0 -16.45146152 0 2587.85352794 0 96.40845488 0 1079.87109935 0 30852
0.17050000 0.17049200 8659.54074690 0 -56.21484444 0 2528.43798589 0 -47.77998916 0 965.53195001 0 31257
0.17150000 0.17149500 8750.15582597 0 6.69798493 0 2645.03973941 0 -8.46045376 0 936.13695074 0 32608
0.17250000 0.17250900 8803.03865302 0 7.61936393 0 2464.88542738 0 52.11853267 0 775.88357339 0 32361
0.17350000 0.17350400 8667.63732067 0 69.04491924 0 2280.21699819 0 -22.37748805 0 474.82523255 0 32508
0.17450000 0.17449800 8577.56571026 0 212.95763612 0 2409.82872573 0 -168.16140077 0 184.79154147 0 32791
0.17550000 0.17549800 8392.63109234 0 112.07432692 0 2463.63212212 0 -35.94224374 0 213.34028242 0 33633
0.17650000 0.17650100 8066.63863164 0 149.91860003 0 2419.78862059 0 72.16531659 0 368.26212139 0 33984
0.17750000 0.17750300 8092.18165821 0 142.44091505 0 2293.88135283 0 78.16310317 0 -171.20593433 0 34069
0.17850000 0.17849800 7770.28184918 0 110.07835512 0 2510.05987255 0 114.54988208 0 217.93980179 0 34536
