### header ###
fiducial parameters:
Omega_m = 0.31
Omega_nu = 0
Omega_de = 0.69
Omega_k = 0
H_0 = 100
w_de = -1
zeff = 0
beta = 0
fgrowth = 0
b_1 = 2
gamma = 0.55
Lx = 3500 Ly = 3500 Lz = 3500
nx = 700 ny = 700 nz = 700
xoffset = 1379.75464 yoffset = 22.6059522 zoffset = 368.141391
bins = 400 dk = 0.001
kx_ny = 0.628318531 ky_ny = 0.628318531 kz_ny = 0.628318531
############################
A(data) = 3.27543848 (not used)
A(ran) = 3.26463389 (used)
Ngal = 184128
weighted Ngal = 0
Nran = 9399747
weighted Nran = 0
SN(data) = 6764.50407
SN(ran) = 129.852063
SN(data+ran) = 6894.35613
############################
13 columns: k_central k_mean P_0(k) sigma^{lin}_{P_0(k)} P^img_1(k) sigma^{lin}_{P_1(k)} P_2(k) sigma^{lin}_{P_2(k)} P^img_3(k) sigma^{lin}_{P_3(k)} P_4(k) sigma^{lin}_{P_4(k)} N_modes
### header ###
0.00050000 0 0 0 0 0 0 0 0 0 0 0 0
0.00150000 0.00179520 43384.32598267 0 8395.14879405 0 -3193.61034047 0 24244.91288094 0 -155856.82687551 0 3
0.00250000 0.00253879 49946.87630496 0 -4057.54803555 0 28679.72798068 0 23358.72624477 0 83244.97869488 0 6
0.00350000 0.00331552 58143.93632151 0 -16489.61523883 0 15435.06423299 0 43875.44418353 0 -55645.64420893 0 7
0.00450000 0.00420575 79757.79546239 0 -17573.33609264 0 37227.93529262 0 21040.11152275 0 21381.83130072 0 24
0.00550000 0.00557378 112735.36226051 0 -6441.78936992 0 15522.01921707 0 12060.34573756 0 34900.00396516 0 45
0.00650000 0.00659388 112920.58524955 0 11510.55510483 0 57487.22655021 0 11573.77492744 0 32679.32451218 0 40
0.00750000 0.00754703 112137.54674500 0 16290.30642967 0 29112.50648560 0 15136.04556327 0 43546.25745811 0 57
0.00850000 0.00846663 89997.52122090 0 12710.95535054 0 85675.05994624 0 7695.72682330 0 27666.21440355 0 75
0.00950000 0.00948925 82455.84003202 0 10579.43802983 0 79464.43330311 0 15276.79285254 0 43922.80359450 0 112
0.01050000 0.01054430 67224.63199893 0 5749.89832190 0 68360.37056643 0 31770.84457015 0 27444.05772868 0 105
0.01150000 0.01145670 70076.51147023 0 -2125.29515922 0 68886.64786162 0 29897.98505348 0 20591.13987028 0 144
0.01250000 0.01249090 72748.04807915 0 -2639.30559059 0 46452.04014658 0 24558.46101866 0 21820.26631609 0 169
0.01350000 0.01339930 86875.23836801 0 -4219.81224691 0 53878.81653508 0 9839.96574690 0 56820.97834953 0 180
0.01450000 0.01448870 76559.31608647 0 -462.09697493 0 30420.26951777 0 5739.13986086 0 13626.42274665 0 267
0.01550000 0.01550050 81470.49809514 0 4578.39064424 0 33413.89448606 0 10257.21657609 0 6822.02887490 0 238
0.01650000 0.01653350 74785.94460641 0 2236.85041812 0 29302.60960130 0 -2790.20132507 0 4695.45822803 0 315
0.01750000 0.01747870 77879.83399512 0 5169.65126235 0 48619.26003026 0 20.27093701 0 20373.30876222 0 297
0.01850000 0.01844180 70604.89609284 0 -157.11567773 0 37131.77461508 0 8613.95592744 0 5668.92149298 0 388
0.01950000 0.01947590 69854.79844323 0 1938.98523288 0 39349.12670897 0 -9123.64079200 0 -7912.26026132 0 399
0.02050000 0.02045430 69852.91293975 0 5275.73856116 0 44011.86590600 0 727.48380815 0 -11146.09837312 0 462
0.02150000 0.02154770 66265.13255094 0 2111.98572288 0 47058.95044358 0 -4730.78369031 0 -5890.98943828 0 571
0.02250000 0.02255340 62572.20761506 0 -234.47455820 0 53773.45016407 0 -3157.49740320 0 -21615.52282042 0 510
0.02350000 0.02348930 68149.52691245 0 206.32288211 0 42928.58870007 0 8616.36271718 0 -15302.96807734 0 555
0.02450000 0.02439640 66508.47341199 0 -4203.26418106 0 35118.94419291 0 11853.27309053 0 -20028.59436107 0 592
0.02550000 0.02547300 69947.07720184 0 68.30069993 0 28857.18713186 0 11128.68519391 0 -2063.82774573 0 837
0.02650000 0.02652900 68985.13769052 0 1129.07275813 0 34536.32361722 0 4188.51288912 0 1412.24210742 0 723
0.02750000 0.02749970 70003.08774643 0 268.63877216 0 21375.62023043 0 6177.48614665 0 1093.22046400 0 826
0.02850000 0.02848090 68856.14707002 0 886.14670785 0 31993.88854078 0 -505.69979750 0 1445.72643100 0 831
0.02950000 0.02946900 64095.36169196 0 3037.60156419 0 25062.99956784 0 -8758.47422368 0 -2295.33429963 0 996
0.03050000 0.03053250 62643.85674735 0 4867.78215501 0 32031.93134631 0 -7014.18386203 0 -5595.20939806 0 1041
0.03150000 0.03150510 57337.27356747 0 1922.55917020 0 36183.92092388 0 -1401.65001433 0 -14471.23921819 0 1036
0.03250000 0.03246190 57640.50689203 0 -330.56425208 0 34704.24433902 0 4232.22329629 0 -17276.09201443 0 1059
0.03350000 0.03345080 54198.46483112 0 -45.06320046 0 30177.59412854 0 8304.23425266 0 -12711.84264630 0 1302
0.03450000 0.03451200 56234.47585491 0 2020.81608397 0 22749.37588444 0 3859.76981157 0 -10764.48355972 0 1339
0.03550000 0.03553350 52254.62165398 0 -295.24766276 0 15237.30819141 0 10001.50903045 0 -6673.16282946 0 1365
0.03650000 0.03647120 53545.19333087 0 -2609.23735566 0 11277.08540907 0 6808.87471532 0 -3286.04437583 0 1308
0.03750000 0.03744890 52284.01332589 0 1107.69225778 0 5534.92874265 0 4494.11972983 0 -5191.16818443 0 1579
0.03850000 0.03847530 49829.97508913 0 2632.85051396 0 5878.53402410 0 -1292.08007968 0 -2081.16328656 0 1662
0.03950000 0.03950240 46289.44319932 0 1050.74783440 0 237.75533426 0 120.03336985 0 -1827.47433876 0 1683
0.04050000 0.04050350 45064.64232032 0 477.99731488 0 5185.35639723 0 1847.90432354 0 -3686.38112968 0 1822
0.04150000 0.04152450 46407.12079894 0 257.94242183 0 75.67690046 0 641.16656790 0 -2896.49935662 0 1887
0.04250000 0.04250150 42287.29569252 0 1504.68723398 0 1601.89048403 0 410.64602141 0 -6266.41536378 0 1920
0.04350000 0.04349210 41325.91074105 0 1593.76063667 0 -1884.11708158 0 449.65597932 0 4861.24944001 0 2005
0.04450000 0.04448520 39369.42359938 0 906.25393880 0 1057.37260634 0 1742.16085184 0 3254.04627264 0 2151
0.04550000 0.04548030 37587.95554556 0 734.71637768 0 202.73155254 0 3457.27027432 0 6323.19120095 0 2274
0.04650000 0.04648670 36218.30363442 0 1601.70193369 0 -373.42840093 0 109.60886475 0 7233.09081619 0 2311
0.04750000 0.04749250 35164.52901237 0 226.89816157 0 264.06919902 0 605.11463222 0 10237.08605363 0 2568
0.04850000 0.04851840 34137.70599890 0 19.43277526 0 -606.34575508 0 149.82099750 0 11166.83891141 0 2493
0.04950000 0.04949480 35488.39196326 0 -114.45893427 0 706.11107163 0 1152.04262701 0 9686.38594276 0 2644
0.05050000 0.05050630 34871.94323688 0 -229.40033560 0 123.76888498 0 -1129.71604756 0 9544.58498978 0 2829
0.05150000 0.05149060 36242.03879589 0 609.93375729 0 3915.05942836 0 -2530.30130698 0 7801.58120697 0 2784
0.05250000 0.05249300 33704.70567005 0 1016.50598207 0 5743.07723577 0 -2895.83388480 0 7224.51732095 0 3055
0.05350000 0.05348950 34455.91243935 0 1199.84568586 0 9225.56889196 0 -2012.36459189 0 7597.21481200 0 3009
0.05450000 0.05448610 32246.32418332 0 1010.26607466 0 11190.90680879 0 -490.44052873 0 7943.77035185 0 3336
0.05550000 0.05550870 32188.42813525 0 1298.95662179 0 14933.40939503 0 652.60381019 0 8858.18408424 0 3349
0.05650000 0.05647670 30729.04844081 0 229.37260761 0 12957.17992279 0 2003.76891426 0 10879.39945130 0 3324
0.05750000 0.05747970 31340.83886447 0 -1019.81337700 0 12727.03758612 0 3046.74071048 0 12071.54784648 0 3639
0.05850000 0.05849280 32540.35181442 0 -818.72443073 0 10953.33337016 0 1745.16656621 0 10825.89551722 0 3846
0.05950000 0.05951020 32645.49636149 0 7.26961413 0 9522.91279094 0 982.25414765 0 11610.26496540 0 3787
0.06050000 0.06049470 33587.13898239 0 81.11657800 0 8606.30300155 0 -510.36475493 0 8275.98497404 0 3930
0.06150000 0.06148310 32116.33535509 0 455.70400901 0 8197.98058590 0 -1019.07248504 0 6690.01035762 0 4083
0.06250000 0.06249100 31924.79038379 0 1009.76586168 0 10613.09981257 0 -2030.35451334 0 3091.89297326 0 4303
0.06350000 0.06350600 30684.90547695 0 1154.67124069 0 12674.02166470 0 -2986.49332866 0 3392.49768414 0 4470
0.06450000 0.06451750 28864.06367396 0 1428.46852855 0 13666.46196763 0 -2248.14125662 0 -2398.84844075 0 4479
0.06550000 0.06550280 28561.82855712 0 625.71985791 0 16678.60923483 0 -1204.61490055 0 487.02000359 0 4636
0.06650000 0.06648880 28073.37224352 0 -177.16079797 0 16045.52371302 0 1261.74565603 0 -3102.22996881 0 4653
0.06750000 0.06749660 28057.95547977 0 -275.45653093 0 15745.50683557 0 2302.67667201 0 -899.73453324 0 5220
0.06850000 0.06852730 28775.88865822 0 -7.15210290 0 14434.74918023 0 1513.11654366 0 -690.97047868 0 5029
0.06950000 0.06949320 28563.82497257 0 368.21997484 0 13015.07597086 0 288.67612857 0 74.78760829 0 5040
0.07050000 0.07048030 27639.81735482 0 292.78874440 0 13618.10434894 0 1452.02623087 0 780.75482709 0 5475
0.07150000 0.07148790 27734.75800069 0 -81.92812088 0 12623.00215874 0 1966.43594533 0 2794.58234786 0 5509
0.07250000 0.07249820 27782.67197151 0 -84.71456229 0 10125.97444261 0 1360.43512647 0 626.56500712 0 5916
0.07350000 0.07351270 28504.15433299 0 -329.25992732 0 9625.19580920 0 1627.99916165 0 2737.09667408 0 5721
0.07450000 0.07449140 27115.31465114 0 471.62209487 0 7409.08592937 0 -321.47834354 0 1200.52224887 0 6028
0.07550000 0.07549160 26770.26751408 0 753.98178678 0 8173.50231424 0 -236.33898841 0 1213.17730459 0 6183
0.07650000 0.07648840 26442.30082032 0 143.11304158 0 8809.88192153 0 -72.88868446 0 125.57120449 0 6330
0.07750000 0.07749960 25521.06600180 0 740.11113588 0 8233.17295382 0 -2.03333805 0 1179.65970741 0 6583
0.07850000 0.07848650 25286.37627437 0 152.17011301 0 8588.43508327 0 642.44205555 0 252.41789663 0 6549
0.07950000 0.07947320 25014.86377308 0 -424.11960746 0 7675.98449273 0 1633.60021611 0 169.57885574 0 6828
0.08050000 0.08048110 25321.64628067 0 309.75716661 0 6643.28314488 0 232.90959031 0 -163.81808804 0 7147
0.08150000 0.08149960 24464.62949248 0 503.02570991 0 6545.50315258 0 -154.71110623 0 1258.22974659 0 7386
0.08250000 0.08250610 23778.63896123 0 668.43649384 0 7314.46692820 0 -1014.26999676 0 571.80444043 0 7227
0.08350000 0.08350160 23665.06510448 0 404.44826055 0 7235.66397388 0 303.37529189 0 -59.78510073 0 7798
0.08450000 0.08449610 22496.94024190 0 316.41299390 0 7780.81848628 0 944.46533053 0 304.49993926 0 7371
0.08550000 0.08548940 21906.77765228 0 705.08513591 0 6829.64852720 0 100.80933092 0 139.61709630 0 8256
0.08650000 0.08650700 21947.48234508 0 195.07862664 0 7545.39673986 0 729.54344342 0 1590.33345681 0 8037
0.08750000 0.08749060 21076.60156071 0 91.96254858 0 6696.56525502 0 1389.26114734 0 578.23067994 0 8155
0.08850000 0.08849210 20688.52057949 0 315.92276299 0 5988.48105945 0 548.78022468 0 2774.79565251 0 8718
0.08950000 0.08949900 20216.92288525 0 640.03859317 0 5357.70250661 0 -418.60506434 0 1051.16929989 0 8571
0.09050000 0.09049190 19445.41922553 0 578.45583124 0 7291.34178256 0 -534.17090006 0 2153.07860757 0 8932
0.09150000 0.09150830 18761.20328580 0 553.98865077 0 6571.65619499 0 -732.45044614 0 521.18976315 0 9285
0.09250000 0.09250820 18472.27760530 0 140.95469466 0 7169.89317598 0 -37.00078758 0 697.09503763 0 9204
0.09350000 0.09350330 18142.97996790 0 149.60139180 0 6576.81360157 0 -245.30400290 0 -1229.15971939 0 9349
0.09450000 0.09448040 18002.23267863 0 -93.75577331 0 6681.86941906 0 -64.98620663 0 -1640.15511351 0 9564
0.09550000 0.09549270 18223.83479366 0 60.98716466 0 6637.06098339 0 573.58901402 0 -1051.23695619 0 10155
0.09650000 0.09649430 17920.82329303 0 157.20884378 0 5781.99624587 0 243.04694432 0 -2091.96611239 0 9913
0.09750000 0.09749140 17709.86872707 0 321.71902252 0 6499.17522293 0 -303.98863508 0 -1758.77546487 0 10476
0.09850000 0.09850240 17346.96476293 0 387.75157267 0 5911.78543255 0 513.71207817 0 -1649.03916226 0 10575
0.09950000 0.09950330 16450.01966573 0 402.76239862 0 5999.96044829 0 169.07975188 0 -1080.35467554 0 10882
0.10050000 0.10051200 16324.02366839 0 153.11286475 0 6001.11393277 0 725.69812544 0 171.65069133 0 10875
0.10150000 0.10150300 16057.83494164 0 68.16793830 0 5648.83533531 0 391.86973410 0 -194.99877003 0 11118
0.10250000 0.10250800 16315.15071084 0 9.50642018 0 5020.82958170 0 636.71788881 0 70.02981753 0 11575
0.10350000 0.10349800 16064.15692390 0 -225.07365967 0 4803.29793596 0 250.45475477 0 491.79476388 0 11364
0.10450000 0.10450100 16427.83727183 0 -21.32881538 0 4387.83278947 0 123.82101361 0 -87.99090187 0 12093
0.10550000 0.10551000 16430.61007107 0 -153.46001921 0 4434.65982299 0 495.18201543 0 99.48836936 0 12067
0.10650000 0.10649700 16648.66300307 0 164.21071642 0 3988.86025285 0 -72.81670259 0 -145.46548445 0 12054
0.10750000 0.10749900 16152.44285161 0 548.54620043 0 4640.87844785 0 -875.99715353 0 -847.36744684 0 12807
0.10850000 0.10850100 15772.01479628 0 342.40077747 0 5369.28171623 0 -418.83243388 0 157.91535303 0 12736
0.10950000 0.10950300 15367.62975555 0 159.79309267 0 5543.51332909 0 -200.14952189 0 -1273.76851352 0 12933
0.11050000 0.11050200 15105.87750757 0 256.44843760 0 5492.19436081 0 -102.12729785 0 -1435.97726889 0 13428
0.11150000 0.11150900 14953.92810938 0 403.71180508 0 6449.88594369 0 -921.80823340 0 -1634.15477596 0 13453
0.11250000 0.11250000 14619.08487351 0 236.45322774 0 7194.70418355 0 -482.42270246 0 -2457.74269654 0 13668
0.11350000 0.11349100 14455.71154247 0 44.74699044 0 7120.82572068 0 199.22229782 0 -1768.72426853 0 13791
0.11450000 0.11448600 14262.28106769 0 -92.52853236 0 6308.56191218 0 429.09622753 0 -2975.23576375 0 14205
0.11550000 0.11549300 14693.72862897 0 -95.81152666 0 6577.71198852 0 803.80011611 0 -1687.04869420 0 14776
0.11650000 0.11649800 14626.95962335 0 -141.67118598 0 5762.81956634 0 791.28591860 0 -1691.42971700 0 14553
0.11750000 0.11747300 14769.48150413 0 27.64491931 0 5182.56141560 0 694.28452833 0 -1094.18207077 0 14568
0.11850000 0.11849100 14713.13822363 0 -6.16616203 0 4976.29842596 0 870.82865575 0 -444.99878572 0 16015
0.11950000 0.11950300 14585.81128267 0 25.99510376 0 3576.85555982 0 464.81875466 0 -287.95963725 0 15270
0.12050000 0.12050700 14263.05745148 0 190.89613627 0 3901.01797302 0 885.59880272 0 1146.36393417 0 15999
0.12150000 0.12150000 13848.02486167 0 237.83740912 0 3211.26752601 0 235.10231995 0 895.84928694 0 15670
0.12250000 0.12250700 13677.55316458 0 454.62261731 0 3718.30159450 0 -162.50045385 0 1452.14823404 0 16887
0.12350000 0.12352200 12839.16958726 0 365.93186091 0 3441.84241937 0 -395.56199356 0 1062.16067606 0 16407
0.12450000 0.12449800 12881.53795960 0 88.45872856 0 4064.84604314 0 238.14685351 0 1592.77352014 0 16306
0.12550000 0.12549900 12657.71760519 0 -182.51008226 0 3200.90834806 0 323.21078851 0 1189.97452057 0 17523
0.12650000 0.12650100 12906.93680062 0 -36.00413262 0 3354.82088811 0 433.83993247 0 1495.34844615 0 17154
0.12750000 0.12750600 13022.28524888 0 49.69421884 0 2958.41041798 0 315.98154634 0 1591.79749481 0 18007
0.12850000 0.12850300 12892.29642064 0 170.47502445 0 2893.33836549 0 -231.01965035 0 1779.07235528 0 17496
0.12950000 0.12949900 12859.79921359 0 62.19710333 0 3408.28045740 0 192.09065819 0 2170.80234030 0 18405
0.13050000 0.13049000 12584.18296942 0 185.41819410 0 3729.91407770 0 -378.73442955 0 1681.95783480 0 18100
0.13150000 0.13148800 12579.85740261 0 214.54145905 0 3069.36675225 0 107.96725669 0 2049.55337526 0 19059
0.13250000 0.13249300 12167.59761205 0 -0.14950379 0 4012.12958405 0 184.93794527 0 2022.55740189 0 18957
0.13350000 0.13349100 12305.12845421 0 282.32752744 0 4034.61144026 0 -383.64228420 0 1787.36857060 0 19468
0.13450000 0.13450700 12093.73024037 0 174.12291913 0 3864.64993823 0 240.97732697 0 1523.59772478 0 19953
0.13550000 0.13551000 11626.90176082 0 254.83910492 0 4097.97544843 0 -338.15284904 0 1958.93829619 0 19956
0.13650000 0.13649900 11447.33528223 0 73.63467836 0 3782.88563433 0 135.94480099 0 1479.70985845 0 19723
0.13750000 0.13749600 11686.23966449 0 -185.47919568 0 3866.12506742 0 693.23751933 0 1217.21450028 0 20946
0.13850000 0.13851100 11594.51546573 0 17.62934664 0 3452.82270435 0 11.64642227 0 1062.68196232 0 20955
0.13950000 0.13949800 11549.59611809 0 173.88778575 0 3136.03593711 0 -107.79157213 0 798.57505323 0 20506
0.14050000 0.14048300 11353.28193211 0 191.14568821 0 3532.36876886 0 -455.22486930 0 432.75964988 0 21447
0.14150000 0.14148400 11222.07307221 0 155.51189065 0 3678.70602139 0 -405.26235441 0 150.83140554 0 21771
0.14250000 0.14249400 10930.29695409 0 139.57051328 0 3708.66334435 0 193.93512424 0 -248.27533457 0 22470
0.14350000 0.14350900 10879.04453300 0 11.75977430 0 3605.39320956 0 192.71176521 0 -163.49089773 0 22519
0.14450000 0.14449900 10815.07050900 0 -49.33475315 0 2922.84094937 0 464.83539146 0 -470.61057771 0 22218
0.14550000 0.14550500 11069.43601981 0 -13.70650119 0 3292.02253099 0 201.02794469 0 18.02596784 0 23559
0.14650000 0.14650700 10802.52636525 0 65.70047971 0 2377.97480809 0 133.04112563 0 -1023.81951733 0 23044
0.14750000 0.14750500 10845.12765273 0 196.71235995 0 2912.12685312 0 -155.37435981 0 -302.68541944 0 23649
0.14850000 0.14849900 10378.05516685 0 239.43454148 0 2317.56105832 0 -76.01052366 0 -721.03982272 0 23640
0.14950000 0.14949500 10215.24748684 0 185.36606548 0 3011.52616017 0 136.35850264 0 -282.09017582 0 24457
0.15050000 0.15050000 10038.12107158 0 50.40183720 0 2471.82851667 0 361.79928093 0 -295.34748353 0 24591
0.15150000 0.15149900 9861.43830419 0 165.33314555 0 2635.56785722 0 396.09215277 0 332.06045455 0 25020
0.15250000 0.15250500 9723.23089902 0 191.86883425 0 2717.07706359 0 224.38711458 0 645.57420957 0 25297
0.15350000 0.15350100 9371.86177970 0 57.58449635 0 2231.95920027 0 148.69856837 0 571.26097178 0 25452
0.15450000 0.15450400 9466.18131855 0 107.10524887 0 2625.75214792 0 -37.48979845 0 1342.22338108 0 26061
0.15550000 0.15549900 9327.58572149 0 59.14868785 0 2246.18920595 0 -69.85091652 0 1041.12622105 0 26128
0.15650000 0.15649500 9226.76674123 0 85.95954915 0 2876.08046304 0 -25.26264111 0 902.19566984 0 26331
0.15750000 0.15749700 9199.99259179 0 118.61369664 0 2181.94899323 0 101.15981274 0 651.20853762 0 27345
0.15850000 0.15849900 9148.24106683 0 -13.68476244 0 2394.19013803 0 212.94432669 0 921.50322549 0 26980
0.15950000 0.15949700 9042.85251343 0 84.00284018 0 2368.70256744 0 125.32387080 0 706.56248335 0 27777
0.16050000 0.16050000 8985.45556922 0 33.33747614 0 2023.75525116 0 206.34728274 0 817.45337956 0 28224
0.16150000 0.16150500 8955.88643816 0 86.43835612 0 1820.87507658 0 66.05262522 0 677.07099066 0 28075
0.16250000 0.16249700 8682.95426366 0 169.05535124 0 1730.27108871 0 -107.09604317 0 765.32142654 0 28590
0.16350000 0.16349900 8622.18559558 0 102.42387646 0 1984.35931960 0 164.03769374 0 1040.54615145 0 29163
0.16450000 0.16449100 8433.93470978 0 -0.95116885 0 1847.91541474 0 245.57019163 0 745.10882922 0 28996
0.16550000 0.16550500 8481.05011441 0 84.85098401 0 1658.22267333 0 116.20801603 0 842.00596224 0 30777
0.16650000 0.16650700 8407.42674907 0 145.59857882 0 1766.96076822 0 -116.57291640 0 691.89548450 0 29211
0.16750000 0.16749900 8283.36062001 0 55.36747699 0 1545.80230107 0 -215.16589344 0 905.29344115 0 30922
0.16850000 0.16850800 8132.74216545 0 132.28359688 0 2220.26907869 0 -142.10928826 0 708.40362204 0 30867
0.16950000 0.16949900 8176.54130220 0 9.71741911 0 1537.09571146 0 187.87711247 0 576.77107842 0 30852
0.17050000 0.17049200 8136.03625094 0 -53.42696117 0 2293.61516410 0 7.32798710 0 519.87434719 0 31257
0.17150000 0.17149500 8165.69411158 0 46.32715327 0 1434.72396363 0 39.28867969 0 395.78936310 0 32608
0.17250000 0.17250900 8158.20755364 0 35.08744519 0 1956.79769518 0 210.16930921 0 608.67712468 0 32361
0.17350000 0.17350400 8076.52088812 0 124.22806054 0 1681.32563658 0 18.58185863 0 633.05668469 0 32508
0.17450000 0.17449800 7941.43010929 0 90.87261666 0 1601.87939284 0 104.53763677 0 943.72111121 0 32791
0.17550000 0.17549800 7878.77593773 0 47.50071282 0 1799.67979921 0 36.02343130 0 624.01070446 0 33633
0.17650000 0.17650100 7823.50850334 0 86.61315338 0 1644.56940989 0 50.51884933 0 1055.99175232 0 33984
0.17750000 0.17750300 7738.40574915 0 80.49380729 0 1797.39501264 0 130.97150828 0 1005.73864807 0 34069
0.17850000 0.17849800 7581.62058909 0 17.57000873 0 1443.31964127 0 1.42387677 0 1036.60877653 0 34536
