### header ###
fiducial parameters:
Omega_m = 0.31
Omega_nu = 0
Omega_de = 0.69
Omega_k = 0
H_0 = 100
w_de = -1
zeff = 0
beta = 0
fgrowth = 0
b_1 = 2
gamma = 0.55
Lx = 3500 Ly = 3500 Lz = 3500
nx = 700 ny = 700 nz = 700
xoffset = 1379.75464 yoffset = 22.6059522 zoffset = 368.141391
bins = 400 dk = 0.001
kx_ny = 0.628318531 ky_ny = 0.628318531 kz_ny = 0.628318531
############################
A(data) = 3.33969642 (not used)
A(ran) = 3.34309901 (used)
Ngal = 188110
weighted Ngal = 0
Nran = 9399747
weighted Nran = 0
SN(data) = 6638.10816
SN(ran) = 132.973043
SN(data+ran) = 6771.0812
############################
13 columns: k_central k_mean P_0(k) sigma^{lin}_{P_0(k)} P^img_1(k) sigma^{lin}_{P_1(k)} P_2(k) sigma^{lin}_{P_2(k)} P^img_3(k) sigma^{lin}_{P_3(k)} P_4(k) sigma^{lin}_{P_4(k)} N_modes
### header ###
0.00050000 0 0 0 0 0 0 0 0 0 0 0 0
0.00150000 0.00179520 18704.52726939 0 -27314.84528424 0 -38277.38434786 0 37183.34868089 0 11428.81298333 0 3
0.00250000 0.00253879 24947.87294352 0 -17979.05207701 0 3240.78120109 0 -56756.64940723 0 -9825.12572539 0 6
0.00350000 0.00331552 23086.99191954 0 9384.67211218 0 -13867.98901618 0 -17840.74485106 0 -2637.86373498 0 7
0.00450000 0.00420575 25704.07075144 0 8499.65005169 0 8693.83472786 0 -30092.19191204 0 4552.17105466 0 24
0.00550000 0.00557378 23848.40259004 0 -8187.88759668 0 11936.01341977 0 10255.83017648 0 7522.73742450 0 45
0.00650000 0.00659388 37194.99443768 0 -4544.54031116 0 15656.77725999 0 14796.10037681 0 -15607.31052160 0 40
0.00750000 0.00754703 56269.74586120 0 -19299.90272157 0 -15666.42660133 0 8797.48196335 0 -13195.86248112 0 57
0.00850000 0.00846663 63103.58686085 0 -4396.45064950 0 3054.49345715 0 -8231.49818308 0 -7527.69518953 0 75
0.00950000 0.00948925 64570.73039316 0 6076.94444631 0 -5850.38456625 0 -22543.96691696 0 -13574.84868084 0 112
0.01050000 0.01054430 70321.07236294 0 1800.70018933 0 6899.90016867 0 -12132.66034166 0 -12130.66392621 0 105
0.01150000 0.01145670 61949.88055430 0 -581.97839539 0 22726.08437085 0 829.27992286 0 -29570.57291956 0 144
0.01250000 0.01249090 63345.26404235 0 2302.87631356 0 18179.24818192 0 -7703.64593792 0 -18278.29257067 0 169
0.01350000 0.01339930 68096.28916709 0 -3065.22973579 0 14828.37575993 0 8746.62882534 0 -14078.83267017 0 180
0.01450000 0.01448870 74761.87670904 0 -10414.93339670 0 -3295.44971085 0 9749.41721502 0 -28388.25132488 0 267
0.01550000 0.01550050 84729.64631837 0 -4133.87765295 0 2213.37035418 0 4499.94260823 0 -27888.81472631 0 238
0.01650000 0.01653350 81417.48217373 0 4998.22572232 0 -2541.54778069 0 -15392.47403671 0 -18363.25113929 0 315
0.01750000 0.01747870 79919.17237799 0 10122.93545464 0 11010.50849042 0 -20328.61123852 0 -13458.83476076 0 297
0.01850000 0.01844180 68673.58596825 0 3565.58690372 0 23054.93836036 0 5432.98955150 0 1064.84363660 0 388
0.01950000 0.01947590 65325.59725746 0 2526.25302009 0 25042.48085348 0 5644.18812378 0 -1552.15755692 0 399
0.02050000 0.02045430 68426.03045236 0 206.57465228 0 27176.09441041 0 18865.34962514 0 22191.71050188 0 462
0.02150000 0.02154770 70659.24295789 0 -6135.35068944 0 16198.36040697 0 19658.70294285 0 29790.40044308 0 571
0.02250000 0.02255340 75357.03033728 0 -3958.61455877 0 20662.45626666 0 4530.42121744 0 39996.74169877 0 510
0.02350000 0.02348930 77382.39381199 0 -151.36156475 0 6118.95790035 0 4682.29297725 0 31172.91814267 0 555
0.02450000 0.02439640 79464.76603902 0 3452.76724836 0 17295.16887318 0 -4988.66511055 0 26201.95458245 0 592
0.02550000 0.02547300 75082.07956493 0 5007.84179008 0 23178.93794224 0 -8336.14362628 0 33478.33434033 0 837
0.02650000 0.02652900 66394.01225948 0 4475.17596544 0 28408.43730333 0 -2593.21057607 0 18501.55836524 0 723
0.02750000 0.02749970 66022.34624975 0 771.43045782 0 27211.80806459 0 7732.84905948 0 23794.38846090 0 826
0.02850000 0.02848090 63311.10315575 0 -895.65519100 0 21572.37806429 0 8731.20097038 0 11799.25896140 0 831
0.02950000 0.02946900 62493.90376461 0 969.12771606 0 18597.49721884 0 5145.18408189 0 14522.70237203 0 996
0.03050000 0.03053250 60227.41766824 0 3235.15796424 0 20904.57709604 0 -1558.64590713 0 15580.35891302 0 1041
0.03150000 0.03150510 54836.54139155 0 3635.19525576 0 11442.67697951 0 -2751.68159807 0 5993.79374279 0 1036
0.03250000 0.03246190 52517.03937377 0 766.45051039 0 18730.03702237 0 654.08337587 0 10532.45571956 0 1059
0.03350000 0.03345080 51441.41509373 0 928.73468590 0 21719.78007173 0 486.31238523 0 -3332.12829915 0 1302
0.03450000 0.03451200 49041.28007414 0 1795.84224507 0 18163.38777029 0 -3252.31604592 0 12.47316009 0 1339
0.03550000 0.03553350 48083.66612963 0 1047.94952541 0 21003.06692494 0 -649.98517859 0 -1249.94462247 0 1365
0.03650000 0.03647120 47432.05830892 0 1347.03696056 0 24943.10372883 0 -2681.82923969 0 -1178.11803104 0 1308
0.03750000 0.03744890 48223.08247527 0 -313.78881670 0 19767.39667294 0 6295.29684063 0 -503.63350750 0 1579
0.03850000 0.03847530 49416.71709084 0 -716.77969398 0 22541.74867757 0 2630.33281226 0 -1146.96285881 0 1662
0.03950000 0.03950240 47691.92505342 0 2521.38398463 0 21075.27061707 0 -1114.38801337 0 2691.06820674 0 1683
0.04050000 0.04050350 45419.89335857 0 1706.70229520 0 22589.55173641 0 -79.78696531 0 4905.49222464 0 1822
0.04150000 0.04152450 44242.00824267 0 -622.95038603 0 24650.29612939 0 6371.82609957 0 8132.80871263 0 1887
0.04250000 0.04250150 42738.15284846 0 123.47164091 0 17558.14115282 0 2361.47110703 0 3952.31475891 0 1920
0.04350000 0.04349210 44479.13803343 0 1192.18166877 0 20205.60986436 0 1066.95761874 0 6508.46964597 0 2005
0.04450000 0.04448520 41348.20404691 0 1145.90919510 0 15593.11378951 0 -44.84525844 0 3003.35194802 0 2151
0.04550000 0.04548030 40786.10218558 0 801.39665373 0 20081.05572263 0 909.52140542 0 8888.95106458 0 2274
0.04650000 0.04648670 39064.08294740 0 512.68836069 0 13138.74281683 0 373.01248104 0 -4551.81613635 0 2311
0.04750000 0.04749250 39667.44406138 0 986.61964277 0 21696.82129405 0 -3166.21508401 0 3164.14103018 0 2568
0.04850000 0.04851840 38031.15977561 0 -488.09695882 0 13832.05353807 0 1355.45517904 0 -4274.14802075 0 2493
0.04950000 0.04949480 39598.45681636 0 -446.31420168 0 18625.89068303 0 2359.61887714 0 -1140.45232620 0 2644
0.05050000 0.05050630 40533.11198319 0 -733.11480884 0 12932.89020147 0 1439.73718465 0 -2027.81462924 0 2829
0.05150000 0.05149060 40377.50249000 0 174.91150323 0 15059.84904024 0 4697.78737939 0 -762.35674960 0 2784
0.05250000 0.05249300 40566.60739797 0 181.32221507 0 13653.81800311 0 532.90539449 0 5166.95610150 0 3055
0.05350000 0.05348950 38717.03939489 0 1997.06983130 0 12421.47511019 0 237.60671222 0 1321.67139314 0 3009
0.05450000 0.05448610 38436.76484800 0 808.00035240 0 15774.34394764 0 -246.89337143 0 6121.42014607 0 3336
0.05550000 0.05550870 36157.30205121 0 905.54964780 0 15211.79843843 0 -1322.52541530 0 3145.75182564 0 3349
0.05650000 0.05647670 35322.68948085 0 945.65874332 0 17597.51490199 0 1301.86251539 0 2784.20098752 0 3324
0.05750000 0.05747970 34570.15176791 0 478.25573977 0 14628.17965501 0 -1958.90502260 0 1566.29883303 0 3639
0.05850000 0.05849280 34372.61755027 0 741.38551441 0 16220.87553678 0 1452.48096995 0 -615.91302157 0 3846
0.05950000 0.05951020 32571.73990178 0 701.41505884 0 15915.75670873 0 -568.45046247 0 -889.38866472 0 3787
0.06050000 0.06049470 31365.46132170 0 531.94600595 0 14134.17774294 0 1159.36281700 0 -5199.37567018 0 3930
0.06150000 0.06148310 31471.82590043 0 -12.51242293 0 11658.40076015 0 2303.73033572 0 -1550.26096224 0 4083
0.06250000 0.06249100 30486.15122764 0 14.45959346 0 10468.40405719 0 1146.76321726 0 -4343.53454886 0 4303
0.06350000 0.06350600 30226.06265920 0 446.15337932 0 8488.04865969 0 1826.85323174 0 -3938.71695145 0 4470
0.06450000 0.06451750 29989.04378042 0 406.39254738 0 7269.42557739 0 275.48314980 0 -3959.31330418 0 4479
0.06550000 0.06550280 28682.38986795 0 502.69519224 0 6301.92937640 0 445.73635031 0 -3931.60749421 0 4636
0.06650000 0.06648880 27785.77750666 0 797.68332099 0 6889.74063227 0 174.70520697 0 -2431.25691823 0 4653
0.06750000 0.06749660 26885.72687431 0 699.16132762 0 6491.45574986 0 651.39376061 0 -1383.00571226 0 5220
0.06850000 0.06852730 26291.57145379 0 112.99489627 0 6619.50361862 0 1197.48326091 0 287.38400413 0 5029
0.06950000 0.06949320 26921.21870454 0 -376.87443582 0 7001.80608623 0 1096.08421105 0 65.57082362 0 5040
0.07050000 0.07048030 26860.32803330 0 -320.64761289 0 5095.69516110 0 1831.28971051 0 3914.87087801 0 5475
0.07150000 0.07148790 27311.85066106 0 27.79520502 0 5180.91991845 0 109.24141340 0 2174.54007367 0 5509
0.07250000 0.07249820 26875.52297312 0 575.04972465 0 6478.41250224 0 -914.01444931 0 3659.86207778 0 5916
0.07350000 0.07351270 26333.49617826 0 996.11481648 0 6697.68546591 0 -1270.49661042 0 2113.64940242 0 5721
0.07450000 0.07449140 25759.52673619 0 544.57666104 0 10061.29058200 0 -1960.33578701 0 1867.95720763 0 6028
0.07550000 0.07549160 24817.32955543 0 493.13236223 0 9432.79681574 0 -349.72651305 0 1413.69505422 0 6183
0.07650000 0.07648840 24615.13703507 0 31.31377634 0 9810.61843978 0 -285.43195346 0 -1146.98504120 0 6330
0.07750000 0.07749960 24481.04446396 0 509.93885297 0 10499.04903435 0 311.18793102 0 -943.30519133 0 6583
0.07850000 0.07848650 23886.77813148 0 424.34475876 0 8718.17990517 0 366.43207390 0 -2045.00598451 0 6549
0.07950000 0.07947320 23267.88934177 0 122.35586649 0 8595.10089263 0 321.75340523 0 -1962.47638802 0 6828
0.08050000 0.08048110 23010.01901272 0 9.82082234 0 7866.04324363 0 1651.92287347 0 -2808.63489440 0 7147
0.08150000 0.08149960 22780.43123589 0 140.14060080 0 6818.76806299 0 1095.08489420 0 -2740.12457085 0 7386
0.08250000 0.08250610 22235.63164180 0 62.28339285 0 5348.23062442 0 710.72944604 0 -2776.00459297 0 7227
0.08350000 0.08350160 22493.83470675 0 -40.72898252 0 4768.46048634 0 555.42828813 0 -2608.68279581 0 7798
0.08450000 0.08449610 22271.12347203 0 -33.24297914 0 4356.08978381 0 256.09241018 0 -2114.21505347 0 7371
0.08550000 0.08548940 22128.04703140 0 447.98564506 0 4225.40221017 0 255.69423620 0 -2521.78326772 0 8256
0.08650000 0.08650700 21714.34538523 0 425.11005135 0 4082.70287023 0 -703.15970412 0 -1597.35418448 0 8037
0.08750000 0.08749060 21028.90941383 0 449.16685753 0 4652.15819514 0 519.51831977 0 -1990.84766981 0 8155
0.08850000 0.08849210 20308.64708401 0 618.25326413 0 5858.20386010 0 129.66385616 0 728.56076337 0 8718
0.08950000 0.08949900 19754.75270842 0 139.30210631 0 5248.01056879 0 424.15288105 0 380.74859092 0 8571
0.09050000 0.09049190 20004.74828763 0 113.37754256 0 6241.30489389 0 -26.54622534 0 -281.59107196 0 8932
0.09150000 0.09150830 19590.04843374 0 442.22820472 0 6160.69407447 0 -1185.74877454 0 105.83264493 0 9285
0.09250000 0.09250820 18820.87392538 0 549.46898801 0 7299.50490352 0 -869.99016126 0 -464.28415897 0 9204
0.09350000 0.09350330 18679.68298823 0 -15.93549904 0 7051.56119574 0 -599.54130575 0 -396.67776797 0 9349
0.09450000 0.09448040 19130.65105614 0 -168.21574763 0 7569.86392033 0 897.15250259 0 -3180.20108336 0 9564
0.09550000 0.09549270 19106.80498270 0 -9.39465419 0 6714.33335253 0 82.52604731 0 -2041.04642720 0 10155
0.09650000 0.09649430 18813.22099948 0 315.31274716 0 6688.89014673 0 18.14331270 0 -2837.26127372 0 9913
0.09750000 0.09749140 18545.59041712 0 335.82591592 0 6985.30238517 0 -725.77021822 0 -1882.28703408 0 10476
0.09850000 0.09850240 18297.92398927 0 365.32960892 0 7448.74804965 0 250.44477269 0 -2580.91043865 0 10575
0.09950000 0.09950330 18039.49910038 0 -87.00422899 0 7499.51245809 0 300.81877099 0 -1301.04176681 0 10882
0.10050000 0.10051200 17898.64089913 0 -60.70511552 0 7056.54114317 0 847.68576420 0 -1842.13690113 0 10875
0.10150000 0.10150300 18429.46558508 0 -62.96527963 0 6062.94735576 0 802.72427001 0 -1265.71630453 0 11118
0.10250000 0.10250800 17995.02340061 0 105.29272546 0 5659.16123966 0 592.58379791 0 -92.20522397 0 11575
0.10350000 0.10349800 18185.01560434 0 486.48318966 0 6014.47882510 0 -494.03629478 0 -1844.57696446 0 11364
0.10450000 0.10450100 17039.84951943 0 802.82630902 0 6547.25556170 0 -735.92642727 0 -682.69090016 0 12093
0.10550000 0.10551000 16075.69176872 0 689.55302371 0 6743.48101811 0 -649.04575421 0 -1293.55520887 0 12067
0.10650000 0.10649700 15549.74720944 0 191.84887009 0 7051.42810138 0 282.87543257 0 -361.82257244 0 12054
0.10750000 0.10749900 15254.05589880 0 -113.65814985 0 6683.40000424 0 1317.91147737 0 -2243.42749791 0 12807
0.10850000 0.10850100 15468.11599990 0 -120.75318853 0 5824.06515589 0 761.09900786 0 -1896.92741405 0 12736
0.10950000 0.10950300 15140.81477796 0 237.30281343 0 4878.31879212 0 18.02020042 0 -1857.98622157 0 12933
0.11050000 0.11050200 15106.65389136 0 249.79482855 0 5116.95698565 0 -82.65769982 0 -1971.84844944 0 13428
0.11150000 0.11150900 14583.70395525 0 75.47692618 0 4507.61771651 0 388.04438027 0 -1424.94152792 0 13453
0.11250000 0.11250000 14500.85271405 0 140.20492974 0 5527.03181042 0 332.96882358 0 -1880.60117215 0 13668
0.11350000 0.11349100 14379.51501943 0 69.72236955 0 4049.22963784 0 330.25369857 0 -562.64089351 0 13791
0.11450000 0.11448600 14334.70658376 0 94.37798946 0 4988.44328661 0 565.64549876 0 -135.07857851 0 14205
0.11550000 0.11549300 14237.21496259 0 127.62751240 0 4514.31679947 0 182.55001057 0 214.17212219 0 14776
0.11650000 0.11649800 13925.10868046 0 257.24034906 0 5150.77404515 0 -229.43804567 0 1027.90440517 0 14553
0.11750000 0.11747300 13869.09813587 0 214.78990186 0 5141.50180450 0 -207.03382783 0 1140.55214697 0 14568
0.11850000 0.11849100 13829.83529868 0 100.46661293 0 5740.02715661 0 176.51972679 0 1478.81147150 0 16015
0.11950000 0.11950300 13769.83192319 0 28.01658532 0 5629.70302057 0 -184.22810867 0 332.03272656 0 15270
0.12050000 0.12050700 13512.40524202 0 167.64676923 0 5927.33529068 0 -209.88537457 0 1183.09797847 0 15999
0.12150000 0.12150000 13448.74177154 0 226.90148893 0 5819.37357958 0 64.35223381 0 -107.06942430 0 15670
0.12250000 0.12250700 13438.64878231 0 -252.89038162 0 5277.31351113 0 692.87372807 0 1053.17458830 0 16887
0.12350000 0.12352200 13592.15094808 0 -276.59892421 0 4636.41978667 0 1029.18211106 0 -543.91673482 0 16407
0.12450000 0.12449800 13986.66482353 0 20.65502516 0 3910.37894325 0 234.43573901 0 281.65651002 0 16306
0.12550000 0.12549900 13435.76507111 0 428.78123754 0 3804.90166027 0 -361.30017707 0 -375.60116641 0 17523
0.12650000 0.12650100 12885.30896657 0 389.86555481 0 4002.75752263 0 -432.96372791 0 518.36483529 0 17154
0.12750000 0.12750600 12692.54396361 0 204.64478401 0 4489.17305599 0 214.53813169 0 -283.35124492 0 18007
0.12850000 0.12850300 12345.83314701 0 145.96126096 0 3852.42743919 0 527.17790039 0 -560.66666045 0 17496
0.12950000 0.12949900 12292.26266575 0 50.71749267 0 4015.05766004 0 516.52147836 0 142.75257768 0 18405
0.13050000 0.13049000 11925.92043055 0 19.13819307 0 3141.32643805 0 760.61986815 0 308.83326990 0 18100
0.13150000 0.13148800 12151.18264056 0 51.64072390 0 3472.88667962 0 478.06608030 0 1777.39758454 0 19059
0.13250000 0.13249300 11959.41584533 0 156.85281636 0 2777.69045491 0 -23.01467732 0 1118.73576258 0 18957
0.13350000 0.13349100 11739.03376197 0 92.49991708 0 2950.70203611 0 56.25077991 0 1432.81627776 0 19468
0.13450000 0.13450700 11959.08310942 0 -106.59261374 0 3008.73117854 0 446.57262656 0 2052.20417133 0 19953
0.13550000 0.13551000 11910.61457876 0 -144.66580915 0 2640.33707190 0 232.67334782 0 1934.53766291 0 19956
0.13650000 0.13649900 11967.62333107 0 127.49109068 0 2828.52141052 0 -54.35396341 0 2249.56092983 0 19723
0.13750000 0.13749600 11826.98695377 0 174.17061128 0 2464.35304993 0 -285.38315220 0 1243.30099550 0 20946
0.13850000 0.13851100 11978.60361605 0 154.14878255 0 3420.18131173 0 -178.46290450 0 2369.95587270 0 20955
0.13950000 0.13949800 11510.66601680 0 117.24060646 0 2956.68019126 0 102.67298474 0 1716.19635978 0 20506
0.14050000 0.14048300 11606.38304647 0 49.05603137 0 3627.88615698 0 -31.08174850 0 2524.04587190 0 21447
0.14150000 0.14148400 11312.13359143 0 125.60336896 0 3299.54236252 0 264.15903772 0 2052.67000160 0 21771
0.14250000 0.14249400 11359.16026649 0 128.09667003 0 3225.61953486 0 128.82979815 0 2082.10603830 0 22470
0.14350000 0.14350900 11227.06411084 0 212.46185962 0 3515.43251112 0 -472.22323775 0 1712.78027112 0 22519
0.14450000 0.14449900 10920.37033283 0 135.33922164 0 3450.21627306 0 -304.99460664 0 1526.84744548 0 22218
0.14550000 0.14550500 10660.05994045 0 251.33983228 0 3753.68251276 0 -23.23261934 0 1320.15189916 0 23559
0.14650000 0.14650700 10482.72279245 0 14.85954202 0 3047.25090554 0 485.17442842 0 885.18288284 0 23044
0.14750000 0.14750500 10537.08074869 0 -109.14968920 0 3119.84278957 0 765.30257150 0 1398.40029363 0 23649
0.14850000 0.14849900 10444.85744606 0 140.35133354 0 2318.62581322 0 261.50935076 0 576.75665986 0 23640
0.14950000 0.14949500 10196.29263126 0 183.15891728 0 2515.45019427 0 -37.79868829 0 1099.56462865 0 24457
0.15050000 0.15050000 9880.18242704 0 311.80238333 0 2337.13702093 0 -562.96364734 0 551.99334444 0 24591
0.15150000 0.15149900 9531.63047174 0 222.91642186 0 2318.70345160 0 -127.13839062 0 617.98152980 0 25020
0.15250000 0.15250500 9417.32459599 0 44.96892529 0 2519.68703150 0 119.41448106 0 13.66380008 0 25297
0.15350000 0.15350100 9358.28615464 0 -34.92795378 0 2392.12717540 0 197.43994247 0 -303.33980006 0 25452
0.15450000 0.15450400 9583.19344635 0 -120.75429765 0 2221.44474556 0 156.29825651 0 -218.52874435 0 26061
0.15550000 0.15549900 9506.40908988 0 82.07530106 0 1599.09550240 0 46.70281211 0 -543.48972374 0 26128
0.15650000 0.15649500 9476.28539897 0 62.27784725 0 2342.08369477 0 -144.03028357 0 25.45695888 0 26331
0.15750000 0.15749700 9344.18924332 0 178.30762774 0 2195.89062779 0 -345.43311071 0 -861.79043936 0 27345
0.15850000 0.15849900 9306.94500397 0 226.28814574 0 2594.23096619 0 -253.61352766 0 -427.50574989 0 26980
0.15950000 0.15949700 8978.56793592 0 121.24120120 0 3198.53483191 0 -315.60666388 0 -521.01119488 0 27777
0.16050000 0.16050000 9027.84612396 0 153.22377672 0 3374.00865883 0 -236.70277967 0 -391.91853536 0 28224
0.16150000 0.16150500 8938.59526212 0 68.67902065 0 3659.85098658 0 14.24009867 0 -892.18031899 0 28075
0.16250000 0.16249700 8876.01872894 0 80.36015837 0 3775.23270843 0 -79.99869626 0 -438.80435222 0 28590
0.16350000 0.16349900 8772.77077654 0 2.13890406 0 3707.85368697 0 240.01904756 0 36.05060474 0 29163
0.16450000 0.16449100 8769.15504634 0 -7.61845445 0 3465.22266253 0 426.56410727 0 -184.27690994 0 28996
0.16550000 0.16550500 8857.54079482 0 52.97976411 0 3387.71737826 0 91.88457747 0 -284.02780793 0 30777
0.16650000 0.16650700 8769.45450866 0 70.89371086 0 3369.58327125 0 192.91917060 0 337.90551534 0 29211
0.16750000 0.16749900 8642.07211171 0 137.26465343 0 3278.39144994 0 117.33044516 0 374.62514108 0 30922
0.16850000 0.16850800 8569.75750760 0 17.67659514 0 3075.24508664 0 47.60851925 0 668.38103785 0 30867
0.16950000 0.16949900 8509.34375783 0 -58.19939231 0 2824.69494758 0 544.19956034 0 492.58778446 0 30852
0.17050000 0.17049200 8517.58451716 0 118.88432185 0 2801.81380827 0 111.45987461 0 707.00834946 0 31257
0.17150000 0.17149500 8317.53259780 0 186.46963957 0 2500.61017275 0 108.35500494 0 708.16072483 0 32608
0.17250000 0.17250900 8213.69681198 0 13.17168367 0 2691.11257153 0 91.93570789 0 1038.24250984 0 32361
0.17350000 0.17350400 8192.94518249 0 0.05036646 0 2337.11483854 0 248.61250695 0 845.50523488 0 32508
0.17450000 0.17449800 8087.21280198 0 19.90648028 0 2263.58020277 0 203.17520042 0 925.48052871 0 32791
0.17550000 0.17549800 8036.35966397 0 98.32845198 0 2268.79306533 0 -123.53818809 0 654.07228467 0 33633
0.17650000 0.17650100 8021.78583118 0 136.23428123 0 2365.24211400 0 -318.38168136 0 495.61679035 0 33984
0.17750000 0.17750300 7895.76765145 0 93.28129190 0 2449.97885868 0 -53.80727831 0 293.86902698 0 34069
0.17850000 0.17849800 7737.80682452 0 93.58774167 0 2494.41019366 0 -245.87963603 0 7.14757769 0 34536
