### header ###
fiducial parameters:
Omega_m = 0.31
Omega_nu = 0
Omega_de = 0.69
Omega_k = 0
H_0 = 100
w_de = -1
zeff = 0
beta = 0
fgrowth = 0
b_1 = 2
gamma = 0.55
Lx = 3500 Ly = 3500 Lz = 3500
nx = 700 ny = 700 nz = 700
xoffset = 1379.75464 yoffset = 22.6059522 zoffset = 368.141391
bins = 400 dk = 0.001
kx_ny = 0.628318531 ky_ny = 0.628318531 kz_ny = 0.628318531
############################
A(data) = 3.33143664 (not used)
A(ran) = 3.33052347 (used)
Ngal = 187192
weighted Ngal = 0
Nran = 9399747
weighted Nran = 0
SN(data) = 6659.06175
SN(ran) = 132.472846
SN(data+ran) = 6791.53459
############################
13 columns: k_central k_mean P_0(k) sigma^{lin}_{P_0(k)} P^img_1(k) sigma^{lin}_{P_1(k)} P_2(k) sigma^{lin}_{P_2(k)} P^img_3(k) sigma^{lin}_{P_3(k)} P_4(k) sigma^{lin}_{P_4(k)} N_modes
### header ###
0.00050000 0 0 0 0 0 0 0 0 0 0 0 0
0.00150000 0.00179520 62481.59253600 0 -48497.92233565 0 -76739.32621294 0 64323.72943713 0 -34513.36483954 0 3
0.00250000 0.00253879 102543.88320873 0 -35820.79513580 0 -25096.05133474 0 -75569.42675884 0 -8886.47772766 0 6
0.00350000 0.00331552 121369.85908470 0 -16763.67871542 0 -70597.79772680 0 -28370.94905764 0 88330.07067171 0 7
0.00450000 0.00420575 121372.07732409 0 -1132.65521475 0 -38194.75493059 0 -62327.75763432 0 -6987.30989182 0 24
0.00550000 0.00557378 114096.25212606 0 14646.25830604 0 -14800.86959149 0 -52393.03979189 0 -30376.45928982 0 45
0.00650000 0.00659388 93543.70962116 0 13305.11077106 0 819.49748715 0 -10544.91113373 0 -19977.24211920 0 40
0.00750000 0.00754703 80167.94792554 0 11567.56385715 0 30616.36187981 0 -27074.05539849 0 10965.71114595 0 57
0.00850000 0.00846663 63803.88503616 0 146.44483715 0 18605.59379261 0 17340.97551658 0 -40565.49827828 0 75
0.00950000 0.00948925 69827.40318677 0 2964.18893159 0 36098.74053132 0 2930.93752314 0 -37491.57304408 0 112
0.01050000 0.01054430 64456.60197657 0 5865.63496205 0 30779.51338692 0 -11591.85357847 0 4433.75034484 0 105
0.01150000 0.01145670 58335.59220478 0 3641.37305246 0 22126.60517580 0 13431.99406414 0 1900.50987067 0 144
0.01250000 0.01249090 60701.34451384 0 -2534.57141780 0 28978.19209056 0 11620.35795462 0 1942.50114231 0 169
0.01350000 0.01339930 69965.04494090 0 -12549.68934691 0 1005.01106555 0 21377.94938179 0 33.63305654 0 180
0.01450000 0.01448870 73492.93286619 0 -1514.01493061 0 6837.82273935 0 4965.45123534 0 9897.58451505 0 267
0.01550000 0.01550050 72939.81487438 0 4039.52484051 0 524.81103896 0 -26833.15460077 0 -24098.50908122 0 238
0.01650000 0.01653350 72591.88402612 0 4119.43691452 0 9984.81677905 0 -3452.17941492 0 -10838.02928668 0 315
0.01750000 0.01747870 66933.59899101 0 2185.74218259 0 24908.49919435 0 -19447.63746492 0 -30206.87488848 0 297
0.01850000 0.01844180 66839.65655286 0 1441.71141771 0 21554.29941327 0 -1445.47133347 0 -8761.76830917 0 388
0.01950000 0.01947590 68099.61652618 0 -1314.99449258 0 30502.67711109 0 1579.78572852 0 -33549.20708883 0 399
0.02050000 0.02045430 67057.82039683 0 1702.21036043 0 21058.41199771 0 -2086.59797307 0 -20980.66270711 0 462
0.02150000 0.02154770 68068.67208669 0 2564.93911505 0 31672.02200534 0 -926.86692833 0 -23450.33953157 0 571
0.02250000 0.02255340 61027.75844002 0 4137.27155922 0 34759.92214770 0 -3851.61778182 0 -15825.14162966 0 510
0.02350000 0.02348930 61221.18891480 0 1004.65503813 0 37677.46150493 0 -1070.93048549 0 -16159.09756977 0 555
0.02450000 0.02439640 61031.52944698 0 -288.74156663 0 36160.96214620 0 7158.56906390 0 -17385.34030437 0 592
0.02550000 0.02547300 59906.99298840 0 2874.23932434 0 39619.53009056 0 -4050.53839908 0 -14922.31819808 0 837
0.02650000 0.02652900 57024.16907762 0 2935.37400192 0 37222.27878217 0 -5290.32348515 0 -21785.77269358 0 723
0.02750000 0.02749970 58665.77713793 0 -39.85810174 0 47268.01950606 0 6077.68755651 0 -9541.92310251 0 826
0.02850000 0.02848090 54731.17502055 0 -649.14113851 0 32777.70342911 0 4813.21346603 0 -18396.52473014 0 831
0.02950000 0.02946900 55344.40729981 0 2045.47181478 0 34458.79615055 0 6412.70825152 0 -7808.70175541 0 996
0.03050000 0.03053250 54204.01042960 0 781.44913602 0 29454.66991146 0 8139.40797482 0 -2073.89855256 0 1041
0.03150000 0.03150510 50844.37596201 0 -209.18662916 0 22515.35162883 0 8472.62080473 0 -5857.08364921 0 1036
0.03250000 0.03246190 51996.75132493 0 -168.35549672 0 16897.43855062 0 6914.70691660 0 1071.41184344 0 1059
0.03350000 0.03345080 49891.19849628 0 1882.76395555 0 14765.04502535 0 -5331.83783533 0 -11674.37208376 0 1302
0.03450000 0.03451200 47214.00537692 0 3390.71200144 0 20841.80092131 0 -5463.55689029 0 -4787.40425073 0 1339
0.03550000 0.03553350 43738.46790122 0 1715.84144148 0 21366.63636090 0 -4758.23440276 0 -11139.66547889 0 1365
0.03650000 0.03647120 42897.97699649 0 -608.67712468 0 19024.73012529 0 1609.17740043 0 -14325.27906635 0 1308
0.03750000 0.03744890 44155.38599451 0 -464.43278101 0 21957.02077446 0 4484.75875960 0 -18748.33749734 0 1579
0.03850000 0.03847530 45434.42282658 0 143.01876641 0 22160.43332649 0 -689.71384606 0 -14649.03110527 0 1662
0.03950000 0.03950240 43859.80559584 0 630.34710528 0 22345.43449158 0 -1098.70395177 0 -12425.68976503 0 1683
0.04050000 0.04050350 43215.85070102 0 2036.29939491 0 25883.41540610 0 799.98807172 0 -12303.24295072 0 1822
0.04150000 0.04152450 41722.08829604 0 1417.28860203 0 23990.59173491 0 -2313.41295066 0 -6883.86229788 0 1887
0.04250000 0.04250150 41701.90231759 0 107.89904583 0 28528.22223037 0 3230.69930306 0 -12254.33077218 0 1920
0.04350000 0.04349210 41372.71559217 0 196.16001835 0 28123.83718964 0 2081.05237459 0 -4996.80604911 0 2005
0.04450000 0.04448520 40535.77387046 0 -136.29417370 0 23493.70611163 0 1283.44003726 0 -8278.49158455 0 2151
0.04550000 0.04548030 40447.70976669 0 1111.81485568 0 24511.76707951 0 2534.83760653 0 -3917.94313957 0 2274
0.04650000 0.04648670 39890.59894398 0 417.90742805 0 21962.56637293 0 2942.15072326 0 -4493.90899709 0 2311
0.04750000 0.04749250 37845.71496263 0 173.11583845 0 19144.95870020 0 3190.32734617 0 -1551.69172665 0 2568
0.04850000 0.04851840 38103.47437971 0 456.62457836 0 17278.08842988 0 3340.51324405 0 1942.43459513 0 2493
0.04950000 0.04949480 36915.38536262 0 -231.80268886 0 14818.83733055 0 2624.29920112 0 240.94072602 0 2644
0.05050000 0.05050630 37715.28248652 0 -320.40027920 0 10587.34605326 0 3669.17868321 0 2567.65645830 0 2829
0.05150000 0.05149060 37006.77682547 0 731.49438497 0 13000.99015074 0 531.46908448 0 3087.73377440 0 2784
0.05250000 0.05249300 36657.29320963 0 474.92172596 0 11390.99200173 0 -85.42473163 0 6721.43171858 0 3055
0.05350000 0.05348950 35153.32690345 0 856.01192575 0 13552.55537497 0 -60.85651036 0 3779.66918721 0 3009
0.05450000 0.05448610 34809.72162200 0 953.07875408 0 12477.04200690 0 -107.55910064 0 8171.88299948 0 3336
0.05550000 0.05550870 33758.60888721 0 895.53651519 0 15995.39150282 0 683.66248901 0 6528.64453322 0 3349
0.05650000 0.05647670 33084.04228882 0 1179.20496834 0 15319.71578473 0 1109.91826100 0 9454.26937303 0 3324
0.05750000 0.05747970 32359.78712810 0 351.42013883 0 16651.10306640 0 1332.67386051 0 11926.14225448 0 3639
0.05850000 0.05849280 31246.12004253 0 515.81607823 0 15078.48225111 0 1449.91890345 0 9688.90364447 0 3846
0.05950000 0.05951020 31342.94619189 0 654.07672115 0 16208.45339619 0 798.91333474 0 13699.40282257 0 3787
0.06050000 0.06049470 29398.43754293 0 1069.58623242 0 17601.95138077 0 -1266.84760662 0 9789.11260890 0 3930
0.06150000 0.06148310 28959.66979166 0 432.50898883 0 15308.95732369 0 1552.85630233 0 11523.86454117 0 4083
0.06250000 0.06249100 29361.72568103 0 -719.36616110 0 16170.52150263 0 222.47166487 0 8465.83299220 0 4303
0.06350000 0.06350600 30178.81416021 0 -694.14810660 0 13329.51140434 0 2177.17977854 0 4940.05239433 0 4470
0.06450000 0.06451750 30804.46858005 0 -254.15810543 0 13036.26015703 0 -284.89070305 0 4266.39527409 0 4479
0.06550000 0.06550280 30835.74575545 0 -206.96949889 0 10758.97123484 0 560.24075849 0 3666.03987448 0 4636
0.06650000 0.06648880 31158.38867467 0 -825.11185105 0 10549.29215653 0 3956.08576587 0 4130.33956112 0 4653
0.06750000 0.06749660 32496.98523435 0 -753.45384580 0 7574.77732058 0 1520.00417697 0 1651.26849285 0 5220
0.06850000 0.06852730 32202.95760326 0 612.27954545 0 7435.61607247 0 888.04330253 0 4144.44756364 0 5029
0.06950000 0.06949320 30710.63705387 0 1753.82879103 0 9237.28119593 0 -2723.13285712 0 662.59586952 0 5040
0.07050000 0.07048030 29705.99643430 0 1274.61144449 0 8417.41991752 0 -959.46728352 0 5285.43226730 0 5475
0.07150000 0.07148790 27654.79047070 0 641.42721103 0 12004.11336903 0 -706.61904845 0 1709.13126733 0 5509
0.07250000 0.07249820 27733.53796903 0 495.76541239 0 10981.70465195 0 357.85525130 0 2142.14268738 0 5916
0.07350000 0.07351270 26932.42081346 0 119.42224490 0 10556.92290003 0 595.19688391 0 417.55583711 0 5721
0.07450000 0.07449140 27186.40922357 0 97.09189444 0 9905.81418318 0 1375.11987123 0 977.50489712 0 6028
0.07550000 0.07549160 26588.48279610 0 -108.67953336 0 8954.38912657 0 803.36866855 0 821.87100330 0 6183
0.07650000 0.07648840 27020.59582920 0 118.71129918 0 8058.47551069 0 1028.35027129 0 -44.27162174 0 6330
0.07750000 0.07749960 25855.90923767 0 605.29985521 0 8505.39529171 0 -381.89874804 0 -469.76321026 0 6583
0.07850000 0.07848650 25413.48139140 0 714.03905921 0 6824.50221182 0 -21.43351628 0 -862.84188483 0 6549
0.07950000 0.07947320 24402.96243745 0 270.63407849 0 7490.91678045 0 820.39365587 0 531.95709715 0 6828
0.08050000 0.08048110 23827.44022781 0 219.74544866 0 6025.21510374 0 158.19374207 0 -2200.70420727 0 7147
0.08150000 0.08149960 23319.24158364 0 542.37062197 0 7444.41139165 0 -459.36077665 0 -1816.52732738 0 7386
0.08250000 0.08250610 22569.36575797 0 1162.61253770 0 7052.24884995 0 -1144.73352822 0 -3281.23079636 0 7227
0.08350000 0.08350160 21329.70267507 0 609.11411784 0 8327.70322541 0 -879.40326011 0 -1344.50816765 0 7798
0.08450000 0.08449610 21157.23456252 0 -139.48511106 0 8278.75777327 0 1529.97516302 0 -1247.50455915 0 7371
0.08550000 0.08548940 20768.15537358 0 -73.40653244 0 7112.66259973 0 1637.55977342 0 -1558.39080960 0 8256
0.08650000 0.08650700 21219.34526543 0 165.15457728 0 6188.06714853 0 1402.11584460 0 903.92146008 0 8037
0.08750000 0.08749060 20635.06101020 0 439.34560263 0 7270.78979462 0 205.12836020 0 1544.91500531 0 8155
0.08850000 0.08849210 19861.11728715 0 892.05609759 0 6844.03380964 0 -404.32071179 0 3175.97533732 0 8718
0.08950000 0.08949900 19238.01384260 0 612.61449960 0 8111.73543843 0 -395.30024131 0 3526.84535278 0 8571
0.09050000 0.09049190 18492.01993586 0 162.86313599 0 8483.96709921 0 165.96534377 0 4759.32134006 0 8932
0.09150000 0.09150830 18636.42732013 0 -15.48630556 0 8632.09003445 0 1106.81605322 0 3934.46902302 0 9285
0.09250000 0.09250820 18723.27139223 0 -170.07130488 0 7431.15741129 0 743.87992460 0 4535.92245113 0 9204
0.09350000 0.09350330 19053.34541341 0 -113.14130007 0 7777.42458002 0 443.44934550 0 4741.47560417 0 9349
0.09450000 0.09448040 18540.48846653 0 270.92023138 0 8052.48626433 0 -122.23386333 0 3910.19039290 0 9564
0.09550000 0.09549270 18423.69816266 0 353.43097283 0 7542.98995012 0 -611.66176578 0 3772.99228665 0 10155
0.09650000 0.09649430 18165.49509771 0 152.86109458 0 8100.91043021 0 -94.49821803 0 2904.58483919 0 9913
0.09750000 0.09749140 18060.01781473 0 52.37961944 0 7979.47291482 0 28.23696740 0 1449.99654183 0 10476
0.09850000 0.09850240 17938.68012012 0 112.24180400 0 8491.13201244 0 -238.99643920 0 1502.82391289 0 10575
0.09950000 0.09950330 17660.51290065 0 317.12393962 0 7520.60791468 0 -319.03273462 0 495.88852467 0 10882
0.10050000 0.10051200 17770.53757438 0 52.09679392 0 7906.81448362 0 -4.36752481 0 -774.12894604 0 10875
0.10150000 0.10150300 17259.89886689 0 173.39200925 0 7867.25218410 0 308.63473748 0 -1216.89285557 0 11118
0.10250000 0.10250800 17153.97793603 0 318.58354114 0 7763.31657750 0 -103.56072414 0 -1373.65583323 0 11575
0.10350000 0.10349800 16850.74461147 0 91.70090725 0 7226.14772690 0 322.65401042 0 -1272.96994734 0 11364
0.10450000 0.10450100 16404.76758218 0 105.69134308 0 6656.09347736 0 782.57821987 0 -1733.11043513 0 12093
0.10550000 0.10551000 16606.40554270 0 186.70699119 0 6677.97640893 0 103.74228704 0 -1684.51990130 0 12067
0.10650000 0.10649700 15660.54826695 0 484.94927712 0 5646.16235684 0 462.14244884 0 -1077.45100018 0 12054
0.10750000 0.10749900 15438.16976814 0 309.37452031 0 6145.11094275 0 156.79070566 0 -932.62991426 0 12807
0.10850000 0.10850100 15079.25863489 0 -86.85527421 0 5026.04244427 0 1145.49882081 0 -368.84219099 0 12736
0.10950000 0.10950300 14867.63859712 0 75.78315412 0 5045.46313013 0 864.53994708 0 120.27848530 0 12933
0.11050000 0.11050200 14656.68403117 0 280.38656797 0 4182.36836601 0 317.49327648 0 156.06534138 0 13428
0.11150000 0.11150900 14610.21191595 0 139.88217591 0 4302.77440008 0 120.98721279 0 1586.31844352 0 13453
0.11250000 0.11250000 14388.49888896 0 99.49413678 0 4257.81068765 0 242.03764540 0 866.16037095 0 13668
0.11350000 0.11349100 14242.53873712 0 -137.60958966 0 3963.51686783 0 467.39856707 0 1730.69255419 0 13791
0.11450000 0.11448600 14449.72229611 0 -37.50931896 0 3933.06044101 0 623.38959743 0 1186.95771500 0 14205
0.11550000 0.11549300 14400.81011757 0 184.47433324 0 3472.65376449 0 88.97025456 0 1786.61436921 0 14776
0.11650000 0.11649800 14020.04932634 0 257.82485514 0 3957.77162781 0 -486.38669625 0 1012.33680113 0 14553
0.11750000 0.11747300 13811.20208780 0 351.12733123 0 4323.41511760 0 -409.93063921 0 1358.29452546 0 14568
0.11850000 0.11849100 13553.10993482 0 -35.02533449 0 4065.22314384 0 333.90935708 0 1276.08657368 0 16015
0.11950000 0.11950300 13610.67324698 0 -37.58529366 0 4195.76653192 0 152.77791060 0 787.69126166 0 15270
0.12050000 0.12050700 13680.32596382 0 86.98493031 0 3702.38572688 0 -57.49421400 0 263.23181365 0 15999
0.12150000 0.12150000 13513.07071384 0 199.04705691 0 4024.49626865 0 -449.80238312 0 -557.34484696 0 15670
0.12250000 0.12250700 13399.05320921 0 -5.61995386 0 3732.29868505 0 -160.16908425 0 -34.70058424 0 16887
0.12350000 0.12352200 13284.81388064 0 -24.48925195 0 3864.45029668 0 332.38986310 0 -1080.21159910 0 16407
0.12450000 0.12449800 13567.30666691 0 -77.81428502 0 3204.22461595 0 168.88454681 0 -1077.53196591 0 16306
0.12550000 0.12549900 13356.68483687 0 88.59703578 0 3324.33118770 0 182.29380392 0 -1627.73297292 0 17523
0.12650000 0.12650100 13410.25531813 0 242.77742824 0 2882.05861819 0 26.88916515 0 -680.19094436 0 17154
0.12750000 0.12750600 12838.06046757 0 289.16857771 0 3567.25058326 0 -608.75143570 0 -1548.96329220 0 18007
0.12850000 0.12850300 12755.98561015 0 319.22461232 0 3339.74795146 0 -395.67401465 0 -1494.42787680 0 17496
0.12950000 0.12949900 12268.08385640 0 119.81709151 0 3671.17509866 0 316.51725115 0 -1394.92874898 0 18405
0.13050000 0.13049000 12307.23578163 0 -55.72250620 0 3287.41968426 0 262.79371137 0 -1801.06619883 0 18100
0.13150000 0.13148800 12236.80668100 0 54.94578968 0 3617.00569277 0 338.01753643 0 -1222.85991953 0 19059
0.13250000 0.13249300 12125.45106364 0 176.99221178 0 2845.64621861 0 134.65489479 0 -1502.92373367 0 18957
0.13350000 0.13349100 12030.84315368 0 97.98584491 0 2930.18332175 0 33.18009205 0 -1353.14821008 0 19468
0.13450000 0.13450700 11817.89217227 0 70.50773721 0 2637.49772548 0 340.47423656 0 -789.60005666 0 19953
0.13550000 0.13551000 11907.39813164 0 -90.36674717 0 2982.28976501 0 358.90891501 0 -941.00931356 0 19956
0.13650000 0.13649900 11851.16576311 0 64.31352554 0 2578.53692251 0 185.27622678 0 -407.89651369 0 19723
0.13750000 0.13749600 11857.26592144 0 119.90471197 0 2575.61993771 0 -28.57802170 0 -720.40318802 0 20946
0.13850000 0.13851100 11691.67435100 0 188.89195699 0 2695.41595595 0 -266.94181903 0 -300.66903983 0 20955
0.13950000 0.13949800 11308.80623235 0 318.50368452 0 2983.59852625 0 -152.66145303 0 -732.84640188 0 20506
0.14050000 0.14048300 10950.63820930 0 305.40276269 0 3674.86846725 0 -472.73786928 0 -141.23752018 0 21447
0.14150000 0.14148400 10827.54810557 0 123.00802887 0 3522.76379230 0 259.05154152 0 -221.96257893 0 21771
0.14250000 0.14249400 10678.67096893 0 -21.21191416 0 3456.22770181 0 649.17108474 0 -44.04203396 0 22470
0.14350000 0.14350900 10630.77918051 0 131.73236439 0 3157.25339687 0 -105.44156932 0 -132.28692424 0 22519
0.14450000 0.14449900 10556.24633702 0 104.00459385 0 3355.80800464 0 273.44458780 0 530.78253939 0 22218
0.14550000 0.14550500 10362.72713266 0 82.51417973 0 2953.86302724 0 376.10803411 0 811.76470464 0 23559
0.14650000 0.14650700 10175.21935706 0 -13.58471985 0 2940.17649020 0 220.24787988 0 414.85734889 0 23044
0.14750000 0.14750500 10461.09495840 0 28.77810690 0 2467.89114175 0 -28.89012799 0 632.80269628 0 23649
0.14850000 0.14849900 10184.33632095 0 60.27278066 0 2856.97033070 0 156.78183270 0 112.55901223 0 23640
0.14950000 0.14949500 10190.76921518 0 151.42589369 0 2605.25561596 0 -527.36534161 0 156.98923808 0 24457
0.15050000 0.15050000 10062.95426155 0 133.10323634 0 2575.47575215 0 -287.62024662 0 -369.99123900 0 24591
0.15150000 0.15149900 9940.42980886 0 22.75281416 0 3133.82878892 0 96.19639120 0 -819.83798690 0 25020
0.15250000 0.15250500 9938.53321418 0 121.37984116 0 2722.45629411 0 84.12972348 0 -711.72321729 0 25297
0.15350000 0.15350100 9708.33542152 0 72.12150636 0 2854.81863849 0 84.71001490 0 -679.55985526 0 25452
0.15450000 0.15450400 9591.09037858 0 108.12197889 0 2605.16688638 0 129.50414293 0 -691.86553827 0 26061
0.15550000 0.15549900 9608.54792258 0 49.56755737 0 2500.95399985 0 177.47800621 0 -511.81659261 0 26128
0.15650000 0.15649500 9371.07430472 0 122.42241368 0 2584.83672237 0 283.56863238 0 -250.91503944 0 26331
0.15750000 0.15749700 9273.15012686 0 92.14377874 0 2244.93590070 0 110.09876292 0 -66.13181636 0 27345
0.15850000 0.15849900 9246.04324152 0 111.46431109 0 2436.86906389 0 84.56316745 0 -9.87936168 0 26980
0.15950000 0.15949700 9069.16083259 0 81.94830686 0 2249.47220025 0 300.95852007 0 423.52733755 0 27777
0.16050000 0.16050000 8954.83277445 0 87.31711165 0 2275.34796273 0 67.12592035 0 553.76128123 0 28224
0.16150000 0.16150500 9001.27161607 0 61.61581370 0 1991.77933036 0 -20.61043855 0 608.08263652 0 28075
0.16250000 0.16249700 8820.42964983 0 90.64291797 0 2322.47445856 0 123.76333939 0 553.41079941 0 28590
0.16350000 0.16349900 8725.72191909 0 103.17497232 0 2102.31419914 0 -152.96313359 0 899.14448156 0 29163
0.16450000 0.16449100 8720.44250934 0 77.50051506 0 2456.83321839 0 -132.06510030 0 365.63794419 0 28996
0.16550000 0.16550500 8554.34074385 0 169.72969602 0 2703.55689451 0 -187.13954787 0 191.51169770 0 30777
0.16650000 0.16650700 8496.52233416 0 56.61390570 0 2578.27073378 0 88.99853711 0 410.18130026 0 29211
0.16750000 0.16749900 8307.93871244 0 162.25422928 0 2643.86407253 0 118.96417847 0 618.10796945 0 30922
0.16850000 0.16850800 8155.47911919 0 130.38034749 0 2648.79965517 0 165.79786670 0 382.66071327 0 30867
0.16950000 0.16949900 7984.41958866 0 67.93879417 0 2567.68973189 0 193.41827446 0 1038.64622941 0 30852
0.17050000 0.17049200 7909.53182687 0 -28.95922614 0 2185.86418575 0 345.18244966 0 514.53060851 0 31257
0.17150000 0.17149500 8006.09178750 0 29.48661256 0 2226.48014898 0 -120.15980950 0 623.15335494 0 32608
0.17250000 0.17250900 7909.62055644 0 59.81183052 0 2052.49254245 0 -52.41389124 0 456.49037488 0 32361
0.17350000 0.17350400 7854.41966923 0 -29.05261402 0 1858.72933176 0 -110.53154143 0 -29.92116566 0 32508
0.17450000 0.17449800 8043.00329094 0 -63.73933427 0 1626.60167084 0 363.19344439 0 63.45395777 0 32791
0.17550000 0.17549800 8036.52603192 0 -108.07816866 0 1397.26899154 0 204.10686096 0 -511.10675601 0 33633
0.17650000 0.17650100 8168.61109638 0 30.85482261 0 1301.07504041 0 151.45916729 0 -224.05548779 0 33984
0.17750000 0.17750300 8026.77686981 0 71.22234303 0 1138.11208364 0 -256.93534114 0 -581.48927360 0 34069
