### header ###
fiducial parameters:
Omega_m = 0.31
Omega_nu = 0
Omega_de = 0.69
Omega_k = 0
H_0 = 100
w_de = -1
zeff = 0
beta = 0
fgrowth = 0
b_1 = 2
gamma = 0.55
Lx = 3500 Ly = 3500 Lz = 3500
nx = 700 ny = 700 nz = 700
xoffset = 1379.75464 yoffset = 22.6059522 zoffset = 368.141391
bins = 400 dk = 0.001
kx_ny = 0.628318531 ky_ny = 0.628318531 kz_ny = 0.628318531
############################
A(data) = 3.31202007 (not used)
A(ran) = 3.31341056 (used)
Ngal = 185972
weighted Ngal = 0
Nran = 9399747
weighted Nran = 0
SN(data) = 6702.12997
SN(ran) = 131.792174
SN(data+ran) = 6833.92214
############################
13 columns: k_central k_mean P_0(k) sigma^{lin}_{P_0(k)} P^img_1(k) sigma^{lin}_{P_1(k)} P_2(k) sigma^{lin}_{P_2(k)} P^img_3(k) sigma^{lin}_{P_3(k)} P_4(k) sigma^{lin}_{P_4(k)} N_modes
### header ###
0.00050000 0 0 0 0 0 0 0 0 0 0 0 0
0.00150000 0.00179520 42798.26713592 0 -35610.50604166 0 -62104.60275172 0 65353.32524983 0 13935.86714150 0 3
0.00250000 0.00253879 53246.28557312 0 -17537.84426241 0 8603.55238471 0 -91538.86486080 0 -13268.73164507 0 6
0.00350000 0.00331552 52937.28482614 0 9952.27520720 0 -37717.05707803 0 -2762.41787671 0 26662.57199171 0 7
0.00450000 0.00420575 40801.96259721 0 16076.91180039 0 8694.22291976 0 -33663.66824134 0 5260.26634142 0 24
0.00550000 0.00557378 25122.00473560 0 6548.96360603 0 17426.37773308 0 4704.03172327 0 16284.42809529 0 45
0.00650000 0.00659388 24648.07789000 0 -2050.34085024 0 24410.50445137 0 28654.99461149 0 -7625.96319449 0 40
0.00750000 0.00754703 20784.23760915 0 -4058.25787216 0 13335.38973873 0 17040.40407928 0 14207.82329067 0 57
0.00850000 0.00846663 35685.59344500 0 -8072.01786216 0 9071.20161283 0 17638.88506661 0 14809.52072511 0 75
0.00950000 0.00948925 48235.39370388 0 -7664.18345918 0 14119.42645100 0 2647.70162668 0 31725.48157463 0 112
0.01050000 0.01054430 60009.80838411 0 -3137.34469835 0 43.02120019 0 -1670.86663786 0 4184.70860856 0 105
0.01150000 0.01145670 65007.50172898 0 -7422.93883436 0 26020.16986447 0 -2630.32172106 0 39742.53146472 0 144
0.01250000 0.01249090 72474.09551453 0 -1769.87775301 0 18395.19378651 0 10800.33030826 0 7062.98512860 0 169
0.01350000 0.01339930 92588.75756391 0 -8875.38653071 0 41528.43599732 0 8901.99431219 0 31866.45068785 0 180
0.01450000 0.01448870 93314.12184433 0 -1727.43174229 0 37893.51802148 0 1495.43717573 0 23008.24442121 0 267
0.01550000 0.01550050 93513.87430137 0 8062.16887927 0 34354.09525136 0 -10493.54780067 0 5804.35609891 0 238
0.01650000 0.01653350 92832.20933693 0 2873.74022048 0 43133.77584361 0 7316.74062358 0 32737.10964828 0 315
0.01750000 0.01747870 90531.34053002 0 -2299.58222806 0 40136.82351623 0 18183.46283676 0 8893.46518174 0 297
0.01850000 0.01844180 93431.79944395 0 -632.88255290 0 42795.82707259 0 15799.41005274 0 45799.54503011 0 388
0.01950000 0.01947590 90092.46186678 0 2891.57486517 0 23066.69502913 0 1743.18124196 0 -14025.48401284 0 399
0.02050000 0.02045430 88104.36481381 0 4908.27611507 0 39470.13166767 0 -5821.75818693 0 12441.77200061 0 462
0.02150000 0.02154770 73373.70249900 0 8854.26889172 0 31264.97507734 0 -11668.82648529 0 -5715.22724024 0 571
0.02250000 0.02255340 72218.88707275 0 3603.31915574 0 48783.52065706 0 2619.91817832 0 -144.25210751 0 510
0.02350000 0.02348930 67643.76833161 0 -2683.44855444 0 26670.22491760 0 8859.14901838 0 -22062.27623350 0 555
0.02450000 0.02439640 68212.41399914 0 -1.80473739 0 26353.57124473 0 5602.19685214 0 -23298.39013338 0 592
0.02550000 0.02547300 63717.92825981 0 4055.17451941 0 21747.50806411 0 -193.83973994 0 -10758.67177252 0 837
0.02650000 0.02652900 62063.12167514 0 836.95059467 0 17523.09297047 0 4763.30307976 0 -14086.15286015 0 723
0.02750000 0.02749970 64938.73630790 0 -4490.99201229 0 12723.15566718 0 11847.17293221 0 -4205.47132925 0 826
0.02850000 0.02848090 64201.61535873 0 661.22167022 0 12750.44001168 0 2371.49754908 0 -13422.34472280 0 831
0.02950000 0.02946900 60374.04329189 0 4112.21654531 0 11537.83944933 0 -8281.76348765 0 -12597.38149379 0 996
0.03050000 0.03053250 58189.18840506 0 3744.29936014 0 20890.04762804 0 -11929.46961357 0 -9995.04286263 0 1041
0.03150000 0.03150510 53867.39260222 0 3285.47872479 0 23057.04568778 0 -6121.66415241 0 -16369.71939982 0 1036
0.03250000 0.03246190 55841.73657097 0 110.82257443 0 31422.69189795 0 2111.75280774 0 -17965.74264067 0 1059
0.03350000 0.03345080 51487.66538501 0 337.33764606 0 33015.83142759 0 2680.24319852 0 -15356.64947057 0 1302
0.03450000 0.03451200 52607.21080496 0 2350.62391642 0 29892.88310288 0 -325.99800630 0 -13354.24477354 0 1339
0.03550000 0.03553350 50412.04110497 0 394.27763295 0 33453.49005917 0 3991.74396406 0 -11064.67789632 0 1365
0.03650000 0.03647120 50141.30498746 0 696.69242718 0 31089.84507753 0 2554.12519802 0 -4934.89498775 0 1308
0.03750000 0.03744890 49623.90064983 0 2200.82621044 0 33850.33308598 0 2666.02428404 0 -91.28332368 0 1579
0.03850000 0.03847530 46674.86229327 0 408.18377569 0 26268.61267611 0 5563.88785788 0 2387.34686951 0 1662
0.03950000 0.03950240 45838.91877928 0 -249.64509739 0 26439.52802108 0 7428.14060572 0 3648.60451288 0 1683
0.04050000 0.04050350 45774.47892501 0 -4.91257950 0 16318.69989386 0 5695.37399770 0 7867.60710240 0 1822
0.04150000 0.04152450 45640.05361800 0 -167.63678715 0 18695.09975199 0 4165.04391638 0 13273.27903582 0 1887
0.04250000 0.04250150 45102.79603783 0 -930.04788361 0 10966.60953290 0 6440.92425656 0 8220.67317486 0 1920
0.04350000 0.04349210 45253.63631632 0 -60.64067567 0 9247.11908763 0 2874.52769546 0 8396.33555212 0 2005
0.04450000 0.04448520 45023.38306768 0 1084.63698668 0 5671.55010666 0 -4491.73512249 0 2340.20928248 0 2151
0.04550000 0.04548030 41777.43336881 0 2210.86374367 0 8671.15323011 0 -5392.45122665 0 498.71234342 0 2274
0.04650000 0.04648670 39937.84744298 0 2214.74566261 0 14131.73767961 0 -5425.02607209 0 -5615.33992052 0 2311
0.04750000 0.04749250 38808.76359365 0 599.52355984 0 11330.32315443 0 -1142.53747123 0 -10325.69362605 0 2568
0.04850000 0.04851840 38742.32732393 0 -54.01224363 0 15290.32411282 0 677.38265330 0 -11954.86845458 0 2493
0.04950000 0.04949480 37397.18695805 0 -190.19517263 0 9842.11743911 0 2066.67818335 0 -13774.49022591 0 2644
0.05050000 0.05050630 37296.58980173 0 1020.37237332 0 12915.69884621 0 -225.31988424 0 -10818.79715117 0 2829
0.05150000 0.05149060 36932.68762986 0 1546.84487358 0 12561.55692765 0 57.48711564 0 -9655.65223602 0 2784
0.05250000 0.05249300 35619.15717528 0 -6.62941915 0 11300.04418676 0 3217.04603962 0 -5921.27949714 0 3055
0.05350000 0.05348950 33506.39506861 0 345.55844124 0 11143.76922176 0 1668.41548333 0 -4777.52199425 0 3009
0.05450000 0.05448610 33744.52306709 0 926.91018400 0 8800.33240096 0 2465.24034568 0 -962.59278282 0 3336
0.05550000 0.05550870 33441.28974252 0 200.65084399 0 9476.03030144 0 1872.67096633 0 2299.79296080 0 3349
0.05650000 0.05647670 31627.98995346 0 378.76437578 0 8042.95892615 0 2058.19341768 0 2800.76014456 0 3324
0.05750000 0.05747970 32374.64933201 0 412.57034408 0 8713.46614646 0 107.51041029 0 4838.43484789 0 3639
0.05850000 0.05849280 31829.18426610 0 -91.89711052 0 8776.09813563 0 588.84162806 0 5332.39239518 0 3846
0.05950000 0.05951020 31314.44181573 0 528.78501482 0 7859.06688075 0 -120.87851906 0 6252.21863168 0 3787
0.06050000 0.06049470 31285.27196776 0 4.52178118 0 10223.96516764 0 -520.24479317 0 7707.80513677 0 3930
0.06150000 0.06148310 31506.54134688 0 271.24520345 0 9450.93092275 0 614.25045115 0 2781.74983299 0 4083
0.06250000 0.06249100 30874.45403280 0 643.23729437 0 9135.26436640 0 -923.70371896 0 3918.08732513 0 4303
0.06350000 0.06350600 31184.56389947 0 72.00804342 0 12035.05780852 0 -834.53825933 0 3639.54300497 0 4470
0.06450000 0.06451750 30513.65739607 0 255.18404115 0 12153.40087995 0 -1519.23888438 0 2141.82104267 0 4479
0.06550000 0.06550280 31015.53405798 0 20.78579038 0 13336.60977039 0 76.55432505 0 894.30761057 0 4636
0.06650000 0.06648880 30845.39509679 0 -315.91610827 0 11537.39580145 0 1893.22295427 0 178.33757397 0 4653
0.06750000 0.06749660 30990.35704091 0 -174.32588803 0 10472.13069936 0 -82.91612471 0 -965.23248769 0 5220
0.06850000 0.06852730 31282.38825655 0 792.23754329 0 9484.74798224 0 689.16815917 0 -970.80359592 0 5029
0.06950000 0.06949320 30423.81870079 0 201.17213025 0 10123.27928175 0 287.58475479 0 -2251.69043964 0 5040
0.07050000 0.07048030 30362.59529364 0 -249.03619068 0 7689.98158328 0 1314.19592639 0 -519.12347316 0 5475
0.07150000 0.07148790 29415.62889820 0 850.08368098 0 8631.19164750 0 294.17403490 0 -3491.47552571 0 5509
0.07250000 0.07249820 28424.07589103 0 1083.48682956 0 7788.47141218 0 -1580.49556512 0 -2847.53172209 0 5916
0.07350000 0.07351270 27180.53088919 0 417.54696415 0 8632.74441507 0 1190.57344521 0 -1857.70894165 0 5721
0.07450000 0.07449140 26872.97199782 0 -77.88815239 0 8953.20236850 0 1730.04926477 0 -409.28624066 0 6028
0.07550000 0.07549160 27042.22366325 0 -448.02890072 0 5534.54055075 0 2724.05342647 0 -111.63067904 0 6183
0.07650000 0.07648840 27728.99057828 0 -345.67378969 0 5901.90317607 0 2197.67631050 0 1108.45200477 0 6330
0.07750000 0.07749960 27606.76558791 0 301.18478049 0 4468.21069376 0 -1138.22299561 0 1862.40051795 0 6583
0.07850000 0.07848650 27276.91339067 0 942.50995251 0 6132.21188070 0 -1994.43012643 0 2799.12973861 0 6549
0.07950000 0.07947320 26230.56987058 0 921.00966722 0 8146.12924017 0 -1861.56867818 0 1329.00267432 0 6828
0.08050000 0.08048110 25244.67337385 0 240.63793635 0 7586.13470625 0 -202.05166216 0 -496.85013145 0 7147
0.08150000 0.08149960 25411.59588792 0 221.71857259 0 9447.55919887 0 363.16238903 0 -279.92295594 0 7386
0.08250000 0.08250610 24844.72481190 0 529.10665953 0 7674.57591072 0 426.86356959 0 -2052.28180971 0 7227
0.08350000 0.08350160 24260.66238060 0 154.55804771 0 8346.33643628 0 487.91506319 0 90.31816772 0 7798
0.08450000 0.08449610 23160.85929122 0 761.61585764 0 7525.27730860 0 -185.17418777 0 -1633.27857140 0 7371
0.08550000 0.08548940 22706.89660013 0 723.69616439 0 7569.97483230 0 303.91099670 0 -1880.88954327 0 8256
0.08650000 0.08650700 22380.48267394 0 213.03527450 0 6823.34872733 0 720.86236357 0 -1715.56416156 0 8037
0.08750000 0.08749060 21420.42866610 0 60.58266871 0 7694.58443001 0 755.90278209 0 686.60942004 0 8155
0.08850000 0.08849210 21232.54378980 0 372.65756274 0 5574.71286610 0 385.79064905 0 -814.34673529 0 8718
0.08950000 0.08949900 21106.88052838 0 70.84912425 0 6929.30293178 0 323.61561720 0 -365.73776497 0 8571
0.09050000 0.09049190 20990.09022451 0 115.00573028 0 5613.74278816 0 181.25455877 0 -395.13054600 0 8932
0.09150000 0.09150830 20224.02125130 0 405.51967018 0 6508.12581887 0 56.79369401 0 79.05783002 0 9285
0.09250000 0.09250820 20460.04192236 0 137.18701505 0 5858.86933191 0 -266.96178318 0 -811.80906943 0 9204
0.09350000 0.09350330 19986.78054858 0 -129.36217561 0 5697.99152018 0 786.96811562 0 -775.63291234 0 9349
0.09450000 0.09448040 19897.27458920 0 342.49838000 0 4973.53671792 0 466.90611793 0 -405.11151413 0 9564
0.09550000 0.09549270 19750.09440570 0 91.05218314 0 5052.40621941 0 -443.47929174 0 -1321.94867306 0 10155
0.09650000 0.09649430 19664.13762935 0 -13.46548948 0 4874.66978832 0 916.79279414 0 -589.30634921 0 9913
0.09750000 0.09749140 19177.67773120 0 192.45555857 0 4837.58082572 0 -146.84190200 0 -1126.99870430 0 10476
0.09850000 0.09850240 18728.04060692 0 586.28732540 0 4230.54852555 0 -159.25295138 0 -867.84290553 0 10575
0.09950000 0.09950330 18788.93127817 0 137.01621062 0 4896.90763820 0 -134.91331968 0 -1025.95568187 0 10882
0.10050000 0.10051200 17984.26493957 0 447.97455386 0 4899.88007898 0 -167.66562427 0 -1084.45065457 0 10875
0.10150000 0.10150300 17854.94158316 0 575.31369514 0 5909.41191641 0 -671.28138585 0 -901.21631715 0 11118
0.10250000 0.10250800 16762.79141967 0 744.03852872 0 6453.76786263 0 -683.97082428 0 -441.48176716 0 11575
0.10350000 0.10349800 16069.59161040 0 476.33363534 0 6778.50701807 0 461.74871135 0 -623.01249674 0 11364
0.10450000 0.10450100 15811.05580954 0 73.80836651 0 6719.63494467 0 836.42154458 0 296.35678246 0 12093
0.10550000 0.10551000 15496.50946409 0 -113.52172812 0 6301.92937640 0 1054.04081078 0 -487.39821341 0 12067
0.10650000 0.10649700 15563.83302956 0 520.12389913 0 6088.55692951 0 -15.99550241 0 848.71946375 0 12054
0.10750000 0.10749900 14848.22900246 0 364.28370905 0 5472.44093904 0 -20.33814967 0 600.79461101 0 12807
0.10850000 0.10850100 14520.26230870 0 -29.24626632 0 5313.80354909 0 602.83760949 0 727.98402113 0 12736
0.10950000 0.10950300 14617.86484185 0 -101.82994286 0 5452.52114932 0 312.02642550 0 1268.38928300 0 12933
0.11050000 0.11050200 14399.70099788 0 190.74307776 0 4871.91917148 0 382.90361048 0 137.25688959 0 13428
0.11150000 0.11150900 14527.36067475 0 119.54092071 0 5166.51245362 0 -227.07007512 0 1450.31818654 0 13453
0.11250000 0.11250000 14108.33525405 0 256.63809707 0 5350.90360288 0 -428.77236458 0 458.35036860 0 13668
0.11350000 0.11349100 14194.95750221 0 -41.05295638 0 6108.64308719 0 185.09654939 0 2615.90316503 0 13791
0.11450000 0.11448600 14373.19303717 0 -230.37857917 0 5554.52688765 0 712.31326896 0 1076.78109188 0 14205
0.11550000 0.11549300 14573.72187800 0 84.09733718 0 6081.91330254 0 158.29356285 0 2489.06423673 0 14776
0.11650000 0.11649800 14599.78619082 0 164.54567056 0 5696.72712373 0 -139.77570042 0 1752.02092593 0 14553
0.11750000 0.11747300 14064.74685004 0 420.74122887 0 6771.05373372 0 -449.45966513 0 2784.43390265 0 14568
0.11850000 0.11849100 13913.35201170 0 133.70216097 0 6511.13153324 0 -80.19123944 0 2014.72701684 0 16015
0.11950000 0.11950300 13872.09275905 0 -139.36421701 0 6648.75110498 0 576.46939786 0 1951.59592381 0 15270
0.12050000 0.12050700 14105.22971890 0 -236.01956194 0 6241.48235304 0 731.03631853 0 2398.42697527 0 15999
0.12150000 0.12150000 14186.19545662 0 -70.70338592 0 5428.23142801 0 264.99087749 0 1506.19563677 0 15670
0.12250000 0.12250700 14454.15877489 0 155.12702612 0 5145.90500969 0 8.75564597 0 1840.91686947 0 16887
0.12350000 0.12352200 13975.46271461 0 195.58105787 0 5317.35273211 0 -180.94289613 0 844.35396863 0 16407
0.12450000 0.12449800 14149.26177079 0 61.97616669 0 5302.80108172 0 318.87745786 0 1519.54943789 0 16306
0.12550000 0.12549900 13834.82633730 0 49.58363960 0 5374.42803161 0 79.56247948 0 651.81744433 0 17523
0.12650000 0.12650100 13720.36518480 0 351.51663224 0 5053.52643031 0 -379.18916862 0 918.23908622 0 17154
0.12750000 0.12750600 13459.72205652 0 257.65515983 0 5458.07783899 0 -109.48253602 0 697.74830913 0 18007
0.12850000 0.12850300 12927.89916285 0 71.97066609 0 5588.61013588 0 334.89536449 0 773.12075623 0 17496
0.12950000 0.12949900 13102.91825069 0 -8.03186773 0 5201.74918632 0 714.52929012 0 664.47139093 0 18405
0.13050000 0.13049000 13064.65362122 0 130.36481981 0 4965.51778252 0 229.71532559 0 621.34659895 0 18100
0.13150000 0.13148800 12669.25245002 0 218.21486348 0 4710.64207665 0 216.49350971 0 1202.19701961 0 19059
0.13250000 0.13249300 12368.45918878 0 252.71846806 0 4637.76182151 0 133.07439922 0 897.84015680 0 18957
0.13350000 0.13349100 12181.79434414 0 244.20930177 0 4272.51761480 0 201.29413341 0 1283.70622598 0 19468
0.13450000 0.13450700 11743.35932878 0 183.38961418 0 4048.03178857 0 604.85287997 0 1321.27211005 0 19953
0.13550000 0.13551000 11694.44715024 0 199.47961359 0 4443.32204781 0 -194.91114957 0 2123.14346701 0 19956
0.13650000 0.13649900 11228.61687841 0 58.48421424 0 3482.30310583 0 160.94214068 0 1215.90573904 0 19723
0.13750000 0.13749600 11325.44302777 0 -13.91213198 0 4117.91742054 0 -45.65879774 0 1188.75448891 0 20946
0.13850000 0.13851100 11283.07465543 0 61.68224997 0 3929.51125798 0 -345.39096416 0 652.77350551 0 20955
0.13950000 0.13949800 11513.66063998 0 -39.07162496 0 3915.52525863 0 -81.15218074 0 283.16491281 0 20506
0.14050000 0.14048300 11295.71861995 0 95.55232539 0 4499.80951386 0 -76.89937218 0 -14.05676119 0 21447
0.14150000 0.14148400 11380.45536463 0 48.10462849 0 4024.09698556 0 63.25886362 0 -128.67230316 0 21771
0.14250000 0.14249400 11331.32136215 0 85.48573321 0 4553.74600462 0 185.85296902 0 472.45282552 0 22470
0.14350000 0.14350900 11238.26621976 0 170.59259114 0 4118.28343004 0 -37.59449935 0 277.16790262 0 22519
0.14450000 0.14449900 11132.12346496 0 133.11210929 0 4328.23978827 0 234.79953027 0 82.06121524 0 22218
0.14550000 0.14550500 10858.74764258 0 209.18662916 0 4693.10689428 0 -325.27818762 0 359.13406630 0 23559
0.14650000 0.14650700 10535.28397478 0 209.67353271 0 4444.93027136 0 -71.33780239 0 4.35464793 0 23044
0.14750000 0.14750500 10446.39912244 0 17.47684268 0 4735.28671627 0 251.18011905 0 767.90900279 0 23649
0.14850000 0.14849900 10560.46099186 0 -148.57656520 0 3841.85752850 0 718.98684217 0 -355.34531343 0 23640
0.14950000 0.14949500 10563.05633194 0 -79.48262287 0 3512.79280624 0 681.69158331 0 510.23498793 0 24457
0.15050000 0.15050000 10622.77133631 0 105.57688193 0 2909.97516091 0 60.84031721 0 357.50920595 0 24591
0.15150000 0.15149900 10245.07171544 0 317.57535134 0 3575.15860668 0 -299.83720006 0 532.46618309 0 25020
0.15250000 0.15250500 9986.22536106 0 331.05115563 0 3178.48194783 0 -241.95335231 0 514.61711984 0 25297
0.15350000 0.15350100 9529.56750911 0 204.20002701 0 3960.27823832 0 -329.63370066 0 -304.50104838 0 25452
0.15450000 0.15450400 9555.06617089 0 151.61222580 0 3826.47403833 0 35.56824858 0 254.55627940 0 26061
0.15550000 0.15549900 9242.79352082 0 -45.92953386 0 3589.95426341 0 392.99770883 0 -130.90939758 0 26128
0.15650000 0.15649500 9500.85240021 0 -182.93931158 0 3237.45384200 0 600.78019245 0 264.76905355 0 26331
0.15750000 0.15749700 9668.96167236 0 -115.75438607 0 2485.42632413 0 532.36525320 0 -443.34730649 0 27345
0.15850000 0.15849900 9599.93006255 0 17.90618291 0 2225.89231554 0 409.16756486 0 368.16562798 0 26980
0.15950000 0.15949700 9574.18739443 0 90.78699262 0 1835.20490304 0 128.82092519 0 519.62479526 0 27777
0.16050000 0.16050000 9396.87242882 0 144.61811701 0 1656.08207232 0 61.97694307 0 362.37158669 0 28224
0.16150000 0.16150500 9267.57125480 0 100.87776360 0 1831.61135523 0 2.64028162 0 129.86238859 0 28075
0.16250000 0.16249700 8988.80511070 0 154.25747628 0 1757.15615011 0 -187.61757846 0 -193.37834615 0 28590
0.16350000 0.16349900 9004.41042481 0 77.07594404 0 1809.36241415 0 -45.61576390 0 321.20106362 0 29163
0.16450000 0.16449100 8803.04974421 0 64.39249486 0 1965.20482247 0 -12.83107301 0 -62.34250893 0 28996
0.16550000 0.16550500 8785.78075057 0 100.03161619 0 1973.98905045 0 14.98209975 0 276.60557893 0 30777
0.16650000 0.16650700 8723.84750681 0 48.76333468 0 2106.72849553 0 208.15847520 0 358.49410424 0 29211
0.16750000 0.16749900 8885.67916148 0 39.28867969 0 2066.74473053 0 188.42279935 0 747.08528052 0 30922
0.16850000 0.16850800 8737.19021673 0 51.88417568 0 2273.16299693 0 48.06658569 0 843.95357642 0 30867
0.16950000 0.16949900 8646.77477921 0 91.85074932 0 2092.03265957 0 -27.62739521 0 1135.64983792 0 30852
0.17050000 0.17049200 8472.76499029 0 202.07162632 0 2518.40045265 0 -39.33093715 0 1049.36365302 0 31257
0.17150000 0.17149500 8303.15840656 0 189.32451367 0 2680.67575520 0 -171.23033497 0 1260.29270923 0 32608
0.17250000 0.17250900 8226.96188353 0 85.78563918 0 2578.60346969 0 175.72337885 0 1562.77183240 0 32361
0.17350000 0.17350400 8014.14399648 0 27.48942072 0 2523.13639375 0 140.56650276 0 1216.70430522 0 32508
0.17450000 0.17449800 8099.98986086 0 46.19250614 0 2501.75256603 0 39.36864722 0 1639.04599381 0 32791
0.17550000 0.17549800 7994.71221943 0 145.20151397 0 2445.19855280 0 -100.86356687 0 889.58165155 0 33633
0.17650000 0.17650100 7812.11784407 0 189.21249258 0 2735.03371145 0 -371.59835343 0 1094.36396640 0 33984
0.17750000 0.17750300 7510.02691279 0 149.67570282 0 3028.63987706 0 -255.50901322 0 886.01361349 0 34069
0.17850000 0.17849800 7573.50183293 0 80.72073318 0 2999.58094106 0 -40.43151662 0 526.08652661 0 34536
