### header ###
fiducial parameters:
Omega_m = 0.31
Omega_nu = 0
Omega_de = 0.69
Omega_k = 0
H_0 = 100
w_de = -1
zeff = 0
beta = 0
fgrowth = 0
b_1 = 2
gamma = 0.55
Lx = 3500 Ly = 3500 Lz = 3500
nx = 700 ny = 700 nz = 700
xoffset = 1379.75464 yoffset = 22.6059522 zoffset = 368.141391
bins = 400 dk = 0.001
kx_ny = 0.628318531 ky_ny = 0.628318531 kz_ny = 0.628318531
############################
A(data) = 3.352505 (not used)
A(ran) = 3.35804102 (used)
Ngal = 188356
weighted Ngal = 0
Nran = 9399747
weighted Nran = 0
SN(data) = 6623.27209
SN(ran) = 133.567367
SN(data+ran) = 6756.83946
############################
13 columns: k_central k_mean P_0(k) sigma^{lin}_{P_0(k)} P^img_1(k) sigma^{lin}_{P_1(k)} P_2(k) sigma^{lin}_{P_2(k)} P^img_3(k) sigma^{lin}_{P_3(k)} P_4(k) sigma^{lin}_{P_4(k)} N_modes
### header ###
0.00050000 0 0 0 0 0 0 0 0 0 0 0 0
0.00150000 0.00179520 68353.16128841 0 -51214.48920417 0 -75205.52458697 0 69964.37946908 0 94342.16488946 0 3
0.00250000 0.00253879 102679.86128332 0 -41252.04336937 0 -24365.14145586 0 -95336.49069587 0 -5667.06926309 0 6
0.00350000 0.00331552 140393.48009030 0 -31732.69085265 0 -109410.88688725 0 11696.99812553 0 -5972.55410063 0 7
0.00450000 0.00420575 151486.89527791 0 -16281.54438408 0 -69589.82974814 0 -38989.10645603 0 -1913.19819998 0 24
0.00550000 0.00557378 153268.14150779 0 11143.76922176 0 -55432.91505146 0 -47707.23090521 0 10529.99347384 0 45
0.00650000 0.00659388 113816.75396297 0 11527.41372420 0 -9172.97443603 0 -20849.67567115 0 -38292.35746374 0 40
0.00750000 0.00754703 101000.98680126 0 23868.14492061 0 2148.53121682 0 -29467.31387598 0 15510.81710815 0 57
0.00850000 0.00846663 77851.44053093 0 15851.20594249 0 12626.32951783 0 -24250.23665547 0 -228.06495549 0 75
0.00950000 0.00948925 57479.57362432 0 12318.54880251 0 27444.39046459 0 6458.54816851 0 16018.90484035 0 112
0.01050000 0.01054430 51181.99199712 0 -769.65586631 0 36691.23227229 0 19101.37029620 0 27550.31139545 0 105
0.01150000 0.01145670 55002.46569790 0 -10979.95224283 0 9493.39911586 0 41302.28649155 0 21502.39261155 0 144
0.01250000 0.01249090 70871.41755551 0 -12640.85898583 0 3260.11315737 0 29143.67274903 0 34585.56853167 0 169
0.01350000 0.01339930 87910.60160312 0 -8481.98177496 0 -21324.60072447 0 11457.98283130 0 34443.82303467 0 180
0.01450000 0.01448870 88562.76398368 0 3073.19321520 0 -2578.94729679 0 -16792.40491552 0 40162.44418118 0 267
0.01550000 0.01550050 83134.84310919 0 2581.26535696 0 -12934.22114511 0 -7288.61334812 0 17044.61873412 0 238
0.01650000 0.01653350 77215.91494580 0 3933.41535931 0 14860.98387895 0 -10390.17784511 0 27249.96178209 0 315
0.01750000 0.01747870 83752.95551511 0 4312.42374142 0 9975.85509191 0 -3522.95234265 0 15836.89829843 0 297
0.01850000 0.01844180 78773.34082127 0 985.18444188 0 22349.20549855 0 12729.81038535 0 22845.75838592 0 388
0.01950000 0.01947590 67333.21481706 0 4108.36789997 0 16589.21418743 0 -3419.24965118 0 6874.40150689 0 399
0.02050000 0.02045430 67341.75503871 0 4868.80254513 0 24207.09189934 0 -3255.80977295 0 14362.76731204 0 462
0.02150000 0.02154770 61552.59387961 0 3478.87592598 0 16962.32205276 0 5710.66875829 0 15215.23670948 0 571
0.02250000 0.02255340 54723.96574253 0 -51.28292189 0 20190.63674848 0 583.90160894 0 10885.15578252 0 510
0.02350000 0.02348930 55768.97831899 0 77.84456399 0 6859.96076846 0 1208.21953955 0 -397.95436474 0 555
0.02450000 0.02439640 56907.82242164 0 599.54574223 0 15541.31789976 0 -1755.68102092 0 -11255.79031093 0 592
0.02550000 0.02547300 57126.42991348 0 524.02467309 0 13470.48051756 0 -4209.79689606 0 -9010.07802645 0 837
0.02650000 0.02652900 56311.33784976 0 -774.71456123 0 11515.76796740 0 -205.03075767 0 -22826.57061520 0 723
0.02750000 0.02749970 54816.24450114 0 -266.99394766 0 14382.73146655 0 -1028.29148794 0 -8365.85694291 0 826
0.02850000 0.02848090 58685.85220440 0 -120.27404883 0 5334.73263773 0 1178.49513173 0 -21068.28316300 0 831
0.02950000 0.02946900 59927.28987882 0 -365.09558466 0 12459.51791572 0 4291.07318730 0 -3980.46421676 0 996
0.03050000 0.03053250 57870.53831674 0 -432.78737788 0 11663.05906287 0 4791.57454078 0 -3952.58094764 0 1041
0.03150000 0.03150510 59834.34564839 0 1220.27567064 0 6274.04610728 0 2310.50705706 0 8269.09734073 0 1036
0.03250000 0.03246190 56955.51456851 0 564.32786456 0 12367.57189302 0 5321.50083977 0 9251.68866077 0 1059
0.03350000 0.03345080 56768.51698797 0 1961.63345705 0 8838.40848008 0 213.63641738 0 11035.87405784 0 1302
0.03450000 0.03451200 53148.23939210 0 2124.62968740 0 14932.74392321 0 -349.94057315 0 19400.72170183 0 1339
0.03550000 0.03553350 52430.52803758 0 2081.35183691 0 12556.67680099 0 1275.33237229 0 17565.01769493 0 1365
0.03650000 0.03647120 47975.97060726 0 1079.52838136 0 18686.78135427 0 1829.72585175 0 19084.28985290 0 1308
0.03750000 0.03744890 49715.51393662 0 2344.77885563 0 16346.09515032 0 1280.36777570 0 21661.10763988 0 1579
0.03850000 0.03847530 45090.59572118 0 1042.80321003 0 17623.24647891 0 3480.40651116 0 18537.49384335 0 1662
0.03950000 0.03950240 45761.39131261 0 -166.73729108 0 16025.89229443 0 4180.02812345 0 23222.63725822 0 1683
0.04050000 0.04050350 42601.28747812 0 -148.96142973 0 13780.03582438 0 1460.18935182 0 15024.80085788 0 1822
0.04150000 0.04152450 46607.64963976 0 657.12458207 0 11668.71557332 0 4457.77387743 0 24727.15812425 0 1887
0.04250000 0.04250150 43681.90279679 0 -535.38649525 0 9278.28535105 0 1169.89945410 0 12866.23210782 0 1920
0.04350000 0.04349210 43015.32186020 0 1314.39556794 0 10524.61424332 0 -1337.55398717 0 19350.47857966 0 2005
0.04450000 0.04448520 41194.36914524 0 2334.97423752 0 12244.23778296 0 -5165.55861068 0 6400.81848839 0 2151
0.04550000 0.04548030 39095.58194673 0 2215.35567844 0 17418.17024734 0 -3053.27342548 0 12070.77146269 0 2274
0.04650000 0.04648670 35342.76454733 0 1494.26150885 0 16873.70338915 0 8.23159800 0 5963.41495435 0 2311
0.04750000 0.04749250 36052.71206398 0 0.13420126 0 18305.24417926 0 988.37870660 0 5549.00347157 0 2568
0.04850000 0.04851840 34643.57549171 0 -575.58099299 0 13159.37244316 0 4104.68562258 0 4814.72186881 0 2493
0.04950000 0.04949480 37401.51252486 0 -800.72452720 0 15848.43314325 0 4659.91094181 0 7110.89909941 0 2644
0.05050000 0.05050630 36681.80475489 0 -394.27763295 0 9424.85551872 0 -54.97185399 0 3942.54341440 0 2829
0.05150000 0.05149060 37425.69133420 0 796.12611694 0 12106.59602883 0 -1878.38293276 0 2801.98017623 0 2784
0.05250000 0.05249300 36351.28708583 0 1565.11207495 0 12225.27183618 0 -3613.34559778 0 2228.24364929 0 3055
0.05350000 0.05348950 34000.72971659 0 741.04168730 0 15126.83986980 0 -1978.71390035 0 -1316.40307459 0 3009
0.05450000 0.05448610 34104.54332003 0 -262.14598547 0 13824.28970020 0 2820.40265436 0 -3754.11506944 0 3336
0.05550000 0.05550870 34850.98087464 0 229.42695447 0 13195.30792127 0 249.24803254 0 -8263.98429894 0 3349
0.05650000 0.05647670 33199.16891315 0 1112.59123947 0 11524.30818905 0 -1657.03591526 0 -5408.54455342 0 3324
0.05750000 0.05747970 32295.79092171 0 691.41190832 0 13653.26344326 0 -689.16483181 0 -6527.10285685 0 3639
0.05850000 0.05849280 31669.36011808 0 -100.20807713 0 11713.19127308 0 1783.40901329 0 -6770.37717071 0 3846
0.05950000 0.05951020 32496.54158648 0 -934.81598918 0 11249.02468080 0 2154.24318325 0 -6855.75720482 0 3787
0.06050000 0.06049470 33707.36755731 0 -533.02185206 0 8710.39388491 0 1202.17483722 0 -8646.36440493 0 3930
0.06150000 0.06148310 33292.00223160 0 552.82851157 0 8395.38170918 0 -95.30055522 0 -5500.97858879 0 4083
0.06250000 0.06249100 32281.48327765 0 674.44792258 0 11217.08203358 0 -1550.79333969 0 -6616.45353946 0 4303
0.06350000 0.06350600 33091.69521472 0 654.92630683 0 9400.13324072 0 531.99480722 0 -2628.19221124 0 4470
0.06450000 0.06451750 31497.89021326 0 671.80156299 0 12995.55546423 0 417.03455085 0 -2792.59702361 0 4479
0.06550000 0.06550280 30140.32770679 0 479.29054844 0 12120.46002502 0 123.50047802 0 -487.16973475 0 4636
0.06650000 0.06648880 29978.95079120 0 426.98779099 0 11619.91430674 0 2797.07786718 0 1429.30036832 0 4653
0.06750000 0.06749660 30210.53498348 0 65.13139040 0 11956.31031018 0 1098.90026595 0 856.60086830 0 5220
0.06850000 0.06852730 29584.76965166 0 -26.88971971 0 10693.54426404 0 654.30298157 0 4542.64371648 0 5029
0.06950000 0.06949320 29681.04124117 0 139.30987015 0 10239.31538422 0 1381.27548554 0 2084.22445692 0 5040
0.07050000 0.07048030 29610.05758070 0 -9.86429983 0 9514.81621717 0 217.33644068 0 3674.38045458 0 5475
0.07150000 0.07148790 30020.09913188 0 -241.82802178 0 9734.81010864 0 1476.49341134 0 2613.10818340 0 5509
0.07250000 0.07249820 29395.44291975 0 780.09711911 0 8148.86876581 0 -753.46826436 0 2756.67263669 0 5916
0.07350000 0.07351270 28061.50466279 0 918.50194759 0 10234.42416637 0 -434.74497414 0 2308.31100006 0 5721
0.07450000 0.07449140 27060.30231427 0 1016.94630258 0 10174.27660532 0 -726.36359726 0 1793.55745850 0 6028
0.07550000 0.07549160 26872.75017388 0 480.62925591 0 11828.53972134 0 443.51145621 0 2867.64006216 0 6183
0.07650000 0.07648840 25973.58683729 0 -138.40482848 0 9608.29282505 0 875.37826474 0 1361.59970215 0 6330
0.07750000 0.07749960 25877.98071959 0 285.76579849 0 10483.38826426 0 285.65821388 0 3137.82161982 0 6583
0.07850000 0.07848650 25268.18671138 0 587.26002337 0 9442.62361623 0 670.01144380 0 954.85889119 0 6549
0.07950000 0.07947320 24999.22518539 0 292.99836802 0 10819.21861666 0 -290.12242065 0 3570.98831663 0 6828
0.08050000 0.08048110 24917.37215191 0 45.44950685 0 9173.35153672 0 697.70727170 0 1198.54801582 0 7147
0.08150000 0.08149960 24978.48464709 0 -226.38242091 0 9551.36171111 0 -81.79768841 0 1732.74442563 0 7386
0.08250000 0.08250610 24758.76803555 0 -85.22320458 0 8547.86348483 0 842.52613938 0 541.56429195 0 7227
0.08350000 0.08350160 25614.45388010 0 91.14168910 0 7393.52498005 0 723.29688130 0 2081.78439359 0 7798
0.08450000 0.08449610 24507.21968876 0 132.77271867 0 7556.95376708 0 -155.56291016 0 -484.71747111 0 7371
0.08550000 0.08548940 24495.68484394 0 742.14304316 0 7645.23969479 0 239.86155256 0 -268.30714537 0 8256
0.08650000 0.08650700 23922.49178565 0 19.83338929 0 7110.68836667 0 1096.44578407 0 672.23411967 0 8037
0.08750000 0.08749060 23057.04568778 0 156.38809521 0 6489.40387842 0 75.71416688 0 -1070.61993198 0 8155
0.08850000 0.08849210 23198.68027281 0 555.48707148 0 5960.78634067 0 -213.76618438 0 -471.74631628 0 8718
0.08950000 0.08949900 21982.75235138 0 687.76734100 0 6256.22255378 0 -246.41866820 0 -2216.32061257 0 8571
0.09050000 0.09049190 21154.68358722 0 604.49463431 0 5287.09594684 0 -194.90227661 0 -1483.99106048 0 8932
0.09150000 0.09150830 20142.50095373 0 485.24873944 0 5801.48347890 0 639.09473231 0 -2353.68508678 0 9285
0.09250000 0.09250820 19707.50420942 0 421.72390892 0 5257.44917740 0 -113.67145928 0 -3077.86260912 0 9204
0.09350000 0.09350330 19234.90830746 0 165.23443390 0 4265.21960721 0 775.81702621 0 -3099.45716957 0 9349
0.09450000 0.09448040 18475.82678832 0 145.04734633 0 3861.79950061 0 575.74403358 0 -3387.44009834 0 9564
0.09550000 0.09549270 18497.67644631 0 241.39990158 0 2950.15856745 0 -117.75191064 0 -2254.21923254 0 10155
0.09650000 0.09649430 18170.48613633 0 47.13902889 0 3362.37399323 0 501.35093917 0 -3618.56955154 0 9913
0.09750000 0.09749140 18322.21371059 0 235.97408803 0 3131.66600551 0 217.14012649 0 -2659.89085212 0 10476
0.09850000 0.09850240 17449.11468682 0 190.04987795 0 2522.94784340 0 100.87909455 0 -2095.34892746 0 10575
0.09950000 0.09950330 17500.24510475 0 42.20400080 0 3102.75125507 0 638.44589729 0 -853.80588667 0 10882
0.10050000 0.10051200 17452.66386985 0 198.55128041 0 3170.86229553 0 362.84296256 0 -358.88562349 0 10875
0.10150000 0.10150300 16926.71931056 0 485.34412374 0 3183.90554314 0 -445.47016159 0 -693.18095423 0 11118
0.10250000 0.10250800 16803.71793640 0 408.64406036 0 4942.66991681 0 -798.53179756 0 459.90313618 0 11575
0.10350000 0.10349800 16133.92055270 0 326.28083182 0 4582.73839345 0 -142.50191663 0 -395.53204733 0 11364
0.10450000 0.10450100 16037.98169910 0 155.90895550 0 5359.17763581 0 -518.06648209 0 178.75238474 0 12093
0.10550000 0.10551000 16159.65212962 0 124.29017124 0 5283.18075432 0 -193.73659181 0 -955.01638618 0 12067
0.10650000 0.10649700 16086.67205370 0 158.26250749 0 6447.33496840 0 71.33891151 0 -124.84251285 0 12054
0.10750000 0.10749900 15763.03092675 0 -73.25303028 0 4679.90836991 0 409.37497024 0 -1075.20614191 0 12807
0.10850000 0.10850100 15673.19223147 0 105.41816690 0 5904.91998164 0 43.20531406 0 -758.00789127 0 12736
0.10950000 0.10950300 15398.57419503 0 590.71160386 0 5478.09744948 0 -746.21462156 0 -1170.68692908 0 12933
0.11050000 0.11050200 14805.74971815 0 355.99747581 0 5462.66959453 0 190.09535185 0 -1860.42628490 0 13428
0.11150000 0.11150900 14443.17848991 0 -98.05583036 0 5387.64873837 0 867.77303099 0 305.03564407 0 13453
0.11250000 0.11250000 14740.53348010 0 -313.37844241 0 4526.56148090 0 1081.38837509 0 -1513.95947463 0 13668
0.11350000 0.11349100 14852.99821715 0 238.92656466 0 4484.14874377 0 257.98345926 0 -376.32431245 0 13791
0.11450000 0.11448600 14481.55403136 0 290.81118398 0 4220.61081309 0 -111.10162895 0 -375.67658655 0 14205
0.11550000 0.11549300 14087.81653969 0 425.54482627 0 4284.70684025 0 -677.39152625 0 77.73653573 0 14776
0.11650000 0.11649800 13767.50277183 0 125.21074059 0 5101.32948915 0 38.25353827 0 -203.15634538 0 14553
0.11750000 0.11747300 13804.43645767 0 -1.06867565 0 5342.07501011 0 -164.16080603 0 -495.28516356 0 14568
0.11850000 0.11849100 13730.12543811 0 -7.95978604 0 5075.81973617 0 280.48306138 0 -669.12414805 0 16015
0.11950000 0.11950300 13873.53461465 0 -46.36231236 0 4831.73576493 0 295.38186624 0 -772.40759227 0 15270
0.12050000 0.12050700 13923.77773683 0 -26.83681470 0 4359.37277810 0 -95.67532676 0 -1079.25664704 0 15999
0.12150000 0.12150000 14022.82212558 0 107.90093133 0 4574.90800840 0 23.01068448 0 -1454.83230370 0 15670
0.12250000 0.12250700 13728.68358251 0 166.51990362 0 4411.03557349 0 42.98859208 0 -887.45879645 0 16887
0.12350000 0.12352200 13684.65153063 0 52.09801395 0 4245.05581116 0 173.53064921 0 -1357.25195295 0 16407
0.12450000 0.12449800 13295.01778183 0 171.36786581 0 4085.13184236 0 300.31523065 0 -1111.69285251 0 16306
0.12550000 0.12549900 13441.19975761 0 147.26669484 0 3852.56053356 0 261.94301657 0 -989.34585898 0 17523
0.12650000 0.12650100 12851.36990391 0 197.55307268 0 3605.52630393 0 652.68033945 0 -216.74860724 0 17154
0.12750000 0.12750600 12834.62219651 0 115.31739291 0 3892.79939608 0 10.09333305 0 -314.94562854 0 18007
0.12850000 0.12850300 12536.04717467 0 184.80928739 0 3756.24457926 0 164.31164631 0 -36.36803479 0 17496
0.12950000 0.12949900 12458.51970800 0 164.75862155 0 3871.69284829 0 8.35595250 0 711.18973071 0 18405
0.13050000 0.13049000 12348.60594624 0 -123.03686599 0 3285.46763359 0 629.78256335 0 662.62581576 0 18100
0.13150000 0.13148800 12383.32139269 0 3.43793832 0 4002.90170819 0 228.37994548 0 1238.95324630 0 19059
0.13250000 0.13249300 12511.53562941 0 117.98482578 0 3395.14848021 0 -108.09680187 0 530.88125105 0 18957
0.13350000 0.13349100 12121.34732077 0 260.06860428 0 3659.28533554 0 -396.45594403 0 1216.79303480 0 19468
0.13450000 0.13450700 11978.27088014 0 240.45271336 0 4344.05583512 0 -423.67928694 0 899.17664603 0 19953
0.13550000 0.13551000 11748.01763150 0 76.80753707 0 4324.56860208 0 31.69841905 0 432.14741581 0 19956
0.13650000 0.13649900 11822.99412287 0 21.52734780 0 4083.20197409 0 544.03984711 0 394.18890338 0 19723
0.13750000 0.13749600 11779.51663083 0 -20.41135157 0 3983.04846565 0 259.07372392 0 149.26643765 0 20946
0.13850000 0.13851100 11643.09490837 0 198.43593196 0 3649.03706956 0 79.38956772 0 689.56189666 0 20955
0.13950000 0.13949800 11518.87350255 0 81.30135734 0 3621.80818105 0 42.93679619 0 721.20729980 0 20506
0.14050000 0.14048300 11405.29964580 0 -21.06417942 0 3572.21943949 0 328.52014449 0 508.57907222 0 21447
0.14150000 0.14148400 11409.18156473 0 73.76621996 0 3088.42142861 0 341.67319495 0 407.23991483 0 21771
0.14250000 0.14249400 11273.75804999 0 80.26787961 0 3144.82016509 0 107.95439090 0 933.83109089 0 22470
0.14350000 0.14350900 11126.91060240 0 235.40510963 0 2807.31504196 0 -82.92377763 0 494.87257103 0 22519
0.14450000 0.14449900 10916.48841389 0 169.71749570 0 3573.69456869 0 -26.68797083 0 789.24292012 0 22218
0.14550000 0.14550500 10534.40777022 0 211.00891282 0 3167.06910617 0 -58.63394540 0 743.74350288 0 23559
0.14650000 0.14650700 10350.09425934 0 205.24703601 0 3424.88397923 0 -221.05310078 0 153.93361332 0 23044
0.14750000 0.14750500 10166.06911957 0 134.48187212 0 3450.68210333 0 16.63269168 0 574.49183745 0 23649
0.14850000 0.14849900 10023.64705956 0 -10.91099827 0 3304.11193566 0 445.18511783 0 385.47454994 0 23640
0.14950000 0.14949500 10119.87428429 0 -61.91915794 0 3009.16373522 0 490.89970429 0 610.67132189 0 24457
0.15050000 0.15050000 10237.31896877 0 -31.67934220 0 2731.46234603 0 243.50944724 0 310.90843285 0 24591
0.15150000 0.15149900 10144.53001510 0 139.25774152 0 2327.74277711 0 230.31646847 0 1248.73568201 0 25020
0.15250000 0.15250500 9974.28014195 0 214.30743479 0 2483.08608157 0 -32.39727537 0 1067.05411216 0 25297
0.15350000 0.15350100 9680.09723409 0 174.92703091 0 2615.71461468 0 -194.40206363 0 882.17605935 0 25452
0.15450000 0.15450400 9566.83393086 0 159.72876373 0 2859.65440036 0 -110.28210041 0 1272.79248819 0 26061
0.15550000 0.15549900 9395.15329329 0 116.12372293 0 3005.68109938 0 -171.03956638 0 499.70167819 0 26128
0.15650000 0.15649500 9242.46078491 0 112.28727790 0 2980.74808864 0 37.41016366 0 545.23325990 0 26331
0.15750000 0.15749700 9257.11225608 0 -8.34604807 0 3077.96242989 0 -394.65695189 0 -107.87009781 0 27345
0.15850000 0.15849900 9232.85580835 0 80.21064903 0 2994.60099363 0 -63.49244423 0 -177.98487391 0 26980
0.15950000 0.15949700 9171.54367162 0 110.27189651 0 3292.66582041 0 -120.03669721 0 -746.48746500 0 27777
0.16050000 0.16050000 9039.24787442 0 34.60808366 0 2735.99864558 0 71.21502284 0 -819.88013345 0 28224
0.16150000 0.16150500 9137.57133537 0 -12.53726721 0 3208.50581797 0 409.99718639 0 -761.51270951 0 28075
0.16250000 0.16249700 8954.97696001 0 -26.29179328 0 2118.51843788 0 508.27960991 0 -958.16517700 0 28590
0.16350000 0.16349900 8897.82402214 0 40.35365642 0 2213.01543588 0 610.65468510 0 8.70428264 0 29163
0.16450000 0.16449100 8921.20426530 0 71.65944710 0 1620.15768541 0 301.10381475 0 -60.46698752 0 28996
0.16550000 0.16550500 8678.07413700 0 -5.22126969 0 1549.89495274 0 506.25213910 0 694.90896271 0 30777
0.16650000 0.16650700 8771.63947446 0 130.17626946 0 1096.42471080 0 14.05299018 0 443.27188635 0 29211
0.16750000 0.16749900 8449.77293902 0 284.55463978 0 1477.59143984 0 -596.63097568 0 624.69281307 0 30922
0.16850000 0.16850800 8098.64782603 0 328.96379236 0 1810.66008419 0 -438.18324519 0 229.61994130 0 30867
0.16950000 0.16949900 7912.38226448 0 101.71636900 0 2344.81212922 0 -274.11782346 0 392.52744207 0 30852
0.17050000 0.17049200 7897.65315494 0 54.78297091 0 2498.79121645 0 -3.58383192 0 -158.55975157 0 31257
0.17150000 0.17149500 7816.19940455 0 -20.42066817 0 2518.68882377 0 99.73537032 0 -60.38358172 0 32608
0.17250000 0.17250900 7965.10981478 0 26.40015427 0 2432.22185237 0 67.81978563 0 107.40293659 0 32361
0.17350000 0.17350400 7912.17153174 0 -4.51530392 0 2660.90015105 0 -66.86050800 0 -31.02429610 0 32508
0.17450000 0.17449800 7991.17412760 0 -2.80824670 0 2446.66259079 0 43.75643564 0 181.23903109 0 32791
0.17550000 0.17549800 8013.36761270 0 60.26202220 0 2768.39603187 0 57.61166978 0 382.45885349 0 33633
0.17650000 0.17650100 7892.27392442 0 79.25758248 0 2411.33712851 0 -33.19384514 0 48.52110294 0 33984
0.17750000 0.17750300 7975.94591419 0 -41.86194829 0 2477.48502711 0 361.20146541 0 683.04803670 0 34069
0.17850000 0.17849800 7943.93671980 0 -29.58454783 0 2209.93208313 0 375.87179162 0 408.73944465 0 34536
