### header ###
fiducial parameters:
Omega_m = 0.31
Omega_nu = 0
Omega_de = 0.69
Omega_k = 0
H_0 = 100
w_de = -1
zeff = 0
beta = 0
fgrowth = 0
b_1 = 2
gamma = 0.55
Lx = 3500 Ly = 3500 Lz = 3500
nx = 700 ny = 700 nz = 700
xoffset = 1379.75464 yoffset = 22.6059522 zoffset = 368.141391
bins = 400 dk = 0.001
kx_ny = 0.628318531 ky_ny = 0.628318531 kz_ny = 0.628318531
############################
A(data) = 3.36846032 (not used)
A(ran) = 3.37380445 (used)
Ngal = 189454
weighted Ngal = 0
Nran = 9399747
weighted Nran = 0
SN(data) = 6611.48883
SN(ran) = 134.194364
SN(data+ran) = 6745.6832
############################
13 columns: k_central k_mean P_0(k) sigma^{lin}_{P_0(k)} P^img_1(k) sigma^{lin}_{P_1(k)} P_2(k) sigma^{lin}_{P_2(k)} P^img_3(k) sigma^{lin}_{P_3(k)} P_4(k) sigma^{lin}_{P_4(k)} N_modes
### header ###
0.00050000 0 0 0 0 0 0 0 0 0 0 0 0
0.00150000 0.00179520 38956.83107291 0 -37748.44516540 0 -40463.23744241 0 52270.81480152 0 96799.41957334 0 3
0.00250000 0.00253879 64557.19913289 0 -43631.54876264 0 -43949.64429112 0 -15806.84115470 0 -11218.74571313 0 6
0.00350000 0.00331552 98716.86570175 0 -31395.29664149 0 -54480.18123361 0 -62340.84524672 0 -55944.77379062 0 7
0.00450000 0.00420575 125568.98624930 0 -10701.10846036 0 -65450.26231116 0 -46585.79998177 0 -8404.87577377 0 24
0.00550000 0.00557378 102322.83565355 0 18078.20737772 0 -28046.86428282 0 -62063.23258711 0 5289.11454468 0 45
0.00650000 0.00659388 91988.05833720 0 20042.79109316 0 6790.68515232 0 -32597.58239067 0 -18411.38693405 0 40
0.00750000 0.00754703 66581.56439988 0 2324.42650923 0 16399.55471961 0 20949.82917959 0 -23930.14471155 0 57
0.00850000 0.00846663 70322.51421854 0 -7433.58638343 0 -5378.48740969 0 16512.46310454 0 -11188.79948137 0 75
0.00950000 0.00948925 88336.83630184 0 -18701.53264622 0 -19845.36778749 0 15551.52180095 0 -20758.50603223 0 112
0.01050000 0.01054430 90422.53588796 0 6500.12906587 0 -27545.20944485 0 -19310.99391852 0 -7828.51063316 0 105
0.01150000 0.01145670 83454.93505311 0 12645.40637658 0 -11307.58620068 0 -40759.92696078 0 -10741.09222535 0 144
0.01250000 0.01249090 74274.08586725 0 4349.47943043 0 4754.43012220 0 -5109.03787103 0 -10739.98310566 0 169
0.01350000 0.01339930 63371.77200306 0 -1721.73086706 0 9928.17403623 0 3199.05611817 0 -8284.90229638 0 180
0.01450000 0.01448870 76085.72197678 0 -1149.01473025 0 11764.21077904 0 2952.52099240 0 -8780.05769294 0 267
0.01550000 0.01550050 83117.54084195 0 -222.25205917 0 -3094.08903025 0 -11228.94961432 0 -25195.20663546 0 238
0.01650000 0.01653350 80093.41508205 0 -182.70195997 0 10000.97665300 0 5090.87049043 0 3948.36629279 0 315
0.01750000 0.01747870 71797.53250069 0 1452.03732207 0 20290.01387314 0 -7767.20958763 0 -15012.48962927 0 297
0.01850000 0.01844180 81190.22354826 0 3186.60070400 0 26545.11621603 0 3676.55432918 0 4874.63651473 0 388
0.01950000 0.01947590 73526.53919294 0 1188.22211146 0 15877.71390320 0 3962.37447454 0 5869.72761373 0 399
0.02050000 0.02045430 73779.30757139 0 2798.90791467 0 32056.44289157 0 2750.59466077 0 18476.38134817 0 462
0.02150000 0.02154770 71958.46576840 0 3265.45911430 0 30865.69198721 0 -1911.80070916 0 16524.88524513 0 571
0.02250000 0.02255340 68286.05954688 0 329.10132321 0 33929.52423219 0 3480.69488228 0 8332.76081121 0 510
0.02350000 0.02348930 67417.17517795 0 1510.06646450 0 47387.36078522 0 -998.76006695 0 6570.34743375 0 555
0.02450000 0.02439640 71291.55209591 0 -442.40455475 0 26645.82428432 0 469.52918601 0 2108.79145816 0 592
0.02550000 0.02547300 69262.75035014 0 101.73034391 0 43100.16951685 0 2520.46341529 0 5376.56863262 0 837
0.02650000 0.02652900 66516.12633788 0 3100.34446533 0 29722.74414169 0 -1256.95425895 0 -7546.33949160 0 723
0.02750000 0.02749970 66107.97029019 0 3068.84546600 0 45991.20091338 0 -1554.07633399 0 -7374.94722516 0 826
0.02850000 0.02848090 60039.75461587 0 3158.86162043 0 33582.14794377 0 3465.91031674 0 -8555.57186671 0 831
0.02950000 0.02946900 63838.71139458 0 1673.00723887 0 49071.55904181 0 1581.97069432 0 2186.62947834 0 996
0.03050000 0.03053250 56686.99669040 0 706.56248335 0 34489.74059004 0 2764.24792421 0 -3488.60290570 0 1041
0.03150000 0.03150510 56640.08092731 0 2640.55889584 0 43546.59019402 0 3776.87420558 0 -3163.42010238 0 1036
0.03250000 0.03246190 54090.99113270 0 2453.36167375 0 41878.80690892 0 4323.96967745 0 8180.23467078 0 1059
0.03350000 0.03345080 51581.82964710 0 -280.06603238 0 36287.17996747 0 10773.57834122 0 7817.46380100 0 1302
0.03450000 0.03451200 51386.84640475 0 -60.60074736 0 35596.86386941 0 6230.82371277 0 14942.39326455 0 1339
0.03550000 0.03553350 52926.30454116 0 199.07256666 0 30198.33466683 0 7849.30662744 0 15517.58273829 0 1365
0.03650000 0.03647120 50931.44185806 0 75.52273282 0 28635.80684077 0 1452.37005798 0 9790.14409021 0 1308
0.03750000 0.03744890 51908.24357328 0 1929.53553308 0 28571.25607453 0 414.41591925 0 19324.08153092 0 1579
0.03850000 0.03847530 48442.79908681 0 2248.61817809 0 26735.44115566 0 523.06417544 0 11870.13170990 0 1662
0.03950000 0.03950240 44420.24377763 0 3089.08690043 0 26490.99117492 0 2002.82616252 0 15115.97049679 0 1683
0.04050000 0.04050350 41513.24105750 0 1285.10371680 0 29086.88582065 0 1940.22744694 0 11275.08899362 0 1822
0.04150000 0.04152450 41108.19054495 0 -806.61838926 0 22036.43374461 0 6608.84497836 0 14036.46429782 0 1887
0.04250000 0.04250150 42152.42673763 0 -1463.48343732 0 23238.94131773 0 9078.68817077 0 17521.54020289 0 1920
0.04350000 0.04349210 42445.12342509 0 -891.31742387 0 12642.63357734 0 3466.90852447 0 15678.95965389 0 2005
0.04450000 0.04448520 43265.65017532 0 437.26711232 0 16282.20985590 0 1630.45031618 0 19299.23724975 0 2151
0.04550000 0.04548030 41730.40669375 0 1756.83450540 0 12175.91600976 0 -1874.45664904 0 16517.89779105 0 2274
0.04650000 0.04648670 40342.78704356 0 1771.23087904 0 18477.71229180 0 -2963.96710766 0 15289.99137691 0 2311
0.04750000 0.04749250 38243.77802111 0 1439.70391106 0 19510.41363965 0 -1776.75429512 0 12229.81922693 0 2568
0.04850000 0.04851840 38673.56190285 0 397.05375955 0 21743.40432123 0 -829.20117536 0 11573.33127956 0 2493
0.04950000 0.04949480 36733.82246857 0 53.94370004 0 20901.47156089 0 3295.49407563 0 7655.69869351 0 2644
0.05050000 0.05050630 38029.82883197 0 -376.21783696 0 18416.26706071 0 2438.85438814 0 6398.10114514 0 2829
0.05150000 0.05149060 38285.14818572 0 -388.51131966 0 17643.09972145 0 3297.34630552 0 7912.17153174 0 2784
0.05250000 0.05249300 36741.14265856 0 630.36817855 0 13548.11889619 0 800.12560256 0 4512.09856008 0 3055
0.05350000 0.05348950 37517.08279706 0 669.09087446 0 14263.27927541 0 -1311.24566801 0 3501.22468783 0 3009
0.05450000 0.05448610 34981.96791060 0 1159.82864727 0 13055.78066366 0 -588.45232705 0 1785.56070550 0 3336
0.05550000 0.05550870 34080.80815856 0 1258.79539764 0 14099.01864861 0 304.73174527 0 2573.35733353 0 3349
0.05650000 0.05647670 32609.22814747 0 296.54755104 0 14838.80148506 0 254.76479390 0 -440.04212980 0 3324
0.05750000 0.05747970 32567.30342300 0 -129.64389201 0 11652.52242577 0 3270.79398003 0 -973.74498135 0 3639
0.05850000 0.05849280 32455.06050989 0 120.87740994 0 11529.96469949 0 298.72364389 0 -695.12745929 0 3846
0.05950000 0.05951020 32453.17500641 0 -12.11935091 0 10424.79347079 0 855.22334164 0 1235.22660412 0 3787
0.06050000 0.06049470 31812.21473477 0 226.66302819 0 10447.66351889 0 1437.55221885 0 -1069.66387080 0 3930
0.06150000 0.06148310 31334.84961812 0 491.16256566 0 8694.27837574 0 943.47155928 0 3213.82959250 0 4083
0.06250000 0.06249100 30826.09641410 0 77.08348605 0 9293.22519334 0 536.69747473 0 902.66926395 0 4303
0.06350000 0.06350600 31459.84740772 0 139.79233722 0 7232.70262430 0 3421.71189691 0 4885.97171801 0 4470
0.06450000 0.06451750 30610.70536937 0 -22.51435342 0 8846.39414189 0 251.67589555 0 3678.78365977 0 4479
0.06550000 0.06550280 30338.97104414 0 900.26912893 0 6200.28964757 0 -867.67210110 0 3482.83548329 0 4636
0.06650000 0.06648880 29718.86222276 0 845.57732766 0 8971.93540014 0 -1054.60313446 0 4207.13500879 0 4653
0.06750000 0.06749660 28746.82972222 0 161.07412592 0 8095.44247011 0 37.07188215 0 3411.04216544 0 5220
0.06850000 0.06852730 28559.16666986 0 -359.40801887 0 8404.13266358 0 1750.01341928 0 3702.38572688 0 5029
0.06950000 0.06949320 29365.94033587 0 -369.34905869 0 6909.02822376 0 812.48230508 0 1148.20507287 0 5040
0.07050000 0.07048030 29278.20896801 0 526.23625776 0 8474.81686173 0 -1146.58575811 0 875.41153833 0 5475
0.07150000 0.07148790 28640.35423152 0 809.35458754 0 7120.67044393 0 -723.83147700 0 1168.18031857 0 5509
0.07250000 0.07249820 28067.27208520 0 78.74195273 0 8922.79030647 0 40.25627571 0 1753.08568083 0 5916
0.07350000 0.07351270 27621.18414395 0 292.32180501 0 8018.64702244 0 743.67917393 0 222.67130641 0 5721
0.07450000 0.07449140 26788.67890101 0 729.38373019 0 10316.78739490 0 -161.78839900 0 772.08372932 0 6028
0.07550000 0.07549160 26191.08520944 0 949.39314933 0 8988.64983394 0 12.16648849 0 2186.99548784 0 6183
0.07650000 0.07648840 25193.54295592 0 625.63445569 0 10795.40581681 0 -379.36551866 0 2135.58778999 0 6330
0.07750000 0.07749960 24649.07609773 0 497.48343880 0 10172.28018987 0 -366.38659999 0 3290.31448666 0 6583
0.07850000 0.07848650 24094.95989820 0 599.36162836 0 12333.30009445 0 871.59394834 0 2182.86956258 0 6549
0.07950000 0.07947320 23382.68323018 0 256.80446502 0 11463.41751780 0 -367.73307130 0 4693.73909250 0 6828
0.08050000 0.08048110 23429.48808130 0 603.36222310 0 12321.09977781 0 -104.65753261 0 3086.48046915 0 7147
0.08150000 0.08149960 22889.79043780 0 143.75300365 0 10704.60218740 0 785.57062481 0 3303.37991666 0 7386
0.08250000 0.08250610 22732.40635311 0 -414.66547118 0 12277.28954987 0 1794.06765356 0 4004.47665816 0 7227
0.08350000 0.08350160 22841.32190714 0 54.83088488 0 9563.76166930 0 590.54745415 0 3392.74169048 0 7798
0.08450000 0.08449610 23160.41564334 0 361.34232362 0 10592.66982779 0 311.86782139 0 3555.56046168 0 7371
0.08550000 0.08548940 22142.46558743 0 297.72321792 0 9316.84944284 0 -146.74540858 0 1838.16625262 0 8256
0.08650000 0.08650700 21793.64744341 0 487.36383070 0 9780.87184956 0 -536.59543571 0 2546.57209290 0 8037
0.08750000 0.08749060 21321.82792523 0 401.53571224 0 9916.27318191 0 -743.30207324 0 -293.87679082 0 8155
0.08850000 0.08849210 20865.64699475 0 422.67664274 0 10276.40434682 0 659.64117466 0 -271.90291143 0 8718
0.08950000 0.08949900 20348.13174515 0 126.58937637 0 9324.15854163 0 101.55310659 0 -770.46552368 0 8571
0.09050000 0.09049190 20264.50412016 0 37.18246139 0 8404.43212589 0 1309.37125572 0 -700.40465080 0 8932
0.09150000 0.09150830 20105.78909183 0 3.36177507 0 7542.33556950 0 1295.15234123 0 -182.89494680 0 9285
0.09250000 0.09250820 19701.40405110 0 246.72034875 0 6680.38319867 0 967.20117515 0 224.49691743 0 9204
0.09350000 0.09350330 19669.12866798 0 317.69402715 0 6716.15230883 0 989.82278045 0 1394.57383068 0 9349
0.09450000 0.09448040 18805.23533768 0 350.19123420 0 6334.33785389 0 -20.12109494 0 1480.31987429 0 9564
0.09550000 0.09549270 18382.99346986 0 188.92744882 0 5625.39963615 0 1245.53032609 0 2286.66098362 0 10155
0.09650000 0.09649430 18139.31987291 0 -46.32571141 0 6422.57941681 0 -285.91663877 0 2833.24626042 0 9913
0.09750000 0.09749140 18656.94603448 0 9.20386342 0 5014.59632902 0 681.04607565 0 2863.85796400 0 10476
0.09850000 0.09850240 18837.06707292 0 -9.01359394 0 6451.80472077 0 66.62548554 0 2867.09659351 0 10575
0.09950000 0.09950330 18379.00063896 0 -25.13254137 0 4374.31262039 0 47.95023903 0 2341.06330465 0 10882
0.10050000 0.10051200 18504.22025251 0 194.28782430 0 6352.39432252 0 -207.79135659 0 1892.73494161 0 10875
0.10150000 0.10150300 18169.82066452 0 517.79918425 0 6047.53059200 0 -983.90562688 0 1437.70749561 0 11118
0.10250000 0.10250800 17906.07200109 0 540.34536940 0 7589.57297731 0 -837.29331266 0 2011.22219861 0 11575
0.10350000 0.10349800 17257.34789159 0 256.15452088 0 7396.46414724 0 -197.47210694 0 568.76434334 0 11364
0.10450000 0.10450100 16938.36506736 0 201.10336483 0 7899.40556405 0 251.50176376 0 1199.53513234 0 12093
0.10550000 0.10551000 16689.70043178 0 271.54133840 0 7780.00882891 0 446.09348686 0 653.45672324 0 12067
0.10650000 0.10649700 16305.16863358 0 96.91576623 0 7294.04803462 0 1106.68295885 0 2165.05710028 0 12054
0.10750000 0.10749900 16282.54259181 0 42.02321429 0 7195.72457367 0 628.93408679 0 1434.19158618 0 12807
0.10850000 0.10850100 16067.37337101 0 232.51918018 0 6723.94942028 0 70.43841723 0 1699.89230027 0 12736
0.10950000 0.10950300 15813.60678484 0 171.03180254 0 6169.13447534 0 438.53039966 0 1851.98588402 0 12933
0.11050000 0.11050200 15687.83261144 0 -75.02052342 0 6302.80558096 0 748.54266380 0 2609.96937466 0 13428
0.11150000 0.11150900 15404.67435336 0 28.52068022 0 4662.41755232 0 506.07689819 0 1842.93546731 0 13453
0.11250000 0.11250000 15635.37124988 0 158.47767671 0 5735.36885390 0 304.72287231 0 1724.71439904 0 13668
0.11350000 0.11349100 15167.32273866 0 436.91663050 0 4834.91893846 0 -432.82286971 0 1787.33529701 0 13791
0.11450000 0.11448600 14883.72083270 0 208.65536083 0 5549.03674517 0 -34.09245392 0 2194.52641057 0 14205
0.11550000 0.11549300 14441.29298643 0 30.65695566 0 5088.69661583 0 521.50475315 0 2082.72714533 0 14776
0.11650000 0.11649800 14639.15993999 0 -209.83102770 0 4388.25425496 0 1217.12577070 0 2147.56628269 0 14553
0.11750000 0.11747300 14769.59241610 0 -8.39030194 0 3991.72178167 0 496.62387103 0 2611.96579011 0 14568
0.11850000 0.11849100 14592.68782478 0 310.42596579 0 3585.30705189 0 -16.96953133 0 2089.40404589 0 16015
0.11950000 0.11950300 14335.15023164 0 135.47009776 0 3547.29751995 0 -14.62285588 0 3496.08946364 0 15270
0.12050000 0.12050700 14031.91690707 0 33.56917124 0 3604.50591381 0 160.62936892 0 2227.47835670 0 15999
0.12150000 0.12150000 14213.59071309 0 210.24251111 0 3522.45323879 0 -77.19916724 0 1915.97099921 0 15670
0.12250000 0.12250700 13508.19058718 0 363.20009910 0 4111.55107349 0 -188.62355002 0 2359.65215073 0 16887
0.12350000 0.12352200 13448.96359548 0 98.89931589 0 3739.11977117 0 362.35384078 0 2519.13247165 0 16407
0.12450000 0.12449800 13109.24023295 0 173.76245523 0 4301.70964517 0 -18.04227190 0 2142.65288244 0 16306
0.12550000 0.12549900 12976.70042942 0 393.73083694 0 3745.46393582 0 -38.10003611 0 2154.62028395 0 17523
0.12650000 0.12650100 12458.51970800 0 52.93739574 0 4539.37181338 0 56.14618993 0 2748.54278933 0 17154
0.12750000 0.12750600 12482.25486947 0 -33.73343187 0 3941.43429470 0 106.38032823 0 1880.76754010 0 18007
0.12850000 0.12850300 12663.81776351 0 17.19479354 0 3846.54910481 0 258.45150777 0 2006.08697442 0 17496
0.12950000 0.12949900 12459.29609179 0 135.49782576 0 3759.68285031 0 -84.70602207 0 1617.62889250 0 18405
0.13050000 0.13049000 12300.80288740 0 73.13779274 0 3312.04214148 0 -0.27228667 0 1363.38538486 0 18100
0.13150000 0.13148800 12489.68597142 0 51.56386191 0 3386.25334026 0 340.70382433 0 1098.10502713 0 19059
0.13250000 0.13249300 12251.44706098 0 56.55445689 0 3170.05263815 0 76.82661393 0 479.96378410 0 18957
0.13350000 0.13349100 11899.63429378 0 220.07042073 0 3157.45303842 0 -124.00401836 0 950.24495326 0 19468
0.13450000 0.13450700 11922.14942358 0 149.78106919 0 3032.35542804 0 101.08073251 0 426.62399973 0 19953
0.13550000 0.13551000 11491.03459821 0 163.71383079 0 2869.80284556 0 -123.09675845 0 156.56999084 0 19956
0.13650000 0.13649900 11403.74687822 0 245.78536085 0 3084.99424875 0 17.11271868 0 230.41074364 0 19723
0.13750000 0.13749600 10943.68402881 0 237.68213236 0 3136.77904731 0 -10.36884947 0 381.49170111 0 20946
0.13850000 0.13851100 10907.98146583 0 101.03825322 0 2962.12596896 0 250.27951385 0 723.81151284 0 20955
0.13950000 0.13949800 10669.80910257 0 -32.14983077 0 2914.82201398 0 324.27997989 0 608.98324172 0 20506
0.14050000 0.14048300 10611.96851048 0 182.05201583 0 3038.17830644 0 97.53443320 0 1144.35642753 0 21447
0.14150000 0.14148400 10668.53361492 0 115.23088157 0 3002.16518994 0 37.96882725 0 1313.43063381 0 21771
0.14250000 0.14249400 10366.68668997 0 87.18634644 0 3467.91782339 0 -192.55537934 0 1192.35912792 0 22470
0.14350000 0.14350900 10458.69925986 0 85.47608387 0 3462.03948901 0 -263.54125805 0 1214.19769471 0 22519
0.14450000 0.14449900 10325.46071092 0 68.76253737 0 3289.10554619 0 24.31523107 0 464.04680736 0 22218
0.14550000 0.14550500 10480.12745236 0 -60.70323002 0 3540.31006587 0 80.36847677 0 665.53947319 0 23559
0.14650000 0.14650700 10403.18781913 0 -31.27273892 0 3442.75189752 0 57.05356075 0 -169.14629906 0 23044
0.14750000 0.14750500 10504.32844410 0 13.56486660 0 3111.43566228 0 124.74712856 0 201.48046552 0 23649
0.14850000 0.14849900 10532.43353717 0 -81.95573796 0 2604.35722900 0 125.51242114 0 -938.94524181 0 23640
0.14950000 0.14949500 10444.49143657 0 129.54628947 0 2707.20589830 0 -147.34655146 0 -389.90326488 0 24457
0.15050000 0.15050000 10425.00420353 0 162.30303054 0 2795.34764045 0 -73.50346950 0 -825.69413889 0 24591
0.15150000 0.15149900 10174.97535072 0 81.57131708 0 2388.18980048 0 120.30066770 0 -772.59281526 0 25020
0.15250000 0.15250500 10084.92592270 0 137.27241727 0 2792.55265882 0 19.21450051 0 -1109.44133953 0 25297
0.15350000 0.15350100 9958.48627749 0 223.12271813 0 2757.19392295 0 -221.15957627 0 -1109.34151876 0 25452
0.15450000 0.15450400 9580.16554959 0 265.10511682 0 2922.36402790 0 -5.03772147 0 -559.80820181 0 26061
0.15550000 0.15549900 9336.70268538 0 56.84171889 0 2979.30623303 0 349.26844662 0 -168.89563801 0 26128
0.15650000 0.15649500 9198.19581789 0 212.03152118 0 2753.19000085 0 213.42013904 0 -173.25780577 0 26331
0.15750000 0.15749700 8991.05662368 0 189.08938029 0 2789.80204198 0 230.04251590 0 152.24996963 0 27345
0.15850000 0.15849900 8603.28619598 0 135.47120688 0 3134.53862552 0 39.61121169 0 755.55562763 0 26980
0.15950000 0.15949700 8659.85130041 0 10.15340297 0 2405.61407089 0 271.36055189 0 585.22700697 0 27777
0.16050000 0.16050000 8654.72716742 0 -105.29516552 0 2580.95480344 0 435.41710067 0 720.46197136 0 28224
0.16150000 0.16150500 8727.27468666 0 -0.56512199 0 1954.06926073 0 73.83798000 0 435.30951606 0 28075
0.16250000 0.16249700 8692.93634091 0 24.27241905 0 1972.53610365 0 258.83082670 0 622.84501966 0 28590
0.16350000 0.16349900 8608.72088248 0 187.01643558 0 1939.52870153 0 -417.93293780 0 422.85410189 0 29163
0.16450000 0.16449100 8462.17289721 0 164.65214606 0 2064.77049747 0 -30.13167657 0 207.29779832 0 28996
0.16550000 0.16550500 8159.21685257 0 119.69397923 0 2064.06066087 0 -12.77317697 0 -103.53421618 0 30777
0.16650000 0.16650700 8174.78889308 0 173.44857436 0 2273.83955995 0 -103.83101661 0 83.11898270 0 29211
0.16750000 0.16749900 7926.73427333 0 60.48395705 0 1995.12887183 0 192.37902931 0 -115.88637131 0 30922
0.16850000 0.16850800 7967.60533409 0 -17.75711723 0 2163.71506545 0 352.92521425 0 278.55984783 0 30867
0.16950000 0.16949900 7807.51499734 0 55.93834090 0 2029.46721759 0 -76.36477649 0 283.51095815 0 30852
0.17050000 0.17049200 7939.58897060 0 64.22690329 0 1914.73987635 0 128.11663419 0 524.80549336 0 31257
0.17150000 0.17149500 7937.65910233 0 -76.39261540 0 1765.33036226 0 53.59255274 0 130.36260157 0 32608
0.17250000 0.17250900 8014.75401232 0 -52.22678275 0 1967.05705236 0 96.20692783 0 651.80635313 0 32361
0.17350000 0.17350400 8113.80949226 0 -29.41762531 0 1786.10417415 0 26.63406762 0 -71.56417372 0 32508
0.17450000 0.17449800 8212.85388101 0 14.06208496 0 1820.17633117 0 -105.94666243 0 660.50185154 0 32791
0.17550000 0.17549800 7977.80923528 0 182.27494889 0 2001.73922522 0 -252.73843222 0 -133.48366439 0 33633
0.17650000 0.17650100 8001.10074887 0 205.39454893 0 2457.44323423 0 -54.09110204 0 658.04182406 0 33984
0.17750000 0.17750300 7796.50143877 0 77.16988648 0 2268.97052449 0 31.68721695 0 416.86818290 0 34069
0.17850000 0.17849800 7620.80578791 0 98.98593814 0 2449.14701891 0 138.84625812 0 628.87641256 0 34536
