### header ###
fiducial parameters:
Omega_m = 0.31
Omega_nu = 0
Omega_de = 0.69
Omega_k = 0
H_0 = 100
w_de = -1
zeff = 0
beta = 0
fgrowth = 0
b_1 = 2
gamma = 0.55
Lx = 3500 Ly = 3500 Lz = 3500
nx = 700 ny = 700 nz = 700
xoffset = 1379.75464 yoffset = 22.6059522 zoffset = 368.141391
bins = 400 dk = 0.001
kx_ny = 0.628318531 ky_ny = 0.628318531 kz_ny = 0.628318531
############################
A(data) = 3.33888563 (not used)
A(ran) = 3.34278609 (used)
Ngal = 187829
weighted Ngal = 0
Nran = 9399747
weighted Nran = 0
SN(data) = 6618.68714
SN(ran) = 132.960596
SN(data+ran) = 6751.64774
############################
13 columns: k_central k_mean P_0(k) sigma^{lin}_{P_0(k)} P^img_1(k) sigma^{lin}_{P_1(k)} P_2(k) sigma^{lin}_{P_2(k)} P^img_3(k) sigma^{lin}_{P_3(k)} P_4(k) sigma^{lin}_{P_4(k)} N_modes
### header ###
0.00050000 0 0 0 0 0 0 0 0 0 0 0 0
0.00150000 0.00179520 35609.39692196 0 -47578.24028470 0 -64285.90845553 0 70657.35745441 0 66329.79422915 0 3
0.00250000 0.00253879 56294.59014237 0 -43376.56214480 0 -17015.89253402 0 -82566.08652968 0 -40077.26378862 0 6
0.00350000 0.00331552 86333.21157315 0 -20677.76211845 0 -56552.46047141 0 -5159.85773545 0 -33912.11105298 0 7
0.00450000 0.00420575 111129.35694241 0 -6939.19627946 0 -25278.16878863 0 -63736.00691084 0 12434.11907471 0 24
0.00550000 0.00557378 96653.68124544 0 15164.43902746 0 -5535.87149439 0 -39474.78997039 0 47478.08677626 0 45
0.00650000 0.00659388 101839.48129055 0 4193.07137106 0 10915.63439173 0 50329.07895180 0 5244.76084809 0 40
0.00750000 0.00754703 75588.05996971 0 -4065.88861566 0 -13126.32067625 0 39854.88528980 0 9649.36352735 0 57
0.00850000 0.00846663 97039.32216333 0 -4489.74979823 0 -7656.41962131 0 28086.45985592 0 24100.39458470 0 75
0.00950000 0.00948925 89449.28335575 0 2891.24212927 0 -10986.38513706 0 -10948.12050759 0 27089.69398619 0 112
0.01050000 0.01054430 76348.58334445 0 11015.12242835 0 -10948.85252659 0 -13756.18975094 0 14852.44365730 0 105
0.01150000 0.01145670 64966.68612421 0 12605.69989150 0 3077.06404294 0 -27169.43969224 0 23001.70061501 0 144
0.01250000 0.01249090 58350.89805657 0 3953.14659868 0 8192.24643708 0 7587.92038896 0 18448.09879595 0 169
0.01350000 0.01339930 62179.35741916 0 -5929.06551740 0 18685.11767473 0 22742.27751839 0 9497.78013866 0 180
0.01450000 0.01448870 65015.26556685 0 -8244.67452505 0 -5657.66392808 0 15681.39971721 0 29323.23922762 0 267
0.01550000 0.01550050 73696.23450625 0 -8301.08435273 0 -20651.47598168 0 16152.88649948 0 -4410.07063936 0 238
0.01650000 0.01653350 86183.14767844 0 -6964.53966449 0 -20324.06384777 0 -9557.04040395 0 19880.85961772 0 315
0.01750000 0.01747870 91576.90766633 0 2158.00309902 0 -28933.82730277 0 -1633.44493935 0 -7219.08263445 0 297
0.01850000 0.01844180 89752.40576835 0 4884.11948812 0 -1732.53369289 0 -21739.07875442 0 8741.71542509 0 388
0.01950000 0.01947590 79154.21252447 0 6712.59203461 0 4205.91497713 0 -28387.25311716 0 -22654.21341462 0 399
0.02050000 0.02045430 83802.64407744 0 3436.47428004 0 29677.71388208 0 -9148.75126189 0 -23059.15301520 0 462
0.02150000 0.02154770 77498.07499616 0 -461.24628013 0 32454.28412610 0 -7316.67407639 0 -30817.11254458 0 571
0.02250000 0.02255340 73181.93570376 0 5955.66220768 0 34561.83337020 0 -8674.30313004 0 -43525.51691982 0 510
0.02350000 0.02348930 74129.23483511 0 7174.76221144 0 51056.43964766 0 -5547.75016632 0 -15670.86308011 0 555
0.02450000 0.02439640 65511.48571831 0 910.24011498 0 45982.54977976 0 12155.06455950 0 -25118.01190470 0 592
0.02550000 0.02547300 72470.87906741 0 -5337.03960670 0 42164.29431836 0 18866.45874484 0 -11087.80304196 0 837
0.02650000 0.02652900 71278.35357154 0 -133.51471974 0 23102.40868330 0 6270.05327638 0 -24658.94726301 0 723
0.02750000 0.02749970 74098.06857169 0 3264.19471785 0 27765.03696836 0 7268.59373762 0 14985.42710871 0 826
0.02850000 0.02848090 64795.65986727 0 15.51325717 0 13953.39123268 0 1099.59901136 0 -10879.94291995 0 831
0.02950000 0.02946900 68777.73230759 0 1247.18291443 0 23043.95807538 0 3450.61555615 0 -2029.53376477 0 996
0.03050000 0.03053250 63748.42905142 0 1967.94434811 0 14182.97900951 0 -881.28654535 0 -7008.52735158 0 1041
0.03150000 0.03150510 61720.29277747 0 2714.51499709 0 20464.58931310 0 -3044.61120067 0 -5914.08131032 0 1036
0.03250000 0.03246190 57854.23425723 0 1731.08074609 0 12991.45172136 0 -742.28057400 0 -12110.92159564 0 1059
0.03350000 0.03345080 58835.80518714 0 818.87859836 0 22935.81890514 0 -1377.68193773 0 -16324.24549233 0 1302
0.03450000 0.03451200 55786.39149820 0 1942.13513282 0 17809.68949961 0 -897.94108669 0 -8269.66299178 0 1339
0.03550000 0.03553350 54428.82899174 0 361.70833311 0 20718.57772322 0 1578.83188558 0 -10284.90020368 0 1365
0.03650000 0.03647120 53157.66690950 0 484.52892076 0 16566.03358580 0 2579.82350135 0 -10538.21205078 0 1308
0.03750000 0.03744890 52581.14649213 0 1826.78668455 0 22540.19590999 0 2269.34762518 0 -5559.07427840 0 1579
0.03850000 0.03847530 51057.54876736 0 1621.77700016 0 24332.53333683 0 -872.82618032 0 -1092.94318407 0 1662
0.03950000 0.03950240 48714.64432401 0 1362.74209544 0 21012.05079447 0 2165.32328900 0 1305.28969525 0 1683
0.04050000 0.04050350 47371.05672571 0 -229.65210577 0 23312.69777744 0 6584.16706515 0 9537.06515825 0 1822
0.04150000 0.04152450 48718.41533098 0 -723.29133570 0 13852.68316439 0 6026.65695935 0 10115.30471114 0 1887
0.04250000 0.04250150 49840.73355017 0 -82.40526417 0 19635.52234122 0 7003.31448902 0 15453.47561993 0 1920
0.04350000 0.04349210 48424.16587594 0 504.32227083 0 10481.64694634 0 2079.86561652 0 13923.77773683 0 2005
0.04450000 0.04448520 46444.05448477 0 2213.73636368 0 12872.99773795 0 -702.65061818 0 15681.73245312 0 2151
0.04550000 0.04548030 42983.71194890 0 1789.07661493 0 13239.89453300 0 -2488.57622406 0 14022.71121361 0 2274
0.04650000 0.04648670 43423.69973183 0 438.21097318 0 13126.76432413 0 2580.94371225 0 14597.45703946 0 2311
0.04750000 0.04749250 40574.03849993 0 280.75035923 0 11294.27676434 0 2184.00086467 0 7203.69914428 0 2568
0.04850000 0.04851840 41014.13719483 0 606.25369815 0 9908.97517431 0 -574.84786487 0 8310.43423176 0 2493
0.04950000 0.04949480 39160.57636085 0 1691.88445607 0 11662.72632696 0 -1035.06044544 0 1223.34793219 0 2644
0.05050000 0.05050630 37646.18432954 0 1491.05615293 0 12047.92359698 0 -1595.45758980 0 7848.77424999 0 2829
0.05150000 0.05149060 35208.89380016 0 651.29726719 0 14778.57628563 0 493.69912240 0 3533.50007095 0 2784
0.05250000 0.05249300 37129.44546372 0 -534.43487055 0 11793.49153898 0 2494.46564964 0 5442.38379531 0 3055
0.05350000 0.05348950 35964.75887218 0 -412.16440627 0 13442.30887731 0 421.61854255 0 2513.89742669 0 3009
0.05450000 0.05448610 37961.39614680 0 899.61807567 0 13573.85047311 0 -351.36579196 0 6510.55479100 0 3336
0.05550000 0.05550870 35490.83202659 0 1100.10255170 0 16284.31718332 0 -2789.45821487 0 5634.09513456 0 3349
0.05650000 0.05647670 34006.49713901 0 1299.04535136 0 15573.59328288 0 930.90966962 0 6331.24340994 0 3324
0.05750000 0.05747970 34673.85445938 0 618.93980922 0 19555.33298729 0 1740.37516913 0 8321.05959843 0 3639
0.05850000 0.05849280 32916.78703884 0 133.00119732 0 16031.10515699 0 2499.97797452 0 6402.13834083 0 3846
0.05950000 0.05951020 32732.78408147 0 217.85107222 0 16424.28808881 0 3664.29855656 0 11754.89417360 0 3787
0.06050000 0.06049470 32496.43067451 0 -303.41522019 0 11899.96702969 0 1589.59034662 0 10163.69560343 0 3930
0.06150000 0.06148310 32343.48306859 0 337.86669615 0 13799.44541904 0 858.09485253 0 9055.50756915 0 4083
0.06250000 0.06249100 31598.04372170 0 935.51029811 0 11580.87329349 0 -1013.29951703 0 4444.81935939 0 4303
0.06350000 0.06350600 30508.33362154 0 565.00110022 0 11414.83807517 0 -1053.50954244 0 6831.91113138 0 4470
0.06450000 0.06451750 29833.76702315 0 -93.14353924 0 11035.85187545 0 1109.92935220 0 1308.14013286 0 4479
0.06550000 0.06550280 30330.98538233 0 177.88616225 0 10278.23439431 0 763.71098474 0 888.36272900 0 4636
0.06650000 0.06648880 29870.92253292 0 -103.22111169 0 9021.63505367 0 1126.93215712 0 287.05237734 0 4653
0.06750000 0.06749660 29687.91778328 0 462.01268184 0 8178.92590954 0 -266.54142682 0 -296.84701336 0 5220
0.06850000 0.06852730 29382.35530735 0 171.15269659 0 6983.90489436 0 999.31462680 0 -671.52317395 0 5029
0.06950000 0.06949320 28711.55971592 0 142.05937787 0 7584.92576578 0 60.74182738 0 -2051.36124036 0 5040
0.07050000 0.07048030 28123.72627767 0 684.27361396 0 7386.53752597 0 -109.35842553 0 772.96437036 0 5475
0.07150000 0.07148790 27941.27608787 0 331.15763112 0 7162.17370291 0 750.24405341 0 -2052.30399210 0 5509
0.07250000 0.07249820 26823.61617140 0 342.85551654 0 7903.15438862 0 543.40875800 0 1601.34701538 0 5916
0.07350000 0.07351270 26825.16893897 0 53.14546659 0 6953.27100839 0 1480.80788695 0 1609.83178105 0 5721
0.07450000 0.07449140 27031.68702615 0 -47.04575192 0 6098.61664515 0 1493.19675394 0 3615.91875547 0 6028
0.07550000 0.07549160 26770.71116196 0 452.66834841 0 7581.38767396 0 144.53936951 0 6124.75859635 0 6183
0.07650000 0.07648840 26038.80307534 0 761.39625194 0 6647.78617084 0 56.50310464 0 5190.87981331 0 6330
0.07750000 0.07749960 25691.87043480 0 345.39872800 0 9100.09418088 0 -388.05879882 0 6882.13207116 0 6583
0.07850000 0.07848650 24733.59101848 0 733.99655900 0 9240.42000467 0 34.33579478 0 6048.06296946 0 6549
0.07950000 0.07947320 23961.97644679 0 822.90692109 0 10642.84640279 0 -1159.25190503 0 7524.90020790 0 6828
0.08050000 0.08048110 23394.66172289 0 278.06185309 0 10989.29103066 0 -596.23169258 0 5773.71112175 0 7147
0.08150000 0.08149960 23587.20490191 0 439.56853569 0 11758.99791648 0 765.88264111 0 5794.83985193 0 7386
0.08250000 0.08250610 22611.51230637 0 303.49729505 0 11058.99920348 0 -49.35593733 0 5967.14159652 0 7227
0.08350000 0.08350160 22238.84808891 0 400.87800426 0 11933.35153250 0 598.30130994 0 5613.88697372 0 7798
0.08450000 0.08449610 22116.62309854 0 -84.63869850 0 10220.48253180 0 1562.09526938 0 6475.12950795 0 7371
0.08550000 0.08548940 22026.56257932 0 -223.96010350 0 10355.50676345 0 1451.58258299 0 4425.99759817 0 8256
0.08650000 0.08650700 22225.98230045 0 -48.77930600 0 7746.73523806 0 1051.85029938 0 5183.19361383 0 8037
0.08750000 0.08749060 21967.11376368 0 574.32546949 0 9168.85960196 0 -955.02636826 0 3537.44853706 0 8155
0.08850000 0.08849210 20840.35906571 0 723.63627193 0 8632.06785206 0 -1430.26530246 0 3485.10917866 0 8718
0.08950000 0.08949900 20210.93363890 0 657.34418777 0 9906.94548527 0 -125.90394040 0 2417.63692838 0 8571
0.09050000 0.09049190 19835.60753417 0 308.31974748 0 8928.06971621 0 377.86931619 0 967.55276609 0 8932
0.09150000 0.09150830 19379.75933960 0 -52.05786382 0 8518.84891361 0 929.93031693 0 -119.41337194 0 9285
0.09250000 0.09250820 19394.39971957 0 -61.63233959 0 7829.98576236 0 1431.94007320 0 1072.40117821 0 9204
0.09350000 0.09350330 18738.57724402 0 200.54436850 0 6666.92957677 0 110.34942397 0 1615.28864995 0 9349
0.09450000 0.09448040 19024.61921332 0 332.09816462 0 7047.09144337 0 254.39656616 0 958.74302836 0 9564
0.09550000 0.09549270 18248.78998679 0 321.79111530 0 6610.32010755 0 13.41624456 0 1334.39299604 0 10155
0.09650000 0.09649430 18229.60221607 0 202.01727945 0 6978.37038708 0 -118.32754376 0 704.78456448 0 9913
0.09750000 0.09749140 17791.72176055 0 77.25406866 0 7247.78665215 0 -74.97760049 0 900.14490752 0 10476
0.09850000 0.09850240 17880.78407205 0 596.75963356 0 7661.10010642 0 -1128.03018562 0 -165.49507702 0 10575
0.09950000 0.09950330 17010.23602358 0 455.90475968 0 8158.38501279 0 -237.65440437 0 -177.45804205 0 10882
0.10050000 0.10051200 16533.53637875 0 295.37853889 0 8166.32630981 0 -116.30894592 0 123.29418176 0 10875
0.10150000 0.10150300 16402.66025476 0 162.57587399 0 9074.02986805 0 427.95605249 0 370.16758903 0 11118
0.10250000 0.10250800 16698.90612524 0 -160.48629248 0 7658.52694873 0 1353.12602768 0 581.05338956 0 11575
0.10350000 0.10349800 16271.45139486 0 -412.51710633 0 7089.39326853 0 1349.31065593 0 -97.20269549 0 11364
0.10450000 0.10450100 16880.24719535 0 230.90097455 0 6039.81111893 0 85.00038244 0 989.97583897 0 12093
0.10550000 0.10551000 16340.66046382 0 240.55031589 0 6033.43368068 0 -157.82884169 0 239.81386041 0 12067
0.10650000 0.10649700 15920.85865933 0 441.81672131 0 6825.32296039 0 -377.81607844 0 842.82671081 0 12054
0.10750000 0.10749900 15521.57556919 0 213.45784911 0 5859.06897346 0 168.14809133 0 -212.74135778 0 12807
0.10850000 0.10850100 15262.26338454 0 122.75514958 0 6478.61214379 0 294.07421412 0 -320.97258496 0 12736
0.10950000 0.10950300 15072.71482870 0 141.04564247 0 5754.02424716 0 531.53008607 0 -458.15072706 0 12933
0.11050000 0.11050200 15104.99021181 0 246.14915211 0 5829.86585189 0 301.51086168 0 387.32788895 0 13428
0.11150000 0.11150900 14702.71249850 0 -118.86657593 0 5353.68749332 0 626.84450528 0 1456.52925683 0 13453
0.11250000 0.11250000 14614.09383489 0 -71.18030739 0 5307.06010135 0 894.99859214 0 963.32147446 0 13668
0.11350000 0.11349100 15223.11145931 0 -118.08353743 0 4596.21419774 0 400.92347816 0 2152.21349421 0 13791
0.11450000 0.11448600 14926.97650080 0 160.96321395 0 4182.16872446 0 189.71048732 0 1244.83158068 0 14205
0.11550000 0.11549300 14660.23321419 0 321.21880954 0 5151.76116168 0 -854.51350504 0 1737.02562765 0 14776
0.11650000 0.11649800 14290.78544385 0 428.54277681 0 5408.34491188 0 -856.57979503 0 1025.95346363 0 14553
0.11750000 0.11747300 13781.47767998 0 409.77314421 0 6116.10746273 0 -372.13073089 0 -91.79484969 0 14568
0.11850000 0.11849100 13792.12522905 0 -127.30808593 0 5846.76883604 0 271.91511174 0 268.26278059 0 16015
0.11950000 0.11950300 14056.53936430 0 -316.24218946 0 5316.25470362 0 987.72099863 0 -569.43646988 0 15270
0.12050000 0.12050700 14333.48655210 0 -214.66900781 0 4405.80052853 0 1100.69593074 0 518.14079311 0 15999
0.12150000 0.12150000 14426.76351843 0 20.89991879 0 3666.28388081 0 479.27169341 0 81.42835155 0 15670
0.12250000 0.12250700 14190.07737556 0 167.66784251 0 3487.28305326 0 169.78958848 0 1265.66084855 0 16887
0.12350000 0.12352200 13926.99418394 0 337.27553536 0 3609.95169151 0 -399.78995784 0 748.44173390 0 16407
0.12450000 0.12449800 13567.41757888 0 504.36885386 0 4631.73930156 0 -670.68578858 0 1263.29842360 0 16306
0.12550000 0.12549900 13078.29579347 0 202.68164215 0 5031.12221247 0 -35.97640463 0 788.10718155 0 17523
0.12650000 0.12650100 13099.59089161 0 20.03502726 0 4943.46848299 0 241.99217150 0 1320.45136147 0 17154
0.12750000 0.12750600 13037.03654082 0 22.68293961 0 4831.93540648 0 259.01715881 0 1157.88768780 0 18007
0.12850000 0.12850300 12756.76199394 0 239.84380665 0 5140.17086087 0 -60.15133206 0 1213.74295563 0 17496
0.12950000 0.12949900 12724.04296294 0 112.01110710 0 4989.41931195 0 453.95714549 0 1739.88715646 0 18405
0.13050000 0.13049000 12469.94364086 0 -58.84090714 0 4323.58148555 0 1075.59877029 0 2320.16748960 0 18100
0.13150000 0.13148800 12702.19330495 0 -2.77531694 0 4116.80830085 0 579.60487924 0 2751.69268926 0 19059
0.13250000 0.13249300 12730.91950505 0 -229.21511261 0 3136.72359132 0 708.13188772 0 1989.84946209 0 18957
0.13350000 0.13349100 12643.74269703 0 74.03429419 0 2999.44784669 0 29.34209426 0 2657.18460007 0 19468
0.13450000 0.13450700 12592.94501501 0 143.95042695 0 2711.88638342 0 -447.86475101 0 2067.31038157 0 19953
0.13550000 0.13551000 12569.09894157 0 85.67583633 0 2890.03318880 0 -99.90151645 0 1832.84247809 0 19956
0.13650000 0.13649900 12229.93013890 0 242.42694642 0 2984.85183151 0 -208.82061966 0 1247.62656231 0 19723
0.13750000 0.13749600 12041.26887881 0 322.73275792 0 3273.77751201 0 -171.09280412 0 984.00322941 0 20946
0.13850000 0.13851100 11690.45431934 0 218.55536322 0 3427.29076897 0 -10.32152334 0 983.16917140 0 20955
0.13950000 0.13949800 11526.97007632 0 175.66570463 0 4187.19303668 0 -121.67819436 0 1291.09296315 0 20506
0.14050000 0.14048300 11313.68635900 0 224.36493219 0 3874.21055000 0 78.46500555 0 1474.29735434 0 21447
0.14150000 0.14148400 10941.51015421 0 140.77945374 0 3980.99659422 0 76.95382996 0 1495.02680144 0 21771
0.14250000 0.14249400 10753.28145080 0 226.69852002 0 4392.45781860 0 -14.53567907 0 1562.23945494 0 22470
0.14350000 0.14350900 10520.89869234 0 232.23635466 0 3825.53128659 0 -12.47349282 0 1305.38951602 0 22519
0.14450000 0.14449900 10316.63211815 0 173.05372774 0 4487.11009336 0 269.05469205 0 1651.00230412 0 22218
0.14550000 0.14550500 10096.72695625 0 58.67686833 0 3733.89581741 0 252.49775324 0 1737.15872202 0 23559
0.14650000 0.14650700 10037.18941104 0 -14.67753548 0 3572.75181695 0 435.06994621 0 1295.61817151 0 23044
0.14750000 0.14750500 9936.14860684 0 -8.46820651 0 2954.21794554 0 543.25569948 0 1555.21872728 0 23649
0.14850000 0.14849900 10004.30401208 0 115.87306188 0 2948.86089741 0 295.99964591 0 1516.64354429 0 23640
0.14950000 0.14949500 9807.60163421 0 20.16468335 0 2434.98356041 0 51.29246032 0 1577.53421554 0 24457
0.15050000 0.15050000 9806.13759621 0 124.27131621 0 2415.96215764 0 10.36929312 0 1372.52453115 0 24591
0.15150000 0.15149900 9588.49503850 0 114.85156264 0 2374.64744901 0 -309.62850872 0 1350.88560590 0 25020
0.15250000 0.15250500 9496.98157248 0 200.84272170 0 2752.63544100 0 -218.88809913 0 986.15159426 0 25297
0.15350000 0.15350100 9308.44231555 0 98.13956890 0 2859.66549155 0 -129.65054673 0 662.45612044 0 25452
0.15450000 0.15450400 9410.78078979 0 -64.67698406 0 2903.86391139 0 95.65891179 0 938.02356334 0 26061
0.15550000 0.15549900 9364.30867458 0 32.04457531 0 2751.32667976 0 37.16759918 0 379.61507059 0 26128
0.15650000 0.15649500 9300.92248402 0 49.89541315 0 2836.36288677 0 75.16925637 0 739.13178319 0 26331
0.15750000 0.15749700 9244.74557148 0 40.23209690 0 2537.81004731 0 272.63936690 0 401.38376284 0 27345
0.15850000 0.15849900 9274.70289444 0 133.74098016 0 2845.63512741 0 140.81605469 0 767.43429956 0 26980
0.15950000 0.15949700 9075.37190288 0 116.56847993 0 2543.40001058 0 -32.90059389 0 852.44610593 0 27777
0.16050000 0.16050000 8823.54627617 0 182.99809493 0 2697.29036823 0 69.87664810 0 847.94307997 0 28224
0.16150000 0.16150500 8732.53191402 0 187.42791899 0 2678.50188060 0 -17.97927390 0 893.37705914 0 28075
0.16250000 0.16249700 8467.94031962 0 137.25578047 0 2806.56084057 0 46.84367031 0 867.11199565 0 28590
0.16350000 0.16349900 8371.11417026 0 83.82416100 0 3008.80881692 0 43.86901129 0 1468.84048544 0 29163
0.16450000 0.16449100 8286.02250728 0 15.53932148 0 2749.13062277 0 150.25466330 0 1288.71944700 0 28996
0.16550000 0.16550500 8247.10349718 0 21.97521034 0 2941.49634264 0 290.63372483 0 1254.64728998 0 30777
0.16650000 0.16650700 8209.59306910 0 55.12602163 0 2692.85388945 0 21.78033801 0 1204.99200124 0 29211
0.16750000 0.16749900 8262.08770426 0 98.28930006 0 2818.93861636 0 -121.72810475 0 1585.23150622 0 30922
0.16850000 0.16850800 8119.01126363 0 32.45483869 0 2608.41660709 0 57.03326386 0 1607.90191278 0 30867
0.16950000 0.16949900 8140.65018887 0 -4.82805349 0 2878.42070559 0 180.08443749 0 1200.59988725 0 30852
0.17050000 0.17049200 8247.31422993 0 21.47067179 0 2453.38385614 0 -14.42365798 0 1059.75943192 0 31257
0.17150000 0.17149500 8019.09067032 0 117.71530969 0 2702.56977798 0 72.87315678 0 1072.43999739 0 32608
0.17250000 0.17250900 7956.51413714 0 106.96217243 0 2493.78908663 0 -107.38385973 0 1109.02874701 0 32361
0.17350000 0.17350400 7948.87230244 0 0.37632099 0 2230.31770312 0 231.41227873 0 580.51103003 0 32508
0.17450000 0.17449800 7924.72676669 0 -56.71095368 0 2250.94732944 0 304.95467833 0 532.75344509 0 32791
0.17550000 0.17549800 7843.86084974 0 40.74096101 0 1738.20129453 0 8.37861182 0 339.97956917 0 33633
0.17650000 0.17650100 7862.23896308 0 25.57175277 0 1538.60411425 0 131.67469017 0 389.09028014 0 33984
0.17750000 0.17750300 7800.78264079 0 21.17353862 0 1587.61611356 0 22.46255753 0 50.48025197 0 34069
0.17850000 0.17849800 7842.74063885 0 70.10989597 0 1113.68926796 0 19.46516156 0 110.98073490 0 34536
