### header ###
fiducial parameters:
Omega_m = 0.31
Omega_nu = 0
Omega_de = 0.69
Omega_k = 0
H_0 = 100
w_de = -1
zeff = 0
beta = 0
fgrowth = 0
b_1 = 2
gamma = 0.55
Lx = 3500 Ly = 3500 Lz = 3500
nx = 700 ny = 700 nz = 700
xoffset = 1379.75464 yoffset = 22.6059522 zoffset = 368.141391
bins = 400 dk = 0.001
kx_ny = 0.628318531 ky_ny = 0.628318531 kz_ny = 0.628318531
############################
A(data) = 3.36696368 (not used)
A(ran) = 3.36418211 (used)
Ngal = 188791
weighted Ngal = 0
Nran = 9399747
weighted Nran = 0
SN(data) = 6617.04144
SN(ran) = 133.811631
SN(data+ran) = 6750.85307
############################
13 columns: k_central k_mean P_0(k) sigma^{lin}_{P_0(k)} P^img_1(k) sigma^{lin}_{P_1(k)} P_2(k) sigma^{lin}_{P_2(k)} P^img_3(k) sigma^{lin}_{P_3(k)} P_4(k) sigma^{lin}_{P_4(k)} N_modes
### header ###
0.00050000 0 0 0 0 0 0 0 0 0 0 0 0
0.00150000 0.00179520 108336.03899100 0 -95932.42070790 0 -162444.99786275 0 172390.47416622 0 86155.08695016 0 3
0.00250000 0.00253879 184466.56940345 0 -97267.24626061 0 -85605.73996531 0 -102173.32631869 0 -64599.12385735 0 6
0.00350000 0.00331552 235682.38955126 0 -57457.05849451 0 -141306.28559914 0 -134174.64596143 0 48016.89712400 0 7
0.00450000 0.00420575 277335.37969031 0 -22348.87276264 0 -132288.03336054 0 -120560.20170748 0 -6155.62539746 0 24
0.00550000 0.00557378 238313.22146737 0 25719.26569126 0 -90152.24341833 0 -111265.77866487 0 -16519.89420650 0 45
0.00650000 0.00659388 220505.19564731 0 38428.44645029 0 -60771.66270249 0 -48297.72623073 0 -18216.51460367 0 40
0.00750000 0.00754703 159750.94612403 0 23768.76779595 0 -17676.26240032 0 -28386.80946928 0 -40198.15783535 0 57
0.00850000 0.00846663 123703.44692261 0 26255.08141583 0 7465.65103380 0 -30603.60700332 0 -41938.58846047 0 75
0.00950000 0.00948925 96852.32458278 0 18268.08866948 0 4587.58524651 0 -6227.42980650 0 -43053.25375376 0 112
0.01050000 0.01054430 66866.16451357 0 10972.48786729 0 21646.24543597 0 -12238.69218449 0 -15093.45536699 0 105
0.01150000 0.01145670 64614.98426899 0 4501.08500151 0 7863.96918980 0 7151.18232673 0 -28606.52608083 0 144
0.01250000 0.01249090 61088.09455142 0 -2851.25836427 0 9191.65201169 0 12466.72719374 0 -17071.68125467 0 169
0.01350000 0.01339930 62623.55985693 0 1382.96134747 0 8481.33848553 0 -5793.99692096 0 -5908.60225903 0 180
0.01450000 0.01448870 60099.97981530 0 2996.32012915 0 15665.20656967 0 -12947.64149342 0 7092.65408043 0 267
0.01550000 0.01550050 63838.04592276 0 -972.19886850 0 23517.77400901 0 18711.40381150 0 15131.60908449 0 238
0.01650000 0.01653350 63925.99911456 0 -2734.45696921 0 29026.10606138 0 7309.06551529 0 20589.14345483 0 315
0.01750000 0.01747870 68637.09593029 0 -668.34665514 0 23787.51191879 0 26733.44474021 0 39128.30097773 0 297
0.01850000 0.01844180 74710.74629111 0 -5614.36389519 0 30228.94637041 0 7426.77638850 0 58784.00929740 0 388
0.01950000 0.01947590 77642.14964452 0 2222.78678039 0 21854.64902663 0 8263.48519508 0 39486.54663915 0 399
0.02050000 0.02045430 78904.10603329 0 2207.90239409 0 23594.30326795 0 9101.54712768 0 56286.27174466 0 462
0.02150000 0.02154770 70828.60553529 0 4396.88320618 0 34280.00605575 0 -1903.97032412 0 53615.17878362 0 571
0.02250000 0.02255340 68864.46546773 0 5640.39493443 0 36650.86031540 0 -3161.01331264 0 42722.29243683 0 510
0.02350000 0.02348930 64024.93259134 0 4348.48122270 0 33910.66919737 0 867.32938311 0 27803.52342177 0 555
0.02450000 0.02439640 56601.81629783 0 3074.64616200 0 43457.86061843 0 3870.22881029 0 29201.56879710 0 592
0.02550000 0.02547300 54625.69773757 0 -452.67056665 0 33192.62510695 0 5045.84023082 0 29455.88994312 0 837
0.02650000 0.02652900 55662.72465223 0 -973.14162024 0 27323.38550589 0 8802.02935409 0 8906.73025329 0 723
0.02750000 0.02749970 55760.10536143 0 -781.49017345 0 19625.87299988 0 6915.71621552 0 13335.83338660 0 826
0.02850000 0.02848090 56650.17391653 0 -457.10593631 0 15297.53339084 0 488.75023032 0 2630.67663936 0 831
0.02950000 0.02946900 55639.43313864 0 2491.90358314 0 14131.73767961 0 -2159.57804899 0 5023.74656650 0 996
0.03050000 0.03053250 55236.37904154 0 179.03410114 0 15706.68764626 0 -1795.58714754 0 2237.51588994 0 1041
0.03150000 0.03150510 54158.09287423 0 -44.24577925 0 19417.80214513 0 -1803.97209243 0 -9639.60327403 0 1036
0.03250000 0.03246190 53978.30457170 0 1622.10973607 0 20048.22577967 0 -4486.76626625 0 -4248.49408221 0 1059
0.03350000 0.03345080 53076.70117178 0 1012.75937574 0 16993.82105210 0 -1184.80602280 0 -15314.05927429 0 1302
0.03450000 0.03451200 51900.03608754 0 -1078.18967389 0 20784.01578521 0 2676.93802183 0 -7632.59573027 0 1339
0.03550000 0.03553350 52864.97022204 0 387.38889053 0 13191.98056219 0 4340.07409542 0 -14128.63214446 0 1365
0.03650000 0.03647120 53319.48747298 0 -171.68174668 0 13559.09918117 0 5827.45906216 0 -7328.33092439 0 1308
0.03750000 0.03744890 50129.88105461 0 1150.75604817 0 9919.44526423 0 -1214.09787394 0 -8860.81269792 0 1579
0.03850000 0.03847530 49087.64127738 0 2729.21083305 0 11394.54118476 0 -113.63485833 0 -4998.66937020 0 1662
0.03950000 0.03950240 43798.69310065 0 1809.37350535 0 7501.38687037 0 2953.97393920 0 -5762.45355684 0 1683
0.04050000 0.04050350 44274.83818564 0 94.09527485 0 8240.92570048 0 752.29037924 0 -3033.05417345 0 1822
0.04150000 0.04152450 41931.60100639 0 -81.74189968 0 3947.26826430 0 3591.82867570 0 -121.11143420 0 1887
0.04250000 0.04250150 42968.96065696 0 525.50645701 0 6603.27719749 0 -75.34616096 0 -1776.47701520 0 1920
0.04350000 0.04349210 41578.12455965 0 1339.41730826 0 7269.52539817 0 -999.63627151 0 3032.98762626 0 2005
0.04450000 0.04448520 41692.58571216 0 -307.88164521 0 7399.37004084 0 -604.15857104 0 -3370.47056700 0 2151
0.04550000 0.04548030 40414.32526387 0 644.86659120 0 9977.08621477 0 -852.97848338 0 1758.68673529 0 2274
0.04650000 0.04648670 39878.50953930 0 1281.75417532 0 11741.58473727 0 -1250.79864464 0 -478.54854737 0 2311
0.04750000 0.04749250 40351.21635324 0 267.96997299 0 10003.90472899 0 341.63992136 0 -2516.57040516 0 2568
0.04850000 0.04851840 38431.55198544 0 614.43900150 0 11497.68931637 0 771.47704085 0 1315.33831968 0 2493
0.04950000 0.04949480 38305.44507614 0 381.85881973 0 9576.26144826 0 1739.63205893 0 -1127.67526732 0 2644
0.05050000 0.05050630 38914.79543647 0 -1233.72929254 0 8343.08671557 0 2525.28808596 0 1841.12760221 0 2829
0.05150000 0.05149060 39029.03476504 0 693.55361845 0 7610.93462263 0 -470.51962990 0 -247.62760866 0 2784
0.05250000 0.05249300 37067.66749672 0 1258.56248250 0 7285.46344818 0 -2841.29846941 0 -1720.30010265 0 3055
0.05350000 0.05348950 37811.77589997 0 697.97789691 0 10393.42756582 0 -1913.70839504 0 -1578.52133206 0 3009
0.05450000 0.05448610 36394.32092999 0 261.72008351 0 10365.27810796 0 -425.38400391 0 -3692.08200491 0 3336
0.05550000 0.05550870 35928.49065816 0 1472.71131318 0 14724.22942058 0 -1894.25443559 0 -3241.69067924 0 3349
0.05650000 0.05647670 34286.10621407 0 1251.78576117 0 13061.10443820 0 347.96190362 0 -4320.70886554 0 3324
0.05750000 0.05747970 34400.01280673 0 489.92589720 0 16891.56021623 0 -266.18207204 0 -974.44927236 0 3639
0.05850000 0.05849280 32544.89920517 0 -123.62691766 0 14841.46337233 0 3103.90473955 0 -1745.21093100 0 3846
0.05950000 0.05951020 33175.76648758 0 -212.91216222 0 14257.84458891 0 2975.81250600 0 1925.66470535 0 3787
0.06050000 0.06049470 33277.91641148 0 99.07344768 0 11065.62064806 0 2003.31417518 0 1178.71695567 0 3930
0.06150000 0.06148310 32424.33789434 0 968.45004393 0 11810.79380622 0 -239.14506124 0 1728.55195318 0 4083
0.06250000 0.06249100 30927.02630633 0 1506.55055507 0 11631.67097551 0 -1049.82282858 0 1689.12274803 0 4303
0.06350000 0.06350600 29460.77006978 0 986.54422263 0 11292.16943692 0 -573.39269983 0 1641.06459166 0 4470
0.06450000 0.06451750 28143.13587233 0 114.88705447 0 12549.24569904 0 -26.33405074 0 -442.93471397 0 4479
0.06550000 0.06550280 28149.34694262 0 749.96566436 0 12445.87574348 0 525.90241274 0 34.60941461 0 4636
0.06650000 0.06648880 27265.04580994 0 313.79879878 0 13226.47418469 0 -294.11192419 0 -1703.84076638 0 4653
0.06750000 0.06749660 27101.45065495 0 308.84436110 0 12863.79204449 0 27.03778718 0 279.45823479 0 5220
0.06850000 0.06852730 27061.41143397 0 51.96591780 0 14277.36509554 0 108.44939102 0 -434.73055558 0 5029
0.06950000 0.06949320 26979.55840049 0 449.62270572 0 14380.06957928 0 893.52679030 0 4.29829356 0 5040
0.07050000 0.07048030 26563.30577902 0 247.40134825 0 13981.56287293 0 296.75828379 0 1442.65416945 0 5475
0.07150000 0.07148790 27017.37938208 0 -18.10626811 0 14624.96320790 0 985.74454733 0 1661.76076516 0 5509
0.07250000 0.07249820 26274.49101049 0 -220.66823624 0 12711.73173433 0 2707.03953035 0 2869.19282973 0 5916
0.07350000 0.07351270 27006.17727317 0 -55.60017030 0 11978.93635196 0 2093.59651834 0 4375.38846650 0 5721
0.07450000 0.07449140 26619.42723558 0 57.02904920 0 9839.16718072 0 1951.88429493 0 5528.47366602 0 6028
0.07550000 0.07549160 26082.28056738 0 349.11760634 0 10510.72806474 0 1003.25421995 0 6415.40341238 0 6183
0.07650000 0.07648840 25323.19904824 0 829.27881374 0 9258.48756450 0 -677.82962853 0 4340.39574013 0 6330
0.07750000 0.07749960 24762.09539463 0 537.59031608 0 10738.25287894 0 -474.49582400 0 6139.62080026 0 6583
0.07850000 0.07848650 24037.28567407 0 25.92611651 0 9770.93413710 0 -566.10356519 0 3352.13681845 0 6549
0.07950000 0.07947320 24384.66196248 0 115.69671185 0 10401.74596353 0 608.65605141 0 3514.93340726 0 6828
0.08050000 0.08048110 24224.06143067 0 -47.48074866 0 9002.55819492 0 -163.05057722 0 -787.03133545 0 7147
0.08150000 0.08149960 24261.32785242 0 54.44934771 0 9014.30377249 0 -10.31393696 0 1509.26789832 0 7386
0.08250000 0.08250610 24058.02621236 0 313.35404178 0 8391.49979025 0 795.68025083 0 -145.57306907 0 7227
0.08350000 0.08350160 23605.94902475 0 589.64130336 0 9062.67248238 0 -9.65072774 0 -674.47121410 0 7798
0.08450000 0.08449610 22347.09817113 0 667.77545850 0 9410.27059473 0 -79.69124828 0 446.68353853 0 7371
0.08550000 0.08548940 21973.10301003 0 407.67912623 0 8930.56523553 0 716.71425591 0 222.05463586 0 8256
0.08650000 0.08650700 21576.92545504 0 119.47991912 0 8745.02060178 0 587.40975453 0 1674.75964798 0 8037
0.08750000 0.08749060 21147.91795708 0 97.23630182 0 7923.37364066 0 829.23666719 0 -56.93521768 0 8155
0.08850000 0.08849210 21325.82075613 0 300.07011519 0 8353.21297839 0 370.72658535 0 1984.23731643 0 8718
0.08950000 0.08949900 20406.69326503 0 636.32526043 0 8652.22055691 0 -708.68422932 0 1554.29815793 0 8571
0.09050000 0.09049190 19660.36662239 0 678.17012828 0 8736.14764422 0 -45.23245213 0 1528.26711869 0 8932
0.09150000 0.09150830 19526.93952310 0 179.01302786 0 9768.30552342 0 223.23917570 0 1794.27838630 0 9285
0.09250000 0.09250820 18626.55615485 0 139.05366350 0 8561.77184580 0 616.06940745 0 176.33339468 0 9204
0.09350000 0.09350330 18921.47108170 0 71.73730730 0 8631.18055630 0 218.32355721 0 2032.47293196 0 9349
0.09450000 0.09448040 18630.54898575 0 142.55404526 0 7546.17312365 0 542.70779435 0 -68.10372027 0 9564
0.09550000 0.09549270 18530.06274140 0 204.20002701 0 8863.48567638 0 -21.47943383 0 1599.47260310 0 10155
0.09650000 0.09649430 18186.12472403 0 118.65251583 0 7344.19133602 0 857.38501593 0 386.66352625 0 9913
0.09750000 0.09749140 18196.32862522 0 -148.67527685 0 7351.20097249 0 790.50731657 0 2569.59741777 0 10476
0.09850000 0.09850240 17985.81770715 0 62.18401572 0 6318.77690457 0 837.65710392 0 1744.40127362 0 10575
0.09950000 0.09950330 18165.93874559 0 328.48465266 0 6222.15039676 0 -442.73950890 0 813.72673738 0 10882
0.10050000 0.10051200 17686.46630151 0 301.02728549 0 6022.17611578 0 -35.55449550 0 1566.46520098 0 10875
0.10150000 0.10150300 17449.44742273 0 63.47414375 0 6458.00469986 0 214.00797248 0 724.68106268 0 11118
0.10250000 0.10250800 17442.34905668 0 62.45419728 0 5940.40072068 0 349.61227372 0 1274.44507653 0 11575
0.10350000 0.10349800 16869.15599840 0 227.42610254 0 5426.37919811 0 399.58144333 0 314.11822525 0 11364
0.10450000 0.10450100 16760.79500422 0 378.17986970 0 5949.28476944 0 -417.80317080 0 395.55644796 0 12093
0.10550000 0.10551000 16279.10432075 0 302.31719170 0 5835.82182466 0 -203.13416299 0 -67.47340755 0 12067
0.10650000 0.10649700 15710.56956519 0 377.46781486 0 6696.04396876 0 -45.82727302 0 291.89701216 0 12054
0.10750000 0.10749900 15763.47457463 0 182.65204958 0 5815.61366382 0 107.91235527 0 -799.87826887 0 12807
0.10850000 0.10850100 15214.01667782 0 130.99258156 0 5740.64826364 0 550.57367123 0 112.39375339 0 12736
0.10950000 0.10950300 14816.17544328 0 153.73175354 0 5297.06693290 0 625.76533182 0 -465.99663978 0 12933
0.11050000 0.11050200 15098.89005349 0 -42.00502473 0 4617.23201595 0 1109.11082186 0 1133.44268973 0 13428
0.11150000 0.11150900 14691.62130155 0 -86.84695582 0 3676.17722849 0 770.58530861 0 865.13665347 0 13453
0.11250000 0.11250000 14843.90343565 0 86.38345470 0 3459.16686900 0 417.33290405 0 600.30438010 0 13668
0.11350000 0.11349100 14521.81507628 0 126.40304426 0 3052.43049451 0 -124.54859613 0 1128.06345921 0 13791
0.11450000 0.11448600 14170.22413302 0 303.73686491 0 3360.24448342 0 -77.51371358 0 435.29398839 0 14205
0.11550000 0.11549300 14228.45291700 0 163.89905378 0 3177.90520559 0 -271.84190984 0 752.30036132 0 14776
0.11650000 0.11649800 13845.80662228 0 20.47612416 0 3325.16302747 0 -237.07655301 0 -356.87146213 0 14553
0.11750000 0.11747300 14027.14769239 0 165.93872490 0 3464.64592029 0 -217.24438374 0 -420.46394895 0 14568
0.11850000 0.11849100 13703.72838938 0 143.53228883 0 3830.33377487 0 -9.76538854 0 -80.77519096 0 16015
0.11950000 0.11950300 13810.98026387 0 -20.27337708 0 3709.40645455 0 -181.09595465 0 -884.42868145 0 15270
0.12050000 0.12050700 13746.76223354 0 81.36990094 0 3873.84454050 0 337.46852218 0 -446.30311048 0 15999
0.12150000 0.12150000 13629.63919376 0 -21.35576699 0 3547.73007663 0 350.43634966 0 -579.95647018 0 15670
0.12250000 0.12250700 13625.86818680 0 8.42348680 0 3507.45794051 0 -59.17497399 0 373.43949213 0 16887
0.12350000 0.12352200 13742.54757870 0 181.13255560 0 3806.24369510 0 159.65445271 0 -757.52653332 0 16407
0.12450000 0.12449800 13568.52669858 0 148.23273809 0 3432.69218188 0 -486.72497776 0 -425.10783311 0 16306
0.12550000 0.12549900 13451.40365880 0 61.84628877 0 3909.17000278 0 16.35995915 0 -743.83999629 0 17523
0.12650000 0.12650100 13265.07155007 0 119.11280051 0 3896.11566397 0 46.48553556 0 -595.66160506 0 17154
0.12750000 0.12750600 13339.16074569 0 236.42660887 0 3875.04238977 0 -155.16473619 0 -1098.42445361 0 18007
0.12850000 0.12850300 12510.64833366 0 332.52184835 0 4230.13815126 0 -206.52474189 0 -1493.41857788 0 17496
0.12950000 0.12949900 12545.03104420 0 321.33193974 0 4053.93230535 0 -248.26091601 0 -1142.68165679 0 18405
0.13050000 0.13049000 12087.63008205 0 -7.70425595 0 4272.34015565 0 228.69049900 0 -1503.25646957 0 18100
0.13150000 0.13148800 12254.33077218 0 37.80434480 0 3996.59081713 0 456.95953251 0 -804.95138236 0 19059
0.13250000 0.13249300 12045.15079774 0 -83.42665250 0 3354.46596981 0 622.35035228 0 -1520.35909527 0 18957
0.13350000 0.13349100 12341.28575626 0 -126.83560094 0 2622.25842088 0 728.71382189 0 -468.56868835 0 19468
0.13450000 0.13450700 12153.40087995 0 36.96651578 0 2906.80307858 0 304.59754179 0 -763.59230894 0 19953
0.13550000 0.13551000 12335.96198172 0 147.86229212 0 1807.87619376 0 -87.23115488 0 -319.63831397 0 19956
0.13650000 0.13649900 11829.75975300 0 206.22860694 0 3015.79627099 0 2.01727799 0 470.09150969 0 19723
0.13750000 0.13749600 11664.05727060 0 249.56856813 0 2546.70518727 0 -269.24656976 0 175.19432875 0 20946
0.13850000 0.13851100 11632.44735930 0 103.93172468 0 3226.29609787 0 253.51148865 0 655.27124306 0 20955
0.13950000 0.13949800 11277.86179286 0 75.04769685 0 3084.16240898 0 -80.41849806 0 287.60028247 0 20506
0.14050000 0.14048300 11349.28910121 0 293.52519988 0 3834.88116562 0 -158.16490496 0 925.89866684 0 21447
0.14150000 0.14148400 11022.64225989 0 173.05483686 0 3522.97452504 0 -539.68655230 0 233.25785390 0 21771
0.14250000 0.14249400 10996.13429918 0 157.63918223 0 4070.16981768 0 -12.06433857 0 900.86583532 0 22470
0.14350000 0.14350900 10875.02951970 0 -26.70460763 0 3892.07846828 0 254.70822880 0 267.58289021 0 22519
0.14450000 0.14449900 10677.99440592 0 135.99138402 0 3810.95745380 0 243.50833812 0 554.43118953 0 22218
0.14550000 0.14550500 10823.85473698 0 66.87348470 0 3777.99441647 0 398.79840483 0 867.85066937 0 23559
0.14650000 0.14650700 10394.82505663 0 104.31792016 0 3160.05946970 0 226.93698076 0 693.14213504 0 23044
0.14750000 0.14750500 10451.80053535 0 197.42219656 0 3646.44172947 0 113.08251672 0 1118.09247315 0 23649
0.14850000 0.14849900 9886.46004451 0 300.18324540 0 3420.70259798 0 -414.38819126 0 547.97944026 0 23640
0.14950000 0.14949500 9808.36692680 0 180.16983971 0 3700.10094031 0 72.68039178 0 1176.49871628 0 24457
0.15050000 0.15050000 9731.10564886 0 -194.81243792 0 3401.94738394 0 542.12107003 0 1002.38356099 0 24591
0.15150000 0.15149900 9804.74010540 0 -122.92817226 0 3171.19503144 0 596.37033255 0 837.96322095 0 25020
0.15250000 0.15250500 9872.59604832 0 107.79556496 0 2877.26722111 0 -235.01137214 0 627.19165975 0 25297
0.15350000 0.15350100 9774.67187047 0 282.89206936 0 3154.20331771 0 -397.61719235 0 455.28919825 0 25452
0.15450000 0.15450400 9399.94469038 0 320.76074310 0 3572.14180111 0 -429.37239834 0 405.86682464 0 26061
0.15550000 0.15549900 9175.88032963 0 282.66580894 0 3807.26408522 0 -475.93102489 0 232.34283015 0 26128
0.15650000 0.15649500 8803.04974421 0 135.68637611 0 3953.23532825 0 -22.91419107 0 -6.33757648 0 26331
0.15750000 0.15749700 8837.15517483 0 -33.80607921 0 3863.85137205 0 512.50424682 0 -68.62012640 0 27345
0.15850000 0.15849900 8820.42964983 0 -152.91433233 0 3124.14617398 0 571.96082630 0 91.72098231 0 26980
0.15950000 0.15949700 8959.62417153 0 15.29110050 0 3160.94676546 0 203.79741656 0 -81.38143578 0 27777
0.16050000 0.16050000 8811.24613876 0 127.27703058 0 2855.28446876 0 -158.48987703 0 -30.10372676 0 28224
0.16150000 0.16150500 8768.14574742 0 112.45475498 0 2855.26228637 0 51.39815943 0 114.38905973 0 28075
0.16250000 0.16249700 8713.16668415 0 -132.24699593 0 2638.17428850 0 243.58264914 0 -141.39057870 0 28590
0.16350000 0.16349900 8893.98646799 0 -134.71478725 0 2461.72443625 0 490.16546705 0 -94.79612758 0 29163
0.16450000 0.16449100 9003.30130511 0 37.73291749 0 2233.07941116 0 -90.34201380 0 -448.87404993 0 28996
0.16550000 0.16550500 8986.24304421 0 115.44826903 0 2334.50840725 0 -33.02769901 0 -138.09760232 0 30777
0.16650000 0.16650700 8664.87561263 0 177.96712799 0 2335.97244525 0 -235.65687980 0 -538.23804198 0 29211
0.16750000 0.16749900 8550.61410167 0 207.17912251 0 2410.84911585 0 -83.64836553 0 -374.60850429 0 30922
0.16850000 0.16850800 8285.63431538 0 106.45020277 0 2472.98200115 0 241.90898752 0 -665.12355331 0 30867
0.16950000 0.16949900 8112.57836940 0 104.03864382 0 2367.06107030 0 48.91350949 0 -58.31629352 0 30852
0.17050000 0.17049200 8012.89069123 0 137.32565501 0 1952.69395231 0 318.02898129 0 -617.16410859 0 31257
0.17150000 0.17149500 7739.60359842 0 165.11464897 0 2096.30277040 0 72.47753379 0 -298.12028277 0 32608
0.17250000 0.17250900 7536.66796786 0 160.79684600 0 2075.76187365 0 -35.11195674 0 226.29701869 0 32361
0.17350000 0.17350400 7387.51355130 0 124.02620075 0 1866.11606893 0 157.45728660 0 31.36335399 0 32508
0.17450000 0.17449800 7391.28455827 0 -48.46997252 0 1901.90736148 0 262.13045779 0 400.50755828 0 32791
0.17550000 0.17549800 7495.75254232 0 -131.42181088 0 1824.61280995 0 210.27911206 0 206.16095063 0 33633
0.17650000 0.17650100 7602.64949851 0 -83.72079104 0 1507.79276913 0 338.46562079 0 793.80029294 0 33984
0.17750000 0.17750300 7921.44377239 0 -105.29061813 0 1547.58798378 0 -76.08849478 0 524.91862357 0 34069
0.17850000 0.17849800 7838.71453435 0 94.53481898 0 1809.75060604 0 -414.15083965 0 769.05361431 0 34536
