### header ###
fiducial parameters:
Omega_m = 0.31
Omega_nu = 0
Omega_de = 0.69
Omega_k = 0
H_0 = 100
w_de = -1
zeff = 0
beta = 0
fgrowth = 0
b_1 = 2
gamma = 0.55
Lx = 3500 Ly = 3500 Lz = 3500
nx = 700 ny = 700 nz = 700
xoffset = 1379.75464 yoffset = 22.6059522 zoffset = 368.141391
bins = 400 dk = 0.001
kx_ny = 0.628318531 ky_ny = 0.628318531 kz_ny = 0.628318531
############################
A(data) = 3.36989405 (not used)
A(ran) = 3.37875252 (used)
Ngal = 189509
weighted Ngal = 0
Nran = 9399747
weighted Nran = 0
SN(data) = 6599.93594
SN(ran) = 134.391175
SN(data+ran) = 6734.32712
############################
13 columns: k_central k_mean P_0(k) sigma^{lin}_{P_0(k)} P^img_1(k) sigma^{lin}_{P_1(k)} P_2(k) sigma^{lin}_{P_2(k)} P^img_3(k) sigma^{lin}_{P_3(k)} P_4(k) sigma^{lin}_{P_4(k)} N_modes
### header ###
0.00050000 0 0 0 0 0 0 0 0 0 0 0 0
0.00150000 0.00179520 35463.99132997 0 -30913.16231015 0 -54485.06136027 0 82682.32227370 0 84665.65011198 0 3
0.00250000 0.00253879 53901.99713670 0 -38949.17814701 0 -22207.79273746 0 -32891.27728586 0 -48967.74543837 0 6
0.00350000 0.00331552 77054.75985414 0 -20352.45731196 0 -40365.30217336 0 -44718.81879948 0 -29781.63839749 0 7
0.00450000 0.00420575 94113.79714430 0 1940.93728355 0 -23072.57336351 0 -55225.62058050 0 -7724.89667127 0 24
0.00550000 0.00557378 73333.99601392 0 5471.83092321 0 -1903.13848435 0 -13770.49739500 0 33489.53644925 0 45
0.00650000 0.00659388 68054.80809051 0 -1081.02458383 0 -6967.91138836 0 24084.31234913 0 -28441.48907024 0 40
0.00750000 0.00754703 85760.79489865 0 -24638.09581275 0 -21552.96846963 0 25174.57700914 0 13891.94600159 0 57
0.00850000 0.00846663 97982.07390393 0 -9073.37548743 0 -28807.72039347 0 794.51900251 0 -32645.05271361 0 75
0.00950000 0.00948925 113692.53255715 0 1162.61253770 0 -63930.76832925 0 -88.91646225 0 44448.19359394 0 112
0.01050000 0.01054430 91136.47623551 0 4246.95240584 0 -1671.09955299 0 -34287.54806967 0 -7340.46469385 0 105
0.01150000 0.01145670 102785.89312614 0 8361.42046413 0 -46295.98700551 0 -754.60067557 0 18640.19832709 0 144
0.01250000 0.01249090 79929.48719115 0 2928.67491897 0 4345.06513404 0 -7576.79591842 0 -5181.09737760 0 169
0.01350000 0.01339930 77241.97925863 0 8599.21572670 0 -9195.42301865 0 -20389.83464567 0 35157.98520617 0 180
0.01450000 0.01448870 68752.88802643 0 7809.79978391 0 873.80886037 0 -878.44165333 0 8385.95419178 0 267
0.01550000 0.01550050 61411.84659034 0 948.21859157 0 6320.27421616 0 3598.98249773 0 -19100.92664832 0 238
0.01650000 0.01653350 59869.50474272 0 1309.53762368 0 7701.18369220 0 6823.22672417 0 10958.08040245 0 315
0.01750000 0.01747870 66336.55985929 0 -7336.40531577 0 2422.83869975 0 10322.92082682 0 11760.32886011 0 297
0.01850000 0.01844180 63254.64896329 0 -821.57265010 0 93.46806766 0 2912.81450733 0 24061.90813129 0 388
0.01950000 0.01947590 66392.90313979 0 664.79414476 0 -11911.05822664 0 -3316.35661709 0 -6608.63424561 0 399
0.02050000 0.02045430 64004.41387699 0 3722.40533737 0 3791.78077428 0 -6334.52640424 0 8298.26718871 0 462
0.02150000 0.02154770 62869.56260524 0 1740.31971315 0 7821.52317908 0 -8652.96366711 0 1209.57266558 0 571
0.02250000 0.02255340 60018.23769379 0 2219.80324841 0 10868.56335188 0 -3300.31874631 0 -4368.48974200 0 510
0.02350000 0.02348930 62013.21128887 0 -658.28915775 0 14974.44682373 0 -1286.74521395 0 -1118.36975308 0 555
0.02450000 0.02439640 59153.56797971 0 -1398.05646652 0 13758.62981427 0 6614.84531590 0 -10999.58366143 0 592
0.02550000 0.02547300 64692.62264762 0 -579.59267892 0 11103.84091274 0 -566.83447507 0 1551.93573298 0 837
0.02650000 0.02652900 60576.56854817 0 1707.24576385 0 20199.06605816 0 -2220.34671706 0 -10644.06643445 0 723
0.02750000 0.02749970 60166.30517305 0 6378.61391210 0 21473.55549948 0 -10530.80313122 0 -1255.22403222 0 826
0.02850000 0.02848090 53009.82125418 0 3755.22418914 0 32718.92008529 0 -3620.26650467 0 -2477.58484788 0 831
0.02950000 0.02946900 48215.42954937 0 3613.57851291 0 33501.07129408 0 569.89453631 0 -3800.59827585 0 996
0.03050000 0.03053250 46999.50162794 0 -300.73447789 0 33666.21921663 0 5239.01560807 0 4628.03484178 0 1041
0.03150000 0.03150510 49813.67102961 0 -2179.52002110 0 32919.00527823 0 11429.92210302 0 -92.64987006 0 1036
0.03250000 0.03246190 51874.74815850 0 -3144.64270594 0 24942.77099292 0 9292.16043843 0 11559.13454747 0 1059
0.03350000 0.03345080 53354.86839124 0 -961.62452133 0 25136.75602754 0 -358.19020544 0 2071.00375016 0 1302
0.03450000 0.03451200 56346.71876802 0 -135.71964970 0 17343.74831581 0 -3103.43890928 0 886.38405947 0 1339
0.03550000 0.03553350 55749.12507645 0 2508.39619301 0 30305.14289345 0 -7376.35580717 0 -1761.21552820 0 1365
0.03650000 0.03647120 51664.56997633 0 3759.72721510 0 27544.98762091 0 -8962.00877888 0 -8440.32323922 0 1308
0.03750000 0.03744890 52027.58485245 0 2822.32143143 0 41213.66782793 0 -5560.82668752 0 -7523.48053469 0 1579
0.03850000 0.03847530 47746.71556634 0 1467.94209849 0 40450.14983002 0 1867.56901573 0 -14429.53631767 0 1662
0.03950000 0.03950240 47497.16363501 0 -45.57306279 0 41451.68491444 0 7347.90688700 0 -3631.18024247 0 1683
0.04050000 0.04050350 47470.10111445 0 -767.54742977 0 36776.63448879 0 6120.02265526 0 -4696.72262448 0 1822
0.04150000 0.04152450 49390.54186604 0 -1536.25278050 0 33167.89173775 0 10816.37927024 0 4853.19723103 0 1887
0.04250000 0.04250150 49215.52277820 0 -1108.80359571 0 24063.34998689 0 9176.45707187 0 4534.50277792 0 1920
0.04350000 0.04349210 51070.96911566 0 198.45035052 0 19810.09778119 0 4068.65032370 0 10255.46416698 0 2005
0.04450000 0.04448520 47469.10290673 0 2960.14064471 0 18725.04598375 0 -2446.51840523 0 4505.96512817 0 2151
0.04550000 0.04548030 44157.71514587 0 3492.19645351 0 23737.93426843 0 -4014.54746498 0 7705.40943823 0 2274
0.04650000 0.04648670 40565.83101419 0 1456.07451776 0 21753.71913440 0 -87.54714308 0 4221.18755533 0 2311
0.04750000 0.04749250 38725.46870457 0 724.46145698 0 21171.20947068 0 2427.39718169 0 1853.61628997 0 2568
0.04850000 0.04851840 39342.13925489 0 -289.71093725 0 21739.30057836 0 4128.85334073 0 6060.14128293 0 2493
0.04950000 0.04949480 38980.23349847 0 281.72416632 0 18503.11113281 0 2893.90401653 0 3130.59015941 0 2644
0.05050000 0.05050630 37986.35133994 0 609.64871353 0 17521.87293880 0 1967.17905552 0 4606.02990704 0 2829
0.05150000 0.05149060 36729.60781373 0 1714.57704503 0 17974.83742217 0 -4023.73097606 0 3794.46484394 0 2784
0.05250000 0.05249300 35099.97824613 0 1193.01350854 0 21057.19196605 0 -619.53873385 0 4823.78337672 0 3055
0.05350000 0.05348950 34940.37592205 0 -204.46399750 0 21388.48601889 0 1599.96061577 0 797.34503949 0 3009
0.05450000 0.05448610 35575.23603536 0 -435.68328940 0 20296.55767934 0 1287.83215125 0 1992.43371098 0 3336
0.05550000 0.05550870 35696.46281801 0 500.24736508 0 18575.98029676 0 -78.89490034 0 -3670.48744445 0 3349
0.05650000 0.05647670 34874.38330020 0 291.93472223 0 19159.93181609 0 -1425.46281418 0 -1436.93111182 0 3324
0.05750000 0.05747970 34640.46995657 0 -52.43906826 0 18165.49509771 0 2150.37235552 0 -3695.43154639 0 3639
0.05850000 0.05849280 35033.43106444 0 405.85462433 0 17450.44563046 0 300.73558701 0 -5624.98926187 0 3846
0.05950000 0.05951020 34039.21617000 0 355.27432977 0 16665.41071046 0 1225.68817475 0 -3827.12841895 0 3787
0.06050000 0.06049470 33463.91578430 0 419.80069537 0 16787.19205295 0 -686.28333885 0 -7670.84926854 0 3930
0.06150000 0.06148310 33316.29195292 0 690.81520192 0 14819.61371434 0 543.72374799 0 -5199.00966068 0 4083
0.06250000 0.06249100 31882.20018751 0 279.75547886 0 14281.80157432 0 1935.77987696 0 -5941.62075234 0 4303
0.06350000 0.06350600 31937.32343635 0 154.41497127 0 14096.35676134 0 1095.79916729 0 -2516.19330446 0 4470
0.06450000 0.06451750 31161.60512179 0 396.29733992 0 12374.33752316 0 1881.74356543 0 -3968.43026807 0 4479
0.06550000 0.06550280 30430.14068305 0 1057.73528848 0 13627.31004240 0 -135.91263652 0 -3674.20299543 0 4636
0.06650000 0.06648880 29782.63660521 0 354.35819690 0 12221.16809331 0 76.04645914 0 -2144.40529156 0 4653
0.06750000 0.06749660 28638.46872804 0 99.57155334 0 13011.85952375 0 1464.24872991 0 -3262.77504464 0 5220
0.06850000 0.06852730 29473.63585824 0 -37.78781891 0 11315.23912658 0 -93.26154957 0 -2071.41412444 0 5029
0.06950000 0.06949320 29032.42804364 0 -199.17571480 0 10344.02737461 0 1244.47666238 0 -3322.44568422 0 5040
0.07050000 0.07048030 29037.52999423 0 844.34842303 0 10314.04786926 0 805.54365227 0 -543.31337371 0 5475
0.07150000 0.07148790 28085.90529608 0 355.90874623 0 10434.70900086 0 264.85445576 0 -1582.35888621 0 5509
0.07250000 0.07249820 27410.34048996 0 397.93661883 0 9987.10156562 0 190.06873298 0 -1360.25766732 0 5916
0.07350000 0.07351270 26832.26730502 0 303.80119385 0 10307.12696236 0 96.94282875 0 -394.84328400 0 5721
0.07450000 0.07449140 27005.17906544 0 195.60656762 0 10223.36624301 0 1282.71910946 0 -1397.71263942 0 6028
0.07550000 0.07549160 26759.95270092 0 0.64883169 0 9176.57907504 0 1257.66409555 0 -198.58677224 0 6183
0.07650000 0.07648840 26119.76881306 0 574.88446582 0 9582.55015693 0 -589.81543515 0 -1088.66087293 0 6330
0.07750000 0.07749960 25573.19462746 0 667.51259713 0 8710.42715850 0 -265.29366716 0 -1317.04636401 0 6583
0.07850000 0.07848650 24717.17604699 0 527.80788037 0 9957.82080567 0 630.09866247 0 -252.62862937 0 6549
0.07950000 0.07947320 23679.15092461 0 812.36252016 0 9481.33189358 0 -334.34745936 0 -523.07415751 0 6828
0.08050000 0.08048110 23819.67638994 0 340.84246430 0 9594.81702076 0 579.54609590 0 -948.76206023 0 7147
0.08150000 0.08149960 22206.90544170 0 208.20505823 0 8934.83534635 0 1152.25335975 0 192.64189067 0 7386
0.08250000 0.08250610 22775.77293318 0 16.83410782 0 7481.34507748 0 606.57090638 0 20.83059881 0 7227
0.08350000 0.08350160 22294.85863350 0 160.68815227 0 8616.55126753 0 900.11496129 0 1411.39917645 0 7798
0.08450000 0.08449610 22276.89089444 0 198.63779174 0 7137.63997526 0 633.94619869 0 1700.48013371 0 7371
0.08550000 0.08548940 21813.16795004 0 -19.97923853 0 7513.80901095 0 831.38725028 0 1244.26592964 0 8256
0.08650000 0.08650700 21336.13556930 0 392.92117957 0 7162.24025009 0 206.28960852 0 2936.82694872 0 8037
0.08750000 0.08749060 21443.72017969 0 506.11904474 0 8126.88601346 0 -976.07635095 0 911.92486780 0 8155
0.08850000 0.08849210 20861.76507582 0 416.84600050 0 8539.92218781 0 95.43830788 0 2926.06848768 0 8718
0.08950000 0.08949900 20329.05488640 0 120.55465611 0 8048.95926370 0 475.50845028 0 1546.77832640 0 8571
0.09050000 0.09049190 19880.30505787 0 152.87884049 0 7872.86432976 0 289.21737898 0 1600.45971963 0 8932
0.09150000 0.09150830 19952.84148591 0 345.87564947 0 7942.37286103 0 388.76419895 0 1041.71405449 0 9285
0.09250000 0.09250820 19612.23082763 0 127.47556300 0 7040.02635091 0 503.16545899 0 1279.86867184 0 9204
0.09350000 0.09350330 18719.27856133 0 481.54095230 0 7371.77514283 0 58.63205990 0 1593.58317752 0 9349
0.09450000 0.09448040 18470.83574969 0 331.25967013 0 6658.43371991 0 -219.36834796 0 377.58094507 0 9564
0.09550000 0.09549270 18034.72988569 0 387.97006925 0 7386.53752597 0 160.23008583 0 382.62965792 0 10155
0.09650000 0.09649430 17457.43308453 0 481.85816054 0 7517.48019714 0 -301.90349005 0 385.27047191 0 9913
0.09750000 0.09749140 17199.34093155 0 280.45866075 0 7186.99580168 0 -252.12287079 0 425.10228751 0 10476
0.09850000 0.09850240 16876.36527642 0 -31.64839776 0 7219.81465345 0 682.48238565 0 136.26755483 0 10575
0.09950000 0.09950330 17041.95684685 0 -172.49694966 0 6711.30545576 0 925.40289033 0 988.75026170 0 10882
0.10050000 0.10051200 17506.56708701 0 -261.96519896 0 6026.94533047 0 774.20325706 0 292.50702800 0 10875
0.10150000 0.10150300 17509.45079822 0 -60.40055125 0 6077.05535828 0 482.34173672 0 574.54507519 0 11118
0.10250000 0.10250800 17270.76823989 0 347.75227999 0 4794.66898473 0 -260.70856635 0 494.00634855 0 11575
0.10350000 0.10349800 17254.13144447 0 116.53076986 0 5690.50496224 0 -392.47864081 0 -18.94842269 0 11364
0.10450000 0.10450100 16779.20639115 0 316.62150840 0 5446.49862938 0 -197.09722449 0 -561.19792878 0 12093
0.10550000 0.10551000 16254.81459944 0 379.83689453 0 5466.61806064 0 100.46106733 0 -788.37891588 0 12067
0.10650000 0.10649700 15849.20952704 0 141.88302784 0 4918.60201943 0 674.67751036 0 -305.53696617 0 12054
0.10750000 0.10749900 15608.30872933 0 76.22303099 0 5087.78713768 0 875.87404124 0 -965.79592050 0 12807
0.10850000 0.10850100 15563.16755775 0 244.91913837 0 4697.67646742 0 122.13293343 0 -120.81529924 0 12736
0.10950000 0.10950300 14960.47191558 0 506.05582492 0 4516.86777477 0 -490.46049289 0 -394.00589863 0 12933
0.11050000 0.11050200 14340.58491814 0 393.66318064 0 5313.63718114 0 -358.38319227 0 408.32130653 0 13428
0.11150000 0.11150900 14192.73926282 0 -51.29079664 0 5192.01111540 0 403.62418462 0 793.40433721 0 13453
0.11250000 0.11250000 14396.70637470 0 -134.90555584 0 5149.72038144 0 33.94416461 0 -173.79572882 0 13668
0.11350000 0.11349100 14705.81803365 0 29.24903912 0 5304.20966373 0 162.71451395 0 1030.53080061 0 13791
0.11450000 0.11448600 14530.79894581 0 263.15084791 0 5575.17869637 0 92.07212961 0 -288.97115441 0 14205
0.11550000 0.11549300 14196.39935782 0 286.36915960 0 6041.33061291 0 -482.39053799 0 1841.06105503 0 14776
0.11650000 0.11649800 14106.00610269 0 76.43254371 0 6089.33331330 0 567.54431168 0 986.39338235 0 14553
0.11750000 0.11747300 14110.44258147 0 -15.58623725 0 6072.54124112 0 337.49625018 0 1957.91790607 0 14568
0.11850000 0.11849100 14118.09550736 0 -12.54669472 0 6048.60643811 0 693.45490679 0 2484.05101571 0 16015
0.11950000 0.11950300 14192.40652692 0 17.05216075 0 5844.89442376 0 358.30222653 0 2339.84327298 0 15270
0.12050000 0.12050700 14239.98776182 0 51.50873866 0 5900.22840533 0 -29.70699464 0 3595.51095308 0 15999
0.12150000 0.12150000 14234.88581123 0 -9.12702361 0 5509.76281677 0 210.71943258 0 2617.02337592 0 15670
0.12250000 0.12250700 13988.10667913 0 246.03824014 0 6395.45034907 0 108.98265577 0 3661.18193021 0 16887
0.12350000 0.12352200 13861.00156210 0 271.59346703 0 6370.07369045 0 -111.43325574 0 3229.60127457 0 16407
0.12450000 0.12449800 13569.96855418 0 321.97855653 0 6782.16711307 0 -160.50847488 0 3046.54106893 0 16306
0.12550000 0.12549900 13231.68704726 0 222.82769229 0 6566.08841412 0 549.48673393 0 3366.73283363 0 17523
0.12650000 0.12650100 12936.66120844 0 24.12013692 0 6424.63128824 0 153.35687108 0 3596.53134320 0 17154
0.12750000 0.12750600 13042.02757945 0 -56.13543147 0 5773.17874429 0 498.31527857 0 3507.55776128 0 18007
0.12850000 0.12850300 12978.47502093 0 32.84003596 0 5797.18009449 0 451.87310959 0 2623.99973880 0 17496
0.12950000 0.12949900 12809.77791535 0 154.62681313 0 5038.97477991 0 -166.86262161 0 2467.94659774 0 18405
0.13050000 0.13049000 12803.12319718 0 91.60618843 0 5241.98804885 0 281.47794175 0 2640.54780465 0 18100
0.13150000 0.13148800 12622.33668692 0 18.60149005 0 4805.17234824 0 -145.25586083 0 1817.95809178 0 19059
0.13250000 0.13249300 12509.31739002 0 64.99397047 0 4581.05253151 0 420.64806282 0 1616.06503373 0 18957
0.13350000 0.13349100 12480.03663008 0 34.18728365 0 4163.59096957 0 -20.64471035 0 1296.09509298 0 19468
0.13450000 0.13450700 12522.73773833 0 169.46461641 0 4389.01954755 0 132.25032329 0 1179.63752502 0 19953
0.13550000 0.13551000 12216.39887862 0 114.24931064 0 4297.38407836 0 -26.51017895 0 1438.22878187 0 19956
0.13650000 0.13649900 12208.85686469 0 94.42612525 0 4205.67097080 0 310.85075863 0 1280.50087007 0 19723
0.13750000 0.13749600 12133.88037332 0 -23.53452172 0 4089.45740917 0 419.98924572 0 710.34125415 0 20946
0.13850000 0.13851100 11773.19464857 0 342.92095460 0 4124.72741547 0 -386.49272182 0 1510.09973809 0 20955
0.13950000 0.13949800 11581.76058924 0 410.52956384 0 4136.14025713 0 -482.54137827 0 575.50446373 0 20506
0.14050000 0.14048300 11117.15034908 0 221.54444080 0 4613.71610652 0 -100.26885689 0 1058.58265593 0 21447
0.14150000 0.14148400 10863.89395797 0 113.57940235 0 4981.21182620 0 18.29260021 0 468.79383965 0 21771
0.14250000 0.14249400 10787.17614867 0 27.19461671 0 4547.61257271 0 250.56677586 0 562.58100104 0 22470
0.14350000 0.14350900 10802.94783074 0 -46.49307758 0 4329.18254001 0 439.02063056 0 103.60442346 0 22519
0.14450000 0.14449900 10835.15666667 0 43.84172694 0 4156.48151233 0 169.75076929 0 529.76214927 0 22218
0.14550000 0.14550500 10579.67094497 0 167.17428424 0 4035.95347509 0 145.16824038 0 583.96150140 0 23559
0.14650000 0.14650700 10619.37743005 0 96.26859489 0 3936.43216488 0 -27.70436812 0 538.11271146 0 23044
0.14750000 0.14750500 10343.27317322 0 57.72735096 0 4006.48416480 0 291.23375859 0 555.75769668 0 23649
0.14850000 0.14849900 10479.26233900 0 20.32894397 0 3814.67300478 0 87.45719347 0 618.76235007 0 23640
0.14950000 0.14949500 10204.96594727 0 105.48249584 0 3293.80821370 0 453.84956088 0 676.14820308 0 24457
0.15050000 0.15050000 10170.41686878 0 169.42912458 0 3533.00096708 0 -17.14710139 0 1047.40272940 0 24591
0.15150000 0.15149900 10031.84345411 0 34.66509241 0 2930.95970554 0 392.41763923 0 1012.07393976 0 25020
0.15250000 0.15250500 9891.08507364 0 -16.06415692 0 3158.76179966 0 581.87635637 0 1282.97420699 0 25297
0.15350000 0.15350100 9997.98202982 0 29.88412106 0 2626.10706622 0 166.23153250 0 1394.79565462 0 25452
0.15450000 0.15450400 9875.18029721 0 12.56588249 0 2079.28887428 0 387.20034018 0 1604.46364173 0 26061
0.15550000 0.15549900 9697.35513654 0 157.70351117 0 2583.73869388 0 -204.06804177 0 1121.34219386 0 26128
0.15650000 0.15649500 9646.08053305 0 191.13570613 0 2236.81714453 0 -240.39171178 0 1132.84376509 0 26331
0.15750000 0.15749700 9285.30607872 0 94.92622732 0 2471.65105752 0 -52.05875112 0 443.81091852 0 27345
0.15850000 0.15849900 9320.73136177 0 59.64091517 0 2470.18701952 0 22.43072580 0 1090.19145811 0 26980
0.15950000 0.15949700 9284.36332698 0 86.19379523 0 2458.56344512 0 259.32882144 0 513.72095113 0 27777
0.16050000 0.16050000 9185.18584387 0 -2.60364739 0 2215.59968477 0 59.89767638 0 630.67096823 0 28224
0.16150000 0.16150500 9074.40696875 0 109.33347033 0 2119.20609209 0 11.98226371 0 340.14926449 0 28075
0.16250000 0.16249700 9041.31083706 0 146.96723252 0 2170.75797551 0 -270.61411434 0 290.96424250 0 28590
0.16350000 0.16349900 8799.25655486 0 159.17198564 0 2404.15003289 0 -205.55093480 0 413.70386441 0 29163
0.16450000 0.16449100 8727.58524018 0 143.53007059 0 2905.47213495 0 -125.52129410 0 557.30270042 0 28996
0.16550000 0.16550500 8705.83540296 0 -27.58624687 0 2589.73903143 0 -23.89798024 0 -93.68124046 0 30777
0.16650000 0.16650700 8832.98488478 0 -59.44903747 0 2906.20415395 0 244.27141247 0 276.92167804 0 29211
0.16750000 0.16749900 8809.21644972 0 34.47609842 0 2761.61931053 0 -79.45001475 0 293.15253566 0 30922
0.16850000 0.16850800 8718.90083297 0 132.91468599 0 2852.21220720 0 -35.84153567 0 63.32818360 0 30867
0.16950000 0.16949900 8725.14517685 0 33.90778549 0 2732.24982101 0 189.56741088 0 516.96290800 0 30852
0.17050000 0.17049200 8660.01766837 0 -23.79327934 0 2647.53525872 0 301.89683533 0 309.88693361 0 31257
0.17150000 0.17149500 8671.24195968 0 114.00974079 0 2674.85287681 0 -10.97599269 0 366.99328846 0 32608
0.17250000 0.17250900 8610.18492048 0 161.19391085 0 2324.38214444 0 88.81031950 0 529.06007651 0 32361
0.17350000 0.17350400 8196.89364860 0 149.29305652 0 2522.94784340 0 -91.67317926 0 250.96716807 0 32508
0.17450000 0.17449800 8171.55026357 0 186.26556155 0 2495.28639821 0 -145.75274646 0 194.01498086 0 32791
0.17550000 0.17549800 7951.80037844 0 44.95373035 0 2588.56336455 0 128.74883241 0 -49.63931741 0 33633
0.17650000 0.17650100 7961.95991484 0 -37.35825686 0 2335.63970934 0 264.00819744 0 193.07999295 0 33984
0.17750000 0.17750300 8022.05201991 0 -5.88603167 0 2112.90629223 0 86.71707790 0 -191.75015844 0 34069
0.17850000 0.17849800 8015.09783942 0 46.32072037 0 1810.74881377 0 69.03582446 0 53.68194779 0 34536
