### header ###
fiducial parameters:
Omega_m = 0.31
Omega_nu = 0
Omega_de = 0.69
Omega_k = 0
H_0 = 100
w_de = -1
zeff = 0
beta = 0
fgrowth = 0
b_1 = 2
gamma = 0.55
Lx = 3500 Ly = 3500 Lz = 3500
nx = 700 ny = 700 nz = 700
xoffset = 1379.75464 yoffset = 22.6059522 zoffset = 368.141391
bins = 400 dk = 0.001
kx_ny = 0.628318531 ky_ny = 0.628318531 kz_ny = 0.628318531
############################
A(data) = 3.31275345 (not used)
A(ran) = 3.31961032 (used)
Ngal = 186929
weighted Ngal = 0
Nran = 9399747
weighted Nran = 0
SN(data) = 6687.27772
SN(ran) = 132.038772
SN(data+ran) = 6819.3165
############################
13 columns: k_central k_mean P_0(k) sigma^{lin}_{P_0(k)} P^img_1(k) sigma^{lin}_{P_1(k)} P_2(k) sigma^{lin}_{P_2(k)} P^img_3(k) sigma^{lin}_{P_3(k)} P_4(k) sigma^{lin}_{P_4(k)} N_modes
### header ###
0.00050000 0 0 0 0 0 0 0 0 0 0 0 0
0.00150000 0.00179520 75515.63445364 0 -67466.19826847 0 -95236.89174727 0 93735.14368048 0 -18520.96795990 0 3
0.00250000 0.00253879 111884.66745459 0 -45483.33500512 0 3064.26480166 0 -141007.93240123 0 5489.94284783 0 6
0.00350000 0.00331552 113269.95795342 0 11957.75216579 0 -56640.74639912 0 -40755.71230594 0 4408.98370205 0 7
0.00450000 0.00420575 113702.51463440 0 21806.73505581 0 -1684.67517806 0 -77053.09617460 0 28662.53662541 0 24
0.00550000 0.00557378 78736.29622346 0 16328.34923520 0 46823.37342040 0 -11840.96186192 0 23731.39046223 0 45
0.00650000 0.00659388 60499.37381741 0 14112.32808495 0 13872.20367102 0 52224.45359828 0 -581.33288772 0 40
0.00750000 0.00754703 61988.81065559 0 -12085.96640251 0 19781.59340503 0 33396.25948292 0 11112.04839849 0 57
0.00850000 0.00846663 69838.60529569 0 -6895.86297298 0 6954.82377596 0 39956.70247779 0 11400.64134308 0 75
0.00950000 0.00948925 83206.71406541 0 -1680.47161441 0 5296.26836672 0 5834.18032751 0 25080.41274705 0 112
0.01050000 0.01054430 68225.61252351 0 2216.64225728 0 -16382.47427631 0 -16793.62494718 0 11115.48666954 0 105
0.01150000 0.01145670 74013.77547488 0 7773.34301954 0 27344.01513221 0 -21933.84017284 0 26515.28089624 0 144
0.01250000 0.01249090 64312.74915215 0 3042.89206514 0 5533.47579585 0 1585.63078931 0 17531.74410409 0 169
0.01350000 0.01339930 67790.06121935 0 -3981.19623576 0 28960.55708741 0 13618.76982075 0 20310.64349946 0 180
0.01450000 0.01448870 76203.62140034 0 -6622.13223230 0 19858.12266398 0 16765.23148299 0 36181.25903661 0 267
0.01550000 0.01550050 82725.24520589 0 -3525.17058204 0 11547.71061461 0 20041.12741362 0 13914.23930745 0 238
0.01650000 0.01653350 89576.27756081 0 -368.95975768 0 13040.58572384 0 1821.82891952 0 54572.57090419 0 315
0.01750000 0.01747870 88490.11664367 0 365.56696053 0 15264.70344787 0 5628.32771215 0 38153.27385401 0 297
0.01850000 0.01844180 86246.36750104 0 5797.08027372 0 25577.07654639 0 859.23502758 0 56636.97539216 0 388
0.01950000 0.01947590 82142.40280626 0 2114.59215416 0 14890.37555087 0 10258.76934367 0 37294.70429825 0 399
0.02050000 0.02045430 79867.15466430 0 1507.65967476 0 40303.63511833 0 3862.90862031 0 48172.50661718 0 462
0.02150000 0.02154770 76178.33347129 0 864.63422225 0 18638.42373558 0 2192.82945744 0 34961.67102019 0 571
0.02250000 0.02255340 74878.55610093 0 2634.92456779 0 31897.72786324 0 5246.43561883 0 34371.84116648 0 510
0.02350000 0.02348930 73344.97629890 0 752.73291800 0 12351.04600957 0 1157.96532618 0 14127.74484871 0 555
0.02450000 0.02439640 74737.14333984 0 -1173.94774098 0 24385.77108218 0 1837.72260474 0 8420.53654386 0 592
0.02550000 0.02547300 74187.90726697 0 671.16714653 0 12878.76516037 0 -4533.18292548 0 2378.62918871 0 837
0.02650000 0.02652900 75797.46176809 0 1738.38984488 0 19401.94173350 0 -3360.27775701 0 -10180.84259391 0 723
0.02750000 0.02749970 70476.46003218 0 20.71879955 0 16627.25699296 0 -8256.65301776 0 -11641.98578867 0 826
0.02850000 0.02848090 74527.29789358 0 1038.48318882 0 15680.84515737 0 1980.20012074 0 -26871.19740631 0 831
0.02950000 0.02946900 68623.45375804 0 3201.61818466 0 28213.23223704 0 -6595.18062372 0 -12230.92834662 0 996
0.03050000 0.03053250 67267.66584309 0 2798.73045552 0 22399.55953269 0 2249.54983863 0 -19108.24683831 0 1041
0.03150000 0.03150510 66605.18864937 0 2640.55889584 0 33614.42332689 0 6736.72647917 0 -11679.14129845 0 1036
0.03250000 0.03246190 58088.03668890 0 3835.19171914 0 24827.53345663 0 -2960.82829892 0 -9398.43628759 0 1059
0.03350000 0.03345080 56104.93067455 0 2433.37533685 0 29426.72009515 0 10449.19410407 0 7810.34325256 0 1302
0.03450000 0.03451200 54025.10942282 0 510.61985246 0 28696.36477611 0 6486.08761053 0 5668.64421305 0 1339
0.03550000 0.03553350 56240.57601323 0 -1127.63090253 0 20505.18309393 0 9328.72811477 0 13480.01894693 0 1365
0.03650000 0.03647120 51035.58819740 0 -447.57194341 0 16595.64708166 0 7234.63249257 0 10946.63428720 0 1308
0.03750000 0.03744890 53793.96887842 0 1183.37525839 0 11764.09986707 0 -5439.13407461 0 13658.47630583 0 1579
0.03850000 0.03847530 50464.61337850 0 2551.80713786 0 14243.75876879 0 246.58836351 0 8800.59858969 0 1662
0.03950000 0.03950240 48828.44000470 0 2210.79719649 0 19187.54889649 0 -4637.69527432 0 4538.75070635 0 1683
0.04050000 0.04050350 45511.83938128 0 1082.66053538 0 16045.85644893 0 -207.89339560 0 2411.62549963 0 1822
0.04150000 0.04152450 45796.10675906 0 -1040.89441503 0 16837.98973497 0 3774.25668310 0 -3524.59383980 0 1887
0.04250000 0.04250150 46797.42001954 0 -173.20456802 0 13340.60260129 0 992.61554384 0 -1378.82433101 0 1920
0.04350000 0.04349210 45630.62610059 0 760.61321343 0 16845.19901299 0 2151.22637768 0 -1593.11734725 0 2005
0.04450000 0.04448520 44827.51252957 0 2465.31798406 0 16399.11107173 0 -3050.46735265 0 -1116.01841932 0 2151
0.04550000 0.04548030 42859.15780717 0 1670.91100264 0 18415.60158889 0 -2498.43629815 0 9.04886394 0 2274
0.04650000 0.04648670 40233.20601771 0 481.20710727 0 19361.23704070 0 3081.03469144 0 -959.32864356 0 2311
0.04750000 0.04749250 39659.45839958 0 132.95905078 0 16940.36148281 0 693.65454834 0 1376.77245958 0 2568
0.04850000 0.04851840 39490.31764612 0 981.87482871 0 16039.75629061 0 4107.92425209 0 -2475.38879089 0 2493
0.04950000 0.04949480 38901.70782407 0 428.72467244 0 15002.17481610 0 1987.84195544 0 3260.90063235 0 2644
0.05050000 0.05050630 36866.36227211 0 313.07454362 0 13019.62336161 0 2575.54229933 0 2682.28397876 0 2829
0.05150000 0.05149060 37112.03228451 0 982.28076652 0 12562.44422340 0 -968.51548199 0 246.86120696 0 2784
0.05250000 0.05249300 35417.96286264 0 1106.65079438 0 13860.55791422 0 -1095.35551941 0 -241.53632330 0 3055
0.05350000 0.05348950 34307.17948827 0 375.58674786 0 11156.41318628 0 1392.08940256 0 -1504.02176216 0 3009
0.05450000 0.05448610 33892.59054635 0 -381.04916235 0 13230.13427969 0 1286.80066993 0 828.21516795 0 3336
0.05550000 0.05550870 35227.74883498 0 -866.58849116 0 7036.85426859 0 3110.07144505 0 -466.79409684 0 3349
0.05650000 0.05647670 34705.90801856 0 482.51475939 0 12203.53309016 0 -23.82999120 0 -1293.67721204 0 3324
0.05750000 0.05747970 34058.84758860 0 1560.68668737 0 8228.93611658 0 -2852.91095261 0 565.58560630 0 3639
0.05850000 0.05849280 33517.92991344 0 75.96050236 0 12341.72940413 0 2168.97229280 0 619.83375969 0 3846
0.05950000 0.05951020 33330.59959698 0 154.75879838 0 12864.79025221 0 -235.77888296 0 3321.72475642 0 3787
0.06050000 0.06049470 32776.37248548 0 419.70531108 0 10637.71117860 0 1200.50006648 0 2796.34584818 0 3930
0.06150000 0.06148310 32392.72798304 0 434.93574273 0 12647.18096809 0 -1017.94118295 0 3675.93322216 0 4083
0.06250000 0.06249100 32250.64975013 0 182.95816662 0 12327.19993613 0 154.76434398 0 2355.17130717 0 4303
0.06350000 0.06350600 31663.37087172 0 877.26044086 0 13103.58372251 0 45.33626573 0 1496.11373874 0 4470
0.06450000 0.06451750 30732.93035974 0 1325.46458249 0 14270.93220131 0 -2442.59212151 0 1286.68975796 0 4479
0.06550000 0.06550280 28879.14770181 0 1007.45778359 0 14127.96667265 0 -1684.49771891 0 -2249.63856820 0 4636
0.06650000 0.06648880 28672.74052661 0 219.68444707 0 16808.15441518 0 5.24702345 0 -2730.67487105 0 4653
0.06750000 0.06749660 27792.54313680 0 -316.06362119 0 13066.31730076 0 2740.47948915 0 -2955.98144585 0 5220
0.06850000 0.06852730 29074.35276810 0 -566.74574550 0 10715.67120195 0 3637.28040079 0 -2869.80284556 0 5029
0.06950000 0.06949320 28623.49561216 0 -323.17973316 0 9364.53049852 0 1232.25416334 0 -3355.03162085 0 5040
0.07050000 0.07048030 28209.79396599 0 1043.20138400 0 7673.34478786 0 500.11870719 0 -1871.83912656 0 5475
0.07150000 0.07148790 26970.01997111 0 820.82177607 0 7616.72422743 0 -165.95647082 0 -1525.71614339 0 5509
0.07250000 0.07249820 25989.55816089 0 478.81584521 0 7828.22226204 0 -289.72091932 0 -580.73950869 0 5916
0.07350000 0.07351270 26296.34066848 0 -107.59570159 0 7834.32242036 0 1459.12459692 0 -1055.36509969 0 5721
0.07450000 0.07449140 25231.47484948 0 21.73564048 0 6703.18669960 0 1428.23561342 0 -734.32042195 0 6028
0.07550000 0.07549160 25764.96142269 0 217.39744226 0 6084.49755143 0 409.63117689 0 120.18642837 0 6183
0.07650000 0.07648840 25192.21201228 0 65.44349668 0 5162.58616990 0 195.09859080 0 -375.27397610 0 6330
0.07750000 0.07749960 24857.81242430 0 505.11861878 0 7601.44055804 0 13.23479258 0 1820.18742237 0 6583
0.07850000 0.07848650 24375.34535705 0 552.84293012 0 6582.56993279 0 -1164.83077709 0 523.17841477 0 6549
0.07950000 0.07947320 24221.73227931 0 132.39118149 0 8275.98497404 0 -0.90263599 0 1656.32607866 0 6828
0.08050000 0.08048110 24029.74366014 0 387.10384677 0 6929.96840360 0 -432.49900676 0 -1274.32307337 0 7147
0.08150000 0.08149960 23575.89188102 0 399.89532421 0 9245.64395843 0 -841.90392323 0 -102.42842385 0 7386
0.08250000 0.08250610 23038.52338888 0 351.95473452 0 8850.16514885 0 36.77752178 0 -2248.96200519 0 7227
0.08350000 0.08350160 22611.51230637 0 344.45930362 0 9329.17176265 0 -412.26755440 0 -1027.01821853 0 7798
0.08450000 0.08449610 22521.34087518 0 253.89635318 0 8047.14030740 0 1107.16875328 0 -2159.11221871 0 7371
0.08550000 0.08548940 22398.56132497 0 -131.40628320 0 8498.75166474 0 670.11570106 0 -1952.37230760 0 8256
0.08650000 0.08650700 22316.15373164 0 341.93051072 0 7938.05838542 0 1036.67532372 0 -178.26326295 0 8037
0.08750000 0.08749060 21607.75898256 0 168.29116777 0 7429.16099584 0 976.48339788 0 858.30114880 0 8155
0.08850000 0.08849210 21469.45175661 0 134.14248149 0 7309.98608463 0 562.86715393 0 1572.99791598 0 8718
0.08950000 0.08949900 21754.38460621 0 195.35368833 0 7666.71225208 0 861.79043936 0 3198.29082558 0 8571
0.09050000 0.09049190 21146.25427754 0 218.24037323 0 7606.25413752 0 -282.54491490 0 3165.98216887 0 8932
0.09150000 0.09150830 20845.79375221 0 293.90451881 0 7794.22774339 0 144.52384183 0 2543.40001058 0 9285
0.09250000 0.09250820 20873.41083262 0 415.05699044 0 9087.80513466 0 -987.77867285 0 2419.97717094 0 9204
0.09350000 0.09350330 19727.24653999 0 687.34032992 0 8923.71087581 0 -904.53702151 0 1456.28525050 0 9349
0.09450000 0.09448040 19673.67605873 0 477.96625953 0 10284.11272869 0 -431.79360663 0 1662.40405458 0 9564
0.09550000 0.09549270 18500.44924554 0 321.56152752 0 9196.97578622 0 81.76352752 0 129.96997320 0 10155
0.09650000 0.09649430 18946.53718680 0 45.08527195 0 10040.89387082 0 653.53657986 0 404.34733066 0 9913
0.09750000 0.09749140 18005.56003771 0 309.76160309 0 8980.70853693 0 479.31827643 0 -227.79211204 0 10476
0.09850000 0.09850240 18169.82066452 0 383.95838331 0 8974.53074023 0 -223.75713459 0 -516.28856322 0 10575
0.09950000 0.09950330 17515.44004457 0 247.09523121 0 8956.39663322 0 218.92691832 0 -321.18775418 0 10882
0.10050000 0.10051200 17499.57963294 0 -104.58954357 0 8121.49569175 0 533.41448043 0 -612.05106679 0 10875
0.10150000 0.10150300 17284.41041214 0 43.45530964 0 8362.79577255 0 941.92766467 0 -171.79709513 0 11118
0.10250000 0.10250800 17445.23276789 0 150.98668230 0 7349.03818909 0 16.82201841 0 -744.32911808 0 11575
0.10350000 0.10349800 17070.46122301 0 267.34221124 0 8398.24323800 0 167.53252990 0 448.94614271 0 11364
0.10450000 0.10450100 16776.54450388 0 213.45563087 0 7256.49324175 0 413.52085966 0 230.80891761 0 12093
0.10550000 0.10551000 16323.35819658 0 214.72224556 0 7447.52801799 0 356.19378999 0 773.78068245 0 12067
0.10650000 0.10649700 16610.84202148 0 125.09095566 0 6601.73552111 0 767.54742977 0 1211.99054652 0 12054
0.10750000 0.10749900 15833.23820344 0 153.47000129 0 7044.66247124 0 468.90696986 0 1098.86588324 0 12807
0.10850000 0.10850100 15651.78622136 0 314.48423475 0 6104.23988200 0 379.15922239 0 1524.99521559 0 12736
0.10950000 0.10950300 15531.00308660 0 -133.78090847 0 5134.99127189 0 502.59315323 0 474.36716612 0 12933
0.11050000 0.11050200 15258.15964167 0 -4.55615279 0 5350.59304937 0 1020.71287307 0 1401.83856468 0 13428
0.11150000 0.11150900 15259.71240924 0 186.73693742 0 4344.16674709 0 199.54283342 0 889.46630310 0 13453
0.11250000 0.11250000 14786.78377137 0 343.69844751 0 4665.47872268 0 105.24281507 0 1131.53500385 0 13668
0.11350000 0.11349100 14347.57237222 0 428.56052272 0 5095.48442836 0 -573.98386063 0 723.25362563 0 13791
0.11450000 0.11448600 14069.40515276 0 299.67970506 0 4687.56129580 0 -397.57060933 0 972.49833081 0 14205
0.11550000 0.11549300 13597.91837049 0 182.50120930 0 5480.18259451 0 185.14756890 0 286.07413377 0 14776
0.11650000 0.11649800 13856.67599529 0 0.03353678 0 5257.21626226 0 -203.76525209 0 502.10735880 0 14553
0.11750000 0.11747300 13678.88410821 0 -109.90244874 0 5303.69946867 0 340.38217962 0 -58.20205419 0 14568
0.11850000 0.11849100 13850.02127712 0 -70.88117781 0 5213.79422621 0 89.73721083 0 -71.78300303 0 16015
0.11950000 0.11950300 14101.68053588 0 -97.29453061 0 4611.12076644 0 368.27875819 0 -644.22219266 0 15270
0.12050000 0.12050700 14042.34263221 0 7.47035370 0 4376.07612071 0 1.30283854 0 -390.59757381 0 15999
0.12150000 0.12150000 13981.00831308 0 222.56926740 0 4399.46745507 0 -221.92265062 0 -918.42098185 0 15670
0.12250000 0.12250700 13663.57825642 0 254.00393779 0 4537.16466519 0 -157.74676684 0 -601.07854565 0 16887
0.12350000 0.12352200 13412.91720539 0 386.27200700 0 4825.04777317 0 -404.41942344 0 -1341.89064517 0 16407
0.12450000 0.12449800 13140.73923228 0 305.73660772 0 5326.31441925 0 20.08061207 0 -1363.41865845 0 16306
0.12550000 0.12549900 12392.52708616 0 201.71227154 0 5317.82965358 0 152.40746462 0 -662.25426066 0 17523
0.12650000 0.12650100 12443.54659212 0 69.83616523 0 4924.82418092 0 583.24611920 0 -398.88269793 0 17154
0.12750000 0.12750600 12462.06889102 0 -135.36362227 0 4428.55966467 0 862.08990167 0 -417.48374433 0 18007
0.12850000 0.12850300 12431.67901138 0 -18.01299114 0 4301.63200679 0 596.22836523 0 -5.82601721 0 17496
0.12950000 0.12949900 12442.10473652 0 111.06613712 0 3460.74181897 0 51.09115509 0 400.01289090 0 18405
0.13050000 0.13049000 12301.13562330 0 68.12523719 0 3488.18144022 0 399.43725777 0 471.38917974 0 18100
0.13150000 0.13148800 12161.05380585 0 -26.46636872 0 2858.72273981 0 365.72112817 0 659.47924318 0 19059
0.13250000 0.13249300 12132.43851772 0 100.55079512 0 2614.52785660 0 42.45111267 0 72.89655921 0 18957
0.13350000 0.13349100 11973.94531333 0 246.16467979 0 3097.73803405 0 -174.78506359 0 327.40215183 0 19468
0.13450000 0.13450700 11355.61108347 0 301.82030607 0 2622.81298072 0 -285.92883909 0 -178.65034572 0 19953
0.13550000 0.13551000 11367.25684026 0 30.32765802 0 3208.20635565 0 190.45027016 0 69.26718683 0 19956
0.13650000 0.13649900 11342.74529501 0 16.44635957 0 2915.57621537 0 52.38571960 0 -260.56327167 0 19723
0.13750000 0.13749600 11270.43069091 0 82.66956740 0 2733.51421747 0 126.68586978 0 -737.32613632 0 20946
0.13850000 0.13851100 11273.97987393 0 89.03247617 0 3015.72972381 0 -101.65692019 0 50.35148317 0 20955
0.13950000 0.13949800 10801.87198463 0 222.32415195 0 2835.68632375 0 -232.75764092 0 -286.59542002 0 20506
0.14050000 0.14048300 11073.52867148 0 88.37632096 0 3339.13793563 0 26.73211380 0 472.85654509 0 21447
0.14150000 0.14148400 10815.62506885 0 -99.47938549 0 3171.83832086 0 795.04694348 0 266.92629135 0 21771
0.14250000 0.14249400 11053.23178107 0 -82.37431973 0 2813.84775696 0 492.44803538 0 848.05842841 0 22470
0.14350000 0.14350900 11134.89626420 0 24.44078342 0 2383.14330587 0 174.80502774 0 1122.55113433 0 22519
0.14450000 0.14449900 10882.01697378 0 165.97643497 0 2427.05335459 0 76.33117017 0 1076.54595851 0 22218
0.14550000 0.14550500 10708.99430139 0 275.47205860 0 2588.62991173 0 -402.46515454 0 897.15804818 0 23559
0.14650000 0.14650700 10441.41917501 0 259.29776609 0 2599.58801432 0 -186.70810031 0 615.43942746 0 23044
0.14750000 0.14750500 10059.24980177 0 170.51495276 0 2949.43763965 0 58.60255732 0 917.62463391 0 23649
0.14850000 0.14849900 10084.80391953 0 66.34587646 0 2747.46694323 0 50.64639810 0 180.14987555 0 23640
0.14950000 0.14949500 9836.50529345 0 43.47605018 0 2689.65962473 0 299.96031234 0 400.46762997 0 24457
0.15050000 0.15050000 9759.55456903 0 158.46769464 0 2514.28561859 0 -134.79464387 0 216.07869895 0 24591
0.15150000 0.15149900 9911.18232251 0 78.33313121 0 2394.15686444 0 63.42811528 0 562.54772745 0 25020
0.15250000 0.15250500 9570.84894415 0 -13.89139144 0 2729.82084888 0 31.41936454 0 -7.35238773 0 25297
0.15350000 0.15350100 9568.47542800 0 260.90044405 0 2653.31377233 0 -371.30443671 0 265.05631555 0 25452
0.15450000 0.15450400 9384.16191712 0 117.08311146 0 2834.32210653 0 65.94193507 0 33.86486255 0 26061
0.15550000 0.15549900 9376.30934968 0 21.14836160 0 3070.14313604 0 253.99506483 0 445.16182631 0 26128
0.15650000 0.15649500 9187.35971847 0 -33.33847435 0 2452.17491568 0 505.71865253 0 445.32375779 0 26331
0.15750000 0.15749700 9251.76629915 0 182.71748764 0 2759.53416551 0 -63.48124212 0 531.43802913 0 27345
0.15850000 0.15849900 9020.35956602 0 208.48899287 0 2926.16830846 0 -278.04521629 0 717.89435927 0 26980
0.15950000 0.15949700 8809.47154725 0 191.15456116 0 3001.13370863 0 -46.41654832 0 848.85033988 0 27777
0.16050000 0.16050000 8523.83995224 0 164.23844441 0 3279.33420168 0 -340.88128349 0 655.49306700 0 28224
0.16150000 0.16150500 8426.69215817 0 98.12548308 0 3316.76699138 0 -32.03326229 0 231.81378006 0 28075
0.16250000 0.16249700 8432.83668128 0 11.22174034 0 3529.14123055 0 -68.09640008 0 159.75205524 0 28590
0.16350000 0.16349900 8497.11016759 0 -147.84454620 0 3209.09365141 0 341.56671946 0 318.03563601 0 29163
0.16450000 0.16449100 8734.63924144 0 -114.33138550 0 3042.18222853 0 405.31559216 0 118.06579151 0 28996
0.16550000 0.16550500 8615.05395594 0 75.72880726 0 2543.44437536 0 111.49425732 0 -118.78006460 0 30777
0.16650000 0.16650700 8583.89878371 0 99.40108164 0 2368.70256744 0 300.35737720 0 -299.15287321 0 29211
0.16750000 0.16749900 8429.01021833 0 151.96492587 0 2338.35705259 0 -132.29801544 0 155.27010256 0 30922
0.16850000 0.16850800 8172.41537693 0 185.56348878 0 2463.22174784 0 71.97388253 0 222.68572497 0 30867
0.16950000 0.16949900 8048.12742393 0 125.43478277 0 2309.74176447 0 53.06206079 0 -0.00439555 0 30852
0.17050000 0.17049200 7877.51154128 0 62.29625863 0 2267.92795197 0 33.64614415 0 93.38033629 0 31257
0.17150000 0.17149500 7871.10082944 0 -0.25412705 0 2159.93296729 0 254.77033950 0 119.76939937 0 32608
0.17250000 0.17250900 7803.12288335 0 77.04400139 0 2185.38726428 0 102.00418557 0 713.88489157 0 32361
0.17350000 0.17350400 7743.71843249 0 84.31117546 0 2062.60771407 0 239.22824522 0 396.40714277 0 32508
0.17450000 0.17449800 7723.35499489 0 56.28616083 0 2036.11084456 0 97.80272925 0 779.86309486 0 32791
0.17550000 0.17549800 7656.08688540 0 16.53253817 0 2099.67449427 0 120.50363660 0 636.83434637 0 33633
0.17650000 0.17650100 7528.64903247 0 48.59929588 0 1811.81356867 0 129.77809549 0 1029.53259288 0 33984
0.17750000 0.17750300 7644.71840853 0 40.86285327 0 1944.66392572 0 -9.60599695 0 533.47215465 0 34069
0.17850000 0.17849800 7535.56993936 0 88.38341933 0 1753.70678786 0 -139.08360973 0 596.21727403 0 34536
