### header ###
fiducial parameters:
Omega_m = 0.31
Omega_nu = 0
Omega_de = 0.69
Omega_k = 0
H_0 = 100
w_de = -1
zeff = 0
beta = 0
fgrowth = 0
b_1 = 2
gamma = 0.55
Lx = 3500 Ly = 3500 Lz = 3500
nx = 700 ny = 700 nz = 700
xoffset = 1379.75464 yoffset = 22.6059522 zoffset = 368.141391
bins = 400 dk = 0.001
kx_ny = 0.628318531 ky_ny = 0.628318531 kz_ny = 0.628318531
############################
A(data) = 3.36619178 (not used)
A(ran) = 3.36549247 (used)
Ngal = 189078
weighted Ngal = 0
Nran = 9399747
weighted Nran = 0
SN(data) = 6665.14731
SN(ran) = 133.863751
SN(data+ran) = 6799.01106
############################
13 columns: k_central k_mean P_0(k) sigma^{lin}_{P_0(k)} P^img_1(k) sigma^{lin}_{P_1(k)} P_2(k) sigma^{lin}_{P_2(k)} P^img_3(k) sigma^{lin}_{P_3(k)} P_4(k) sigma^{lin}_{P_4(k)} N_modes
### header ###
0.00050000 0 0 0 0 0 0 0 0 0 0 0 0
0.00150000 0.00179520 10348.26421184 0 -18927.57124002 0 -31429.23570415 0 39146.26871678 0 31652.72332265 0 3
0.00250000 0.00253879 18843.38905518 0 -13573.62864917 0 -363.25666421 0 -54975.07044144 0 -34834.23316725 0 6
0.00350000 0.00331552 40605.64841123 0 -17518.87831563 0 -60747.48389314 0 35594.53471805 0 48538.95976435 0 7
0.00450000 0.00420575 46289.99775916 0 -13625.86818680 0 -26238.99918026 0 -20952.49106686 0 -16603.41091952 0 24
0.00550000 0.00557378 78130.93869403 0 -13361.78678746 0 -51058.21423917 0 -21117.30625351 0 -5041.64775837 0 45
0.00650000 0.00659388 92584.21017317 0 -18720.27676906 0 4252.14308601 0 -17389.44404724 0 -38996.20482207 0 40
0.00750000 0.00754703 102936.84431661 0 6684.97495421 0 -31282.05552064 0 -51401.15404881 0 -11698.32906917 0 57
0.00850000 0.00846663 92161.41374550 0 12655.61027777 0 15743.73224406 0 -32560.87052877 0 -21800.74580946 0 75
0.00950000 0.00948925 77348.23292539 0 10647.07214882 0 23629.12962637 0 -15549.08173762 0 -12922.35356437 0 112
0.01050000 0.01054430 72429.39799083 0 6016.65269970 0 64504.07229950 0 12735.91054367 0 -14255.51543755 0 105
0.01150000 0.01145670 68443.88727945 0 885.80509899 0 37374.56091627 0 18608.69932776 0 -11762.65801147 0 144
0.01250000 0.01249090 68929.90352972 0 -140.82492765 0 46765.25554839 0 17495.47589007 0 -9437.35529768 0 169
0.01350000 0.01339930 68362.36698188 0 -287.12114276 0 26716.80794479 0 8470.19183260 0 22511.58062187 0 180
0.01450000 0.01448870 71768.47356468 0 -3856.29826693 0 21663.43679124 0 10289.63614477 0 -7010.37958147 0 267
0.01550000 0.01550050 74466.51813431 0 -2351.08974669 0 20566.29558912 0 -619.76166691 0 -13521.94367140 0 238
0.01650000 0.01653350 77522.91927733 0 173.47519323 0 9940.84018315 0 3664.72002204 0 -7352.58737211 0 315
0.01750000 0.01747870 75447.20176847 0 -9.64895315 0 6383.68258911 0 9169.85780969 0 7910.54112579 0 297
0.01850000 0.01844180 72222.32534380 0 2290.21016664 0 2258.20097225 0 -3887.14288564 0 -158.14050433 0 388
0.01950000 0.01947590 71277.90992366 0 4174.82635208 0 7215.41144826 0 -1940.36054130 0 -2698.62131187 0 399
0.02050000 0.02045430 63776.93342758 0 3856.54227326 0 12335.62924581 0 -122.82280588 0 7023.70010901 0 462
0.02150000 0.02154770 61999.23638072 0 2988.91120959 0 14590.35867342 0 -5375.82552242 0 10251.73752480 0 571
0.02250000 0.02255340 56892.73839379 0 928.34205752 0 19658.59203088 0 3874.07745564 0 7811.35255148 0 510
0.02350000 0.02348930 58032.35888022 0 309.70947446 0 14365.20737537 0 4808.24460980 0 10567.96973219 0 555
0.02450000 0.02439640 58460.14634651 0 -514.23225531 0 14957.47729240 0 2172.88748532 0 -1372.65762551 0 592
0.02550000 0.02547300 60658.19975771 0 399.69235530 0 21124.18279562 0 1142.94784551 0 10028.68246298 0 837
0.02650000 0.02652900 55616.91800883 0 2964.79894743 0 20840.69180162 0 -1569.70383049 0 4294.87746785 0 723
0.02750000 0.02749970 55033.63196132 0 2082.88242209 0 19507.30810450 0 -351.66969076 0 16861.17033660 0 826
0.02850000 0.02848090 52352.44601106 0 -312.59429479 0 22814.70303446 0 6933.46213064 0 8226.07458777 0 831
0.02950000 0.02946900 57750.42065379 0 -3470.59080186 0 14252.07716650 0 13123.65878898 0 16814.03274957 0 996
0.03050000 0.03053250 59518.91200719 0 -1879.96897392 0 13923.77773683 0 4587.04177786 0 17323.22960146 0 1041
0.03150000 0.03150510 60737.83455180 0 2300.84662451 0 7314.36710743 0 913.05173341 0 9498.51215765 0 1036
0.03250000 0.03246190 59341.67467995 0 1015.61535895 0 8826.14161626 0 -7532.25367148 0 17736.82033566 0 1059
0.03350000 0.03345080 52580.59193229 0 3302.15988500 0 19144.29322839 0 -3934.63539097 0 2065.94616435 0 1302
0.03450000 0.03451200 52894.58371789 0 4035.41000644 0 22857.07140681 0 -9160.30828911 0 2640.73635499 0 1339
0.03550000 0.03553350 48395.32876387 0 1129.52749721 0 26682.75797016 0 -4466.97957090 0 -7564.30723066 0 1365
0.03650000 0.03647120 47674.95552209 0 -1326.27423987 0 24250.45847941 0 9530.39934888 0 3190.16097822 0 1308
0.03750000 0.03744890 48735.71759822 0 -567.14170123 0 24002.23749171 0 2791.77627503 0 -5405.23937673 0 1579
0.03850000 0.03847530 51418.67813999 0 326.45940009 0 19893.05993436 0 4631.90566952 0 -1615.74338902 0 1662
0.03950000 0.03950240 48779.52782616 0 302.94273520 0 17986.70500290 0 2676.15054685 0 1144.24551556 0 1683
0.04050000 0.04050350 48513.67183531 0 1734.23064602 0 20289.90296117 0 -736.14270561 0 6673.16282946 0 1822
0.04150000 0.04152450 45610.66194608 0 -573.94615056 0 19438.65359539 0 2371.44209309 0 5819.86159225 0 1887
0.04250000 0.04250150 48602.06867499 0 892.69827789 0 18768.85621169 0 2139.51407371 0 2186.89566707 0 1920
0.04350000 0.04349210 46952.03130500 0 836.94504907 0 17762.10826470 0 -1907.27550081 0 6310.53614524 0 2005
0.04450000 0.04448520 44427.56396762 0 1868.95541535 0 18976.37250659 0 -132.36012614 0 587.54063066 0 2151
0.04550000 0.04548030 44359.24219442 0 975.33767723 0 24735.92016983 0 -1558.66808953 0 5915.22370361 0 2274
0.04650000 0.04648670 41523.00131082 0 885.13297245 0 19496.54964346 0 -491.35555248 0 -201.02239909 0 2311
0.04750000 0.04749250 42939.56898504 0 125.88619448 0 23848.29167807 0 2797.64351822 0 2095.00510035 0 2568
0.04850000 0.04851840 42645.31953001 0 213.94697089 0 22473.64872831 0 105.52641698 0 893.96378346 0 2493
0.04950000 0.04949480 41781.75893562 0 648.20282324 0 19545.79455791 0 2211.58467148 0 -1716.45145731 0 2644
0.05050000 0.05050630 40670.42100141 0 1709.38636486 0 25180.56625549 0 -2335.61752695 0 3859.94727072 0 2829
0.05150000 0.05149060 38507.41577256 0 522.13806049 0 20590.69622241 0 1474.92955257 0 -2258.05678669 0 2784
0.05250000 0.05249300 38015.41027594 0 827.05281051 0 23615.37654216 0 4035.01072335 0 5847.06829836 0 3055
0.05350000 0.05348950 37504.54974451 0 73.99159308 0 19581.84094800 0 1545.41410917 0 -1728.41885882 0 3009
0.05450000 0.05448610 38123.32762225 0 255.71974596 0 20032.03263212 0 1381.96313975 0 3369.57218005 0 3336
0.05550000 0.05550870 35455.34019635 0 1664.71102355 0 19745.54701495 0 -98.02033853 0 2899.11687910 0 3349
0.05650000 0.05647670 34217.89535284 0 1659.01014832 0 19379.53751566 0 -2910.47426477 0 -61.04195517 0 3324
0.05750000 0.05747970 33130.40349207 0 456.29516981 0 21985.74697455 0 763.74425833 0 -1181.98885877 0 3639
0.05850000 0.05849280 33023.59526545 0 -495.55246141 0 20351.01545635 0 2161.18627254 0 -823.78978037 0 3846
0.05950000 0.05951020 33198.72526527 0 -421.74498220 0 17303.48727089 0 973.21149478 0 -2538.63079589 0 3787
0.06050000 0.06049470 33802.64093910 0 283.94018747 0 19451.40847188 0 -1335.12501504 0 -4591.13442954 0 3930
0.06150000 0.06148310 34242.96145794 0 -46.42786134 0 18396.74655408 0 864.58542099 0 -2372.26284166 0 4083
0.06250000 0.06249100 34456.68882313 0 -296.06508398 0 16714.87744885 0 1242.94607720 0 -3809.11631511 0 4303
0.06350000 0.06350600 34178.74342761 0 104.88113114 0 15196.15985073 0 1230.61266619 0 -5283.71313177 0 4470
0.06450000 0.06451750 34178.74342761 0 1292.71227791 0 17764.32650409 0 -637.08944390 0 -3743.71152671 0 4479
0.06550000 0.06550280 31911.81368337 0 982.71775968 0 15917.19856433 0 2203.24409137 0 -3011.63707214 0 4636
0.06650000 0.06648880 31432.56306323 0 248.60030664 0 16133.69872876 0 849.97276901 0 -1280.71160281 0 4653
0.06750000 0.06749660 29929.92770069 0 875.16087728 0 13735.22738871 0 2060.02346518 0 -2173.59732193 0 5220
0.06850000 0.06852730 28647.78533347 0 736.38560282 0 13575.29232872 0 1923.06936526 0 2370.68789170 0 5029
0.06950000 0.06949320 28370.94905764 0 -103.53488166 0 11230.16964598 0 1806.10160225 0 2031.33053867 0 5040
0.07050000 0.07048030 28539.42433929 0 -496.94218838 0 9461.00172958 0 3468.93821351 0 3061.28126968 0 5475
0.07150000 0.07148790 27982.53534052 0 165.13572224 0 7855.32914738 0 2536.14636777 0 4373.34768626 0 5509
0.07250000 0.07249820 27407.56769072 0 439.44985988 0 6531.06241416 0 118.87655801 0 4305.21446341 0 5916
0.07350000 0.07351270 27954.03096436 0 290.11243857 0 7074.79725335 0 -31.98146640 0 4962.15714985 0 5721
0.07450000 0.07449140 26364.88426562 0 749.90355366 0 7635.53489746 0 -1388.15202765 0 3293.06510350 0 6028
0.07550000 0.07549160 26124.87076366 0 737.37826495 0 8742.09252579 0 -2499.88924495 0 3949.08722060 0 6183
0.07650000 0.07648840 25058.34126512 0 483.51407624 0 8454.42015054 0 761.55596518 0 438.07122410 0 6330
0.07750000 0.07749960 24988.02307647 0 -104.89776794 0 9909.90683486 0 870.40940850 0 1918.76598085 0 6583
0.07850000 0.07848650 25201.52861772 0 -202.44983614 0 8462.33926516 0 1764.03269222 0 990.38843149 0 6549
0.07950000 0.07947320 25358.02540666 0 -39.38262212 0 7487.92215727 0 1436.64274070 0 2368.90220899 0 6828
0.08050000 0.08048110 24971.94084089 0 350.29105498 0 5648.84642650 0 -172.16199551 0 1171.04184738 0 7147
0.08150000 0.08149960 24747.45501466 0 306.26343957 0 5936.55207534 0 291.03744440 0 2090.79044551 0 7386
0.08250000 0.08250610 23747.69452175 0 491.14814710 0 6252.11881091 0 -986.79155632 0 1593.45008316 0 7227
0.08350000 0.08350160 23430.59720100 0 477.76883622 0 7004.85616539 0 -533.89140190 0 217.82999894 0 7798
0.08450000 0.08449610 22255.92853221 0 821.76563693 0 7560.12584941 0 -13.90581000 0 -509.42533055 0 7371
0.08550000 0.08548940 22189.38135052 0 203.01215982 0 7327.26616948 0 -51.79333877 0 205.99901916 0 8256
0.08650000 0.08650700 21746.84259229 0 246.56729024 0 8213.75226796 0 579.70248177 0 1777.13139582 0 8037
0.08750000 0.08749060 21843.11418180 0 587.09920102 0 8586.70485654 0 -188.16437447 0 -441.17343189 0 8155
0.08850000 0.08849210 20540.78583614 0 577.16703415 0 9580.56483268 0 -1423.21130120 0 378.18208794 0 8718
0.08950000 0.08949900 20321.84560838 0 476.13066643 0 10362.57185591 0 -827.35449107 0 387.94012302 0 8571
0.09050000 0.09049190 19648.38812968 0 349.52908975 0 11078.68607806 0 -482.60903457 0 -472.80219823 0 8932
0.09150000 0.09150830 20146.49378463 0 -168.41760742 0 10332.59235056 0 839.57920835 0 -2499.90033614 0 9285
0.09250000 0.09250820 19757.63641962 0 -338.79946582 0 9589.87034692 0 1079.60712886 0 -2784.17880512 0 9204
0.09350000 0.09350330 20133.40617223 0 109.99384020 0 9236.13880265 0 415.17788448 0 -798.68929256 0 9349
0.09450000 0.09448040 19332.17810469 0 392.99770883 0 7393.65807441 0 710.35345446 0 -2684.26930301 0 9564
0.09550000 0.09549270 19611.34353188 0 269.11347539 0 7553.20494251 0 782.14233583 0 -1452.29241960 0 10155
0.09650000 0.09649430 18313.78440091 0 315.20848991 0 7054.60018370 0 1052.01444909 0 -2622.72425115 0 9913
0.09750000 0.09749140 17783.73609875 0 570.35593010 0 6443.24231672 0 -249.68724394 0 41.81303611 0 10476
0.09850000 0.09850240 17481.05733403 0 483.34659917 0 6105.13826895 0 130.71973811 0 -1280.16813416 0 10575
0.09950000 0.09950330 16704.56263569 0 329.29874651 0 6503.58951932 0 508.34615709 0 309.96789935 0 10882
0.10050000 0.10051200 16229.63758236 0 258.72878769 0 5995.16905121 0 470.52850285 0 -31.15084666 0 10875
0.10150000 0.10150300 16125.38033105 0 42.75279323 0 5399.57177509 0 1137.09169353 0 761.66022243 0 11118
0.10250000 0.10250800 15937.27363081 0 23.43181723 0 5663.77517759 0 383.48035272 0 697.13052946 0 11575
0.10350000 0.10349800 15764.36187039 0 73.75889977 0 5056.23268236 0 244.99344939 0 920.87324550 0 11364
0.10450000 0.10450100 15936.60815899 0 41.20257663 0 5132.51793497 0 44.76407088 0 1380.63219611 0 12093
0.10550000 0.10551000 15646.46244683 0 201.04125412 0 4649.18575436 0 -164.61221775 0 166.95356942 0 12067
0.10650000 0.10649700 15429.51863452 0 365.51261367 0 5451.51185040 0 -282.94641623 0 1147.04049719 0 12054
0.10750000 0.10749900 15096.00634229 0 52.65867396 0 5441.48540836 0 -239.12620620 0 468.86371419 0 12807
0.10850000 0.10850100 14931.52389154 0 36.87723165 0 5268.90638384 0 584.52049773 0 376.41969675 0 12736
0.10950000 0.10950300 15303.52263719 0 99.71108060 0 4817.00665539 0 128.30740278 0 118.89319481 0 12933
0.11050000 0.11050200 14829.37396765 0 229.74416271 0 5381.55967125 0 -243.85881994 0 -137.16816002 0 13428
0.11150000 0.11150900 14672.76626674 0 151.88285101 0 4933.98550960 0 58.31706991 0 178.30319126 0 13453
0.11250000 0.11250000 14579.15656450 0 77.72366994 0 5889.24812036 0 -105.64875288 0 224.23183782 0 13668
0.11350000 0.11349100 14821.16648191 0 -160.45301889 0 4862.81329878 0 632.42226823 0 355.68248581 0 13791
0.11450000 0.11448600 14801.64597528 0 33.20571272 0 5357.91323935 0 127.33248656 0 86.28629581 0 14205
0.11550000 0.11549300 14550.87401228 0 357.04115744 0 5268.89529265 0 111.38001799 0 788.93791220 0 14776
0.11650000 0.11649800 14217.91627990 0 396.81418970 0 6550.15036411 0 -644.21221058 0 1110.88319514 0 14553
0.11750000 0.11747300 13809.87114417 0 336.28398235 0 6669.61364644 0 -73.45699739 0 2088.19510543 0 14568
0.11850000 0.11849100 13682.76602714 0 14.74008983 0 7121.77956362 0 192.03298396 0 1937.59883326 0 16015
0.11950000 0.11950300 13790.68337345 0 -42.78850688 0 7025.64106847 0 152.37086367 0 1750.02451048 0 15270
0.12050000 0.12050700 13831.60989019 0 173.70921748 0 7742.78677195 0 -145.67732632 0 2316.11920271 0 15999
0.12150000 0.12150000 13930.09971909 0 -86.66605839 0 7377.13219096 0 177.52902571 0 1615.34410593 0 15670
0.12250000 0.12250700 13905.25543793 0 -90.95302784 0 7172.07814178 0 261.87536026 0 1871.29565791 0 16887
0.12350000 0.12352200 14022.04574179 0 194.07930980 0 7034.59166441 0 -196.70570524 0 577.82252389 0 16407
0.12450000 0.12449800 13791.68158118 0 190.20182735 0 7387.20299779 0 -5.21687758 0 1183.70799430 0 16306
0.12550000 0.12549900 13643.17045404 0 74.93767218 0 7249.32832852 0 195.34814273 0 922.12765987 0 17523
0.12650000 0.12650100 13450.40545108 0 4.96176896 0 6274.27902241 0 905.31118706 0 602.60913083 0 17154
0.12750000 0.12750600 13401.49327254 0 134.21790163 0 5935.42077325 0 259.49962588 0 785.73588364 0 18007
0.12850000 0.12850300 12966.82926414 0 303.88770518 0 5543.76842661 0 359.99141583 0 339.09670990 0 17496
0.12950000 0.12949900 12737.24148731 0 238.74023255 0 5865.18022298 0 384.06596792 0 1868.71140902 0 18405
0.13050000 0.13049000 12148.74257724 0 217.88212757 0 4769.63615322 0 318.91738617 0 687.85274322 0 18100
0.13150000 0.13148800 11879.11557942 0 362.84628992 0 5457.21272563 0 398.38137582 0 1733.80918054 0 19059
0.13250000 0.13249300 11552.59074127 0 41.64134438 0 4544.80649988 0 107.61866037 0 1408.58201242 0 18957
0.13350000 0.13349100 11572.11124790 0 -135.82057959 0 4845.69958189 0 908.68402005 0 2262.41562709 0 19468
0.13450000 0.13450700 11684.02142511 0 -31.11746216 0 3838.97381729 0 506.37636051 0 1956.78660398 0 19953
0.13550000 0.13551000 11854.82585811 0 -69.43921129 0 3505.63898421 0 312.60316775 0 2084.94538472 0 19956
0.13650000 0.13649900 11735.92822682 0 50.86988571 0 3216.74657730 0 84.22455321 0 1957.58517016 0 19723
0.13750000 0.13749600 11723.06243836 0 85.92793924 0 3263.39615167 0 -184.05841336 0 1553.35540619 0 20946
0.13850000 0.13851100 11646.20044351 0 116.70822901 0 3372.22297612 0 -145.99675279 0 1286.34593086 0 20955
0.13950000 0.13949800 11577.65684637 0 54.50635646 0 2914.56691645 0 -91.45446085 0 1298.53515630 0 20506
0.14050000 0.14048300 11359.93665028 0 151.38596539 0 3660.62737037 0 -287.03352230 0 661.30707244 0 21447
0.14150000 0.14148400 11322.22658065 0 136.80769612 0 3110.49291054 0 -77.99540427 0 73.14156375 0 21771
0.14250000 0.14249400 11278.63817665 0 -46.57781432 0 3184.03863750 0 478.33670550 0 417.50481760 0 22470
0.14350000 0.14350900 11220.96395252 0 -80.95830662 0 2957.41221026 0 519.36526126 0 234.60210697 0 22519
0.14450000 0.14449900 11412.39801184 0 31.82230772 0 2150.52763228 0 160.36539843 0 -31.71605406 0 22218
0.14550000 0.14550500 11128.68519391 0 171.36786581 0 2360.75017923 0 159.43706525 0 -136.69678415 0 23559
0.14650000 0.14650700 10847.00206501 0 331.62900699 0 2443.27977572 0 -573.09212839 0 -8.58454207 0 23044
0.14750000 0.14750500 10451.86708254 0 231.67292185 0 2844.15999822 0 -377.21826293 0 260.51336128 0 23649
0.14850000 0.14849900 10371.15644234 0 83.13550858 0 3029.95972950 0 296.10944876 0 -207.40871029 0 23640
0.14950000 0.14949500 10218.13119805 0 -0.67254911 0 2766.67689634 0 314.22137338 0 -113.27883091 0 24457
0.15050000 0.15050000 10339.05851838 0 124.21918758 0 2878.18779046 0 190.57670980 0 94.97414129 0 24591
0.15150000 0.15149900 9938.22266067 0 214.35623606 0 2448.08226400 0 -43.16117110 0 549.75070441 0 25020
0.15250000 0.15250500 9736.27414663 0 200.75288300 0 3134.28352799 0 -41.47397822 0 729.72977553 0 25297
0.15350000 0.15350100 9559.13664017 0 146.34723461 0 2952.34353325 0 -70.12952739 0 283.27360654 0 25452
0.15450000 0.15450400 9529.66732988 0 38.59803085 0 3028.76188023 0 290.83114814 0 769.33643983 0 26061
0.15550000 0.15549900 9423.29165995 0 25.62033221 0 2765.27940552 0 -76.71570196 0 428.08249213 0 26128
0.15650000 0.15649500 9410.35932431 0 39.71313979 0 2756.06262086 0 271.04112542 0 741.68386760 0 26331
0.15750000 0.15749700 9464.29581507 0 47.25404460 0 2514.06379465 0 -108.39271501 0 83.12641380 0 27345
0.15850000 0.15849900 9168.28285972 0 193.68779055 0 2714.08244041 0 -292.11218138 0 77.75450347 0 26980
0.15950000 0.15949700 9069.33829174 0 239.62198271 0 3078.52808093 0 -345.81242965 0 -112.44699114 0 27777
0.16050000 0.16050000 8804.43614383 0 137.54636983 0 3142.18046022 0 61.83031745 0 52.26615650 0 28224
0.16150000 0.16150500 8692.72560817 0 32.08949466 0 3210.29150068 0 10.59272528 0 -526.75754402 0 28075
0.16250000 0.16249700 8945.87108732 0 -146.82082872 0 2719.18439101 0 529.24640862 0 -48.47529629 0 28590
0.16350000 0.16349900 8800.95350799 0 -39.63860695 0 2935.76219382 0 308.92754508 0 234.81949443 0 29163
0.16450000 0.16449100 9014.48123164 0 -47.97142322 0 2112.38500597 0 407.96749735 0 402.39860736 0 28996
0.16550000 0.16550500 9037.88365720 0 27.49152805 0 2487.83311386 0 123.50269626 0 200.69742702 0 30777
0.16650000 0.16650700 8812.01143135 0 261.22874348 0 1985.51280408 0 -224.05105131 0 34.86340302 0 29211
0.16750000 0.16749900 8580.64906301 0 225.24335498 0 2627.22727711 0 -183.99852089 0 575.46342630 0 30922
0.16850000 0.16850800 8205.95515651 0 178.86329671 0 2412.82334890 0 45.76494050 0 357.32731032 0 30867
0.16950000 0.16949900 8193.86575183 0 -6.01690780 0 2553.22681107 0 330.87147824 0 785.87785096 0 30852
0.17050000 0.17049200 8128.79369934 0 46.38305290 0 2030.19923658 0 312.36470701 0 320.77072518 0 31257
0.17150000 0.17149500 8008.29893569 0 72.56393421 0 2098.75392492 0 115.41943192 0 352.50929437 0 32608
0.17250000 0.17250900 8066.10625419 0 16.26634944 0 1919.16526394 0 33.24431008 0 709.01474699 0 32361
0.17350000 0.17350400 7886.65068756 0 29.86925885 0 1986.05627273 0 -220.74698374 0 194.90338573 0 32508
0.17450000 0.17449800 8049.02581089 0 65.60886643 0 1991.77933036 0 -89.23034313 0 291.40678126 0 32791
0.17550000 0.17549800 7795.38122788 0 17.38179112 0 1993.77574581 0 60.71110477 0 -415.25108638 0 33633
0.17650000 0.17650100 7946.06622962 0 62.58196787 0 1840.97232545 0 -150.13044189 0 54.29407095 0 33984
0.17750000 0.17750300 7942.81650891 0 -14.33348655 0 1953.57015687 0 106.58662450 0 -455.93692415 0 34069
0.17850000 0.17849800 8050.92240556 0 -56.07265529 0 1870.76328045 0 339.31742472 0 -27.25506373 0 34536
