### header ###
fiducial parameters:
Omega_m = 0.31
Omega_nu = 0
Omega_de = 0.69
Omega_k = 0
H_0 = 100
w_de = -1
zeff = 0
beta = 0
fgrowth = 0
b_1 = 2
gamma = 0.55
Lx = 3500 Ly = 3500 Lz = 3500
nx = 700 ny = 700 nz = 700
xoffset = 1379.75464 yoffset = 22.6059522 zoffset = 368.141391
bins = 400 dk = 0.001
kx_ny = 0.628318531 ky_ny = 0.628318531 kz_ny = 0.628318531
############################
A(data) = 3.32182653 (not used)
A(ran) = 3.3155619 (used)
Ngal = 186647
weighted Ngal = 0
Nran = 9399747
weighted Nran = 0
SN(data) = 6624.79365
SN(ran) = 131.877744
SN(data+ran) = 6756.6714
############################
13 columns: k_central k_mean P_0(k) sigma^{lin}_{P_0(k)} P^img_1(k) sigma^{lin}_{P_1(k)} P_2(k) sigma^{lin}_{P_2(k)} P^img_3(k) sigma^{lin}_{P_3(k)} P_4(k) sigma^{lin}_{P_4(k)} N_modes
### header ###
0.00050000 0 0 0 0 0 0 0 0 0 0 0 0
0.00150000 0.00179520 79291.96519057 0 -68094.29275164 0 -104801.71817148 0 109450.37154839 0 -43940.43859765 0 3
0.00250000 0.00253879 139497.31137688 0 -67504.79563385 0 -36378.01687048 0 -89708.70645237 0 65117.97005059 0 6
0.00350000 0.00331552 155359.94125223 0 -21265.26282080 0 -67236.05593179 0 -102077.94202494 0 -15181.07582288 0 7
0.00450000 0.00420575 155532.96392462 0 25277.72514076 0 -20820.50582317 0 -115398.35864778 0 15240.63555049 0 24
0.00550000 0.00557378 114524.37232826 0 19598.58865539 0 28326.58426985 0 -33439.29332707 0 15034.78293513 0 45
0.00650000 0.00659388 84818.81954184 0 15691.04905856 0 35159.64888571 0 52133.28395936 0 13591.48547626 0 40
0.00750000 0.00754703 73018.78419665 0 7032.82816410 0 44207.40370820 0 -12031.28680155 0 -10996.01229601 0 57
0.00850000 0.00846663 83028.92217833 0 3942.97597108 0 15495.51125636 0 65653.23121531 0 21133.61031302 0 75
0.00950000 0.00948925 82701.62095639 0 -8219.22022806 0 20863.65057930 0 25804.88973170 0 22368.94782911 0 112
0.01050000 0.01054430 83180.76066455 0 226.96692699 0 -2723.52104901 0 -5483.49886240 0 23888.77454693 0 105
0.01150000 0.01145670 77718.45707952 0 15143.36575326 0 16917.18088118 0 -2318.03797978 0 28682.72260386 0 144
0.01250000 0.01249090 63856.45730970 0 8837.52118433 0 21770.91048967 0 -14957.47729240 0 24727.26903621 0 169
0.01350000 0.01339930 61308.25481084 0 -1143.29167262 0 50880.08961618 0 13712.82317087 0 36112.16087963 0 180
0.01450000 0.01448870 58851.33286287 0 -865.15550851 0 23562.24970877 0 28374.05459279 0 34688.82757526 0 267
0.01550000 0.01550050 61636.66515248 0 -2903.76409062 0 15908.99107859 0 11649.30597866 0 22175.18461843 0 238
0.01650000 0.01653350 66110.74308942 0 -4145.03539708 0 7351.85535311 0 18269.08687720 0 34356.20257878 0 315
0.01750000 0.01747870 69928.44399097 0 1034.06001948 0 19925.00258157 0 -2159.02348914 0 21879.71513173 0 297
0.01850000 0.01844180 66798.17547627 0 8195.27433384 0 14777.46716593 0 -19487.89850984 0 24856.37056869 0 388
0.01950000 0.01947590 58056.09404168 0 3323.90972222 0 19975.46752769 0 277.21115828 0 24796.69992911 0 399
0.02050000 0.02045430 53751.48959411 0 -236.31347866 0 29782.96934112 0 7732.43868520 0 17278.97572564 0 462
0.02150000 0.02154770 62904.72169957 0 -2331.58033126 0 26630.62934450 0 11522.42268557 0 17357.72322397 0 571
0.02250000 0.02255340 62085.74771691 0 1602.76668859 0 19822.07627389 0 -355.40853325 0 11369.36416768 0 510
0.02350000 0.02348930 61593.74222029 0 -215.06163619 0 22023.12430827 0 1523.36480964 0 29861.49501552 0 555
0.02450000 0.02439640 58999.40034213 0 616.38439744 0 26293.90060515 0 -1333.86061858 0 6517.26496515 0 592
0.02550000 0.02547300 63107.46877978 0 238.01375915 0 23191.69281873 0 3692.18182568 0 19208.40034675 0 837
0.02650000 0.02652900 65136.15961358 0 -2898.00775940 0 23093.53572574 0 8794.17678665 0 14870.74413227 0 723
0.02750000 0.02749970 66674.06498242 0 -2027.10479264 0 16853.85014661 0 8808.89480501 0 24310.68367884 0 826
0.02850000 0.02848090 71639.92659205 0 -3569.66846419 0 15827.58169299 0 7051.10645667 0 13192.97876991 0 831
0.02950000 0.02946900 72248.61148057 0 1000.74982768 0 9485.62418680 0 -2856.18285571 0 10423.31834159 0 996
0.03050000 0.03053250 66964.54343050 0 4582.36129275 0 16930.71214146 0 -10799.90884277 0 12837.61681969 0 1041
0.03150000 0.03150510 61690.01380980 0 5972.97556612 0 25239.12777538 0 -6072.98488900 0 9952.47484875 0 1036
0.03250000 0.03246190 57718.14527067 0 3552.11109943 0 30956.97253809 0 -119.99011418 0 9078.96545069 0 1059
0.03350000 0.03345080 54516.67127157 0 2637.99682935 0 35838.31922697 0 2412.95644327 0 1437.41912449 0 1302
0.03450000 0.03451200 52833.91487058 0 173.22120482 0 35776.65217194 0 2791.92046059 0 13419.01736372 0 1339
0.03550000 0.03553350 50921.45978080 0 -338.15617640 0 27890.25658191 0 8051.66551576 0 11935.68068386 0 1365
0.03650000 0.03647120 53170.42178599 0 532.22550412 0 32863.77111743 0 3525.50331795 0 16275.00057788 0 1308
0.03750000 0.03744890 51763.17071720 0 693.87415404 0 27403.46394785 0 -330.99015405 0 11180.03743578 0 1579
0.03850000 0.03847530 52119.08722727 0 764.47960469 0 31067.66268364 0 3607.27871305 0 11583.42426878 0 1662
0.03950000 0.03950240 50930.44365033 0 1626.09147578 0 27843.00808291 0 -2980.45971752 0 9074.65097508 0 1683
0.04050000 0.04050350 49842.61905365 0 725.44191879 0 29649.54224184 0 536.39579417 0 4439.79504718 0 1822
0.04150000 0.04152450 47458.23353372 0 597.83547966 0 27196.50221280 0 2747.54458160 0 6636.07386686 0 1887
0.04250000 0.04250150 48577.77895367 0 -697.89914941 0 19763.62566598 0 4632.13858465 0 -3450.23845546 0 1920
0.04350000 0.04349210 48522.65570484 0 -179.76279278 0 20625.74440476 0 3424.73979367 0 -1751.89892276 0 2005
0.04450000 0.04448520 45600.01439701 0 1518.81741889 0 14055.76298051 0 -378.34180118 0 -7094.15139202 0 2151
0.04550000 0.04548030 44777.26940739 0 2005.29949944 0 15959.56693668 0 898.84723748 0 -1669.03659036 0 2274
0.04650000 0.04648670 40900.45242611 0 1516.79882105 0 13956.38585586 0 -794.32823392 0 -7007.36277590 0 2311
0.04750000 0.04749250 39770.48128103 0 -77.94161196 0 10634.90510577 0 4126.76819571 0 -6078.04247481 0 2568
0.04850000 0.04851840 41753.36547143 0 -722.54157079 0 10643.99988727 0 3498.55170936 0 -3089.96310499 0 2493
0.04950000 0.04949480 39727.66926081 0 270.75497254 0 4527.95897172 0 2803.16693430 0 -5850.19601590 0 2644
0.05050000 0.05050630 39926.53442209 0 301.67722963 0 7794.17228741 0 2287.13790509 0 2032.80566787 0 2829
0.05150000 0.05149060 38057.00226450 0 1434.05849181 0 5584.99440567 0 -1646.49927816 0 503.69894557 0 2784
0.05250000 0.05249300 37608.80699582 0 1003.45053414 0 7722.30133118 0 1094.77101333 0 4551.74958917 0 3055
0.05350000 0.05348950 35950.67305206 0 718.45890119 0 7353.99595413 0 1662.11568346 0 5406.44831720 0 3009
0.05450000 0.05448610 35729.18184900 0 408.01075301 0 7775.62780611 0 -42.29605774 0 9636.83047480 0 3336
0.05550000 0.05550870 35261.35516173 0 404.53366277 0 10336.90682617 0 385.10743132 0 6908.97276777 0 3349
0.05650000 0.05647670 35312.48557966 0 40.46578842 0 10219.01849381 0 -1047.12655860 0 8043.79076593 0 3324
0.05750000 0.05747970 35362.28505396 0 -398.78842275 0 11125.35783482 0 -1566.89775766 0 5073.83441192 0 3639
0.05850000 0.05849280 36075.44901773 0 491.70381607 0 12559.78233614 0 -2458.04215886 0 703.42034725 0 3846
0.05950000 0.05951020 35591.98374275 0 1412.46393136 0 14336.92482315 0 -1683.72133512 0 2091.42264374 0 3787
0.06050000 0.06049470 33933.62797506 0 500.67548528 0 15325.92685502 0 -1746.87461054 0 -279.35065018 0 3930
0.06150000 0.06148310 34513.58666348 0 163.69497576 0 17329.99523160 0 208.96036874 0 -1815.19638374 0 4083
0.06250000 0.06249100 34579.24654941 0 248.37626446 0 17816.78786566 0 527.93542914 0 -2282.66815272 0 4303
0.06350000 0.06350600 32576.17638056 0 849.24851385 0 16228.75028661 0 -179.51102261 0 -3104.75876172 0 4470
0.06450000 0.06451750 32921.77807747 0 545.83218453 0 17292.83972182 0 609.97035824 0 -2712.92895593 0 4479
0.06550000 0.06550280 32230.24194775 0 159.40822814 0 15612.63429614 0 1444.36221378 0 -985.60923473 0 4636
0.06650000 0.06648880 31330.52405131 0 572.43774777 0 15308.07002794 0 2215.11167211 0 -2958.05549968 0 4653
0.06750000 0.06749660 30724.39013809 0 686.46301624 0 15363.74783662 0 655.11152982 0 -116.14146884 0 5220
0.06850000 0.06852730 29690.69058251 0 181.62278651 0 13400.27324087 0 1500.20639041 0 110.32879435 0 5029
0.06950000 0.06949320 29582.32958833 0 314.64838446 0 12655.94301368 0 1192.13730398 0 -306.09928986 0 5040
0.07050000 0.07048030 28829.34822751 0 12.81210707 0 12061.12212134 0 1169.76635974 0 -211.50579844 0 5475
0.07150000 0.07148790 29103.52261608 0 464.89195656 0 11829.64884104 0 -801.64620566 0 -1031.06095982 0 5509
0.07250000 0.07249820 28114.07693632 0 787.49494748 0 11368.25504799 0 116.82135922 0 308.00143013 0 5916
0.07350000 0.07351270 27529.57085715 0 -376.08252436 0 10415.72087168 0 1852.96190935 0 1156.04654911 0 5721
0.07450000 0.07449140 28048.08431448 0 -52.82115999 0 10171.02688461 0 1005.46469550 0 -693.48596215 0 6028
0.07550000 0.07549160 27889.25837418 0 434.86586819 0 9578.36877568 0 1216.84849078 0 593.83599404 0 6183
0.07650000 0.07648840 26276.04377806 0 809.91358387 0 9695.76909538 0 -774.92751222 0 120.26850323 0 6330
0.07750000 0.07749960 26164.57724874 0 837.94769328 0 9959.42902923 0 -40.48175974 0 1721.25394559 0 6583
0.07850000 0.07848650 25111.91174638 0 -3.52339599 0 9383.25243897 0 607.79648364 0 -423.67041399 0 6549
0.07950000 0.07947320 25253.32450747 0 -44.92467141 0 9710.44274894 0 1093.66078452 0 1581.98178551 0 6828
0.08050000 0.08048110 24888.31321590 0 238.13798056 0 7901.40197950 0 1160.72703422 0 145.73832790 0 7147
0.08150000 0.08149960 24599.38753540 0 159.88514961 0 8043.06983812 0 64.60267304 0 2020.82717516 0 7386
0.08250000 0.08250610 24510.87978376 0 36.75678125 0 7459.77269942 0 1206.62240719 0 140.40124393 0 7227
0.08350000 0.08350160 24185.57497726 0 542.45713330 0 7154.23240589 0 -254.37438377 0 671.59193937 0 7798
0.08450000 0.08449610 22994.93498487 0 731.20046825 0 8227.15043387 0 -326.20873904 0 1891.83655466 0 7371
0.08550000 0.08548940 22150.67307317 0 886.77779696 0 7985.79489708 0 -788.58632126 0 596.78625243 0 8256
0.08650000 0.08650700 21865.18566373 0 382.34239592 0 8855.54437937 0 -155.03275094 0 1575.69307684 0 8037
0.08750000 0.08749060 20832.37340391 0 299.32035028 0 9121.95493007 0 521.25631033 0 57.49842866 0 8155
0.08850000 0.08849210 20786.12311263 0 240.98509081 0 8447.86525314 0 556.85572518 0 2047.97842529 0 8718
0.08950000 0.08949900 20586.81430347 0 -351.99799019 0 7848.16423415 0 991.32785587 0 1008.70332501 0 8571
0.09050000 0.09049190 20812.18742546 0 50.52062392 0 7055.49857066 0 920.82444423 0 -13.91723393 0 8932
0.09150000 0.09150830 20822.83497453 0 159.86407633 0 5861.07648011 0 -11.39986496 0 61.76998134 0 9285
0.09250000 0.09250820 19983.23136555 0 452.80255189 0 6613.29254833 0 -771.28516314 0 -1022.50410137 0 9204
0.09350000 0.09350330 19987.66784433 0 349.08766011 0 6173.75950447 0 25.19287748 0 -719.11106357 0 9349
0.09450000 0.09448040 19203.29839615 0 58.25928477 0 5332.89149904 0 389.50065443 0 -2202.39006921 0 9564
0.09550000 0.09549270 19246.33224031 0 53.25038932 0 5831.61826101 0 480.51945306 0 -1715.49761438 0 10155
0.09650000 0.09649430 19126.21457736 0 354.75526175 0 4653.35604441 0 249.25246902 0 -2687.76303005 0 9913
0.09750000 0.09749140 18216.18186776 0 441.43629326 0 4902.83033737 0 -5.08147625 0 -1461.01010040 0 10476
0.09850000 0.09850240 18085.19483180 0 232.36723078 0 4563.55062272 0 -60.94146893 0 -2194.30458663 0 10575
0.09950000 0.09950330 17881.00589599 0 167.87635701 0 4704.83028945 0 136.37624856 0 -1730.50400385 0 10882
0.10050000 0.10051200 17193.46259717 0 531.60550621 0 5409.66476431 0 -742.55896304 0 -3146.96076610 0 10875
0.10150000 0.10150300 16737.17075472 0 617.07094253 0 5179.10096215 0 -731.44225634 0 -2078.56794648 0 11118
0.10250000 0.10250800 16117.06193334 0 77.81539414 0 5636.21355318 0 611.06838674 0 -1784.81759530 0 11575
0.10350000 0.10349800 16414.19509958 0 -172.57347892 0 5346.53367128 0 1298.42424433 0 -1221.25169597 0 11364
0.10450000 0.10450100 16267.23674002 0 -167.92959475 0 4405.75616374 0 1362.25408277 0 -1312.66534122 0 12093
0.10550000 0.10551000 16530.98540345 0 183.96746554 0 4010.86518760 0 120.35279632 0 82.71415401 0 12067
0.10650000 0.10649700 15961.56335213 0 20.55121156 0 3909.74674502 0 103.07803525 0 -40.34323069 0 12054
0.10750000 0.10749900 16043.41638560 0 333.71082466 0 4725.87029006 0 -260.53443455 0 1258.86194482 0 12807
0.10850000 0.10850100 15729.64642394 0 67.29361924 0 3511.63932176 0 -40.20414708 0 -236.99225991 0 12736
0.10950000 0.10950300 15811.83219333 0 22.92672412 0 4552.95852964 0 593.00969987 0 660.46303235 0 12933
0.11050000 0.11050200 15485.30735517 0 160.34654340 0 3830.14522452 0 262.67503556 0 537.34520063 0 13428
0.11150000 0.11150900 15345.44736165 0 302.68098296 0 4906.31297321 0 -551.44987579 0 1066.32874788 0 13453
0.11250000 0.11250000 15243.18652579 0 370.39274033 0 4583.13767654 0 -373.37738142 0 -49.11326194 0 13668
0.11350000 0.11349100 14751.29194114 0 208.97589642 0 5577.70748928 0 -210.72830554 0 1190.09652374 0 13791
0.11450000 0.11448600 14473.45745758 0 306.08819866 0 5292.46408616 0 -598.19150709 0 -330.69180085 0 14205
0.11550000 0.11549300 14230.33842048 0 222.60475923 0 6465.09197471 0 290.06252819 0 708.09528677 0 14776
0.11650000 0.11649800 14217.25080808 0 -55.42204568 0 5602.42976727 0 129.29230106 0 -214.25641529 0 14553
0.11750000 0.11747300 14221.57637489 0 -15.86152076 0 5835.91055423 0 689.68611807 0 289.35934630 0 14568
0.11850000 0.11849100 14290.00906006 0 -69.12921234 0 5108.05075450 0 577.14485176 0 481.37125699 0 16015
0.11950000 0.11950300 14173.21875619 0 133.70216097 0 5077.19504459 0 260.93482676 0 737.41486590 0 15270
0.12050000 0.12050700 13941.30182801 0 244.90582893 0 4801.13515255 0 91.69403071 0 764.63155409 0 15999
0.12150000 0.12150000 13508.85605900 0 415.02149861 0 5830.63114448 0 -254.65277281 0 1012.88026978 0 15670
0.12250000 0.12250700 13359.34672413 0 261.17772398 0 4976.60897947 0 -210.41331554 0 720.40429714 0 16887
0.12350000 0.12352200 13153.82684468 0 -159.73541845 0 6021.97647423 0 362.69766788 0 1176.83145219 0 16407
0.12450000 0.12449800 13570.96676191 0 -195.61211322 0 4507.78408447 0 685.72434252 0 1396.41496937 0 16306
0.12550000 0.12549900 13664.46555218 0 -129.31670170 0 4516.75686280 0 678.20451099 0 1335.12501504 0 17523
0.12650000 0.12650100 13624.31541923 0 12.94653237 0 3854.95623210 0 342.13458874 0 2131.01821684 0 17154
0.12750000 0.12750600 13475.36064421 0 258.67887730 0 4032.75921037 0 620.37722834 0 2145.63641442 0 18007
0.12850000 0.12850300 13378.31267092 0 31.96471869 0 3273.13422259 0 475.66150880 0 2643.94171091 0 17496
0.12950000 0.12949900 13047.46226595 0 42.07201556 0 3312.10868866 0 458.63541237 0 2429.80397143 0 18405
0.13050000 0.13049000 13100.36727539 0 22.01048034 0 2636.12241706 0 443.37392536 0 2814.64632314 0 18100
0.13150000 0.13148800 13081.73406452 0 -25.70174160 0 2934.47561497 0 58.04112093 0 2884.15485442 0 19059
0.13250000 0.13249300 12969.26932747 0 144.52162359 0 2118.88444738 0 -352.93852369 0 2162.61703695 0 18957
0.13350000 0.13349100 12954.73985946 0 266.23530978 0 2905.30576700 0 -591.03103034 0 2078.52358169 0 19468
0.13450000 0.13450700 12526.50874529 0 391.10444151 0 3531.30401395 0 -763.11206011 0 1313.73009612 0 19953
0.13550000 0.13551000 12207.30409712 0 374.23140359 0 3794.26520240 0 -384.10922359 0 1442.57653107 0 19956
0.13650000 0.13649900 11920.92939192 0 -46.92141960 0 4268.07004483 0 161.78285340 0 1126.44414446 0 19723
0.13750000 0.13749600 12001.11874585 0 -101.17434221 0 3981.57333646 0 738.58720542 0 992.14638621 0 20946
0.13850000 0.13851100 12183.45802368 0 -60.31037982 0 3737.93301310 0 503.53701409 0 1618.16126996 0 20955
0.13950000 0.13949800 12032.61774519 0 135.24938295 0 3586.51599236 0 109.04898113 0 1518.66214214 0 20506
0.14050000 0.14048300 11808.02100699 0 321.28646584 0 3641.87215633 0 -139.63595134 0 2023.50015363 0 21447
0.14150000 0.14148400 11485.59991170 0 200.68633582 0 3683.00940581 0 -2.22219895 0 1862.13432923 0 21771
0.14250000 0.14249400 11241.48266687 0 78.18040543 0 3745.76339814 0 -80.17160802 0 1575.80398881 0 22470
0.14350000 0.14350900 11252.13021594 0 204.87326267 0 3675.94431335 0 254.34000106 0 1824.08043250 0 22519
0.14450000 0.14449900 10706.99788594 0 110.96631635 0 3801.64084837 0 -163.22581813 0 1462.38540882 0 22218
0.14550000 0.14550500 10824.39820563 0 86.11937330 0 3322.66750816 0 96.87528336 0 1314.52866230 0 23559
0.14650000 0.14650700 10809.34745137 0 97.17785121 0 3876.73934290 0 -33.50850240 0 340.83913694 0 23044
0.14750000 0.14750500 10420.72300151 0 269.77894721 0 3629.61638370 0 -527.39085137 0 776.14421652 0 23649
0.14850000 0.14849900 10277.64656087 0 209.34190592 0 4016.74352198 0 -117.91051476 0 515.61089109 0 23640
0.14950000 0.14949500 10116.62456358 0 19.53448154 0 4036.90731803 0 257.48324627 0 507.43113334 0 24457
0.15050000 0.15050000 10260.51066159 0 -127.42454350 0 3746.51759953 0 577.00843003 0 558.33972733 0 24591
0.15150000 0.15149900 10318.72835437 0 -116.10486789 0 3178.21575910 0 435.92064102 0 628.52260338 0 25020
0.15250000 0.15250500 10174.28769651 0 233.05155764 0 3627.68651543 0 -115.70003920 0 581.93624884 0 25297
0.15350000 0.15350100 10134.63666742 0 341.73419653 0 3218.93154310 0 -391.12662390 0 597.30199309 0 25452
0.15450000 0.15450400 9590.01453248 0 195.54667515 0 4432.54140437 0 -443.25192220 0 891.78325414 0 26061
0.15550000 0.15549900 9565.94663510 0 164.29611863 0 3702.94028672 0 2.41576252 0 543.20467998 0 26128
0.15650000 0.15649500 9420.59649909 0 45.68286564 0 4218.59221524 0 246.47634242 0 606.93137028 0 26331
0.15750000 0.15749700 9416.52602981 0 39.74031323 0 3918.66406737 0 85.00759171 0 330.07734854 0 27345
0.15850000 0.15849900 9394.12181198 0 -7.27869782 0 3978.42343652 0 244.86590062 0 868.87993244 0 26980
0.15950000 0.15949700 9286.30428644 0 157.26208153 0 3902.19363990 0 182.82507226 0 572.21259647 0 27777
0.16050000 0.16050000 9110.48663242 0 70.65924296 0 3596.87517031 0 54.17251143 0 890.75399107 0 28224
0.16150000 0.16150500 9169.72471532 0 29.71265115 0 3965.93474876 0 213.61978058 0 574.17573833 0 28075
0.16250000 0.16249700 9204.93926563 0 79.98316858 0 3863.09717066 0 -116.71266549 0 387.79704658 0 28590
0.16350000 0.16349900 8858.09535467 0 205.54982568 0 3977.32540803 0 -412.90529823 0 569.87457216 0 29163
0.16450000 0.16449100 8733.40811858 0 261.02688370 0 4204.47312153 0 -284.04222648 0 352.76993749 0 28996
0.16550000 0.16550500 8507.90190222 0 55.99889883 0 4386.92331132 0 -146.77757305 0 -30.57987184 0 30777
0.16650000 0.16650700 8459.59973951 0 128.18096313 0 4529.41191852 0 297.28400652 0 -135.23385527 0 29211
0.16750000 0.16749900 8513.53623027 0 4.09026707 0 4464.35095722 0 329.89656203 0 576.34295822 0 30922
0.16850000 0.16850800 8303.48005127 0 -56.74944013 0 3747.52689846 0 524.95855188 0 298.27555953 0 30867
0.16950000 0.16949900 8563.22479260 0 -80.73193529 0 3629.66074849 0 625.91284474 0 931.02390895 0 30852
0.17050000 0.17049200 8435.58729812 0 -36.38444976 0 2917.19553012 0 287.77108690 0 505.59664936 0 31257
0.17150000 0.17149500 8504.07543928 0 139.92654070 0 2918.60411214 0 211.96941048 0 1137.66843577 0 32608
0.17250000 0.17250900 8140.89419521 0 156.94709154 0 2785.88684945 0 -58.34568519 0 753.75330812 0 32361
0.17350000 0.17350400 8032.74393377 0 43.99378725 0 2675.67362538 0 94.69808140 0 728.54301746 0 32508
0.17450000 0.17449800 8070.40963860 0 -55.97815829 0 2265.95371892 0 503.14216748 0 375.21519276 0 32791
0.17550000 0.17549800 8131.75504892 0 -6.75173287 0 1859.00661169 0 -10.22667142 0 256.44511024 0 33633
0.17650000 0.17650100 7895.78983385 0 112.28395054 0 1653.10963154 0 86.60117489 0 23.41617864 0 33984
0.17750000 0.17750300 7895.70110427 0 155.80137089 0 1734.36374038 0 -117.21398759 0 145.79822036 0 34069
0.17850000 0.17849800 7581.19912361 0 157.20884378 0 1719.02461501 0 -169.77516993 0 -136.00912994 0 34536
