### header ###
fiducial parameters:
Omega_m = 0.31
Omega_nu = 0
Omega_de = 0.69
Omega_k = 0
H_0 = 100
w_de = -1
zeff = 0
beta = 0
fgrowth = 0
b_1 = 2
gamma = 0.55
Lx = 3500 Ly = 3500 Lz = 3500
nx = 700 ny = 700 nz = 700
xoffset = 1379.75464 yoffset = 22.6059522 zoffset = 368.141391
bins = 400 dk = 0.001
kx_ny = 0.628318531 ky_ny = 0.628318531 kz_ny = 0.628318531
############################
A(data) = 3.30672225 (not used)
A(ran) = 3.30153909 (used)
Ngal = 185690
weighted Ngal = 0
Nran = 9399747
weighted Nran = 0
SN(data) = 6688.61491
SN(ran) = 131.319981
SN(data+ran) = 6819.93489
############################
13 columns: k_central k_mean P_0(k) sigma^{lin}_{P_0(k)} P^img_1(k) sigma^{lin}_{P_1(k)} P_2(k) sigma^{lin}_{P_2(k)} P^img_3(k) sigma^{lin}_{P_3(k)} P_4(k) sigma^{lin}_{P_4(k)} N_modes
### header ###
0.00050000 0 0 0 0 0 0 0 0 0 0 0 0
0.00150000 0.00179520 13960.15686282 0 -14928.19653246 0 -18773.29269047 0 21133.05575317 0 -52168.99761354 0 3
0.00250000 0.00253879 25785.81287295 0 -19707.83694533 0 -17100.07471886 0 670.48836527 0 25014.08738930 0 6
0.00350000 0.00331552 50847.92514503 0 -28951.90595379 0 -44924.00594302 0 11938.12074719 0 -10592.49236864 0 7
0.00450000 0.00420575 65477.32483171 0 -20798.98890109 0 -53747.05311533 0 -6960.11427690 0 -16617.71856358 0 24
0.00550000 0.00557378 108013.50698375 0 -31461.62199924 0 -101393.06061338 0 9443.89910388 0 -4617.86421418 0 45
0.00650000 0.00659388 99811.23410463 0 -21220.56529710 0 -24571.32680712 0 -82906.47536402 0 -56991.33913466 0 40
0.00750000 0.00754703 157899.82535337 0 -6754.06202000 0 -101685.75730085 0 -56843.38256737 0 -30662.94490700 0 57
0.00850000 0.00846663 134563.94697431 0 4942.94719673 0 -30138.77493922 0 -67352.51349975 0 -66214.22395695 0 75
0.00950000 0.00948925 112195.22096914 0 24463.52037279 0 -27401.80026831 0 -69407.60138228 0 -24437.89970784 0 112
0.01050000 0.01054430 120975.01247335 0 10930.85151394 0 40737.63365491 0 -19517.29018176 0 -46578.92343966 0 105
0.01150000 0.01145670 99387.32855727 0 6658.93282377 0 48350.96397608 0 -241.06938391 0 -38133.75334738 0 144
0.01250000 0.01249090 99689.12002623 0 2512.30029433 0 58420.10712553 0 10132.46279282 0 -25641.51640066 0 169
0.01350000 0.01339930 89482.77877053 0 4934.22951593 0 46956.80051969 0 1817.92481819 0 -22576.57503599 0 180
0.01450000 0.01448870 94999.42922061 0 6641.09817908 0 75498.11036246 0 16755.91487756 0 23168.62312908 0 267
0.01550000 0.01550050 83561.74327973 0 1800.50054779 0 50431.22887569 0 7330.24970146 0 -32897.04470828 0 238
0.01650000 0.01653350 90793.64733784 0 3099.22425444 0 79553.16287870 0 22923.17494062 0 38024.83779335 0 315
0.01750000 0.01747870 83370.75286828 0 2795.54728200 0 56067.33151690 0 -4726.39157632 0 -8184.24968408 0 297
0.01850000 0.01844180 80084.32030055 0 5296.98929452 0 83948.16058140 0 6674.98178576 0 45834.37138853 0 388
0.01950000 0.01947590 78999.93397492 0 3478.47664289 0 69583.95141376 0 11476.72695414 0 20730.00165608 0 399
0.02050000 0.02045430 75998.21243285 0 -1829.94767568 0 51857.44589126 0 23696.56410382 0 17302.59997514 0 462
0.02150000 0.02154770 82205.95536478 0 -2791.88718700 0 54841.75425412 0 23025.10304057 0 31394.74208164 0 571
0.02250000 0.02255340 77068.29111442 0 2948.25088158 0 31345.71899113 0 -3337.58516805 0 13229.57971984 0 510
0.02350000 0.02348930 76954.60634570 0 4823.23990807 0 38970.69506909 0 6158.50910867 0 31736.57277158 0 555
0.02450000 0.02439640 68017.43075679 0 3361.25378234 0 39551.43014130 0 -4910.05070658 0 -7519.43224780 0 592
0.02550000 0.02547300 66927.05518481 0 2157.72581910 0 33910.89102131 0 2104.38825297 0 9292.47099195 0 837
0.02650000 0.02652900 64283.24656826 0 451.56144695 0 34511.81207197 0 2616.99010233 0 -8402.86826712 0 723
0.02750000 0.02749970 61842.51776784 0 -875.55683301 0 24589.29454618 0 3830.42250445 0 5860.15591076 0 826
0.02850000 0.02848090 64758.94800537 0 -93.07455199 0 23614.60015837 0 6331.44305148 0 -15499.61499923 0 831
0.02950000 0.02946900 63897.27291447 0 2382.21164533 0 18658.16606615 0 2557.46364831 0 -2321.59825401 0 996
0.03050000 0.03053250 57385.85301010 0 4198.04022730 0 23178.93794224 0 -595.08597194 0 -1342.63375537 0 1041
0.03150000 0.03150510 55397.53413320 0 2291.37474232 0 25039.70805425 0 -2947.85159849 0 3222.39199655 0 1036
0.03250000 0.03246190 48603.84326650 0 234.17065941 0 20111.22377833 0 10897.17864001 0 7592.11286141 0 1059
0.03350000 0.03345080 53414.42811885 0 -337.90662446 0 20686.41325207 0 6150.15743737 0 4021.85656377 0 1302
0.03450000 0.03451200 51580.27687953 0 -533.77827169 0 19648.38812968 0 2042.11118211 0 10894.12856085 0 1339
0.03550000 0.03553350 51982.11094496 0 804.79388736 0 16915.18446573 0 1147.19577395 0 8474.94995609 0 1365
0.03650000 0.03647120 51809.64283242 0 801.63511447 0 17251.02590933 0 -3578.60796893 0 5966.08793281 0 1308
0.03750000 0.03744890 50686.65914141 0 1649.15007423 0 22057.95066669 0 -4664.92416283 0 2514.98436399 0 1579
0.03850000 0.03847530 48909.84939030 0 2984.39709243 0 27765.25879230 0 -4408.25168306 0 -185.30173653 0 1662
0.03950000 0.03950240 46110.09854466 0 2835.98578607 0 31399.28947239 0 -2037.59706495 0 -306.10594457 0 1683
0.04050000 0.04050350 43865.57301825 0 1622.04318889 0 30330.09808658 0 4839.02268133 0 272.49296310 0 1822
0.04150000 0.04152450 42498.58299438 0 -1055.45604751 0 30998.78635059 0 3682.67666990 0 6127.37611883 0 1887
0.04250000 0.04250150 42728.17077121 0 185.26402646 0 28573.25248998 0 8056.64546319 0 5804.06772779 0 1920
0.04350000 0.04349210 42399.76042957 0 190.88171772 0 24501.00861847 0 4280.49218541 0 10821.63649759 0 2005
0.04450000 0.04448520 40102.21898175 0 1428.72362608 0 21642.58534098 0 319.29115951 0 10964.77948541 0 2151
0.04550000 0.04548030 41121.72180523 0 406.51233231 0 21906.00126850 0 892.82139018 0 8397.47794541 0 2274
0.04650000 0.04648670 39345.02296609 0 -134.84233602 0 20368.65045950 0 1984.85842346 0 5132.69539412 0 2311
0.04750000 0.04749250 39652.58185747 0 -105.51388393 0 17897.42086747 0 576.10671572 0 3367.42048784 0 2568
0.04850000 0.04851840 40583.02236945 0 467.78454073 0 18026.18966404 0 -98.00747274 0 1901.82972311 0 2493
0.04950000 0.04949480 38242.00342959 0 645.42004193 0 16291.85919724 0 41.64811001 0 -457.88897481 0 2644
0.05050000 0.05050630 37810.55586831 0 1210.47105254 0 16269.12224350 0 770.21597175 0 -1026.41485742 0 2829
0.05150000 0.05149060 37675.79782539 0 227.34624592 0 15094.34266274 0 1393.99708844 0 -1752.58657697 0 2784
0.05250000 0.05249300 35603.85132349 0 378.61908110 0 14152.14548199 0 3234.33721566 0 -577.68055657 0 3055
0.05350000 0.05348950 36677.36827611 0 536.27600924 0 13457.17108122 0 350.89663433 0 1107.43494201 0 3009
0.05450000 0.05448610 34260.37463715 0 765.80722097 0 12311.89408434 0 1739.16622866 0 1930.54483200 0 3336
0.05550000 0.05550870 33269.15436589 0 1270.80716393 0 12633.98244372 0 -786.37251835 0 3191.64719861 0 3349
0.05650000 0.05647670 33313.85188959 0 782.37636009 0 15145.36216871 0 74.07477706 0 1041.59537868 0 3324
0.05750000 0.05747970 30593.62492607 0 662.32413520 0 14057.20483612 0 970.43093170 0 2341.35167577 0 3639
0.05850000 0.05849280 31466.61303786 0 152.75572821 0 13639.17762314 0 -670.35194355 0 1861.06957432 0 3846
0.05950000 0.05951020 30659.95028382 0 146.97166900 0 14178.76435467 0 -145.93796944 0 1729.40597535 0 3787
0.06050000 0.06049470 31516.19068822 0 19.21472233 0 15203.36912875 0 1398.10083131 0 2131.73914465 0 3930
0.06150000 0.06148310 31077.53384892 0 -639.75244029 0 12270.85665564 0 1430.22093767 0 563.74114024 0 4083
0.06250000 0.06249100 31935.77066877 0 243.78229068 0 13026.94355160 0 425.88976250 0 386.91751466 0 4303
0.06350000 0.06350600 31928.33956682 0 -298.22564914 0 12616.34744057 0 164.24953561 0 1109.35260996 0 4470
0.06450000 0.06451750 31801.23444979 0 271.40824404 0 13160.48156285 0 -119.13609202 0 1719.57917485 0 4479
0.06550000 0.06550280 32279.48686220 0 34.30751222 0 12330.08364734 0 54.19436109 0 -1232.32071052 0 4636
0.06650000 0.06648880 31641.41030177 0 438.48492575 0 13822.07146081 0 -940.60559399 0 -991.76928551 0 4653
0.06750000 0.06749660 30801.91760476 0 1011.15891602 0 13008.31034072 0 227.23089748 0 -2107.72670325 0 5220
0.06850000 0.06852730 30226.94995496 0 331.38943714 0 14098.02044089 0 1821.34090685 0 -199.03596571 0 5029
0.06950000 0.06949320 28962.44259089 0 -6.35777355 0 10312.94984076 0 2343.01535531 0 -1663.69063343 0 5040
0.07050000 0.07048030 29300.28044994 0 289.56896992 0 10620.98565360 0 2061.88678627 0 985.25542554 0 5475
0.07150000 0.07148790 28779.32692928 0 408.84148367 0 8229.35758207 0 730.67363639 0 -634.86565891 0 5509
0.07250000 0.07249820 27559.62800088 0 516.88416050 0 7327.25507828 0 557.45354069 0 1456.91744872 0 5916
0.07350000 0.07351270 26564.30398675 0 418.21576333 0 8217.00198867 0 -166.24373282 0 204.32646666 0 5721
0.07450000 0.07449140 25615.67391177 0 943.70447442 0 5752.05001411 0 -60.80948368 0 -1913.88585419 0 6028
0.07550000 0.07549160 25185.55729412 0 847.78336673 0 7229.73018352 0 -155.58620167 0 -61.27121021 0 6183
0.07650000 0.07648840 23319.24158364 0 632.29028298 0 6057.94522594 0 -59.97110011 0 -1385.65650833 0 6330
0.07750000 0.07749960 23347.52413586 0 141.38725134 0 7526.79680258 0 675.72119199 0 201.01685349 0 6583
0.07850000 0.07848650 22715.88046965 0 218.53761731 0 5720.08518450 0 1290.36094415 0 -758.61457974 0 6549
0.07950000 0.07947320 22687.59791744 0 144.50387768 0 5181.11956000 0 1819.02284669 0 2412.92316968 0 6828
0.08050000 0.08048110 22592.43544762 0 -344.43157563 0 4325.41153305 0 1688.63473537 0 1996.54854504 0 7147
0.08150000 0.08149960 22360.18578353 0 123.55482488 0 3069.21147550 0 703.74753756 0 2847.85336680 0 7386
0.08250000 0.08250610 22386.91556817 0 672.42156090 0 4264.63177377 0 -413.18923287 0 4225.61294291 0 7227
0.08350000 0.08350160 20777.13924311 0 361.19148334 0 3554.81735148 0 -626.03595702 0 3600.74599804 0 7798
0.08450000 0.08449610 21016.37636128 0 464.97070406 0 5003.32767292 0 1254.35891886 0 5028.71542273 0 7371
0.08550000 0.08548940 20455.05088373 0 -196.61919390 0 3529.90652314 0 600.78684717 0 3671.81838809 0 8256
0.08650000 0.08650700 21265.70646867 0 -371.83237769 0 2828.80978164 0 915.57498072 0 5207.54988233 0 8037
0.08750000 0.08749060 20821.06038302 0 68.34040641 0 3189.63969196 0 -161.78174429 0 4084.95438321 0 8155
0.08850000 0.08849210 21044.54800153 0 559.15049383 0 3759.96013024 0 -1089.74781023 0 3635.27289414 0 8718
0.08950000 0.08949900 20391.94197309 0 629.25129502 0 4526.51711611 0 -1773.43802723 0 2375.64565673 0 8571
0.09050000 0.09049190 19811.09598892 0 564.39662998 0 5980.43994166 0 -1676.67842506 0 1419.93939810 0 8932
0.09150000 0.09150830 19181.11600226 0 573.33613472 0 7174.85094102 0 -1144.62261625 0 -440.07429427 0 9285
0.09250000 0.09250820 18712.18019529 0 255.67316293 0 7370.43310800 0 249.14710265 0 47.38536437 0 9204
0.09350000 0.09350330 18317.55540787 0 102.92031843 0 7280.61659512 0 801.45210972 0 -415.68586130 0 9349
0.09450000 0.09448040 18678.01930868 0 -274.19324359 0 6923.35805022 0 1269.93095937 0 252.84158035 0 9564
0.09550000 0.09549270 18285.61276066 0 276.15305810 0 5810.45625723 0 752.13066601 0 -58.73365526 0 10155
0.09650000 0.09649430 18177.02994253 0 353.61841406 0 6009.90925195 0 -630.75747957 0 254.23019821 0 9913
0.09750000 0.09749140 17974.50468626 0 81.21584421 0 5723.14635486 0 579.13239425 0 1579.13134790 0 10476
0.09850000 0.09850240 17561.57942388 0 -53.05607155 0 5697.86951701 0 718.61417795 0 356.96240994 0 10575
0.09950000 0.09950330 17773.31037362 0 85.62215494 0 4763.25871497 0 -140.29476844 0 579.70026353 0 10882
0.10050000 0.10051200 17429.92691610 0 335.07060540 0 5157.47312811 0 100.10337623 0 202.91788465 0 10875
0.10150000 0.10150300 16962.98752458 0 401.24290464 0 5608.87375270 0 -317.99016210 0 1090.18369427 0 11118
0.10250000 0.10250800 16598.30896892 0 249.97117858 0 5415.50982511 0 324.47962144 0 1460.14498704 0 11575
0.10350000 0.10349800 16326.24190778 0 85.79495579 0 5615.09591419 0 1158.45333885 0 1165.93989679 0 11364
0.10450000 0.10450100 16428.39183168 0 102.15713317 0 4639.01512676 0 748.85876291 0 2152.15803823 0 12093
0.10550000 0.10551000 15853.09144597 0 362.20854610 0 5105.92124469 0 -27.86197403 0 2615.83661784 0 12067
0.10650000 0.10649700 15579.02796938 0 377.06298617 0 5499.47018600 0 -568.20201966 0 3345.26027634 0 12054
0.10750000 0.10749900 14883.60992073 0 428.67919853 0 5890.66779356 0 -524.58699678 0 1964.63917142 0 12807
0.10850000 0.10850100 15003.72758368 0 67.05904043 0 6380.97633705 0 -218.22151820 0 1843.14620005 0 12736
0.10950000 0.10950300 14667.10975630 0 -6.85149819 0 6047.74132475 0 -26.44096988 0 619.02521143 0 12933
0.11050000 0.11050200 15137.26559493 0 -274.96519090 0 5565.17443672 0 823.75872502 0 1030.75706102 0 13428
0.11150000 0.11150900 15054.85800161 0 -204.78896957 0 5349.97194234 0 -27.76958436 0 -177.85954338 0 13453
0.11250000 0.11250000 15467.45052808 0 142.42206001 0 4886.22681554 0 -124.76820183 0 -647.02050165 0 13668
0.11350000 0.11349100 15007.49859064 0 345.03160938 0 5190.92417810 0 -73.34974551 0 -241.39879246 0 13791
0.11450000 0.11448600 14781.12726093 0 111.75268221 0 4574.68618446 0 -144.70684658 0 -378.01571999 0 14205
0.11550000 0.11549300 14764.71228944 0 -75.42113746 0 5098.02431246 0 863.98871459 0 -448.91508736 0 14776
0.11650000 0.11649800 14689.18123823 0 -17.80059472 0 4160.41888725 0 217.61372060 0 -826.43613996 0 14553
0.11750000 0.11747300 14709.47812864 0 220.74143814 0 4294.65564391 0 -248.36850062 0 -543.45201367 0 14568
0.11850000 0.11849100 14518.37680522 0 154.53142884 0 4163.09186571 0 -240.08115826 0 -545.98191569 0 16015
0.11950000 0.11950300 14439.29657098 0 13.88318396 0 4025.33919962 0 227.95848000 0 -1061.04490165 0 15270
0.12050000 0.12050700 14221.02181504 0 217.88878229 0 4527.54859743 0 -201.36955355 0 -833.65540006 0 15999
0.12150000 0.12150000 14388.83162487 0 92.88189790 0 3574.13821656 0 30.02753023 0 -1576.25872789 0 15670
0.12250000 0.12250700 13839.92828790 0 228.25794231 0 4755.46160352 0 60.95533292 0 -1183.98527422 0 16887
0.12350000 0.12352200 13750.75506444 0 145.73056406 0 3723.62536903 0 38.76717161 0 -1274.65580927 0 16407
0.12450000 0.12449800 13480.46259481 0 62.23459158 0 3969.67248213 0 464.42501717 0 -1186.72479987 0 16306
0.12550000 0.12549900 13240.89274073 0 254.85352348 0 3662.34650589 0 320.69641416 0 -1303.01599987 0 17523
0.12650000 0.12650100 13142.84655970 0 216.93937583 0 4008.18111794 0 70.46248512 0 -890.15284819 0 17154
0.12750000 0.12750600 12558.00774463 0 111.43214662 0 3433.97876073 0 513.25844822 0 -287.49380698 0 18007
0.12850000 0.12850300 12646.07184839 0 155.64276677 0 3645.16624182 0 117.18293224 0 -283.54866822 0 17496
0.12950000 0.12949900 12259.21089884 0 142.65386603 0 3288.88372225 0 124.48759455 0 7.95665832 0 18405
0.13050000 0.13049000 12225.71548406 0 131.95973393 0 3244.47456967 0 284.79642788 0 333.11300914 0 18100
0.13150000 0.13148800 12016.20277370 0 51.90181068 0 3921.96924406 0 104.55083530 0 1477.00360640 0 19059
0.13250000 0.13249300 11876.23186822 0 191.72243045 0 3196.11695098 0 152.27215202 0 272.37872377 0 18957
0.13350000 0.13349100 11851.27667508 0 48.08422069 0 3913.88376148 0 -292.38724307 0 865.48602618 0 19468
0.13450000 0.13450700 11823.43777074 0 9.01224081 0 3497.69768720 0 -67.83209686 0 518.82290172 0 19953
0.13550000 0.13551000 11737.59190637 0 -48.41130009 0 3825.50910420 0 378.34401942 0 1078.16416414 0 19956
0.13650000 0.13649900 12129.77663045 0 -33.89536335 0 3137.43342793 0 63.72147744 0 123.31858239 0 19723
0.13750000 0.13749600 11922.81489540 0 30.36503536 0 3006.26893282 0 90.39547337 0 -99.74757063 0 20946
0.13850000 0.13851100 11710.64029778 0 353.96889588 0 3257.99473875 0 -309.01183817 0 149.87423524 0 20955
0.13950000 0.13949800 11378.34803721 0 259.32438497 0 3593.40362566 0 -63.74853996 0 487.81746066 0 20506
0.14050000 0.14048300 11241.70449081 0 -37.92224422 0 2999.44784669 0 574.54840255 0 377.39904944 0 21447
0.14150000 0.14148400 11161.62604884 0 -25.30600769 0 2926.91141865 0 523.65866359 0 65.34323226 0 21771
0.14250000 0.14249400 11149.42573220 0 128.42386034 0 2767.68619526 0 -220.70040071 0 68.48359376 0 22470
0.14350000 0.14350900 10946.26827770 0 267.74038521 0 2790.27896345 0 -122.20835357 0 164.30610071 0 22519
0.14450000 0.14449900 10651.50862760 0 212.01821174 0 3277.58179256 0 -208.70416209 0 61.42260505 0 22218
0.14550000 0.14550500 10394.05976404 0 132.81153786 0 3107.40955779 0 -325.23271371 0 -376.97203835 0 23559
0.14650000 0.14650700 10476.70027250 0 9.61264057 0 3113.88681680 0 402.95760368 0 -263.71317160 0 23044
0.14750000 0.14750500 10393.74921053 0 -73.50457862 0 2897.10937245 0 205.79605025 0 -467.70357499 0 23649
0.14850000 0.14849900 10564.39836677 0 -62.07399105 0 2525.33245075 0 278.44339027 0 -550.73227534 0 23640
0.14950000 0.14949500 10490.17607680 0 32.57540000 0 2561.13483450 0 357.95174471 0 -232.98944693 0 24457
0.15050000 0.15050000 10383.54530934 0 111.61958785 0 2085.14502627 0 -135.20723640 0 -303.63593501 0 24591
0.15150000 0.15149900 10300.63861215 0 165.14903168 0 2173.63059552 0 139.83226552 0 94.98079601 0 25020
0.15250000 0.15250500 10070.00826281 0 159.85853073 0 2172.15546632 0 150.33008344 0 123.52487865 0 25297
0.15350000 0.15350100 9888.06826807 0 69.24367349 0 2055.86426632 0 333.06198964 0 529.53477974 0 25452
0.15450000 0.15450400 9801.39056392 0 48.13024916 0 2212.11704893 0 419.84284192 0 721.03649536 0 26061
0.15550000 0.15549900 9810.52971020 0 54.28464343 0 1452.39224037 0 0.36130350 0 452.45428831 0 26128
0.15650000 0.15649500 9751.90164313 0 110.78175883 0 1918.42215374 0 -147.87671067 0 595.84017333 0 26331
0.15750000 0.15749700 9337.85616986 0 300.79547948 0 1935.64678260 0 -490.52371271 0 -56.51597043 0 27345
0.15850000 0.15849900 9271.59735929 0 222.12007392 0 2720.61515541 0 -425.18103501 0 601.88154831 0 26980
0.15950000 0.15949700 8980.78617531 0 55.71762608 0 1929.95699857 0 54.94334962 0 -168.56844770 0 27777
0.16050000 0.16050000 8975.04093529 0 28.06006281 0 2892.78380564 0 297.80307454 0 101.61843374 0 28224
0.16150000 0.16150500 8940.73586313 0 134.96212094 0 2391.63916273 0 -307.49345331 0 -326.53038375 0 28075
0.16250000 0.16249700 8797.01613307 0 156.60991915 0 2996.71941224 0 -21.71345809 0 -114.84934440 0 28590
0.16350000 0.16349900 8728.06216165 0 47.01525113 0 2919.89069098 0 84.70990399 0 135.31260277 0 29163
0.16450000 0.16449100 8538.58015298 0 46.60720599 0 2750.17319528 0 115.60021843 0 1.31181132 0 28996
0.16550000 0.16550500 8567.45053864 0 142.67937578 0 2978.01965419 0 122.56770836 0 449.31658869 0 30777
0.16650000 0.16650700 8495.46867045 0 212.43302251 0 2961.20539962 0 -120.25408467 0 530.19248772 0 29211
0.16750000 0.16749900 8186.58992663 0 170.60700970 0 3210.30259188 0 -52.98519880 0 731.61971549 0 30922
0.16850000 0.16850800 8100.14513762 0 104.73550373 0 3395.28157458 0 -10.46687347 0 646.43266821 0 30867
0.16950000 0.16949900 7925.98007194 0 29.28608372 0 3389.53633456 0 -39.29999271 0 823.59124795 0 30852
0.17050000 0.17049200 7852.70053370 0 73.35750935 0 3574.31567572 0 15.24052464 0 551.40218364 0 31257
0.17150000 0.17149500 8047.00721304 0 -19.45185212 0 3117.89073890 0 122.69636624 0 544.72084660 0 32608
0.17250000 0.17250900 7950.58034677 0 -26.21659496 0 3159.49381866 0 295.44064959 0 622.46791897 0 32361
0.17350000 0.17350400 8001.66639992 0 15.89301975 0 2594.86316442 0 319.38099820 0 523.25827138 0 32508
0.17450000 0.17449800 7761.15379409 0 39.10478764 0 2593.09966410 0 365.01683716 0 782.01367795 0 32791
0.17550000 0.17549800 7838.89199350 0 33.93628986 0 2064.57085593 0 505.50681067 0 795.51831935 0 33633
0.17650000 0.17650100 7782.92581370 0 -45.93075389 0 1830.34695877 0 445.33595810 0 1040.76908451 0 33984
0.17750000 0.17750300 7654.51193544 0 38.76439881 0 1386.21106818 0 23.08089176 0 634.08705689 0 34069
0.17850000 0.17849800 7573.35764737 0 155.80691649 0 1444.00729548 0 -116.19803395 0 858.61946615 0 34536
