### header ###
fiducial parameters:
Omega_m = 0.31
Omega_nu = 0
Omega_de = 0.69
Omega_k = 0
H_0 = 100
w_de = -1
zeff = 0
beta = 0
fgrowth = 0
b_1 = 2
gamma = 0.55
Lx = 3500 Ly = 3500 Lz = 3500
nx = 700 ny = 700 nz = 700
xoffset = 1379.75464 yoffset = 22.6059522 zoffset = 368.141391
bins = 400 dk = 0.001
kx_ny = 0.628318531 ky_ny = 0.628318531 kz_ny = 0.628318531
############################
A(data) = 3.34416192 (not used)
A(ran) = 3.34540681 (used)
Ngal = 188388
weighted Ngal = 0
Nran = 9399747
weighted Nran = 0
SN(data) = 6587.54645
SN(ran) = 133.064836
SN(data+ran) = 6720.61129
############################
13 columns: k_central k_mean P_0(k) sigma^{lin}_{P_0(k)} P^img_1(k) sigma^{lin}_{P_1(k)} P_2(k) sigma^{lin}_{P_2(k)} P^img_3(k) sigma^{lin}_{P_3(k)} P_4(k) sigma^{lin}_{P_4(k)} N_modes
### header ###
0.00050000 0 0 0 0 0 0 0 0 0 0 0 0
0.00150000 0.00179520 11054.38526555 0 -15800.40826047 0 -21501.72713973 0 31901.94251808 0 28182.39870953 0 3
0.00250000 0.00253879 13579.28515962 0 -15402.34520200 0 -116.87348784 0 -26424.99855308 0 -32994.09268157 0 6
0.00350000 0.00331552 24869.01453321 0 -5961.64036284 0 -23439.47015856 0 -1999.27697949 0 17853.83246346 0 7
0.00450000 0.00420575 38121.66394271 0 -4552.55924655 0 -11047.16489634 0 -20101.13078911 0 -7014.76060427 0 24
0.00550000 0.00557378 52428.86435803 0 -12574.97727596 0 -17356.72501624 0 -7559.94839026 0 5173.47772530 0 45
0.00650000 0.00659388 80857.93128769 0 -16920.39732830 0 5863.07289556 0 7872.62032342 0 -41482.18570605 0 40
0.00750000 0.00754703 80359.93654471 0 -11956.31031018 0 -22102.09363054 0 1706.29192091 0 -13944.62918709 0 57
0.00850000 0.00846663 96782.45004201 0 -1267.35780168 0 -2997.41815765 0 -30188.35258958 0 -29163.08234369 0 75
0.00950000 0.00948925 91976.52349237 0 -936.61941781 0 -5479.88313219 0 -14913.99980037 0 -2365.34193477 0 112
0.01050000 0.01054430 100389.97276139 0 4805.38308098 0 4877.02112207 0 -9610.45560845 0 -15676.51959056 0 105
0.01150000 0.01145670 98950.11357357 0 -4330.15856534 0 2193.69457080 0 -766.22535909 0 -8039.34319595 0 144
0.01250000 0.01249090 97197.70445575 0 5070.38504967 0 14648.69836936 0 1917.45721961 0 -17517.99101987 0 169
0.01350000 0.01339930 86070.90476532 0 10063.24263267 0 -3388.28302930 0 -20421.44455698 0 1228.61625074 0 180
0.01450000 0.01448870 81389.75418136 0 5247.72219767 0 39847.56509982 0 -3931.90695652 0 16446.47048270 0 267
0.01550000 0.01550050 79267.00999744 0 530.15588677 0 20018.50137185 0 24296.59785872 0 -29101.41528865 0 238
0.01650000 0.01653350 82558.21177985 0 -2509.87132220 0 32480.57026287 0 11630.67276778 0 17096.30371190 0 315
0.01750000 0.01747870 77609.54152549 0 3730.65718790 0 19375.65559673 0 -13370.77065699 0 -11228.61687841 0 297
0.01850000 0.01844180 75787.59060281 0 7543.47796279 0 51886.72665121 0 -3235.90107443 0 35558.82106388 0 388
0.01950000 0.01947590 72068.93409001 0 3968.50790645 0 45949.27618891 0 -1347.92425631 0 4325.04552355 0 399
0.02050000 0.02045430 66585.22449487 0 1381.31985033 0 50794.79831165 0 3779.90210235 0 3644.26785487 0 462
0.02150000 0.02154770 72542.52819970 0 -508.13764258 0 56769.07154781 0 15012.71145321 0 16166.63958370 0 571
0.02250000 0.02255340 66617.72170193 0 -2465.38453124 0 34632.59520673 0 -1523.69754555 0 -4228.11955342 0 510
0.02350000 0.02348930 77163.23176030 0 4196.59837169 0 54177.16973298 0 9844.87914715 0 19850.13700217 0 555
0.02450000 0.02439640 66153.77693358 0 2583.84960585 0 39284.02138288 0 -8798.45798868 0 -11467.96490855 0 592
0.02550000 0.02547300 65024.80399622 0 3738.62066731 0 54663.85145507 0 1268.75529250 0 19925.55714142 0 837
0.02650000 0.02652900 58874.84620040 0 2981.69084038 0 39251.52417582 0 12222.16630103 0 -5740.59280766 0 723
0.02750000 0.02749970 59652.67184238 0 1422.82310931 0 54256.69361510 0 3405.58529654 0 13611.78236668 0 826
0.02850000 0.02848090 56847.81904615 0 178.04365725 0 37880.98496893 0 10976.24778305 0 3190.74881166 0 831
0.02950000 0.02946900 56856.02653189 0 -1221.09641921 0 43765.30859784 0 7107.16136604 0 17194.01715701 0 996
0.03050000 0.03053250 58586.14234384 0 -965.05281030 0 25485.24143566 0 5787.49747955 0 4668.90590254 0 1041
0.03150000 0.03150510 60391.01282322 0 -1262.20039510 0 29930.37134857 0 -2698.63240306 0 -3608.17710000 0 1036
0.03250000 0.03246190 58053.32124245 0 3033.02089985 0 29708.43649763 0 -2775.60530988 0 -2541.52559829 0 1059
0.03350000 0.03345080 56454.96885024 0 3549.46030335 0 31695.53534287 0 -9782.79062663 0 -13547.67524831 0 1302
0.03450000 0.03451200 53273.01535776 0 1829.83676371 0 38907.58615846 0 -3792.39079011 0 -14839.24513294 0 1339
0.03550000 0.03553350 52393.70526371 0 872.50675385 0 38835.27155435 0 3873.21234227 0 -22307.28077408 0 1365
0.03650000 0.03647120 50566.09783058 0 224.09652522 0 33911.33466919 0 5002.82856906 0 -14385.94791366 0 1308
0.03750000 0.03744890 51386.84640475 0 -1143.97932683 0 28231.08906413 0 10739.73909933 0 -13475.69338012 0 1579
0.03850000 0.03847530 51966.58326923 0 -480.18893539 0 20391.16558931 0 7447.40601482 0 -8359.74569339 0 1662
0.03950000 0.03950240 49929.90677363 0 336.77532238 0 20381.40533599 0 1888.98611704 0 -10047.52640659 0 1683
0.04050000 0.04050350 49209.64444381 0 1975.14253493 0 14917.88171930 0 1014.02488131 0 -3799.31169701 0 1822
0.04150000 0.04152450 46277.46470661 0 1403.06968754 0 14803.19874285 0 -1409.10329868 0 -4651.22653460 0 1887
0.04250000 0.04250150 44455.95743180 0 1115.63022743 0 14718.57291014 0 767.71157948 0 -8826.72944970 0 1920
0.04350000 0.04349210 43222.94906707 0 1783.15391576 0 15176.19569622 0 219.98945499 0 -3578.17541225 0 2005
0.04450000 0.04448520 41068.15132397 0 1217.59160098 0 14979.21603842 0 -229.41919063 0 -6455.23190062 0 2151
0.04550000 0.04548030 40373.28783516 0 530.69380982 0 12784.04633843 0 2412.67916334 0 -652.16681703 0 2274
0.04650000 0.04648670 39014.72712098 0 1177.36382964 0 17206.21747366 0 1541.52109905 0 -4649.57394626 0 2311
0.04750000 0.04749250 37766.74564036 0 837.39424255 0 13475.47155618 0 -186.99536231 0 -1019.41298479 0 2568
0.04850000 0.04851840 36026.20410328 0 839.25867276 0 15817.37779180 0 -362.39376909 0 -1696.98640667 0 2493
0.04950000 0.04949480 35552.94272950 0 1111.00519830 0 15287.55131358 0 -391.56472618 0 -255.10418453 0 2644
0.05050000 0.05050630 35360.95411032 0 -536.01647523 0 14663.56057328 0 2486.10288714 0 -1360.75677118 0 2829
0.05150000 0.05149060 35041.30581428 0 -1186.38097276 0 13693.52448818 0 3386.76353532 0 -987.58568602 0 2784
0.05250000 0.05249300 36651.19305131 0 3.47538220 0 9882.93304388 0 1347.23660210 0 -2560.29190353 0 3055
0.05350000 0.05348950 35317.25479435 0 710.35345446 0 9302.41979561 0 -343.46664149 0 -115.37063066 0 3009
0.05450000 0.05448610 35265.79164051 0 1094.44382302 0 11011.28487421 0 -1587.91557588 0 -746.69487038 0 3336
0.05550000 0.05550870 33832.03261101 0 698.79642724 0 13645.05595752 0 -982.44935272 0 249.57189549 0 3349
0.05650000 0.05647670 31564.65921889 0 1604.87401601 0 10036.03592655 0 790.67479364 0 -3747.83745197 0 3324
0.05750000 0.05747970 32274.16308766 0 -236.51977492 0 12888.85814959 0 894.50170652 0 -1607.70227124 0 3639
0.05850000 0.05849280 31759.42063730 0 -856.13171067 0 7345.99920113 0 4248.84900052 0 -1536.19732451 0 3846
0.05950000 0.05951020 33237.87719049 0 -510.52224993 0 8686.95818576 0 1548.25345559 0 181.56733052 0 3787
0.06050000 0.06049470 32886.72989511 0 74.31157411 0 4159.47613551 0 -1734.06427807 0 -2105.30882232 0 3930
0.06150000 0.06148310 32736.11144056 0 879.41213307 0 7733.43689292 0 -1029.26085856 0 -2718.14181849 0 4083
0.06250000 0.06249100 31298.80322804 0 574.35985220 0 7221.05686750 0 -1929.95699857 0 -2963.17963267 0 4303
0.06350000 0.06350600 31699.19543787 0 297.72099968 0 9875.98995459 0 -1232.27634574 0 -4521.68135425 0 4470
0.06450000 0.06451750 31433.22853505 0 769.30316624 0 12053.13645954 0 -764.89441546 0 -4868.74708915 0 4479
0.06550000 0.06550280 30429.80794714 0 565.61555253 0 11480.83069701 0 -508.82640591 0 -5234.04675184 0 4636
0.06650000 0.06648880 30709.19519827 0 288.19920710 0 14425.09983889 0 -206.29182676 0 -3535.08611211 0 4653
0.06750000 0.06749660 30145.65148133 0 109.12639769 0 13063.10085365 0 716.42810303 0 -2776.73661197 0 5220
0.06850000 0.06852730 30628.34037252 0 186.25779771 0 14204.60684356 0 938.01358126 0 -1862.00123486 0 5029
0.06950000 0.06949320 29591.86801771 0 238.76685142 0 13221.26132213 0 291.47000108 0 -2874.52769546 0 5040
0.07050000 0.07048030 30089.30820083 0 2.44853700 0 13328.84593253 0 1497.59995913 0 -837.18240069 0 5475
0.07150000 0.07148790 29610.16849267 0 128.98618403 0 11734.59728319 0 310.65555356 0 -2062.58553167 0 5509
0.07250000 0.07249820 29178.61001941 0 672.12764418 0 12464.61986632 0 -258.44374393 0 -1953.50360969 0 5916
0.07350000 0.07351270 28357.52870934 0 1145.41009124 0 12263.98011353 0 -883.52031242 0 -3190.83754123 0 5721
0.07450000 0.07449140 26923.65876787 0 765.25044288 0 13301.45067606 0 157.13786012 0 -3377.81293938 0 6028
0.07550000 0.07549160 25698.52515297 0 479.44360696 0 12207.19318515 0 995.39056132 0 -2838.28166384 0 6183
0.07650000 0.07648840 25206.40874438 0 562.98472061 0 12555.56768130 0 22.69713635 0 -3236.16726316 0 6330
0.07750000 0.07749960 25028.50594533 0 119.90693021 0 11699.54910083 0 1325.15402898 0 -2865.26654601 0 6583
0.07850000 0.07848650 24575.20872605 0 -229.35818905 0 10362.27239359 0 2856.44904444 0 -273.60097368 0 6549
0.07950000 0.07947320 24456.31109477 0 -158.97567146 0 8896.60399047 0 1569.22690902 0 54.63035604 0 6828
0.08050000 0.08048110 24983.25386178 0 216.67762358 0 7894.50325500 0 824.94326485 0 1165.79571123 0 7147
0.08150000 0.08149960 23719.30105756 0 735.43952372 0 7695.98192083 0 -84.49240562 0 1337.34325443 0 7386
0.08250000 0.08250610 23336.10020300 0 727.78437959 0 8658.76436311 0 -524.84653079 0 2863.33667774 0 7227
0.08350000 0.08350160 22117.84313021 0 517.78254745 0 8495.00284017 0 386.77111086 0 1918.88798401 0 7798
0.08450000 0.08449610 22000.27644256 0 404.73330432 0 8583.81005414 0 807.79294701 0 3581.61368331 0 7371
0.08550000 0.08548940 20892.15495546 0 215.60954131 0 7875.98095610 0 912.58812138 0 1643.71538773 0 8256
0.08650000 0.08650700 21472.66820373 0 -190.20293647 0 7875.11584274 0 1189.76378783 0 4782.95668075 0 8037
0.08750000 0.08749060 21183.07705141 0 35.38324742 0 7219.16027283 0 264.68808781 0 2282.31323441 0 8155
0.08850000 0.08849210 21220.34347316 0 274.83320566 0 6515.95620391 0 -572.80264815 0 3929.43361960 0 8718
0.08950000 0.08949900 20737.43275803 0 112.98491419 0 7057.91645159 0 279.69669552 0 2861.00752638 0 8571
0.09050000 0.09049190 21070.83413829 0 -111.86137594 0 7120.79244709 0 541.37241424 0 3398.17637698 0 8932
0.09150000 0.09150830 20956.70572170 0 140.66410530 0 6594.11586881 0 161.39687975 0 1616.71941435 0 9285
0.09250000 0.09250820 20415.12257472 0 546.76162684 0 7323.91662800 0 -641.92631489 0 1785.44979353 0 9204
0.09350000 0.09350330 19399.05802229 0 1079.58050999 0 8562.12676410 0 -1381.69695102 0 1365.31525313 0 9349
0.09450000 0.09448040 18851.81836486 0 762.99116606 0 8745.99662711 0 -739.57099458 0 728.41325045 0 9564
0.09550000 0.09549270 17772.31216589 0 45.05809851 0 9309.80653278 0 310.21745128 0 80.14044176 0 10155
0.09650000 0.09649430 17883.44595931 0 440.70981986 0 9192.01802119 0 509.52071484 0 57.74176952 0 9913
0.09750000 0.09749140 17511.55812564 0 -114.85710824 0 7622.31419070 0 837.26225730 0 -297.81083838 0 10476
0.09850000 0.09850240 17337.09359764 0 -100.54735685 0 7539.20785196 0 923.86010484 0 37.69742566 0 10575
0.09950000 0.09950330 17536.18058287 0 9.92018837 0 5695.69564241 0 1116.05169291 0 24.68013145 0 10882
0.10050000 0.10051200 17544.05533270 0 -2.23647332 0 5776.99411604 0 197.89246331 0 -378.16101467 0 10875
0.10150000 0.10150300 17008.68325601 0 -9.46129010 0 4426.69634358 0 241.98773502 0 -1575.43797931 0 11118
0.10250000 0.10250800 16803.27428853 0 536.53997973 0 5825.16318439 0 -654.56251558 0 -485.74118859 0 11575
0.10350000 0.10349800 16411.75503625 0 283.95571515 0 4727.68924636 0 -241.92673343 0 -1946.68252356 0 11364
0.10450000 0.10450100 15901.00541679 0 235.68460779 0 5344.55943823 0 324.62491612 0 -1086.30177534 0 12093
0.10550000 0.10551000 15866.95544216 0 75.68255697 0 5197.02433642 0 527.20673750 0 -1404.24535442 0 12067
0.10650000 0.10649700 15504.05147801 0 214.32074423 0 5081.88662090 0 558.30201726 0 -303.57715167 0 12054
0.10750000 0.10749900 15288.66043328 0 109.67718653 0 5103.86937325 0 293.83131691 0 365.81207599 0 12807
0.10850000 0.10850100 15603.65042661 0 -111.55969538 0 4116.08737305 0 1006.48841298 0 748.91865537 0 12736
0.10950000 0.10950300 15532.33403023 0 -10.58559364 0 4416.39262162 0 87.60592642 0 967.88106552 0 12933
0.11050000 0.11050200 15521.68648116 0 94.57397091 0 3931.70731498 0 -16.02212129 0 572.21481471 0 13428
0.11150000 0.11150900 15367.96249146 0 235.01580861 0 4473.52337710 0 -815.68655188 0 345.77139222 0 13453
0.11250000 0.11250000 14895.36658949 0 577.09826873 0 4769.31450851 0 -849.92729510 0 -1112.61342186 0 13668
0.11350000 0.11349100 14425.43257480 0 419.79514977 0 5728.88050368 0 -628.10002878 0 -872.55555511 0 13791
0.11450000 0.11448600 13997.64510850 0 177.96934623 0 5810.30098048 0 -232.94508214 0 -1699.60392915 0 14205
0.11550000 0.11549300 13686.20429820 0 92.36748818 0 6177.16450193 0 615.46604633 0 -1683.32205203 0 14776
0.11650000 0.11649800 14003.19070698 0 32.73123131 0 5424.78206575 0 348.85252673 0 -1793.30236097 0 14553
0.11750000 0.11747300 13545.45700893 0 67.89642580 0 5110.94555691 0 473.72942229 0 -1508.10332264 0 14568
0.11850000 0.11849100 13538.80229076 0 129.00836642 0 4685.26541803 0 77.41544558 0 -1146.60794051 0 16015
0.11950000 0.11950300 13379.86543849 0 46.63049751 0 5154.13467782 0 332.01608976 0 -928.01264897 0 15270
0.12050000 0.12050700 13172.23823162 0 -39.91156131 0 3583.98719945 0 782.09797104 0 -782.13457199 0 15999
0.12150000 0.12150000 13530.70571698 0 -58.57693665 0 4128.30987208 0 751.84784049 0 -273.92150927 0 15670
0.12250000 0.12250700 13340.60260129 0 -52.62495672 0 2765.92269495 0 272.41976120 0 -535.73364971 0 16887
0.12350000 0.12352200 13311.21092938 0 114.09957949 0 3078.65008410 0 79.07546503 0 -449.28775158 0 16407
0.12450000 0.12449800 13092.04887768 0 262.97893436 0 2919.72432303 0 -347.35521514 0 -675.49049510 0 16306
0.12550000 0.12549900 13077.18667377 0 159.18307684 0 3147.09386047 0 -272.68927729 0 -626.75355747 0 17523
0.12650000 0.12650100 12617.67838421 0 79.73816404 0 3114.50792383 0 117.35373667 0 -668.70268256 0 17154
0.12750000 0.12750600 12687.44201301 0 47.82002838 0 3023.11646098 0 493.72130479 0 -537.81435826 0 18007
0.12850000 0.12850300 12562.66604734 0 5.55141026 0 3076.32093274 0 246.53401665 0 -690.50686664 0 17496
0.12950000 0.12949900 12613.79646527 0 316.02147465 0 3064.38680482 0 -233.17910640 0 -400.84029419 0 18405
0.13050000 0.13049000 12315.77600328 0 203.37706020 0 3317.49901038 0 -419.33375598 0 -404.99062009 0 18100
0.13150000 0.13148800 12014.53909416 0 205.60749991 0 3754.21489022 0 -132.63851518 0 522.51072471 0 19059
0.13250000 0.13249300 11979.04726393 0 122.01647587 0 3811.35673689 0 24.95330763 0 -168.88011033 0 18957
0.13350000 0.13349100 11886.76850532 0 105.23494032 0 4194.73505061 0 163.05168634 0 493.27654779 0 19468
0.13450000 0.13450700 11771.64188100 0 123.16330563 0 4505.80985141 0 -67.32434186 0 152.78012884 0 19953
0.13550000 0.13551000 11505.45315424 0 147.41088040 0 4423.69062921 0 -152.24553315 0 826.51266922 0 19956
0.13650000 0.13649900 11508.44777741 0 154.66341408 0 4875.59035767 0 -89.09835788 0 245.24300132 0 19723
0.13750000 0.13749600 11116.37396530 0 292.62570380 0 4989.11984963 0 -229.64212369 0 -57.95106041 0 20946
0.13850000 0.13851100 10796.74785164 0 213.58317963 0 4772.75277956 0 417.92961045 0 664.25954907 0 20955
0.13950000 0.13949800 10881.45132273 0 -45.97744783 0 4809.91938054 0 828.59559601 0 983.35328527 0 20506
0.14050000 0.14048300 10708.49519752 0 -157.02251167 0 3657.98766549 0 996.80357981 0 1161.66978596 0 21447
0.14150000 0.14148400 10738.50797647 0 162.14886290 0 3557.34614439 0 274.28640965 0 1054.37465581 0 21771
0.14250000 0.14249400 10375.10490846 0 149.08454202 0 3043.29134823 0 42.99779777 0 1608.82248213 0 22470
0.14350000 0.14350900 10438.29145747 0 120.41379791 0 3135.13755016 0 -24.33663708 0 1569.44873296 0 22519
0.14450000 0.14449900 10222.09075536 0 9.19784090 0 3256.14250886 0 125.67102526 0 1502.52445058 0 22218
0.14550000 0.14550500 10270.82547475 0 58.48332695 0 2863.60286647 0 6.58347941 0 1093.23488255 0 23559
0.14650000 0.14650700 10122.51398916 0 150.38886678 0 2985.67258008 0 -275.71384670 0 721.74965933 0 23044
0.14750000 0.14750500 10036.64594239 0 172.15090431 0 3224.45495918 0 -17.62812661 0 625.03553106 0 23649
0.14850000 0.14849900 9806.48142332 0 61.24359313 0 3307.43929475 0 -112.15529266 0 636.86096525 0 23640
0.14950000 0.14949500 9819.48030614 0 18.56100718 0 3297.31303193 0 352.13330279 0 1068.69117283 0 24457
0.15050000 0.15050000 9685.62065017 0 64.21226291 0 2720.84807055 0 337.31879103 0 815.91392142 0 24591
0.15150000 0.15149900 9783.41173366 0 19.92300617 0 2637.19826317 0 523.06528456 0 1374.44330822 0 25020
0.15250000 0.15250500 9472.15947371 0 -7.22104578 0 2272.34224836 0 246.99430132 0 1037.79331637 0 25297
0.15350000 0.15350100 9566.85611325 0 213.77062086 0 2421.59648569 0 -244.06289797 0 1387.49764703 0 25452
0.15450000 0.15450400 9287.82378043 0 134.90999232 0 2425.50058702 0 31.03738372 0 1086.42377851 0 26061
0.15550000 0.15549900 9173.51790468 0 32.50408360 0 2669.35164312 0 -74.88676359 0 1101.06194024 0 26128
0.15650000 0.15649500 9125.34883633 0 46.53056582 0 2399.33645342 0 -122.74405839 0 621.85235754 0 26331
0.15750000 0.15749700 9131.65972740 0 126.76018080 0 2631.86339743 0 -267.18915272 0 276.35491788 0 27345
0.15850000 0.15849900 9167.35119917 0 83.91499790 0 2949.62619000 0 -418.10485136 0 312.24935856 0 26980
0.15950000 0.15949700 8951.42777699 0 117.77409303 0 3202.68293957 0 -183.24875598 0 -132.64073342 0 27777
0.16050000 0.16050000 8921.01571495 0 112.87067486 0 3381.32884882 0 -173.26667873 0 -83.73520960 0 28224
0.16150000 0.16150500 8842.56767894 0 65.06417775 0 3473.37469229 0 136.40286743 0 98.69812158 0 28075
0.16250000 0.16249700 8968.17548438 0 -1.01238449 0 3620.97634128 0 231.53095453 0 72.14646156 0 28590
0.16350000 0.16349900 8843.07787400 0 -2.75951198 0 3035.36114241 0 514.38642294 0 649.28865143 0 29163
0.16450000 0.16449100 8826.99563842 0 -10.99570174 0 3102.95089661 0 460.16377930 0 966.35048035 0 28996
0.16550000 0.16550500 8818.44432558 0 71.40401683 0 2574.59954759 0 152.77901972 0 1013.02112798 0 30777
0.16650000 0.16650700 8713.42178167 0 77.86852097 0 2803.42203183 0 287.11892452 0 852.13333417 0 29211
0.16750000 0.16749900 8516.53085345 0 279.53254581 0 2674.68650885 0 -470.34771634 0 1032.31093772 0 30922
0.16850000 0.16850800 8292.86577579 0 195.40914431 0 2620.31746141 0 -310.19194153 0 460.27801863 0 30867
0.16950000 0.16949900 8013.38979509 0 74.34407132 0 3198.49046713 0 -142.27676533 0 234.59656137 0 30852
0.17050000 0.17049200 8021.63055442 0 36.06202867 0 2810.30966513 0 -199.01711068 0 -599.94169796 0 31257
0.17150000 0.17149500 7962.76957222 0 51.16757344 0 3060.07232921 0 145.32018977 0 -558.40849275 0 32608
0.17250000 0.17250900 8042.54855187 0 -64.09946543 0 2621.11602759 0 133.19751151 0 -587.16574820 0 32361
0.17350000 0.17350400 8118.95580764 0 -75.40416792 0 2510.93607711 0 446.15337932 0 -569.13146196 0 32508
0.17450000 0.17449800 8194.37594689 0 -30.64042978 0 2195.56898308 0 270.72835367 0 -363.91326307 0 32791
0.17550000 0.17549800 8176.59675818 0 -31.74500208 0 2099.51921751 0 316.94980783 0 -12.34982598 0 33633
0.17650000 0.17650100 8190.62712232 0 53.46078932 0 2006.79681102 0 -55.50400962 0 -7.75193701 0 33984
0.17750000 0.17750300 8258.71598039 0 88.23501911 0 2155.54085330 0 -28.51302729 0 382.33352296 0 34069
