### header ###
fiducial parameters:
Omega_m = 0.31
Omega_nu = 0
Omega_de = 0.69
Omega_k = 0
H_0 = 100
w_de = -1
zeff = 0
beta = 0
fgrowth = 0
b_1 = 2
gamma = 0.55
Lx = 3500 Ly = 3500 Lz = 3500
nx = 700 ny = 700 nz = 700
xoffset = 1379.75464 yoffset = 22.6059522 zoffset = 368.141391
bins = 400 dk = 0.001
kx_ny = 0.628318531 ky_ny = 0.628318531 kz_ny = 0.628318531
############################
A(data) = 3.35957764 (not used)
A(ran) = 3.35950784 (used)
Ngal = 188855
weighted Ngal = 0
Nran = 9399747
weighted Nran = 0
SN(data) = 6669.41981
SN(ran) = 133.625711
SN(data+ran) = 6803.04552
############################
13 columns: k_central k_mean P_0(k) sigma^{lin}_{P_0(k)} P^img_1(k) sigma^{lin}_{P_1(k)} P_2(k) sigma^{lin}_{P_2(k)} P^img_3(k) sigma^{lin}_{P_3(k)} P_4(k) sigma^{lin}_{P_4(k)} N_modes
### header ###
0.00050000 0 0 0 0 0 0 0 0 0 0 0 0
0.00150000 0.00179520 39720.23815885 0 -42277.75726314 0 -82159.03960168 0 104503.36497357 0 36846.84176548 0 3
0.00250000 0.00253879 82788.79776440 0 -54824.78472279 0 -48991.25877590 0 -49936.56149180 0 11122.80685953 0 6
0.00350000 0.00331552 112018.87093766 0 -40492.51820236 0 -91559.71631106 0 -47771.11619963 0 -50331.29719119 0 7
0.00450000 0.00420575 137256.88959334 0 -12292.26266575 0 -77605.21595868 0 -77085.92611757 0 -9501.37368647 0 24
0.00550000 0.00557378 107206.28966986 0 22847.64388940 0 -40503.83122324 0 -87924.24377537 0 48.46952887 0 45
0.00650000 0.00659388 87576.31292710 0 30209.53677575 0 990.28750160 0 -30394.87067676 0 -49105.83084038 0 40
0.00750000 0.00754703 47398.23015823 0 13590.04362066 0 7358.42134171 0 -16361.51191408 0 -17835.08834062 0 57
0.00850000 0.00846663 39078.05785555 0 7819.18293653 0 20997.74315041 0 9858.08876272 0 -24951.86577442 0 75
0.00950000 0.00948925 35566.36307780 0 -4073.73009190 0 10656.12256553 0 15127.61625359 0 -9885.37310721 0 112
0.01050000 0.01054430 47451.35699161 0 -11040.23289825 0 -13895.60609658 0 16876.91983626 0 -17084.65795510 0 105
0.01150000 0.01145670 56391.41629173 0 -12038.82881548 0 -31643.73945313 0 22010.36943178 0 5428.80817025 0 144
0.01250000 0.01249090 64718.79787242 0 -4855.58183837 0 -27862.08494166 0 -5759.93585514 0 -4131.47086321 0 169
0.01350000 0.01339930 69482.24513774 0 3706.43401376 0 -42251.13839047 0 -13358.23760444 0 13315.75832013 0 180
0.01450000 0.01448870 62907.38358684 0 3422.27754795 0 -18022.64048101 0 -7417.98106932 0 12853.80996723 0 267
0.01550000 0.01550050 55502.23503239 0 7474.53508256 0 -16835.32784771 0 -3999.69635227 0 11423.15647288 0 238
0.01650000 0.01653350 52984.86606105 0 -313.37289681 0 -7973.63894523 0 6255.01361331 0 24415.49549000 0 315
0.01750000 0.01747870 53544.41694709 0 -2429.10522602 0 -10420.57881595 0 9259.72977856 0 13780.70129620 0 297
0.01850000 0.01844180 56591.50148467 0 -2369.88932552 0 -10510.91661509 0 -5871.02528377 0 10086.88906456 0 388
0.01950000 0.01947590 56437.99931891 0 1552.02446256 0 -3280.47659497 0 -16813.36727775 0 767.77036283 0 399
0.02050000 0.02045430 57399.49518235 0 2838.66985573 0 3083.87403786 0 -14633.28160561 0 4238.75601129 0 462
0.02150000 0.02154770 57188.65152836 0 -2302.74321919 0 11350.06548499 0 2045.89328027 0 -164.70871116 0 571
0.02250000 0.02255340 61955.20432883 0 -2503.08350967 0 16346.87153411 0 4218.09311138 0 -1218.51217032 0 510
0.02350000 0.02348930 62734.58273838 0 2671.63642969 0 12984.46426728 0 -1863.60945842 0 -6033.01221520 0 555
0.02450000 0.02439640 64576.71963951 0 1393.83072048 0 23136.56956990 0 1769.98866498 0 7746.54668771 0 592
0.02550000 0.02547300 61680.36446846 0 -1951.37409987 0 20576.83222622 0 5414.28979344 0 19892.39446255 0 837
0.02650000 0.02652900 65372.18028464 0 -982.31958571 0 17506.89982292 0 4839.58833237 0 9680.64070274 0 723
0.02750000 0.02749970 65816.82637030 0 2020.67189841 0 22258.36859554 0 1204.89218047 0 15616.07256719 0 826
0.02850000 0.02848090 60893.33313301 0 3364.45913826 0 20298.11044691 0 -3851.70651139 0 12531.61069589 0 831
0.02950000 0.02946900 60079.57201292 0 3518.47149908 0 27122.30210521 0 -2387.08068079 0 15416.43102212 0 996
0.03050000 0.03053250 54595.41876990 0 2568.18883575 0 31356.36654020 0 -2148.42030486 0 9647.76639499 0 1041
0.03150000 0.03150510 51528.37007781 0 2779.40959044 0 31728.03254993 0 4996.61749877 0 7441.71623079 0 1036
0.03250000 0.03246190 50981.01950841 0 -1883.55143053 0 28385.58943762 0 5452.18841341 0 11918.60024056 0 1059
0.03350000 0.03345080 53593.32912563 0 -1359.90274902 0 24285.95030965 0 2921.70964728 0 1276.99605183 0 1302
0.03450000 0.03451200 53918.74484409 0 -455.80937538 0 23088.21195121 0 4321.18578701 0 10012.13439713 0 1339
0.03550000 0.03553350 55406.51800272 0 -324.01157293 0 19442.31369039 0 1890.41688145 0 452.67278489 0 1365
0.03650000 0.03647120 53660.43086717 0 2666.42356713 0 23381.24137458 0 -6100.69069898 0 4637.20726166 0 1308
0.03750000 0.03744890 52506.39182470 0 2886.53946176 0 26533.13772332 0 -496.22458794 0 3525.17058204 0 1579
0.03850000 0.03847530 47249.16447125 0 2669.26291354 0 33190.62869150 0 -1217.99088407 0 6393.01028574 0 1662
0.03950000 0.03950240 45909.01514399 0 1900.09949638 0 28377.16012794 0 3181.05510552 0 6934.81525666 0 1683
0.04050000 0.04050350 44528.05021197 0 -353.23798601 0 31481.14250587 0 5258.62484427 0 8261.62187399 0 1822
0.04150000 0.04152450 44340.60898354 0 -385.42242131 0 24071.66838461 0 7240.86574525 0 12958.06721855 0 1887
0.04250000 0.04250150 45375.52857078 0 -3.45766956 0 25106.25523594 0 6135.28414226 0 8604.60604842 0 1920
0.04350000 0.04349210 43695.54496903 0 843.06295331 0 19324.08153092 0 -2613.68492564 0 10540.87393805 0 2005
0.04450000 0.04448520 42331.88230425 0 1854.21521461 0 22449.69174290 0 -1272.11592517 0 6105.71501119 0 2151
0.04550000 0.04548030 40183.18471947 0 2016.78997947 0 20707.81926218 0 -3581.30312979 0 5599.39077931 0 2274
0.04650000 0.04648670 38251.20912306 0 1063.95744997 0 23628.90780243 0 1587.69375194 0 4168.58200820 0 2311
0.04750000 0.04749250 36714.52378588 0 393.79738413 0 20241.43443051 0 2454.18242232 0 -3621.89691062 0 2568
0.04850000 0.04851840 36814.12273448 0 430.68005046 0 19440.87183478 0 3375.74997675 0 815.66658773 0 2493
0.04950000 0.04949480 35120.94060836 0 293.80469804 0 17687.35359727 0 1226.08745784 0 -3668.46884661 0 2644
0.05050000 0.05050630 36122.03204491 0 -534.03336922 0 13391.73301922 0 3431.37232945 0 4534.74678425 0 2829
0.05150000 0.05149060 35315.70202677 0 -1132.22265807 0 13390.84572347 0 3801.07519732 0 -2583.05103967 0 2784
0.05250000 0.05249300 37649.62260059 0 -731.57091423 0 6199.45780780 0 1772.02944522 0 1675.29202544 0 3055
0.05350000 0.05348950 36040.51174734 0 596.91158296 0 7726.84872193 0 1853.54974279 0 -2229.38604258 0 3009
0.05450000 0.05448610 36863.14582499 0 405.57401705 0 3493.17247884 0 669.05316439 0 1426.67175465 0 3336
0.05550000 0.05550870 34677.84729028 0 398.55994409 0 5084.65942014 0 -396.15869996 0 -266.92296400 0 3349
0.05650000 0.05647670 34844.32615648 0 486.38780537 0 5428.36452237 0 571.63030863 0 620.01343708 0 3324
0.05750000 0.05747970 34338.78939958 0 749.74605867 0 6174.41388509 0 -1604.03108505 0 -353.76814522 0 3639
0.05850000 0.05849280 33506.39506861 0 132.82595641 0 6228.69420296 0 -361.51645541 0 -1921.51659769 0 3846
0.05950000 0.05951020 34153.23367463 0 -482.10660335 0 6399.86464546 0 305.25857713 0 993.44738361 0 3787
0.06050000 0.06049470 33528.02290266 0 2.46707039 0 5637.79959434 0 -183.04467795 0 -3971.61344160 0 3930
0.06150000 0.06148310 34349.54786061 0 1024.24652842 0 9009.68983456 0 -1364.26158942 0 -1477.09233597 0 4083
0.06250000 0.06249100 32514.17658962 0 1074.59279872 0 8994.94963381 0 -1113.14579931 0 -2777.69045491 0 4303
0.06350000 0.06350600 30970.61471034 0 754.13262706 0 8139.50779559 0 495.88963379 0 -1724.53693989 0 4470
0.06450000 0.06451750 31266.52784492 0 283.08838355 0 11391.87929749 0 570.80512358 0 -1592.21896030 0 4479
0.06550000 0.06550280 29910.29628209 0 558.33307261 0 7796.75653630 0 -80.22872768 0 -4846.95288715 0 4636
0.06650000 0.06648880 29941.68436945 0 1028.31367034 0 12613.35281740 0 -3259.20367922 0 -3699.45765088 0 4653
0.06750000 0.06749660 27429.19552477 0 1457.42764378 0 10361.85092810 0 -3238.11931382 0 -7071.37007349 0 5220
0.06850000 0.06852730 27699.59890637 0 49.67736022 0 14344.57774904 0 236.05505377 0 -3362.56254358 0 5029
0.06950000 0.06949320 26533.80319514 0 -387.69168021 0 12314.00141176 0 1697.21932180 0 -7697.00231095 0 5040
0.07050000 0.07048030 28952.90416152 0 -555.37837775 0 12870.89041053 0 3342.16583239 0 -3737.32299726 0 5475
0.07150000 0.07148790 28614.95539051 0 -508.23968160 0 10496.57569743 0 1403.20278190 0 -3310.46719151 0 5509
0.07250000 0.07249820 29813.24830879 0 -223.16930115 0 10737.89796063 0 1407.99417899 0 60.41075515 0 5916
0.07350000 0.07351270 28796.18554864 0 688.02798413 0 10626.22069856 0 -1151.03332809 0 -1827.46324757 0 5721
0.07450000 0.07449140 28924.95434521 0 1042.88306665 0 12443.65750409 0 -671.53759250 0 2375.57910955 0 6028
0.07550000 0.07549160 27853.10107213 0 430.53142842 0 13410.03349419 0 388.15085576 0 1836.26965794 0 6183
0.07650000 0.07648840 26153.48605179 0 1090.57743176 0 13942.41094770 0 -899.87206408 0 2391.94971625 0 6330
0.07750000 0.07749960 26243.54657101 0 835.88694888 0 15120.29606360 0 303.22334249 0 2513.04340453 0 6583
0.07850000 0.07848650 24890.19871938 0 186.23117884 0 14381.84417079 0 784.52583406 0 2725.69492362 0 6549
0.07950000 0.07947320 24743.01853588 0 -80.61215036 0 14489.09604528 0 1909.03900112 0 4512.24274564 0 6828
0.08050000 0.08048110 24758.10256373 0 -198.75424931 0 11055.63857081 0 1445.19405355 0 1207.01059909 0 7147
0.08150000 0.08149960 24704.97573035 0 575.80725340 0 12068.77504724 0 453.39704005 0 3180.12344498 0 7386
0.08250000 0.08250610 23652.97569981 0 594.82754705 0 9569.27399418 0 371.53513361 0 1046.29028235 0 7227
0.08350000 0.08350160 23510.01017115 0 163.34116658 0 10317.14231321 0 1042.69229806 0 2540.71594091 0 7798
0.08450000 0.08449610 22204.35446640 0 386.47053942 0 9147.91942212 0 494.64741974 0 667.97399092 0 7371
0.08550000 0.08548940 22290.86580260 0 607.21974140 0 9141.58634866 0 -195.63540473 0 1313.53045458 0 8256
0.08650000 0.08650700 21090.46555689 0 275.38998375 0 9057.21561348 0 700.92371882 0 1218.19052561 0 8037
0.08750000 0.08749060 21195.05554411 0 219.84194207 0 9356.05682405 0 -162.35959565 0 1642.00734340 0 8155
0.08850000 0.08849210 20390.38920552 0 309.85144178 0 9254.82746951 0 -275.83030426 0 904.15437522 0 8718
0.08950000 0.08949900 20648.03771063 0 100.16326870 0 8731.43388552 0 325.17060301 0 677.96383202 0 8571
0.09050000 0.09049190 20766.26987010 0 -274.51710655 0 9400.63234459 0 88.41935481 0 666.95914640 0 8932
0.09150000 0.09150830 20547.66237825 0 83.48820864 0 8278.79104686 0 -371.92665286 0 -1691.05261630 0 9285
0.09250000 0.09250820 20825.60777377 0 603.74154204 0 9762.40500664 0 -363.72582184 0 -990.74889539 0 9204
0.09350000 0.09350330 20024.82335411 0 334.96412991 0 9300.36792417 0 -447.36564715 0 -1288.05397519 0 9349
0.09450000 0.09448040 19898.49462087 0 145.85145811 0 8741.60451312 0 831.56914591 0 -1466.63333725 0 9564
0.09550000 0.09549270 19485.90209439 0 319.69931555 0 9328.39537886 0 385.92152517 0 -1335.30247419 0 10155
0.09650000 0.09649430 19274.50388056 0 273.96698318 0 9014.02649256 0 38.97624067 0 -1456.78435436 0 9913
0.09750000 0.09749140 18627.22162666 0 357.95174471 0 9296.29745489 0 -209.93750320 0 -1983.21692631 0 10476
0.09850000 0.09850240 17919.04870152 0 404.02235859 0 9042.08722084 0 336.15199711 0 -1258.75103285 0 10575
0.09950000 0.09950330 17519.98743532 0 159.16754916 0 9314.19864677 0 60.47197856 0 -2023.48906243 0 10882
0.10050000 0.10051200 17827.10267882 0 37.81221955 0 8418.50685482 0 683.49279369 0 -2100.41760446 0 10875
0.10150000 0.10150300 17264.55716960 0 121.64935725 0 8271.35994491 0 887.94570000 0 -3229.88964569 0 11118
0.10250000 0.10250800 17100.74019068 0 429.99794184 0 7237.91548686 0 -122.39912216 0 -1103.08053808 0 11575
0.10350000 0.10349800 16138.35703148 0 387.28241504 0 7534.74919079 0 249.40220018 0 -2579.04711757 0 11364
0.10450000 0.10450100 16212.88987497 0 228.13039355 0 7272.94148683 0 572.65291699 0 -1174.46902724 0 12093
0.10550000 0.10551000 15788.42976776 0 -248.74671044 0 6211.00374382 0 846.60215425 0 -1418.85246080 0 12067
0.10650000 0.10649700 16033.10157244 0 -59.76535840 0 6044.83543114 0 1344.04233738 0 263.91281314 0 12054
0.10750000 0.10749900 16273.44781031 0 -75.67645681 0 5186.06623384 0 352.64127961 0 -524.12449387 0 12807
0.10850000 0.10850100 16211.33710740 0 63.47514196 0 4494.49683053 0 -283.94462395 0 -1604.66328327 0 12736
0.10950000 0.10950300 15631.93297882 0 485.17664666 0 5612.72239804 0 -568.92738394 0 -1439.98119098 0 12933
0.11050000 0.11050200 15551.07815307 0 381.61370428 0 5284.96643703 0 -837.84010867 0 -824.83789848 0 13428
0.11150000 0.11150900 15136.37829918 0 27.32471645 0 6056.69192068 0 562.98804797 0 -1062.83391172 0 13453
0.11250000 0.11250000 15418.76017348 0 -159.00561769 0 4683.49082652 0 1225.01161173 0 -2103.45659243 0 13668
0.11350000 0.11349100 15163.10808382 0 -17.31236023 0 4714.61272516 0 730.61374393 0 -583.79846081 0 13791
0.11450000 0.11448600 15087.68794458 0 354.83511837 0 4540.08164998 0 188.62355002 0 -192.07956699 0 14205
0.11550000 0.11549300 14591.35688114 0 339.62132351 0 4579.76595266 0 -420.96416193 0 13.96193145 0 14776
0.11650000 0.11649800 14417.77964890 0 140.41455336 0 4290.44098907 0 50.05423909 0 -361.80371741 0 14553
0.11750000 0.11747300 13825.84246778 0 204.77898749 0 4975.13385028 0 -367.22287624 0 -212.80679585 0 14568
0.11850000 0.11849100 13836.37910488 0 319.53960232 0 5182.09558533 0 -102.10178810 0 -118.06135504 0 16015
0.11950000 0.11950300 13527.37835790 0 85.43959384 0 5072.12636759 0 358.23567935 0 -350.25556315 0 15270
0.12050000 0.12050700 13588.71267702 0 -79.80704038 0 4672.58817992 0 848.40558288 0 151.00220997 0 15999
0.12150000 0.12150000 13475.58246815 0 -19.31398854 0 4443.77678688 0 702.07942154 0 334.99962174 0 15670
0.12250000 0.12250700 13649.60334827 0 40.12429046 0 3511.61713937 0 449.44857393 0 1016.01020556 0 16887
0.12350000 0.12352200 13268.17708522 0 313.26198484 0 4113.85804246 0 -91.23474424 0 990.05347734 0 16407
0.12450000 0.12449800 12945.42325403 0 242.15632121 0 3750.22205931 0 -140.69959713 0 892.61509391 0 16306
0.12550000 0.12549900 12698.97685784 0 181.90783027 0 3907.69487359 0 33.76648364 0 1013.22853337 0 17523
0.12650000 0.12650100 12321.09977781 0 299.33365972 0 4062.21742947 0 79.23617647 0 865.22649217 0 17154
0.12750000 0.12750600 12286.82797924 0 153.90144885 0 3996.09171326 0 -235.13448442 0 715.08717732 0 18007
0.12850000 0.12850300 11870.90809368 0 128.51702640 0 4269.84463634 0 134.52623690 0 41.39301248 0 17496
0.12950000 0.12949900 11687.23787222 0 212.99090971 0 4033.65759733 0 -508.83084239 0 265.75727920 0 18405
0.13050000 0.13049000 11576.43681471 0 128.78654248 0 4476.88400977 0 -111.50313028 0 -62.27773634 0 18100
0.13150000 0.13148800 11486.37629549 0 -7.02540815 0 3861.67749745 0 508.44930522 0 -247.41465768 0 19059
0.13250000 0.13249300 11600.72653602 0 24.55746281 0 4292.95869078 0 421.92909606 0 144.08795779 0 18957
0.13350000 0.13349100 11611.37408509 0 -120.32285009 0 3262.81940943 0 236.55193939 0 28.56970331 0 19468
0.13450000 0.13450700 11566.89838533 0 -10.28534385 0 3438.27105395 0 408.24810463 0 154.67339616 0 19953
0.13550000 0.13551000 11706.98020279 0 -25.28748539 0 3185.87977620 0 -234.26493458 0 297.33058955 0 19956
0.13650000 0.13649900 11704.98378734 0 51.92898411 0 3352.02590648 0 40.21268730 0 -382.01298737 0 19723
0.13750000 0.13749600 11617.14150751 0 156.54780845 0 3286.22183499 0 -423.91442032 0 -756.69580267 0 20946
0.13850000 0.13851100 11459.42468690 0 167.20644871 0 3461.65129712 0 -284.99385118 0 -593.22154173 0 20955
0.13950000 0.13949800 11174.60274927 0 179.02079170 0 3914.49377731 0 -22.86827352 0 -979.59780598 0 20506
0.14050000 0.14048300 11308.91714432 0 162.00800470 0 3934.75739414 0 -170.99076511 0 -556.75035881 0 21447
0.14150000 0.14148400 10845.41602385 0 237.49247289 0 4311.12607138 0 257.49433747 0 -497.89381308 0 21771
0.14250000 0.14249400 10744.36412845 0 52.52546868 0 3800.85337338 0 218.30581129 0 18.45907908 0 22470
0.14350000 0.14350900 10843.60815875 0 -159.58125081 0 3927.02682987 0 634.37210065 0 453.01993935 0 22519
0.14450000 0.14449900 10866.32293010 0 10.38483189 0 4040.74487218 0 335.23697336 0 290.75018240 0 22218
0.14550000 0.14550500 10867.82024169 0 260.21833544 0 3487.39396523 0 -439.35780295 0 427.97379840 0 23559
0.14650000 0.14650700 10581.90027556 0 186.64155312 0 3938.35094195 0 -277.60378666 0 218.97239223 0 23044
0.14750000 0.14750500 10424.53837326 0 137.12157699 0 4355.61286234 0 -178.53388816 0 502.62420858 0 23649
0.14850000 0.14849900 10218.94085543 0 19.42279318 0 4039.85757642 0 355.57601032 0 207.98212517 0 23640
0.14950000 0.14949500 10242.60946971 0 17.88799335 0 3861.41130872 0 508.95950028 0 222.43839128 0 24457
0.15050000 0.15050000 10380.37322701 0 -18.98313814 0 3668.70176175 0 483.53182215 0 394.82553808 0 24591
0.15150000 0.15149900 10336.90682617 0 -46.49207937 0 3135.83629556 0 303.26216168 0 808.57265816 0 25020
0.15250000 0.15250500 10199.58671675 0 119.12610994 0 2773.83071837 0 157.93198982 0 496.31886312 0 25297
0.15350000 0.15350100 10015.91649529 0 155.75367874 0 2848.01973476 0 -62.34084525 0 692.37795157 0 25452
0.15450000 0.15450400 9799.39414847 0 316.61707192 0 2956.10344902 0 -486.12161664 0 519.76787170 0 26061
0.15550000 0.15549900 9588.37303533 0 268.31380009 0 3357.32749862 0 -174.41461761 0 64.20372269 0 26128
0.15650000 0.15649500 9108.37930500 0 111.13601166 0 3620.88761170 0 -161.77841693 0 -75.98035561 0 26331
0.15750000 0.15749700 9121.25618466 0 132.29579720 0 3623.20567186 0 14.75739210 0 -43.38221866 0 27345
0.15850000 0.15849900 9082.57008970 0 -80.20942900 0 3117.24744948 0 397.32327564 0 -217.31425829 0 26980
0.15950000 0.15949700 9064.03669960 0 41.09776482 0 3295.38316367 0 330.57867064 0 -42.58320883 0 27777
0.16050000 0.16050000 9013.30556476 0 54.85018356 0 2840.46662964 0 -97.66420020 0 -134.83568130 0 28224
0.16150000 0.16150500 8998.16608093 0 56.28871181 0 3242.74434295 0 39.86919293 0 -244.43888954 0 28075
0.16250000 0.16249700 8973.57689729 0 101.04679344 0 2962.94671754 0 -150.97115462 0 -550.44279510 0 28590
0.16350000 0.16349900 8755.04704382 0 199.68369162 0 3258.80439613 0 -310.96721620 0 -559.01518123 0 29163
0.16450000 0.16449100 8670.73176462 0 130.50235065 0 3272.60184513 0 -170.23545460 0 -757.68735568 0 28996
0.16550000 0.16550500 8329.34472255 0 127.12397206 0 3434.23385826 0 198.56791720 0 -819.48750508 0 30777
0.16650000 0.16650700 8358.98040080 0 178.31650070 0 3181.84258051 0 61.63932704 0 -896.07776560 0 29211
0.16750000 0.16749900 8065.91770384 0 95.25752137 0 3010.78304997 0 306.97882177 0 -273.76401427 0 30922
0.16850000 0.16850800 8046.38610601 0 -7.90039268 0 2778.71084503 0 647.96658075 0 -174.65751482 0 30867
0.16950000 0.16949900 7906.18228539 0 -57.17922401 0 2264.40095134 0 456.07556411 0 190.47577991 0 30852
0.17050000 0.17049200 8032.66629539 0 24.02597265 0 2196.98865629 0 340.60511268 0 178.63703629 0 31257
0.17150000 0.17149500 7877.98846275 0 93.23271246 0 1630.73868730 0 -31.75520598 0 81.63276231 0 32608
0.17250000 0.17250900 7764.99134824 0 173.31215263 0 1962.96440068 0 -118.76010044 0 425.94410936 0 32361
0.17350000 0.17350400 7757.24969277 0 3.38492240 0 1762.93466372 0 -1.66560941 0 270.22037685 0 32508
0.17450000 0.17449800 7641.05831354 0 -101.66878777 0 1930.48937602 0 251.26108478 0 192.29140885 0 32791
0.17550000 0.17549800 7886.88360270 0 18.32465377 0 1548.73037706 0 66.35785496 0 30.56212593 0 33633
0.17650000 0.17650100 7798.67531337 0 17.78950352 0 1643.40483421 0 92.06159297 0 573.12872934 0 33984
0.17750000 0.17750300 7674.55372832 0 155.58065607 0 1939.15160084 0 -162.60360198 0 346.79843706 0 34069
