### header ###
fiducial parameters:
Omega_m = 0.31
Omega_nu = 0
Omega_de = 0.69
Omega_k = 0
H_0 = 100
w_de = -1
zeff = 0
beta = 0
fgrowth = 0
b_1 = 2
gamma = 0.55
Lx = 3500 Ly = 3500 Lz = 3500
nx = 700 ny = 700 nz = 700
xoffset = 1379.75464 yoffset = 22.6059522 zoffset = 368.141391
bins = 400 dk = 0.001
kx_ny = 0.628318531 ky_ny = 0.628318531 kz_ny = 0.628318531
############################
A(data) = 3.33051713 (not used)
A(ran) = 3.32508645 (used)
Ngal = 186896
weighted Ngal = 0
Nran = 9399747
weighted Nran = 0
SN(data) = 6666.29463
SN(ran) = 132.256587
SN(data+ran) = 6798.55122
############################
13 columns: k_central k_mean P_0(k) sigma^{lin}_{P_0(k)} P^img_1(k) sigma^{lin}_{P_1(k)} P_2(k) sigma^{lin}_{P_2(k)} P^img_3(k) sigma^{lin}_{P_3(k)} P_4(k) sigma^{lin}_{P_4(k)} N_modes
### header ###
0.00050000 0 0 0 0 0 0 0 0 0 0 0 0
0.00150000 0.00179520 56240.90874914 0 -41000.60593456 0 -68472.05891970 0 56477.92762792 0 -116305.61855815 0 3
0.00250000 0.00253879 102824.26866758 0 -41691.69841640 0 -29359.17470573 0 -38960.49116790 0 62124.78873017 0 6
0.00350000 0.00331552 113991.99487475 0 -15956.68322547 0 -35084.00692253 0 -78454.02526113 0 -5791.13539215 0 7
0.00450000 0.00420575 115682.29328966 0 12152.06993632 0 -17110.16770808 0 -64247.42200212 0 19006.20782638 0 24
0.00550000 0.00557378 93886.53851883 0 3654.83776556 0 -4803.98559017 0 -5309.47798228 0 840.07609397 0 45
0.00650000 0.00659388 89999.73946029 0 4395.81845128 0 4343.51236647 0 14750.18282144 0 12134.65675711 0 40
0.00750000 0.00754703 86117.37688054 0 4668.66189620 0 -16910.30433908 0 -13423.23201856 0 -17610.38069045 0 57
0.00850000 0.00846663 89643.82295022 0 1185.22748828 0 -4265.57452551 0 9390.48389938 0 2897.22028442 0 75
0.00950000 0.00948925 78222.55198082 0 2131.75023584 0 -6427.92537374 0 -2311.19471127 0 -2675.90654052 0 112
0.01050000 0.01054430 73885.33941422 0 -1154.73778787 0 2884.42104314 0 -3595.43331471 0 -9442.86762257 0 105
0.01150000 0.01145670 82600.91288810 0 3038.71068389 0 -8382.47155594 0 147.07814449 0 -1523.94155188 0 144
0.01250000 0.01249090 72120.17541991 0 -176.97224763 0 4020.89162964 0 301.18034401 0 -10051.85197340 0 169
0.01350000 0.01339930 69813.09554271 0 6978.79185256 0 7755.92984033 0 -5997.37619940 0 9268.42527696 0 180
0.01450000 0.01448870 67331.21840161 0 3170.42973885 0 6538.75970484 0 5565.31862229 0 14893.59199798 0 267
0.01550000 0.01550050 64156.69601109 0 -4003.02371136 0 7819.47130765 0 6338.76324147 0 1354.74534244 0 238
0.01650000 0.01653350 72525.44775640 0 -5781.78551312 0 -2541.24831837 0 14663.44966131 0 24815.22222801 0 315
0.01750000 0.01747870 74835.85499268 0 -4428.92567417 0 -9624.74107012 0 4064.70185758 0 2912.22667389 0 297
0.01850000 0.01844180 74245.02693125 0 -4327.52995167 0 -16494.05171761 0 9841.66270004 0 25717.49109975 0 388
0.01950000 0.01947590 85848.30444257 0 618.92760890 0 -13253.42579328 0 -1467.19898830 0 17425.82317323 0 399
0.02050000 0.02045430 80936.23513814 0 3550.94652375 0 -8189.85073854 0 -8419.63815691 0 24049.81872662 0 462
0.02150000 0.02154770 72315.49139817 0 7089.22690058 0 6016.69706449 0 -7166.56581690 0 28378.26924763 0 571
0.02250000 0.02255340 65951.69532519 0 1938.69686176 0 3889.98223206 0 -250.62777744 0 24751.11510965 0 510
0.02350000 0.02348930 70995.41713739 0 -1720.12264350 0 15400.23787458 0 11466.52305295 0 29560.14719443 0 555
0.02450000 0.02439640 69276.61434632 0 -3138.33181488 0 14249.63710317 0 4283.80845330 0 15765.91463796 0 592
0.02550000 0.02547300 73297.17324005 0 3337.14152018 0 16780.98098266 0 -7651.91659535 0 23631.23695379 0 837
0.02650000 0.02652900 67532.30180228 0 2771.55702300 0 20969.23877425 0 -3044.57792707 0 10073.06943316 0 723
0.02750000 0.02749970 64691.40261596 0 1983.47202384 0 25380.54053647 0 -10659.33901265 0 13345.92637583 0 826
0.02850000 0.02848090 68360.03783052 0 1537.05134668 0 33748.95954587 0 -1722.54052444 0 1874.04627475 0 831
0.02950000 0.02946900 65614.30111402 0 852.41726881 0 31154.06310786 0 7449.89044294 0 6247.43832580 0 996
0.03050000 0.03053250 63638.51528966 0 336.93947209 0 28744.61148283 0 5454.28464964 0 7211.68480608 0 1041
0.03150000 0.03150510 65951.14076534 0 -674.35475653 0 21054.08643090 0 7095.43797087 0 5777.59304068 0 1036
0.03250000 0.03246190 62902.72528412 0 1605.31766389 0 22883.35754357 0 4309.67312458 0 4781.27081882 0 1059
0.03350000 0.03345080 62420.25821687 0 1503.73339104 0 18983.47087264 0 827.86246789 0 8086.24786784 0 1302
0.03450000 0.03451200 55712.96777440 0 2685.66679383 0 22549.95616331 0 670.44178225 0 10989.18011869 0 1339
0.03550000 0.03553350 56837.39332101 0 1689.48875753 0 19570.19519120 0 2041.81171979 0 13319.75115103 0 1365
0.03650000 0.03647120 50537.14980655 0 840.63730854 0 20192.52225196 0 2941.13033314 0 6491.02319317 0 1308
0.03750000 0.03744890 51538.35215506 0 2176.91358982 0 19232.02459625 0 2701.15010477 0 9593.57480670 0 1579
0.03850000 0.03847530 47557.38883444 0 1466.16750698 0 14795.65672893 0 -519.25989488 0 6714.56626767 0 1662
0.03950000 0.03950240 47569.03459123 0 2199.27344286 0 18945.20624317 0 -1742.46031416 0 8514.34588765 0 1683
0.04050000 0.04050350 44545.79612709 0 1041.04081883 0 21393.80979343 0 -1933.45072561 0 4770.96709685 0 1822
0.04150000 0.04152450 42391.77476777 0 951.50713147 0 18739.90818766 0 4247.37387132 0 6405.66534146 0 1887
0.04250000 0.04250150 42607.05490054 0 -200.98801638 0 18123.23763733 0 3052.40831212 0 4459.65938091 0 1920
0.04350000 0.04349210 42187.80765589 0 -32.36400178 0 14706.26168153 0 2955.62652755 0 4208.53249961 0 2005
0.04450000 0.04448520 41622.37843547 0 1748.16118939 0 16921.95009587 0 3476.91278412 0 8640.95190082 0 2151
0.04550000 0.04548030 38156.49030112 0 1110.20663212 0 13761.84626139 0 -802.43922625 0 7652.24933126 0 2274
0.04650000 0.04648670 38103.47437971 0 414.67434414 0 12655.27754186 0 2773.27615852 0 13522.38731927 0 2311
0.04750000 0.04749250 38246.32899640 0 -1337.06597450 0 11865.80614309 0 4573.18887287 0 10195.00605241 0 2568
0.04850000 0.04851840 38698.96074386 0 -276.67101699 0 5869.87179929 0 3527.82137811 0 11684.90872086 0 2493
0.04950000 0.04949480 38419.90622864 0 562.78840643 0 6087.90254889 0 -448.95723391 0 8066.83827318 0 2644
0.05050000 0.05050630 37832.29461433 0 1080.22158117 0 6961.48958532 0 -2839.21332438 0 8237.35433507 0 2829
0.05150000 0.05149060 36209.87432474 0 1323.26852550 0 12231.92655435 0 -3318.64140367 0 4730.56186637 0 2784
0.05250000 0.05249300 35013.35599797 0 1342.31211066 0 11612.26138085 0 -2704.53291984 0 3430.85104319 0 3055
0.05350000 0.05348950 34909.20965862 0 115.16877087 0 13079.29400119 0 -189.62508510 0 233.54400678 0 3009
0.05450000 0.05448610 34464.00901312 0 -236.80703692 0 14087.48380378 0 2158.14728458 0 507.27474746 0 3336
0.05550000 0.05550870 35314.37108314 0 -512.41551725 0 12450.31222226 0 2280.08390383 0 2080.89709783 0 3349
0.05650000 0.05647670 36328.32830815 0 127.89924673 0 13801.77457040 0 300.92081000 0 3847.12584705 0 3324
0.05750000 0.05747970 35657.86545263 0 304.04076370 0 11110.27380697 0 -54.22075814 0 2290.48744657 0 3639
0.05850000 0.05849280 35392.34219769 0 131.54492317 0 13140.62832032 0 81.56920975 0 586.53576821 0 3846
0.05950000 0.05951020 34854.97370555 0 1089.82766685 0 13677.44225261 0 -1318.17766610 0 3342.13255880 0 3787
0.06050000 0.06049470 33768.48005250 0 649.98628771 0 14284.24163765 0 450.60982225 0 -101.48589393 0 3930
0.06150000 0.06148310 33785.67140777 0 217.45400737 0 15002.50755201 0 5.30775885 0 862.98163391 0 4083
0.06250000 0.06249100 33017.49510713 0 358.66379955 0 13431.55041627 0 -683.16116691 0 -2372.05210892 0 4303
0.06350000 0.06350600 33048.32863465 0 487.14089764 0 14832.70132674 0 -517.46755746 0 -1048.58726924 0 4470
0.06450000 0.06451750 32015.40546286 0 271.58570319 0 14076.39260684 0 178.46290450 0 -3172.47051908 0 4479
0.06550000 0.06550280 33183.41941348 0 56.30246489 0 14622.96679245 0 1922.81426773 0 -1094.61795481 0 4636
0.06650000 0.06648880 31134.87533714 0 482.74656541 0 12800.01766204 0 197.72609536 0 -5722.83580134 0 4653
0.06750000 0.06749660 31451.75083395 0 636.62694099 0 12888.74723762 0 -70.42078222 0 -2345.11159154 0 5220
0.06850000 0.06852730 30377.45749755 0 182.36589670 0 12476.04379918 0 777.29326453 0 -4837.92465283 0 5029
0.06950000 0.06949320 30782.17527419 0 549.19170809 0 12373.78296332 0 70.84136041 0 -4747.54248890 0 5040
0.07050000 0.07048030 29570.35109563 0 -133.64892323 0 10205.56487191 0 1066.06145003 0 -5200.59570184 0 5475
0.07150000 0.07148790 28942.25661245 0 247.98807257 0 11456.31915176 0 969.78431492 0 -4941.77152986 0 5509
0.07250000 0.07249820 29743.04103211 0 286.35252281 0 8018.51392808 0 153.45558274 0 -5331.90438251 0 5916
0.07350000 0.07351270 28308.28379489 0 312.58764007 0 8083.18669749 0 1323.81199415 0 -5392.40686186 0 5721
0.07450000 0.07449140 28076.25595473 0 535.72810411 0 7900.22631263 0 -1137.19151430 0 -5735.40212749 0 6028
0.07550000 0.07549160 26769.15839438 0 773.75517270 0 9638.00614167 0 8.70686688 0 -4097.63162132 0 6183
0.07650000 0.07648840 26858.66435375 0 585.46990419 0 9216.71811679 0 266.34400351 0 -5538.21173694 0 6330
0.07750000 0.07749960 25999.54023815 0 173.94213262 0 9219.20254491 0 761.63914915 0 -3250.19762730 0 6583
0.07850000 0.07848650 25279.61064424 0 240.38616618 0 8213.43062325 0 255.89276863 0 -3512.13842562 0 6549
0.07950000 0.07947320 25472.81929507 0 769.24549202 0 10552.76370117 0 213.81831301 0 -1568.39506925 0 6828
0.08050000 0.08048110 23559.14417363 0 310.95723412 0 8947.22421334 0 997.45574219 0 -899.47167187 0 7147
0.08150000 0.08149960 24085.42146882 0 509.64715449 0 10239.79230569 0 408.44663705 0 480.99859277 0 7386
0.08250000 0.08250610 23463.75987987 0 -13.19031688 0 9185.33002943 0 537.56813369 0 547.20971119 0 7227
0.08350000 0.08350160 23351.18423085 0 235.99516131 0 8357.09489732 0 837.09921671 0 393.47130294 0 7798
0.08450000 0.08449610 23001.25696713 0 138.42701087 0 8709.31803880 0 1059.78937816 0 2303.83015649 0 7371
0.08550000 0.08548940 22864.61342073 0 -79.29895264 0 6981.45373983 0 914.37380409 0 1492.78637966 0 8256
0.08650000 0.08650700 22793.96249617 0 144.32974589 0 7469.64386470 0 659.74432279 0 1904.13669207 0 8037
0.08750000 0.08749060 22499.71304113 0 584.37853041 0 6668.50452674 0 -522.76471312 0 356.23039094 0 8155
0.08850000 0.08849210 21703.91966010 0 654.13106801 0 7491.33824593 0 -375.26177579 0 2831.99295517 0 8718
0.08950000 0.08949900 20833.92617148 0 398.88935264 0 7902.40018723 0 360.27867783 0 1286.92267310 0 8571
0.09050000 0.09049190 20787.12132036 0 264.31431447 0 9310.98219965 0 -9.58083102 0 2219.69233644 0 8932
0.09150000 0.09150830 20156.25403794 0 260.85275191 0 7126.44895754 0 625.56236291 0 1727.97521094 0 9285
0.09250000 0.09250820 19928.99541247 0 276.65105284 0 9198.51746260 0 550.26422683 0 3469.23767583 0 9204
0.09350000 0.09350330 20074.29009250 0 -68.97471197 0 6632.44704546 0 950.22498910 0 3147.62623792 0 9349
0.09450000 0.09448040 19797.67564061 0 -187.61203286 0 7639.99355863 0 1144.60043386 0 3265.85839739 0 9564
0.09550000 0.09549270 19564.20594485 0 415.13573793 0 6220.86381791 0 308.11456034 0 3439.47999442 0 10155
0.09650000 0.09649430 19210.95132205 0 445.11080681 0 6642.30711955 0 -532.48725636 0 3387.61755749 0 9913
0.09750000 0.09749140 18429.68740901 0 521.29845688 0 6475.36242308 0 -372.06418371 0 2192.46344794 0 10476
0.09850000 0.09850240 17702.99218497 0 554.64857699 0 6401.12904191 0 -166.51324890 0 1861.39121903 0 10575
0.09950000 0.09950330 17103.29116598 0 375.25068459 0 6924.65572026 0 268.85505050 0 2023.04541455 0 10882
0.10050000 0.10051200 16520.78150226 0 244.10726275 0 6044.18105052 0 646.28737353 0 1035.15582973 0 10875
0.10150000 0.10150300 16198.69314288 0 343.08066784 0 6289.49614463 0 456.43713713 0 1525.50541065 0 11118
0.10250000 0.10250800 15797.74637320 0 147.34322410 0 5584.90567610 0 -25.73346242 0 1403.20278190 0 11575
0.10350000 0.10349800 15471.22153505 0 294.85392527 0 5906.63911717 0 341.60332041 0 1539.60232197 0 11364
0.10450000 0.10450100 15068.83290976 0 2.87409514 0 5282.81474482 0 435.65112493 0 1836.28074914 0 12093
0.10550000 0.10551000 15250.61762775 0 -163.98778336 0 4963.38827271 0 628.48600243 0 1569.62619211 0 12067
0.10650000 0.10649700 15537.10324492 0 -243.26433179 0 4087.49426731 0 1115.18657955 0 1974.06668883 0 12054
0.10750000 0.10749900 15813.38496090 0 -12.67801450 0 3817.02433853 0 -38.28182083 0 996.90118234 0 12807
0.10850000 0.10850100 15699.81110415 0 236.73605326 0 3935.43395715 0 -646.40161286 0 1215.99446862 0 12736
0.10950000 0.10950300 15418.53834954 0 413.45653072 0 4439.07411937 0 -850.16131936 0 46.62384279 0 12933
0.11050000 0.11050200 14799.31682392 0 371.66600973 0 4373.64714858 0 -916.17390535 0 -929.61421781 0 13428
0.11150000 0.11150900 14654.24396784 0 100.12944055 0 5823.90987913 0 -101.20595212 0 -164.61332687 0 13453
0.11250000 0.11250000 14404.02656469 0 256.09019194 0 5162.06488364 0 17.97417195 0 -2047.33513587 0 13668
0.11350000 0.11349100 14193.51564661 0 327.61621194 0 5829.57748077 0 274.96519090 0 -1045.25325544 0 13791
0.11450000 0.11448600 13846.69391804 0 161.85716442 0 5553.46213275 0 -542.40389556 0 -1614.01316230 0 14205
0.11550000 0.11549300 13942.30003573 0 35.15022137 0 5336.20776693 0 449.19902200 0 -1110.81664796 0 14776
0.11650000 0.11649800 13594.70192338 0 73.49104736 0 6191.80488191 0 -31.98013546 0 -1153.83940092 0 14553
0.11750000 0.11747300 13700.17920635 0 12.39629809 0 4769.17032295 0 287.97849228 0 -1086.71436787 0 14568
0.11850000 0.11849100 13848.46850955 0 -86.21708674 0 5172.41297039 0 810.03115056 0 -589.38176935 0 16015
0.11950000 0.11950300 13651.15611584 0 14.47911397 0 4206.64699613 0 568.54030116 0 -849.85298408 0 15270
0.12050000 0.12050700 13847.69212576 0 -55.01377872 0 4125.07124257 0 515.58538134 0 -652.43300576 0 15999
0.12150000 0.12150000 13545.90065680 0 69.19121213 0 3586.26089483 0 312.99801436 0 -707.04273217 0 15670
0.12250000 0.12250700 13488.11552070 0 83.05953388 0 3191.60283382 0 -45.33438023 0 -125.10870158 0 16887
0.12350000 0.12352200 13336.27703448 0 -26.60356682 0 2857.71344089 0 557.82731403 0 -428.41190068 0 16407
0.12450000 0.12449800 13565.42116343 0 -110.48662208 0 2782.04929531 0 215.30231516 0 -142.34220339 0 16306
0.12550000 0.12549900 13629.30645785 0 -9.41421906 0 2163.22705278 0 542.31072950 0 -778.39129302 0 17523
0.12650000 0.12650100 13646.05416525 0 32.71670185 0 1596.82180703 0 -48.97406742 0 -157.93642630 0 17154
0.12750000 0.12750600 13426.78120158 0 145.66512600 0 2318.06016218 0 35.98439029 0 -32.68498102 0 18007
0.12850000 0.12850300 13350.03011870 0 251.21782912 0 2214.54602106 0 -180.64787029 0 -127.68740487 0 17496
0.12950000 0.12949900 12910.59689561 0 372.55663285 0 2705.45348919 0 -324.08699307 0 -236.06281761 0 18405
0.13050000 0.13049000 12429.68259593 0 479.62993907 0 3184.06081990 0 -599.47475857 0 -120.54245579 0 18100
0.13150000 0.13148800 11928.36049387 0 294.56222679 0 3562.02662950 0 -5.97031368 0 689.75931997 0 19059
0.13250000 0.13249300 11627.12358476 0 157.85878792 0 4191.75151863 0 239.86598904 0 245.47480734 0 18957
0.13350000 0.13349100 11792.60424323 0 -82.66901284 0 3654.69358000 0 422.27735965 0 805.78544037 0 19468
0.13450000 0.13450700 11548.70882234 0 89.73765448 0 3296.18172985 0 384.62718249 0 610.46169827 0 19953
0.13550000 0.13551000 11516.32252725 0 92.32389978 0 3255.53249303 0 -96.62018583 0 1172.02896391 0 19956
0.13650000 0.13649900 11366.70228042 0 64.66178912 0 3465.35575690 0 -31.95229655 0 1081.59688960 0 19723
0.13750000 0.13749600 11403.96870216 0 163.70052136 0 3634.04177128 0 -101.59126030 0 251.69142323 0 20946
0.13850000 0.13851100 11163.06790445 0 132.03848143 0 3200.25396744 0 -111.73493630 0 456.36726259 0 20955
0.13950000 0.13949800 11116.48487726 0 -26.80021375 0 3344.05133587 0 243.62479569 0 346.48011970 0 20506
0.14050000 0.14048300 11254.12663139 0 -82.42167915 0 3054.49345715 0 83.85832189 0 499.20146520 0 21447
0.14150000 0.14148400 11261.00317350 0 36.05981043 0 2941.37433947 0 252.35024033 0 -259.24896483 0 21771
0.14250000 0.14249400 11118.48129272 0 128.78432424 0 2745.22652144 0 55.89841259 0 267.88457077 0 22470
0.14350000 0.14350900 11044.82465378 0 162.90528254 0 2634.78038223 0 9.01823006 0 -708.78294098 0 22519
0.14450000 0.14449900 10742.32334822 0 220.97213504 0 3090.10729055 0 -153.42674562 0 81.91314777 0 22218
0.14550000 0.14550500 10452.89856385 0 127.61753033 0 2483.31899671 0 209.61031289 0 -111.52753091 0 23559
0.14650000 0.14650700 10276.40434682 0 93.96073863 0 2683.87001992 0 273.33145759 0 -88.38863219 0 23044
0.14750000 0.14750500 10372.03264690 0 25.15339282 0 2368.60274667 0 409.05554377 0 292.18538328 0 23649
0.14850000 0.14849900 10214.90365974 0 26.35002206 0 2488.32112653 0 -41.02201194 0 -345.05379178 0 23640
0.14950000 0.14949500 10126.01880739 0 187.69078036 0 2140.81174375 0 -321.70127660 0 -257.64406863 0 24457
0.15050000 0.15050000 9799.41633086 0 176.91900988 0 2683.61492239 0 -507.60082865 0 -297.44704712 0 24591
0.15150000 0.15149900 9837.40368041 0 33.57804420 0 2662.84111051 0 303.06473837 0 -285.48186385 0 25020
0.15250000 0.15250500 9871.26510469 0 56.64618109 0 2695.12758483 0 105.01111997 0 -362.47362570 0 25297
0.15350000 0.15350100 9660.97601055 0 290.36642698 0 2889.50081134 0 -49.33486406 0 -310.25072487 0 25452
0.15450000 0.15450400 9341.95991273 0 264.09359965 0 2995.43283340 0 -58.00574001 0 412.78440418 0 26061
0.15550000 0.15549900 8978.63448310 0 188.82873716 0 3457.56973664 0 -95.52005001 0 377.17389814 0 26128
0.15650000 0.15649500 8857.52970362 0 20.82106038 0 3088.35488143 0 395.75054391 0 831.52589024 0 26331
0.15750000 0.15749700 9010.48840074 0 -90.62184470 0 3398.58675127 0 454.64590882 0 785.24454362 0 27345
0.15850000 0.15849900 9054.95300930 0 -67.16074670 0 2729.69884571 0 173.58721432 0 1018.43695945 0 26980
0.15950000 0.15949700 9141.23143036 0 21.72610205 0 2605.76581102 0 259.69150359 0 882.74614687 0 27777
0.16050000 0.16050000 9127.97745001 0 65.21413073 0 2840.79936555 0 -362.49469898 0 915.79347730 0 28224
0.16150000 0.16150500 9054.67572938 0 68.24380209 0 2763.60463479 0 -196.67797724 0 493.87990891 0 28075
0.16250000 0.16249700 9112.58286864 0 29.36483122 0 2780.71835168 0 -30.44311738 0 224.02110508 0 28590
0.16350000 0.16349900 9091.08812896 0 -39.72256731 0 2834.11137379 0 -17.82177890 0 273.01868584 0 29163
0.16450000 0.16449100 9070.42522904 0 88.25143409 0 2601.08532590 0 172.34389114 0 -139.81784697 0 28996
0.16550000 0.16550500 9114.31309537 0 -31.65338879 0 2447.63861612 0 338.69077209 0 145.20816869 0 30777
0.16650000 0.16650700 9011.97462113 0 99.21153309 0 2507.30925571 0 123.98738156 0 198.43482284 0 29211
0.16750000 0.16749900 8850.13187526 0 208.23722270 0 2291.21946556 0 23.43836104 0 561.95656666 0 30922
0.16850000 0.16850800 8572.10884136 0 135.11296122 0 2464.54160027 0 183.80442495 0 856.67850668 0 30867
0.16950000 0.16949900 8458.55716700 0 93.53461484 0 2107.01686665 0 262.54194120 0 1101.38691231 0 30852
0.17050000 0.17049200 8352.18149707 0 20.45627092 0 2366.07395377 0 384.73809446 0 1186.31442558 0 31257
0.17150000 0.17149500 8320.36085303 0 50.21628148 0 1857.57584728 0 231.03406891 0 1235.84771115 0 32608
0.17250000 0.17250900 8159.07266701 0 122.44903255 0 2118.41861711 0 -41.49882250 0 1778.16287713 0 32361
0.17350000 0.17350400 8027.89708070 0 204.11795216 0 1897.33778834 0 -54.48994149 0 1178.51731413 0 32508
0.17450000 0.17449800 7864.12446656 0 118.21219531 0 2115.65690907 0 -197.43883335 0 1570.38039350 0 32791
0.17550000 0.17549800 7780.46356798 0 64.10634198 0 2094.87200599 0 49.52086343 0 1213.25494297 0 33633
0.17650000 0.17650100 7790.76728995 0 -89.61398763 0 2099.17539041 0 218.54538115 0 1415.90220241 0 33984
0.17750000 0.17750300 7889.25711885 0 -131.91204178 0 1797.35064785 0 295.38519360 0 1089.72562784 0 34069
0.17850000 0.17849800 8022.60657975 0 39.85743627 0 1588.70305086 0 -58.40136300 0 995.99392243 0 34536
