### header ###
fiducial parameters:
Omega_m = 0.31
Omega_nu = 0
Omega_de = 0.69
Omega_k = 0
H_0 = 100
w_de = -1
zeff = 0
beta = 0
fgrowth = 0
b_1 = 2
gamma = 0.55
Lx = 3500 Ly = 3500 Lz = 3500
nx = 700 ny = 700 nz = 700
xoffset = 1379.75464 yoffset = 22.6059522 zoffset = 368.141391
bins = 400 dk = 0.001
kx_ny = 0.628318531 ky_ny = 0.628318531 kz_ny = 0.628318531
############################
A(data) = 3.32646012 (not used)
A(ran) = 3.32193768 (used)
Ngal = 186603
weighted Ngal = 0
Nran = 9399747
weighted Nran = 0
SN(data) = 6668.36267
SN(ran) = 132.131343
SN(data+ran) = 6800.49401
############################
13 columns: k_central k_mean P_0(k) sigma^{lin}_{P_0(k)} P^img_1(k) sigma^{lin}_{P_1(k)} P_2(k) sigma^{lin}_{P_2(k)} P^img_3(k) sigma^{lin}_{P_3(k)} P_4(k) sigma^{lin}_{P_4(k)} N_modes
### header ###
0.00050000 0 0 0 0 0 0 0 0 0 0 0 0
0.00150000 0.00179520 10048.25842559 0 -11155.96953840 0 -19837.49303765 0 23172.50504801 0 -28878.03858212 0 3
0.00250000 0.00253879 18177.25176647 0 -10088.48619692 0 -2132.28261330 0 -15329.14330214 0 6808.36452026 0 6
0.00350000 0.00331552 20790.22685550 0 -3660.22808728 0 -8395.27079722 0 -18819.98662962 0 -1058.89542768 0 7
0.00450000 0.00420575 28518.68380100 0 -3920.70484761 0 -9309.21869934 0 -9666.24432910 0 5562.44600228 0 24
0.00550000 0.00557378 28667.08401616 0 -3368.76252267 0 -12682.89462226 0 -3757.20951339 0 11615.58873993 0 45
0.00650000 0.00659388 39878.17680340 0 395.50653758 0 -6071.83140452 0 30.16927573 0 1982.51818090 0 40
0.00750000 0.00754703 53369.95241909 0 -20526.03454420 0 -34222.22091965 0 34233.97758841 0 14720.68023756 0 57
0.00850000 0.00846663 58009.28919056 0 -10095.65111015 0 -18905.83249400 0 -6191.23923086 0 -9998.76950481 0 75
0.00950000 0.00948925 79554.38291036 0 -1317.56765027 0 -46862.52534563 0 -14637.60717242 0 8951.97124564 0 112
0.01050000 0.01054430 67900.52954096 0 2887.36021033 0 -8899.89807597 0 -20969.01695031 0 19846.80964309 0 105
0.01150000 0.01145670 72289.64890928 0 1892.19147296 0 -13030.49273462 0 -5106.12088623 0 3312.49688056 0 144
0.01250000 0.01249090 72852.19441849 0 -1431.65170208 0 7201.80254960 0 -11657.40255243 0 8188.10942062 0 169
0.01350000 0.01339930 72605.19346245 0 2929.55112352 0 6083.89862680 0 10467.12856954 0 3137.72179905 0 180
0.01450000 0.01448870 71434.73944851 0 3411.09762143 0 25454.40790814 0 -7876.70188390 0 20623.30434143 0 267
0.01550000 0.01550050 67566.01904100 0 -1869.48779280 0 17968.62635188 0 8835.43603930 0 333.67976931 0 238
0.01650000 0.01653350 76327.73189419 0 -3293.78603130 0 21803.18587279 0 18686.55953033 0 23892.87828980 0 315
0.01750000 0.01747870 69793.02047623 0 712.84120994 0 9474.87681696 0 -6765.81868876 0 4225.05838306 0 297
0.01850000 0.01844180 79728.73652639 0 -152.95869711 0 20210.26816708 0 659.25076453 0 20926.09401812 0 388
0.01950000 0.01947590 76365.66378775 0 7674.67573149 0 19979.23853465 0 -15112.53222574 0 8302.22674602 0 399
0.02050000 0.02045430 65312.06599718 0 6916.27077537 0 34226.99013434 0 -1795.11022607 0 13036.37106900 0 462
0.02150000 0.02154770 58870.18789768 0 4797.06468327 0 43776.73253070 0 -3267.66626249 0 9.11873848 0 571
0.02250000 0.02255340 53418.75368566 0 4071.73367645 0 42263.78235499 0 4293.71289217 0 880.75416790 0 510
0.02350000 0.02348930 49950.86913586 0 1187.94483153 0 44773.72022437 0 6412.77479871 0 1870.44163574 0 555
0.02450000 0.02439640 51511.40054648 0 -1788.32241354 0 41116.84167857 0 9441.18176063 0 4437.47698701 0 592
0.02550000 0.02547300 54463.65535016 0 -3479.18647949 0 32777.70342911 0 9659.75597889 0 1435.69998896 0 837
0.02650000 0.02652900 56918.13723480 0 -1288.76381179 0 18076.54369818 0 2481.53331400 0 -8207.84065999 0 723
0.02750000 0.02749970 58099.79335766 0 -271.71325196 0 15765.24916614 0 1971.71535508 0 1868.73359141 0 826
0.02850000 0.02848090 58486.43248328 0 418.87679866 0 15978.53288346 0 942.50107955 0 -7540.16169490 0 831
0.02950000 0.02946900 58408.35045676 0 -29.64177840 0 12469.49999298 0 1238.43196004 0 -7383.82018272 0 996
0.03050000 0.03053250 55942.66646320 0 1850.91003792 0 15169.65189002 0 -3951.95984061 0 -16204.23874135 0 1041
0.03150000 0.03150510 54207.11596474 0 2102.44729351 0 13868.32175209 0 -6007.46918863 0 -14999.62384081 0 1036
0.03250000 0.03246190 53082.80133010 0 -86.60749687 0 21059.85385332 0 -1625.61455431 0 -16237.73415614 0 1059
0.03350000 0.03345080 53370.17424303 0 293.86791786 0 16556.38424446 0 1120.34398613 0 -22245.61371905 0 1302
0.03450000 0.03451200 55312.46465260 0 -1481.49554116 0 12827.85656638 0 2278.80841618 0 -18735.80444479 0 1339
0.03550000 0.03553350 54752.13738278 0 -275.48980452 0 9895.06681334 0 1158.42006526 0 -20628.73902794 0 1365
0.03650000 0.03647120 55529.18664097 0 961.74652449 0 13026.27807978 0 55.22428964 0 -14134.51047885 0 1308
0.03750000 0.03744890 53675.40398305 0 1853.42773962 0 12163.38295721 0 -1532.17122002 0 -17558.03024085 0 1579
0.03850000 0.03847530 51202.95435935 0 1898.54672881 0 11656.29343273 0 730.94758896 0 -13383.19279757 0 1662
0.03950000 0.03950240 47345.76879666 0 3091.57132854 0 17755.56445850 0 -4295.50966608 0 -15839.89292160 0 1683
0.04050000 0.04050350 44378.09722923 0 3345.80374499 0 17384.00936074 0 -3240.37082680 0 -10615.15168401 0 1822
0.04150000 0.04152450 42265.77877044 0 103.40156547 0 15743.28859619 0 7530.36816800 0 -9684.32298013 0 1887
0.04250000 0.04250150 39804.53125566 0 -465.57850165 0 17565.79407872 0 3902.99220608 0 -7138.53836221 0 1920
0.04350000 0.04349210 41337.11284996 0 787.73895381 0 10755.46641660 0 4758.68914183 0 -2904.85102792 0 2005
0.04450000 0.04448520 40354.65462429 0 507.60748337 0 10620.23145221 0 2886.62819134 0 3204.09152158 0 2151
0.04550000 0.04548030 36998.90207564 0 453.55009856 0 9311.64767147 0 1517.13155696 0 7247.81992574 0 2274
0.04650000 0.04648670 37189.22701527 0 963.84054248 0 7453.27325801 0 1074.88006072 0 3543.40450982 0 2311
0.04750000 0.04749250 37796.13731228 0 138.51463133 0 10299.26330373 0 105.61547929 0 5818.28664228 0 2568
0.04850000 0.04851840 35517.22907532 0 1463.48343732 0 10630.93445727 0 -3109.03996374 0 5194.61754668 0 2493
0.04950000 0.04949480 35848.41221620 0 515.83493327 0 10717.20178713 0 -1856.69964272 0 1842.31436028 0 2644
0.05050000 0.05050630 34115.41269304 0 451.44498938 0 14348.34875601 0 -986.38450939 0 -315.18963487 0 2829
0.05150000 0.05149060 35233.84899330 0 -71.38338721 0 15341.56544272 0 -569.63611142 0 -2703.13542902 0 2784
0.05250000 0.05249300 35976.73736489 0 -461.83522268 0 15470.66697520 0 327.18920085 0 333.12188210 0 3055
0.05350000 0.05348950 36466.96827000 0 44.29990429 0 11993.24399602 0 1035.95328679 0 -4387.75515110 0 3009
0.05450000 0.05448610 35984.39029078 0 -173.58277784 0 14167.67315772 0 1705.18280121 0 820.41583826 0 3336
0.05550000 0.05550870 36366.81476156 0 680.96954639 0 14810.40802087 0 -1163.34455670 0 -1707.31231103 0 3349
0.05650000 0.05647670 34945.36696067 0 1871.48420826 0 16008.92276310 0 -577.08939577 0 285.16909209 0 3324
0.05750000 0.05747970 33539.44683552 0 881.32869190 0 14887.27001572 0 163.92012706 0 150.26908185 0 3639
0.05850000 0.05849280 32236.00937016 0 197.51758085 0 16629.36432038 0 1137.01405515 0 1146.79649086 0 3846
0.05950000 0.05951020 32411.25028194 0 316.87549681 0 14815.62088344 0 3159.66018661 0 4514.89354171 0 3787
0.06050000 0.06049470 31569.76116948 0 -316.08913095 0 13438.09422247 0 2352.37632554 0 1104.92611326 0 3930
0.06150000 0.06148310 32353.24332190 0 -10.90789274 0 13065.65182895 0 1458.09311560 0 4828.38622345 0 4083
0.06250000 0.06249100 31669.58194202 0 365.20982399 0 12252.99982855 0 156.38144049 0 1616.57522879 0 4303
0.06350000 0.06350600 31545.36053620 0 914.20521789 0 12886.75082217 0 -3147.12713406 0 2809.92147324 0 4470
0.06450000 0.06451750 29520.44070936 0 987.54464859 0 12959.28725021 0 -645.87256277 0 -1019.93205280 0 4479
0.06550000 0.06550280 29980.05991089 0 -167.98283250 0 14704.81982592 0 1675.45839339 0 3250.48599842 0 4636
0.06650000 0.06648880 30157.40815010 0 -613.34208212 0 12003.00424934 0 2167.98517627 0 -1769.03482204 0 4653
0.06750000 0.06749660 31468.16580544 0 -625.19413518 0 11543.49595977 0 3496.38892596 0 2468.12405689 0 5220
0.06850000 0.06852730 31046.81123337 0 -412.89864351 0 8515.75446966 0 1432.01771158 0 4180.98196639 0 5029
0.06950000 0.06949320 31564.10465904 0 171.03402078 0 8866.02556049 0 678.60157584 0 3751.08717268 0 5040
0.07050000 0.07048030 31306.56706590 0 429.86706572 0 8279.44542748 0 -553.62596863 0 4065.12332307 0 5475
0.07150000 0.07148790 30570.99888429 0 756.84664295 0 9567.16666676 0 -1031.87283544 0 2376.82132361 0 5509
0.07250000 0.07249820 29608.17207722 0 807.73416367 0 9828.84127636 0 -1315.00558377 0 3844.45286859 0 5916
0.07350000 0.07351270 28980.63215389 0 329.02590307 0 10262.60689781 0 743.17674271 0 2255.07325471 0 5721
0.07450000 0.07449140 29095.42604230 0 512.24471281 0 11671.71019649 0 -307.12189821 0 1147.43978028 0 6028
0.07550000 0.07549160 28271.79375693 0 205.44002283 0 10899.36360581 0 814.82587500 0 2636.44406177 0 6183
0.07650000 0.07648840 27836.46427671 0 265.56540149 0 10319.78201808 0 756.76900457 0 1752.34257064 0 6330
0.07750000 0.07749960 27577.37391600 0 329.39745817 0 10979.29786221 0 324.69700890 0 786.41466490 0 6583
0.07850000 0.07848650 27463.35641137 0 564.69054670 0 10486.91526489 0 317.30361701 0 436.98095944 0 6549
0.07950000 0.07947320 25774.05620419 0 741.64726665 0 10970.38053987 0 -1230.79012534 0 1332.69604290 0 6828
0.08050000 0.08048110 25150.73093570 0 829.71358866 0 10353.54362159 0 640.91923421 0 1050.00472421 0 7147
0.08150000 0.08149960 23948.77792242 0 390.54544518 0 9851.06803505 0 1801.49875551 0 976.21388179 0 7386
0.08250000 0.08250610 23322.23620681 0 560.39936260 0 9452.39496074 0 1357.06340260 0 1939.46215435 0 7227
0.08350000 0.08350160 23043.84716341 0 67.23228492 0 7851.26976930 0 1801.95349459 0 3332.41667028 0 7798
0.08450000 0.08449610 22462.77935530 0 78.91009528 0 6995.48410397 0 1829.61493978 0 4571.04827186 0 7371
0.08550000 0.08548940 22003.27106573 0 419.63432742 0 5949.38459021 0 99.28473499 0 3117.65782377 0 8256
0.08650000 0.08650700 21341.79207974 0 286.76067886 0 6709.67504981 0 -980.63705113 0 4191.80697461 0 8037
0.08750000 0.08749060 21180.96972399 0 683.67025285 0 7094.04048005 0 -762.91130944 0 2063.79447214 0 8155
0.08850000 0.08849210 20610.43855297 0 337.03818374 0 7122.77777135 0 -479.09867073 0 1771.86307727 0 8718
0.08950000 0.08949900 19970.36557709 0 164.40703060 0 7104.94312665 0 -762.59521033 0 699.36429653 0 8571
0.09050000 0.09049190 20248.75462049 0 64.31973661 0 8213.68572078 0 516.05786633 0 408.41336346 0 8932
0.09150000 0.09150830 19860.67363927 0 136.54372563 0 7131.73945848 0 408.12277410 0 -534.28957587 0 9285
0.09250000 0.09250820 19745.21427904 0 440.96048091 0 7328.64147790 0 232.45041476 0 -136.81767819 0 9204
0.09350000 0.09350330 19167.69565395 0 21.04266250 0 6296.26177476 0 1349.70993902 0 1047.38941997 0 9349
0.09450000 0.09448040 18995.56027731 0 -252.85488979 0 5571.92897567 0 1518.30722383 0 1094.93183569 0 9564
0.09550000 0.09549270 19337.05823135 0 -141.50259979 0 3968.43026807 0 1204.96981885 0 2093.87379826 0 10155
0.09650000 0.09649430 19470.15259473 0 163.62510122 0 4017.38681140 0 866.52305309 0 1660.35218315 0 9913
0.09750000 0.09749140 18833.85062581 0 387.25357793 0 3776.77438481 0 -600.86226731 0 2494.49892323 0 10476
0.09850000 0.09850240 18213.85271640 0 365.75107440 0 3793.81046332 0 -327.85467267 0 2408.71960603 0 10575
0.09950000 0.09950330 18145.08729532 0 211.66107520 0 3601.41146986 0 107.37975599 0 1229.84737360 0 10882
0.10050000 0.10051200 17876.68032918 0 244.81377200 0 4435.48057156 0 -121.60277422 0 1415.83565523 0 10875
0.10150000 0.10150300 17509.45079822 0 247.49451430 0 3843.98703831 0 -216.09866310 0 320.47237198 0 11118
0.10250000 0.10250800 17416.61747976 0 274.55592574 0 5167.32211100 0 -177.99707422 0 1922.74772055 0 11575
0.10350000 0.10349800 16612.94934890 0 497.31374348 0 4534.25877158 0 -753.48046468 0 -86.95254401 0 11364
0.10450000 0.10450100 16209.56251589 0 545.37966370 0 5402.41112151 0 -236.81701900 0 1142.22691771 0 12093
0.10550000 0.10551000 15754.49070510 0 190.93606458 0 5601.32064758 0 355.04252375 0 1010.91380056 0 12067
0.10650000 0.10649700 15574.25875469 0 8.52159953 0 5906.76112034 0 704.53501254 0 1916.09300238 0 12054
0.10750000 0.10749900 15676.18685465 0 180.44601051 0 5483.52104479 0 261.01468338 0 1029.03348902 0 12807
0.10850000 0.10850100 15185.84503757 0 92.52642504 0 5499.45909481 0 41.93781208 0 2347.65147564 0 12736
0.10950000 0.10950300 15268.03080695 0 -34.42097517 0 5327.75627485 0 67.03197791 0 1942.84496942 0 12933
0.11050000 0.11050200 15518.24821011 0 20.46592026 0 5572.29498517 0 637.51423675 0 2107.01686665 0 13428
0.11150000 0.11150900 15194.38525922 0 -81.93732657 0 5077.26159178 0 336.39822168 0 2519.24338362 0 13453
0.11250000 0.11250000 15553.51821640 0 34.16609946 0 4685.86434267 0 203.80850776 0 1972.59155964 0 13668
0.11350000 0.11349100 15047.87054753 0 238.41636960 0 5126.91688051 0 -273.60430104 0 1764.11033060 0 13791
0.11450000 0.11448600 15158.44978111 0 509.98765424 0 5329.29795123 0 -799.38914709 0 1151.94280624 0 14205
0.11550000 0.11549300 14308.42044699 0 423.90665648 0 5899.55184232 0 -627.88596868 0 1596.20070000 0 14776
0.11650000 0.11649800 14023.26577345 0 -10.95332228 0 5517.00536838 0 606.44890321 0 718.33246155 0 14553
0.11750000 0.11747300 14218.35992777 0 -192.01745629 0 5022.68181159 0 884.07598138 0 316.06694855 0 14568
0.11850000 0.11849100 14177.54432300 0 160.54174847 0 4936.43666412 0 130.01433799 0 -207.64717103 0 16015
0.11950000 0.11950300 13936.08896544 0 230.79782642 0 4097.83126287 0 -212.00822967 0 -73.14899485 0 15270
0.12050000 0.12050700 13497.21030220 0 152.21336868 0 4227.09916330 0 -150.73934860 0 -118.69355326 0 15999
0.12150000 0.12150000 13616.66249333 0 0.96760379 0 4625.58368726 0 122.61872786 0 -824.12695276 0 15670
0.12250000 0.12250700 13710.82675542 0 -54.81546812 0 4003.23444410 0 539.02218961 0 -796.87033626 0 16887
0.12350000 0.12352200 13231.57613529 0 191.16565236 0 3540.37661305 0 76.49299073 0 -904.85866623 0 16407
0.12450000 0.12449800 13232.57434302 0 16.07558086 0 3748.55837977 0 282.88652376 0 155.92115582 0 16306
0.12550000 0.12549900 13459.83296849 0 15.35443123 0 3764.52970338 0 666.89814482 0 -235.88424934 0 17523
0.12650000 0.12650100 13313.76190468 0 109.62982712 0 3114.62992700 0 234.73631045 0 575.42238887 0 17154
0.12750000 0.12750600 13059.99531850 0 151.82295855 0 3083.53021076 0 154.50702821 0 544.42471164 0 18007
0.12850000 0.12850300 12902.94396971 0 242.29717941 0 3198.31300797 0 -284.34501616 0 790.17568978 0 17496
0.12950000 0.12949900 12697.20226633 0 200.23825146 0 3623.43858700 0 -251.49954552 0 381.51166527 0 18405
0.13050000 0.13049000 12266.42017686 0 279.51923637 0 4291.60556475 0 -473.76047764 0 138.08872936 0 18100
0.13150000 0.13148800 12085.41184266 0 296.66511773 0 4104.21979231 0 -759.61389659 0 -257.46439124 0 19059
0.13250000 0.13249300 11693.33803054 0 276.88285885 0 5267.69744338 0 -295.43843135 0 -336.87292491 0 18957
0.13350000 0.13349100 11607.27034222 0 133.98055001 0 5105.22249928 0 -41.56448239 0 -627.27595284 0 19468
0.13450000 0.13450700 11394.20844885 0 90.25616793 0 5479.20656918 0 371.93441670 0 -404.03566803 0 19953
0.13550000 0.13551000 11538.39400917 0 -41.27577853 0 4783.57778778 0 648.41133775 0 153.98796019 0 19956
0.13650000 0.13649900 11375.24250207 0 -82.77704110 0 4509.21484888 0 862.19637716 0 604.10422418 0 19723
0.13750000 0.13749600 11600.17197618 0 -77.87384475 0 4129.82936606 0 909.68000954 0 1384.65830061 0 20946
0.13850000 0.13851100 11550.70523779 0 103.15134807 0 3625.95628871 0 460.65844669 0 1862.28960599 0 20955
0.13950000 0.13949800 11315.46095052 0 177.14859766 0 3387.09627123 0 258.52138231 0 1984.22622523 0 20506
0.14050000 0.14048300 11078.68607806 0 175.45829924 0 3107.20991624 0 267.26124550 0 2741.01186660 0 21447
0.14150000 0.14148400 10980.70644422 0 -7.55224001 0 2596.51575276 0 99.54493447 0 2127.81286093 0 21771
0.14250000 0.14249400 10771.26028105 0 -33.71280224 0 2489.06423673 0 322.09390497 0 1987.70886108 0 22470
0.14350000 0.14350900 10957.58129859 0 86.05304794 0 2279.76225912 0 -224.33942243 0 1148.04979611 0 22519
0.14450000 0.14449900 10737.39885677 0 187.73958162 0 2130.61893375 0 -366.35443552 0 514.12356158 0 22218
0.14550000 0.14550500 10546.34189814 0 21.02757847 0 2301.65628189 0 -176.18588176 0 347.59589412 0 23559
0.14650000 0.14650700 10429.21885837 0 189.54411937 0 2350.32445410 0 -74.17504148 0 -237.02886086 0 23044
0.14750000 0.14750500 10322.31081098 0 95.29523144 0 2297.51926543 0 21.81616257 0 -257.02407072 0 23649
0.14850000 0.14849900 10247.16795166 0 53.61406966 0 2466.00563827 0 -7.47663132 0 -977.83430567 0 23640
0.14950000 0.14949500 10093.51050914 0 65.70990723 0 2157.06034728 0 249.79371943 0 -316.40966654 0 24457
0.15050000 0.15050000 10034.42770300 0 185.64334540 0 2348.83823371 0 -295.48723262 0 -324.97096146 0 24591
0.15150000 0.15149900 9836.43874627 0 223.69058741 0 2547.20429113 0 -159.30618913 0 -281.18846151 0 25020
0.15250000 0.15250500 9605.20947230 0 163.67722984 0 2645.92703516 0 172.38271033 0 -319.36990700 0 25297
0.15350000 0.15350100 9498.50106646 0 77.91521491 0 2779.09903692 0 -66.50359329 0 -0.92472300 0 25452
0.15450000 0.15450400 9333.33096150 0 77.90024180 0 2723.94251450 0 218.10173327 0 -508.28737374 0 26061
0.15550000 0.15549900 9453.31553009 0 -5.80387918 0 2577.02851972 0 -5.84774486 0 215.85243853 0 26128
0.15650000 0.15649500 9309.76216799 0 -25.28726357 0 2352.49832870 0 278.48442769 0 -357.94952647 0 26331
0.15750000 0.15749700 9360.87040353 0 146.82082872 0 2743.80684823 0 -200.37800055 0 -98.37104218 0 27345
0.15850000 0.15849900 9235.21823330 0 15.90865834 0 2145.52550245 0 84.54320330 0 -105.16806041 0 26980
0.15950000 0.15949700 9191.45237014 0 80.21231271 0 2889.12371065 0 82.15715410 0 -182.40138853 0 27777
0.16050000 0.16050000 9205.12781598 0 57.00276307 0 2255.90509448 0 13.64439049 0 165.05919298 0 28224
0.16150000 0.16150500 9229.36208131 0 -10.33422276 0 2673.46647719 0 -95.97811644 0 -125.15417548 0 28075
0.16250000 0.16249700 9328.78357076 0 11.09862805 0 2724.60798632 0 103.89412553 0 99.11248870 0 28590
0.16350000 0.16349900 9325.23438773 0 -0.17947886 0 2465.63962877 0 -62.95673941 0 31.00732657 0 29163
0.16450000 0.16449100 9250.69045304 0 150.31677400 0 3123.43633738 0 -74.45287596 0 216.95823086 0 28996
0.16550000 0.16550500 9150.55912700 0 160.62271420 0 3116.61525125 0 -305.03231671 0 198.08212278 0 30777
0.16650000 0.16650700 9012.14098908 0 123.10119493 0 3433.31328891 0 164.12420508 0 225.30990217 0 29211
0.16750000 0.16749900 8731.45606791 0 224.44257056 0 3579.17361998 0 -8.83805356 0 661.35476459 0 30922
0.16850000 0.16850800 8671.15323011 0 75.64074316 0 3254.61192368 0 264.28769560 0 926.45988140 0 30867
0.16950000 0.16949900 8483.07980345 0 20.24930918 0 3320.83746066 0 416.90367473 0 955.82604356 0 30852
0.17050000 0.17049200 8550.56973688 0 39.82693547 0 3110.04926266 0 352.89970450 0 985.03581984 0 31257
0.17150000 0.17149500 8330.05455916 0 103.68849473 0 2855.75029903 0 198.33389295 0 1237.63339386 0 32608
0.17250000 0.17250900 8185.84681644 0 162.29304846 0 2598.33470906 0 -31.97669719 0 1315.77087636 0 32361
0.17350000 0.17350400 8043.94604268 0 160.40199938 0 2762.28478235 0 -2.35350763 0 1044.48130813 0 32508
0.17450000 0.17449800 7826.72495045 0 61.84895066 0 2602.87100861 0 -35.42417393 0 1143.28058142 0 32791
0.17550000 0.17549800 7629.23509759 0 -13.34537182 0 2545.77352672 0 174.61980475 0 700.79173357 0 33633
0.17650000 0.17650100 7909.40982370 0 -18.22738398 0 2320.94387339 0 103.29264991 0 591.77857701 0 33984
0.17750000 0.17750300 7876.87934305 0 -23.58554122 0 2230.41752389 0 -23.20034395 0 168.18912876 0 34069
0.17850000 0.17849800 7985.10724287 0 22.18793949 0 2134.12375199 0 11.84196007 0 172.60009779 0 34536
