### header ###
fiducial parameters:
Omega_m = 0.31
Omega_nu = 0
Omega_de = 0.69
Omega_k = 0
H_0 = 100
w_de = -1
zeff = 0
beta = 0
fgrowth = 0
b_1 = 2
gamma = 0.55
Lx = 3500 Ly = 3500 Lz = 3500
nx = 700 ny = 700 nz = 700
xoffset = 1379.75464 yoffset = 22.6059522 zoffset = 368.141391
bins = 400 dk = 0.001
kx_ny = 0.628318531 ky_ny = 0.628318531 kz_ny = 0.628318531
############################
A(data) = 3.32025567 (not used)
A(ran) = 3.31151347 (used)
Ngal = 186072
weighted Ngal = 0
Nran = 9399747
weighted Nran = 0
SN(data) = 6706.23477
SN(ran) = 131.716716
SN(data+ran) = 6837.95148
############################
13 columns: k_central k_mean P_0(k) sigma^{lin}_{P_0(k)} P^img_1(k) sigma^{lin}_{P_1(k)} P_2(k) sigma^{lin}_{P_2(k)} P^img_3(k) sigma^{lin}_{P_3(k)} P_4(k) sigma^{lin}_{P_4(k)} N_modes
### header ###
0.00050000 0 0 0 0 0 0 0 0 0 0 0 0
0.00150000 0.00179520 35519.44731471 0 -25945.08246113 0 -28060.39554309 0 47559.16342595 0 149829.87045384 0 3
0.00250000 0.00253879 39368.75812756 0 -14821.61012979 0 -10011.14728060 0 -26366.10429728 0 -79676.38607679 0 6
0.00350000 0.00331552 75469.27325039 0 -24030.18730802 0 -55493.02933892 0 39579.60178155 0 31417.92268326 0 7
0.00450000 0.00420575 81685.11275609 0 -17721.84721978 0 -37876.65940212 0 -18006.66915741 0 -11926.03134252 0 24
0.00550000 0.00557378 84534.21942815 0 18190.78302675 0 -16094.65771550 0 -54980.50512794 0 1130.54788733 0 45
0.00650000 0.00659388 59495.17684572 0 3661.05992705 0 -33051.65599373 0 66.31526476 0 -6344.17574558 0 40
0.00750000 0.00754703 58946.60624466 0 -1279.96849261 0 7280.70532469 0 100.08319025 0 23584.32119070 0 57
0.00850000 0.00846663 63450.96314927 0 -15601.43218722 0 -20664.78541802 0 5500.41293774 0 -42755.67693964 0 75
0.00950000 0.00948925 83573.83268440 0 -1058.14011717 0 443.79649997 0 -13769.38827531 0 -41209.12043718 0 112
0.01050000 0.01054430 69658.59516922 0 9754.19752090 0 7304.96177242 0 -54492.49246222 0 -34173.30874111 0 105
0.01150000 0.01145670 68331.64436634 0 13957.93862343 0 34905.10591575 0 -31568.31931388 0 -24579.75611680 0 144
0.01250000 0.01249090 58175.98988070 0 4380.88970018 0 47207.90521860 0 -1106.56428305 0 -39921.98703134 0 169
0.01350000 0.01339930 58893.47941128 0 -4402.32898389 0 47985.95268452 0 15222.22416356 0 -31554.45531769 0 180
0.01450000 0.01448870 60024.78149999 0 -177.82072419 0 34714.44824021 0 18917.36733883 0 -29436.81308437 0 267
0.01550000 0.01550050 72064.27578729 0 -4750.62584165 0 43754.43922483 0 8312.84102150 0 -5989.85636787 0 238
0.01650000 0.01653350 63167.80489118 0 -923.04490186 0 19667.35407647 0 11848.17113994 0 -15707.13129413 0 315
0.01750000 0.01747870 73482.72896500 0 2879.79601402 0 10902.15858744 0 -21.07249782 0 9521.06056105 0 297
0.01850000 0.01844180 64679.75685916 0 -39.81617701 0 22632.80740451 0 -2277.21128382 0 -2785.13264806 0 388
0.01950000 0.01947590 66289.31136029 0 2427.58573204 0 17715.52523752 0 9416.67021537 0 5463.63452866 0 399
0.02050000 0.02045430 62670.69744396 0 -872.01541382 0 21611.30816558 0 4340.72847604 0 6475.78388857 0 462
0.02150000 0.02154770 64793.55253985 0 680.90743569 0 19971.03104891 0 3922.42398313 0 13937.19808514 0 571
0.02250000 0.02255340 68245.13303014 0 -937.04753801 0 5766.40202296 0 12948.97243705 0 17738.15127929 0 510
0.02350000 0.02348930 65325.70816943 0 -2018.64220936 0 16803.71793640 0 7692.73220012 0 21643.91628461 0 555
0.02450000 0.02439640 67025.65592568 0 -717.92985110 0 3033.32036217 0 5286.98503487 0 21443.05470788 0 592
0.02550000 0.02547300 67280.97527943 0 2625.16431448 0 12844.60427377 0 -5618.33454370 0 19719.92635000 0 837
0.02650000 0.02652900 63787.80280059 0 3806.77607255 0 15403.45432169 0 -7787.30683650 0 15406.22712093 0 723
0.02750000 0.02749970 61377.57479177 0 2771.88975891 0 24060.02262781 0 -2233.61178861 0 7471.24099706 0 826
0.02850000 0.02848090 58770.03438924 0 2286.51679806 0 24054.80976524 0 -4575.26292670 0 7614.38398488 0 831
0.02950000 0.02946900 56696.20238386 0 809.79934454 0 28271.12828511 0 339.35735302 0 3064.46444320 0 996
0.03050000 0.03053250 56484.91508200 0 916.56431548 0 30086.53540160 0 978.18922397 0 8883.91566116 0 1041
0.03150000 0.03150510 57200.40819713 0 -308.32640220 0 24944.10193655 0 7391.07382552 0 2312.55892849 0 1036
0.03250000 0.03246190 58049.43932352 0 -866.24799141 0 28656.43646709 0 9271.44208253 0 22038.20833612 0 1059
0.03350000 0.03345080 57787.02160372 0 -927.37601427 0 17875.12756160 0 9422.11599308 0 11852.49670675 0 1302
0.03450000 0.03451200 58659.89880355 0 -196.18330986 0 19090.16818728 0 6994.97390891 0 26367.21341698 0 1339
0.03550000 0.03553350 57624.75739237 0 727.30413076 0 14466.91365138 0 2051.63852029 0 16549.72952629 0 1365
0.03650000 0.03647120 57198.63360562 0 3135.38155649 0 16961.54566898 0 -3623.33876623 0 26751.52339123 0 1308
0.03750000 0.03744890 52748.62356605 0 3469.35967899 0 20635.28283414 0 -3414.52480128 0 18766.41614836 0 1579
0.03850000 0.03847530 48336.21268414 0 2071.89104591 0 22752.81415549 0 -2242.10764548 0 13228.91424802 0 1662
0.03950000 0.03950240 45356.67353597 0 2453.61677128 0 21645.69087612 0 1406.58559697 0 11527.96828404 0 1683
0.04050000 0.04050350 44436.88057305 0 -91.53043555 0 20012.06847762 0 6014.45664270 0 8427.11362365 0 1822
0.04150000 0.04152450 44464.94130133 0 -595.60614908 0 17961.97163371 0 3626.17811265 0 11734.15363531 0 1887
0.04250000 0.04250150 43933.45114357 0 176.31897613 0 16277.99520106 0 2287.86992409 0 4801.86717155 0 1920
0.04350000 0.04349210 42634.78289291 0 1537.18444104 0 12808.89061959 0 -4556.76281019 0 3292.15562535 0 2005
0.04450000 0.04448520 42581.87788346 0 1203.52796325 0 14169.33683726 0 -958.32710847 0 -1603.18815408 0 2151
0.04550000 0.04548030 41157.65728334 0 4.69951761 0 19156.82628094 0 -3624.82498662 0 1211.80199617 0 2274
0.04650000 0.04648670 39048.88800758 0 1949.96551786 0 17880.34042417 0 -1069.29786130 0 -2969.34633818 0 2311
0.04750000 0.04749250 41100.75944300 0 22.61971979 0 19190.09987178 0 2717.12142838 0 -3178.98105169 0 2568
0.04850000 0.04851840 41034.76682116 0 -2012.79714857 0 17347.40841081 0 4780.54989102 0 -1695.81073979 0 2493
0.04950000 0.04949480 39835.80843105 0 447.07838514 0 18086.41486347 0 432.87943481 0 -2166.64314144 0 2644
0.05050000 0.05050630 42111.27839695 0 1625.90292543 0 16216.54996997 0 939.04617170 0 4067.98485188 0 2829
0.05150000 0.05149060 37137.65294946 0 946.44732742 0 17466.30604209 0 2022.40212513 0 476.53327688 0 2784
0.05250000 0.05249300 37777.94774928 0 983.48970699 0 15927.40246553 0 1801.04401644 0 6532.80373208 0 3055
0.05350000 0.05348950 36725.17133495 0 -846.64430080 0 15728.75912818 0 5127.07215727 0 5497.52922654 0 3009
0.05450000 0.05448610 36903.96142976 0 -471.52338322 0 9488.10861492 0 4556.81826618 0 9925.39014580 0 3336
0.05550000 0.05550870 36965.96122070 0 493.37969593 0 7780.68539192 0 1371.00503716 0 8265.01578026 0 3349
0.05650000 0.05647670 35361.50867017 0 1620.83424842 0 5724.95421996 0 -1500.87186223 0 4209.48634255 0 3324
0.05750000 0.05747970 33981.32012193 0 1331.81983835 0 7913.94612325 0 -2911.73866123 0 2781.01781399 0 3639
0.05850000 0.05849280 31282.38825655 0 1482.66011684 0 9197.34179572 0 -4010.04443902 0 -1921.41677692 0 3846
0.05950000 0.05951020 30532.84516679 0 742.98819236 0 11231.38967765 0 -826.38179310 0 -1205.21382518 0 3787
0.06050000 0.06049470 30222.06982830 0 -354.18184687 0 10317.46395792 0 2211.65121866 0 -4768.50485113 0 3930
0.06150000 0.06148310 30465.18886541 0 -415.02815332 0 8855.94366246 0 2211.48485070 0 -3032.02269213 0 4083
0.06250000 0.06249100 30660.94849154 0 -126.57828517 0 7349.00491550 0 2124.74059937 0 -3065.32955657 0 4303
0.06350000 0.06350600 30859.48091692 0 284.97610527 0 8899.15496577 0 -426.27684527 0 948.43597903 0 4470
0.06450000 0.06451750 30540.94174056 0 276.91724157 0 6647.00978705 0 1322.63632727 0 920.08798875 0 4479
0.06550000 0.06550280 29879.35184260 0 576.06567829 0 10301.65900227 0 -15.01504060 0 5466.99516134 0 4636
0.06650000 0.06648880 29131.25060845 0 1422.05781672 0 8434.77764074 0 -943.57470741 0 3131.10035447 0 4653
0.06750000 0.06749660 28544.41537792 0 223.57080248 0 12675.46352031 0 368.74237022 0 6400.33047573 0 5220
0.06850000 0.06852730 27727.21598677 0 174.25934085 0 11403.74687822 0 883.60904199 0 4319.98793774 0 5029
0.06950000 0.06949320 28067.16117323 0 492.65100429 0 12995.99911211 0 -727.63797579 0 7684.16979608 0 5040
0.07050000 0.07048030 27274.47332734 0 298.10586422 0 11752.78684618 0 928.74023149 0 7319.29159887 0 5475
0.07150000 0.07148790 27112.43093993 0 -200.97803430 0 11542.60866402 0 594.19645794 0 4742.12998479 0 5509
0.07250000 0.07249820 27519.81060384 0 92.65818846 0 11935.23703598 0 172.86628652 0 4486.63317189 0 5916
0.07350000 0.07351270 27824.92943188 0 -73.43048943 0 11482.05072868 0 -443.18981149 0 1626.34657331 0 5721
0.07450000 0.07449140 27073.72266258 0 467.48064193 0 10407.24719721 0 -119.80600032 0 748.43951566 0 6028
0.07550000 0.07549160 27068.62071198 0 148.22830161 0 9806.43705853 0 -425.59806402 0 -1175.61142053 0 6183
0.07650000 0.07648840 26223.69332847 0 497.67975298 0 9276.92113383 0 -299.11405402 0 -3556.22593349 0 6330
0.07750000 0.07749960 25780.71092236 0 478.34446934 0 9297.32893621 0 815.59782231 0 -2701.53829666 0 6583
0.07850000 0.07848650 24811.11848514 0 211.38712264 0 8984.62372945 0 293.43092470 0 -4343.03544500 0 6549
0.07950000 0.07947320 24769.74832053 0 185.07214876 0 7291.59688009 0 609.12520904 0 -3381.02938650 0 6828
0.08050000 0.08048110 24528.40387493 0 153.35132548 0 6895.75206101 0 1198.73656616 0 -4672.88764224 0 7147
0.08150000 0.08149960 23760.78213415 0 157.09460445 0 6574.70627415 0 -61.53340611 0 -4555.42077536 0 7386
0.08250000 0.08250610 23348.30051964 0 705.20492084 0 6554.17646860 0 51.32872853 0 -4650.33923884 0 7227
0.08350000 0.08350160 22873.15364238 0 575.80947164 0 6305.03491155 0 -697.25364175 0 -4431.31028151 0 7798
0.08450000 0.08449610 21912.87781060 0 182.82285402 0 6245.19790401 0 625.83520636 0 -3584.25338818 0 7371
0.08550000 0.08548940 21693.38302300 0 357.37611159 0 7352.35445698 0 466.30719329 0 -4747.59794488 0 8256
0.08650000 0.08650700 21612.63910921 0 449.09698299 0 5727.95993433 0 -38.74121820 0 -3317.73192552 0 8037
0.08750000 0.08749060 20475.79142202 0 654.18763312 0 7828.27771802 0 -505.14523765 0 -3200.85289208 0 8155
0.08850000 0.08849210 19715.48987122 0 552.77305558 0 7335.41819924 0 546.50209283 0 -1652.00051185 0 8718
0.08950000 0.08949900 19589.16113798 0 -220.38762896 0 7466.10577288 0 1403.49115303 0 -541.78722501 0 8571
0.09050000 0.09049190 19685.32181552 0 -286.41574263 0 6017.50672186 0 1536.25278050 0 932.44469127 0 8932
0.09150000 0.09150830 19770.61312005 0 158.15935936 0 5595.30921883 0 742.71978540 0 276.57008710 0 9285
0.09250000 0.09250820 19756.41638796 0 210.00848686 0 5366.88601768 0 -194.36879004 0 805.27413619 0 9204
0.09350000 0.09350330 19019.62817469 0 321.34857654 0 5043.64417383 0 -437.26711232 0 1238.33213927 0 9349
0.09450000 0.09448040 18925.24208866 0 435.45813810 0 6078.68576423 0 -685.79199882 0 41.49482967 0 9564
0.09550000 0.09549270 18566.44186739 0 104.59908200 0 5345.62419313 0 -274.35406595 0 -1074.49852355 0 10155
0.09650000 0.09649430 18423.91998660 0 197.80373373 0 5848.27723883 0 549.60430061 0 -842.95204134 0 9913
0.09750000 0.09749140 18079.64923333 0 54.75657386 0 5528.03001815 0 -235.81770215 0 -1487.67333786 0 10476
0.09850000 0.09850240 17787.50710571 0 470.54735789 0 5698.87881594 0 102.16223512 0 -1926.91801060 0 10575
0.09950000 0.09950330 17095.41641614 0 427.61555274 0 5403.08768452 0 222.02136227 0 -1346.95932218 0 10882
0.10050000 0.10051200 16668.40533364 0 389.24666602 0 5910.82049842 0 -419.52008809 0 -1526.96944865 0 10875
0.10150000 0.10150300 16376.37411799 0 314.86022633 0 5672.84777670 0 97.01381241 0 -1650.54756505 0 11118
0.10250000 0.10250800 16053.50937483 0 81.61634734 0 5919.93746231 0 373.83322962 0 -775.03176947 0 11575
0.10350000 0.10349800 16153.66288327 0 -114.65746669 0 5277.06950480 0 498.12450998 0 -1096.00213619 0 11364
0.10450000 0.10450100 16006.26087583 0 -45.92997751 0 4281.90076742 0 973.21593126 0 -1300.08792388 0 12093
0.10550000 0.10551000 16139.90979905 0 -28.71333431 0 4291.36155842 0 580.98906062 0 -141.73551492 0 12067
0.10650000 0.10649700 15803.18105971 0 83.51715667 0 3931.92913892 0 464.51596499 0 389.67145886 0 12054
0.10750000 0.10749900 16053.62028680 0 91.73861732 0 3958.17091090 0 487.44812380 0 236.89909386 0 12807
0.10850000 0.10850100 15463.12496127 0 220.63052617 0 2971.43148320 0 -306.35993298 0 209.58591225 0 12736
0.10950000 0.10950300 15381.05010386 0 168.45753573 0 4108.32353518 0 -14.39326810 0 468.43004839 0 12933
0.11050000 0.11050200 15230.98620915 0 189.30898599 0 3857.01919473 0 -260.77844089 0 12.99699732 0 13428
0.11150000 0.11150900 15188.06327696 0 88.60679604 0 4238.10163067 0 -452.65836633 0 -610.71457756 0 13453
0.11250000 0.11250000 15066.94740628 0 195.16513798 0 4600.02956949 0 -361.94124825 0 -488.55058877 0 13668
0.11350000 0.11349100 14939.95320123 0 -3.62795270 0 4523.45594576 0 253.66676540 0 -68.52097110 0 13791
0.11450000 0.11448600 15182.40676651 0 -128.58246446 0 4554.92167150 0 336.77975885 0 -598.31351025 0 14205
0.11550000 0.11549300 15043.10133284 0 164.58116239 0 4227.95318547 0 183.88095420 0 -567.19937545 0 14776
0.11650000 0.11649800 15019.36617137 0 312.14288307 0 4656.80540667 0 48.76000732 0 428.03590910 0 14553
0.11750000 0.11747300 14576.82741314 0 114.05854206 0 4903.20743807 0 -303.15457707 0 459.90424530 0 14568
0.11850000 0.11849100 14848.00717852 0 170.54711723 0 4895.97597766 0 216.97819502 0 996.69155872 0 16015
0.11950000 0.11950300 14409.68307513 0 85.34664960 0 5248.40985188 0 -46.41821200 0 -80.06601983 0 15270
0.12050000 0.12050700 14224.57099806 0 90.01404710 0 4933.71932087 0 36.49813453 0 879.67388531 0 15999
0.12150000 0.12150000 14343.69045329 0 209.48498236 0 5388.30311899 0 280.32223903 0 800.40842809 0 15670
0.12250000 0.12250700 13972.46809143 0 5.17579579 0 4574.50872531 0 372.52003190 0 695.97371762 0 16887
0.12350000 0.12352200 13956.49676783 0 105.78040539 0 4781.15990685 0 369.78161537 0 1007.22043198 0 16407
0.12450000 0.12449800 13806.65469706 0 232.72436733 0 4450.67551138 0 -220.38430160 0 217.42627937 0 16306
0.12550000 0.12549900 13407.14978298 0 351.97469867 0 5246.36907165 0 -689.28461674 0 361.65509537 0 17523
0.12650000 0.12650100 13093.37982132 0 260.52001600 0 4894.77812839 0 -252.98576591 0 -62.26087772 0 17154
0.12750000 0.12750600 12849.81713633 0 106.53394131 0 5053.17151200 0 187.57432279 0 -158.39005626 0 18007
0.12850000 0.12850300 12871.55588235 0 40.43783860 0 4820.57802080 0 645.27474725 0 -601.55879448 0 17496
0.12950000 0.12949900 12630.21143676 0 178.27213591 0 4663.43794244 0 369.38898700 0 104.93270521 0 18405
0.13050000 0.13049000 12479.59298220 0 221.88715879 0 4136.21789551 0 419.66538277 0 -359.19284965 0 18100
0.13150000 0.13148800 11941.33719430 0 299.43791697 0 4554.35602045 0 121.58946478 0 903.92811480 0 19059
0.13250000 0.13249300 11600.39380012 0 268.35483752 0 4512.28711043 0 -138.51019485 0 578.23067994 0 18957
0.13350000 0.13349100 11430.03301499 0 -10.68268598 0 4472.39207501 0 627.29480788 0 1403.93480090 0 19468
0.13450000 0.13450700 11479.49975338 0 -82.74720578 0 3856.53118206 0 543.08489505 0 667.75993082 0 19953
0.13550000 0.13551000 11499.68573183 0 61.51288739 0 3330.84172031 0 -16.37071761 0 1254.86911392 0 19956
0.13650000 0.13649900 11510.99875271 0 37.78260605 0 3477.09024327 0 445.37699553 0 1397.40208590 0 19723
0.13750000 0.13749600 11309.58261613 0 14.26172651 0 2945.76645346 0 226.14063282 0 1255.75640967 0 20946
0.13850000 0.13851100 11147.20749281 0 229.13081951 0 2715.22483370 0 196.59701151 0 1527.53509969 0 20955
0.13950000 0.13949800 10980.12970198 0 57.62143003 0 2747.05656894 0 388.41704449 0 1498.46507249 0 20506
0.14050000 0.14048300 10853.87860712 0 -35.94967484 0 2591.61344371 0 489.30811753 0 1910.99105178 0 21447
0.14150000 0.14148400 10871.72434301 0 30.63399688 0 1765.62982458 0 167.45378240 0 1341.56900046 0 21771
0.14250000 0.14249400 10678.70424252 0 106.87455197 0 2007.75065396 0 -155.25346576 0 1424.54224483 0 22470
0.14350000 0.14350900 10591.97108239 0 200.47449396 0 1881.06700242 0 -509.97656304 0 493.16009023 0 22519
0.14450000 0.14449900 10449.77084631 0 193.18425020 0 1995.13996303 0 -538.90240468 0 -172.80972141 0 22218
0.14550000 0.14550500 10267.97503713 0 49.52773997 0 2042.74338033 0 83.71735277 0 -666.17832614 0 23559
0.14650000 0.14650700 10141.92358382 0 63.24621965 0 2165.23455943 0 -284.23410419 0 -1101.75624917 0 23044
0.14750000 0.14750500 10051.87415580 0 141.84199041 0 1834.38415446 0 271.50806481 0 -1023.83282677 0 23649
0.14850000 0.14849900 10002.93979486 0 4.85364088 0 1743.33651872 0 327.12930839 0 -1244.59866554 0 23640
0.14950000 0.14949500 9880.88117244 0 25.57374919 0 1690.58678603 0 400.91127785 0 -439.65615615 0 24457
0.15050000 0.15050000 9865.39786151 0 22.43283312 0 1339.87204733 0 198.12316021 0 -769.50391691 0 24591
0.15150000 0.15149900 9866.46261641 0 108.43208876 0 1648.45132882 0 -371.11588637 0 -398.89046176 0 25020
0.15250000 0.15250500 9498.33469850 0 375.26510314 0 2056.14154625 0 -833.44577643 0 -993.19450432 0 25297
0.15350000 0.15350100 9374.25747824 0 339.28636936 0 2887.10511280 0 -588.07522635 0 -713.44900753 0 25452
0.15450000 0.15450400 8998.77609676 0 109.27978894 0 3138.15435573 0 73.18282300 0 -490.30743437 0 26061
0.15550000 0.15549900 8975.77295429 0 -23.55093669 0 3078.55026333 0 380.03542695 0 -326.31965101 0 26128
0.15650000 0.15649500 9183.66634989 0 -126.88440221 0 2908.81058523 0 878.15882781 0 -121.62828397 0 26331
0.15750000 0.15749700 9051.60346782 0 110.28553868 0 2553.70373254 0 114.34802230 0 301.59515478 0 27345
0.15850000 0.15849900 8957.31720257 0 92.84097138 0 2397.79477704 0 46.58080894 0 709.53936061 0 26980
0.15950000 0.15949700 9034.02392066 0 23.94245594 0 2675.03033596 0 -129.48417877 0 493.91983722 0 27777
0.16050000 0.16050000 8893.26554019 0 94.36268360 0 2640.10415677 0 -72.33268275 0 201.63019668 0 28224
0.16150000 0.16150500 8862.95329893 0 -14.72544945 0 2484.22847486 0 -140.63970466 0 -39.59102571 0 28075
0.16250000 0.16249700 9000.28449954 0 -25.57064365 0 2668.08724667 0 26.10845579 0 -382.45441701 0 28590
0.16350000 0.16349900 8934.25860411 0 -17.33942275 0 2057.91613776 0 150.01731168 0 -187.35138973 0 29163
0.16450000 0.16449100 8986.30959139 0 -60.58666154 0 2223.15278989 0 315.35600283 0 -236.03176226 0 28996
0.16550000 0.16550500 9094.34894086 0 38.57851035 0 1691.86227368 0 483.94552380 0 -110.03188300 0 30777
0.16650000 0.16650700 8883.87129638 0 210.20369192 0 1623.79559801 0 -120.79311684 0 -316.26326274 0 29211
0.16750000 0.16749900 8613.42354999 0 245.16536294 0 1752.75294492 0 13.19198056 0 565.89394157 0 30922
0.16850000 0.16850800 8254.07986006 0 178.83113223 0 2031.10871473 0 -12.21894985 0 272.46634423 0 30867
0.16950000 0.16949900 8086.52514777 0 167.34508867 0 2022.89013780 0 80.59540266 0 908.17715235 0 30852
0.17050000 0.17049200 7888.76910618 0 103.63436969 0 2027.54844051 0 80.75422860 0 455.11284821 0 31257
0.17150000 0.17149500 7928.73068879 0 -9.38203241 0 1775.01297720 0 -67.79671594 0 707.65940273 0 32608
0.17250000 0.17250900 7801.57011577 0 66.89832898 0 2236.95023890 0 71.64281030 0 736.35898395 0 32361
0.17350000 0.17350400 8080.13661833 0 2.94920472 0 1954.79018853 0 41.13248027 0 288.10604105 0 32508
0.17450000 0.17449800 7937.54819036 0 -107.69197318 0 1939.45106315 0 149.86868964 0 868.03921972 0 32791
0.17550000 0.17549800 8011.58192999 0 54.22929836 0 1681.70273727 0 33.45570830 0 218.85593466 0 33633
0.17650000 0.17650100 8059.99500467 0 91.87392992 0 2054.85496740 0 -129.57956307 0 668.89788763 0 33984
0.17750000 0.17750300 7865.77705491 0 212.12468723 0 1979.50137533 0 -209.18219268 0 319.54625704 0 34069
0.17850000 0.17849800 7752.71339322 0 128.34622197 0 2492.97942925 0 -204.29873867 0 680.17874405 0 34536
