### header ###
fiducial parameters:
Omega_m = 0.31
Omega_nu = 0
Omega_de = 0.69
Omega_k = 0
H_0 = 100
w_de = -1
zeff = 0
beta = 0
fgrowth = 0
b_1 = 2
gamma = 0.55
Lx = 3500 Ly = 3500 Lz = 3500
nx = 700 ny = 700 nz = 700
xoffset = 1379.75464 yoffset = 22.6059522 zoffset = 368.141391
bins = 400 dk = 0.001
kx_ny = 0.628318531 ky_ny = 0.628318531 kz_ny = 0.628318531
############################
A(data) = 3.31542608 (not used)
A(ran) = 3.30961639 (used)
Ngal = 185623
weighted Ngal = 0
Nran = 9399747
weighted Nran = 0
SN(data) = 6707.72219
SN(ran) = 131.641259
SN(data+ran) = 6839.36345
############################
13 columns: k_central k_mean P_0(k) sigma^{lin}_{P_0(k)} P^img_1(k) sigma^{lin}_{P_1(k)} P_2(k) sigma^{lin}_{P_2(k)} P^img_3(k) sigma^{lin}_{P_3(k)} P_4(k) sigma^{lin}_{P_4(k)} N_modes
### header ###
0.00050000 0 0 0 0 0 0 0 0 0 0 0 0
0.00150000 0.00179520 14340.91765405 0 -6084.38663946 0 -5270.71424895 0 25313.32788296 0 72957.33896556 0 3
0.00250000 0.00253879 13478.13344345 0 -5252.03667329 0 -1026.45700397 0 12076.53888510 0 -54242.49688301 0 6
0.00350000 0.00331552 26144.83491817 0 -12162.27383751 0 -2715.18046891 0 23504.02092480 0 34534.65993768 0 7
0.00450000 0.00420575 45028.92866615 0 -25315.54612235 0 -35115.17318595 0 30736.59045473 0 12301.91200709 0 24
0.00550000 0.00557378 93292.82674619 0 -30069.23313436 0 -84365.74414650 0 22614.95057743 0 30030.08120913 0 45
0.00650000 0.00659388 91015.47127681 0 -16068.37157874 0 -80836.63618955 0 -19663.25033360 0 -35590.09823927 0 40
0.00750000 0.00754703 130258.34431901 0 -5370.09137360 0 -108506.06704022 0 -22815.70124219 0 9978.13987848 0 57
0.00850000 0.00846663 113063.66169018 0 1893.66660215 0 -68001.68125713 0 -55999.78612748 0 -22541.97050151 0 75
0.00950000 0.00948925 105138.44691083 0 13670.78753444 0 -48421.50398867 0 -52525.69050739 0 -7530.00215850 0 112
0.01050000 0.01054430 89111.44549671 0 12392.41617419 0 -13806.54378509 0 -42270.65889710 0 -42429.26301346 0 105
0.01150000 0.01145670 72667.41507733 0 11585.19886030 0 12957.84539461 0 -41675.39435689 0 -56887.30370728 0 144
0.01250000 0.01249090 71627.28262753 0 6175.55627838 0 30411.28564824 0 -13835.04816124 0 -35605.73682697 0 169
0.01350000 0.01339930 68230.04900229 0 -3282.01827134 0 38062.10421509 0 10760.80128233 0 -38696.40976856 0 180
0.01450000 0.01448870 73198.12885131 0 -3596.56461679 0 42740.37108785 0 10950.56057092 0 -17865.81095617 0 267
0.01550000 0.01550050 84205.14361469 0 -6028.47591565 0 33235.43712717 0 12791.81017629 0 -39746.74611956 0 238
0.01650000 0.01653350 90245.85312057 0 -4738.90244648 0 34930.28293282 0 9681.41708653 0 -2446.87332354 0 315
0.01750000 0.01747870 95451.95005610 0 5746.39350366 0 32109.01516510 0 -9603.23523924 0 -11664.27909454 0 297
0.01850000 0.01844180 78711.67376624 0 10856.24103207 0 46714.67969031 0 -15956.35048956 0 3893.08776720 0 388
0.01950000 0.01947590 76780.69637755 0 7936.25052032 0 62281.84007896 0 -3503.69802475 0 -2419.43370229 0 399
0.02050000 0.02045430 74340.74396091 0 -670.19001208 0 64920.76856885 0 17548.93545936 0 5377.94394104 0 462
0.02150000 0.02154770 74105.83240955 0 -3003.50722478 0 51465.26116717 0 21518.03119925 0 6324.06740551 0 571
0.02250000 0.02255340 75297.24878573 0 70.43697537 0 37983.91127661 0 4191.40769152 0 -3260.64553482 0 510
0.02350000 0.02348930 75240.01820947 0 3052.98505436 0 34871.27776506 0 94.30146020 0 2097.40079889 0 555
0.02450000 0.02439640 70284.02776513 0 3403.41142194 0 34791.31023506 0 3145.51891050 0 3788.37577682 0 592
0.02550000 0.02547300 66301.28985299 0 1777.31994616 0 31272.18435536 0 5242.68679426 0 3866.11397623 0 837
0.02650000 0.02652900 61012.89623611 0 2890.80957258 0 25711.94550128 0 3679.22730765 0 -9299.24771328 0 723
0.02750000 0.02749970 59204.03292583 0 3134.11716004 0 27608.54017942 0 -493.06026945 0 68.16549824 0 826
0.02850000 0.02848090 54423.72704114 0 1719.91191076 0 22437.38051428 0 4177.85424885 0 -4830.29390933 0 831
0.02950000 0.02946900 53253.82758704 0 306.12147225 0 21591.01127517 0 3024.73577573 0 791.92698978 0 996
0.03050000 0.03053250 52166.11390233 0 -141.17208212 0 12898.39657897 0 4541.24622566 0 -6363.25260433 0 1041
0.03150000 0.03150510 53275.34450912 0 1068.23421551 0 18409.94507845 0 361.04286130 0 -2909.74224578 0 1036
0.03250000 0.03246190 50980.02130069 0 1098.78824486 0 10737.55413353 0 -2753.71128711 0 -7038.79522805 0 1059
0.03350000 0.03345080 50265.41548131 0 1058.11904390 0 14870.52230833 0 1611.44000461 0 -5809.90169739 0 1302
0.03450000 0.03451200 48011.12970159 0 -871.76475277 0 10929.94203579 0 2397.76150345 0 -5252.24740603 0 1339
0.03550000 0.03553350 50231.47641865 0 -1584.94313510 0 7247.22100110 0 6718.23745386 0 -8425.27248496 0 1365
0.03650000 0.03647120 51736.10819665 0 -765.91813294 0 5498.80471419 0 1384.11483196 0 61.80835688 0 1308
0.03750000 0.03744890 49912.60450639 0 804.47557001 0 355.96642045 0 -353.87018423 0 -7457.75410158 0 1579
0.03850000 0.03847530 49121.69125201 0 2002.47124421 0 6402.72617427 0 -1540.34543217 0 -5849.57490887 0 1662
0.03950000 0.03950240 46297.31794915 0 909.55356989 0 2317.87161183 0 -2559.83716445 0 -7608.78293042 0 1683
0.04050000 0.04050350 44558.32917964 0 1073.98389201 0 5730.02289697 0 1193.47933881 0 -8017.58226754 0 1822
0.04150000 0.04152450 45326.28365633 0 823.15425479 0 4748.28559909 0 -2790.38987542 0 -3714.94096182 0 1887
0.04250000 0.04250150 42148.54481870 0 1388.38494278 0 5896.59049273 0 297.00118100 0 -11202.10891770 0 1920
0.04350000 0.04349210 43588.73674242 0 326.26863151 0 6211.26993255 0 -1233.17473269 0 -3724.55702958 0 2005
0.04450000 0.04448520 39733.76941913 0 1835.08289987 0 7417.40432708 0 -2024.16562544 0 -10050.98686004 0 2151
0.04550000 0.04548030 40272.13611900 0 1598.23038904 0 11091.97333201 0 -3145.09744502 0 -2953.17537302 0 2274
0.04650000 0.04648670 37734.02660936 0 233.57062565 0 11075.38090137 0 1920.52948116 0 -6316.95794827 0 2311
0.04750000 0.04749250 37514.97546964 0 870.46930097 0 13283.03928913 0 904.60024134 0 -5588.27739997 0 2568
0.04850000 0.04851840 36363.26557853 0 1016.55034685 0 12590.83768759 0 -590.23024592 0 -2099.46376153 0 2493
0.04950000 0.04949480 34979.63875924 0 640.83937759 0 13391.84393119 0 1944.81920248 0 -1832.46537739 0 2644
0.05050000 0.05050630 34982.41155848 0 420.41071120 0 13492.44108751 0 -620.70774601 0 -114.29700279 0 2829
0.05150000 0.05149060 32833.71397370 0 410.36652325 0 11595.73549740 0 2132.00533337 0 -2715.33574567 0 2784
0.05250000 0.05249300 34152.12455494 0 -92.14034047 0 12764.08218392 0 823.38051520 0 530.42429373 0 3055
0.05350000 0.05348950 32912.35056006 0 -134.07704343 0 10450.22558539 0 521.98943845 0 -3155.91136204 0 3009
0.05450000 0.05448610 34864.95578280 0 75.69187357 0 11505.56406621 0 1002.94144820 0 -1432.90500733 0 3336
0.05550000 0.05550870 32438.64553841 0 517.97331604 0 9905.86963917 0 -1244.47666238 0 -4644.42763087 0 3349
0.05650000 0.05647670 33021.70976197 0 870.44822769 0 10490.48663031 0 10.81659000 0 -1715.68616472 0 3324
0.05750000 0.05747970 31831.06976958 0 182.17956459 0 9586.59844382 0 566.86885778 0 -3837.23249937 0 3639
0.05850000 0.05849280 32019.50920573 0 693.07891522 0 10704.84619373 0 1015.82054609 0 -4220.28916837 0 3846
0.05950000 0.05951020 30984.25688259 0 241.94337023 0 8879.78973590 0 135.76401448 0 -3088.22178707 0 3787
0.06050000 0.06049470 30668.71232941 0 60.95477836 0 8785.18182593 0 522.28779165 0 -5038.48676724 0 3930
0.06150000 0.06148310 30634.66235478 0 -69.38552990 0 7782.73726336 0 -968.70625058 0 -4254.82715567 0 4083
0.06250000 0.06249100 30241.59033493 0 629.12596449 0 8585.54028086 0 -210.04176045 0 -6895.71878742 0 4303
0.06350000 0.06350600 30131.12201333 0 323.80416754 0 9222.39680963 0 263.23292277 0 -4381.97663749 0 4470
0.06450000 0.06451750 28949.13315456 0 22.76900730 0 7619.88521856 0 526.92169374 0 -7121.39137173 0 4479
0.06550000 0.06550280 29972.40698500 0 -96.38483063 0 8699.83506541 0 1710.31802540 0 -4240.71915315 0 4636
0.06650000 0.06648880 29254.69563048 0 -135.21500024 0 6324.59978297 0 735.41734133 0 -4208.32176687 0 4653
0.06750000 0.06749660 29851.18020235 0 321.28313848 0 8105.31363540 0 1167.65903231 0 -354.45690855 0 5220
0.06850000 0.06852730 28778.77236943 0 811.33880268 0 8456.36111001 0 -1438.18441708 0 -1186.60279670 0 5029
0.06950000 0.06949320 28137.70118582 0 1205.80165862 0 7428.79498634 0 -145.59636058 0 134.41754317 0 5040
0.07050000 0.07048030 27202.15872324 0 716.15304135 0 11165.50796778 0 -241.62283464 0 2869.93593993 0 5475
0.07150000 0.07148790 25999.54023815 0 207.18688635 0 11093.85883549 0 747.43021674 0 2686.72045754 0 5509
0.07250000 0.07249820 26617.43082013 0 238.67257625 0 11599.39559239 0 1902.07372944 0 4606.27391337 0 5916
0.07350000 0.07351270 25948.63164415 0 11.28895299 0 9684.89972237 0 458.71859634 0 4188.98981059 0 5721
0.07450000 0.07449140 25731.02236003 0 181.60393147 0 9489.19555222 0 1234.49458512 0 5267.96363210 0 6028
0.07550000 0.07549160 25857.46200524 0 212.98869148 0 10073.79036097 0 1451.42730624 0 6795.18817828 0 6183
0.07650000 0.07648840 25402.16837051 0 -92.70321872 0 8424.79556349 0 1311.25675920 0 6607.23675480 0 6330
0.07750000 0.07749960 24911.27199359 0 309.03845705 0 8595.52235812 0 -106.80556472 0 6311.70072092 0 6583
0.07850000 0.07848650 24912.71384919 0 864.02309730 0 7636.72165553 0 -832.99769208 0 4385.79200924 0 6549
0.07950000 0.07947320 23286.18981673 0 728.40105014 0 9479.91222037 0 -1074.87562424 0 4154.96201835 0 6828
0.08050000 0.08048110 22711.00034300 0 580.06849127 0 9802.20022129 0 -803.90991896 0 2422.83869975 0 7147
0.08150000 0.08149960 22452.57545410 0 109.64979127 0 10011.01418624 0 75.21839038 0 906.77078858 0 7386
0.08250000 0.08250610 22529.21562502 0 70.44340827 0 9555.54309236 0 -241.86018625 0 -211.10651535 0 7227
0.08350000 0.08350160 21811.50427050 0 280.51522586 0 9657.82611062 0 296.27359848 0 72.80328224 0 7798
0.08450000 0.08449610 22227.53506802 0 -119.69065187 0 8828.57058839 0 536.74738511 0 212.51177001 0 7371
0.08550000 0.08548940 22252.82299707 0 -155.47418058 0 8238.66309631 0 1050.39069786 0 -1799.95707914 0 8256
0.08650000 0.08650700 21965.00643626 0 299.17949208 0 8138.86450617 0 110.52632856 0 -152.30431649 0 8037
0.08750000 0.08749060 21868.84575872 0 450.14177374 0 8566.25268937 0 213.62643530 0 301.00066662 0 8155
0.08850000 0.08849210 21422.20325761 0 56.87488157 0 7924.21657163 0 811.91110844 0 1875.99832541 0 8718
0.08950000 0.08949900 20677.09664663 0 180.19534946 0 7313.20253175 0 857.87746507 0 1135.42801398 0 8571
0.09050000 0.09049190 20940.40166218 0 293.74480558 0 7920.80048297 0 102.77147457 0 1588.76959805 0 8932
0.09150000 0.09150830 20112.55472197 0 667.83424184 0 7774.64068958 0 -675.98627160 0 1195.67539581 0 9285
0.09250000 0.09250820 19737.89408906 0 467.84110583 0 7890.47715051 0 -259.70814038 0 1207.60952372 0 9204
0.09350000 0.09350330 19028.61204422 0 288.51641533 0 8502.42285093 0 160.48296512 0 1927.88294474 0 9349
0.09450000 0.09448040 18501.55836524 0 307.45796148 0 7626.08519766 0 567.38903492 0 183.11011602 0 9564
0.09550000 0.09549270 18383.32620577 0 289.16525036 0 8276.31770995 0 890.46007435 0 1897.31560595 0 10155
0.09650000 0.09649430 17394.10234996 0 534.38828752 0 7306.69199914 0 159.67219863 0 781.44137218 0 9913
0.09750000 0.09749140 16574.46289548 0 749.55750832 0 8308.92582897 0 -211.71653119 0 2727.20332640 0 10476
0.09850000 0.09850240 16159.54121765 0 67.17982356 0 7170.40337104 0 1130.45915775 0 2815.36725094 0 10575
0.09950000 0.09950330 15803.29197167 0 124.98115281 0 7549.96631300 0 1154.11668084 0 3022.09607086 0 10882
0.10050000 0.10051200 15798.41184502 0 133.79310879 0 6672.95209672 0 400.27464314 0 3045.80904994 0 10875
0.10150000 0.10150300 15555.84736776 0 -3.90112888 0 5830.81969483 0 278.21712985 0 2461.05896443 0 11118
0.10250000 0.10250800 15653.67172484 0 1.29073804 0 5929.37607091 0 285.48851857 0 2769.40533079 0 11575
0.10350000 0.10349800 15400.68152245 0 124.70387289 0 5416.78531275 0 -354.43250792 0 2099.05338724 0 11364
0.10450000 0.10450100 15143.36575326 0 186.10473919 0 5314.26937936 0 -159.71767253 0 1452.03732207 0 12093
0.10550000 0.10551000 15354.98579103 0 60.88712206 0 5373.45200628 0 273.84830737 0 1166.20608551 0 12067
0.10650000 0.10649700 15161.33349231 0 -114.62641134 0 4675.31661437 0 820.29050773 0 980.54721244 0 12054
0.10750000 0.10749900 15165.88088306 0 52.09479751 0 4811.16159459 0 186.85006763 0 868.52168678 0 12807
0.10850000 0.10850100 15081.03322641 0 106.29947341 0 4393.72221505 0 -257.76829003 0 856.39124468 0 12736
0.10950000 0.10950300 15116.19232073 0 91.56015996 0 4278.14085166 0 156.26831028 0 129.98660999 0 12933
0.11050000 0.11050200 14787.89289107 0 -1.95386962 0 4368.03500292 0 139.05699086 0 76.22436194 0 13428
0.11150000 0.11150900 15023.35900228 0 141.79651650 0 4187.69214054 0 -35.32512954 0 562.25491985 0 13453
0.11250000 0.11250000 14552.98133970 0 325.14731149 0 4771.28874157 0 -201.37399003 0 -544.06868422 0 13668
0.11350000 0.11349100 14189.07916783 0 260.17840713 0 4286.81416767 0 -158.19041471 0 77.87451022 0 13791
0.11450000 0.11448600 14103.01147951 0 234.99917182 0 5025.45461083 0 294.16627106 0 25.76396321 0 14205
0.11550000 0.11549300 13949.17657784 0 -40.06040517 0 4258.84216897 0 417.76546073 0 904.21759504 0 14776
0.11650000 0.11649800 13827.06249944 0 -68.28262128 0 4231.49127729 0 413.56300621 0 71.50405943 0 14553
0.11750000 0.11747300 14113.54811661 0 -107.01685203 0 3744.44354570 0 537.28863552 0 885.64205839 0 14568
0.11850000 0.11849100 13907.14094141 0 70.00342048 0 3290.71376975 0 66.71942798 0 551.14597699 0 16015
0.11950000 0.11950300 13962.81875009 0 162.31855822 0 3429.70864990 0 149.80879718 0 652.32320291 0 15270
0.12050000 0.12050700 13792.34705299 0 70.35445687 0 3327.23708130 0 -144.33861884 0 367.46910081 0 15999
0.12150000 0.12150000 13523.38552700 0 268.95598040 0 3265.88057978 0 74.07411159 0 -35.84708127 0 15670
0.12250000 0.12250700 13502.09042886 0 91.49239275 0 3632.93265159 0 -44.54102691 0 906.04542430 0 16887
0.12350000 0.12352200 13204.40270277 0 -27.89924045 0 2940.77541484 0 563.95630947 0 253.44826882 0 16407
0.12450000 0.12449800 13378.09084698 0 42.13989369 0 3083.38602520 0 433.77671264 0 688.70454714 0 16306
0.12550000 0.12549900 13125.65520444 0 188.19653894 0 2398.08314816 0 26.91278939 0 532.26765066 0 17523
0.12650000 0.12650100 12823.53099957 0 220.48744973 0 3049.85733682 0 -105.48815235 0 1092.18454620 0 17154
0.12750000 0.12750600 12636.53341902 0 282.83772250 0 3327.50327003 0 -567.26814087 0 526.61446758 0 18007
0.12850000 0.12850300 12266.64200080 0 207.10702973 0 3266.64587237 0 -71.82625870 0 368.08688048 0 17496
0.12950000 0.12949900 12241.46498372 0 -93.62722633 0 3425.54945105 0 169.62100229 0 187.25711456 0 18405
0.13050000 0.13049000 12379.32856179 0 -32.12432102 0 3193.39960773 0 269.65250756 0 251.22115648 0 18100
0.13150000 0.13148800 12294.70272907 0 176.15482641 0 3104.13765469 0 -262.43990219 0 -270.82484708 0 19059
0.13250000 0.13249300 12029.62312201 0 195.71082487 0 3441.52077465 0 -343.62413649 0 -150.13709661 0 18957
0.13350000 0.13349100 11810.68289425 0 99.98070759 0 3198.11336643 0 -39.66200937 0 -433.57485286 0 19468
0.13450000 0.13450700 12075.09702950 0 -69.69874530 0 3462.41658971 0 412.58032616 0 -313.16549143 0 19953
0.13550000 0.13551000 12050.03092440 0 -180.21864097 0 2976.51125140 0 326.53038375 0 -858.85127216 0 19956
0.13650000 0.13649900 12213.07151954 0 -9.05889038 0 2715.77939354 0 140.19827502 0 -505.68537894 0 19723
0.13750000 0.13749600 12262.87099383 0 123.29639999 0 2689.77053670 0 -80.98126540 0 -1029.30300510 0 20946
0.13850000 0.13851100 11890.87224819 0 344.09773060 0 2805.87318636 0 -353.32560646 0 -694.09486886 0 20955
0.13950000 0.13949800 11595.84640937 0 289.05877486 0 2709.32431692 0 -152.75240085 0 -1150.66731859 0 20506
0.14050000 0.14048300 11263.99779668 0 75.77550120 0 3335.03419275 0 79.84430680 0 -598.69837479 0 21447
0.14150000 0.14148400 10975.23848413 0 149.45276976 0 2760.36600528 0 527.96981185 0 -1306.07717023 0 21771
0.14250000 0.14249400 11199.66885438 0 -34.40278561 0 2406.12426595 0 685.55908369 0 -129.34664793 0 22470
0.14350000 0.14350900 10842.78741017 0 -26.51772096 0 1969.99621955 0 443.69667920 0 -309.23477123 0 22519
0.14450000 0.14449900 10853.52368882 0 215.02947171 0 1529.63133592 0 110.11551063 0 50.80577860 0 22218
0.14550000 0.14550500 10656.20020391 0 169.31155789 0 1858.44096064 0 -274.49492415 0 25.67478999 0 23559
0.14650000 0.14650700 10443.82596475 0 185.27400854 0 1744.49000320 0 -227.28635346 0 -117.27277093 0 23044
0.14750000 0.14750500 10206.47435006 0 134.47521740 0 2175.69355815 0 -200.11735742 0 -278.35909717 0 23649
0.14850000 0.14849900 10155.44375290 0 94.38553147 0 2426.73170988 0 -3.69431134 0 -722.33083805 0 23640
0.14950000 0.14949500 10144.20837039 0 38.98744278 0 2331.34741612 0 -134.26781202 0 -134.15579093 0 24457
0.15050000 0.15050000 9997.43856117 0 -12.38298866 0 2506.98761099 0 223.59076664 0 -413.81810374 0 24591
0.15150000 0.15149900 10090.73770990 0 116.81692274 0 2439.37567440 0 -34.72465214 0 -545.68023513 0 25020
0.15250000 0.15250500 9914.02166893 0 176.09937043 0 2368.02600443 0 -46.92729794 0 -558.57375159 0 25297
0.15350000 0.15350100 9547.67943373 0 319.58951270 0 2587.39878887 0 -149.33963955 0 -320.25720276 0 25452
0.15450000 0.15450400 9253.13051637 0 192.53541518 0 2759.03506164 0 -243.32089689 0 -336.63557329 0 26061
0.15550000 0.15549900 8979.45523167 0 216.77855347 0 2879.68510205 0 -80.79759518 0 -894.42628638 0 26128
0.15650000 0.15649500 8873.61193920 0 188.74666231 0 3081.60034249 0 -239.46670595 0 -810.33394023 0 26331
0.15750000 0.15749700 8481.74885982 0 105.76776143 0 3012.34690874 0 -131.20553254 0 -1334.07135133 0 27345
0.15850000 0.15849900 8631.66856897 0 -14.81162805 0 3064.23152807 0 138.41037408 0 -1220.58622415 0 26980
0.15950000 0.15949700 8627.24318139 0 -64.19041325 0 2789.66894761 0 55.95120668 0 -1646.59909893 0 27777
0.16050000 0.16050000 8689.16533395 0 -26.92576610 0 2636.45515297 0 169.14518994 0 -1611.56200777 0 28224
0.16150000 0.16150500 8772.82623253 0 67.40508577 0 2583.91615303 0 47.73085515 0 -1426.01737403 0 28075
0.16250000 0.16249700 8544.51394335 0 144.65915444 0 2731.29597808 0 -82.09715072 0 -1629.94012112 0 28590
0.16350000 0.16349900 8726.48721168 0 26.92698613 0 2536.03545580 0 85.42484254 0 -1147.46196267 0 29163
0.16450000 0.16449100 8452.43482629 0 83.41955413 0 2819.40444663 0 -73.16640803 0 -1534.27854744 0 28996
0.16550000 0.16550500 8392.48690678 0 153.38459908 0 2697.45673619 0 -112.62888677 0 -1472.48948924 0 30777
0.16650000 0.16650700 8205.52259982 0 97.65976372 0 2789.92404514 0 200.60204272 0 -1266.17104361 0 29211
0.16750000 0.16749900 8084.89474182 0 48.63201491 0 2730.80796541 0 246.45194179 0 -853.42213126 0 30922
0.16850000 0.16850800 8272.65761495 0 -44.11756501 0 2343.37027361 0 653.89149816 0 -714.82653419 0 30867
0.16950000 0.16949900 8084.39563795 0 78.82990593 0 2179.84166581 0 210.26802086 0 -459.16889894 0 30852
0.17050000 0.17049200 8000.31327389 0 171.69949260 0 2029.99959504 0 -86.88466589 0 -265.22601086 0 31257
0.17150000 0.17149500 7754.37707276 0 59.33235807 0 2321.40970366 0 14.61686663 0 215.41877273 0 32608
0.17250000 0.17250900 7867.42964325 0 8.99850991 0 2158.75730041 0 190.82626173 0 195.62542265 0 32361
0.17350000 0.17350400 7796.57907715 0 44.19564704 0 2192.97364300 0 69.14141266 0 28.17896044 0 32508
0.17450000 0.17449800 7766.18919751 0 71.79109961 0 2174.98372155 0 0.34867507 0 259.08481511 0 32791
0.17550000 0.17549800 7734.42400945 0 53.09411435 0 2438.39964907 0 -74.59872520 0 192.39899346 0 33633
0.17650000 0.17650100 7690.93542622 0 95.18609407 0 2243.10585320 0 -105.36204544 0 335.04842301 0 33984
0.17750000 0.17750300 7539.46294949 0 37.11469417 0 2340.09837051 0 177.16301621 0 360.93527669 0 34069
0.17850000 0.17849800 7651.25112353 0 70.36543715 0 2334.95205513 0 103.55196210 0 521.58682800 0 34536
