### header ###
fiducial parameters:
Omega_m = 0.31
Omega_nu = 0
Omega_de = 0.69
Omega_k = 0
H_0 = 100
w_de = -1
zeff = 0
beta = 0
fgrowth = 0
b_1 = 2
gamma = 0.55
Lx = 3500 Ly = 3500 Lz = 3500
nx = 700 ny = 700 nz = 700
xoffset = 1379.75464 yoffset = 22.6059522 zoffset = 368.141391
bins = 400 dk = 0.001
kx_ny = 0.628318531 ky_ny = 0.628318531 kz_ny = 0.628318531
############################
A(data) = 3.35964679 (not used)
A(ran) = 3.35547897 (used)
Ngal = 188046
weighted Ngal = 0
Nran = 9399747
weighted Nran = 0
SN(data) = 6636.53813
SN(ran) = 133.465461
SN(data+ran) = 6770.00359
############################
13 columns: k_central k_mean P_0(k) sigma^{lin}_{P_0(k)} P^img_1(k) sigma^{lin}_{P_1(k)} P_2(k) sigma^{lin}_{P_2(k)} P^img_3(k) sigma^{lin}_{P_3(k)} P_4(k) sigma^{lin}_{P_4(k)} N_modes
### header ###
0.00050000 0 0 0 0 0 0 0 0 0 0 0 0
0.00150000 0.00179520 46779.00863261 0 -53030.33996854 0 -93382.55452950 0 93714.73587810 0 81459.73963410 0 3
0.00250000 0.00253879 77356.21858720 0 -42674.26755404 0 -5675.79803509 0 -128613.51981159 0 -54483.95224057 0 6
0.00350000 0.00331552 99916.37865170 0 -11441.45694785 0 -85159.31928815 0 12833.40216485 0 36549.59768726 0 7
0.00450000 0.00420575 106346.83281834 0 9044.99311444 0 -8376.10520889 0 -69432.00201557 0 7840.54458185 0 24
0.00550000 0.00557378 82028.60712557 0 15229.98800142 0 14446.72767294 0 -25559.44154324 0 34055.74205346 0 45
0.00650000 0.00659388 79252.14779352 0 -903.51441316 0 47082.13104520 0 23839.97328036 0 -63392.06889347 0 40
0.00750000 0.00754703 67618.70222650 0 1470.06051711 0 18192.55761826 0 18521.74434368 0 2975.22467256 0 57
0.00850000 0.00846663 86924.70510640 0 -3110.89219363 0 33204.49268768 0 4474.82104714 0 -2057.98268494 0 75
0.00950000 0.00948925 80929.13677210 0 -3654.19447614 0 33974.99813967 0 -5383.01261805 0 13163.80892194 0 112
0.01050000 0.01054430 88999.42440753 0 -1443.13109092 0 32326.62444923 0 6970.98364991 0 -13791.79249315 0 105
0.01150000 0.01145670 85804.60512660 0 1384.45865906 0 29740.71188075 0 8161.95637821 0 6552.80116018 0 144
0.01250000 0.01249090 94750.09911321 0 2759.04615284 0 33833.91811449 0 7726.20543251 0 5693.71031816 0 169
0.01350000 0.01339930 96580.59025755 0 3323.32188878 0 46194.83528935 0 -403.95248405 0 9678.52228412 0 180
0.01450000 0.01448870 82062.21345233 0 4496.49324598 0 33537.89406794 0 15224.88605083 0 27627.83886211 0 267
0.01550000 0.01550050 78421.30623013 0 5307.20428691 0 31697.42084636 0 17189.80250217 0 19459.72686960 0 238
0.01650000 0.01653350 71971.55338080 0 1797.65011017 0 28678.17521311 0 9647.21183514 0 38296.57211858 0 315
0.01750000 0.01747870 71976.21168352 0 2230.08478799 0 29867.15152596 0 13976.79365824 0 30085.75901781 0 297
0.01850000 0.01844180 72133.48485625 0 -3313.47290589 0 8523.42957795 0 13136.41366547 0 32183.10436072 0 388
0.01950000 0.01947590 70385.73404115 0 -2870.67905012 0 8977.13717151 0 6320.52931369 0 19186.88342467 0 399
0.02050000 0.02045430 80097.29700098 0 -5964.26897651 0 4872.59573449 0 -7044.52937688 0 5867.17663843 0 462
0.02150000 0.02154770 79833.21560164 0 989.84939932 0 3555.74901202 0 -10411.92768233 0 -2385.66100758 0 571
0.02250000 0.02255340 79492.27220745 0 2736.33138149 0 7182.09349262 0 -14729.88593103 0 -24002.79205156 0 510
0.02350000 0.02348930 83407.90837805 0 1084.57265774 0 9432.83008933 0 -10354.60837650 0 -16503.14649911 0 555
0.02450000 0.02439640 81657.38476372 0 -813.43947538 0 21020.36919218 0 4384.38342722 0 -34427.29715122 0 592
0.02550000 0.02547300 81994.44623897 0 -1359.28164199 0 9683.09185727 0 5824.69735412 0 -21351.21959715 0 837
0.02650000 0.02652900 83454.38049327 0 36.60172631 0 6571.72274217 0 6512.41811209 0 -25012.31279778 0 723
0.02750000 0.02749970 81703.52414302 0 2362.49149715 0 13125.98794034 0 -5607.30989393 0 -8312.46392080 0 826
0.02850000 0.02848090 75996.43784134 0 5512.44688643 0 14672.65535477 0 -4436.45659690 0 -18991.78927035 0 831
0.02950000 0.02946900 72244.84047361 0 4718.92720077 0 19397.83799062 0 -5424.82643054 0 -6892.34706355 0 996
0.03050000 0.03053250 66969.86720503 0 507.27807482 0 17866.69825192 0 7633.11701652 0 -2106.11847969 0 1041
0.03150000 0.03150510 66893.00521018 0 1267.59071682 0 20383.62357538 0 9530.51026085 0 -756.61927341 0 1036
0.03250000 0.03246190 67520.98878139 0 -157.22104410 0 11519.64988633 0 1720.14482590 0 3852.52725997 0 1059
0.03350000 0.03345080 60269.78604058 0 4446.34994457 0 21839.34317484 0 1889.75140963 0 2626.51744051 0 1302
0.03450000 0.03451200 56508.87206741 0 6678.13168569 0 23149.43535836 0 -9485.30254209 0 13620.54441226 0 1339
0.03550000 0.03553350 48698.34026450 0 2606.46455642 0 25541.80654009 0 -125.21850443 0 6334.17148593 0 1365
0.03650000 0.03647120 50591.27484765 0 -734.34482258 0 26123.09617215 0 11375.24250207 0 13312.54187301 0 1308
0.03750000 0.03744890 45966.91119206 0 379.21356926 0 21380.05670921 0 4641.15572777 0 7644.10839270 0 1579
0.03850000 0.03847530 47441.26400239 0 1452.25914601 0 18313.00801712 0 1990.22656278 0 13516.61989686 0 1662
0.03950000 0.03950240 44806.66107931 0 923.85899572 0 18875.66443830 0 2268.19414070 0 12009.10440766 0 1683
0.04050000 0.04050350 45832.04223717 0 -218.05404112 0 18085.08391983 0 394.22328609 0 9887.35843146 0 1822
0.04150000 0.04152450 44296.46601969 0 -494.10284197 0 15953.57769032 0 2103.15713011 0 10561.70320591 0 1887
0.04250000 0.04250150 45923.10096412 0 -838.62758365 0 13801.77457040 0 3315.64678049 0 9135.00926887 0 1920
0.04350000 0.04349210 46435.40335115 0 -1120.33289494 0 8626.59989196 0 1492.46473494 0 8259.98037684 0 2005
0.04450000 0.04448520 47160.65671960 0 1640.06638393 0 12404.83831477 0 -868.47288552 0 2972.31877896 0 2151
0.04550000 0.04548030 45252.08354875 0 1009.67824122 0 12550.02208282 0 -3110.84782884 0 4146.16669917 0 2274
0.04650000 0.04648670 43821.09731849 0 2346.53126474 0 13000.65741483 0 -4125.09342497 0 -550.13445983 0 2311
0.04750000 0.04749250 40457.91366788 0 1185.67113616 0 17808.46946794 0 -563.31191092 0 -4001.94786525 0 2568
0.04850000 0.04851840 40748.94667580 0 664.61446737 0 16704.00807584 0 -186.53285939 0 -3358.51425669 0 2493
0.04950000 0.04949480 39259.62074959 0 127.22379283 0 14816.17544328 0 3320.20526244 0 -6862.13464306 0 2644
0.05050000 0.05050630 39436.52534092 0 -226.11068658 0 14823.93928115 0 2441.01717155 0 -3646.94083333 0 2829
0.05150000 0.05149060 39292.00704468 0 703.72424605 0 9835.90636882 0 -19.02073729 0 -6951.44096089 0 2784
0.05250000 0.05249300 37218.95142309 0 963.94812709 0 11325.66485171 0 1303.23782381 0 -2505.05774273 0 3055
0.05350000 0.05348950 36516.87865627 0 294.42469595 0 7979.14017891 0 1217.72469534 0 -2870.94523885 0 3009
0.05450000 0.05448610 35994.26145607 0 654.75106592 0 8509.01102192 0 2904.39628885 0 58.11687380 0 3336
0.05550000 0.05550870 35977.73557261 0 -45.35656262 0 8435.63166291 0 3368.35214839 0 295.19109766 0 3349
0.05650000 0.05647670 33081.93496140 0 1158.88589553 0 5948.79675677 0 -861.48099496 0 -836.30841437 0 3324
0.05750000 0.05747970 33713.68953957 0 397.63272003 0 4967.76929550 0 226.03637557 0 3010.91614434 0 3639
0.05850000 0.05849280 32158.48190349 0 -231.95131090 0 6514.63635148 0 1356.17610684 0 -900.48097079 0 3846
0.05950000 0.05951020 33830.14710753 0 13.29546143 0 4089.26885882 0 287.74335891 0 4137.63756872 0 3787
0.06050000 0.06049470 32181.88432905 0 547.77868960 0 5468.22628420 0 179.83266732 0 -2557.16418599 0 3930
0.06150000 0.06148310 32276.82497493 0 662.17440404 0 6252.11881091 0 -2037.59706495 0 1499.08617952 0 4083
0.06250000 0.06249100 31369.89780047 0 219.10437747 0 4629.03304951 0 1086.19973633 0 -272.76469743 0 4303
0.06350000 0.06350600 31179.68377281 0 526.45586346 0 6159.61822836 0 539.00998929 0 1617.44034216 0 4470
0.06450000 0.06451750 30586.30473608 0 476.61535174 0 5584.04056273 0 370.37388529 0 80.54061214 0 4479
0.06550000 0.06550280 29384.35172280 0 1020.16274970 0 6985.63512108 0 -1228.51642997 0 927.23071959 0 4636
0.06650000 0.06648880 28469.88253442 0 955.26371988 0 7249.97161795 0 -698.86630178 0 1152.23117736 0 4653
0.06750000 0.06749660 27706.14271257 0 341.49351756 0 8435.09928546 0 -31.02839985 0 1817.84717981 0 5220
0.06850000 0.06852730 27581.14492296 0 -273.91596367 0 7792.08714238 0 1501.75915799 0 2511.01371549 0 5029
0.06950000 0.06949320 28697.91754368 0 -280.30449311 0 7376.20053042 0 764.71917455 0 417.35730468 0 5040
0.07050000 0.07048030 28395.57151487 0 116.92672559 0 6900.84292041 0 -560.39825348 0 3385.57677725 0 5475
0.07150000 0.07148790 28520.01474463 0 -133.08105394 0 7407.44443222 0 491.95336800 0 243.11127327 0 5509
0.07250000 0.07249820 29104.74264774 0 -503.26195241 0 8348.17757497 0 396.05666094 0 3044.87738939 0 5916
0.07350000 0.07351270 29275.65799271 0 -184.88914401 0 5958.22427418 0 739.34140681 0 -375.38932455 0 5721
0.07450000 0.07449140 29546.94867006 0 394.79337361 0 8180.29012677 0 -623.00584202 0 1115.46385948 0 6028
0.07550000 0.07549160 29160.08772051 0 756.58489070 0 9195.73357217 0 -1975.68600358 0 863.22453112 0 6183
0.07650000 0.07648840 28834.45017811 0 779.13883970 0 11421.49279334 0 -943.02125668 0 2310.09668277 0 6330
0.07750000 0.07749960 27562.40080012 0 307.69198574 0 11151.08941174 0 266.69337622 0 1234.46131153 0 6583
0.07850000 0.07848650 27491.86078753 0 867.10534093 0 12125.45106364 0 122.83500620 0 1454.69920933 0 6549
0.07950000 0.07947320 26493.09850234 0 748.29200275 0 13349.47555885 0 385.63648141 0 4157.55735844 0 6828
0.08050000 0.08048110 25619.11218282 0 383.10325203 0 13101.14365918 0 442.73174506 0 4199.11607340 0 7147
0.08150000 0.08149960 25213.50711042 0 541.31806737 0 13967.03340493 0 1343.29922719 0 4476.85073618 0 7386
0.08250000 0.08250610 24624.00999263 0 466.46801565 0 12461.07068330 0 271.49142802 0 4800.90223742 0 7227
0.08350000 0.08350160 23528.31064611 0 733.61058534 0 12618.34385602 0 197.04398674 0 4962.20151463 0 7798
0.08450000 0.08449610 23148.10441473 0 367.20069384 0 13085.72689542 0 480.33644831 0 5393.50489036 0 7371
0.08550000 0.08548940 22087.45325057 0 439.24134538 0 11972.05980985 0 405.24571762 0 3762.30037279 0 8256
0.08650000 0.08650700 21794.64565114 0 171.77713097 0 11409.95794851 0 1596.66653027 0 5052.63913455 0 8037
0.08750000 0.08749060 21791.98376387 0 -188.40838080 0 9949.44695198 0 2445.60892708 0 5056.21049997 0 8155
0.08850000 0.08849210 21344.45396701 0 -328.72200427 0 8121.57333012 0 2135.55451640 0 5671.05100279 0 8718
0.08950000 0.08949900 22008.48392830 0 -134.80795331 0 7053.45779042 0 1303.85893084 0 5956.98206012 0 8571
0.09050000 0.09049190 21792.20558781 0 -45.72889411 0 5392.58432101 0 1035.00055298 0 5765.49254481 0 8932
0.09150000 0.09150830 21265.26282080 0 226.62088164 0 4619.17297542 0 198.76312227 0 5453.54153944 0 9285
0.09250000 0.09250820 20915.66829299 0 567.87815671 0 4032.82575756 0 -858.80801650 0 4358.87367424 0 9204
0.09350000 0.09350330 20481.44793247 0 412.69345637 0 5087.42112818 0 -503.31629927 0 3414.56916607 0 9349
0.09450000 0.09448040 19344.93298118 0 742.46357875 0 5010.79204846 0 -498.56261226 0 902.72139257 0 9564
0.09550000 0.09549270 18856.03301970 0 470.14807480 0 5575.27851714 0 -967.00375185 0 1786.81401075 0 10155
0.09650000 0.09649430 17927.03436332 0 672.62674804 0 6133.63155391 0 -932.62769602 0 -406.26610773 0 9913
0.09750000 0.09749140 17403.08621949 0 462.54173193 0 6062.00460402 0 29.79017862 0 133.08549042 0 10476
0.09850000 0.09850240 17051.38436426 0 59.18451242 0 6130.95857545 0 500.12868927 0 -877.39575346 0 10575
0.09950000 0.09950330 17006.90866450 0 -160.91774004 0 5803.33570879 0 659.07996009 0 -650.57301203 0 10882
0.10050000 0.10051200 17318.01673889 0 -46.37473450 0 5820.41615209 0 890.61867846 0 -115.10998753 0 10875
0.10150000 0.10150300 17132.01736607 0 16.02633594 0 4803.94122538 0 22.01214402 0 383.31176653 0 11118
0.10250000 0.10250800 17179.48768901 0 131.00145451 0 4622.18978099 0 412.80880481 0 979.79522929 0 11575
0.10350000 0.10349800 16828.78404151 0 204.27988363 0 4784.36526277 0 635.39359989 0 557.81733195 0 11364
0.10450000 0.10450100 16648.21935519 0 157.63030927 0 4432.34176283 0 271.82749129 0 1840.24030645 0 12093
0.10550000 0.10551000 16408.76041308 0 100.37023043 0 4373.69151337 0 655.05829208 0 1871.02946918 0 12067
0.10650000 0.10649700 16371.82672724 0 -23.95942547 0 3859.25961651 0 563.46829680 0 2516.25985164 0 12054
0.10750000 0.10749900 16154.10653115 0 283.25807886 0 4247.35168893 0 58.13628340 0 2235.53056569 0 12807
0.10850000 0.10850100 15799.18822880 0 286.63313009 0 3816.03722201 0 -498.67019687 0 2225.38212048 0 12736
0.10950000 0.10950300 15644.02238350 0 199.19789719 0 4123.74029894 0 259.39425951 0 2030.11050701 0 12933
0.11050000 0.11050200 15508.70978073 0 64.57505596 0 4224.90310630 0 33.18164482 0 1925.15451029 0 13428
0.11150000 0.11150900 15219.89501220 0 15.34422733 0 3667.08244699 0 647.17466929 0 1644.32540356 0 13453
0.11250000 0.11250000 15451.47920448 0 -196.30864039 0 2771.73448215 0 494.78384146 0 897.46527434 0 13668
0.11350000 0.11349100 15317.60845731 0 43.98313971 0 2567.56772873 0 343.68957455 0 1476.77069126 0 13791
0.11450000 0.11448600 15440.49891950 0 286.99248487 0 3060.98180736 0 -432.70530302 0 755.32160337 0 14205
0.11550000 0.11549300 14891.70649450 0 97.68560621 0 2232.04792985 0 -342.89766309 0 39.74253146 0 14776
0.11650000 0.11649800 14723.34212483 0 172.97054377 0 2875.75881833 0 -403.97799380 0 -96.81150898 0 14553
0.11750000 0.11747300 14575.16373360 0 369.21818257 0 2784.58917941 0 -680.44049629 0 -1532.27104079 0 14568
0.11850000 0.11849100 14468.57733093 0 182.07641646 0 3719.74345010 0 -556.92449060 0 -998.39849393 0 16015
0.11950000 0.11950300 14135.95233445 0 156.49678894 0 3258.78221374 0 -155.88788223 0 -2458.86290744 0 15270
0.12050000 0.12050700 14173.44058013 0 58.32627560 0 4333.53028922 0 431.69378586 0 -1305.88861988 0 15999
0.12150000 0.12150000 13911.91015609 0 178.78676745 0 3925.18569117 0 -400.58963314 0 -1749.37012986 0 15670
0.12250000 0.12250700 14044.33904766 0 63.63984623 0 4101.36935470 0 321.35634038 0 -814.37889976 0 16887
0.12350000 0.12352200 13804.99101751 0 -80.38444809 0 4003.15680572 0 638.90174548 0 -833.02542007 0 16407
0.12450000 0.12449800 13867.32354436 0 225.77018684 0 4319.25591874 0 -184.37562159 0 -10.10208400 0 16306
0.12550000 0.12549900 13733.89644508 0 59.15988996 0 3783.32928221 0 474.18527049 0 -243.12791006 0 17523
0.12650000 0.12650100 13468.26227817 0 137.47982265 0 4022.04511412 0 188.39285312 0 1371.79251215 0 17154
0.12750000 0.12750600 13486.89548904 0 86.59252376 0 2902.77697409 0 674.65754621 0 655.62394312 0 18007
0.12850000 0.12850300 13108.02020129 0 131.58485147 0 3683.29777693 0 369.91138238 0 1139.17683855 0 17496
0.12950000 0.12949900 13032.93279795 0 362.17083603 0 3093.88938871 0 -40.14148182 0 1083.17627604 0 18405
0.13050000 0.13049000 12623.33489465 0 190.81406142 0 3360.78795207 0 35.42140113 0 1510.75411871 0 18100
0.13150000 0.13148800 12256.43809960 0 67.96574578 0 3567.50568079 0 -137.53638776 0 1620.37950935 0 19059
0.13250000 0.13249300 12189.11453413 0 85.79728494 0 2911.97157636 0 81.36757179 0 975.80905310 0 18957
0.13350000 0.13349100 12295.92276074 0 0.62928901 0 3439.44672083 0 363.65261994 0 1365.43725630 0 19468
0.13450000 0.13450700 12268.74932822 0 22.33511968 0 2734.92279948 0 164.82184137 0 1040.69810085 0 19953
0.13550000 0.13551000 12315.11053146 0 116.74039348 0 3783.01872869 0 -93.66538005 0 2164.94618831 0 19956
0.13650000 0.13649900 11901.29797332 0 223.62293111 0 3101.65322657 0 -208.05976355 0 921.12612479 0 19723
0.13750000 0.13749600 12121.68005668 0 163.60957354 0 4349.98962549 0 -345.18023142 0 1760.31714124 0 20946
0.13850000 0.13851100 11773.52738448 0 67.58908873 0 3908.79290208 0 -441.76459269 0 1011.56041735 0 20955
0.13950000 0.13949800 11807.79918305 0 180.61459670 0 5080.92168677 0 -144.75897521 0 1410.13478000 0 20506
0.14050000 0.14048300 11823.10503484 0 -28.05717910 0 4384.05069131 0 186.36649144 0 1321.50502518 0 21447
0.14150000 0.14148400 11861.81331219 0 -88.94507754 0 5115.79240997 0 398.40355822 0 854.22180656 0 21771
0.14250000 0.14249400 11890.65042425 0 159.55685018 0 4514.42771144 0 -293.21464636 0 918.40878154 0 22470
0.14350000 0.14350900 11578.10049425 0 198.23961777 0 4548.38895650 0 72.01736002 0 598.13605110 0 22519
0.14450000 0.14449900 11454.32273631 0 179.64189873 0 4687.43929264 0 94.94264229 0 1114.53219893 0 22218
0.14550000 0.14550500 11215.19653010 0 137.41216635 0 4036.44148776 0 419.34595630 0 837.37538751 0 23559
0.14650000 0.14650700 11131.45799314 0 90.96944281 0 4281.71221707 0 713.47008081 0 1273.92379028 0 23044
0.14750000 0.14750500 10797.13604353 0 96.86607767 0 3628.97309428 0 329.49616982 0 1415.55837530 0 23649
0.14850000 0.14849900 10713.86333685 0 142.26012854 0 3319.49542583 0 136.02354849 0 1498.70907883 0 23640
0.14950000 0.14949500 10419.60279061 0 176.34004940 0 3325.04102430 0 189.43764388 0 1767.23804814 0 24457
0.15050000 0.15050000 10123.55656167 0 187.19056737 0 3369.12853217 0 -215.18031199 0 1099.18641884 0 24591
0.15150000 0.15149900 9974.75706341 0 143.20288028 0 3012.66855345 0 108.44295813 0 1565.85518515 0 25020
0.15250000 0.15250500 9709.04525813 0 77.69738381 0 3129.58086049 0 163.72381287 0 1084.78449960 0 25297
0.15350000 0.15350100 9684.64462484 0 72.42274327 0 2605.25561596 0 324.14355817 0 1075.69082722 0 25452
0.15450000 0.15450400 9571.79169589 0 -41.57224623 0 2382.26710131 0 520.34128659 0 821.41626422 0 26061
0.15550000 0.15549900 9496.14973270 0 162.11558931 0 1970.21804349 0 151.00220997 0 1082.10153906 0 26128
0.15650000 0.15649500 9238.00212373 0 153.16942985 0 2190.00120221 0 210.03288749 0 1413.36231831 0 26331
0.15750000 0.15749700 9094.63731198 0 155.46087114 0 1855.03596318 0 -35.69613008 0 1209.06247052 0 27345
0.15850000 0.15849900 8853.52578152 0 99.73836494 0 2084.98974951 0 10.64160419 0 1583.01326683 0 26980
0.15950000 0.15949700 8863.87386828 0 46.85176688 0 1670.47844596 0 13.96792070 0 1123.72680120 0 27777
0.16050000 0.16050000 8822.54806845 0 106.88431222 0 2202.53425477 0 -293.73371438 0 1126.21122932 0 28224
0.16150000 0.16150500 8764.66311158 0 110.35907331 0 2213.54781334 0 -173.30660703 0 931.55517728 0 28075
0.16250000 0.16249700 8578.89665389 0 139.99197876 0 2584.34870971 0 -314.23801018 0 389.49954531 0 28590
0.16350000 0.16349900 8561.92712256 0 85.70522800 0 2840.47772083 0 -187.30924318 0 727.13776281 0 29163
0.16450000 0.16449100 8407.87039695 0 170.93530913 0 3186.56743041 0 -134.71035077 0 329.91098058 0 28996
0.16550000 0.16550500 8324.76405822 0 39.86974749 0 3235.67925049 0 0.67507901 0 564.77594892 0 30777
0.16650000 0.16650700 8341.87777511 0 -77.76648196 0 3074.37997327 0 375.45808997 0 452.60069211 0 29211
0.16750000 0.16749900 8578.71919474 0 -109.24119157 0 2863.76923442 0 330.76611187 0 935.61899184 0 30922
0.16850000 0.16850800 8537.19375336 0 -53.33146597 0 2357.12335783 0 358.97102571 0 464.90748424 0 30867
0.16950000 0.16949900 8762.08995388 0 -48.15398432 0 2398.26060731 0 141.79873474 0 1352.54928544 0 30852
0.17050000 0.17049200 8651.96545938 0 96.10599794 0 2021.40391740 0 -130.65319093 0 342.40410483 0 31257
0.17150000 0.17149500 8702.98496535 0 65.10488244 0 2179.46456511 0 -67.60550370 0 553.35312518 0 32608
0.17250000 0.17250900 8479.03151657 0 84.74872318 0 2516.92532346 0 -241.58401545 0 91.48762353 0 32361
0.17350000 0.17350400 8450.23876929 0 171.93240773 0 2505.51248180 0 -359.70969942 0 -286.00536834 0 32508
0.17450000 0.17449800 8460.45376168 0 -10.69256824 0 2517.13605620 0 13.20052078 0 -412.89753439 0 32791
0.17550000 0.17549800 8466.22118409 0 41.15754637 0 2444.01179472 0 124.40108321 0 -550.28086363 0 33633
0.17650000 0.17650100 8211.23456625 0 159.03667304 0 2569.69723854 0 -136.62247313 0 -357.21861659 0 33984
0.17750000 0.17750300 8163.65333135 0 192.62747212 0 2744.74959997 0 -61.90773401 0 -161.74957981 0 34069
0.17850000 0.17849800 7898.72900104 0 118.25988746 0 2920.92217230 0 221.20837753 0 -9.27503563 0 34536
