### header ###
fiducial parameters:
Omega_m = 0.31
Omega_nu = 0
Omega_de = 0.69
Omega_k = 0
H_0 = 100
w_de = -1
zeff = 0
beta = 0
fgrowth = 0
b_1 = 2
gamma = 0.55
Lx = 3500 Ly = 3500 Lz = 3500
nx = 700 ny = 700 nz = 700
xoffset = 1379.75464 yoffset = 22.6059522 zoffset = 368.141391
bins = 400 dk = 0.001
kx_ny = 0.628318531 ky_ny = 0.628318531 kz_ny = 0.628318531
############################
A(data) = 3.40106704 (not used)
A(ran) = 3.40691548 (used)
Ngal = 191747
weighted Ngal = 0
Nran = 9399747
weighted Nran = 0
SN(data) = 6581.41631
SN(ran) = 135.511367
SN(data+ran) = 6716.92768
############################
13 columns: k_central k_mean P_0(k) sigma^{lin}_{P_0(k)} P^img_1(k) sigma^{lin}_{P_1(k)} P_2(k) sigma^{lin}_{P_2(k)} P^img_3(k) sigma^{lin}_{P_3(k)} P_4(k) sigma^{lin}_{P_4(k)} N_modes
### header ###
0.00050000 0 0 0 0 0 0 0 0 0 0 0 0
0.00150000 0.00179520 55923.92234036 0 -15459.24304234 0 -2410.58292712 0 55.13234361 0 8134.01765310 0 3
0.00250000 0.00253879 95600.12844733 0 -20082.49757824 0 -26390.28310663 0 -4252.65328107 0 66037.65210153 0 6
0.00350000 0.00331552 111886.88569397 0 -26014.29153009 0 -16353.30442834 0 -29282.09088694 0 -1408.24927652 0 7
0.00450000 0.00420575 121233.43736224 0 -12528.72698468 0 -25811.43353790 0 -15018.47887562 0 12292.59540165 0 24
0.00550000 0.00557378 129338.88409200 0 9370.59738325 0 -14715.80011090 0 -34756.92752452 0 2768.04111356 0 45
0.00650000 0.00659388 113592.71178461 0 10086.65614943 0 28214.00862083 0 -23743.47986691 0 -42799.37625562 0 40
0.00750000 0.00754703 101180.10963198 0 14137.94874990 0 41440.70462946 0 -6539.12571434 0 23508.45740357 0 57
0.00850000 0.00846663 92911.28957117 0 700.70189488 0 31669.80376595 0 14331.93378452 0 -10277.34709856 0 75
0.00950000 0.00948925 97715.99608914 0 -3171.12848425 0 29660.52252681 0 18810.44820025 0 5012.44463681 0 112
0.01050000 0.01054430 95539.01595214 0 4827.92039318 0 30691.67110709 0 9270.44387481 0 4317.71424237 0 105
0.01150000 0.01145670 92802.37401714 0 2316.66267136 0 20392.05288506 0 3070.49805434 0 13705.05933301 0 144
0.01250000 0.01249090 93971.16435154 0 -196.68795932 0 10114.20668264 0 22472.20687270 0 21884.48434642 0 169
0.01350000 0.01339930 81456.19045108 0 -3057.48808032 0 10246.53575343 0 13549.78257574 0 26938.63188375 0 180
0.01450000 0.01448870 91034.88087147 0 1938.86322972 0 -4450.20968111 0 -8699.70197105 0 12309.67584495 0 267
0.01550000 0.01550050 92914.61693025 0 5131.59736562 0 6346.85981524 0 -1855.10251036 0 -18473.49763696 0 238
0.01650000 0.01653350 81340.84200281 0 2907.12472330 0 14424.87801495 0 -23722.18476877 0 -13351.13923839 0 315
0.01750000 0.01747870 77322.50134847 0 2163.17159680 0 22653.76976674 0 -14148.37447503 0 -26545.00530406 0 297
0.01850000 0.01844180 78467.55652141 0 3438.57051627 0 31863.45606467 0 -13000.76832680 0 -45136.84601246 0 388
0.01950000 0.01947590 77723.00447027 0 3386.24224906 0 34752.38013377 0 -7437.88976784 0 -57146.94862784 0 399
0.02050000 0.02045430 72563.93420981 0 2270.98912233 0 42247.92194335 0 -5349.67248002 0 -38379.75609569 0 462
0.02150000 0.02154770 71878.72006235 0 3164.59576925 0 43754.88287271 0 -3613.90015762 0 -47738.61899257 0 571
0.02250000 0.02255340 73539.62680534 0 769.68026694 0 50296.80356868 0 3801.17501809 0 -36758.22310186 0 510
0.02350000 0.02348930 65587.68224134 0 3224.49932397 0 48143.33676921 0 1448.76541897 0 -48204.89291227 0 555
0.02450000 0.02439640 65191.72651029 0 6981.69774616 0 54939.57861120 0 -7078.46843954 0 -35207.11920865 0 592
0.02550000 0.02547300 58091.69678389 0 1450.70637843 0 48069.80213344 0 9681.36163054 0 -23124.59107720 0 837
0.02650000 0.02652900 58228.22941832 0 -2528.12743238 0 49028.96884553 0 14156.58196077 0 -19818.63800284 0 723
0.02750000 0.02749970 60338.99510954 0 -3596.36497525 0 27543.43485334 0 16936.36865191 0 -16741.82905743 0 826
0.02850000 0.02848090 63148.39529652 0 -203.78299801 0 26615.65622862 0 6516.81022608 0 -20387.72731825 0 831
0.02950000 0.02946900 61098.07662867 0 1401.80529109 0 18369.68403352 0 -5230.75266634 0 -7151.80343376 0 996
0.03050000 0.03053250 60624.92616686 0 -151.35491003 0 14870.74413227 0 2767.84147202 0 -11060.23032634 0 1041
0.03150000 0.03150510 60980.17720511 0 -1208.19735716 0 12467.28175359 0 4320.88632469 0 -14274.37047236 0 1036
0.03250000 0.03246190 62790.59328297 0 -2150.53872347 0 6062.85862619 0 7013.71803175 0 -11669.60286907 0 1059
0.03350000 0.03345080 61996.46358148 0 449.64156076 0 5338.53691828 0 1668.32675375 0 -16122.49661984 0 1302
0.03450000 0.03451200 60080.79204458 0 3304.42248918 0 170.46393326 0 -5676.40805092 0 -11288.50934193 0 1339
0.03550000 0.03553350 57246.65848840 0 3881.40873682 0 10055.16824129 0 -4787.83680741 0 -15166.10270700 0 1365
0.03650000 0.03647120 50524.83857793 0 2116.53311363 0 5463.25742797 0 -3431.00631995 0 -15812.16492923 0 1308
0.03750000 0.03744890 49669.37455732 0 3385.85405717 0 13878.52565328 0 -2582.75157735 0 -16000.38254144 0 1579
0.03850000 0.03847530 44341.93992718 0 1654.79549348 0 11256.56669472 0 -1542.31966523 0 -18145.75276714 0 1662
0.03950000 0.03950240 43744.12441167 0 783.22594577 0 9816.94042204 0 4685.01032050 0 -15790.64800715 0 1683
0.04050000 0.04050350 42669.05469148 0 -48.70322039 0 9842.16180390 0 1304.31366991 0 -15705.24579065 0 1822
0.04150000 0.04152450 42469.96770626 0 976.64200199 0 5259.88924073 0 2221.05655367 0 -11411.84345200 0 1887
0.04250000 0.04250150 41955.00343195 0 380.10086501 0 7182.48168452 0 -349.00336701 0 -10073.26907471 0 1920
0.04350000 0.04349210 38619.21503780 0 630.53232827 0 7039.40524389 0 -607.18979517 0 -8812.17779930 0 2005
0.04450000 0.04448520 38812.42368864 0 2283.01197982 0 8742.49180888 0 -2720.43769626 0 -11459.53559887 0 2151
0.04550000 0.04548030 36605.60823185 0 854.88395102 0 12216.84252650 0 -2815.08997102 0 -11899.07973393 0 2274
0.04650000 0.04648670 36572.55646495 0 256.24990517 0 13264.84972614 0 -1447.83375842 0 -11201.33253392 0 2311
0.04750000 0.04749250 36868.13686362 0 -111.35007176 0 13773.60293015 0 718.70512577 0 -12530.27975225 0 2568
0.04850000 0.04851840 37075.43133458 0 -758.83640368 0 13897.60251203 0 2165.34547140 0 -9314.58683866 0 2493
0.04950000 0.04949480 36615.03574926 0 1113.83345353 0 13818.63318976 0 565.76861105 0 -9487.53187268 0 2644
0.05050000 0.05050630 38016.07574776 0 -791.11955064 0 12095.61574385 0 3828.29299463 0 -3756.45531200 0 2829
0.05150000 0.05149060 35484.62095630 0 -213.53437837 0 9701.03741393 0 2609.65882114 0 -1422.50146459 0 2784
0.05250000 0.05249300 36264.99757357 0 1385.74523791 0 9616.52249318 0 371.45638611 0 -237.05437061 0 3055
0.05350000 0.05348950 36249.46989785 0 -115.55363541 0 10340.10109089 0 -423.36762431 0 -642.00062591 0 3009
0.05450000 0.05448610 34988.95536468 0 -227.55586955 0 10282.81505865 0 959.98746066 0 767.31562375 0 3336
0.05550000 0.05550870 36129.57405884 0 533.49322793 0 10266.41117836 0 -1567.79614462 0 -2427.27517853 0 3349
0.05650000 0.05647670 34839.66785376 0 704.75572736 0 9053.71079524 0 -1661.29493489 0 -4302.41948178 0 3324
0.05750000 0.05747970 34985.40618166 0 245.23301924 0 9945.01047320 0 -355.04252375 0 -5795.35004699 0 3639
0.05850000 0.05849280 34902.88767636 0 -317.94801556 0 8756.06743394 0 1781.87842811 0 -5396.65479029 0 3846
0.05950000 0.05951020 34778.88809448 0 -149.56368173 0 6869.94284571 0 2441.13917471 0 -3391.22219649 0 3787
0.06050000 0.06049470 34492.51338928 0 605.91430752 0 9550.74060408 0 1026.63113576 0 -4654.07697222 0 3930
0.06150000 0.06148310 33853.77135703 0 1077.19146617 0 7746.67978208 0 -1341.79082440 0 -2996.98560097 0 4083
0.06250000 0.06249100 32933.42383427 0 853.07608591 0 9601.26100618 0 -1139.66485122 0 -2104.85408324 0 4303
0.06350000 0.06350600 31603.70023214 0 777.18678903 0 10795.63873195 0 -956.12661500 0 -2281.37048267 0 4470
0.06450000 0.06451750 30918.48608468 0 687.92816335 0 11415.50354699 0 -1870.21981180 0 -2930.38296330 0 4479
0.06550000 0.06550280 30214.63872635 0 590.54523591 0 12986.12794683 0 1480.71915738 0 -3479.66340096 0 4636
0.06650000 0.06648880 30541.93994829 0 -174.26710469 0 12427.02070867 0 128.50371696 0 -2835.66414136 0 4653
0.06750000 0.06749660 29937.91336249 0 -429.20492126 0 11243.47908232 0 2010.20180849 0 -2815.48925411 0 5220
0.06850000 0.06852730 30638.10062583 0 -108.27304099 0 11313.46453506 0 788.20256584 0 -2717.84235618 0 5029
0.06950000 0.06949320 29863.93507885 0 858.19356419 0 10371.31171910 0 -1762.50210704 0 -3025.35688276 0 5040
0.07050000 0.07048030 29815.24472424 0 679.48776248 0 10214.37128228 0 978.37999256 0 -2766.86544669 0 5475
0.07150000 0.07148790 28102.09844362 0 396.75651547 0 10748.39023295 0 -617.67874012 0 -2619.35252728 0 5509
0.07250000 0.07249820 27918.20639822 0 713.37247827 0 10578.38436612 0 544.55891512 0 -3007.74406201 0 5916
0.07350000 0.07351270 27028.13784312 0 936.83015055 0 10904.37682683 0 1096.31712618 0 -2409.60690179 0 5721
0.07450000 0.07449140 25843.04344921 0 677.41703601 0 10419.44751386 0 336.47696918 0 -1091.99932321 0 6028
0.07550000 0.07549160 25168.80958672 0 -107.83549327 0 10570.55398108 0 1122.34040158 0 124.38333730 0 6183
0.07650000 0.07648840 25661.48055516 0 -85.59631245 0 10228.46819361 0 1373.96638675 0 -76.61377386 0 6330
0.07750000 0.07749960 25439.76752817 0 176.55965510 0 9472.64748637 0 221.97256100 0 1523.79736632 0 6583
0.07850000 0.07848650 25732.24239169 0 -58.25118820 0 8767.26954286 0 703.54900514 0 1754.22807412 0 6549
0.07950000 0.07947320 25687.10122011 0 -115.01127587 0 8388.19461356 0 827.17259544 0 2712.34112249 0 6828
0.08050000 0.08048110 25400.72651491 0 333.97812250 0 8716.67150238 0 794.65542423 0 1666.61870942 0 7147
0.08150000 0.08149960 24563.67388123 0 1002.78728056 0 10221.01490926 0 -1646.52146055 0 2757.82612118 0 7386
0.08250000 0.08250610 23700.11328684 0 840.65616357 0 9871.98603249 0 235.29641590 0 1498.88653798 0 7227
0.08350000 0.08350160 22850.74942455 0 434.94683392 0 10872.82237151 0 324.34763619 0 2534.36068506 0 7798
0.08450000 0.08449610 22115.18124294 0 62.51919169 0 9273.70468671 0 979.82073904 0 2565.87077559 0 7371
0.08550000 0.08548940 22272.78715157 0 209.85321010 0 9652.80179840 0 390.12508882 0 1385.44577559 0 8256
0.08650000 0.08650700 21507.60547412 0 472.10788930 0 8054.08339669 0 121.08370620 0 816.11023560 0 8037
0.08750000 0.08749060 20953.37836261 0 101.93264734 0 8137.38937697 0 873.55043548 0 459.11566119 0 8155
0.08850000 0.08849210 21037.11689957 0 -167.95954099 0 7260.35297829 0 470.93444066 0 678.61599440 0 8718
0.08950000 0.08949900 20711.36844520 0 517.39546468 0 6380.94306346 0 147.07925361 0 -1182.09977074 0 8571
0.09050000 0.09049190 20011.07026989 0 838.05971437 0 7306.63654316 0 -1268.78856609 0 106.08230777 0 8932
0.09150000 0.09150830 19114.34699663 0 398.20613491 0 7075.54036354 0 2.93253466 0 -1401.77201750 0 9285
0.09250000 0.09250820 19153.38800989 0 -4.71959267 0 8470.93494280 0 688.76554872 0 103.71156442 0 9204
0.09350000 0.09350330 19091.49913091 0 -327.65392201 0 6146.30879202 0 1526.80308070 0 -764.18901533 0 9349
0.09450000 0.09448040 19357.13329782 0 -58.02126768 0 7135.48828305 0 1076.84098434 0 654.01128309 0 9564
0.09550000 0.09549270 19120.77989086 0 177.80519652 0 5347.01059275 0 -26.58615364 0 1144.13460359 0 10155
0.09650000 0.09649430 19242.22849744 0 142.24903734 0 5927.90094172 0 1147.59505704 0 1746.45314506 0 9913
0.09750000 0.09749140 18869.56427998 0 -168.74036125 0 4828.31967627 0 784.32730163 0 1819.04502908 0 10476
0.09850000 0.09850240 18883.31736420 0 228.78366505 0 4900.56773319 0 -81.93688293 0 1059.93910931 0 10575
0.09950000 0.09950330 18326.31745346 0 714.04571393 0 5065.10563992 0 -189.35224166 0 2202.06842449 0 10882
0.10050000 0.10051200 17448.56012697 0 630.92052016 0 5900.17294935 0 -1089.58144228 0 1622.79739028 0 10875
0.10150000 0.10150300 16917.51361709 0 347.55374757 0 5685.62483558 0 -174.32366979 0 1138.91064983 0 11118
0.10250000 0.10250800 16456.11982405 0 267.33888388 0 5733.64971837 0 740.72004259 0 1081.13660492 0 11575
0.10350000 0.10349800 16112.29271865 0 204.52943556 0 5720.20718767 0 139.86443000 0 703.13086701 0 11364
0.10450000 0.10450100 15791.31347897 0 150.10382302 0 5397.25371493 0 654.43053033 0 1868.93323296 0 12093
0.10550000 0.10551000 15917.75312418 0 1.69373669 0 4703.11115392 0 841.58227852 0 1978.50316761 0 12067
0.10650000 0.10649700 15487.19285865 0 -32.01241084 0 4213.36826148 0 715.25798175 0 2445.77529504 0 12054
0.10750000 0.10749900 15387.59391006 0 273.97474701 0 4240.14241091 0 -440.61332644 0 1179.13842116 0 12807
0.10850000 0.10850100 15201.81636117 0 305.56358504 0 3767.52432655 0 -145.82373012 0 1780.14820139 0 12736
0.10950000 0.10950300 14878.72979407 0 180.04561830 0 5051.23055254 0 -444.96883949 0 1023.21061062 0 12933
0.11050000 0.11050200 14741.86442373 0 119.40560811 0 4036.06438706 0 -132.53536705 0 229.71088911 0 13428
0.11150000 0.11150900 14639.82541181 0 257.24034906 0 5273.97506085 0 -319.65716901 0 9.30156577 0 13453
0.11250000 0.11250000 14356.00168190 0 179.97574376 0 4090.28924894 0 -308.47613336 0 -1378.08122082 0 13668
0.11350000 0.11349100 14209.04332234 0 87.65738958 0 5332.12620645 0 209.94193967 0 201.01130789 0 13791
0.11450000 0.11448600 14076.72534275 0 20.90967905 0 4869.55674653 0 -396.65891294 0 -1566.47629218 0 14205
0.11550000 0.11549300 14145.04711595 0 64.76005713 0 5049.40050504 0 397.50517127 0 -735.45172404 0 14776
0.11650000 0.11649800 14121.09013054 0 -93.80335454 0 4753.55391764 0 62.34095616 0 -1084.77229928 0 14553
0.11750000 0.11747300 14368.75655839 0 19.10536313 0 4891.71695803 0 -333.39028907 0 -919.46244525 0 14568
0.11850000 0.11849100 14379.95866731 0 79.58699103 0 5233.33691523 0 -8.92769262 0 -721.77295084 0 16015
0.11950000 0.11950300 14417.00326512 0 55.28518031 0 5109.34842455 0 184.89801696 0 -1345.72819932 0 15270
0.12050000 0.12050700 14244.75697651 0 140.29920492 0 5633.75130746 0 -412.54927081 0 -1043.15923745 0 15999
0.12150000 0.12150000 14240.09867379 0 54.88556448 0 5430.23893465 0 440.59003493 0 -979.27394303 0 15670
0.12250000 0.12250700 13925.55232834 0 199.95098946 0 5990.69929884 0 244.34350525 0 -418.83908860 0 16887
0.12350000 0.12352200 14085.48738833 0 68.97482288 0 5320.14771374 0 -46.01482516 0 -977.98514594 0 16407
0.12450000 0.12449800 13611.89327865 0 131.02918251 0 5388.40293976 0 537.49936827 0 -390.87596285 0 16306
0.12550000 0.12549900 13508.63423506 0 162.61580230 0 5170.25018699 0 240.63460899 0 -189.55964704 0 17523
0.12650000 0.12650100 13415.91182857 0 24.95608043 0 5025.21060450 0 396.56907424 0 -221.86164903 0 17154
0.12750000 0.12750600 13366.44509018 0 87.67269543 0 4618.59623318 0 386.74781935 0 -165.21114238 0 18007
0.12850000 0.12850300 13018.29241798 0 303.10244844 0 4541.27949925 0 -325.92591352 0 -842.27104185 0 17496
0.12950000 0.12949900 12767.85319089 0 398.56770793 0 4719.91431730 0 -179.90586922 0 -269.02030934 0 18405
0.13050000 0.13049000 12084.08089903 0 174.82610102 0 4342.65834430 0 152.40857374 0 -340.75373472 0 18100
0.13150000 0.13148800 12245.34690265 0 49.55568979 0 4756.31562568 0 606.69623691 0 56.25643642 0 19059
0.13250000 0.13249300 12183.45802368 0 -27.00584454 0 4213.42371746 0 556.64942892 0 -60.43637582 0 18957
0.13350000 0.13349100 12004.44610494 0 37.72726098 0 3584.83013042 0 546.32463368 0 320.55222860 0 19468
0.13450000 0.13450700 11920.04209616 0 131.59705179 0 3696.21902137 0 -150.79480459 0 704.67365251 0 19953
0.13550000 0.13551000 11489.14909472 0 300.91859176 0 3451.94649979 0 24.82298607 0 267.73483961 0 19956
0.13650000 0.13649900 11282.29827164 0 202.57516666 0 3866.84599523 0 -5.70842834 0 1155.72490440 0 19723
0.13750000 0.13749600 11226.73137493 0 -166.00859944 0 3114.71865658 0 497.29821581 0 264.72468876 0 20946
0.13850000 0.13851100 11504.89859439 0 -142.91561828 0 2862.92630346 0 450.65751440 0 723.84034995 0 20955
0.13950000 0.13949800 11573.44219153 0 40.91176545 0 2838.81404129 0 89.37785605 0 0.82563979 0 20506
0.14050000 0.14048300 11460.53380660 0 129.49748821 0 2527.47305176 0 -384.51848876 0 306.32998675 0 21447
0.14150000 0.14148400 11326.44123549 0 117.66650842 0 2767.93020160 0 -512.41108077 0 -259.26338338 0 21771
0.14250000 0.14249400 11292.39126086 0 52.08281901 0 3204.04715680 0 -2.41743729 0 -589.97958487 0 22470
0.14350000 0.14350900 11294.72041222 0 92.85783000 0 3199.78813717 0 76.16835139 0 -405.39323053 0 22519
0.14450000 0.14449900 11084.86387477 0 173.80682002 0 3423.00956695 0 -239.65636542 0 -536.95811785 0 22218
0.14550000 0.14550500 11111.60475061 0 209.21657539 0 3801.05301493 0 -83.60577533 0 -174.05526283 0 23559
0.14650000 0.14650700 10728.12661612 0 159.83413010 0 3915.00397237 0 -61.53085513 0 -227.68896391 0 23044
0.14750000 0.14750500 10652.46247054 0 76.80287877 0 4034.63362266 0 258.18310080 0 350.08586783 0 23649
0.14850000 0.14849900 10446.39912244 0 128.73774122 0 3986.06527122 0 -49.60360376 0 557.08531296 0 23640
0.14950000 0.14949500 10371.11207756 0 195.22059396 0 3825.32055385 0 155.22795601 0 32.58371839 0 24457
0.15050000 0.15050000 10305.51873880 0 79.29995085 0 4335.71525501 0 47.95667192 0 329.60486355 0 24591
0.15150000 0.15149900 9924.62485321 0 184.03955832 0 3756.66604474 0 21.90733221 0 346.84280185 0 25020
0.15250000 0.15250500 9864.88766645 0 161.33587817 0 3877.78191542 0 23.89964392 0 328.85620775 0 25297
0.15350000 0.15350100 9513.72927987 0 82.42933207 0 3440.05673666 0 297.15867600 0 -244.34128701 0 25452
0.15450000 0.15450400 9567.43285549 0 63.96215642 0 3400.84935545 0 422.00673444 0 241.22687891 0 26061
0.15550000 0.15549900 9371.34049345 0 132.29136072 0 2962.94671754 0 235.55594991 0 -304.19936782 0 26128
0.15650000 0.15649500 9192.87204335 0 32.48389762 0 2500.21088966 0 124.37446434 0 146.88072119 0 26331
0.15750000 0.15749700 9032.32696753 0 4.46503861 0 2496.88353057 0 440.27726318 0 14.27425956 0 27345
0.15850000 0.15849900 9203.96324030 0 -90.01338163 0 1911.32378769 0 510.59545183 0 731.77721049 0 26980
0.15950000 0.15949700 9160.87394016 0 -38.51928335 0 1918.81034563 0 305.43492716 0 260.20613512 0 27777
0.16050000 0.16050000 9227.54312501 0 78.23042673 0 1696.78676512 0 59.90810211 0 820.34041812 0 28224
0.16150000 0.16150500 9175.91360322 0 98.95765559 0 1773.12747372 0 -119.68621539 0 675.07235697 0 28075
0.16250000 0.16249700 9074.47351593 0 159.81527507 0 2142.37560252 0 -271.62008590 0 649.10786492 0 28590
0.16350000 0.16349900 8826.36344020 0 168.07710767 0 2435.44939068 0 -470.75587239 0 586.00228164 0 29163
0.16450000 0.16449100 8723.62568287 0 198.12205109 0 2924.83736482 0 -323.58788920 0 360.06461773 0 28996
0.16550000 0.16550500 8618.95805727 0 186.30548986 0 2914.72219321 0 -206.22749782 0 142.27676533 0 30777
0.16650000 0.16650700 8386.13165093 0 65.90954878 0 3401.22645614 0 -16.21699362 0 124.41106529 0 29211
0.16750000 0.16749900 8413.56018098 0 62.34772179 0 3144.97544185 0 274.42283137 0 288.46983231 0 30922
0.16850000 0.16850800 8344.50638878 0 -15.91897316 0 2884.78705264 0 426.34450157 0 367.80960056 0 30867
0.16950000 0.16949900 8356.89525577 0 1.12265096 0 2729.33283622 0 276.30057102 0 794.65542423 0 30852
0.17050000 0.17049200 8264.35030844 0 109.82880319 0 2597.39195732 0 -98.72651504 0 418.31780234 0 31257
0.17150000 0.17149500 8234.70353900 0 143.53228883 0 2709.05812819 0 -131.61479771 0 718.77278207 0 32608
0.17250000 0.17250900 8082.05539540 0 -6.99064834 0 2457.83142612 0 130.65651829 0 473.96344655 0 32361
0.17350000 0.17350400 8101.20989253 0 -13.77615391 0 2592.58946904 0 229.13525599 0 449.07590972 0 32508
0.17450000 0.17449800 8025.16864625 0 54.36982382 0 2154.27645684 0 42.39099838 0 107.62864245 0 32791
0.17550000 0.17549800 8062.71234792 0 35.07635400 0 2085.63303893 0 164.66212813 0 101.25530795 0 33633
0.17650000 0.17650100 8018.62484005 0 38.56819553 0 2068.95187872 0 15.07094024 0 102.92719498 0 33984
0.17750000 0.17750300 7813.79261481 0 175.42835301 0 1963.35259258 0 -144.48835000 0 -94.44398208 0 34069
