### header ###
fiducial parameters:
Omega_m = 0.31
Omega_nu = 0
Omega_de = 0.69
Omega_k = 0
H_0 = 100
w_de = -1
zeff = 0
beta = 0
fgrowth = 0
b_1 = 2
gamma = 0.55
Lx = 3500 Ly = 3500 Lz = 3500
nx = 700 ny = 700 nz = 700
xoffset = 1379.75464 yoffset = 22.6059522 zoffset = 368.141391
bins = 400 dk = 0.001
kx_ny = 0.628318531 ky_ny = 0.628318531 kz_ny = 0.628318531
############################
A(data) = 3.31588279 (not used)
A(ran) = 3.30906877 (used)
Ngal = 185842
weighted Ngal = 0
Nran = 9399747
weighted Nran = 0
SN(data) = 6715.04021
SN(ran) = 131.619477
SN(data+ran) = 6846.65968
############################
13 columns: k_central k_mean P_0(k) sigma^{lin}_{P_0(k)} P^img_1(k) sigma^{lin}_{P_1(k)} P_2(k) sigma^{lin}_{P_2(k)} P^img_3(k) sigma^{lin}_{P_3(k)} P_4(k) sigma^{lin}_{P_4(k)} N_modes
### header ###
0.00050000 0 0 0 0 0 0 0 0 0 0 0 0
0.00150000 0.00179520 30780.40068268 0 -3346.09211611 0 -18939.32790878 0 27086.03389119 0 -77900.46362144 0 3
0.00250000 0.00253879 45886.61092616 0 -5658.29612630 0 7208.95637163 0 -6642.82840581 0 67762.88778683 0 6
0.00350000 0.00331552 40474.43955133 0 1203.16195375 0 12945.64507797 0 -20930.08684902 0 -63068.53867850 0 7
0.00450000 0.00420575 41475.08734000 0 3212.02172740 0 17683.13894243 0 2265.95371892 0 12767.85319089 0 24
0.00550000 0.00557378 38674.56011057 0 -435.67108908 0 29776.42553492 0 4438.84120424 0 -2912.75905135 0 45
0.00650000 0.00659388 55986.69851509 0 2879.90692598 0 49222.06658439 0 -15429.96228240 0 4278.46249637 0 40
0.00750000 0.00754703 45044.01269400 0 4117.42940788 0 20499.41567152 0 25793.46579885 0 -8345.07203983 0 57
0.00850000 0.00846663 54207.22687671 0 -5519.52307009 0 55775.96577307 0 10261.70851086 0 16410.09135671 0 75
0.00950000 0.00948925 61182.59154942 0 -12339.95481262 0 25985.45441802 0 17352.28853746 0 18309.01518622 0 112
0.01050000 0.01054430 79341.21010502 0 -11228.28414250 0 -4964.04265333 0 41607.73805550 0 10004.79202475 0 105
0.01150000 0.01145670 84208.13823787 0 -6324.47777980 0 -12340.28754853 0 5835.04544087 0 20626.40987658 0 144
0.01250000 0.01249090 88893.94712455 0 3325.47358099 0 -19514.18464661 0 -4673.43111089 0 11128.13063406 0 169
0.01350000 0.01339930 105014.00368107 0 -4559.23614711 0 2049.89720236 0 -661.65089954 0 21925.74359906 0 180
0.01450000 0.01448870 81236.36292756 0 6205.34723338 0 -11439.79326831 0 -30828.31465349 0 -5193.88552769 0 267
0.01550000 0.01550050 82455.84003202 0 6943.84349098 0 3104.39275222 0 -5177.02690832 0 -21706.35972343 0 238
0.01650000 0.01653350 76362.89098851 0 -317.93026964 0 13336.27703448 0 -11797.48436989 0 -24219.40312796 0 315
0.01750000 0.01747870 74852.71361204 0 4303.97224935 0 25074.09076479 0 -6928.11617371 0 -32531.58976883 0 297
0.01850000 0.01844180 74222.17906554 0 4587.33014898 0 23206.88775855 0 -5084.78142331 0 -30283.95870727 0 388
0.01950000 0.01947590 65512.92757391 0 3263.68452279 0 24409.83897956 0 -4586.45394442 0 -29611.38852433 0 399
0.02050000 0.02045430 63446.63758246 0 5221.34733133 0 36486.37786466 0 118.44289221 0 -26002.53486132 0 462
0.02150000 0.02154770 58013.83658131 0 1233.15255029 0 29626.91620006 0 1595.85687290 0 -23522.09957582 0 571
0.02250000 0.02255340 55111.82489981 0 2873.90658844 0 35859.94706102 0 3972.67819651 0 -18212.18903686 0 510
0.02350000 0.02348930 55473.95248017 0 606.04740188 0 32922.44354929 0 6036.47266865 0 -11255.45757503 0 555
0.02450000 0.02439640 51957.15575183 0 -348.48429899 0 24923.58322220 0 9105.47341140 0 -13249.10022647 0 592
0.02550000 0.02547300 53512.69612381 0 -1131.22445034 0 20991.97572799 0 6911.62356385 0 -958.65762614 0 837
0.02650000 0.02652900 55827.09619100 0 -1551.85809460 0 14933.29848306 0 6998.82255425 0 -486.89134571 0 723
0.02750000 0.02749970 57183.43866580 0 912.13338230 0 16232.29946963 0 -96.62506596 0 2113.76031439 0 826
0.02850000 0.02848090 55805.57926892 0 2089.83660257 0 14544.55203002 0 -4142.06295630 0 -3167.14674455 0 831
0.02950000 0.02946900 51352.68551815 0 2539.03007898 0 21751.50089501 0 -6592.25254772 0 -365.90967852 0 996
0.03050000 0.03053250 50027.17657087 0 2116.21146892 0 24975.15728801 0 727.68344970 0 -791.41124912 0 1041
0.03150000 0.03150510 50938.76204804 0 -1638.66889312 0 23407.52751135 0 3272.01401170 0 -2962.74707599 0 1036
0.03250000 0.03246190 51816.18663861 0 -798.60389034 0 24160.06522428 0 6435.99976511 0 -826.79216739 0 1059
0.03350000 0.03345080 52130.51116013 0 -381.39298946 0 16125.38033105 0 3201.99528536 0 -4946.57401813 0 1302
0.03450000 0.03451200 51931.09143900 0 857.59463955 0 15333.35795698 0 3223.90039933 0 284.25961395 0 1339
0.03550000 0.03553350 49362.25931382 0 -18.06722709 0 12630.98782054 0 1187.77846358 0 -2702.91360508 0 1365
0.03650000 0.03647120 49400.85667920 0 861.46103081 0 12053.80193136 0 1873.93536278 0 4172.63029509 0 1308
0.03750000 0.03744890 49023.64507099 0 321.98188389 0 7627.26086454 0 1075.43018409 0 -6990.67052450 0 1579
0.03850000 0.03847530 48075.90229177 0 1605.31766389 0 11456.09732782 0 -4530.19939350 0 -6350.10953595 0 1662
0.03950000 0.03950240 44844.14932499 0 2499.24595552 0 11805.02638381 0 -2569.66396495 0 -8855.64420014 0 1683
0.04050000 0.04050350 43046.82085953 0 964.24758940 0 17300.60355969 0 -1835.71509810 0 -4297.66135829 0 1822
0.04150000 0.04152450 43193.11374728 0 -340.93563035 0 15741.95765255 0 1935.22531712 0 -6878.88235045 0 1887
0.04250000 0.04250150 42887.55127136 0 302.37597504 0 16211.89166725 0 -135.15288953 0 -10639.33049336 0 1920
0.04350000 0.04349210 44216.94213757 0 1074.55730689 0 16736.28345896 0 -1909.58246977 0 -8809.23863211 0 2005
0.04450000 0.04448520 42775.75200612 0 -340.40990762 0 18612.47033472 0 625.91395386 0 -3936.56525924 0 2151
0.04550000 0.04548030 43795.03300566 0 -329.02590307 0 21770.02319391 0 262.47539402 0 -5777.89250299 0 2274
0.04650000 0.04648670 44627.42733662 0 354.04764338 0 16761.68229997 0 -1222.58263960 0 -8744.17767081 0 2311
0.04750000 0.04749250 44365.23144077 0 387.05504550 0 19405.60182849 0 925.22321294 0 -5579.12716249 0 2568
0.04850000 0.04851840 42841.85553993 0 -95.19729617 0 19363.56619205 0 2203.12208820 0 -3886.17795151 0 2493
0.04950000 0.04949480 43235.70394356 0 1433.47065838 0 18431.79473643 0 1254.51419562 0 -9534.82473646 0 2644
0.05050000 0.05050630 40511.92779702 0 2640.59216943 0 17799.59651039 0 -1928.34877501 0 -4118.73816912 0 2829
0.05150000 0.05149060 37191.77799057 0 2278.61986583 0 19248.43956773 0 -394.19666722 0 -6800.96669189 0 2784
0.05250000 0.05249300 34189.05824077 0 1191.68256490 0 20169.11982640 0 2450.15631783 0 -2445.87511581 0 3055
0.05350000 0.05348950 33421.99105983 0 379.81693037 0 16862.83401614 0 4025.96030664 0 -4205.57115002 0 3009
0.05450000 0.05448610 32819.07359373 0 -170.71681255 0 13852.12860454 0 4521.07133841 0 336.41153112 0 3336
0.05550000 0.05550870 32282.81422128 0 -120.64893128 0 12278.06593365 0 3944.75056259 0 1718.24823122 0 3349
0.05650000 0.05647670 32484.34126983 0 225.52285315 0 7793.80627791 0 -68.38111110 0 1936.61171674 0 3324
0.05750000 0.05747970 31331.74408297 0 187.45010138 0 7779.15480674 0 124.26022501 0 2250.65895832 0 3639
0.05850000 0.05849280 31832.84436109 0 66.80305560 0 8103.47249670 0 421.45661107 0 797.42045963 0 3846
0.05950000 0.05951020 31196.43148020 0 -7.94460219 0 7604.00262453 0 232.93066359 0 3827.66079641 0 3787
0.06050000 0.06049470 31935.10519696 0 274.25868166 0 6779.18358109 0 356.87146213 0 -1797.58356299 0 3930
0.06150000 0.06148310 30920.14976422 0 453.42809540 0 7734.57928621 0 -43.65739125 0 602.97957681 0 4083
0.06250000 0.06249100 29794.39327398 0 918.27568717 0 8920.01750723 0 -1907.92988143 0 -2061.95333345 0 4303
0.06350000 0.06350600 30329.32170279 0 -414.00110849 0 9296.51927883 0 514.62932016 0 325.92147704 0 4470
0.06450000 0.06451750 30286.62059454 0 -379.22133310 0 7266.65277816 0 1056.09046397 0 -5401.01363069 0 4479
0.06550000 0.06550280 31098.82894706 0 92.29373173 0 8045.02188879 0 -876.87668544 0 -3366.34464174 0 4636
0.06650000 0.06648880 29780.86201370 0 1193.83425711 0 8498.41892883 0 -1992.27843422 0 -4983.79607509 0 4653
0.06750000 0.06749660 29266.45229924 0 791.98244576 0 9203.87451073 0 1273.12522410 0 -1289.66219875 0 5220
0.06850000 0.06852730 28782.98702427 0 -661.40911145 0 8261.18931731 0 2860.80788484 0 -756.02589438 0 5029
0.06950000 0.06949320 29084.44575732 0 -175.88641944 0 7648.95524577 0 2374.04852437 0 197.89135419 0 5040
0.07050000 0.07048030 29368.15857526 0 318.79760124 0 4965.80615364 0 944.72264630 0 1945.24066796 0 5475
0.07150000 0.07148790 27987.63729111 0 1218.91145341 0 7098.02221976 0 -1497.61105033 0 3249.65415865 0 5509
0.07250000 0.07249820 26506.40793868 0 1715.53088797 0 9130.92770840 0 -2591.19197823 0 2500.85417908 0 5916
0.07350000 0.07351270 25231.47484948 0 517.18916841 0 10819.71772052 0 75.61745164 0 2025.38565711 0 5721
0.07450000 0.07449140 24955.08222153 0 61.25645892 0 10169.84012654 0 455.69735429 0 1078.78748941 0 6028
0.07550000 0.07549160 24230.16158900 0 242.11528378 0 10370.23587300 0 1524.58484131 0 2379.81594679 0 6183
0.07650000 0.07648840 24008.33765003 0 418.45644230 0 9828.28671652 0 -108.23688369 0 1080.30254691 0 6330
0.07750000 0.07749960 23705.76979728 0 323.12094981 0 9146.36665455 0 491.29787826 0 1817.17061680 0 6583
0.07850000 0.07848650 22878.92106479 0 111.98116087 0 8145.04230287 0 824.41532388 0 689.50644068 0 6549
0.07950000 0.07947320 23067.80414882 0 222.27645980 0 8773.96862582 0 588.47783680 0 3096.92837667 0 6828
0.08050000 0.08048110 22342.88351629 0 451.15329090 0 7804.74219810 0 211.13424335 0 -56.75498573 0 7147
0.08150000 0.08149960 21926.74180679 0 363.70696680 0 7422.99429034 0 115.00462116 0 1700.66868406 0 7386
0.08250000 0.08250610 21691.71934346 0 -42.44323792 0 7012.36490573 0 205.63190054 0 19.50020974 0 7227
0.08350000 0.08350160 21707.13610721 0 -124.08609322 0 6249.07982295 0 1397.54627146 0 1596.04542324 0 7798
0.08450000 0.08449610 21345.45217473 0 224.69212250 0 6945.81772404 0 419.57110759 0 1044.90721009 0 7371
0.08550000 0.08548940 21127.84289061 0 400.26798843 0 5957.88044707 0 -1095.04052942 0 -752.92701395 0 8256
0.08650000 0.08650700 20998.51953419 0 159.57348697 0 7004.41251751 0 187.33918941 0 -74.18957095 0 8037
0.08750000 0.08749060 20453.49811616 0 365.47046712 0 7310.52955329 0 -332.87233017 0 -794.78519123 0 8155
0.08850000 0.08849210 20362.55030118 0 458.29047614 0 6964.63948526 0 -412.36959342 0 -117.67759962 0 8718
0.08950000 0.08949900 19703.62229049 0 177.96158239 0 7188.69275481 0 1216.14974537 0 -393.11971199 0 8571
0.09050000 0.09049190 19723.58644499 0 -42.86803076 0 6445.92638638 0 1000.65555251 0 804.15947089 0 8932
0.09150000 0.09150830 19332.51084060 0 108.34258280 0 5980.06284097 0 3.55239947 0 -279.01569603 0 9285
0.09250000 0.09250820 19448.63567265 0 378.66566413 0 6576.44759207 0 128.22089144 0 538.61736092 0 9204
0.09350000 0.09350330 18452.97892261 0 254.12815920 0 5827.83616285 0 -261.22097964 0 141.08224342 0 9349
0.09450000 0.09448040 18611.36121503 0 398.57103529 0 5682.18656453 0 -604.40035914 0 -559.91245906 0 9564
0.09550000 0.09549270 17792.27632040 0 309.05842120 0 6772.66195728 0 57.60135497 0 -1338.60765088 0 10155
0.09650000 0.09649430 17600.84226107 0 262.61847046 0 5293.19610516 0 -98.95188817 0 -2380.18195629 0 9913
0.09750000 0.09749140 17102.73660613 0 316.06140295 0 6235.08273240 0 -115.09445985 0 -1953.62561285 0 10476
0.09850000 0.09850240 17111.05500384 0 14.00585259 0 5370.33537994 0 615.44940954 0 -3195.00783128 0 10575
0.09950000 0.09950330 16688.92404799 0 -148.83720833 0 4909.76233546 0 866.67611161 0 -3039.17651416 0 10882
0.10050000 0.10051200 16893.33480775 0 34.49683896 0 4070.11436170 0 177.51238892 0 -2555.35632089 0 10875
0.10150000 0.10150300 16696.24423798 0 210.88912789 0 3916.29055122 0 322.74163088 0 -1982.78436963 0 11118
0.10250000 0.10250800 16586.55230016 0 105.48859600 0 3442.79626230 0 78.88636012 0 -1852.20770796 0 11575
0.10350000 0.10349800 16189.70927335 0 92.29450811 0 4176.19056931 0 434.86475907 0 -2464.38632352 0 11364
0.10450000 0.10450100 16266.46035623 0 268.27498090 0 4213.36826148 0 -642.80695593 0 -1397.40208590 0 12093
0.10550000 0.10551000 16051.62387135 0 361.61073058 0 4660.77605517 0 -626.04482998 0 -2240.76561065 0 12067
0.10650000 0.10649700 15519.57915374 0 488.48404159 0 6020.84517215 0 -1234.91605061 0 -2007.68410678 0 12054
0.10750000 0.10749900 15467.22870414 0 86.07112659 0 6543.83947304 0 -425.40174983 0 -2258.71116731 0 12807
0.10850000 0.10850100 15094.89722259 0 161.53219235 0 6372.11447069 0 201.94407755 0 -2704.08927196 0 12736
0.10950000 0.10950300 15276.79285254 0 19.32740889 0 6842.91359875 0 326.53260199 0 -1960.80161728 0 12933
0.11050000 0.11050200 15110.97945817 0 89.62374788 0 6381.70835605 0 868.25438894 0 -2272.68607546 0 13428
0.11150000 0.11150900 15039.44123785 0 196.56928351 0 6240.75033404 0 663.13490170 0 -285.95545796 0 13453
0.11250000 0.11250000 14570.39451891 0 61.26788285 0 5993.02845020 0 616.00618762 0 -814.70830831 0 13668
0.11350000 0.11349100 14677.97912931 0 154.79096285 0 5735.52413065 0 290.06918291 0 433.75342113 0 13791
0.11450000 0.11448600 14253.51902210 0 167.20755783 0 5221.63570245 0 140.61752227 0 -482.92291544 0 14205
0.11550000 0.11549300 14075.39439911 0 233.75695776 0 5389.04622919 0 -289.02661039 0 737.80083955 0 14776
0.11650000 0.11649800 13822.62602066 0 140.61197667 0 5102.59388561 0 661.87383260 0 -68.53561148 0 14553
0.11750000 0.11747300 13901.37351899 0 -179.58977011 0 4594.79452453 0 666.11621544 0 401.19964897 0 14568
0.11850000 0.11849100 14046.22455114 0 -202.37996159 0 3828.44827139 0 877.42569969 0 439.06166799 0 16015
0.11950000 0.11950300 13881.29845252 0 85.57002631 0 3611.46009430 0 582.47639013 0 914.84739820 0 15270
0.12050000 0.12050700 13980.78648914 0 109.73929723 0 3173.91237469 0 195.35479745 0 1244.19938245 0 15999
0.12150000 0.12150000 13618.76982075 0 133.15092848 0 3135.52574205 0 157.89538887 0 1322.31468256 0 15670
0.12250000 0.12250700 13543.79332938 0 198.84408801 0 2684.30257661 0 113.85557315 0 1730.80346616 0 16887
0.12350000 0.12352200 13478.46617936 0 98.49803639 0 3184.73738291 0 122.24606364 0 1206.78877515 0 16407
0.12450000 0.12449800 13256.08768055 0 80.17793000 0 3102.93980542 0 -190.02769555 0 2007.77283636 0 16306
0.12550000 0.12549900 13164.69621769 0 190.68651265 0 3241.55758488 0 -186.95987048 0 1253.99290936 0 17523
0.12650000 0.12650100 12970.60027110 0 155.32999502 0 3507.73522044 0 -370.96504609 0 1324.30000681 0 17154
0.12750000 0.12750600 12804.01049294 0 272.30219452 0 3874.47673873 0 -300.75555117 0 1003.59915618 0 18007
0.12850000 0.12850300 12802.12498946 0 -149.24758261 0 3526.65680243 0 354.03655219 0 1083.79405571 0 17496
0.12950000 0.12949900 12896.17833958 0 -191.12128757 0 3806.37678946 0 964.88089675 0 1265.50557179 0 18405
0.13050000 0.13049000 12976.03495760 0 -30.37113552 0 3010.02884858 0 190.50683526 0 840.75931170 0 18100
0.13150000 0.13148800 13185.10402008 0 140.65745058 0 3066.72704738 0 132.41890948 0 1316.51398656 0 19059
0.13250000 0.13249300 12661.04496427 0 201.35069852 0 2459.04036659 0 -275.78261212 0 1205.46892271 0 18957
0.13350000 0.13349100 12541.37094920 0 134.71367813 0 3407.04933454 0 -111.95676023 0 1232.38725770 0 19468
0.13450000 0.13450700 12509.65012593 0 66.46377589 0 2909.20986832 0 91.64611674 0 574.48851009 0 19953
0.13550000 0.13551000 12378.77400194 0 79.08045606 0 3244.06419539 0 -62.85192760 0 342.85662566 0 19956
0.13650000 0.13649900 12480.81301387 0 78.75648220 0 2885.95162832 0 -285.88891078 0 20.11932035 0 19723
0.13750000 0.13749600 12119.23999335 0 316.50615995 0 3466.26523505 0 -443.33732441 0 -792.33625495 0 20946
0.13850000 0.13851100 11920.15300813 0 321.65247534 0 3933.40426811 0 -817.29255720 0 -544.90606959 0 20955
0.13950000 0.13949800 11559.13454747 0 316.79120371 0 4075.89287531 0 -185.07658524 0 -918.61729604 0 20506
0.14050000 0.14048300 11100.51355366 0 228.56295023 0 4431.92029734 0 -116.18361539 0 -1018.65323779 0 21447
0.14150000 0.14148400 11018.81579694 0 53.20990645 0 4601.21632756 0 55.58464263 0 -909.11879497 0 21771
0.14250000 0.14249400 11018.17250752 0 -57.79644912 0 4157.53517604 0 757.51322389 0 -1024.10234286 0 22470
0.14350000 0.14350900 11021.44441062 0 39.79565830 0 3818.12236703 0 416.90256561 0 -554.15945520 0 22519
0.14450000 0.14449900 10897.55574070 0 53.47221325 0 3314.27147207 0 539.86844793 0 -274.47717824 0 22218
0.14550000 0.14550500 10840.87972430 0 10.78917256 0 2915.22129707 0 318.61570561 0 -1.49786615 0 23559
0.14650000 0.14650700 10685.22586633 0 169.63542084 0 2849.21758403 0 323.53021498 0 127.50218188 0 23044
0.14750000 0.14750500 10394.32595277 0 228.72377259 0 2454.95880611 0 208.72856273 0 471.19175643 0 23649
0.14850000 0.14849900 10184.68014805 0 85.61073100 0 2792.34192608 0 -94.66602784 0 474.37492995 0 23640
0.14950000 0.14949500 9950.06805901 0 228.94337829 0 2604.09104028 0 -102.28845294 0 -21.79276015 0 24457
0.15050000 0.15050000 9839.85483493 0 120.74431558 0 2847.70918124 0 -91.16775341 0 58.04467011 0 24591
0.15150000 0.15149900 9594.04063697 0 12.40472740 0 2780.18597422 0 44.17446285 0 355.53497289 0 25020
0.15250000 0.15250500 9848.68342770 0 -18.60093549 0 2688.00703639 0 346.89382135 0 46.88659324 0 25297
0.15350000 0.15350100 9811.87174503 0 -116.91896175 0 2458.58562751 0 188.74444407 0 255.27166160 0 25452
0.15450000 0.15450400 9874.11554231 0 59.90100374 0 2344.05792783 0 430.65897718 0 293.31224889 0 26061
0.15550000 0.15549900 9913.41165309 0 -29.32545747 0 2105.66374062 0 132.38674501 0 598.42996782 0 26128
0.15650000 0.15649500 9675.59420813 0 174.56767613 0 2174.49570888 0 -194.71372626 0 404.18207183 0 26331
0.15750000 0.15749700 9780.80530238 0 167.92515827 0 2243.82678100 0 -120.03447897 0 321.54932720 0 27345
0.15850000 0.15849900 9363.11082531 0 237.93057517 0 2809.38909579 0 -481.09064971 0 246.66378365 0 26980
0.15950000 0.15949700 9231.07012564 0 177.57893610 0 2482.77552806 0 -135.04086844 0 142.11927034 0 27777
0.16050000 0.16050000 8978.59011831 0 81.40727827 0 3096.47363760 0 163.12377912 0 725.79461886 0 28224
0.16150000 0.16150500 9105.08521951 0 -13.87475465 0 2433.88553191 0 527.51840013 0 10.87323275 0 28075
0.16250000 0.16249700 9057.30434305 0 -58.27769616 0 2436.28123045 0 592.41853907 0 698.30508722 0 28590
0.16350000 0.16349900 8863.56331476 0 164.58005328 0 2084.43518966 0 -127.44561677 0 970.12370555 0 29163
0.16450000 0.16449100 8787.53315968 0 193.78872044 0 2380.55905698 0 -116.50082362 0 1130.95826161 0 28996
0.16550000 0.16550500 8655.86956071 0 75.53293672 0 2091.43373494 0 60.73883276 0 839.60139074 0 30777
0.16650000 0.16650700 8450.66023477 0 75.88397310 0 2037.41960580 0 264.07474462 0 1016.89861044 0 29211
0.16750000 0.16749900 8258.64943321 0 150.13487837 0 2195.83517181 0 -99.75921639 0 942.38573110 0 30922
0.16850000 0.16850800 8129.91391023 0 154.00903346 0 2110.56604967 0 -58.32139547 0 745.38167267 0 30867
0.16950000 0.16949900 8115.51753659 0 74.24269778 0 2315.14317738 0 -24.42436845 0 574.89444790 0 30852
0.17050000 0.17049200 7885.03137281 0 51.88739212 0 2125.41716238 0 -254.34000106 0 36.72384039 0 31257
0.17150000 0.17149500 8077.28618071 0 33.58625169 0 2440.97280676 0 -108.45316203 0 136.04573089 0 32608
0.17250000 0.17250900 7916.57473693 0 38.84514272 0 2211.48485070 0 -32.44762941 0 -79.77909056 0 32361
0.17350000 0.17350400 7917.60621825 0 -2.87613592 0 2072.45669696 0 208.32484316 0 -281.90606195 0 32508
0.17450000 0.17449800 7962.89157539 0 80.40086306 0 2071.11466213 0 -2.92367279 0 -297.92285947 0 32791
0.17550000 0.17549800 7902.06745132 0 16.63402262 0 1977.52714228 0 175.45164452 0 -383.23967375 0 33633
0.17650000 0.17650100 7803.89926713 0 27.25683832 0 1819.89905125 0 142.76588712 0 -54.60961550 0 33984
0.17750000 0.17750300 7783.10327285 0 92.95055241 0 1559.84375640 0 123.54373369 0 -123.01246535 0 34069
0.17850000 0.17849800 7621.26052699 0 34.82347471 0 1376.68373000 0 265.15391808 0 -91.63491463 0 34536
