### header ###
fiducial parameters:
Omega_m = 0.31
Omega_nu = 0
Omega_de = 0.69
Omega_k = 0
H_0 = 100
w_de = -1
zeff = 0
beta = 0
fgrowth = 0
b_1 = 2
gamma = 0.55
Lx = 3500 Ly = 3500 Lz = 3500
nx = 700 ny = 700 nz = 700
xoffset = 1379.75464 yoffset = 22.6059522 zoffset = 368.141391
bins = 400 dk = 0.001
kx_ny = 0.628318531 ky_ny = 0.628318531 kz_ny = 0.628318531
############################
A(data) = 3.33146099 (not used)
A(ran) = 3.33828784 (used)
Ngal = 187209
weighted Ngal = 0
Nran = 9399747
weighted Nran = 0
SN(data) = 6579.9894
SN(ran) = 132.781677
SN(data+ran) = 6712.77107
############################
13 columns: k_central k_mean P_0(k) sigma^{lin}_{P_0(k)} P^img_1(k) sigma^{lin}_{P_1(k)} P_2(k) sigma^{lin}_{P_2(k)} P^img_3(k) sigma^{lin}_{P_3(k)} P_4(k) sigma^{lin}_{P_4(k)} N_modes
### header ###
0.00050000 0 0 0 0 0 0 0 0 0 0 0 0
0.00150000 0.00179520 51692.85252855 0 -18570.21287435 0 12207.52592106 0 -5265.78975750 0 82472.92047532 0 3
0.00250000 0.00253879 66294.63513482 0 -15800.07552456 0 -9861.63794574 0 -14824.27201706 0 13411.36443782 0 6
0.00350000 0.00331552 69213.39452372 0 -470.21462198 0 19613.33994733 0 -62929.45506876 0 -18607.81203200 0 7
0.00450000 0.00420575 67298.83210652 0 9085.90853998 0 -3421.39025219 0 -8162.84367397 0 5981.99270924 0 24
0.00550000 0.00557378 62686.33603166 0 1014.62824242 0 21950.14423235 0 6603.12192073 0 8271.27121533 0 45
0.00650000 0.00659388 60633.02274063 0 -1707.35667582 0 23010.90630848 0 581.57800318 0 3773.39156974 0 40
0.00750000 0.00754703 75709.39766432 0 -2803.17802550 0 37750.88522873 0 14521.03869249 0 17433.14336322 0 57
0.00850000 0.00846663 69093.27686077 0 -2257.14730854 0 9220.56676213 0 8134.02874430 0 992.38595606 0 75
0.00950000 0.00948925 80838.52169303 0 2357.12335783 0 17394.54599784 0 -4748.00831917 0 -2915.09929390 0 112
0.01050000 0.01054430 74325.99266897 0 6780.61434549 0 53183.73122233 0 -12413.60036036 0 -2908.76622044 0 105
0.01150000 0.01145670 73672.27752084 0 4502.89286661 0 50417.47579147 0 -7526.51952265 0 -12859.02282980 0 144
0.01250000 0.01249090 73976.28722919 0 -971.11858591 0 64265.16791724 0 -4524.64270383 0 -22949.01742951 0 169
0.01350000 0.01339930 76820.62468657 0 -459.54267228 0 55748.01595676 0 5932.65906521 0 -9932.58833262 0 180
0.01450000 0.01448870 77409.67815649 0 73.80359729 0 58774.24904408 0 11178.37375624 0 -7203.31095239 0 267
0.01550000 0.01550050 79725.85281518 0 1386.03360903 0 54941.02046681 0 10323.38665709 0 -18461.63005622 0 238
0.01650000 0.01653350 81707.62788589 0 -2380.47032741 0 44485.90366356 0 25483.57775611 0 13823.29149248 0 315
0.01750000 0.01747870 83169.33673170 0 -1588.94705720 0 48382.57388738 0 17397.42970904 0 17958.86609856 0 297
0.01850000 0.01844180 76483.78503525 0 5332.93586383 0 23292.95544687 0 5626.07619917 0 14028.47863602 0 388
0.01950000 0.01947590 71990.85206349 0 3784.56040507 0 25145.73989707 0 6455.37608618 0 19166.80835819 0 399
0.02050000 0.02045430 68637.42866620 0 2975.40213171 0 22899.55069112 0 7284.77579397 0 24152.07956248 0 462
0.02150000 0.02154770 70176.55406670 0 -5506.35781931 0 11010.13138973 0 18891.85758585 0 21833.57575242 0 571
0.02250000 0.02255340 68806.79124360 0 241.13149461 0 10905.86304722 0 -4323.03801690 0 22119.95045763 0 510
0.02350000 0.02348930 77822.38159493 0 732.85305659 0 -12255.10715597 0 6345.96142829 0 1960.86816446 0 555
0.02450000 0.02439640 63745.10169234 0 560.12873740 0 14781.68182077 0 -10195.77134500 0 -213.28371731 0 592
0.02550000 0.02547300 62816.32485989 0 8923.72196701 0 8579.66194648 0 -15268.58536680 0 5940.63363582 0 837
0.02650000 0.02652900 57685.42623968 0 3711.26977563 0 27782.67197151 0 -1520.68073998 0 2873.34093739 0 723
0.02750000 0.02749970 54346.42139841 0 -326.11668211 0 18330.64302027 0 5994.85849770 0 4361.69083827 0 826
0.02850000 0.02848090 56997.77202889 0 -1460.79936766 0 22935.81890514 0 13692.08263258 0 1294.05431274 0 831
0.02950000 0.02946900 58855.32569377 0 -407.87544041 0 17749.24247624 0 4253.84003914 0 17070.90487089 0 996
0.03050000 0.03053250 56771.62252311 0 81.18844896 0 8312.59701516 0 7039.88216535 0 22324.91577723 0 1041
0.03150000 0.03150510 56817.76190242 0 -493.14678079 0 16903.53870894 0 1010.76961500 0 20213.59552617 0 1036
0.03250000 0.03246190 57147.17045178 0 1120.98727556 0 10719.47548250 0 5495.78790862 0 20521.81988936 0 1059
0.03350000 0.03345080 56422.13890727 0 799.47565842 0 12085.52275463 0 2759.77817184 0 17955.09509160 0 1302
0.03450000 0.03451200 52926.85910101 0 2755.17532510 0 10680.61192840 0 -3618.63609872 0 22931.27151439 0 1339
0.03550000 0.03553350 51168.46073684 0 2351.24502345 0 15090.79347972 0 402.41524415 0 19942.97032063 0 1365
0.03650000 0.03647120 46821.26609298 0 1430.99732146 0 13240.67091679 0 1634.17695835 0 17483.16466145 0 1308
0.03750000 0.03744890 45141.39340320 0 1866.50426083 0 16873.48156521 0 -448.96610687 0 15367.62975555 0 1579
0.03850000 0.03847530 45187.97643039 0 818.99616505 0 18928.79127168 0 2396.16437109 0 16683.48936149 0 1662
0.03950000 0.03950240 43797.36215702 0 -177.51017068 0 18269.75234902 0 603.12265325 0 15962.33973591 0 1683
0.04050000 0.04050350 45063.08955275 0 -23.59130864 0 17082.43971571 0 -1274.05688464 0 12523.07047424 0 1822
0.04150000 0.04152450 43705.41613432 0 -622.78623632 0 16862.94492811 0 2699.74152276 0 10212.84069711 0 1887
0.04250000 0.04250150 46136.05194552 0 -56.39008535 0 15904.11095193 0 -981.11619084 0 5320.96846232 0 1920
0.04350000 0.04349210 47985.73086058 0 -913.22808344 0 13392.50940301 0 1984.27059002 0 5954.47544961 0 2005
0.04450000 0.04448520 45715.47375724 0 1055.04678234 0 16557.27154022 0 -194.44421018 0 5363.69175296 0 2151
0.04550000 0.04548030 45629.07333302 0 1622.61993113 0 15168.43185836 0 114.77503338 0 5705.06770383 0 2274
0.04650000 0.04648670 43167.49308233 0 1061.32994541 0 15907.77104693 0 1161.34814125 0 5534.14126766 0 2311
0.04750000 0.04749250 41501.48438874 0 1316.34761860 0 15907.99287087 0 1682.71203620 0 4116.07628185 0 2568
0.04850000 0.04851840 39520.04205394 0 706.01346910 0 14384.94970594 0 -223.66507766 0 8116.78193304 0 2493
0.04950000 0.04949480 38601.46912269 0 890.68855300 0 17496.80683370 0 1372.33598080 0 4146.69907662 0 2644
0.05050000 0.05050630 37693.87647641 0 905.88127458 0 15061.73454372 0 -1066.60380956 0 3532.85678152 0 2829
0.05150000 0.05149060 37911.15302463 0 908.12280549 0 15119.07603194 0 -112.74312610 0 1450.75074322 0 2784
0.05250000 0.05249300 35281.54114017 0 196.93862037 0 16224.97927965 0 -99.35150399 0 1415.72474326 0 3055
0.05350000 0.05348950 36692.67412790 0 -546.13053773 0 13457.72564106 0 2862.68229712 0 -1318.02238934 0 3009
0.05450000 0.05448610 36001.47073408 0 180.26411488 0 13720.80883268 0 382.56089250 0 -430.57579321 0 3336
0.05550000 0.05550870 35339.32627627 0 1621.07825476 0 12900.39299442 0 -2405.51425012 0 -1708.78744022 0 3349
0.05650000 0.05647670 34998.05014618 0 200.57653297 0 14424.32345510 0 729.12308706 0 -1386.13342980 0 3324
0.05750000 0.05747970 34385.59425070 0 -579.07250179 0 13627.31004240 0 3191.42537467 0 -903.75176477 0 3639
0.05850000 0.05849280 34833.01313559 0 -446.33527495 0 11544.16143159 0 806.30007190 0 -4595.38235797 0 3846
0.05950000 0.05951020 34632.70611870 0 591.04655801 0 10290.11306624 0 397.81572478 0 -1550.63806294 0 3787
0.06050000 0.06049470 33574.60592984 0 1027.61825229 0 10118.87607656 0 -952.41993698 0 -5877.73545792 0 3930
0.06150000 0.06148310 33110.99389741 0 638.62224732 0 11003.15502685 0 -404.80428798 0 -1860.10464019 0 4083
0.06250000 0.06249100 32245.76962348 0 -83.25008065 0 10033.44058647 0 1538.72611741 0 -5603.22833345 0 4303
0.06350000 0.06350600 32487.44680498 0 518.98261496 0 10457.42377221 0 600.08588352 0 -1862.38942676 0 4470
0.06450000 0.06451750 31791.47419648 0 321.15558971 0 7780.01992010 0 1551.93573298 0 -3158.73961726 0 4479
0.06550000 0.06550280 31638.19385465 0 -354.77966238 0 9073.60840257 0 1656.52572020 0 -27.68407123 0 4636
0.06650000 0.06648880 31419.25362689 0 551.79592113 0 8230.59979612 0 325.71074430 0 -925.66242434 0 4653
0.06750000 0.06749660 31695.20260697 0 -366.42320094 0 7037.66392596 0 2532.12026328 0 2871.96562897 0 5220
0.06850000 0.06852730 30595.17769364 0 -296.62075294 0 5944.78174347 0 414.95384230 0 1049.96479590 0 5029
0.06950000 0.06949320 31874.87999753 0 1050.63026772 0 7097.12383280 0 -2456.65575924 0 1062.07860121 0 5040
0.07050000 0.07048030 29778.75468628 0 628.54478577 0 7104.39965800 0 -1286.75630514 0 1040.35316462 0 5475
0.07150000 0.07148790 30274.53118987 0 251.45185337 0 8802.58391394 0 216.68538742 0 -764.11248607 0 5509
0.07250000 0.07249820 30234.15923298 0 -116.39434813 0 7951.36782176 0 -775.69613216 0 -1247.46019436 0 5916
0.07350000 0.07351270 29460.10459796 0 417.33512229 0 9331.31236366 0 -287.30414751 0 -4968.64550006 0 5721
0.07450000 0.07449140 29064.37069085 0 1259.23904552 0 9026.48190674 0 -732.25856844 0 -3499.71628504 0 6028
0.07550000 0.07549160 27283.45719687 0 499.08611675 0 9450.46509248 0 -626.60049895 0 -3342.94221618 0 6183
0.07650000 0.07648840 27178.97812162 0 570.13299705 0 10551.42166634 0 741.41546064 0 -4480.10045689 0 6330
0.07750000 0.07749960 26147.16406953 0 781.45135426 0 9425.79827046 0 -33.76304537 0 -4776.54596892 0 6583
0.07850000 0.07848650 25356.91628697 0 727.94963842 0 10437.44852650 0 -510.04311022 0 -6001.82376938 0 6549
0.07950000 0.07947320 24069.45014522 0 510.39359204 0 9463.63034325 0 -230.33532350 0 -4427.91637525 0 6828
0.08050000 0.08048110 24227.72152567 0 -48.88012498 0 10512.15882915 0 1192.25930715 0 -4210.58437104 0 7147
0.08150000 0.08149960 23719.74470544 0 -182.84170905 0 7725.34031915 0 1169.36707665 0 -5420.07939825 0 7386
0.08250000 0.08250610 24229.82885309 0 -21.94282404 0 7188.63729882 0 919.63990440 0 -4480.27791604 0 7227
0.08350000 0.08350160 23786.95735894 0 276.39262795 0 6707.09080092 0 606.66185420 0 -3587.42547051 0 7798
0.08450000 0.08449610 23085.10641606 0 316.35421055 0 5781.19767969 0 611.85807997 0 -3231.81951395 0 7371
0.08550000 0.08548940 23185.14901253 0 446.25541833 0 6985.51311791 0 649.77222761 0 -2486.14725193 0 8256
0.08650000 0.08650700 21637.48339038 0 840.18700594 0 5790.95793300 0 -544.44467579 0 -2521.78326772 0 8037
0.08750000 0.08749060 21097.78574688 0 635.31485239 0 6417.25564227 0 1313.98519365 0 184.75715876 0 8155
0.08850000 0.08849210 20347.02262545 0 0.07825339 0 5719.86336056 0 734.54446413 0 -71.67087103 0 8718
0.08950000 0.08949900 20458.26733084 0 185.33833748 0 6013.24770224 0 1081.16766027 0 1131.44627428 0 8571
0.09050000 0.09049190 20185.97844577 0 220.21127893 0 4926.86496116 0 203.91609237 0 763.58898158 0 8932
0.09150000 0.09150830 19752.97811691 0 282.32309096 0 6017.35144511 0 -871.68600527 0 2414.84194675 0 9285
0.09250000 0.09250820 19170.69027712 0 242.66762539 0 5769.05281903 0 169.43688842 0 1310.59128739 0 9204
0.09350000 0.09350330 19743.21786359 0 125.12644749 0 6651.06916514 0 -178.65145484 0 2074.48638600 0 9349
0.09450000 0.09448040 19507.30810450 0 212.59495398 0 6805.00388758 0 -222.77778190 0 712.68149670 0 9564
0.09550000 0.09549270 19150.61521065 0 225.05813199 0 7405.37037839 0 -82.74809307 0 1833.87395940 0 10155
0.09650000 0.09649430 19282.26771842 0 149.83097957 0 7792.56406385 0 -199.37091986 0 882.73949215 0 9913
0.09750000 0.09749140 18747.78293749 0 316.22555267 0 7504.14857841 0 111.16263053 0 1532.34867917 0 10476
0.09850000 0.09850240 18506.66031583 0 471.67865998 0 8071.07511042 0 -405.84796961 0 866.32562979 0 10575
0.09950000 0.09950330 17397.87335692 0 593.71842736 0 9687.61706562 0 -868.94758875 0 1023.72191480 0 10882
0.10050000 0.10051200 17399.31521252 0 461.15311407 0 9367.92440479 0 -119.86922014 0 199.26666261 0 10875
0.10150000 0.10150300 16554.38782901 0 -10.02769535 0 9934.51820089 0 171.86807879 0 -554.82825438 0 11118
0.10250000 0.10250800 16772.10802510 0 164.95160837 0 8789.47411915 0 214.92632358 0 -413.44100304 0 11575
0.10350000 0.10349800 16453.67976072 0 37.26154162 0 8573.88343287 0 712.51180139 0 -1635.50790198 0 11364
0.10450000 0.10450100 16599.86173650 0 -9.55903682 0 7424.82433784 0 782.62036642 0 -1286.82285233 0 12093
0.10550000 0.10551000 16089.55576491 0 29.42461277 0 7355.70399846 0 841.86177668 0 -1231.26704681 0 12067
0.10650000 0.10649700 16231.74490978 0 201.27638750 0 6117.93751023 0 832.85794300 0 -303.45736674 0 12054
0.10750000 0.10749900 15659.43914726 0 202.34668800 0 5246.45780122 0 267.73483961 0 -776.25512849 0 12807
0.10850000 0.10850100 15431.95869785 0 397.97321978 0 6086.10577499 0 150.37999382 0 -64.33337878 0 12736
0.10950000 0.10950300 14684.07928763 0 415.76239056 0 5629.82502374 0 -281.76187639 0 -554.52324646 0 12933
0.11050000 0.11050200 14303.87305624 0 387.95232333 0 7184.78865348 0 -265.50218167 0 -88.56498222 0 13428
0.11150000 0.11150900 14046.44637508 0 253.57249023 0 6326.05272977 0 4.28124639 0 616.68940536 0 13453
0.11250000 0.11250000 13855.89961151 0 -60.82811689 0 7046.73652507 0 705.17275637 0 1350.95215308 0 13668
0.11350000 0.11349100 13883.29486797 0 -110.83599478 0 5971.41170735 0 1138.18972202 0 1793.80146483 0 13791
0.11450000 0.11448600 14296.33104232 0 -92.66340132 0 6564.20291064 0 571.94529863 0 2263.41383481 0 14205
0.11550000 0.11549300 14128.41032052 0 190.09757009 0 5726.46262275 0 -79.99037786 0 2305.77111596 0 14776
0.11650000 0.11649800 14135.50868657 0 237.53129208 0 6840.46244423 0 -598.52202475 0 2132.29370449 0 14553
0.11750000 0.11747300 13741.32754703 0 109.15834033 0 6173.95914602 0 -578.64216334 0 1619.35911923 0 14568
0.11850000 0.11849100 13718.14694541 0 100.77672280 0 6503.00168588 0 466.18297189 0 1056.93339494 0 16015
0.11950000 0.11950300 13518.39448837 0 192.67516426 0 6216.24987998 0 -763.86182502 0 -572.85366766 0 15270
0.12050000 0.12050700 13301.00702819 0 240.89303388 0 6208.94078119 0 344.67447284 0 -249.19923127 0 15999
0.12150000 0.12150000 12974.59310200 0 20.42676833 0 5845.87044909 0 760.12630989 0 -450.79393612 0 15670
0.12250000 0.12250700 12994.33543257 0 48.14378042 0 5605.28020489 0 184.52202539 0 214.99176164 0 16887
0.12350000 0.12352200 13028.38540720 0 -12.65394660 0 5005.04680845 0 832.63833730 0 -432.50011588 0 16407
0.12450000 0.12449800 12904.38582532 0 1.16638354 0 4908.08756472 0 327.90236482 0 939.33232458 0 16306
0.12550000 0.12549900 12892.40733261 0 68.02153450 0 4596.43602168 0 182.03205167 0 733.41205292 0 17523
0.12650000 0.12650100 12874.55050553 0 36.23050395 0 4436.42332330 0 193.15097661 0 769.08688790 0 17154
0.12750000 0.12750600 13045.46585050 0 45.41933880 0 4765.55459274 0 94.24378597 0 1208.68536983 0 18007
0.12850000 0.12850300 12879.20880825 0 -13.22747239 0 4513.87315159 0 307.55556402 0 1131.03589999 0 17496
0.12950000 0.12949900 12811.10885898 0 105.91560708 0 4597.44532060 0 19.15405348 0 1482.33847213 0 18405
0.13050000 0.13049000 12742.45434987 0 164.43254036 0 4687.21746870 0 33.82271601 0 1330.07852042 0 18100
0.13150000 0.13148800 12759.09114530 0 108.67110405 0 4827.83166361 0 78.04830928 0 1985.32425373 0 19059
0.13250000 0.13249300 12425.35702912 0 138.66547161 0 4627.29173159 0 93.89274959 0 1018.56672646 0 18957
0.13350000 0.13349100 12601.59614863 0 -22.91718569 0 4684.01211278 0 458.11745347 0 1590.69946631 0 19468
0.13450000 0.13450700 12335.07468597 0 6.74097441 0 4004.01082788 0 200.22716027 0 1229.68100565 0 19953
0.13550000 0.13551000 12309.45402102 0 174.38578050 0 4480.56628716 0 209.22766659 0 1732.01240663 0 19956
0.13650000 0.13649900 12128.33477485 0 126.22336687 0 3899.06592236 0 437.79283506 0 1745.18874861 0 19723
0.13750000 0.13749600 11790.94056369 0 214.84313961 0 3719.01143110 0 298.48296491 0 2128.22323521 0 20946
0.13850000 0.13851100 11561.46369883 0 96.36253733 0 3373.36536941 0 477.27527796 0 2408.36468773 0 20955
0.13950000 0.13949800 11417.61087441 0 127.25817554 0 3355.98546379 0 252.19163621 0 2452.29691884 0 20506
0.14050000 0.14048300 11304.36975357 0 64.22479596 0 2989.28831029 0 261.44169446 0 2671.98025680 0 21447
0.14150000 0.14148400 11132.45620087 0 82.78547041 0 2610.10246902 0 -257.61966800 0 1903.92595933 0 21771
0.14250000 0.14249400 11031.65940300 0 208.23944094 0 3456.97081200 0 -485.33192342 0 1712.92445668 0 22470
0.14350000 0.14350900 10921.73455005 0 170.48722477 0 2999.17056677 0 -261.74448414 0 1071.77563470 0 22519
0.14450000 0.14449900 10759.22633237 0 -39.66711133 0 3145.78509923 0 -43.60304439 0 542.71001259 0 22218
0.14550000 0.14550500 10752.67143497 0 58.99751484 0 3046.56325133 0 102.33370503 0 173.98538829 0 23559
0.14650000 0.14650700 10709.41576687 0 185.33501012 0 3225.68608204 0 -99.83696568 0 -62.00012368 0 23044
0.14750000 0.14750500 10281.02937594 0 278.85376455 0 3312.39705978 0 -198.27954608 0 76.82761214 0 23649
0.14850000 0.14849900 10258.29242220 0 100.54602590 0 3413.29367842 0 188.19210246 0 387.24692321 0 23640
0.14950000 0.14949500 9899.32583297 0 86.08887250 0 3288.14061206 0 172.20636030 0 80.38710998 0 24457
0.15050000 0.15050000 10136.11179662 0 9.26738270 0 3322.40131943 0 407.35969975 0 913.86471815 0 24591
0.15150000 0.15149900 10002.61815015 0 -88.94773943 0 2927.03342182 0 386.75003758 0 664.28173146 0 25020
0.15250000 0.15250500 9973.19320464 0 153.83933815 0 3232.65135373 0 -169.86611774 0 1014.15686655 0 25297
0.15350000 0.15350100 9988.45469165 0 68.53106409 0 2610.80121443 0 200.22716027 0 850.00826084 0 25452
0.15450000 0.15450400 9719.19370333 0 31.58739617 0 2876.55738451 0 127.34468688 0 682.24392492 0 26061
0.15550000 0.15549900 9714.90141011 0 200.35470903 0 2991.30690813 0 -192.17273304 0 357.09883166 0 26128
0.15650000 0.15649500 9358.46361379 0 272.87006380 0 2600.15366536 0 -73.45544462 0 514.46738868 0 26331
0.15750000 0.15749700 9103.22189842 0 56.41138045 0 2691.41203385 0 389.49843619 0 745.40607330 0 27345
0.15850000 0.15849900 9207.07986664 0 -108.38816762 0 2118.61825866 0 674.04974861 0 872.64428469 0 26980
0.15950000 0.15949700 9300.07955305 0 -1.34359869 0 1784.05230271 0 593.77721070 0 552.39817313 0 27777
0.16050000 0.16050000 9165.96479956 0 31.86478701 0 1376.49517965 0 85.26956579 0 1034.92402372 0 28224
0.16150000 0.16150500 8858.28390502 0 210.47542625 0 1422.52364699 0 -387.95121421 0 643.60108563 0 28075
0.16250000 0.16249700 9009.24618668 0 53.75714610 0 1394.57383068 0 10.08185366 0 720.32554964 0 28590
0.16350000 0.16349900 8745.70825599 0 25.41780696 0 1465.51312636 0 -84.72465528 0 205.85483360 0 29163
0.16450000 0.16449100 8867.78906080 0 133.34613355 0 1725.35768846 0 -149.42947824 0 278.57315727 0 28996
0.16550000 0.16550500 8544.24775462 0 316.79453107 0 1866.39334886 0 -437.31480447 0 -39.81085324 0 30777
0.16650000 0.16650700 8179.19209827 0 280.48195226 0 2461.84643942 0 -425.49158852 0 107.13807881 0 29211
0.16750000 0.16749900 7928.81941836 0 146.85964791 0 2589.61702826 0 113.91879297 0 16.89632943 0 30922
0.16850000 0.16850800 7912.49317645 0 23.18182165 0 2701.18337836 0 105.23261117 0 25.11290995 0 30867
0.16950000 0.16949900 7813.92570917 0 54.69712505 0 2549.56671608 0 238.84781716 0 261.17106926 0 30852
0.17050000 0.17049200 7851.94633231 0 27.85609570 0 2575.02101307 0 138.17191334 0 597.19773584 0 31257
0.17150000 0.17149500 7932.32423660 0 -178.74018442 0 2056.20809343 0 373.06128231 0 541.37019600 0 32608
0.17250000 0.17250900 8131.76614012 0 -84.71644779 0 2235.94093997 0 178.37195668 0 668.07492082 0 32361
0.17350000 0.17350400 8054.05012310 0 141.99948541 0 1854.61449770 0 -180.90074958 0 222.88536651 0 32508
0.17450000 0.17449800 7968.29298830 0 193.62235248 0 2224.62791909 0 -481.06403083 0 435.69216236 0 32791
0.17550000 0.17549800 7838.04906254 0 91.63912928 0 2583.11758685 0 -221.22612345 0 -389.07475246 0 33633
0.17650000 0.17650100 7790.54546601 0 40.96733234 0 2610.26883698 0 -74.54593110 0 199.76798471 0 33984
0.17750000 0.17750300 7728.74531661 0 86.04794599 0 2707.20589830 0 48.73671581 0 -18.99090197 0 34069
0.17850000 0.17849800 7722.64515829 0 -5.88715188 0 2584.74799280 0 203.49129953 0 77.94815577 0 34536
