### header ###
fiducial parameters:
Omega_m = 0.31
Omega_nu = 0
Omega_de = 0.69
Omega_k = 0
H_0 = 100
w_de = -1
zeff = 0
beta = 0
fgrowth = 0
b_1 = 2
gamma = 0.55
Lx = 3500 Ly = 3500 Lz = 3500
nx = 700 ny = 700 nz = 700
xoffset = 1379.75464 yoffset = 22.6059522 zoffset = 368.141391
bins = 400 dk = 0.001
kx_ny = 0.628318531 ky_ny = 0.628318531 kz_ny = 0.628318531
############################
A(data) = 3.29064329 (not used)
A(ran) = 3.29113445 (used)
Ngal = 185088
weighted Ngal = 0
Nran = 9399747
weighted Nran = 0
SN(data) = 6701.64568
SN(ran) = 130.906133
SN(data+ran) = 6832.55181
############################
13 columns: k_central k_mean P_0(k) sigma^{lin}_{P_0(k)} P^img_1(k) sigma^{lin}_{P_1(k)} P_2(k) sigma^{lin}_{P_2(k)} P^img_3(k) sigma^{lin}_{P_3(k)} P_4(k) sigma^{lin}_{P_4(k)} N_modes
### header ###
0.00050000 0 0 0 0 0 0 0 0 0 0 0 0
0.00150000 0.00179520 15883.70314955 0 -22662.30998839 0 -23116.82723933 0 14222.13093474 0 99732.70843023 0 3
0.00250000 0.00253879 21184.85164292 0 -16904.86965257 0 -16538.19468146 0 -22816.58853794 0 -40258.49394675 0 6
0.00350000 0.00331552 39469.13345994 0 -14006.40715409 0 -31636.64108708 0 -20295.89220752 0 -9782.20279320 0 7
0.00450000 0.00420575 51733.33539741 0 -13088.83243057 0 -37096.72643272 0 -12408.27658582 0 -140.54986597 0 24
0.00550000 0.00557378 59516.36103189 0 -3241.77940881 0 -40909.10355973 0 -22540.08499803 0 8980.91926967 0 45
0.00650000 0.00659388 67848.40091530 0 -4614.83631741 0 -22717.21141329 0 -19439.87362706 0 -21198.71563911 0 40
0.00750000 0.00754703 57236.01093933 0 5544.40062484 0 -24405.40250078 0 -13071.53016333 0 -12532.16525574 0 57
0.00850000 0.00846663 60937.14336096 0 5497.78432407 0 -3382.74852203 0 -26082.16965541 0 -11912.27825830 0 75
0.00950000 0.00948925 46683.62433886 0 3310.53373870 0 8134.35038901 0 -14820.61192206 0 -5521.29766160 0 112
0.01050000 0.01054430 50740.89509448 0 1571.38969243 0 8544.20338984 0 -2168.28463859 0 -20201.39520952 0 105
0.01150000 0.01145670 52002.96239522 0 -5414.47834379 0 10257.63804158 0 6113.42339307 0 -7209.38892831 0 144
0.01250000 0.01249090 58405.02309768 0 -5512.31379207 0 10026.14257888 0 5834.41324264 0 -5035.23704654 0 169
0.01350000 0.01339930 64154.47777170 0 -2358.53193984 0 -90.06595391 0 14015.05828771 0 8764.64092918 0 180
0.01450000 0.01448870 75468.49686661 0 -7109.55706458 0 -17605.16782788 0 18195.10859356 0 15598.43756404 0 267
0.01550000 0.01550050 62181.57565855 0 -5206.62931298 0 -6076.51188963 0 2252.42245864 0 -12930.00649027 0 238
0.01650000 0.01653350 82844.69739702 0 1156.20182587 0 -21199.38111092 0 -9203.36431567 0 22708.00571982 0 315
0.01750000 0.01747870 73559.92369576 0 -1453.96719034 0 -24169.71456563 0 -8419.26105621 0 -16408.09494126 0 297
0.01850000 0.01844180 77620.29998653 0 1766.84985625 0 -11116.81761317 0 -20015.61766064 0 3685.98184659 0 388
0.01950000 0.01947590 77497.63134829 0 4121.66624511 0 1519.21670198 0 -21834.01940030 0 -38348.36800833 0 399
0.02050000 0.02045430 71160.78688389 0 6735.69499785 0 9082.40372175 0 -19910.36220160 0 -34770.12604889 0 462
0.02150000 0.02154770 65682.29015131 0 4126.79037810 0 25063.22139178 0 -3298.45542522 0 -35729.40367294 0 571
0.02250000 0.02255340 63114.89988174 0 -168.11703598 0 23556.14955045 0 2538.90807581 0 -32426.00157388 0 510
0.02350000 0.02348930 61459.53873722 0 -885.94373895 0 22547.51609998 0 8504.89618785 0 -27247.74354270 0 555
0.02450000 0.02439640 66411.64726263 0 -519.87545631 0 15437.06064844 0 8145.90741623 0 -25559.99610309 0 592
0.02550000 0.02547300 62845.82744377 0 68.94410026 0 13739.88569143 0 5323.09797213 0 -10904.22155007 0 837
0.02650000 0.02652900 64604.89127976 0 268.77852124 0 8003.80700093 0 922.09771364 0 -16853.62832267 0 723
0.02750000 0.02749970 62332.52684901 0 -300.09007935 0 3322.98915287 0 3901.04015542 0 -3655.34796062 0 826
0.02850000 0.02848090 63804.77233192 0 -2030.89798199 0 1762.00300318 0 6192.98054878 0 -2849.94960303 0 831
0.02950000 0.02946900 62730.70081945 0 940.04770678 0 161.84274587 0 -484.00208891 0 -8521.43316250 0 996
0.03050000 0.03053250 62747.89217472 0 3526.75662320 0 1749.30358267 0 -4651.40399375 0 -5473.84952105 0 1041
0.03150000 0.03150510 56551.35135172 0 3759.97122143 0 8424.20773005 0 -12766.74407119 0 -14541.33558291 0 1036
0.03250000 0.03246190 52005.51337052 0 2163.00522884 0 10430.31688687 0 -2707.03953035 0 -4189.62200881 0 1059
0.03350000 0.03345080 54208.33599641 0 -1061.72811938 0 14032.36055495 0 1546.86705597 0 -18540.71029047 0 1302
0.03450000 0.03451200 54114.39355826 0 -1276.79641029 0 12829.52024592 0 4618.36331804 0 -11997.90229874 0 1339
0.03550000 0.03553350 54913.18156247 0 1191.57165294 0 9929.41625029 0 5120.58380706 0 -7392.18294522 0 1365
0.03650000 0.03647120 54506.68919431 0 559.84813012 0 4445.78429353 0 -730.62150777 0 -6746.96365395 0 1308
0.03750000 0.03744890 51673.77566980 0 1611.87256129 0 7093.04227233 0 1437.23057414 0 -2319.22473786 0 1579
0.03850000 0.03847530 49488.47713509 0 2644.81791547 0 9148.48507317 0 -3392.66405210 0 -5056.52105348 0 1662
0.03950000 0.03950240 45241.54691165 0 3069.34456986 0 10719.17602019 0 -1032.47619655 0 -63.31354322 0 1683
0.04050000 0.04050350 40062.95614455 0 2740.49058035 0 13629.97192967 0 -2163.79270383 0 -2854.31953463 0 1822
0.04150000 0.04152450 39086.04351735 0 2150.12834919 0 13953.39123268 0 -1247.53783274 0 -3171.15066665 0 1887
0.04250000 0.04250150 37228.48985246 0 651.18968258 0 17260.67525067 0 2785.38774559 0 -1551.74718263 0 1920
0.04350000 0.04349210 35364.05964547 0 79.25835886 0 12862.79383676 0 2323.05120081 0 819.13369589 0 2005
0.04450000 0.04448520 36679.14286762 0 589.25311147 0 17993.47063304 0 2488.42094730 0 3230.34438476 0 2151
0.04550000 0.04548030 34465.33995675 0 -102.15524767 0 11126.57786649 0 750.68437393 0 5575.35615552 0 2274
0.04650000 0.04648670 35926.16150680 0 -23.64221724 0 14027.36951633 0 2959.73027042 0 4866.69521771 0 2311
0.04750000 0.04749250 36953.64999209 0 -1138.24517801 0 11834.41805572 0 82.53525300 0 6005.19549325 0 2568
0.04850000 0.04851840 37190.22522299 0 -1065.49801722 0 12407.05655416 0 4313.08921324 0 6763.36753424 0 2493
0.04950000 0.04949480 38441.75588663 0 256.43734640 0 12105.81964505 0 -1109.61879868 0 5675.58730234 0 2644
0.05050000 0.05050630 38647.60850199 0 436.95212233 0 11845.28742873 0 -2396.28637425 0 4912.96769138 0 2829
0.05150000 0.05149060 38649.05035759 0 93.80878923 0 12868.89399508 0 2407.36648001 0 3751.47536457 0 2784
0.05250000 0.05249300 38348.47892030 0 -73.70233466 0 13298.23422895 0 1449.36434360 0 5792.59943015 0 3055
0.05350000 0.05348950 39208.15759575 0 -437.69855989 0 9060.48751658 0 1088.67529149 0 1182.99815769 0 3009
0.05450000 0.05448610 38585.60871105 0 1080.19496230 0 11000.92569626 0 -447.34901035 0 4044.93734462 0 3336
0.05550000 0.05550870 36192.12840962 0 2617.41156781 0 13988.43941504 0 -3855.83243666 0 1799.15851296 0 3349
0.05650000 0.05647670 34024.13214215 0 1310.68001696 0 12432.89904305 0 -263.31056115 0 1463.86053801 0 3324
0.05750000 0.05747970 32303.33293564 0 724.85408535 0 15390.69944520 0 990.08564181 0 -65.32637364 0 3639
0.05850000 0.05849280 31731.69264493 0 598.21701684 0 13582.61251870 0 206.17093271 0 -1913.81930701 0 3846
0.05950000 0.05951020 30956.63980218 0 491.55630315 0 13481.34989056 0 1961.31181234 0 650.39222552 0 3787
0.06050000 0.06049470 30882.55060657 0 -243.75567181 0 13944.62918709 0 1038.45324259 0 -259.84234386 0 3930
0.06150000 0.06148310 30898.52193018 0 -410.77135193 0 8929.68903097 0 1858.41877825 0 -845.19024488 0 4083
0.06250000 0.06249100 31524.28726199 0 22.84198738 0 10019.72077584 0 1799.80180238 0 -2003.70236708 0 4303
0.06350000 0.06350600 31068.10633151 0 285.30440470 0 10179.73347421 0 -2112.25191161 0 -216.89722928 0 4470
0.06450000 0.06451750 30717.84633189 0 579.25328830 0 10011.86820840 0 -2.40982873 0 -1048.36877266 0 4479
0.06550000 0.06550280 30143.10050603 0 605.23996275 0 12777.50253223 0 -336.50469717 0 1190.32943888 0 4636
0.06650000 0.06648880 29468.75573158 0 617.32493094 0 11760.88341996 0 -664.52351955 0 -1792.80325710 0 4653
0.06750000 0.06749660 28884.58238832 0 789.94388376 0 13767.72459577 0 319.84128287 0 792.21536090 0 5220
0.06850000 0.06852730 28407.55000757 0 881.10243148 0 14110.77531738 0 465.25242046 0 2123.01037265 0 5029
0.06950000 0.06949320 27149.03188986 0 163.79257829 0 14515.82582993 0 871.34439641 0 3964.59271393 0 5040
0.07050000 0.07048030 27781.34102788 0 -273.45346076 0 13588.60176505 0 2221.30056000 0 4957.56539431 0 5475
0.07150000 0.07148790 27286.34090808 0 -7.92574716 0 12600.93067681 0 1086.25630143 0 3101.90832410 0 5509
0.07250000 0.07249820 27287.89367565 0 397.63050179 0 11787.28046869 0 259.06485096 0 4164.99955159 0 5916
0.07350000 0.07351270 26942.95745056 0 410.09811628 0 11184.03026668 0 860.60479040 0 4556.16388556 0 5721
0.07450000 0.07449140 26138.06928803 0 145.43221086 0 11602.05747966 0 1046.39232136 0 4750.59256806 0 6028
0.07550000 0.07549160 26271.60729929 0 39.70027400 0 9744.61472674 0 1432.39481227 0 3518.48259028 0 6183
0.07650000 0.07648840 25486.57237929 0 80.11593021 0 9055.24138042 0 639.73691261 0 2738.80471841 0 6330
0.07750000 0.07749960 25039.48623031 0 629.33558812 0 8860.63523877 0 -668.07713906 0 3644.19021649 0 6583
0.07850000 0.07848650 24354.05025891 0 730.42630270 0 8932.07363831 0 45.25807280 0 2716.22304142 0 6549
0.07950000 0.07947320 23741.03980358 0 183.76338752 0 8707.93163919 0 415.41301786 0 2908.12293102 0 6828
0.08050000 0.08048110 24001.79384383 0 -40.11763575 0 8817.15774673 0 800.97075177 0 1572.12171143 0 7147
0.08150000 0.08149960 23391.88892365 0 83.41411945 0 7195.81330325 0 245.72990487 0 -124.62845275 0 7386
0.08250000 0.08250610 23060.26213490 0 459.77780565 0 7180.46308667 0 -155.55625544 0 -302.55121595 0 7227
0.08350000 0.08350160 22674.62121701 0 510.64425309 0 7816.90924115 0 -1028.25045051 0 -187.18391266 0 7798
0.08450000 0.08449610 21933.06378905 0 364.21605274 0 7954.15171219 0 550.89975242 0 -311.56946819 0 7371
0.08550000 0.08548940 21645.13631627 0 341.21734675 0 6901.05365315 0 654.17321456 0 -1087.97765520 0 8256
0.08650000 0.08650700 20977.00261211 0 329.56715348 0 6218.09101867 0 753.22203979 0 121.17909050 0 8037
0.08750000 0.08749060 20787.67588021 0 338.23825125 0 6644.76936527 0 485.81106313 0 -552.71649048 0 8155
0.08850000 0.08849210 20401.70222641 0 78.44537413 0 6344.54175508 0 1133.91961120 0 1404.17880724 0 8718
0.08950000 0.08949900 19625.20752806 0 -69.36966949 0 4195.42270482 0 1132.28920525 0 -493.25436540 0 8571
0.09050000 0.09049190 20215.03738177 0 617.04099630 0 5264.49208746 0 -1133.70887846 0 850.89001099 0 8932
0.09150000 0.09150830 18926.46212032 0 719.30626864 0 5712.34352903 0 -883.83308417 0 -1105.46514543 0 9285
0.09250000 0.09250820 18388.09542046 0 416.76281653 0 6092.51648683 0 -349.38934066 0 213.57319755 0 9204
0.09350000 0.09350330 17987.03773881 0 -66.28454215 0 5589.77471156 0 630.75193397 0 -329.35420250 0 9349
0.09450000 0.09448040 17923.92882818 0 -180.39277276 0 5667.80128209 0 746.38875335 0 -1890.72743496 0 9564
0.09550000 0.09549270 18525.40443868 0 65.28001244 0 5117.78882542 0 320.09859864 0 -1059.13277930 0 10155
0.09650000 0.09649430 17767.87568711 0 271.29622295 0 5099.99854552 0 28.66863678 0 -1816.19459147 0 9913
0.09750000 0.09749140 17255.57330008 0 537.75557491 0 5201.16135288 0 -883.39387277 0 -686.64823923 0 10476
0.09850000 0.09850240 17148.43233756 0 104.84552840 0 5192.46585448 0 296.27359848 0 -1500.21748161 0 10575
0.09950000 0.09950330 17095.41641614 0 -6.37331232 0 5748.61174305 0 269.75121922 0 -964.23427997 0 10882
0.10050000 0.10051200 16572.57739200 0 521.96614694 0 5108.86041188 0 -374.12160074 0 -1619.10402170 0 10875
0.10150000 0.10150300 16400.66383931 0 413.81366726 0 6054.56241087 0 -316.15235077 0 -1307.24174591 0 11118
0.10250000 0.10250800 15763.25275069 0 222.15778399 0 5973.28611963 0 8.59227264 0 -416.26371266 0 11575
0.10350000 0.10349800 15566.82765274 0 53.63747209 0 6271.85005028 0 413.93788866 0 -832.59619075 0 11364
0.10450000 0.10450100 15483.53276366 0 350.85116042 0 6089.39986048 0 234.26493458 0 -162.44167050 0 12093
0.10550000 0.10551000 15201.70544920 0 -44.50187499 0 6001.05847679 0 255.35262734 0 -42.40841156 0 12067
0.10650000 0.10649700 15250.06306790 0 174.97583217 0 6656.65912840 0 385.95479876 0 1447.51211371 0 12054
0.10750000 0.10749900 15182.18494257 0 84.25083935 0 6359.17104385 0 69.31365894 0 -18.55157966 0 12807
0.10850000 0.10850100 15032.56469574 0 180.54915864 0 6365.69266766 0 82.17146174 0 1992.17861345 0 12736
0.10950000 0.10950300 14888.04639951 0 -235.71122666 0 6111.64880156 0 1314.12937921 0 1795.55387395 0 12933
0.11050000 0.11050200 15307.07182021 0 -123.63579062 0 5992.68462309 0 330.00081928 0 1702.96456182 0 13428
0.11150000 0.11150900 15300.19527810 0 213.45230351 0 5392.52886503 0 238.71361368 0 2106.58430997 0 13453
0.11250000 0.11250000 14995.40918597 0 214.92632358 0 5736.93271267 0 -232.25188234 0 1750.88962384 0 13668
0.11350000 0.11349100 14722.12209316 0 270.26806899 0 5225.51762138 0 -219.23081712 0 2073.19980715 0 13791
0.11450000 0.11448600 14297.99472186 0 289.31165415 0 6011.50638432 0 234.81283971 0 1321.84885229 0 14205
0.11550000 0.11549300 14089.48021924 0 130.09974020 0 5374.17293408 0 525.59629570 0 1897.96998657 0 14776
0.11650000 0.11649800 13650.71246796 0 117.60107036 0 4899.96880856 0 691.57716715 0 1546.56759366 0 14553
0.11750000 0.11747300 13745.20946596 0 -21.13494126 0 4759.87589991 0 246.77247738 0 1653.09854034 0 14568
0.11850000 0.11849100 13458.28020091 0 -85.32380174 0 4038.92591588 0 588.66860539 0 1361.11168949 0 16015
0.11950000 0.11950300 13834.60451337 0 126.72912545 0 3234.74758995 0 147.12250928 0 1530.16371337 0 15270
0.12050000 0.12050700 13494.10476706 0 -25.10115329 0 2968.17067130 0 438.71451353 0 989.15619951 0 15999
0.12150000 0.12150000 13758.85163821 0 40.57658948 0 3034.01910758 0 51.17666822 0 1472.17893573 0 15670
0.12250000 0.12250700 13345.03908007 0 145.66623512 0 2794.78198941 0 36.42737270 0 1208.21953955 0 16887
0.12350000 0.12352200 13282.48472928 0 346.23611337 0 3243.54290913 0 -133.04888947 0 1023.69307769 0 16407
0.12450000 0.12449800 12691.98940376 0 274.36959363 0 3134.15043363 0 -122.88935307 0 1079.57163703 0 16306
0.12550000 0.12549900 12543.47827662 0 197.29686603 0 3698.03797767 0 -303.64813533 0 1161.29268527 0 17523
0.12650000 0.12650100 12382.10136103 0 161.42904422 0 3908.87054046 0 -171.95237189 0 1068.73331937 0 17154
0.12750000 0.12750600 12265.53288110 0 175.05236143 0 3982.49390580 0 -134.82015362 0 899.78998922 0 18007
0.12850000 0.12850300 12095.50483188 0 -32.09637120 0 4218.37039130 0 48.52365391 0 1008.27631393 0 17496
0.12950000 0.12949900 12168.48490780 0 -54.34431407 0 4213.62335901 0 330.73727476 0 833.65318182 0 18405
0.13050000 0.13049000 12579.74649064 0 -47.41220507 0 3719.76563249 0 188.50931069 0 400.48204853 0 18100
0.13150000 0.13148800 12400.95639584 0 -23.43525550 0 3838.78526695 0 160.20901256 0 1106.09068894 0 19059
0.13250000 0.13249300 12446.20847939 0 -66.36162596 0 3424.85070564 0 234.65201735 0 911.11521042 0 18957
0.13350000 0.13349100 12556.23315311 0 -39.84689963 0 3495.94527808 0 485.51381905 0 744.28253505 0 19468
0.13450000 0.13450700 12774.61882102 0 67.22241376 0 3161.34604855 0 296.07839341 0 1140.44123500 0 19953
0.13550000 0.13551000 12344.61311534 0 230.48283642 0 2889.96664162 0 -84.08968425 0 687.69524822 0 19956
0.13650000 0.13649900 11802.91905639 0 514.41858742 0 3546.07748829 0 -672.05666052 0 820.75744713 0 19723
0.13750000 0.13749600 11455.87550388 0 363.96871905 0 3647.50648438 0 -383.52582663 0 312.89486623 0 20946
0.13850000 0.13851100 11096.85345867 0 -30.21619149 0 3447.31037946 0 407.49501236 0 481.91472564 0 20955
0.13950000 0.13949800 11254.68119124 0 -278.02636126 0 2736.29810790 0 1045.02366766 0 273.82279762 0 20506
0.14050000 0.14048300 11495.58198895 0 -171.69727436 0 2059.33581097 0 548.07149720 0 272.14359040 0 21447
0.14150000 0.14148400 11620.46886659 0 78.66531256 0 1426.28356275 0 226.72624802 0 280.71930388 0 21771
0.14250000 0.14249400 11328.32673898 0 259.71812246 0 1824.06934130 0 -12.27130030 0 561.24229357 0 22470
0.14350000 0.14350900 10932.72592623 0 366.39880030 0 1716.54018689 0 -692.31473175 0 579.10910274 0 22519
0.14450000 0.14449900 10500.30233961 0 297.79531070 0 2217.09699636 0 -174.23383110 0 -19.37443557 0 22218
0.14550000 0.14550500 10303.94378884 0 253.38061252 0 3064.54208158 0 -527.36312337 0 -167.06004491 0 23559
0.14650000 0.14650700 10078.03828940 0 141.97730301 0 2807.61450428 0 -337.58719799 0 -134.74473348 0 23044
0.14750000 0.14750500 10060.42546864 0 -11.25468119 0 3038.86596065 0 161.99469527 0 -240.41389417 0 23649
0.14850000 0.14849900 10114.52832736 0 -30.56878064 0 3219.02027268 0 119.58639462 0 -374.34897028 0 23640
0.14950000 0.14949500 10004.53692722 0 172.59344307 0 3044.95502777 0 17.86913832 0 -682.51344100 0 24457
0.15050000 0.15050000 9833.34430232 0 262.26798864 0 3593.88054713 0 -209.32637824 0 -175.18323756 0 24591
0.15150000 0.15149900 9492.97765038 0 152.25440611 0 3453.23307863 0 -11.67348479 0 -159.81971155 0 25020
0.15250000 0.15250500 9473.04676946 0 24.74612407 0 3782.88563433 0 252.23267364 0 338.99134353 0 25297
0.15350000 0.15350100 9631.67306822 0 -188.34737922 0 2937.14859343 0 722.17556129 0 98.60684103 0 25452
0.15450000 0.15450400 9585.92188080 0 -10.48924442 0 2805.80663917 0 366.02280873 0 187.78505553 0 26061
0.15550000 0.15549900 9695.33653870 0 107.42101524 0 2354.17309944 0 32.64671639 0 378.09446749 0 26128
0.15650000 0.15649500 9310.05053911 0 152.94206032 0 2635.98932270 0 -26.96658170 0 497.57660485 0 26331
0.15750000 0.15749700 9227.36566586 0 163.11712440 0 2230.87226297 0 357.14208733 0 685.91289287 0 27345
0.15850000 0.15849900 9140.34413461 0 8.00329681 0 2122.89946068 0 211.93059129 0 847.78669409 0 26980
0.15950000 0.15949700 8913.68443377 0 134.65600391 0 2110.12240179 0 144.81110383 0 373.26979681 0 27777
0.16050000 0.16050000 8828.12694051 0 145.46548445 0 2003.62472870 0 -115.30519259 0 1072.30357567 0 28224
0.16150000 0.16150500 8579.18502501 0 164.22402585 0 2137.90585015 0 -250.55901202 0 344.46817658 0 28075
0.16250000 0.16249700 8514.43461723 0 117.28718949 0 2251.69043964 0 -106.93444443 0 477.08007289 0 28590
0.16350000 0.16349900 8439.01447798 0 48.04639971 0 2509.36112714 0 -148.61760263 0 165.60931635 0 29163
0.16450000 0.16449100 8483.94491682 0 -53.40732975 0 2387.42450789 0 72.94735689 0 97.00072480 0 28996
0.16550000 0.16550500 8443.41768317 0 -60.56470097 0 2163.22705278 0 227.07894808 0 -196.44949859 0 30777
0.16650000 0.16650700 8616.82854745 0 59.08979360 0 2098.34355063 0 49.67358921 0 -411.06526865 0 29211
0.16750000 0.16749900 8545.41233030 0 72.51646389 0 1946.34978766 0 -63.03559782 0 -70.78656990 0 30922
0.16850000 0.16850800 8275.02003990 0 186.11804863 0 2355.14912477 0 -146.73875386 0 -108.45016741 0 30867
0.16950000 0.16949900 8261.42223244 0 142.31447540 0 2184.52215092 0 -75.45075095 0 -235.99405219 0 30852
0.17050000 0.17049200 8105.93474243 0 70.12963830 0 2412.64588975 0 219.64562788 0 -533.11501811 0 31257
0.17150000 0.17149500 7946.25477996 0 117.88944148 0 2394.78906267 0 -181.68489721 0 -194.53626711 0 32608
0.17250000 0.17250900 7876.83497826 0 220.44308494 0 2485.82560722 0 -142.66052075 0 -37.00821868 0 32361
0.17350000 0.17350400 7604.33536044 0 111.86581242 0 2680.47611366 0 -8.76002699 0 -13.91856487 0 32508
0.17450000 0.17449800 7630.54385883 0 -5.68192038 0 2606.66419797 0 212.59384486 0 160.47741952 0 32791
0.17550000 0.17549800 7690.11467764 0 -78.03777264 0 2425.63368138 0 539.11424654 0 97.43893799 0 33633
0.17650000 0.17650100 7601.30746368 0 -4.72023596 0 2039.17201492 0 122.76180430 0 604.51459847 0 33984
0.17750000 0.17750300 7670.12834074 0 88.45728670 0 1875.62122472 0 254.89899738 0 549.61095533 0 34069
0.17850000 0.17849800 7481.43380706 0 31.40339322 0 1917.40176362 0 223.38114302 0 747.02538805 0 34536
