### header ###
fiducial parameters:
Omega_m = 0.31
Omega_nu = 0
Omega_de = 0.69
Omega_k = 0
H_0 = 100
w_de = -1
zeff = 0
beta = 0
fgrowth = 0
b_1 = 2
gamma = 0.55
Lx = 3500 Ly = 3500 Lz = 3500
nx = 700 ny = 700 nz = 700
xoffset = 1379.75464 yoffset = 22.6059522 zoffset = 368.141391
bins = 400 dk = 0.001
kx_ny = 0.628318531 ky_ny = 0.628318531 kz_ny = 0.628318531
############################
A(data) = 3.31377942 (not used)
A(ran) = 3.31708739 (used)
Ngal = 185960
weighted Ngal = 0
Nran = 9399747
weighted Nran = 0
SN(data) = 6640.36072
SN(ran) = 131.938421
SN(data+ran) = 6772.29914
############################
13 columns: k_central k_mean P_0(k) sigma^{lin}_{P_0(k)} P^img_1(k) sigma^{lin}_{P_1(k)} P_2(k) sigma^{lin}_{P_2(k)} P^img_3(k) sigma^{lin}_{P_3(k)} P_4(k) sigma^{lin}_{P_4(k)} N_modes
### header ###
0.00050000 0 0 0 0 0 0 0 0 0 0 0 0
0.00150000 0.00179520 44170.47002236 0 -62636.42564539 0 -99358.38053323 0 127926.97472049 0 94322.31164692 0 3
0.00250000 0.00253879 62074.21287209 0 -48952.99414643 0 -21290.55074984 0 -103691.48935696 0 -63526.27237655 0 6
0.00350000 0.00331552 101204.84300117 0 -27912.54988777 0 -108297.88527350 0 1310.52474021 0 39268.16097124 0 7
0.00450000 0.00420575 116962.21741748 0 -12661.15587624 0 -65223.89098144 0 -64224.90687232 0 -27835.46606898 0 24
0.00550000 0.00557378 114917.00070023 0 14208.04511461 0 -78576.47207544 0 -62034.83912292 0 11962.29955654 0 45
0.00650000 0.00659388 93458.52922859 0 3300.48511426 0 2939.68847754 0 -15826.36166133 0 -47883.58093668 0 40
0.00750000 0.00754703 82391.73291366 0 4304.24952927 0 -27320.61270665 0 -43516.97669817 0 3262.96359499 0 57
0.00850000 0.00846663 80663.61351716 0 6165.00855008 0 -27705.80997666 0 489.93477015 0 -64497.63940527 0 75
0.00950000 0.00948925 73315.03006714 0 3125.03346974 0 -15576.03334621 0 -9402.98367834 0 -22193.92874127 0 112
0.01050000 0.01054430 63496.76979267 0 6975.37576390 0 5867.74228947 0 -14910.78335325 0 -8851.96192276 0 105
0.01150000 0.01145670 64529.36022855 0 2560.26972113 0 -1729.28397218 0 7993.22599904 0 -1511.30867856 0 144
0.01250000 0.01249090 59923.07522398 0 -5901.45952820 0 -9476.37412855 0 19181.11600226 0 11976.16355272 0 169
0.01350000 0.01339930 67541.06384787 0 -4001.95895645 0 -22547.29427604 0 19270.73287360 0 30161.84462887 0 180
0.01450000 0.01448870 69184.66832362 0 3678.20691753 0 -20282.25003528 0 -4338.05549757 0 27180.19815328 0 267
0.01550000 0.01550050 59129.16734643 0 4187.65886695 0 5494.52351216 0 -6345.32923006 0 20034.69451939 0 238
0.01650000 0.01653350 53332.13143750 0 8485.71950833 0 5268.86201906 0 -5045.04166464 0 33449.05358039 0 315
0.01750000 0.01747870 48365.82617999 0 2002.71525055 0 20338.14966789 0 -2931.93573087 0 35294.29601666 0 297
0.01850000 0.01844180 47814.59369167 0 -1267.95672632 0 30337.64010050 0 3677.86309042 0 28367.06713871 0 388
0.01950000 0.01947590 51475.02142049 0 -1833.44140272 0 19765.73299340 0 10805.90918032 0 27147.92277016 0 399
0.02050000 0.02045430 55471.17968093 0 -3955.14301413 0 13351.13923839 0 8926.96059652 0 32389.95518380 0 462
0.02150000 0.02154770 61449.11301209 0 -3366.35573294 0 12570.65170915 0 6236.82405032 0 38324.85467080 0 571
0.02250000 0.02255340 66291.75142362 0 -300.26753850 0 9228.90734224 0 12730.03220929 0 35050.06785986 0 510
0.02350000 0.02348930 63339.05297206 0 453.05654030 0 9676.68114543 0 -2984.05326533 0 25980.57429136 0 555
0.02450000 0.02439640 63338.72023615 0 3141.80335952 0 15976.86920391 0 -4327.54104286 0 26165.90819237 0 592
0.02550000 0.02547300 57210.61209832 0 4102.12355609 0 17373.47272363 0 -4876.32237666 0 19529.49049840 0 837
0.02650000 0.02652900 53305.06891694 0 1906.89840011 0 16458.55988738 0 1043.49973720 0 16196.03125561 0 723
0.02750000 0.02749970 52737.42145713 0 -105.02320937 0 25677.56279074 0 1230.30211268 0 12120.68184896 0 826
0.02850000 0.02848090 53535.21125362 0 -585.11054941 0 15679.07056585 0 5468.98048559 0 6858.78510158 0 831
0.02950000 0.02946900 52908.00406620 0 -302.15747846 0 15672.08311178 0 3213.29721505 0 5947.55454271 0 996
0.03050000 0.03053250 56268.74765348 0 -1779.50491196 0 11780.40392659 0 1801.54312030 0 7574.33367270 0 1041
0.03150000 0.03150510 53925.62138620 0 1414.79308272 0 11766.65084237 0 1289.98384346 0 -563.88532581 0 1036
0.03250000 0.03246190 55186.24683133 0 3940.54699895 0 14587.69678615 0 -9274.96908316 0 2101.80400408 0 1059
0.03350000 0.03345080 48682.03620499 0 2111.66407817 0 14777.68898987 0 -486.85585388 0 -1762.83484295 0 1302
0.03450000 0.03451200 47485.73970215 0 1204.07143190 0 21074.49423329 0 3400.48334595 0 6192.10434422 0 1339
0.03550000 0.03553350 45196.07300416 0 881.27323591 0 15806.61933076 0 -1192.19275996 0 -4837.65846410 0 1365
0.03650000 0.03647120 46130.61725902 0 1111.49321097 0 18845.60729457 0 6581.98209935 0 2445.29837357 0 1308
0.03750000 0.03744890 44489.12011068 0 141.50592714 0 15489.07836213 0 -129.58954514 0 1621.94336812 0 1579
0.03850000 0.03847530 43220.61991571 0 167.58133117 0 16252.26362414 0 324.52620447 0 5251.19374232 0 1662
0.03950000 0.03950240 44223.15320786 0 1272.58175545 0 15952.13583472 0 2968.08194172 0 2384.79589422 0 1683
0.04050000 0.04050350 42397.20945428 0 -22.05196142 0 13921.11584956 0 1355.63263819 0 5975.50435902 0 1822
0.04150000 0.04152450 40947.81183708 0 180.87856719 0 13971.46988371 0 4540.79148659 0 5795.81587726 0 1887
0.04250000 0.04250150 42694.00988461 0 -338.63531610 0 10819.50698778 0 2329.30663588 0 6464.07158459 0 1920
0.04350000 0.04349210 42277.31361527 0 609.32374146 0 10173.16748562 0 2601.46242660 0 7730.10953384 0 2005
0.04450000 0.04448520 39225.01621511 0 2450.93270162 0 9686.86286423 0 -2690.05890782 0 6663.56894410 0 2151
0.04550000 0.04548030 37517.97009281 0 1724.93622298 0 14276.47779978 0 -2400.81158261 0 6733.27711692 0 2274
0.04650000 0.04648670 35543.18247618 0 1109.87389621 0 14858.21107972 0 -2722.80012121 0 704.75461824 0 2311
0.04750000 0.04749250 34633.70432643 0 784.70107497 0 15196.27076270 0 -566.51283036 0 -1264.07480739 0 2568
0.04850000 0.04851840 33424.65294710 0 145.54977755 0 16150.33552418 0 445.43023328 0 -1902.41755654 0 2493
0.04950000 0.04949480 33379.95542340 0 151.54346038 0 15543.97978703 0 463.08409146 0 -3403.17850680 0 2644
0.05050000 0.05050630 34525.56515618 0 -466.53567195 0 14509.94749554 0 1377.83721448 0 -3439.74618314 0 2829
0.05150000 0.05149060 34715.44644794 0 -484.01983482 0 12379.55038573 0 2535.63617271 0 -4008.22548272 0 2784
0.05250000 0.05249300 33947.71379518 0 449.27887862 0 12302.79930285 0 -1029.31520542 0 -4060.63138830 0 3055
0.05350000 0.05348950 33700.60192717 0 911.50340232 0 11669.71378104 0 -905.21691189 0 -5652.31797115 0 3009
0.05450000 0.05448610 33824.15786118 0 -68.78161423 0 11271.09616272 0 2275.92470497 0 -1526.34834162 0 3336
0.05550000 0.05550870 32502.86356874 0 -300.04127808 0 9239.17779061 0 2485.23777378 0 -3388.79322436 0 3349
0.05650000 0.05647670 33274.25631648 0 445.69974936 0 10552.66388040 0 859.83173397 0 -1190.29616529 0 3324
0.05750000 0.05747970 32772.26874261 0 868.77123871 0 6946.67174620 0 -797.55577223 0 -2363.56734326 0 3639
0.05850000 0.05849280 31374.66701516 0 492.23508440 0 11693.89259039 0 -792.66344526 0 -530.62393528 0 3846
0.05950000 0.05951020 31736.12912371 0 -77.12130704 0 10304.02142722 0 -524.31304421 0 236.45766422 0 3787
0.06050000 0.06049470 32559.31776120 0 -158.45882168 0 10879.87637277 0 2368.43637872 0 760.37364358 0 3930
0.06150000 0.06148310 32419.79050359 0 -316.51725115 0 11245.14276186 0 -309.09613127 0 49.43612669 0 4083
0.06250000 0.06249100 32313.42592486 0 489.50110435 0 11463.52842977 0 715.55300759 0 -134.69593222 0 4303
0.06350000 0.06350600 31685.22052971 0 1628.67572466 0 14401.36467742 0 -2805.32971770 0 486.29685755 0 4470
0.06450000 0.06451750 29988.93286845 0 1458.60331066 0 15464.89955278 0 -2071.60267479 0 322.58635412 0 4479
0.06550000 0.06550280 29006.91829066 0 423.24118466 0 17115.93513050 0 -25.58927686 0 -1348.76718728 0 4636
0.06650000 0.06648880 28898.11364859 0 -474.32612869 0 16905.20238848 0 568.23418413 0 -2663.28475839 0 4653
0.06750000 0.06749660 28291.53608750 0 95.57195681 0 15879.71031865 0 400.40330103 0 -6433.03841553 0 5220
0.06850000 0.06852730 29473.85768218 0 481.38123907 0 15435.61879284 0 -936.03712997 0 -4157.70154400 0 5029
0.06950000 0.06949320 28465.22423170 0 -491.70936166 0 14477.00664061 0 359.74186390 0 -7695.56045534 0 5040
0.07050000 0.07048030 29011.13294550 0 -252.49442589 0 14602.55899006 0 1429.10072678 0 -4423.05843098 0 5475
0.07150000 0.07148790 29520.55162133 0 -231.38787809 0 10911.02045380 0 1707.90014447 0 -8315.36981440 0 5509
0.07250000 0.07249820 29676.71567436 0 -322.47987863 0 9327.55244789 0 2444.45544260 0 -5949.87260287 0 5916
0.07350000 0.07351270 29892.99401485 0 255.67649029 0 9954.44908180 0 1385.31268123 0 -3389.94670885 0 5721
0.07450000 0.07449140 28492.06492832 0 1002.82277239 0 9536.69914875 0 -647.51738727 0 -4803.79703982 0 6028
0.07550000 0.07549160 27864.63591696 0 484.57439467 0 8126.67528072 0 836.16977441 0 -958.87390448 0 6183
0.07650000 0.07648840 26494.31853401 0 780.01171690 0 9628.53425948 0 695.51786943 0 -2069.87244807 0 6330
0.07750000 0.07749960 25852.47096661 0 749.44881459 0 8820.98420968 0 -110.49405318 0 -372.82282158 0 6583
0.07850000 0.07848650 25325.30637566 0 -96.59046142 0 7630.89877713 0 1955.56657232 0 -961.09436211 0 6549
0.07950000 0.07947320 24657.39449544 0 -32.20717226 0 7084.85696898 0 992.88395080 0 -874.93683510 0 6828
0.08050000 0.08048110 24625.89549611 0 368.54494691 0 5493.33675409 0 664.21962076 0 -742.56672688 0 7147
0.08150000 0.08149960 24414.16454637 0 152.36753632 0 5362.62699806 0 674.11629579 0 -1050.54819286 0 7386
0.08250000 0.08250610 23824.66742857 0 498.65466919 0 4736.57329512 0 -251.77127984 0 -1191.61601772 0 7227
0.08350000 0.08350160 22795.51526374 0 841.28503444 0 4800.38095116 0 -276.02550933 0 -1749.73613935 0 7798
0.08450000 0.08449610 22126.05061595 0 359.05310057 0 4639.07058275 0 -742.15302523 0 -2501.55292449 0 7371
0.08550000 0.08548940 21395.02982509 0 266.40611422 0 6458.01579106 0 240.06230323 0 -3095.71943620 0 8256
0.08650000 0.08650700 21426.30700048 0 217.57822877 0 5849.61927366 0 -510.92596950 0 -1868.73359141 0 8037
0.08750000 0.08749060 20950.82738731 0 423.47853628 0 6479.72126348 0 -255.70532740 0 -4274.42530068 0 8155
0.08850000 0.08849210 20638.61019322 0 234.16844117 0 5445.18986814 0 -523.91043376 0 -2873.68476450 0 8718
0.08950000 0.08949900 20072.84823689 0 282.75121116 0 6916.41496093 0 -107.33328387 0 -2813.16010275 0 8571
0.09050000 0.09049190 19761.18560265 0 383.46038857 0 6543.21836601 0 242.73417257 0 -2872.39818565 0 8932
0.09150000 0.09150830 20322.95472808 0 40.82336861 0 6018.36074403 0 943.58247125 0 -2512.78830700 0 9285
0.09250000 0.09250820 19274.39296859 0 -160.47963776 0 6353.29270947 0 922.01674790 0 -2083.81408263 0 9204
0.09350000 0.09350330 19755.52909220 0 309.16156933 0 5587.62301935 0 514.50288051 0 -631.14345322 0 9349
0.09450000 0.09448040 19255.98158166 0 175.36735143 0 5213.35057833 0 396.53912801 0 -1348.87809925 0 9564
0.09550000 0.09549270 18930.23312729 0 330.33910079 0 5514.95349694 0 -73.25757767 0 50.83517027 0 10155
0.09650000 0.09649430 18421.36901130 0 420.05801114 0 5339.34657566 0 74.62722958 0 -67.05216389 0 9913
0.09750000 0.09749140 18148.96921425 0 17.88610785 0 5371.71068836 0 936.83236879 0 1023.82284469 0 10476
0.09850000 0.09850240 18250.56457830 0 363.00822140 0 4899.71371103 0 -312.63865958 0 418.43204167 0 10575
0.09950000 0.09950330 17291.17604228 0 515.70627538 0 5508.88661221 0 262.75156482 0 1220.13148508 0 10882
0.10050000 0.10051200 16678.60923483 0 558.01364614 0 5923.59755730 0 -205.02632119 0 1482.21646896 0 10875
0.10150000 0.10150300 16175.06889338 0 275.34783720 0 5015.08434168 0 516.90634289 0 2003.79109665 0 11118
0.10250000 0.10250800 15681.39971721 0 177.81296035 0 5724.38856892 0 871.38210648 0 2663.01856966 0 11575
0.10350000 0.10349800 15738.96302938 0 135.28709302 0 5154.13467782 0 265.57316533 0 1826.67577258 0 11364
0.10450000 0.10450100 15447.04272570 0 119.95573147 0 4895.26614105 0 247.62428131 0 2099.41939674 0 12093
0.10550000 0.10551000 14924.53643747 0 507.06068736 0 5730.71055118 0 -839.44722310 0 1793.77928244 0 12067
0.10650000 0.10649700 14599.78619082 0 372.42686585 0 5850.35129266 0 -1082.06382899 0 2226.03650110 0 12054
0.10750000 0.10749900 14193.18291070 0 221.76071914 0 6619.83635453 0 -66.94591022 0 510.24718824 0 12807
0.10850000 0.10850100 14371.08570975 0 -41.65066099 0 6823.62600726 0 -200.03528256 0 1276.18639445 0 12736
0.10950000 0.10950300 14402.80653302 0 -43.84782710 0 6565.70022223 0 453.38262149 0 231.55313693 0 12933
0.11050000 0.11050200 14737.76068086 0 -127.33581392 0 6761.22693323 0 710.58747872 0 769.66584838 0 13428
0.11150000 0.11150900 14402.91744499 0 -159.19749540 0 6128.46305613 0 979.46582074 0 2036.59885722 0 13453
0.11250000 0.11250000 14890.37555087 0 -82.61666239 0 5194.05189564 0 488.78239479 0 1301.90688018 0 13668
0.11350000 0.11349100 14796.98767256 0 11.07858626 0 5334.57736097 0 716.24066180 0 2126.64828525 0 13791
0.11450000 0.11448600 14767.37417671 0 132.40005445 0 4472.52516937 0 -29.78407846 0 2162.47285139 0 14205
0.11550000 0.11549300 14672.21170690 0 200.10848446 0 4809.34263829 0 -110.06659845 0 2434.69518929 0 14776
0.11650000 0.11649800 14587.03131433 0 47.05207390 0 4692.24178092 0 239.04524047 0 1599.77206542 0 14553
0.11750000 0.11747300 14238.54590622 0 28.23907473 0 4583.99169870 0 -148.56547400 0 970.10374139 0 14568
0.11850000 0.11849100 14136.95054217 0 368.10462639 0 4644.09489496 0 -262.40773772 0 1417.68788512 0 16015
0.11950000 0.11950300 13684.76244259 0 344.52806904 0 4551.87159234 0 -258.14317249 0 468.29584491 0 15270
0.12050000 0.12050700 13530.59480501 0 23.62247491 0 5074.51097493 0 488.19899783 0 857.52476501 0 15999
0.12150000 0.12150000 13464.15853529 0 35.77887041 0 4644.43872207 0 284.50472940 0 566.77347349 0 15670
0.12250000 0.12250700 13185.21493205 0 321.99297508 0 4526.50602492 0 -143.23060827 0 1175.27868462 0 16887
0.12350000 0.12352200 13020.06700949 0 203.26060263 0 5129.55658539 0 -192.30028181 0 718.76279999 0 16407
0.12450000 0.12449800 12758.53658545 0 69.46438831 0 5034.58266592 0 291.06073591 0 716.29944515 0 16306
0.12550000 0.12549900 12809.11244353 0 126.23667631 0 5042.75687807 0 -158.61853492 0 864.04306146 0 17523
0.12650000 0.12650100 12562.44422340 0 114.03968702 0 5301.58105005 0 -217.68803162 0 1241.45985681 0 17154
0.12750000 0.12750600 12737.24148731 0 -96.52180691 0 5068.98755885 0 708.37922141 0 1005.69650152 0 18007
0.12850000 0.12850300 12796.24665507 0 -44.15516417 0 5152.48208948 0 22.62659633 0 1011.04467669 0 17496
0.12950000 0.12949900 12890.52182913 0 70.18331970 0 4594.19559989 0 226.11623218 0 1373.09018219 0 18405
0.13050000 0.13049000 12581.63199412 0 137.56411575 0 4898.19421705 0 132.47658371 0 1092.33427736 0 18100
0.13150000 0.13148800 12583.29567367 0 112.10316403 0 4424.74429292 0 67.91605722 0 1520.22600091 0 19059
0.13250000 0.13249300 12547.24928359 0 79.73261845 0 4975.13385028 0 177.95936415 0 1212.50074158 0 18957
0.13350000 0.13349100 12257.21448339 0 102.43596586 0 4243.02612212 0 147.69259680 0 691.33870642 0 19468
0.13450000 0.13450700 12022.85749187 0 166.27700641 0 4410.42555766 0 64.97267537 0 818.70890305 0 19953
0.13550000 0.13551000 12176.13783370 0 116.10819525 0 4109.32174291 0 139.36199877 0 827.15595865 0 19956
0.13650000 0.13649900 11516.65526316 0 203.90611029 0 4031.73882025 0 -7.20644976 0 163.65504745 0 19723
0.13750000 0.13749600 11543.93960765 0 279.35619577 0 4257.54449892 0 -455.35352719 0 -330.75723891 0 20946
0.13850000 0.13851100 11171.16447822 0 156.17625335 0 4036.48585255 0 -73.76522175 0 -209.31972353 0 20955
0.13950000 0.13949800 10850.90616634 0 254.05052082 0 4693.35090061 0 -95.09481351 0 -196.58702943 0 20506
0.14050000 0.14048300 10755.47750780 0 147.95878553 0 4578.27973227 0 -65.18085714 0 -154.53586532 0 21447
0.14150000 0.14148400 10783.06131461 0 -120.18421013 0 4418.24485151 0 731.44003810 0 -144.68022771 0 21771
0.14250000 0.14249400 10796.38184214 0 -73.09941720 0 4146.34415832 0 374.83587382 0 262.05171030 0 22470
0.14350000 0.14350900 10858.08217076 0 -16.79606501 0 3911.36605978 0 430.82090866 0 519.57377576 0 22519
0.14450000 0.14449900 11047.83036816 0 -149.54260845 0 3532.90114631 0 389.64151263 0 794.97152334 0 22218
0.14550000 0.14550500 11050.45898183 0 122.20946269 0 3637.90150782 0 -97.52434021 0 962.24008276 0 23559
0.14650000 0.14650700 10789.37220567 0 215.11376481 0 3402.80140611 0 129.82911500 0 809.17491015 0 23044
0.14750000 0.14750500 10669.99765292 0 229.09754592 0 3424.62888170 0 -35.55471732 0 1100.87782637 0 23649
0.14850000 0.14849900 10213.93872560 0 214.06675582 0 3104.41493461 0 15.30574088 0 198.85296096 0 23640
0.14950000 0.14949500 10090.81534828 0 175.53039202 0 3396.52378864 0 51.07662563 0 919.41475310 0 24457
0.15050000 0.15050000 9797.38664182 0 50.02861843 0 2951.30096074 0 119.94242204 0 176.40992394 0 24591
0.15150000 0.15149900 9610.73288838 0 167.21753991 0 3033.23163260 0 105.54172283 0 480.37526750 0 25020
0.15250000 0.15250500 9481.70899428 0 138.27617059 0 2955.01651172 0 -246.77025914 0 -298.75580836 0 25297
0.15350000 0.15350100 9292.81481905 0 191.50947947 0 3205.13409410 0 14.65978957 0 -380.31270688 0 25452
0.15450000 0.15450400 9096.91100736 0 122.73296719 0 3469.99187722 0 -290.59268740 0 -374.61294076 0 26061
0.15550000 0.15549900 9008.23688776 0 114.63195694 0 3354.29960185 0 -175.09450798 0 -686.83789869 0 26128
0.15650000 0.15649500 8992.46520570 0 32.28248149 0 3553.60841101 0 105.84417977 0 -343.26810907 0 26331
0.15750000 0.15749700 8964.80376051 0 3.09286900 0 3554.99481063 0 73.14954941 0 -690.98600635 0 27345
0.15850000 0.15849900 9109.41078632 0 -148.62647558 0 3233.42773751 0 800.83876653 0 299.34586003 0 26980
0.15950000 0.15949700 9256.30259870 0 -76.16236215 0 2974.15991765 0 642.87017575 0 692.03856094 0 27777
0.16050000 0.16050000 9269.29039033 0 -28.50537436 0 2602.34972236 0 297.59123268 0 1149.64692847 0 28224
0.16150000 0.16150500 9312.33532568 0 133.87629276 0 2531.46588266 0 243.18669341 0 1471.79074383 0 28075
0.16250000 0.16249700 8998.08844255 0 257.89805704 0 2597.33650133 0 -229.19403934 0 1388.03002448 0 28590
0.16350000 0.16349900 8755.46850931 0 233.64715491 0 2783.42460373 0 -297.49030278 0 1671.01082342 0 29163
0.16450000 0.16449100 8460.83086238 0 91.16420423 0 2787.76126174 0 183.74785984 0 1433.75902950 0 28996
0.16550000 0.16550500 8494.94738419 0 -67.66639437 0 2476.57554896 0 343.53984339 0 1395.94913910 0 30777
0.16650000 0.16650700 8600.76849427 0 -96.59378878 0 2082.40550062 0 389.09138926 0 699.05485213 0 29211
0.16750000 0.16749900 8562.58150318 0 130.84617776 0 1902.89447801 0 91.80161532 0 798.09147704 0 30922
0.16850000 0.16850800 8377.51379090 0 139.62707838 0 1767.29350412 0 -209.20992068 0 710.83703065 0 30867
0.16950000 0.16949900 8179.26973665 0 125.95939638 0 1926.00853245 0 -198.87957984 0 336.19192542 0 30852
0.17050000 0.17049200 8034.39652211 0 94.78026717 0 1996.63727462 0 32.69618313 0 133.02227060 0 31257
0.17150000 0.17149500 7916.51928095 0 104.57279587 0 1923.77920187 0 23.69534407 0 -0.19148508 0 32608
0.17250000 0.17250900 7945.73349371 0 7.95945330 0 1559.91030359 0 99.25323599 0 175.79768987 0 32361
0.17350000 0.17350400 7824.20724874 0 38.65149042 0 1581.33849609 0 52.79343200 0 14.26760484 0 32508
0.17450000 0.17449800 7934.53138479 0 35.74160399 0 1623.14121739 0 110.25215418 0 -226.58317157 0 32791
0.17550000 0.17549800 7748.07727289 0 105.30581307 0 1837.03495053 0 -119.85369246 0 -258.05887939 0 33633
0.17650000 0.17650100 7668.43138761 0 140.28145900 0 1553.35540619 0 -276.92722364 0 -268.54116963 0 33984
0.17750000 0.17750300 7473.09322696 0 73.60007383 0 1838.15516143 0 69.59859179 0 -233.38983914 0 34069
0.17850000 0.17849800 7588.00911854 0 41.18471980 0 1740.84099940 0 255.14854932 0 -151.18965120 0 34536
