### header ###
fiducial parameters:
Omega_m = 0.31
Omega_nu = 0
Omega_de = 0.69
Omega_k = 0
H_0 = 100
w_de = -1
zeff = 0
beta = 0
fgrowth = 0
b_1 = 2
gamma = 0.55
Lx = 3500 Ly = 3500 Lz = 3500
nx = 700 ny = 700 nz = 700
xoffset = 1379.75464 yoffset = 22.6059522 zoffset = 368.141391
bins = 400 dk = 0.001
kx_ny = 0.628318531 ky_ny = 0.628318531 kz_ny = 0.628318531
############################
A(data) = 3.37715077 (not used)
A(ran) = 3.38800327 (used)
Ngal = 190589
weighted Ngal = 0
Nran = 9399747
weighted Nran = 0
SN(data) = 6571.72129
SN(ran) = 134.759127
SN(data+ran) = 6706.48042
############################
13 columns: k_central k_mean P_0(k) sigma^{lin}_{P_0(k)} P^img_1(k) sigma^{lin}_{P_1(k)} P_2(k) sigma^{lin}_{P_2(k)} P^img_3(k) sigma^{lin}_{P_3(k)} P_4(k) sigma^{lin}_{P_4(k)} N_modes
### header ###
0.00050000 0 0 0 0 0 0 0 0 0 0 0 0
0.00150000 0.00179520 82999.41959445 0 -72073.14874485 0 -72486.51765511 0 128248.61943199 0 252847.12594833 0 3
0.00250000 0.00253879 97858.96161780 0 -58651.69131780 0 -3015.49680868 0 -141091.11637834 0 -151488.00439760 0 6
0.00350000 0.00331552 158015.17380163 0 -32142.73240383 0 -128025.68637333 0 57477.24447296 0 47621.93960067 0 7
0.00450000 0.00420575 194111.47426962 0 -22486.29269283 0 -80954.20287720 0 -45886.05636631 0 -18867.23512862 0 24
0.00550000 0.00557378 170973.01919624 0 31504.54493143 0 -39433.30889380 0 -81217.17515684 0 30855.04443814 0 45
0.00650000 0.00659388 141187.60979179 0 25156.38744614 0 11674.92664361 0 -2171.94473358 0 -42613.37688280 0 40
0.00750000 0.00754703 94318.42972799 0 15605.75775403 0 34281.33699938 0 -10949.65109277 0 20428.76474696 0 57
0.00850000 0.00846663 83486.76678836 0 14857.21287199 0 13030.15999871 0 4174.78198730 0 -20694.17708993 0 75
0.00950000 0.00948925 80718.62585402 0 5265.92285186 0 31552.12616633 0 2698.65458546 0 -9647.64439182 0 112
0.01050000 0.01054430 61684.69003527 0 509.48633213 0 19695.52571671 0 2109.56784195 0 -15915.31306085 0 105
0.01150000 0.01145670 70471.46899356 0 3232.26316183 0 28121.39712631 0 -2486.59089981 0 -18757.87592671 0 144
0.01250000 0.01249090 64914.77932250 0 571.34748311 0 17092.08905706 0 -8154.72491780 0 -9173.15189518 0 169
0.01350000 0.01339930 71776.01557861 0 1314.69503026 0 20369.87049117 0 15562.39117396 0 -20182.54017471 0 180
0.01450000 0.01448870 77555.41648439 0 -10664.98443190 0 6123.43874392 0 19873.98307561 0 813.90974213 0 267
0.01550000 0.01550050 73225.63501974 0 -3192.16848486 0 -3798.54640442 0 1113.46744403 0 -26439.52802108 0 238
0.01650000 0.01653350 85543.51835043 0 4683.23572899 0 -10853.74551276 0 -10195.86007458 0 -13476.91341179 0 315
0.01750000 0.01747870 79766.22477207 0 -345.94108753 0 2013.67335313 0 -5953.10014119 0 -13283.59384898 0 297
0.01850000 0.01844180 73179.27381649 0 2271.42167901 0 -1971.00551847 0 1311.01275287 0 -3608.64293027 0 388
0.01950000 0.01947590 77107.77577556 0 -2948.26197278 0 -2590.59305359 0 -1545.70248030 0 -20217.03379722 0 399
0.02050000 0.02045430 76941.18599739 0 -1158.94135151 0 -7088.67234073 0 -2799.79521043 0 -19452.62850355 0 462
0.02150000 0.02154770 76355.23806262 0 1086.79422449 0 828.37044471 0 -6119.73428414 0 -14397.26093455 0 571
0.02250000 0.02255340 77020.37714360 0 3375.28414648 0 -171.62850894 0 -7618.60973092 0 -15396.91051549 0 510
0.02350000 0.02348930 76620.53949362 0 1766.35075238 0 9892.92621233 0 -11372.46970283 0 -26859.10800163 0 555
0.02450000 0.02439640 75338.17530247 0 305.06669942 0 13323.85489390 0 111.60738753 0 -20109.56009879 0 592
0.02550000 0.02547300 73692.01985141 0 602.16991943 0 16352.30622061 0 1911.15741974 0 -3823.96742782 0 837
0.02650000 0.02652900 75998.10152089 0 1382.87261790 0 12647.51370400 0 6952.68317495 0 -5738.58530101 0 723
0.02750000 0.02749970 70563.41501626 0 1791.91596135 0 23271.10578888 0 5736.59997676 0 4253.44075605 0 826
0.02850000 0.02848090 69758.97050160 0 87.82819401 0 15713.34236442 0 4397.87032271 0 -3128.97084465 0 831
0.02950000 0.02946900 66902.54363956 0 4681.50550227 0 16346.76062214 0 333.05755316 0 19354.02776268 0 996
0.03050000 0.03053250 60934.03782581 0 3943.77453726 0 11411.84345200 0 926.90242016 0 13177.34018221 0 1041
0.03150000 0.03150510 59460.12866336 0 -185.89067909 0 17239.71288844 0 3199.81031956 0 8331.49641476 0 1036
0.03250000 0.03246190 56318.76895172 0 1833.68540906 0 12363.35723818 0 1674.07199377 0 10118.87607656 0 1059
0.03350000 0.03345080 55342.29997239 0 539.85846586 0 10170.56105434 0 3526.57916405 0 7227.14593463 0 1302
0.03450000 0.03451200 52172.76862050 0 -1051.76489716 0 2452.64074595 0 4788.61319120 0 7350.34695033 0 1339
0.03550000 0.03553350 53715.44320403 0 1525.40558988 0 5511.47086110 0 575.12181743 0 7025.31942376 0 1365
0.03650000 0.03647120 52095.35206580 0 2895.14623059 0 4387.68860391 0 -5804.20082216 0 67.33144023 0 1308
0.03750000 0.03744890 46915.54126704 0 3165.81580092 0 10524.76952008 0 -5236.45354157 0 3081.98853438 0 1579
0.03850000 0.03847530 44600.36481607 0 1338.79620123 0 13770.71921894 0 -4617.14328638 0 -199.13135001 0 1662
0.03950000 0.03950240 44716.82238403 0 852.78993303 0 18329.20116466 0 -2071.02593255 0 -7859.71017018 0 1683
0.04050000 0.04050350 43779.28350599 0 1776.94284547 0 21776.89973602 0 -4168.87037932 0 -9439.46262510 0 1822
0.04150000 0.04152450 41764.56758035 0 847.37299244 0 23525.87058278 0 -3074.32451729 0 -7675.30792972 0 1887
0.04250000 0.04250150 42662.95453316 0 -706.66119500 0 23462.09620033 0 2821.56723004 0 -10435.30792549 0 1920
0.04350000 0.04349210 43530.72978238 0 -1196.44068840 0 21685.84100907 0 3606.20286694 0 -11918.93297647 0 2005
0.04450000 0.04448520 44686.21068045 0 478.12708188 0 21015.04541764 0 897.73146307 0 -11440.01509224 0 2151
0.04550000 0.04548030 44033.27191611 0 -264.94318534 0 19209.84220235 0 2866.96349915 0 -6087.88036650 0 2274
0.04650000 0.04648670 44211.06380319 0 -137.34118269 0 13017.84877010 0 3797.84765901 0 -7448.35985776 0 2311
0.04750000 0.04749250 44023.51166279 0 -420.12899480 0 14478.11576030 0 4032.38210968 0 -3986.58655748 0 2568
0.04850000 0.04851840 43710.51808491 0 631.43736994 0 7646.57063842 0 3251.41765896 0 -4504.35690461 0 2493
0.04950000 0.04949480 42621.69528051 0 1482.50484008 0 7778.86643562 0 597.58149125 0 -4680.59602412 0 2644
0.05050000 0.05050630 38601.13638678 0 2092.67594899 0 7299.44944753 0 -1447.60084329 0 -2284.88639211 0 2829
0.05150000 0.05149060 36436.13474248 0 2643.16532712 0 9739.59041452 0 -2043.40885215 0 -4921.66318979 0 2784
0.05250000 0.05249300 33113.32304877 0 1751.68819002 0 7883.76697636 0 -773.40469088 0 -5296.15745475 0 3055
0.05350000 0.05348950 31136.87175259 0 800.39511865 0 11416.94540259 0 408.81708303 0 -4848.30601317 0 3009
0.05450000 0.05448610 30447.66477423 0 -383.01563157 0 6846.71787930 0 3354.00013954 0 -1477.99072293 0 3336
0.05550000 0.05550870 31818.64762900 0 -873.49276126 0 7100.39573590 0 3284.92416494 0 -1148.50453519 0 3349
0.05650000 0.05647670 31584.51246142 0 -423.51624635 0 3012.89037739 0 593.80050221 0 -3284.97962093 0 3324
0.05750000 0.05747970 33047.44133889 0 176.64283908 0 5492.76001185 0 -584.24876340 0 599.18084185 0 3639
0.05850000 0.05849280 31907.04446868 0 19.65970115 0 5488.86700172 0 -1453.47917767 0 -1789.98609308 0 3846
0.05950000 0.05951020 33202.49627223 0 319.16250162 0 7190.80008223 0 -576.07676949 0 2743.79575704 0 3787
0.06050000 0.06049470 31538.37308212 0 432.46129669 0 8227.57189936 0 -410.63049373 0 -3190.26079899 0 3930
0.06150000 0.06148310 32949.83880575 0 430.27854913 0 9905.43708249 0 -721.17846269 0 757.81046797 0 4083
0.06250000 0.06249100 31965.49507659 0 347.83435485 0 10855.56446906 0 -1054.66302693 0 -2068.57477803 0 4303
0.06350000 0.06350600 31113.58023900 0 856.22820409 0 12377.55397028 0 -393.00325442 0 -264.60712207 0 4470
0.06450000 0.06451750 30942.99762994 0 478.56851152 0 11494.36195729 0 816.92987506 0 -493.36749561 0 4479
0.06550000 0.06550280 30160.51368524 0 180.64565205 0 11301.81877827 0 1425.20771665 0 -270.58194987 0 4636
0.06650000 0.06648880 29239.72251460 0 553.88328440 0 11022.44261834 0 1665.52068093 0 370.01896699 0 4653
0.06750000 0.06749660 28794.07822122 0 548.71922310 0 9574.97486942 0 536.77954958 0 1871.89458254 0 5220
0.06850000 0.06852730 27691.16959669 0 266.73552277 0 9868.07083997 0 551.68611828 0 2158.54656767 0 5029
0.06950000 0.06949320 28039.54409283 0 362.51909961 0 9659.91125565 0 224.63888475 0 885.00986017 0 5040
0.07050000 0.07048030 26815.74142157 0 239.75729531 0 8331.36332040 0 -262.35117261 0 657.79670861 0 5475
0.07150000 0.07148790 27529.34903321 0 -450.83608267 0 7887.94835761 0 1368.15459955 0 -171.56639823 0 5509
0.07250000 0.07249820 27652.90496722 0 54.72252389 0 7501.79724466 0 395.32907842 0 228.60620590 0 5916
0.07350000 0.07351270 26375.53181469 0 698.50805612 0 7169.60480486 0 -552.16969447 0 -2734.16859808 0 5721
0.07450000 0.07449140 26798.77189023 0 773.82948372 0 8833.75017737 0 -982.00459572 0 -1023.19064647 0 6028
0.07550000 0.07549160 25024.73493837 0 240.42387625 0 8686.15961958 0 -561.10698097 0 -2214.21328515 0 6183
0.07650000 0.07648840 25375.54949784 0 -35.41774104 0 7557.59705650 0 921.05625025 0 -3127.96154573 0 6330
0.07750000 0.07749960 26108.45579218 0 -416.81161779 0 8005.08248858 0 375.16860973 0 -3622.35164970 0 6583
0.07850000 0.07848650 25397.51006780 0 427.79744837 0 6733.76512958 0 -590.97779259 0 -3868.26566843 0 6549
0.07950000 0.07947320 24749.45143011 0 1170.97530020 0 8587.84724983 0 -1310.34728105 0 -3397.94346185 0 6828
0.08050000 0.08048110 24304.91625643 0 300.97959334 0 9321.80720788 0 -1069.47310221 0 -4875.75672562 0 7147
0.08150000 0.08149960 23115.60720767 0 506.51610959 0 9664.42537280 0 -167.80093687 0 -5434.96378455 0 7386
0.08250000 0.08250610 23244.59782818 0 511.33745290 0 11737.59190637 0 -492.53232848 0 -3815.52702695 0 7227
0.08350000 0.08350160 23115.05264782 0 -242.10751994 0 10294.13917074 0 344.51586873 0 -4785.27474092 0 7798
0.08450000 0.08449610 23089.54289484 0 88.07907688 0 10901.52638921 0 1123.51606846 0 -3355.07598564 0 7371
0.08550000 0.08548940 23108.73066556 0 -3.63876662 0 10055.78934832 0 963.49893361 0 -4030.49660620 0 8256
0.08650000 0.08650700 22968.09428826 0 233.19907055 0 9782.12515482 0 981.66520509 0 -1085.89805577 0 8037
0.08750000 0.08749060 23592.08502856 0 -309.10167687 0 9058.06963564 0 1261.93420637 0 -1322.75833044 0 8155
0.08850000 0.08849210 22950.34837314 0 53.12073322 0 7912.61517962 0 887.74938581 0 163.43433263 0 8718
0.08950000 0.08949900 22934.48796150 0 515.68631123 0 8909.45868773 0 361.04618866 0 772.06931076 0 8571
0.09050000 0.09049190 22191.15594203 0 339.94296822 0 7015.74772080 0 516.52591484 0 1539.40268043 0 8932
0.09150000 0.09150830 21737.74781079 0 503.50041314 0 7655.88724386 0 589.94631127 0 1198.48146863 0 9285
0.09250000 0.09250820 21085.80725417 0 380.48462043 0 7309.68662232 0 57.26407167 0 1179.69298100 0 9204
0.09350000 0.09350330 20219.91750843 0 510.39802852 0 6677.58821704 0 724.24296040 0 1326.50715501 0 9349
0.09450000 0.09448040 19997.87174552 0 135.16952633 0 6814.83068808 0 495.30401860 0 2138.20531247 0 9564
0.09550000 0.09549270 19523.72307599 0 247.72964768 0 5849.35308493 0 293.44201590 0 300.53816371 0 10155
0.09650000 0.09649430 19297.90630612 0 721.43577845 0 6715.16519230 0 -782.65918561 0 991.52084270 0 9913
0.09750000 0.09749140 17680.80979107 0 645.65073883 0 6535.39907216 0 -536.35808410 0 1251.13138055 0 10476
0.09850000 0.09850240 17671.60409760 0 137.04837509 0 6836.90217001 0 331.20865063 0 606.46886737 0 10575
0.09950000 0.09950330 17422.27399021 0 236.49315605 0 7145.12653320 0 369.62744774 0 424.06969708 0 10882
0.10050000 0.10051200 17067.79933574 0 392.06604828 0 6915.01747011 0 582.21463788 0 380.71864468 0 10875
0.10150000 0.10150300 16801.05604914 0 65.04887189 0 6299.07893879 0 247.68417377 0 1265.18392708 0 11118
0.10250000 0.10250800 16427.72635986 0 -36.20155593 0 5931.83831664 0 949.32882039 0 1851.09858826 0 11575
0.10350000 0.10349800 16766.34060269 0 -193.99612582 0 5636.33555634 0 1073.87519828 0 1345.46201059 0 11364
0.10450000 0.10450100 16649.88303473 0 86.73504564 0 4598.45461952 0 446.40071301 0 2442.33702398 0 12093
0.10550000 0.10551000 16464.77095767 0 481.58642621 0 5219.67256059 0 -335.59743726 0 1857.58693848 0 12067
0.10650000 0.10649700 15951.47036290 0 493.83998060 0 4792.55056611 0 -307.63874799 0 2611.45559505 0 12054
0.10750000 0.10749900 15202.70365693 0 225.21229963 0 6327.43912939 0 -201.30522461 0 1958.18409480 0 12807
0.10850000 0.10850100 15261.93064863 0 165.01371908 0 5626.15383755 0 134.66598599 0 2094.80545881 0 12736
0.10950000 0.10950300 14967.79210557 0 220.04712921 0 6266.54845814 0 79.23861653 0 1325.12075539 0 12933
0.11050000 0.11050200 14546.32662153 0 341.27280274 0 5775.77408438 0 -271.52913809 0 2156.19523392 0 13428
0.11150000 0.11150900 14282.91069401 0 104.58665986 0 6951.37441371 0 -22.78963693 0 1862.88853062 0 13453
0.11250000 0.11250000 14579.71112435 0 -34.28754807 0 5699.83265887 0 714.31301177 0 1375.48588073 0 13668
0.11350000 0.11349100 14244.86788848 0 59.87649220 0 6391.77916288 0 153.73064442 0 1705.44898994 0 13791
0.11450000 0.11448600 14299.88022534 0 18.54736501 0 5175.29668160 0 197.82924349 0 1186.61388790 0 14205
0.11550000 0.11549300 14182.20262572 0 54.75901392 0 5592.92461149 0 475.05814769 0 1590.65510153 0 14776
0.11650000 0.11649800 14113.54811661 0 97.70878681 0 4718.90501838 0 287.66793877 0 1051.56747386 0 14553
0.11750000 0.11747300 13883.96033979 0 73.07246559 0 4662.86120020 0 427.64660809 0 1592.20786910 0 14568
0.11850000 0.11849100 13781.81041589 0 103.53798719 0 4264.35449385 0 80.51887340 0 485.43728979 0 16015
0.11950000 0.11950300 13728.79449448 0 -49.29049927 0 4217.78255786 0 253.47599682 0 980.78234581 0 15270
0.12050000 0.12050700 13807.43108084 0 10.34674472 0 3233.99338856 0 217.28763941 0 556.43869617 0 15999
0.12150000 0.12150000 13811.31299977 0 -10.44503491 0 3981.88388997 0 82.59148537 0 572.88472301 0 15670
0.12250000 0.12250700 13646.27598918 0 26.14361489 0 3169.27625436 0 338.86490388 0 529.29188252 0 16887
0.12350000 0.12352200 13903.70267035 0 -34.18739456 0 3549.32720899 0 330.13724100 0 650.28353179 0 16407
0.12450000 0.12449800 13722.91616010 0 211.85184379 0 3002.26501072 0 -180.81423825 0 667.69892924 0 16306
0.12550000 0.12549900 13636.18299996 0 205.24149041 0 4218.63658003 0 -164.93608070 0 1272.33774911 0 17523
0.12650000 0.12650100 13138.63190486 0 282.23879786 0 3926.76064114 0 -196.32527718 0 1700.19176259 0 17154
0.12750000 0.12750600 13298.56696486 0 24.60537678 0 4052.95628002 0 379.07271106 0 1989.71636772 0 18007
0.12850000 0.12850300 13054.33880806 0 17.78717437 0 4471.34950249 0 -47.63480539 0 1214.37515386 0 17496
0.12950000 0.12949900 13149.72310181 0 171.29244567 0 4022.27802926 0 -87.89196839 0 1305.25642165 0 18405
0.13050000 0.13049000 12912.59331106 0 274.79660471 0 4663.97031989 0 -628.51816690 0 823.95282097 0 18100
0.13150000 0.13148800 12776.28250057 0 59.03633403 0 4196.42091254 0 -292.18094681 0 646.48590596 0 19059
0.13250000 0.13249300 12470.72002464 0 84.01903333 0 5082.01971527 0 277.07140920 0 -148.66529477 0 18957
0.13350000 0.13349100 12618.12203208 0 74.42692256 0 3989.09316799 0 322.58968148 0 -333.95815835 0 19468
0.13450000 0.13450700 12632.65150009 0 -116.67828278 0 4110.63050415 0 388.16194696 0 -313.46495375 0 19953
0.13550000 0.13551000 12500.11169656 0 54.68226284 0 3381.04047770 0 454.22666158 0 -208.43575513 0 19956
0.13650000 0.13649900 12463.73257057 0 192.28697237 0 3520.36809376 0 -180.43159195 0 -42.95487484 0 19723
0.13750000 0.13749600 12064.22765649 0 308.07019555 0 3446.74472842 0 -312.47340074 0 -761.95192091 0 20946
0.13850000 0.13851100 11822.43956302 0 246.64603773 0 3677.71890486 0 41.75857833 0 2.35050191 0 20955
0.13950000 0.13949800 11488.48362291 0 -21.03401136 0 3806.64297819 0 185.87182406 0 -555.39945102 0 20506
0.14050000 0.14048300 11429.03480727 0 237.77308018 0 3581.96860161 0 134.56949257 0 -278.04632541 0 21447
0.14150000 0.14148400 11360.82394603 0 43.91969806 0 3520.58991770 0 204.34975817 0 -232.95839158 0 21771
0.14250000 0.14249400 11156.41318628 0 -12.44199382 0 3352.29209521 0 545.23436902 0 -9.58601061 0 22470
0.14350000 0.14350900 11291.17122920 0 31.87022169 0 2955.42688601 0 273.94812814 0 331.21752358 0 22519
0.14450000 0.14449900 11034.54311421 0 184.93905439 0 2962.73598479 0 27.26715314 0 132.08950094 0 22218
0.14550000 0.14550500 11012.89309777 0 208.24055006 0 2792.35301728 0 -34.51181207 0 745.16095785 0 23559
0.14650000 0.14650700 10574.54681198 0 89.65458141 0 2946.03264219 0 1.69872772 0 3.37006019 0 23044
0.14750000 0.14750500 10611.59140979 0 58.54432853 0 2950.33602661 0 118.21552267 0 745.07999211 0 23649
0.14850000 0.14849900 10554.40519832 0 62.24912105 0 2910.50753836 0 209.41621694 0 461.22631597 0 23640
0.14950000 0.14949500 10351.94648923 0 220.73700166 0 2897.08719006 0 -126.73023457 0 621.05157312 0 24457
0.15050000 0.15050000 10199.87508787 0 202.34225152 0 3006.81240147 0 -149.70121257 0 550.81213196 0 24591
0.15150000 0.15149900 10014.96265235 0 77.49430399 0 3328.37947459 0 -2.97969442 0 640.30256366 0 25020
0.15250000 0.15250500 10015.80558332 0 -17.97250827 0 3238.11931382 0 276.13974866 0 701.95520013 0 25297
0.15350000 0.15350100 10024.23489300 0 27.00085350 0 3334.30217376 0 23.83964054 0 248.13003989 0 25452
0.15450000 0.15450400 9956.77823316 0 54.55848508 0 3130.71216257 0 -104.60407304 0 588.54216574 0 26061
0.15550000 0.15549900 9844.60186723 0 134.01049625 0 3295.51625803 0 -18.20553432 0 186.00713666 0 26128
0.15650000 0.15649500 9881.82392419 0 162.09007956 0 2940.27631097 0 -93.17115632 0 533.74056162 0 26331
0.15750000 0.15749700 9568.15378329 0 16.14168439 0 3229.57909217 0 267.26900934 0 -12.74766721 0 27345
0.15850000 0.15849900 9629.69883516 0 60.12892784 0 3086.71338428 0 42.42083370 0 272.12362624 0 26980
0.15950000 0.15949700 9546.84759396 0 116.22021634 0 2897.36446998 0 176.60623813 0 -87.39175541 0 27777
0.16050000 0.16050000 9443.83255670 0 64.99995972 0 2598.32361786 0 161.82056347 0 423.51070075 0 28224
0.16150000 0.16150500 9187.53717762 0 114.87374503 0 2910.28571443 0 -8.31259702 0 58.33880865 0 28075
0.16250000 0.16249700 9090.14537722 0 157.13231452 0 2629.23478376 0 219.29847342 0 299.14954585 0 28590
0.16350000 0.16349900 8990.08059835 0 90.43606715 0 2810.17657077 0 239.29590152 0 904.05122709 0 29163
0.16450000 0.16449100 8840.23852758 0 41.19847289 0 2505.61230257 0 124.49979486 0 915.22449889 0 28996
0.16550000 0.16550500 8967.38800940 0 6.27018637 0 2403.81729698 0 161.57212066 0 1034.13765785 0 30777
0.16650000 0.16650700 8792.76820464 0 10.98417799 0 2521.66126456 0 97.51247263 0 888.61339006 0 29211
0.16750000 0.16749900 8730.34694822 0 202.35001536 0 2415.04158829 0 -410.06373357 0 860.19663435 0 30922
0.16850000 0.16850800 8597.05294329 0 184.47433324 0 2892.58416410 0 -324.96652498 0 405.96331806 0 30867
0.16950000 0.16949900 8469.51526959 0 165.92874282 0 3065.61792769 0 -233.89227036 0 117.12858537 0 30852
0.17050000 0.17049200 8248.00188414 0 87.28250712 0 2936.54966880 0 -228.27679735 0 -432.93045432 0 31257
0.17150000 0.17149500 8130.65702042 0 66.08345874 0 3226.54010421 0 68.76054095 0 -649.73451754 0 32608
0.17250000 0.17250900 8186.91157135 0 24.23237983 0 2969.40179416 0 125.49800259 0 -893.14303489 0 32361
0.17350000 0.17350400 8008.59839801 0 -53.53554399 0 2699.86352592 0 270.65071529 0 -1054.40238380 0 32508
0.17450000 0.17449800 8141.38220787 0 0.69465276 0 2187.06203502 0 384.74364006 0 -923.81241269 0 32791
0.17550000 0.17549800 8025.05773428 0 27.64447566 0 1958.62774268 0 289.89061464 0 -928.04148609 0 33633
0.17650000 0.17650100 7928.46450006 0 114.36687733 0 1673.96108180 0 140.21047534 0 -964.62136274 0 33984
0.17750000 0.17750300 7853.76528861 0 176.76040576 0 1534.08999709 0 -151.64771763 0 -977.35294772 0 34069
0.17850000 0.17849800 7548.74628134 0 167.64787835 0 1764.40979292 0 -4.07170040 0 -638.20521832 0 34536
