### header ###
fiducial parameters:
Omega_m = 0.31
Omega_nu = 0
Omega_de = 0.69
Omega_k = 0
H_0 = 100
w_de = -1
zeff = 0
beta = 0
fgrowth = 0
b_1 = 2
gamma = 0.55
Lx = 3500 Ly = 3500 Lz = 3500
nx = 700 ny = 700 nz = 700
xoffset = 1379.75464 yoffset = 22.6059522 zoffset = 368.141391
bins = 400 dk = 0.001
kx_ny = 0.628318531 ky_ny = 0.628318531 kz_ny = 0.628318531
############################
A(data) = 3.34169418 (not used)
A(ran) = 3.34841868 (used)
Ngal = 187767
weighted Ngal = 0
Nran = 9399747
weighted Nran = 0
SN(data) = 6656.90393
SN(ran) = 133.184635
SN(data+ran) = 6790.08857
############################
13 columns: k_central k_mean P_0(k) sigma^{lin}_{P_0(k)} P^img_1(k) sigma^{lin}_{P_1(k)} P_2(k) sigma^{lin}_{P_2(k)} P^img_3(k) sigma^{lin}_{P_3(k)} P_4(k) sigma^{lin}_{P_4(k)} N_modes
### header ###
0.00050000 0 0 0 0 0 0 0 0 0 0 0 0
0.00150000 0.00179520 71248.74007569 0 -87243.24428275 0 -145662.90776040 0 166844.87569211 0 95622.42175319 0 3
0.00250000 0.00253879 107036.70526852 0 -71144.70464831 0 -30902.18202517 0 -143080.87711085 0 -73231.06970624 0 6
0.00350000 0.00331552 147199.03853773 0 -19062.21837097 0 -106333.63429397 0 -59330.91621891 0 -10817.90985542 0 7
0.00450000 0.00420575 164994.86404115 0 13281.59743353 0 -36505.67654735 0 -138041.03721758 0 -6369.26403308 0 24
0.00550000 0.00557378 104244.27461286 0 34647.01376277 0 32984.66516417 0 -73247.37376576 0 20439.07956012 0 45
0.00650000 0.00659388 90350.33219582 0 21144.70150997 0 67471.41113103 0 41360.18253962 0 -22744.71758172 0 40
0.00750000 0.00754703 63032.60320038 0 1133.94179359 0 46557.18469365 0 27540.99479001 0 -19214.38959310 0 57
0.00850000 0.00846663 72318.26419740 0 -867.06984910 0 46856.53609928 0 39428.98332699 0 -3521.05574797 0 75
0.00950000 0.00948925 70890.27259032 0 3596.69771116 0 26379.63555756 0 9436.63436988 0 10540.16410144 0 112
0.01050000 0.01054430 60475.41683200 0 5158.61552139 0 30533.84337452 0 3618.88010505 0 10208.60385987 0 105
0.01150000 0.01145670 58375.07686592 0 2888.75770115 0 31809.44193553 0 8544.12575146 0 12881.64887157 0 144
0.01250000 0.01249090 63703.50970378 0 -10696.92707911 0 14037.01885767 0 24511.10160769 0 18275.96341931 0 169
0.01350000 0.01339930 69133.87064160 0 -9460.91300000 0 -1273.64651035 0 18367.24397020 0 15933.83535976 0 180
0.01450000 0.01448870 86596.29476476 0 -5339.57949080 0 -21702.92145237 0 2782.65931114 0 1342.51175220 0 267
0.01550000 0.01550050 82943.85269774 0 -294.72748562 0 3424.16305143 0 -12517.08122789 0 -1285.29226715 0 238
0.01650000 0.01653350 81647.18086252 0 5835.31162960 0 -17486.49202054 0 -10311.79635628 0 7012.42036171 0 315
0.01750000 0.01747870 78437.72120162 0 5181.62975506 0 10995.03627068 0 -4009.50097037 0 -4132.05869665 0 297
0.01850000 0.01844180 71028.13616839 0 2807.88069300 0 5379.96253889 0 -2749.95137134 0 -4748.30778149 0 388
0.01950000 0.01947590 70791.33911354 0 1409.04784270 0 4981.45583254 0 8235.23591645 0 6090.06533230 0 399
0.02050000 0.02045430 66772.77663526 0 -2403.60656424 0 3283.57103892 0 5375.70351926 0 10966.37661777 0 462
0.02150000 0.02154770 68952.30774756 0 -158.56307893 0 -7432.42180775 0 5063.31995721 0 4738.55861937 0 571
0.02250000 0.02255340 73138.45821173 0 2937.18186703 0 5766.93440041 0 -9209.94139546 0 11167.28255929 0 510
0.02350000 0.02348930 64863.20525669 0 1343.64305429 0 -2921.69855609 0 -5614.51917195 0 996.16805422 0 555
0.02450000 0.02439640 65479.43215913 0 2911.20628377 0 8590.54241069 0 -6382.19636872 0 -3650.53438114 0 592
0.02550000 0.02547300 61604.94432921 0 2108.03725677 0 4492.92188056 0 674.41021251 0 -381.25434950 0 837
0.02650000 0.02652900 60732.62168923 0 314.86466280 0 21740.52061003 0 145.04290985 0 -13836.37910488 0 723
0.02750000 0.02749970 57826.94991273 0 1990.09346842 0 10261.06522144 0 -1047.08441205 0 903.44897509 0 826
0.02850000 0.02848090 58011.39651798 0 1812.13521339 0 18437.78398279 0 -3586.93745784 0 -12099.05401491 0 831
0.02950000 0.02946900 54024.88759888 0 2914.77764919 0 17343.85922778 0 -2779.37631685 0 -3119.13295296 0 996
0.03050000 0.03053250 52618.08017797 0 1144.91098737 0 20087.26679293 0 2615.51497313 0 -3021.40841665 0 1041
0.03150000 0.03150510 51465.70481505 0 -1791.97141733 0 16502.37011532 0 5975.10507593 0 -2869.13737375 0 1036
0.03250000 0.03246190 53422.52469263 0 -1884.83800938 0 15511.70440391 0 6815.25215356 0 2363.75589361 0 1059
0.03350000 0.03345080 56220.39003478 0 -1085.80710796 0 8296.41495882 0 3984.65668921 0 662.85540353 0 1302
0.03450000 0.03451200 56107.59256182 0 -734.49233550 0 8023.95970578 0 494.12169700 0 -1915.38316578 0 1339
0.03550000 0.03553350 56255.77095305 0 2812.00661827 0 11172.16268594 0 -9968.82327305 0 -3747.84854317 0 1365
0.03650000 0.03647120 52022.92654973 0 5452.27714299 0 17705.43224830 0 -8808.05187404 0 -8024.70281598 0 1308
0.03750000 0.03744890 48235.39370388 0 3834.34878817 0 26130.97092198 0 -7354.77233791 0 -8611.28294898 0 1579
0.03850000 0.03847530 43283.50700241 0 1373.46728289 0 28720.87632136 0 -342.41297778 0 -10930.52986923 0 1662
0.03950000 0.03950240 43123.35011848 0 917.31518952 0 30590.07574305 0 4900.95592509 0 -12133.99128529 0 1683
0.04050000 0.04050350 42739.04014422 0 -1128.83984300 0 27546.54038848 0 5335.20955920 0 -9830.00585204 0 1822
0.04150000 0.04152450 43521.08044104 0 -498.74007141 0 22309.60992544 0 6125.49061535 0 -4520.50568737 0 1887
0.04250000 0.04250150 44222.82047195 0 -580.28698785 0 19511.74458328 0 3899.11028715 0 -4364.81855581 0 1920
0.04350000 0.04349210 44237.01720405 0 267.74925817 0 17140.00302787 0 2660.83360386 0 2530.81150204 0 2005
0.04450000 0.04448520 43113.70077713 0 1931.44321896 0 15270.35995831 0 1259.44977826 0 -1106.68295885 0 2151
0.04550000 0.04548030 40489.41266721 0 2637.87482618 0 16896.10760698 0 -226.09072243 0 8929.72230456 0 2274
0.04650000 0.04648670 36695.77966304 0 1802.50805443 0 19196.53276601 0 1466.77752281 0 6038.06980101 0 2311
0.04750000 0.04749250 36084.65471119 0 747.35257836 0 18806.78810525 0 1941.95767366 0 10289.00394655 0 2568
0.04850000 0.04851840 35940.13641496 0 -1278.22717469 0 19307.88838337 0 3470.22479236 0 12611.80004982 0 2493
0.04950000 0.04949480 37471.27615366 0 -1222.74900756 0 14238.43499425 0 2238.94665435 0 8606.54700788 0 2644
0.05050000 0.05050630 38970.69506909 0 -495.15650568 0 15215.79126933 0 1207.28787901 0 9282.17836118 0 2829
0.05150000 0.05149060 38303.22683675 0 538.15596712 0 14342.02677375 0 -1913.93021898 0 5376.71281818 0 2784
0.05250000 0.05249300 37431.79149253 0 1756.81232301 0 15019.14434744 0 -885.78069835 0 6112.24772620 0 3055
0.05350000 0.05348950 35916.84490137 0 421.51872178 0 13537.91499500 0 1805.71341035 0 4338.93170213 0 3009
0.05450000 0.05448610 34816.15451623 0 331.35061795 0 13395.94767406 0 3413.06076329 0 5147.72396599 0 3336
0.05550000 0.05550870 34839.66785376 0 829.46403673 0 11459.64651084 0 1153.19611149 0 4730.60623116 0 3349
0.05650000 0.05647670 32093.26566544 0 801.26355937 0 10270.22655012 0 -285.63603149 0 3787.07810677 0 3324
0.05750000 0.05747970 31997.21589987 0 1041.19054999 0 10661.84562316 0 -417.96621140 0 3866.99018079 0 3639
0.05850000 0.05849280 30726.27564157 0 103.62183664 0 9369.02243328 0 509.40314816 0 1732.70006084 0 3846
0.05950000 0.05951020 31346.05172704 0 126.99420506 0 10918.34064378 0 -333.05533492 0 1938.96305049 0 3787
0.06050000 0.06049470 31184.89663538 0 193.68446319 0 9643.00827150 0 -417.95955668 0 -1245.94070038 0 3930
0.06150000 0.06148310 30852.71528678 0 5.58543805 0 11348.40180545 0 -1525.71614339 0 -1029.64017749 0 4083
0.06250000 0.06249100 30577.87542640 0 436.69480656 0 11493.25283760 0 -808.13122852 0 -3661.28175099 0 4303
0.06350000 0.06350600 31206.52446943 0 320.59992075 0 14378.84954761 0 -1595.44649861 0 -2526.63012079 0 4470
0.06450000 0.06451750 30853.04802269 0 -237.99157676 0 12337.18201339 0 1203.16195375 0 -5100.30909903 0 4479
0.06550000 0.06550280 30756.00004939 0 -172.25848892 0 14418.55603269 0 1117.10535662 0 -5146.01592166 0 4636
0.06650000 0.06648880 31067.32994773 0 728.02949504 0 10415.37704458 0 -691.42410863 0 -6301.46354613 0 4653
0.06750000 0.06749660 29435.59305270 0 720.39875154 0 10812.15352420 0 1614.77845489 0 -4743.16146610 0 5220
0.06850000 0.06852730 29607.72842934 0 -67.70809727 0 9377.85102606 0 1929.05861161 0 -3625.41282006 0 5029
0.06950000 0.06949320 28664.31121693 0 134.27668497 0 7301.12421827 0 1580.52883871 0 -4558.35994255 0 5040
0.07050000 0.07048030 28132.26649932 0 561.33213227 0 7735.74386189 0 1250.18862881 0 -3638.51152365 0 5475
0.07150000 0.07148790 27210.92076883 0 564.73158413 0 4946.84020686 0 -472.95303851 0 -4318.27989341 0 5509
0.07250000 0.07249820 26779.14047164 0 265.50994550 0 6194.17839805 0 254.02390194 0 -1291.89152933 0 5916
0.07350000 0.07351270 26142.72759075 0 311.76356414 0 5735.94559614 0 677.33274291 0 -3248.42303579 0 5721
0.07450000 0.07449140 25909.14698302 0 -443.33510617 0 6096.68677688 0 704.09801939 0 -1785.40542874 0 6028
0.07550000 0.07549160 27422.76263054 0 -420.13454040 0 6024.00616328 0 1334.52609040 0 -1717.53839461 0 6183
0.07650000 0.07648840 27404.24033164 0 -4.11259365 0 5718.93170002 0 444.98547628 0 67.05582398 0 6330
0.07750000 0.07749960 27441.28492944 0 176.35890443 0 4533.47129660 0 -327.95782080 0 -945.72307226 0 6583
0.07850000 0.07848650 27059.96957837 0 539.23292235 0 7446.81818138 0 -668.94668890 0 1778.63979860 0 6549
0.07950000 0.07947320 25564.43258187 0 1412.50829614 0 7813.64842925 0 -1302.83854072 0 1130.88062323 0 6828
0.08050000 0.08048110 24969.16804166 0 478.95892165 0 8520.25749562 0 1109.76298425 0 2693.76336760 0 7147
0.08150000 0.08149960 24024.30897364 0 288.70940216 0 7805.13038999 0 1128.83984300 0 1914.90624431 0 7386
0.08250000 0.08250610 23535.40901216 0 466.80962452 0 8042.02726561 0 258.33726844 0 2210.17608946 0 7227
0.08350000 0.08350160 22261.03048281 0 922.45041370 0 7328.44183636 0 136.33742937 0 3258.85985211 0 7798
0.08450000 0.08449610 21899.56837427 0 72.89145726 0 6778.15209977 0 571.19553371 0 3942.77632953 0 7371
0.08550000 0.08548940 21380.83309300 0 -44.45972844 0 6504.44354148 0 658.92468333 0 1251.00937738 0 8256
0.08650000 0.08650700 21526.79324484 0 448.23963347 0 5343.11758262 0 -374.40442626 0 843.34245147 0 8037
0.08750000 0.08749060 20535.57297357 0 254.78253982 0 5665.44994833 0 -123.22541633 0 -57.63163393 0 8155
0.08850000 0.08849210 20508.84318893 0 457.44754517 0 5936.80717287 0 111.79926524 0 1584.86549672 0 8718
0.08950000 0.08949900 19867.21744547 0 -58.36343111 0 5508.19895800 0 376.18789073 0 287.46386074 0 8571
0.09050000 0.09049190 19988.55514009 0 296.99341716 0 5028.26068366 0 785.25785305 0 560.16422923 0 8932
0.09150000 0.09150830 19635.96598910 0 205.90252575 0 4925.33437598 0 -12.24412687 0 -198.14201524 0 9285
0.09250000 0.09250820 19242.22849744 0 331.37501858 0 4718.09536100 0 84.70657663 0 1110.93865112 0 9204
0.09350000 0.09350330 18825.42131613 0 377.43454127 0 5692.83411360 0 -346.88273015 0 1310.93511449 0 9349
0.09450000 0.09448040 18132.22150686 0 495.15761480 0 6466.84438383 0 -835.09725566 0 1136.68131924 0 9564
0.09550000 0.09549270 18173.25893557 0 410.30663078 0 6764.86484583 0 212.23005360 0 970.82577831 0 10155
0.09650000 0.09649430 17592.41295139 0 -78.53565647 0 6552.14677956 0 330.28808128 0 1314.61739188 0 9913
0.09750000 0.09749140 18013.76752346 0 33.04855046 0 6121.24268692 0 534.62674826 0 1685.16319072 0 10476
0.09850000 0.09850240 17395.87694147 0 151.13419521 0 7064.99263525 0 12.89030001 0 1531.23955947 0 10575
0.09950000 0.09950330 17726.39461053 0 264.98976837 0 6913.18742261 0 -493.21221885 0 1669.58005901 0 10882
0.10050000 0.10051200 17347.29749884 0 36.63488899 0 6284.23891727 0 16.17606710 0 318.17760333 0 10875
0.10150000 0.10150300 17394.54599784 0 38.02583600 0 6518.39626724 0 891.04679867 0 1496.30228909 0 11118
0.10250000 0.10250800 17156.19617542 0 -135.34476724 0 5543.63533225 0 695.29604549 0 1083.94489599 0 11575
0.10350000 0.10349800 17353.95221701 0 280.37880413 0 5440.52047422 0 359.85166675 0 722.70350227 0 11364
0.10450000 0.10450100 16852.18646707 0 431.63611163 0 5146.59266390 0 370.13986103 0 875.69325473 0 12093
0.10550000 0.10551000 16058.38950148 0 219.10659571 0 5008.82890661 0 -305.92293982 0 1397.08044119 0 12067
0.10650000 0.10649700 15770.79476462 0 258.67000435 0 5646.92764943 0 421.94240550 0 2195.72425984 0 12054
0.10750000 0.10749900 15821.92518255 0 47.43338925 0 4209.65271050 0 524.77443801 0 1566.27665063 0 12807
0.10850000 0.10850100 15666.87024921 0 -61.49292324 0 4897.31801249 0 544.54782393 0 1764.05487461 0 12736
0.10950000 0.10950300 15661.10282680 0 339.38619014 0 4156.32623557 0 -150.15484252 0 1896.86086687 0 12933
0.11050000 0.11050200 15014.81878063 0 160.76135417 0 4655.70737817 0 119.11280051 0 2037.50833537 0 13428
0.11150000 0.11150900 14862.31482259 0 273.29707488 0 4933.13148743 0 -606.49659536 0 1649.09461825 0 13453
0.11250000 0.11250000 14969.12304920 0 198.40487661 0 5270.21514508 0 106.54902534 0 969.86971714 0 13668
0.11350000 0.11349100 14589.47137766 0 269.03472789 0 5742.60031431 0 -676.28240656 0 1195.89721975 0 13791
0.11450000 0.11448600 14281.57975038 0 212.74357602 0 5410.57424246 0 -64.53069117 0 616.94228465 0 14205
0.11550000 0.11549300 14094.47125786 0 15.90632919 0 5645.47470263 0 673.37762208 0 1363.50738803 0 14776
0.11650000 0.11649800 14265.05386693 0 -99.38710673 0 4695.89078471 0 966.70096217 0 1146.84085564 0 14553
0.11750000 0.11747300 14341.13947799 0 -56.37034302 0 4953.83875214 0 1230.44629824 0 1922.27079908 0 14568
0.11850000 0.11849100 14048.88643841 0 115.52368917 0 3849.32190405 0 305.61238631 0 2236.55095581 0 16015
0.11950000 0.11950300 14018.05291089 0 41.73451044 0 3739.53014546 0 208.48788375 0 2941.95108171 0 15270
0.12050000 0.12050700 14005.85259425 0 22.53043566 0 3840.46003769 0 224.61115676 0 2746.54637388 0 15999
0.12150000 0.12150000 14020.82571013 0 -6.85234112 0 2810.54258027 0 -106.45707932 0 1933.77237032 0 15670
0.12250000 0.12250700 14006.07441818 0 91.56681468 0 3951.54946632 0 -450.44567254 0 1673.73925787 0 16887
0.12350000 0.12352200 13922.11405729 0 313.11558105 0 3979.41055305 0 -1087.03490346 0 693.64789362 0 16407
0.12450000 0.12449800 13760.07166987 0 87.21074708 0 4569.11840359 0 -477.53924844 0 647.83348639 0 16306
0.12550000 0.12549900 13768.61189152 0 54.57955836 0 5108.59422315 0 -286.49781749 0 -437.97583981 0 17523
0.12650000 0.12650100 13548.78436801 0 164.42699476 0 4589.23783486 0 149.35849458 0 -149.46053360 0 17154
0.12750000 0.12750600 13382.08367788 0 280.99658380 0 5289.68019573 0 -41.00226961 0 -708.07421349 0 18007
0.12850000 0.12850300 13177.22927024 0 281.29271876 0 5393.42725198 0 160.21566728 0 276.00554518 0 17496
0.12950000 0.12949900 12763.08397620 0 29.90608163 0 5369.72536410 0 462.37980045 0 -1.02213698 0 18405
0.13050000 0.13049000 12780.49715541 0 -20.44473607 0 4794.71334952 0 506.71131466 0 593.72619119 0 18100
0.13150000 0.13148800 12738.12878306 0 95.48977104 0 4618.36331804 0 275.27574442 0 716.25064388 0 19059
0.13250000 0.13249300 12689.32751649 0 173.44191964 0 4645.72530091 0 -54.93724946 0 -47.51246949 0 18957
0.13350000 0.13349100 12320.32339402 0 178.69914699 0 4149.41641988 0 -129.27455515 0 365.75440176 0 19468
0.13450000 0.13450700 12009.43714357 0 149.59473708 0 4230.39324879 0 84.76624727 0 -158.05177475 0 19953
0.13550000 0.13551000 12134.76766908 0 148.83055361 0 4482.52942902 0 -68.52618396 0 267.51967039 0 19956
0.13650000 0.13649900 11711.86032945 0 145.45661150 0 3977.74687351 0 576.37068621 0 -426.20586161 0 19723
0.13750000 0.13749600 11608.93402177 0 88.65426636 0 3936.55416804 0 116.72153844 0 199.48848655 0 20946
0.13850000 0.13851100 11437.02046907 0 2.73476752 0 3620.36632544 0 643.44026328 0 304.39235465 0 20955
0.13950000 0.13949800 11632.89100717 0 -11.25523575 0 3524.27219509 0 352.35845409 0 396.74209692 0 20506
0.14050000 0.14048300 11444.00792315 0 59.21224041 0 2969.32415578 0 -20.03990738 0 457.24901275 0 21447
0.14150000 0.14148400 11435.91134937 0 207.18355899 0 3117.16981110 0 -130.10306756 0 742.14415228 0 21771
0.14250000 0.14249400 11083.21128642 0 85.70178973 0 3388.08338776 0 46.91077205 0 253.48597889 0 22470
0.14350000 0.14350900 11128.01972209 0 38.12155303 0 3203.74769448 0 153.81826488 0 361.96675800 0 22519
0.14450000 0.14449900 10899.65197693 0 20.37508335 0 2783.90152520 0 500.30393018 0 529.21202591 0 22218
0.14550000 0.14550500 10940.93341197 0 232.72991292 0 2841.54247574 0 -89.51838151 0 671.08728991 0 23559
0.14650000 0.14650700 10777.52680733 0 38.94207978 0 2972.39641734 0 341.58113801 0 903.19609580 0 23044
0.14750000 0.14750500 10582.34392344 0 137.47205881 0 2782.41530481 0 100.14496822 0 1253.42725832 0 23649
0.14850000 0.14849900 10481.15893368 0 -11.56734203 0 2655.28800539 0 -40.02890617 0 1200.27824254 0 23640
0.14950000 0.14949500 10511.72627247 0 93.40994979 0 3028.27386756 0 91.54751599 0 1456.01906177 0 24457
0.15050000 0.15050000 10334.44458045 0 124.72161880 0 2596.60448234 0 -199.41528465 0 1046.15053327 0 24591
0.15150000 0.15149900 10362.99332139 0 71.45159807 0 3245.93860767 0 -47.90587424 0 1229.70318804 0 25020
0.15250000 0.15250500 10280.87409919 0 74.46529810 0 3147.11604286 0 91.48185611 0 683.94642365 0 25297
0.15350000 0.15350100 10199.18743366 0 135.21500024 0 3050.38971428 0 -323.72985652 0 853.54968002 0 25452
0.15450000 0.15450400 10146.72607210 0 58.60566285 0 3034.96185932 0 168.02386993 0 579.59156980 0 26061
0.15550000 0.15549900 10069.59788852 0 35.80859482 0 3084.41750651 0 59.95634881 0 9.43196498 0 26128
0.15650000 0.15649500 9800.56981534 0 228.29232502 0 3113.60953688 0 -213.52661453 0 338.88154068 0 26331
0.15750000 0.15749700 9751.45799526 0 168.68490527 0 3100.74374842 0 130.00213767 0 126.80898207 0 27345
0.15850000 0.15849900 9366.04999250 0 54.95211166 0 3054.97037862 0 252.22269156 0 571.07907615 0 26980
0.15950000 0.15949700 9359.85001341 0 146.21746761 0 2617.57793577 0 119.70285218 0 -92.92559722 0 27777
0.16050000 0.16050000 9132.68011751 0 206.33064595 0 2983.49870548 0 -236.28685978 0 459.48721629 0 28224
0.16150000 0.16150500 8983.44806258 0 80.23438420 0 2752.48016425 0 279.44603447 0 -5.26788599 0 28075
0.16250000 0.16249700 8947.90077636 0 -38.72491414 0 2726.33821304 0 167.79428215 0 -17.49081759 0 28590
0.16350000 0.16349900 8831.14374608 0 8.53907926 0 2331.80215520 0 118.49612996 0 48.70366404 0 29163
0.16450000 0.16449100 8901.90558261 0 116.30229120 0 2146.77880771 0 108.90901023 0 -233.51295143 0 28996
0.16550000 0.16550500 8801.67443579 0 88.51839920 0 2303.71924452 0 -179.02522818 0 -92.67449252 0 30777
0.16650000 0.16650700 8609.29762472 0 117.30160804 0 2242.92839405 0 30.29272075 0 -608.63386901 0 29211
0.16750000 0.16749900 8430.71826266 0 83.33004818 0 2427.89628556 0 -232.22193610 0 -355.33200399 0 30922
0.16850000 0.16850800 8480.80610808 0 -3.65962916 0 2007.55101242 0 239.68076605 0 -747.82617247 0 30867
0.16950000 0.16949900 8502.36739495 0 33.97721638 0 2348.39458583 0 -29.05838144 0 -569.72262276 0 30852
0.17050000 0.17049200 8411.71904229 0 94.99588004 0 1916.61428864 0 -72.73218767 0 -810.43043365 0 31257
0.17150000 0.17149500 8302.47075235 0 155.44201611 0 2262.37126230 0 164.56896208 0 -551.13155843 0 32608
0.17250000 0.17250900 8165.57210842 0 63.23634849 0 2061.63168874 0 -27.12363305 0 -651.12646276 0 32361
0.17350000 0.17350400 8127.91749478 0 71.71956139 0 2247.89725028 0 259.71590422 0 -486.15045375 0 32508
0.17450000 0.17449800 8107.04386212 0 18.12800685 0 1973.30139624 0 29.53585747 0 -383.11434322 0 32791
0.17550000 0.17549800 7852.97781363 0 78.74683286 0 1906.70984976 0 69.00365999 0 -547.51028263 0 33633
0.17650000 0.17650100 8002.89752278 0 116.64390007 0 2149.99525482 0 5.14994221 0 55.06535278 0 33984
0.17750000 0.17750300 7823.18685863 0 82.55998637 0 1936.97772623 0 -19.23291189 0 -365.72778289 0 34069
0.17850000 0.17849800 7751.31590240 0 58.15369657 0 2203.32172975 0 143.26055450 0 80.96163398 0 34536
