### header ###
fiducial parameters:
Omega_m = 0.31
Omega_nu = 0
Omega_de = 0.69
Omega_k = 0
H_0 = 100
w_de = -1
zeff = 0
beta = 0
fgrowth = 0
b_1 = 2
gamma = 0.55
Lx = 3500 Ly = 3500 Lz = 3500
nx = 700 ny = 700 nz = 700
xoffset = 1379.75464 yoffset = 22.6059522 zoffset = 368.141391
bins = 400 dk = 0.001
kx_ny = 0.628318531 ky_ny = 0.628318531 kz_ny = 0.628318531
############################
A(data) = 3.34424263 (not used)
A(ran) = 3.33873766 (used)
Ngal = 187406
weighted Ngal = 0
Nran = 9399747
weighted Nran = 0
SN(data) = 6671.33781
SN(ran) = 132.799569
SN(data+ran) = 6804.13738
############################
13 columns: k_central k_mean P_0(k) sigma^{lin}_{P_0(k)} P^img_1(k) sigma^{lin}_{P_1(k)} P_2(k) sigma^{lin}_{P_2(k)} P^img_3(k) sigma^{lin}_{P_3(k)} P_4(k) sigma^{lin}_{P_4(k)} N_modes
### header ###
0.00050000 0 0 0 0 0 0 0 0 0 0 0 0
0.00150000 0.00179520 25602.14265149 0 -39619.64100253 0 -65913.76343162 0 84329.80866839 0 69076.86188929 0 3
0.00250000 0.00253879 39221.79976800 0 -34852.42273025 0 -23248.03609923 0 -55115.26317086 0 -43356.93072621 0 6
0.00350000 0.00331552 81545.47458651 0 -38655.26142788 0 -99057.03271215 0 11099.84808184 0 -3077.47441722 0 7
0.00450000 0.00420575 104618.71342183 0 -29467.09205204 0 -81150.96071106 0 -33521.92274434 0 -12963.94555293 0 24
0.00550000 0.00557378 122456.79638563 0 6045.48981176 0 -88678.33425588 0 -70312.53214129 0 1439.55972550 0 45
0.00650000 0.00659388 107222.15008149 0 3396.23541752 0 -17993.13789713 0 -35785.30330556 0 -22723.31157161 0 40
0.00750000 0.00754703 94311.22044997 0 12923.24086013 0 -32370.98923702 0 -23823.66922084 0 4466.33628147 0 57
0.00850000 0.00846663 89210.04623758 0 631.08134252 0 -18627.44345060 0 -5866.53334901 0 -11190.35224894 0 75
0.00950000 0.00948925 80917.60192727 0 -1680.81544152 0 -11888.43218486 0 3938.01820604 0 7909.34327652 0 112
0.01050000 0.01054430 82977.12628859 0 6963.92964865 0 -10950.99312760 0 2812.43917495 0 8507.63571350 0 105
0.01150000 0.01145670 76618.54307817 0 10050.37684421 0 8794.50952256 0 -19174.12854818 0 22853.07857590 0 144
0.01250000 0.01249090 64545.44246412 0 6037.40432919 0 13394.72764240 0 12142.08785907 0 36087.76024634 0 169
0.01350000 0.01339930 67136.78971910 0 -2754.52094448 0 28081.57972927 0 20985.21009785 0 58203.05240125 0 180
0.01450000 0.01448870 69445.08962797 0 -2877.44468026 0 11781.29122234 0 18106.93357782 0 39859.76541646 0 267
0.01550000 0.01550050 68244.91120620 0 -1280.32341092 0 3682.82085546 0 9107.40327967 0 37687.44358218 0 238
0.01650000 0.01653350 64543.66787261 0 7283.48921513 0 24146.64487598 0 -15200.92906542 0 46637.59587152 0 315
0.01750000 0.01747870 67257.46194190 0 4993.11268053 0 20003.63916794 0 -1738.61166882 0 39762.93926710 0 297
0.01850000 0.01844180 61204.44120741 0 -1290.53840330 0 32339.60114966 0 9613.35041086 0 24485.25911880 0 388
0.01950000 0.01947590 60310.93438126 0 106.40805623 0 22542.52506135 0 274.62025468 0 12685.77833347 0 399
0.02050000 0.02045430 63823.62736673 0 3307.88294263 0 33086.81508806 0 -1975.34217648 0 18839.17440034 0 462
0.02150000 0.02154770 60561.48452032 0 173.27222432 0 27615.19489759 0 7115.94559403 0 16086.33931779 0 571
0.02250000 0.02255340 59893.46172813 0 -1608.72266135 0 25417.58513427 0 7474.22452904 0 7690.36977517 0 510
0.02350000 0.02348930 58395.81740421 0 463.96473250 0 20411.90612760 0 3544.14762002 0 11696.99812553 0 555
0.02450000 0.02439640 65786.21466672 0 -2849.45049916 0 20845.12828040 0 10221.40310115 0 19358.57515343 0 592
0.02550000 0.02547300 64302.54525095 0 -1746.73042498 0 11976.60720060 0 7168.82842107 0 16772.99532086 0 837
0.02650000 0.02652900 68256.44605103 0 641.28524371 0 7954.28480655 0 926.19923827 0 13558.21188542 0 723
0.02750000 0.02749970 64267.38615663 0 4075.67105137 0 13586.71626157 0 -6400.50793488 0 8250.08702916 0 826
0.02850000 0.02848090 59350.76946145 0 4615.46851564 0 17942.67295102 0 -5405.08409997 0 8947.32403412 0 831
0.02950000 0.02946900 54062.70858048 0 2752.83508255 0 28046.19881100 0 -2090.94572227 0 11564.68014594 0 996
0.03050000 0.03053250 52887.59626381 0 1150.94459851 0 20663.12173848 0 4662.25118437 0 5812.26412234 0 1041
0.03150000 0.03150510 50686.99187732 0 -451.52040952 0 20555.98077596 0 8380.95206195 0 10228.96729747 0 1036
0.03250000 0.03246190 53390.13839754 0 -621.71926317 0 19281.71315858 0 3934.43574943 0 10039.42983282 0 1059
0.03350000 0.03345080 52269.59476986 0 -395.43666303 0 12907.49136046 0 3710.31593270 0 5001.49762542 0 1302
0.03450000 0.03451200 50124.89001598 0 2273.57337122 0 15608.08690539 0 543.66385553 0 11796.26433822 0 1339
0.03550000 0.03553350 49116.03474157 0 2070.90392938 0 13240.00544497 0 -5011.75698260 0 5617.10342084 0 1365
0.03650000 0.03647120 48203.45105667 0 1039.53685253 0 21935.17111647 0 1481.21826124 0 6799.11446200 0 1308
0.03750000 0.03744890 45653.36305433 0 2288.81267583 0 19451.74120779 0 -3110.59273131 0 4348.49231390 0 1579
0.03850000 0.03847530 45087.49018604 0 -75.39784594 0 23652.53205193 0 2535.35889279 0 7433.58638343 0 1662
0.03950000 0.03950240 44639.51674130 0 -1354.81188962 0 19455.62312672 0 5141.79017562 0 9403.79333572 0 1683
0.04050000 0.04050350 48270.77462215 0 -1283.17384853 0 20490.76453790 0 5886.64168907 0 9193.09386729 0 1822
0.04150000 0.04152450 46557.51742955 0 -664.80301772 0 15966.22165484 0 5827.96925722 0 13769.72101122 0 1887
0.04250000 0.04250150 48791.72814280 0 738.55060447 0 15985.18760163 0 455.31138064 0 14023.15486149 0 1920
0.04350000 0.04349210 48686.47268377 0 699.93105669 0 13999.19787608 0 -580.57535897 0 13354.79933339 0 2005
0.04450000 0.04448520 45850.12088820 0 1666.26379112 0 17999.23805545 0 -2406.68991699 0 10346.57834991 0 2151
0.04550000 0.04548030 44637.85306176 0 1940.27181173 0 22693.25442788 0 -3266.53496040 0 14556.64143469 0 2274
0.04650000 0.04648670 43845.27612784 0 -193.95287015 0 16001.60257311 0 3532.77914314 0 10656.03383596 0 2311
0.04750000 0.04749250 43284.17247423 0 -1144.82225780 0 19385.63767398 0 6368.82038520 0 9542.62184792 0 2568
0.04850000 0.04851840 44162.48436055 0 1614.83391087 0 11714.85495262 0 1402.28221256 0 9926.25525916 0 2493
0.04950000 0.04949480 41770.00226685 0 2216.16533582 0 18059.57416685 0 -1983.44984145 0 12655.38845383 0 2644
0.05050000 0.05050630 38549.56232097 0 1543.63951766 0 15994.61511903 0 -302.87175154 0 11879.22649139 0 2829
0.05150000 0.05149060 36458.87169623 0 1418.65281925 0 17750.12977200 0 229.66430609 0 10537.26929904 0 2784
0.05250000 0.05249300 35891.22423642 0 1163.17818875 0 17428.59597247 0 -79.92216700 0 8441.69854764 0 3055
0.05350000 0.05348950 34898.22937364 0 361.12715439 0 18235.36963848 0 225.84006138 0 6403.91293234 0 3009
0.05450000 0.05448610 35112.62221065 0 -241.14702229 0 18603.93011307 0 -403.72178715 0 5446.15480227 0 3336
0.05550000 0.05550870 34816.48725214 0 -484.34147953 0 14780.68361305 0 2079.46633343 0 3301.41677480 0 3349
0.05650000 0.05647670 35091.21620054 0 359.19728613 0 16053.06572695 0 176.98444794 0 19.25209966 0 3324
0.05750000 0.05747970 35226.86153922 0 220.00720090 0 13586.38352566 0 247.24828973 0 2272.12042442 0 3639
0.05850000 0.05849280 34620.83853797 0 612.45145900 0 16943.13428204 0 560.12762828 0 -288.96006321 0 3846
0.05950000 0.05951020 33697.60730400 0 520.41781585 0 13157.04329180 0 456.59795949 0 482.19644204 0 3787
0.06050000 0.06049470 33655.12801969 0 460.71944827 0 14934.18577881 0 1403.66861218 0 -1707.58959095 0 3930
0.06150000 0.06148310 31637.08473496 0 715.33783837 0 14094.24943392 0 0.93310684 0 1798.42649396 0 4083
0.06250000 0.06249100 32104.68959829 0 -98.90330872 0 13334.39153100 0 883.63233351 0 -487.63001943 0 4303
0.06350000 0.06350600 32033.26228995 0 267.01723917 0 13247.43654693 0 695.95264435 0 -1734.39701398 0 4470
0.06450000 0.06451750 31044.37117004 0 505.39368046 0 12132.10578181 0 463.46895600 0 -1901.80754071 0 4479
0.06550000 0.06550280 30033.29765624 0 28.97198102 0 11382.67360402 0 338.46340255 0 -233.90225244 0 4636
0.06650000 0.06648880 31078.19932074 0 170.05799545 0 11565.45652973 0 2050.11902630 0 -1669.64660619 0 4653
0.06750000 0.06749660 30690.56198740 0 -162.03018710 0 9008.74708282 0 502.58982587 0 -2845.81258657 0 5220
0.06850000 0.06852730 30037.95595896 0 421.99120677 0 9259.86287292 0 16.87392521 0 -285.50737360 0 5029
0.06950000 0.06949320 29584.65873969 0 788.10052683 0 8568.07164567 0 -978.86578698 0 -4545.66052205 0 5040
0.07050000 0.07048030 29228.07675780 0 111.77153725 0 10008.33011658 0 922.87742479 0 1950.81954003 0 5475
0.07150000 0.07148790 28313.94030533 0 451.43057083 0 8378.63400179 0 1246.09597713 0 -2600.57513084 0 5509
0.07250000 0.07249820 28452.69117915 0 332.91336760 0 10338.17122262 0 -322.68950225 0 861.03069236 0 5916
0.07350000 0.07351270 28049.41525812 0 627.08962073 0 8477.96676166 0 1272.78139699 0 249.89021284 0 5721
0.07450000 0.07449140 26906.35650063 0 167.77320888 0 10543.76874045 0 -495.28072708 0 2326.50056306 0 6028
0.07550000 0.07549160 27069.39709577 0 167.98505074 0 8864.29533376 0 154.19869293 0 1775.91136415 0 6183
0.07650000 0.07648840 27170.21607603 0 40.45136986 0 10288.46047790 0 756.45956018 0 672.61898421 0 6330
0.07750000 0.07749960 27035.79076902 0 129.22575388 0 8842.58986133 0 -661.35698283 0 1093.58314614 0 6583
0.07850000 0.07848650 26851.45507574 0 463.06412731 0 10442.21774119 0 2.66408332 0 -898.57217580 0 6549
0.07950000 0.07947320 26075.51493724 0 249.01733564 0 9689.73548424 0 183.61920196 0 255.07202006 0 6828
0.08050000 0.08048110 25716.93653990 0 587.09365542 0 9018.84007204 0 1043.57515734 0 -238.03261418 0 7147
0.08150000 0.08149960 24869.79091700 0 515.31253789 0 9001.95927028 0 403.44894371 0 436.76689934 0 7386
0.08250000 0.08250610 24536.72227264 0 236.80925516 0 8816.03753584 0 975.71255969 0 1905.20144698 0 7227
0.08350000 0.08350160 23875.68693453 0 243.15896541 0 7846.44509863 0 1147.39541549 0 925.14002896 0 7798
0.08450000 0.08449610 23468.30727062 0 411.34476682 0 7505.57934282 0 35.98073020 0 1697.54096652 0 7371
0.08550000 0.08548940 22602.63934881 0 518.82179260 0 8138.35431111 0 0.15277569 0 1098.28692276 0 8256
0.08650000 0.08650700 22400.77956436 0 594.76654547 0 8521.43316250 0 -279.10664384 0 2636.58824733 0 8037
0.08750000 0.08749060 21120.18996471 0 716.86065971 0 8799.65583795 0 34.18794912 0 1565.53354044 0 8155
0.08850000 0.08849210 20596.90729270 0 757.02077474 0 8952.31507274 0 -16.75713491 0 2764.74702807 0 8718
0.08950000 0.08949900 19618.99645777 0 393.51123124 0 9650.68337978 0 31.41636992 0 2160.39879756 0 8571
0.09050000 0.09049190 19596.25950403 0 128.77766953 0 10665.79408927 0 456.73881769 0 4174.21633625 0 8932
0.09150000 0.09150830 19357.90968161 0 -80.97505433 0 8993.28595427 0 1181.26793097 0 1952.01738930 0 9285
0.09250000 0.09250820 19795.67922516 0 67.29849937 0 9805.77158671 0 626.47738666 0 4400.93149307 0 9204
0.09350000 0.09350330 19028.94478013 0 443.16762910 0 8016.49533024 0 -51.18709395 0 3270.25051138 0 9349
0.09450000 0.09448040 18747.56111355 0 392.31116373 0 9663.44934747 0 536.11629601 0 4649.91777336 0 9564
0.09550000 0.09549270 18432.79294416 0 -77.00296396 0 8267.15638127 0 1097.22438610 0 4843.22624497 0 10155
0.09650000 0.09649430 18642.19474254 0 -76.82561573 0 8293.61997718 0 844.61904824 0 4691.35448516 0 9913
0.09750000 0.09749140 18435.34391946 0 -31.90194252 0 6624.32828930 0 1076.70567174 0 4868.51417401 0 10476
0.09850000 0.09850240 18527.62267807 0 -10.06400793 0 6705.54912455 0 547.47811816 0 4898.26076423 0 10575
0.09950000 0.09950330 17870.35834692 0 612.60451752 0 6707.11298332 0 -768.37594218 0 5160.53429846 0 10882
0.10050000 0.10051200 17497.02865764 0 625.63556481 0 6762.12532018 0 -408.46327385 0 3527.77701332 0 10875
0.10150000 0.10150300 16694.69147040 0 385.78621257 0 7917.70603902 0 -274.91860788 0 4043.10729713 0 11118
0.10250000 0.10250800 16261.24749367 0 396.85079065 0 7545.17491592 0 -105.22174180 0 3667.28208854 0 11575
0.10350000 0.10349800 15961.78517607 0 235.78886504 0 8228.30391836 0 825.72186688 0 2893.18308873 0 11364
0.10450000 0.10450100 15438.50250405 0 -22.71011305 0 6908.77312623 0 231.03850539 0 2980.64826787 0 12093
0.10550000 0.10551000 15555.62554382 0 188.82651892 0 7703.91212664 0 225.86668025 0 1982.69564006 0 12067
0.10650000 0.10649700 15288.32769737 0 143.35593880 0 6348.82295710 0 279.70113200 0 2751.40431814 0 12054
0.10750000 0.10749900 14879.28435392 0 -141.37505102 0 7043.77517548 0 383.76317825 0 2760.73201478 0 12807
0.10850000 0.10850100 15383.49016718 0 -194.62721493 0 5495.43299031 0 983.08931478 0 1846.31828238 0 12736
0.10950000 0.10950300 15782.77325732 0 -142.82799782 0 5055.45629858 0 348.76379716 0 1412.96303522 0 12933
0.11050000 0.11050200 15409.44356804 0 177.08870519 0 4590.96806158 0 -260.38913987 0 1050.06683491 0 13428
0.11150000 0.11150900 15198.04535421 0 395.31576899 0 4565.25866705 0 -444.75810674 0 795.59152125 0 13453
0.11250000 0.11250000 14806.96974982 0 286.25713852 0 6107.28996116 0 -646.11989646 0 574.98650483 0 13668
0.11350000 0.11349100 14521.81507628 0 260.78176825 0 5355.56190560 0 144.05579332 0 417.23641064 0 13791
0.11450000 0.11448600 14343.35771738 0 86.22340872 0 5858.59205199 0 433.72236578 0 413.25023445 0 14205
0.11550000 0.11549300 14230.22750851 0 -33.11055025 0 5016.54837968 0 517.70601819 0 661.49895015 0 14776
0.11650000 0.11649800 14328.27368953 0 154.33955113 0 5634.43896167 0 465.13263554 0 1582.31452142 0 14553
0.11750000 0.11747300 13924.66503259 0 138.26729764 0 4655.55210141 0 39.91477775 0 1657.66811349 0 14568
0.11850000 0.11849100 14136.17415839 0 63.14029872 0 5285.13280498 0 196.38516964 0 1719.97845794 0 16015
0.11950000 0.11950300 13682.32237927 0 265.37463290 0 4796.75412976 0 -237.40374332 0 1017.18143596 0 15270
0.12050000 0.12050700 13617.66070106 0 64.03912932 0 5302.47943701 0 325.86047546 0 2179.09855561 0 15999
0.12150000 0.12150000 13498.54124583 0 -152.35533600 0 4415.43877868 0 572.09392067 0 948.62674762 0 15670
0.12250000 0.12250700 13894.71880082 0 -27.95514008 0 4374.50117074 0 560.68551549 0 1939.53979273 0 16887
0.12350000 0.12352200 13619.76802848 0 -6.81039421 0 3732.53160018 0 361.94013913 0 694.65497430 0 16407
0.12450000 0.12449800 13566.86301904 0 210.67728603 0 3812.61004215 0 -390.79277887 0 1737.36945476 0 16306
0.12550000 0.12549900 13185.99131583 0 397.42087817 0 3824.64399084 0 -665.53170936 0 168.11814510 0 17523
0.12650000 0.12650100 12944.09231039 0 318.52364868 0 4504.04635110 0 -175.43278949 0 977.74446697 0 17154
0.12750000 0.12750600 12818.31813700 0 -215.48088343 0 3971.13652013 0 569.83242561 0 -249.59185964 0 18007
0.12850000 0.12850300 13068.09189227 0 -165.57049716 0 3383.23653469 0 749.99117412 0 513.78417095 0 17496
0.12950000 0.12949900 12864.90116418 0 76.72357671 0 2931.98009566 0 381.53162942 0 44.83716187 0 18405
0.13050000 0.13049000 12970.37844716 0 187.47782937 0 2653.77960260 0 88.57784801 0 692.86152776 0 18100
0.13150000 0.13148800 12405.50378659 0 234.37362831 0 2830.67310273 0 55.15962796 0 565.81186672 0 19059
0.13250000 0.13249300 12298.47373604 0 290.59823300 0 2780.20815662 0 -128.64790252 0 548.48630796 0 18957
0.13350000 0.13349100 11781.62395825 0 133.50917414 0 2710.63307816 0 75.55778100 0 304.78387390 0 19468
0.13450000 0.13450700 11899.96702969 0 -1.05606274 0 2992.12765671 0 309.51759676 0 291.68517030 0 19953
0.13550000 0.13551000 11581.76058924 0 87.12634307 0 2516.29312523 0 -80.73681542 0 521.69663085 0 19956
0.13650000 0.13649900 11681.80318572 0 241.28677137 0 2521.92745328 0 152.48953948 0 743.65144594 0 19723
0.13750000 0.13749600 11252.68477579 0 202.10157255 0 2924.72645285 0 -299.79616263 0 -9.71264990 0 20946
0.13850000 0.13851100 11026.93455310 0 245.98722064 0 2831.98186397 0 -37.28605316 0 832.78585022 0 20955
0.13950000 0.13949800 11024.82722568 0 126.70583394 0 3281.50807628 0 4.23130273 0 564.14929629 0 20506
0.14050000 0.14048300 10691.17074789 0 127.27481234 0 3659.96189855 0 -320.18510998 0 700.67305777 0 21447
0.14150000 0.14148400 10646.24030905 0 179.94247017 0 3684.36253184 0 -12.20641680 0 471.20617499 0 21771
0.14250000 0.14249400 10545.58769675 0 19.02107003 0 3815.62684772 0 -82.39384024 0 884.49744687 0 22470
0.14350000 0.14350900 10732.74055405 0 -33.56961489 0 3749.25712518 0 -205.39898540 0 151.51351415 0 22519
0.14450000 0.14449900 10619.21106209 0 59.15756081 0 3929.22288686 0 247.87937884 0 250.11647326 0 22218
0.14550000 0.14550500 10668.65561809 0 64.98897943 0 4136.70590817 0 -367.50348352 0 48.03819222 0 23559
0.14650000 0.14650700 10592.58109822 0 37.73014469 0 3822.35920427 0 141.65787654 0 -631.64588444 0 23044
0.14750000 0.14750500 10577.18651685 0 80.14498915 0 4211.52712279 0 -120.48367245 0 -247.47233191 0 23649
0.14850000 0.14849900 10365.85485020 0 133.15314672 0 3825.71983694 0 -93.16694166 0 -858.12258052 0 23640
0.14950000 0.14949500 10514.92053719 0 17.29949444 0 4064.65749280 0 358.60612533 0 -385.00095583 0 24457
0.15050000 0.15050000 10192.27761796 0 93.25877677 0 3715.59534244 0 284.37163503 0 -874.87472440 0 24591
0.15150000 0.15149900 10170.70523990 0 49.22384118 0 3456.61589370 0 369.39896908 0 -138.02883690 0 25020
0.15250000 0.15250500 9939.20977720 0 184.48098796 0 3388.91522753 0 278.98353156 0 51.22691134 0 25297
0.15350000 0.15350100 9901.89899066 0 33.13184535 0 3073.29303597 0 425.54815363 0 856.31027894 0 25452
0.15450000 0.15450400 9921.02021420 0 -102.67686666 0 2609.22626446 0 845.76033241 0 493.62813874 0 26061
0.15550000 0.15549900 9989.19780184 0 20.21226458 0 2362.74659468 0 297.42486472 0 1253.47162310 0 26128
0.15650000 0.15649500 9634.97824491 0 122.93149962 0 2128.06795846 0 35.25259312 0 1810.43826025 0 26331
0.15750000 0.15749700 9768.18352025 0 128.49262576 0 2023.41142405 0 101.02084004 0 1531.89394009 0 27345
0.15850000 0.15849900 9649.28588897 0 -55.38943756 0 2127.04756834 0 -7.32034526 0 1386.39961853 0 26980
0.15950000 0.15949700 9468.03354844 0 237.54460152 0 2244.29261128 0 -191.53831658 0 931.87349463 0 27777
0.16050000 0.16050000 9333.85224776 0 214.51927665 0 2293.85917044 0 -238.43855199 0 1284.11660027 0 28224
0.16150000 0.16150500 9056.91615116 0 116.04164807 0 2634.04836323 0 -319.96106780 0 565.15415874 0 28075
0.16250000 0.16249700 8821.53876953 0 287.85648912 0 2578.33728096 0 -102.32183745 0 413.33009107 0 28590
0.16350000 0.16349900 8570.17897309 0 262.80036609 0 3138.78655395 0 -128.44715186 0 893.17963584 0 29163
0.16450000 0.16449100 8269.55207981 0 151.33494588 0 2862.81539149 0 52.01205718 0 484.41357231 0 28996
0.16550000 0.16550500 8233.98261119 0 35.84896678 0 3054.46018356 0 324.40863778 0 1082.89566876 0 30777
0.16650000 0.16650700 8064.46475704 0 -23.17982524 0 2735.35535616 0 269.01698198 0 619.37680238 0 29211
0.16750000 0.16749900 8327.84741097 0 -127.73509701 0 2634.21473119 0 552.79745622 0 1664.97721228 0 30922
0.16850000 0.16850800 8354.43301005 0 -94.94940792 0 1926.00853245 0 398.30262833 0 994.10398247 0 30867
0.16950000 0.16949900 8472.04406249 0 39.14205406 0 2006.90772299 0 -102.19473233 0 1435.51143861 0 30852
0.17050000 0.17049200 8273.17890121 0 192.05849371 0 2407.65485113 0 -410.29332135 0 912.96300384 0 31257
0.17150000 0.17149500 8231.68673343 0 249.76488232 0 2485.12686181 0 -491.92342177 0 914.75645038 0 32608
0.17250000 0.17250900 7891.24244310 0 123.62580854 0 2877.35595069 0 -91.17429722 0 742.57670896 0 32361
0.17350000 0.17350400 7838.91417590 0 65.76325589 0 3010.03993978 0 -4.47906898 0 585.26804440 0 32508
0.17450000 0.17449800 7954.39571852 0 45.03303241 0 3001.33335017 0 152.80009300 0 724.79308377 0 32791
0.17550000 0.17549800 7722.91134702 0 3.15929418 0 2918.70393291 0 -25.28959272 0 168.08819887 0 33633
0.17650000 0.17650100 7823.07594666 0 40.21035815 0 2797.96516293 0 195.83171892 0 943.81538639 0 33984
0.17750000 0.17750300 7795.39231907 0 17.35483951 0 2709.45741128 0 58.30143132 0 287.85759824 0 34069
0.17850000 0.17849800 7905.50572238 0 -11.09951535 0 2687.29719978 0 194.88785806 0 745.85859413 0 34536
