### header ###
fiducial parameters:
Omega_m = 0.31
Omega_nu = 0
Omega_de = 0.69
Omega_k = 0
H_0 = 100
w_de = -1
zeff = 0
beta = 0
fgrowth = 0
b_1 = 2
gamma = 0.55
Lx = 3500 Ly = 3500 Lz = 3500
nx = 700 ny = 700 nz = 700
xoffset = 1379.75464 yoffset = 22.6059522 zoffset = 368.141391
bins = 400 dk = 0.001
kx_ny = 0.628318531 ky_ny = 0.628318531 kz_ny = 0.628318531
############################
A(data) = 3.33397505 (not used)
A(ran) = 3.33461101 (used)
Ngal = 187148
weighted Ngal = 0
Nran = 9399747
weighted Nran = 0
SN(data) = 6622.49573
SN(ran) = 132.635429
SN(data+ran) = 6755.13116
############################
13 columns: k_central k_mean P_0(k) sigma^{lin}_{P_0(k)} P^img_1(k) sigma^{lin}_{P_1(k)} P_2(k) sigma^{lin}_{P_2(k)} P^img_3(k) sigma^{lin}_{P_3(k)} P_4(k) sigma^{lin}_{P_4(k)} N_modes
### header ###
0.00050000 0 0 0 0 0 0 0 0 0 0 0 0
0.00150000 0.00179520 22141.68920365 0 -25526.16795240 0 -4038.14953209 0 -45358.66995142 0 59426.63324858 0 3
0.00250000 0.00253879 39141.72132603 0 -30177.15048066 0 -52149.80984282 0 22057.95066669 0 28359.08147691 0 6
0.00350000 0.00331552 61581.76372759 0 -33554.97451124 0 -32838.70501233 0 -68698.31933744 0 -64962.02782150 0 7
0.00450000 0.00420575 90831.80105535 0 -36130.57226656 0 -82842.47915763 0 -18432.90385613 0 -16241.06151522 0 24
0.00550000 0.00557378 123386.23868989 0 -18810.55911222 0 -78732.19248059 0 -59535.65971458 0 -20121.31676756 0 45
0.00650000 0.00659388 152295.44353543 0 1081.57470720 0 -71729.87619930 0 -99537.39245198 0 -45333.82567026 0 40
0.00750000 0.00754703 158228.12478304 0 -5847.77813497 0 -34670.08345242 0 -48919.83146756 0 -41189.93266646 0 57
0.00850000 0.00846663 136067.91328049 0 10534.47431741 0 685.17421915 0 -67875.01978798 0 -77639.59866922 0 75
0.00950000 0.00948925 142917.83651571 0 17369.47989273 0 10441.20844227 0 -34108.53615093 0 -65929.62384326 0 112
0.01050000 0.01054430 118906.50424250 0 15231.98441687 0 53968.98796626 0 -17449.44742273 0 -53304.29253316 0 105
0.01150000 0.01145670 115832.02444846 0 10471.56504832 0 75481.58447901 0 7375.72360895 0 -40245.73907026 0 144
0.01250000 0.01249090 92775.53332052 0 9759.36601868 0 61784.51080780 0 11030.20645620 0 -33455.59738659 0 169
0.01350000 0.01339930 96432.52277829 0 3483.13494560 0 53558.61367918 0 19629.20035896 0 -14859.32019941 0 180
0.01450000 0.01448870 80856.60034405 0 4311.15934497 0 58809.07540250 0 20315.85636203 0 -3704.45978071 0 267
0.01550000 0.01550050 82408.25879711 0 1279.00355848 0 41609.73447095 0 14562.18703317 0 -3493.39430278 0 238
0.01650000 0.01653350 74873.56506231 0 2172.12219273 0 36903.73960582 0 10440.37660250 0 8006.09178750 0 315
0.01750000 0.01747870 71150.25024679 0 8961.12148312 0 29738.27181742 0 346.57106752 0 13374.65257592 0 297
0.01850000 0.01844180 67437.58298034 0 -37.67280320 0 43498.45439926 0 11099.84808184 0 20990.20113648 0 388
0.01950000 0.01947590 62074.43469603 0 3362.72891153 0 29497.26010774 0 -1004.52194376 0 10.68249743 0 399
0.02050000 0.02045430 62575.53497415 0 4433.38433534 0 47687.15583873 0 -5787.33111160 0 13406.70613510 0 462
0.02150000 0.02154770 58809.51905038 0 709.13896840 0 47884.35732047 0 1862.16760282 0 18878.32632557 0 571
0.02250000 0.02255340 68182.91141526 0 -3028.47350911 0 49863.24867997 0 10702.22867125 0 13342.82084068 0 510
0.02350000 0.02348930 68442.33451188 0 -2822.49889058 0 46764.25734067 0 7308.10058115 0 7579.85708878 0 555
0.02450000 0.02439640 71089.80322342 0 547.36055147 0 47409.54317912 0 8334.12502844 0 8655.71428395 0 592
0.02550000 0.02547300 69674.56649283 0 2840.40008246 0 47437.38208346 0 2989.56559021 0 29892.32854303 0 837
0.02650000 0.02652900 68908.27569567 0 -1568.28415728 0 41306.39023442 0 11096.29889882 0 19912.24770508 0 723
0.02750000 0.02749970 71954.14020159 0 -2960.59538378 0 42181.26384969 0 18713.28931498 0 35816.69139293 0 826
0.02850000 0.02848090 72367.84184776 0 2171.88927760 0 35524.10561743 0 3452.95579871 0 16406.54217369 0 831
0.02950000 0.02946900 69202.85788662 0 3364.11531115 0 33496.85663924 0 -944.45645757 0 32433.65449978 0 996
0.03050000 0.03053250 62239.24988268 0 4500.90754236 0 40056.19051441 0 -2169.43812307 0 27554.30422635 0 1041
0.03150000 0.03150510 60031.21439422 0 3613.57851291 0 30554.80573675 0 340.74597088 0 13668.56929505 0 1036
0.03250000 0.03246190 58802.53159630 0 -1046.71063871 0 36358.27453991 0 7964.39997817 0 20453.94176403 0 1059
0.03350000 0.03345080 54900.53759795 0 393.22064188 0 29221.97659948 0 9510.27991762 0 7608.80511281 0 1302
0.03450000 0.03451200 55117.81414616 0 3292.92091794 0 29925.26939797 0 -6800.99996548 0 9429.70237179 0 1339
0.03550000 0.03553350 50379.43298594 0 2708.14865004 0 26333.27435432 0 -1247.51565034 0 874.59855359 0 1365
0.03650000 0.03647120 48672.94142349 0 1253.17216079 0 34934.38667569 0 -2161.40809648 0 5026.67464249 0 1308
0.03750000 0.03744890 47806.38620592 0 -1083.05760023 0 25499.77090366 0 4249.68084029 0 -14.63228340 0 1579
0.03850000 0.03847530 51491.76912788 0 -1206.73331916 0 26799.10462614 0 8025.42374378 0 -5062.47702624 0 1662
0.03950000 0.03950240 49134.33521653 0 800.72341808 0 22430.06032430 0 788.28464070 0 123.59364407 0 1683
0.04050000 0.04050350 48772.20763618 0 2468.42351921 0 21281.56688031 0 589.06788848 0 -202.61620409 0 1822
0.04150000 0.04152450 45565.40986254 0 1971.08315685 0 25117.01369698 0 50.28515781 0 7061.42126983 0 1887
0.04250000 0.04250150 43081.64721795 0 1444.88350004 0 24744.68221542 0 1193.21315008 0 2887.73731103 0 1920
0.04350000 0.04349210 41893.55820086 0 1171.60749843 0 24884.32038500 0 1718.56987593 0 4271.12012399 0 2005
0.04450000 0.04448520 41274.44758721 0 203.42918883 0 22396.45399755 0 3253.19225047 0 3928.97888053 0 2151
0.04550000 0.04548030 40978.42354066 0 -1101.35252960 0 19599.47595114 0 2527.91669964 0 3996.26917241 0 2274
0.04650000 0.04648670 42813.90572362 0 -596.15627245 0 17838.74843561 0 4043.19602670 0 2270.86711916 0 2311
0.04750000 0.04749250 42467.86037884 0 181.54958461 0 12637.30980280 0 2965.48660164 0 -654.60909860 0 2568
0.04850000 0.04851840 40200.26516277 0 962.35764944 0 11111.27201470 0 -660.73143932 0 -2111.63080458 0 2493
0.04950000 0.04949480 38379.09062387 0 2414.54248443 0 13828.94800292 0 -2563.35307389 0 -720.79137991 0 2644
0.05050000 0.05050630 36366.03837777 0 2216.12097103 0 13547.45342438 0 -65.46512452 0 -2646.76996613 0 2829
0.05150000 0.05149060 33287.12210494 0 1113.16798171 0 15076.70765960 0 -237.05437061 0 -1404.97737342 0 2784
0.05250000 0.05249300 31945.97456997 0 725.06703634 0 13248.10201874 0 1731.06965489 0 -2081.93967035 0 3055
0.05350000 0.05348950 32181.66250512 0 311.50957573 0 14742.19715964 0 1799.44688408 0 -2410.52747114 0 3009
0.05450000 0.05448610 31704.74103634 0 -720.20798295 0 12312.11590828 0 1474.18644237 0 16.98572448 0 3336
0.05550000 0.05550870 32204.06672295 0 -511.28865164 0 9600.46244000 0 2413.57755030 0 1360.20221134 0 3349
0.05650000 0.05647670 33550.53803246 0 -530.14035909 0 9601.66028927 0 894.76789524 0 21.72077828 0 3324
0.05750000 0.05747970 34266.03114759 0 -460.62517310 0 9295.55434470 0 1471.39146074 0 1735.71686641 0 3639
0.05850000 0.05849280 34038.21796228 0 204.11684304 0 9161.32867923 0 -602.48823678 0 -808.31312415 0 3846
0.05950000 0.05951020 34629.82240750 0 324.71031833 0 9811.49464434 0 -917.07007407 0 1098.41225329 0 3787
0.06050000 0.06049470 33462.14119279 0 632.09840528 0 11242.59178657 0 -720.06379739 0 -2021.68119733 0 3930
0.06150000 0.06148310 32979.67412554 0 1048.59836043 0 12775.28429284 0 -1678.86339086 0 442.29031542 0 4083
0.06250000 0.06249100 32031.04405056 0 489.56654241 0 12932.89020147 0 670.57931309 0 -1493.95095533 0 4303
0.06350000 0.06350600 31989.00841412 0 339.21649482 0 12738.46151897 0 1490.71232583 0 -627.38797393 0 4470
0.06450000 0.06451750 30563.34595840 0 651.55791032 0 12097.05759946 0 612.33611055 0 25.70329437 0 4479
0.06550000 0.06550280 30041.94878986 0 493.59930162 0 11904.84715634 0 2026.96060708 0 2089.25986033 0 4636
0.06650000 0.06648880 29391.78282476 0 610.57261024 0 10342.98480210 0 842.37086262 0 3115.18448685 0 4653
0.06750000 0.06749660 28342.99924134 0 493.67472176 0 10917.37570965 0 1594.47047328 0 3381.45085198 0 5220
0.06850000 0.06852730 27518.81239611 0 319.08264500 0 8970.97046601 0 1278.30481307 0 3941.22356196 0 5029
0.06950000 0.06949320 27252.06910951 0 314.66613038 0 10304.14343038 0 -294.18401697 0 2976.38924824 0 5040
0.07050000 0.07048030 25943.52969356 0 875.39379241 0 8910.64544581 0 -1133.15431861 0 1749.70286576 0 5475
0.07150000 0.07148790 26073.29669785 0 492.89722886 0 9668.24074455 0 -432.44798725 0 2436.95779346 0 5509
0.07250000 0.07249820 25300.90574238 0 -187.05081829 0 10130.82129567 0 567.86262903 0 2071.79122514 0 5916
0.07350000 0.07351270 26039.02489928 0 -175.31744104 0 8987.44089348 0 1415.28109538 0 1862.61125070 0 5721
0.07450000 0.07449140 26500.08595642 0 -667.73663931 0 7784.30112213 0 1439.83700542 0 1428.53507573 0 6028
0.07550000 0.07549160 26513.06265685 0 -65.63104882 0 7882.91295419 0 1163.85475176 0 2919.94614697 0 6183
0.07650000 0.07648840 27437.07027460 0 219.63231845 0 7816.09958378 0 74.66272141 0 3681.68955337 0 6330
0.07750000 0.07749960 25778.49268297 0 337.79571249 0 7463.74334793 0 679.76393328 0 5058.83911364 0 6583
0.07850000 0.07848650 26196.85263185 0 674.80395001 0 8938.04070227 0 35.21366301 0 6119.44591302 0 6549
0.07950000 0.07947320 25581.06937729 0 -31.56188642 0 7492.38081845 0 1044.06317000 0 6443.44195827 0 6828
0.08050000 0.08048110 25957.28277777 0 202.27570434 0 8108.77408885 0 52.41411307 0 4599.23100331 0 7147
0.08150000 0.08149960 24786.82876383 0 768.80738974 0 9018.67370408 0 -788.67615995 0 5134.13724973 0 7386
0.08250000 0.08250610 23846.73891050 0 782.58598371 0 8495.61285601 0 -1094.56249883 0 3702.23045012 0 7227
0.08350000 0.08350160 23326.78359756 0 500.15308990 0 9244.13555565 0 -97.63802497 0 2487.24528043 0 7798
0.08450000 0.08449610 22434.49680308 0 300.06124224 0 8436.80732979 0 124.15707688 0 1972.20336774 0 7371
0.08550000 0.08548940 21958.24080612 0 163.50087981 0 9091.97542471 0 364.57540753 0 202.09048135 0 8256
0.08650000 0.08650700 22310.27539726 0 64.39659860 0 7078.25770680 0 1544.99264369 0 1496.31338028 0 8037
0.08750000 0.08749060 21947.37143311 0 -295.72680247 0 6601.36951161 0 1035.67046127 0 -482.50921380 0 8155
0.08850000 0.08849210 21760.59567650 0 359.68640791 0 5707.37467280 0 81.76652214 0 1104.73312643 0 8718
0.08950000 0.08949900 21320.49698160 0 429.68406097 0 5638.89762284 0 -631.04141421 0 -646.44375941 0 8571
0.09050000 0.09049190 20638.94292913 0 687.02423080 0 7462.85605217 0 -1071.27874907 0 -469.87634047 0 8932
0.09150000 0.09150830 19863.11370260 0 796.18379117 0 6811.01531633 0 -1868.81122979 0 -2862.02791650 0 9285
0.09250000 0.09250820 19272.06381723 0 630.15190021 0 8103.31721995 0 -386.02356418 0 -3176.46334999 0 9204
0.09350000 0.09350330 18160.72588302 0 255.14411284 0 8826.54089935 0 69.94208616 0 -2416.45017031 0 9349
0.09450000 0.09448040 18371.90227291 0 97.98506853 0 7340.96379771 0 1640.88713250 0 -3306.06398633 0 9564
0.09550000 0.09549270 18204.97975884 0 -33.28423839 0 7138.66036538 0 1493.65149302 0 -2239.16847829 0 10155
0.09650000 0.09649430 17532.74231181 0 317.73506457 0 6100.94579651 0 674.96255412 0 -1297.84750209 0 9913
0.09750000 0.09749140 17541.39344543 0 258.35723259 0 6519.41665736 0 752.41681889 0 1157.83223182 0 10476
0.09850000 0.09850240 16772.66258495 0 200.39352822 0 6207.79838790 0 370.51141613 0 313.22649301 0 10575
0.09950000 0.09950330 17116.60060231 0 142.84130726 0 5948.79675677 0 236.80038220 0 1348.02407709 0 10882
0.10050000 0.10051200 16364.50653726 0 122.46345110 0 5568.86780531 0 311.19125837 0 1166.03971756 0 10875
0.10150000 0.10150300 16834.44055195 0 -39.26438996 0 5390.39935521 0 696.02251889 0 1879.80260597 0 11118
0.10250000 0.10250800 16548.17675872 0 -0.46943158 0 4863.77823292 0 376.23225552 0 2227.95527817 0 11575
0.10350000 0.10349800 16356.40996348 0 110.56581323 0 4765.00003290 0 537.57478840 0 1542.74113071 0 11364
0.10450000 0.10450100 16398.88924779 0 356.13167929 0 4615.36869487 0 -495.28516356 0 1763.60013554 0 12093
0.10550000 0.10551000 15685.05981221 0 370.79978725 0 4843.89171679 0 -587.79018259 0 425.31523849 0 12067
0.10650000 0.10649700 15176.52843213 0 434.61409801 0 5475.66847735 0 -968.37795115 0 -143.86169738 0 12054
0.10750000 0.10749900 15195.82711482 0 295.95084465 0 5737.70909645 0 -495.54026109 0 -878.83649995 0 12807
0.10850000 0.10850100 14282.68887007 0 165.15679552 0 6159.03039492 0 -285.88558342 0 -1989.86055328 0 12736
0.10950000 0.10950300 14887.71366360 0 -2.50171929 0 6221.15218903 0 74.29327364 0 -1403.29151148 0 12933
0.11050000 0.11050200 14649.69657709 0 -241.11042134 0 5504.02866795 0 885.79068043 0 -1345.37328102 0 13428
0.11150000 0.11150900 15320.49216852 0 -427.02217370 0 5519.48979650 0 1438.97189206 0 -543.84464204 0 13453
0.11250000 0.11250000 15383.37925522 0 99.64963537 0 4949.05844625 0 98.47186116 0 -605.89212513 0 13668
0.11350000 0.11349100 15251.83765941 0 575.04528817 0 5126.22922630 0 -207.60724272 0 565.05877444 0 13791
0.11450000 0.11448600 14400.36646969 0 607.31290746 0 6325.77544984 0 -720.70154122 0 1095.59619838 0 14205
0.11550000 0.11549300 13922.77952910 0 349.75202280 0 6958.49496215 0 -376.98534779 0 1657.65702229 0 14776
0.11650000 0.11649800 13598.91657822 0 106.55079993 0 6987.86445167 0 649.41065459 0 1170.86438823 0 14553
0.11750000 0.11747300 13522.16549533 0 102.41311800 0 6648.72892258 0 396.93730198 0 1599.00677283 0 14568
0.11850000 0.11849100 13421.23560311 0 -27.37828693 0 6502.93513870 0 638.80968855 0 1634.53187665 0 16015
0.11950000 0.11950300 13295.23960577 0 77.63893320 0 5768.36516482 0 585.45104915 0 1590.23363604 0 15270
0.12050000 0.12050700 13027.38719947 0 171.43441299 0 4819.01416203 0 396.43819812 0 1468.87375903 0 15999
0.12150000 0.12150000 12969.82388731 0 67.26955135 0 5043.34471151 0 445.62432923 0 1819.44431217 0 15670
0.12250000 0.12250700 12677.34902379 0 -6.52805670 0 3772.95901306 0 292.59686669 0 1712.13698170 0 16887
0.12350000 0.12352200 12715.05909341 0 118.51720323 0 4104.87417293 0 444.21796545 0 1165.71807285 0 16407
0.12450000 0.12449800 12370.12286832 0 69.98267994 0 3723.49227467 0 -282.44731236 0 1447.84484962 0 16306
0.12550000 0.12549900 12646.84823218 0 155.14255379 0 3460.17616792 0 394.25766880 0 1141.52817230 0 17523
0.12650000 0.12650100 12412.04759279 0 -146.15202955 0 3806.68734298 0 52.61486373 0 1597.60928201 0 17154
0.12750000 0.12750600 12467.17084162 0 34.15999930 0 3426.08182850 0 199.12136793 0 1208.10862759 0 18007
0.12850000 0.12850300 12845.26974558 0 -24.43235411 0 3344.28425101 0 -93.49845754 0 986.72500914 0 17496
0.12950000 0.12949900 12589.50674396 0 120.37719696 0 3809.46014222 0 -439.61622784 0 1021.12324735 0 18405
0.13050000 0.13049000 12424.02608549 0 191.32092912 0 4076.45852635 0 -143.50566995 0 676.26576976 0 18100
0.13150000 0.13148800 12256.43809960 0 110.82390538 0 3940.91300845 0 84.50760056 0 907.27654716 0 19059
0.13250000 0.13249300 12501.77537610 0 -15.64014046 0 3839.86111305 0 380.47352923 0 855.19117717 0 18957
0.13350000 0.13349100 12034.94689655 0 40.59455721 0 3841.44715421 0 366.07715559 0 812.39912111 0 19468
0.13450000 0.13450700 12152.84632011 0 303.13683115 0 3607.56708417 0 143.27053658 0 1319.29787699 0 19953
0.13550000 0.13551000 11572.00033593 0 255.96264317 0 3731.27829493 0 -173.37759069 0 676.31457103 0 19956
0.13650000 0.13649900 11470.18314794 0 130.41251196 0 3662.26886752 0 120.53247372 0 1496.71266337 0 19723
0.13750000 0.13749600 11176.93190063 0 152.86996754 0 3809.69305735 0 348.29131217 0 984.14297849 0 20946
0.13850000 0.13851100 11012.27199074 0 136.97517319 0 3368.85125225 0 112.33940653 0 2012.75278378 0 20955
0.13950000 0.13949800 10898.76468117 0 42.52420366 0 3602.60931913 0 378.72333835 0 1502.21389706 0 20506
0.14050000 0.14048300 11088.84561447 0 -60.98594463 0 2950.52457695 0 327.35667793 0 1890.29487828 0 21447
0.14150000 0.14148400 11020.84548598 0 -12.52972519 0 3287.03149236 0 194.58728662 0 1441.66705292 0 21771
0.14250000 0.14249400 11087.44812365 0 19.14129861 0 2821.32322370 0 -255.79960258 0 1680.56034399 0 22470
0.14350000 0.14350900 10988.34827892 0 153.95135924 0 3249.25487556 0 -218.81156987 0 1118.14792914 0 22519
0.14450000 0.14449900 10745.31797139 0 121.74252330 0 3265.18183438 0 -235.98517923 0 1081.56916160 0 22218
0.14550000 0.14550500 10748.42350654 0 113.91324738 0 3216.41384139 0 -54.75779389 0 743.93981706 0 23559
0.14650000 0.14650700 10634.82746739 0 263.01775355 0 3366.63301286 0 -64.66500557 0 175.72448797 0 23044
0.14750000 0.14750500 10102.84929697 0 258.26295742 0 3675.17902076 0 -289.44696676 0 533.90803869 0 23649
0.14850000 0.14849900 10031.39980623 0 248.93747902 0 3604.73882894 0 -105.19512293 0 8.67825160 0 23640
0.14950000 0.14949500 9585.35622976 0 177.68873895 0 3757.77516444 0 177.16190709 0 275.77484828 0 24457
0.15050000 0.15050000 9430.58966754 0 109.53599559 0 3649.85781813 0 217.17450920 0 428.71912684 0 24591
0.15150000 0.15149900 9396.62842249 0 -17.93956742 0 3291.50124473 0 395.11612744 0 748.34080401 0 25020
0.15250000 0.15250500 9311.30384437 0 -13.81674769 0 3277.77034291 0 259.42753310 0 -120.90624705 0 25297
0.15350000 0.15350100 9557.89442612 0 32.87441867 0 2995.25537425 0 -37.14685864 0 404.12107024 0 25452
0.15450000 0.15450400 9157.51330748 0 72.79551840 0 2829.51961825 0 -125.63886079 0 -436.14135583 0 26061
0.15550000 0.15549900 9418.99936673 0 56.42757359 0 3006.44639197 0 -38.93841969 0 65.69105220 0 26128
0.15650000 0.15649500 9092.07524549 0 3.30000819 0 2658.42681413 0 148.40021517 0 -622.48788312 0 26331
0.15750000 0.15749700 9176.64562222 0 98.59708077 0 2732.99293121 0 -16.48429146 0 -723.00185546 0 27345
0.15850000 0.15849900 9041.67684655 0 89.77447725 0 2518.71100617 0 107.53636369 0 -1037.58369275 0 26980
0.15950000 0.15949700 9138.38099275 0 58.13938893 0 2646.20431509 0 -40.82725053 0 -963.23163576 0 27777
0.16050000 0.16050000 8789.62939591 0 129.78031373 0 2768.48476144 0 -269.85769471 0 -489.97580758 0 28224
0.16150000 0.16150500 8989.07129943 0 -4.75475177 0 2734.42369561 0 254.45202215 0 -789.30059434 0 28075
0.16250000 0.16249700 8912.36458134 0 -71.91265913 0 2602.00589525 0 146.05997261 0 -695.24058950 0 28590
0.16350000 0.16349900 9021.08049382 0 -14.22823109 0 2580.27824043 0 300.44056117 0 89.77969011 0 29163
0.16450000 0.16449100 9049.99524427 0 57.83371554 0 2637.32026633 0 77.90833837 0 14.25851006 0 28996
0.16550000 0.16550500 9030.13091053 0 160.80460983 0 2486.00306637 0 -124.66949018 0 119.12056434 0 30777
0.16650000 0.16650700 8731.60025347 0 161.33033257 0 2970.65509941 0 16.86959965 0 271.24298521 0 29211
0.16750000 0.16749900 8536.08463367 0 195.12964615 0 2747.51130801 0 12.48380764 0 564.89684297 0 30922
0.16850000 0.16850800 8529.45209789 0 -31.11979131 0 2898.26285693 0 265.66411314 0 479.13305345 0 30867
0.16950000 0.16949900 8516.41994148 0 -85.79229390 0 2264.97769358 0 426.64729125 0 408.57085846 0 30852
0.17050000 0.17049200 8472.11060967 0 -35.01025046 0 2367.58235655 0 360.76114490 0 263.34827122 0 31257
0.17150000 0.17149500 8477.37892822 0 122.69747536 0 1693.48158843 0 -128.59133742 0 13.86410710 0 32608
0.17250000 0.17250900 8261.77715075 0 150.26464537 0 2002.48233541 0 -265.24375678 0 -13.60812227 0 32361
0.17350000 0.17350400 8146.16251376 0 160.68926139 0 1935.11440515 0 -173.28553376 0 -488.65151867 0 32508
0.17450000 0.17449800 8018.45847210 0 34.26658571 0 2047.02458235 0 150.76485836 0 -262.64619845 0 32791
0.17550000 0.17549800 8071.06401922 0 34.71178635 0 1917.42394601 0 117.35373667 0 -446.92310839 0 33633
0.17650000 0.17650100 7892.40701878 0 110.73251392 0 1882.53104042 0 8.00453902 0 -388.99267761 0 33984
0.17750000 0.17750300 7735.91022984 0 312.76620834 0 2471.52905435 0 -345.37987297 0 -253.35288453 0 34069
0.17850000 0.17849800 7296.80974266 0 273.63424727 0 2424.76856802 0 -349.64443819 0 -159.81527507 0 34536
