### header ###
fiducial parameters:
Omega_m = 0.31
Omega_nu = 0
Omega_de = 0.69
Omega_k = 0
H_0 = 100
w_de = -1
zeff = 0
beta = 0
fgrowth = 0
b_1 = 2
gamma = 0.55
Lx = 3500 Ly = 3500 Lz = 3500
nx = 700 ny = 700 nz = 700
xoffset = 1379.75464 yoffset = 22.6059522 zoffset = 368.141391
bins = 400 dk = 0.001
kx_ny = 0.628318531 ky_ny = 0.628318531 kz_ny = 0.628318531
############################
A(data) = 3.32549663 (not used)
A(ran) = 3.32848948 (used)
Ngal = 186714
weighted Ngal = 0
Nran = 9399747
weighted Nran = 0
SN(data) = 6662.82534
SN(ran) = 132.391943
SN(data+ran) = 6795.21728
############################
13 columns: k_central k_mean P_0(k) sigma^{lin}_{P_0(k)} P^img_1(k) sigma^{lin}_{P_1(k)} P_2(k) sigma^{lin}_{P_2(k)} P^img_3(k) sigma^{lin}_{P_3(k)} P_4(k) sigma^{lin}_{P_4(k)} N_modes
### header ###
0.00050000 0 0 0 0 0 0 0 0 0 0 0 0
0.00150000 0.00179520 70770.04401540 0 -109187.51018072 0 -172511.36821296 0 195805.10004362 0 200921.46919583 0 3
0.00250000 0.00253879 116216.88898256 0 -103801.07038281 0 -65800.63322275 0 -211089.87855796 0 -163457.62414413 0 6
0.00350000 0.00331552 237188.57409682 0 -108332.71163192 0 -296888.05079033 0 51236.00612625 0 4603.46784054 0 7
0.00450000 0.00420575 305481.51018581 0 -72398.67537528 0 -214471.58450748 0 -142854.61669311 0 -68240.47472742 0 24
0.00550000 0.00557378 298543.96649470 0 65115.41907529 0 -159778.67411640 0 -267450.90497005 0 -24315.67471747 0 45
0.00650000 0.00659388 232117.67885210 0 48835.31654681 0 68210.30667172 0 -81052.35997019 0 -40758.92875305 0 40
0.00750000 0.00754703 131912.04178399 0 50384.20220063 0 23457.32698564 0 -35118.50054504 0 -31823.74957960 0 57
0.00850000 0.00846663 117165.18632163 0 21867.84755099 0 66174.07382400 0 19523.39034008 0 -53184.28578218 0 75
0.00950000 0.00948925 84105.76649004 0 5850.45111343 0 40095.12061570 0 36725.17133495 0 -45851.23000789 0 112
0.01050000 0.01054430 82086.83590955 0 7355.93691359 0 40865.18241982 0 21136.05037635 0 -613.13911321 0 105
0.01150000 0.01145670 74718.62104094 0 3888.91747715 0 23762.88946157 0 4568.23110784 0 1780.62512286 0 144
0.01250000 0.01249090 67164.40679950 0 4344.33311504 0 22950.57019708 0 11391.54656158 0 9395.28638766 0 169
0.01350000 0.01339930 68467.95517683 0 827.55524174 0 22452.13180623 0 9595.28285103 0 21677.63352333 0 180
0.01450000 0.01448870 60152.88482475 0 286.64976689 0 14619.86125730 0 8283.56026155 0 26050.55974411 0 267
0.01550000 0.01550050 64885.49856255 0 -1980.38867109 0 28200.69918449 0 29572.45842305 0 20967.02053486 0 238
0.01650000 0.01653350 64971.89898678 0 -3399.71805336 0 444.56955640 0 5589.69707318 0 35326.34957584 0 315
0.01750000 0.01747870 72567.92704071 0 -5489.19973763 0 935.56020850 0 13284.03749686 0 30928.24633800 0 297
0.01850000 0.01844180 80859.92770314 0 -6881.75497046 0 -2173.12040046 0 4772.75277956 0 29530.31187464 0 388
0.01950000 0.01947590 80340.74877399 0 -1019.93094368 0 -9999.39061184 0 -6120.42193835 0 5920.71384610 0 399
0.02050000 0.02045430 87562.22710698 0 3503.53165679 0 -5111.94376463 0 -12438.55555349 0 11614.36870827 0 462
0.02150000 0.02154770 78257.82198712 0 2928.64164538 0 8117.39194887 0 -11678.91947451 0 6726.24529805 0 571
0.02250000 0.02255340 80183.14286536 0 1412.86321445 0 1196.57378276 0 4550.35209836 0 -653.00198416 0 510
0.02350000 0.02348930 78721.76675546 0 -2373.71578846 0 17832.75918926 0 1855.02487198 0 -1346.94823098 0 555
0.02450000 0.02439640 78420.86258226 0 1520.98020230 0 5013.47611813 0 1647.17584117 0 -6102.39874331 0 592
0.02550000 0.02547300 81507.65360492 0 563.63466475 0 9058.03636205 0 -3283.64867729 0 -5062.90958292 0 837
0.02650000 0.02652900 76398.71555466 0 2765.49013827 0 12590.17221577 0 -7227.56740011 0 -14724.00759664 0 723
0.02750000 0.02749970 76299.33843000 0 3352.53610154 0 19590.93572949 0 -9569.85073643 0 -12444.54479984 0 826
0.02850000 0.02848090 71755.60777622 0 2251.83462520 0 22322.58662587 0 -7221.38960341 0 -21181.19154793 0 831
0.02950000 0.02946900 68037.06217539 0 4112.64910199 0 19758.52371538 0 -2094.48381410 0 -25915.91261316 0 996
0.03050000 0.03053250 63140.07689881 0 2611.49995984 0 24862.02707914 0 4146.17779037 0 -21321.49518932 0 1041
0.03150000 0.03150510 58853.66201423 0 1482.94848796 0 18260.54665555 0 9568.25360407 0 -22501.59854462 0 1036
0.03250000 0.03246190 59144.91684609 0 297.89845883 0 18269.97417296 0 5649.76699585 0 -8859.38193351 0 1059
0.03350000 0.03345080 52071.06234448 0 2173.86351065 0 4676.52555484 0 3739.67433102 0 -17930.47263437 0 1302
0.03450000 0.03451200 53076.14661193 0 706.99836739 0 11417.49996244 0 7.08043158 0 -6006.67062245 0 1339
0.03550000 0.03553350 49314.23443103 0 849.25960504 0 5838.38389115 0 -4649.89559097 0 -14795.54581696 0 1365
0.03650000 0.03647120 50185.55886329 0 2647.57962351 0 13486.67366510 0 -2839.84552261 0 -9395.92967708 0 1308
0.03750000 0.03744890 46811.72766361 0 724.94503317 0 14445.95128915 0 -2120.20429982 0 -13203.18267110 0 1579
0.03850000 0.03847530 46165.33270546 0 1444.95004722 0 11595.62458543 0 -31.92479038 0 -12523.73594606 0 1662
0.03950000 0.03950240 46282.23392130 0 887.56305370 0 19263.52359558 0 30.53938897 0 -8166.89196085 0 1683
0.04050000 0.04050350 44881.41574674 0 597.12342482 0 13782.47588771 0 2841.33174300 0 -6947.60340675 0 1822
0.04150000 0.04152450 44162.48436055 0 409.33947841 0 21145.03424588 0 1502.28044424 0 1335.59084531 0 1887
0.04250000 0.04250150 44288.81309380 0 1551.38117313 0 16309.71602433 0 1603.21033647 0 -353.80474617 0 1920
0.04350000 0.04349210 42579.54873210 0 1291.35915188 0 19331.06898500 0 -850.38979801 0 1255.42367377 0 2005
0.04450000 0.04448520 40179.85736039 0 1206.43385685 0 21183.07705141 0 1630.38376899 0 3085.57099100 0 2151
0.04550000 0.04548030 39370.42180711 0 -79.69601750 0 18378.66790305 0 2960.57320139 0 6908.78421743 0 2274
0.04650000 0.04648670 39129.74283333 0 1003.87421786 0 16599.63991256 0 1027.13023962 0 -236.36671640 0 2311
0.04750000 0.04749250 38033.48892697 0 1168.26904815 0 18884.75921980 0 -1309.34907333 0 166.59643288 0 2568
0.04850000 0.04851840 35378.70002544 0 939.15264719 0 19062.55110688 0 -1465.71276790 0 -221.38140021 0 2493
0.04950000 0.04949480 36147.98544577 0 -68.28062486 0 17054.04625153 0 691.34979761 0 -2656.45258107 0 2644
0.05050000 0.05050630 35945.12745359 0 -552.96160593 0 16613.06026086 0 3066.34994668 0 -3909.30309714 0 2829
0.05150000 0.05149060 35682.93155773 0 1068.06784756 0 13367.55420988 0 524.90198677 0 -4209.20906262 0 2784
0.05250000 0.05249300 33985.42386480 0 852.83651606 0 14832.25767886 0 1500.94950061 0 490.70893570 0 3055
0.05350000 0.05348950 33139.72009750 0 146.86519351 0 13199.63348808 0 2453.63895367 0 -1327.62736590 0 3009
0.05450000 0.05448610 32054.44647612 0 1035.10481023 0 12831.73848531 0 1842.72473457 0 3162.59935380 0 3336
0.05550000 0.05550870 31773.06280954 0 566.38306336 0 14343.69045329 0 -1084.81666407 0 1809.17386380 0 3349
0.05650000 0.05647670 31277.17539399 0 375.10095343 0 14263.27927541 0 -539.20186700 0 2371.70828182 0 3324
0.05750000 0.05747970 30372.02281104 0 174.60205884 0 13889.28411432 0 1512.25143030 0 2412.40188342 0 3639
0.05850000 0.05849280 31227.37591969 0 -36.77330713 0 13791.34884527 0 -814.50090293 0 915.57830808 0 3846
0.05950000 0.05951020 31176.35641373 0 276.34604492 0 14438.63109917 0 -585.79154890 0 506.33532308 0 3787
0.06050000 0.06049470 30979.26584396 0 386.84764012 0 14848.89447428 0 818.82092414 0 -885.74409740 0 3930
0.06150000 0.06148310 30368.02998014 0 248.41730189 0 15932.39350415 0 367.09421835 0 415.18232096 0 4083
0.06250000 0.06249100 30672.48333637 0 -158.17599616 0 13479.57529905 0 1845.44207782 0 -503.42388388 0 4303
0.06350000 0.06350600 31018.86141706 0 -551.74601075 0 12842.94059422 0 2694.69502815 0 3034.77330897 0 4470
0.06450000 0.06451750 30609.70716164 0 158.71502833 0 9850.23619528 0 2177.63451762 0 3013.68894357 0 4479
0.06550000 0.06550280 30621.46383041 0 361.19702894 0 11478.94519353 0 645.87589013 0 4197.00874598 0 4636
0.06650000 0.06648880 30855.59899799 0 54.46964460 0 9409.41657257 0 1184.18491577 0 4894.76703719 0 4653
0.06750000 0.06749660 30413.83662354 0 10.15498901 0 10872.16799089 0 555.57580105 0 5377.21192204 0 5220
0.06850000 0.06852730 29319.57913263 0 971.54226964 0 6876.23155438 0 -21.43983826 0 3836.63357474 0 5029
0.06950000 0.06949320 29126.81412967 0 543.82467788 0 10600.84403994 0 -297.20525902 0 4620.51501025 0 5040
0.07050000 0.07048030 28386.92038125 0 279.52367285 0 10089.86150534 0 -717.80895705 0 3110.92546722 0 5475
0.07150000 0.07148790 28167.42559365 0 400.33786297 0 9392.28067328 0 337.06147526 0 1672.30849346 0 5509
0.07250000 0.07249820 27422.54080660 0 471.12964573 0 10115.02743122 0 -1486.09838790 0 -22.52444641 0 5916
0.07350000 0.07351270 26714.58970540 0 819.54628842 0 9320.06588995 0 -644.01145992 0 -1471.00326885 0 5721
0.07450000 0.07449140 25981.12885121 0 377.90702626 0 12102.60319793 0 72.76812315 0 -1504.25467730 0 6028
0.07550000 0.07549160 25320.53716098 0 414.23624186 0 10381.77071782 0 782.79560733 0 -417.78764312 0 6183
0.07650000 0.07648840 25081.63277871 0 185.78531272 0 10161.52172883 0 1815.68439641 0 -1057.19292895 0 6330
0.07750000 0.07749960 24413.72089849 0 530.48751355 0 9762.71556016 0 -511.31194315 0 -859.91380883 0 6583
0.07850000 0.07848650 23982.82789705 0 313.74999751 0 10035.71428184 0 -47.23674233 0 -2025.25256275 0 6549
0.07950000 0.07947320 23538.73637124 0 733.09706293 0 11641.32031685 0 -258.78646191 0 51.14605652 0 6828
0.08050000 0.08048110 22748.82132459 0 -75.18079122 0 8419.40524177 0 1041.80389318 0 -1618.26109073 0 7147
0.08150000 0.08149960 23393.44169122 0 -569.68380357 0 9465.39384357 0 2312.58111089 0 647.51849639 0 7386
0.08250000 0.08250610 23756.67839128 0 -329.87992523 0 7098.22186130 0 1567.71850624 0 -1069.07492824 0 7227
0.08350000 0.08350160 23654.08481950 0 50.22371258 0 6565.68913103 0 920.61814797 0 535.75915946 0 7798
0.08450000 0.08449610 23392.44348350 0 503.73221916 0 5783.13863915 0 -16.34875704 0 1251.78576117 0 7371
0.08550000 0.08548940 22682.27414290 0 300.57143730 0 5867.24318561 0 275.02175601 0 1233.45201261 0 8256
0.08650000 0.08650700 22306.06074242 0 477.24200437 0 5510.90521006 0 160.37316227 0 1413.00740001 0 8037
0.08750000 0.08749060 21861.19283282 0 497.45903816 0 5771.07141687 0 -151.35491003 0 903.66303519 0 8155
0.08850000 0.08849210 20811.30012971 0 711.05219987 0 6430.76472016 0 -435.90178598 0 1102.65796348 0 8718
0.08950000 0.08949900 20037.24549469 0 600.26667003 0 6698.18456977 0 -219.41160363 0 192.94689859 0 8571
0.09050000 0.09049190 19563.54047303 0 175.42169829 0 6482.93771060 0 297.11098385 0 1387.79710934 0 8932
0.09150000 0.09150830 19361.12612873 0 -183.87540861 0 6093.44814737 0 1074.70814717 0 541.19384597 0 9285
0.09250000 0.09250820 19731.79393074 0 54.55593411 0 4765.86514626 0 778.62420816 0 -67.70565721 0 9204
0.09350000 0.09350330 19378.98295581 0 168.81689051 0 5095.22933083 0 -180.90074958 0 1191.22782583 0 9349
0.09450000 0.09448040 18814.33011918 0 445.99477520 0 4737.12785496 0 147.82125469 0 -39.50806356 0 9564
0.09550000 0.09549270 18541.59758622 0 491.44206382 0 5529.42750896 0 -698.40601711 0 663.85472038 0 10155
0.09650000 0.09649430 17938.23647224 0 183.54710918 0 4608.14832565 0 268.61769889 0 -24.41549549 0 9913
0.09750000 0.09749140 17901.30278640 0 108.32228591 0 5616.48231381 0 387.74048147 0 1003.51819044 0 10476
0.09850000 0.09850240 17338.53545325 0 263.93499554 0 5238.17267710 0 -316.59599865 0 -455.63746183 0 10575
0.09950000 0.09950330 17124.47535215 0 410.82348056 0 5572.00661405 0 -276.06432852 0 -5.06597075 0 10882
0.10050000 0.10051200 16838.10064694 0 220.68043656 0 6203.80555700 0 -571.61810832 0 -993.84223022 0 10875
0.10150000 0.10150300 16658.31234441 0 182.77516187 0 6145.98714731 0 -284.67664295 0 -927.17637272 0 11118
0.10250000 0.10250800 16694.24782253 0 -54.46598450 0 6651.44626583 0 221.80508393 0 -585.66400013 0 11575
0.10350000 0.10349800 16502.03737941 0 53.64556866 0 5775.03097418 0 522.03491236 0 -1956.87533356 0 11364
0.10450000 0.10450100 16479.52224961 0 320.71637831 0 5816.53423316 0 -197.21146382 0 -972.06355589 0 12093
0.10550000 0.10551000 16126.93309862 0 397.17354448 0 6121.05413657 0 -262.73714627 0 -1512.31797748 0 12067
0.10650000 0.10649700 15582.68806437 0 193.39387383 0 6549.44052750 0 391.73220325 0 -302.34491969 0 12054
0.10750000 0.10749900 15380.05189613 0 110.84686416 0 6360.73490262 0 347.78999006 0 -1436.52073754 0 12807
0.10850000 0.10850100 15320.71399246 0 108.51471817 0 5837.20822427 0 250.62223184 0 -519.63255910 0 12736
0.10950000 0.10950300 15059.18356842 0 177.82405155 0 5973.18629886 0 165.08581186 0 -788.79039928 0 12933
0.11050000 0.11050200 14823.93928115 0 78.97353693 0 5432.66790678 0 543.60950866 0 -771.19643356 0 13428
0.11150000 0.11150900 14767.37417671 0 85.89932395 0 5782.91681521 0 318.91960441 0 -28.08679259 0 13453
0.11250000 0.11250000 14453.60421505 0 102.84345644 0 4672.57708873 0 140.00639732 0 -1358.83799411 0 13668
0.11350000 0.11349100 14384.94970594 0 185.54574287 0 5215.25826421 0 142.11150650 0 -452.85357140 0 13791
0.11450000 0.11448600 14358.10900932 0 154.03565234 0 4598.80953782 0 61.40951744 0 -1503.79993822 0 14205
0.11550000 0.11549300 13922.55770516 0 56.40938403 0 4656.56140033 0 276.61001541 0 -1132.78830911 0 14776
0.11650000 0.11649800 13724.24710373 0 164.39039381 0 4262.34698720 0 10.75820594 0 -1375.29733038 0 14553
0.11750000 0.11747300 13977.90277794 0 -267.30228293 0 3402.91231808 0 604.11420626 0 -1144.84444019 0 14568
0.11850000 0.11849100 13719.69971298 0 190.19406351 0 3783.14073186 0 90.94692768 0 -1981.42015241 0 16015
0.11950000 0.11950300 13853.01590030 0 262.10383892 0 3216.83530688 0 -378.89303367 0 -1529.01022889 0 15270
0.12050000 0.12050700 13506.08325976 0 78.34754977 0 3626.01174469 0 229.19625758 0 -1752.30929705 0 15999
0.12150000 0.12150000 13367.22147397 0 -69.85524209 0 3222.54727331 0 180.57466839 0 -1404.26753681 0 15670
0.12250000 0.12250700 13429.99764869 0 198.35052974 0 3352.95756702 0 91.94036619 0 -1145.59864158 0 16887
0.12350000 0.12352200 13242.11277239 0 303.80230297 0 4236.48231592 0 11.55747087 0 -731.53542240 0 16407
0.12450000 0.12449800 13010.41766814 0 164.40924884 0 3845.49544110 0 -134.79686211 0 -437.66750453 0 16306
0.12550000 0.12549900 12714.72635750 0 113.64151305 0 4416.33716563 0 123.15110531 0 56.27429325 0 17523
0.12650000 0.12650100 12504.43726337 0 143.60992721 0 4265.30833679 0 213.12844056 0 654.27747181 0 17154
0.12750000 0.12750600 12576.53004353 0 167.59131325 0 4806.73620701 0 375.25955755 0 675.35407337 0 18007
0.12850000 0.12850300 12236.58485707 0 127.59645705 0 4032.52629524 0 -5.70588845 0 991.65282794 0 17496
0.12950000 0.12949900 12309.56493298 0 217.38191459 0 4810.82885869 0 -171.43441299 0 960.10613646 0 18405
0.13050000 0.13049000 11993.35490799 0 74.58397391 0 4373.40314224 0 -138.45473886 0 279.90077354 0 18100
0.13150000 0.13148800 11917.38020890 0 72.73130037 0 4521.69244544 0 247.30818219 0 979.25619711 0 19059
0.13250000 0.13249300 11809.90651047 0 -90.07937425 0 3845.68399145 0 483.00499030 0 415.31541532 0 18957
0.13350000 0.13349100 12116.24537018 0 -44.79091158 0 3742.52476863 0 348.24029266 0 514.94652839 0 19468
0.13450000 0.13450700 11997.79138677 0 161.51888292 0 3591.50703099 0 -61.25534980 0 202.51416508 0 19953
0.13550000 0.13551000 11773.30556054 0 184.00739385 0 3593.73636157 0 -61.44689477 0 585.04289310 0 19956
0.13650000 0.13649900 11290.72758132 0 262.60405190 0 3909.65801545 0 -363.21673590 0 98.13069594 0 19723
0.13750000 0.13749600 11265.10691637 0 213.26486228 0 3930.09909142 0 -22.14601477 0 -66.18294678 0 20946
0.13850000 0.13851100 10963.99201042 0 197.66620289 0 4411.14648546 0 68.33530446 0 305.65231462 0 20955
0.13950000 0.13949800 10700.40971495 0 -21.37739482 0 4108.96682460 0 369.65850309 0 153.77168185 0 20506
0.14050000 0.14048300 10853.32404727 0 -4.90698954 0 3725.81033483 0 453.01328463 0 587.25891425 0 21447
0.14150000 0.14148400 11023.37427888 0 -109.26015752 0 3473.91816094 0 580.16942116 0 485.88426503 0 21771
0.14250000 0.14249400 10882.23879772 0 -2.09020261 0 3024.65813736 0 256.96750561 0 855.49951245 0 22470
0.14350000 0.14350900 10920.52560958 0 86.72129255 0 2762.16277918 0 47.24361887 0 1029.52926552 0 22519
0.14450000 0.14449900 10615.17386640 0 195.62209529 0 3031.31285552 0 -168.90894744 0 1140.58542056 0 22218
0.14550000 0.14550500 10868.75190223 0 115.83978829 0 3114.94048051 0 -143.23282651 0 850.11695457 0 23559
0.14650000 0.14650700 10456.17046695 0 59.49728417 0 3157.90777749 0 -30.29416261 0 647.64604516 0 23044
0.14750000 0.14750500 10415.09976465 0 47.82457577 0 3003.92869026 0 239.70294844 0 631.04695981 0 23649
0.14850000 0.14849900 10322.12226064 0 209.30308673 0 3337.30788813 0 -160.01269837 0 229.50015637 0 23640
0.14950000 0.14949500 10250.77259067 0 111.58187778 0 3003.93978146 0 267.22353543 0 696.32752680 0 24457
0.15050000 0.15050000 9864.10019146 0 14.95115531 0 3032.66598155 0 450.89153866 0 654.76770272 0 24591
0.15150000 0.15149900 9980.01429077 0 84.88636493 0 2419.57788785 0 393.26057019 0 1062.81394756 0 25020
0.15250000 0.15250500 9835.27417059 0 47.66896628 0 2179.98585137 0 145.65403480 0 758.35948222 0 25297
0.15350000 0.15350100 9805.01738532 0 105.13367770 0 2462.34554328 0 301.56631766 0 1599.06222881 0 25452
0.15450000 0.15450400 9498.80052878 0 167.18870280 0 2047.14658552 0 177.92609056 0 1200.42242810 0 26061
0.15550000 0.15549900 9486.52257375 0 75.29636149 0 1760.98261306 0 187.41239131 0 1882.12066613 0 26128
0.15650000 0.15649500 9236.94846002 0 -6.35597678 0 1798.72595627 0 133.95282202 0 1226.75292966 0 26331
0.15750000 0.15749700 9221.45405789 0 236.86692939 0 1920.30765722 0 -85.34631687 0 1452.78043226 0 27345
0.15850000 0.15849900 8998.65409359 0 136.49159700 0 1812.58995246 0 -168.78916252 0 1374.72058814 0 26980
0.15950000 0.15949700 8704.43791215 0 107.48412415 0 2093.50778876 0 123.75779379 0 1465.19148165 0 27777
0.16050000 0.16050000 8788.73100895 0 41.18172518 0 1521.26857342 0 64.90712640 0 1381.45294469 0 28224
0.16150000 0.16150500 8721.75127058 0 -15.38193740 0 1919.65327660 0 55.00180023 0 1120.14434459 0 28075
0.16250000 0.16249700 8753.84919455 0 124.12934889 0 1453.15753296 0 134.99206718 0 720.54404622 0 28590
0.16350000 0.16349900 8573.39542020 0 39.20327747 0 1903.38249068 0 -138.05545577 0 1303.59274211 0 29163
0.16450000 0.16449100 8568.52638474 0 98.04196637 0 1555.93965508 0 -315.78855951 0 550.62912721 0 28996
0.16550000 0.16550500 8467.96250201 0 31.42934662 0 2166.76514461 0 -42.46542032 0 778.28925401 0 30777
0.16650000 0.16650700 8530.27284647 0 104.03731288 0 1852.01915761 0 -221.27936119 0 153.84044727 0 29211
0.16750000 0.16749900 8351.56039004 0 128.49040753 0 2332.07943512 0 -136.84429707 0 697.87031230 0 30922
0.16850000 0.16850800 8482.76924994 0 30.48459846 0 2322.58537053 0 43.80446052 0 477.83427428 0 30867
0.16950000 0.16949900 8218.32184110 0 61.15508538 0 2386.07138187 0 148.08522517 0 600.43303799 0 30852
0.17050000 0.17049200 8226.17440854 0 171.75827594 0 2519.89776424 0 -121.51737200 0 516.62684473 0 31257
0.17150000 0.17149500 7961.51626696 0 124.34895458 0 2597.24777176 0 -65.51436943 0 685.92842054 0 32608
0.17250000 0.17250900 7910.89604409 0 25.10215149 0 2496.70607142 0 362.58010119 0 1236.93464845 0 32361
0.17350000 0.17350400 7898.74009224 0 -28.21123582 0 2255.80527371 0 365.05454723 0 688.52154239 0 32508
0.17450000 0.17449800 7959.00965645 0 66.55006540 0 2361.21600950 0 15.98729493 0 985.61034385 0 32791
0.17550000 0.17549800 7802.69032667 0 113.93653889 0 2095.29347147 0 -157.67467406 0 830.35022337 0 33633
0.17650000 0.17650100 7709.60191068 0 100.04514745 0 2188.81444414 0 1.64369321 0 841.97823425 0 33984
0.17750000 0.17750300 7707.29494171 0 -16.29840300 0 1977.97079016 0 99.54071981 0 768.65876770 0 34069
0.17850000 0.17849800 7615.83693168 0 -30.92491898 0 1762.71283978 0 313.36291474 0 764.62489937 0 34536
