### header ###
fiducial parameters:
Omega_m = 0.31
Omega_nu = 0
Omega_de = 0.69
Omega_k = 0
H_0 = 100
w_de = -1
zeff = 0
beta = 0
fgrowth = 0
b_1 = 2
gamma = 0.55
Lx = 3500 Ly = 3500 Lz = 3500
nx = 700 ny = 700 nz = 700
xoffset = 1379.75464 yoffset = 22.6059522 zoffset = 368.141391
bins = 400 dk = 0.001
kx_ny = 0.628318531 ky_ny = 0.628318531 kz_ny = 0.628318531
############################
A(data) = 3.30168015 (not used)
A(ran) = 3.29674748 (used)
Ngal = 185550
weighted Ngal = 0
Nran = 9399747
weighted Nran = 0
SN(data) = 6678.96483
SN(ran) = 131.129393
SN(data+ran) = 6810.09422
############################
13 columns: k_central k_mean P_0(k) sigma^{lin}_{P_0(k)} P^img_1(k) sigma^{lin}_{P_1(k)} P_2(k) sigma^{lin}_{P_2(k)} P^img_3(k) sigma^{lin}_{P_3(k)} P_4(k) sigma^{lin}_{P_4(k)} N_modes
### header ###
0.00050000 0 0 0 0 0 0 0 0 0 0 0 0
0.00150000 0.00179520 42667.50192390 0 -35768.99924605 0 -68210.52849566 0 71160.78688389 0 -7302.97644816 0 3
0.00250000 0.00253879 66613.17431118 0 -24469.95326702 0 -10336.07498640 0 -54115.16994204 0 10456.40338209 0 6
0.00350000 0.00331552 74317.00879944 0 -2658.19389899 0 -27050.09841308 0 -33526.80287100 0 -3092.69153944 0 7
0.00450000 0.00420575 72109.63878281 0 9428.16069541 0 -5293.87266817 0 -35633.24299540 0 18914.92727550 0 24
0.00550000 0.00557378 53067.27365437 0 7773.56484348 0 -557.80956812 0 -10024.83381764 0 11669.60286907 0 45
0.00650000 0.00659388 46595.67114706 0 2369.26821849 0 20239.88166293 0 15271.02543013 0 -10930.07513016 0 40
0.00750000 0.00754703 48147.10777617 0 -1479.18857220 0 2326.66693101 0 6066.44108280 0 -3428.32225029 0 57
0.00850000 0.00846663 54394.55719317 0 -2653.38031951 0 25064.21959950 0 -6716.29649439 0 3191.03718278 0 75
0.00950000 0.00948925 54929.70744592 0 201.60690517 0 12177.13604142 0 133.44373608 0 6529.27673145 0 112
0.01050000 0.01054430 52948.59784703 0 -3459.65488167 0 21486.53219991 0 18377.00422351 0 21469.45175661 0 105
0.01150000 0.01145670 66065.15826997 0 -10619.98744588 0 11251.68656806 0 32884.17891982 0 43086.41643264 0 144
0.01250000 0.01249090 84030.78999867 0 -21534.44617073 0 -26840.47479076 0 43864.02025068 0 38031.71433546 0 169
0.01350000 0.01339930 102435.18947864 0 -16182.49999533 0 -38026.27964895 0 21046.43350501 0 44319.42479737 0 180
0.01450000 0.01448870 114047.45085949 0 -8220.26280057 0 -57807.76214201 0 6481.27403106 0 39609.21527740 0 267
0.01550000 0.01550050 119028.50740894 0 10994.32643408 0 -68811.56045828 0 -45588.36864022 0 12204.97494576 0 238
0.01650000 0.01653350 100959.17298877 0 15629.04926762 0 -20435.30855316 0 -49944.54715360 0 -2907.79019511 0 315
0.01750000 0.01747870 81933.44465576 0 12482.58760538 0 5431.94697898 0 -36402.19567982 0 -19711.71886426 0 297
0.01850000 0.01844180 68079.20872379 0 11452.65905677 0 15660.21553104 0 -19365.67351947 0 -19842.92772416 0 388
0.01950000 0.01947590 65311.28961340 0 -103.50959373 0 33662.78094558 0 1520.99129349 0 -42627.79543883 0 399
0.02050000 0.02045430 70295.34078602 0 -77.26061247 0 32445.96572839 0 3265.68093824 0 -30859.59182889 0 462
0.02150000 0.02154770 64933.96709322 0 2582.04174074 0 33060.52895129 0 -3495.62363337 0 -20651.14324577 0 571
0.02250000 0.02255340 63387.63241470 0 463.23049526 0 35500.81410384 0 -520.40228817 0 -19022.51188590 0 510
0.02350000 0.02348930 66345.54372882 0 3093.25719048 0 48890.32888367 0 828.99931558 0 -10206.16379654 0 555
0.02450000 0.02439640 69984.89818344 0 -3212.13263937 0 38525.27259965 0 11232.83153325 0 -13368.55241760 0 592
0.02550000 0.02547300 73240.60813562 0 -5991.18731151 0 37211.52032113 0 12760.08935302 0 -2039.58238920 0 837
0.02650000 0.02652900 76446.29678956 0 -2174.61771205 0 25935.87676766 0 2828.37722496 0 -22123.94328853 0 723
0.02750000 0.02749970 79347.31026334 0 435.22411385 0 31696.42263863 0 -3960.11187036 0 7802.63487068 0 826
0.02850000 0.02848090 78358.64096738 0 1359.95820500 0 18945.64989105 0 2923.28459725 0 -14481.55403136 0 831
0.02950000 0.02946900 77808.07395087 0 2748.16568863 0 30766.53668649 0 3381.40648720 0 -2807.30395076 0 996
0.03050000 0.03053250 73177.61013695 0 6763.14571030 0 25091.28212006 0 -7917.24020875 0 -9236.81536566 0 1041
0.03150000 0.03150510 61025.65111260 0 6717.27251972 0 27850.77192077 0 2709.83451198 0 -2079.00050316 0 1036
0.03250000 0.03246190 57003.20671539 0 2530.82259324 0 33709.25306079 0 1523.90827829 0 7803.82162875 0 1059
0.03350000 0.03345080 53217.11572514 0 1888.93066105 0 30286.06603469 0 4852.88667751 0 -5180.04371389 0 1302
0.03450000 0.03451200 51409.91609440 0 2981.48010764 0 33283.01836207 0 1661.19511412 0 5274.30779676 0 1339
0.03550000 0.03553350 46650.57257195 0 1037.94637489 0 28531.88232536 0 1185.20530589 0 2746.15818199 0 1365
0.03650000 0.03647120 46897.46261602 0 -703.34049063 0 33642.26223123 0 4427.63909532 0 10578.91674358 0 1308
0.03750000 0.03744890 48756.01448863 0 -895.97239923 0 22502.04219249 0 7244.85857615 0 -1664.58902038 0 1579
0.03850000 0.03847530 50169.80936362 0 -10.51804825 0 27981.42622082 0 -1536.50787803 0 5167.28883740 0 1662
0.03950000 0.03950240 49008.00648329 0 2143.09653032 0 26871.08649434 0 -3471.57791838 0 2065.22523655 0 1683
0.04050000 0.04050350 47178.62445865 0 1329.80124050 0 27396.92014165 0 -818.16765264 0 -6570.79108163 0 1822
0.04150000 0.04152450 46390.59491548 0 1142.09382335 0 33493.64019212 0 -2070.54901108 0 3386.10915470 0 1887
0.04250000 0.04250150 44306.22627300 0 134.70369606 0 23755.34744764 0 1765.54109501 0 -15237.86275125 0 1920
0.04350000 0.04349210 44064.21635559 0 757.20599773 0 32522.27316340 0 3472.89777082 0 -1140.66305894 0 2005
0.04450000 0.04448520 43398.85545067 0 -121.18019962 0 20738.65278970 0 2255.76090892 0 -10834.40246528 0 2151
0.04550000 0.04548030 43454.42234738 0 87.59150787 0 23929.81197564 0 6267.85721938 0 -1674.12744976 0 2274
0.04650000 0.04648670 42291.84308327 0 74.90584045 0 15702.47299142 0 4279.17233297 0 -5644.83141321 0 2311
0.04750000 0.04749250 41864.38835288 0 15.74473045 0 12130.33119030 0 4685.37633000 0 159.72210901 0 2568
0.04850000 0.04851840 40538.10302181 0 84.27535089 0 8566.99579956 0 3261.61046896 0 -1342.48956981 0 2493
0.04950000 0.04949480 41342.76936041 0 -276.41702858 0 5467.12825570 0 3116.31578894 0 1543.83915921 0 2644
0.05050000 0.05050630 39201.61378955 0 352.36510881 0 2142.61960885 0 1958.08427403 0 675.26978028 0 2829
0.05150000 0.05149060 40766.35985501 0 772.49521273 0 2007.70628917 0 -1844.76551481 0 1075.24939758 0 2784
0.05250000 0.05249300 37826.30536797 0 970.30892854 0 3858.29468238 0 -425.46496965 0 1284.69334251 0 3055
0.05350000 0.05348950 36844.06896624 0 1147.93888414 0 3083.49693717 0 -1409.30294023 0 -1396.59242852 0 3009
0.05450000 0.05448610 35858.28338148 0 330.67627317 0 6052.67690739 0 880.77413205 0 2759.93344860 0 3336
0.05550000 0.05550870 36271.76320371 0 -253.40834051 0 3652.18696949 0 2454.95880611 0 35.99082319 0 3349
0.05650000 0.05647670 35244.27471843 0 976.21942739 0 5886.85242181 0 -738.50734880 0 2868.66045228 0 3324
0.05750000 0.05747970 33794.87710123 0 2247.07650171 0 6408.37159352 0 -3925.08587040 0 921.72283119 0 3639
0.05850000 0.05849280 31687.32785713 0 1529.27641761 0 11086.74937825 0 -2067.45456713 0 1549.14075135 0 3846
0.05950000 0.05951020 30721.83916279 0 210.74050585 0 12153.62270389 0 662.97186110 0 2510.72534437 0 3787
0.06050000 0.06049470 30265.10367246 0 154.55139299 0 13105.02557811 0 295.48945086 0 548.46745293 0 3930
0.06150000 0.06148310 30994.57169575 0 -49.79348505 0 9578.89006194 0 466.29388386 0 -428.89658599 0 4083
0.06250000 0.06249100 31118.34945369 0 -359.31596193 0 11930.91146917 0 775.92571994 0 1021.99390632 0 4303
0.06350000 0.06350600 31894.17868022 0 -114.80608873 0 11093.19336367 0 -30.26787647 0 1449.04269889 0 4470
0.06450000 0.06451750 31184.89663538 0 294.69975763 0 11203.77259725 0 878.92522952 0 1128.10782400 0 4479
0.06550000 0.06550280 31048.91856079 0 282.46727652 0 10505.79248210 0 117.79849367 0 2045.36090281 0 4636
0.06650000 0.06648880 30551.25655373 0 303.27103463 0 10375.97002182 0 85.22165181 0 215.62728723 0 4653
0.06750000 0.06749660 30229.39001829 0 263.29946995 0 11111.71566258 0 1100.91109996 0 2075.40695535 0 5220
0.06850000 0.06852730 30459.19961906 0 -67.47252025 0 10484.50847515 0 -66.20823471 0 1557.40369308 0 5029
0.06950000 0.06949320 30110.38147503 0 262.37890061 0 8964.84812529 0 1425.19662545 0 657.90429322 0 5040
0.07050000 0.07048030 30211.86592711 0 -0.13565865 0 9460.20316340 0 630.69758710 0 2815.94399318 0 5475
0.07150000 0.07148790 29919.94562343 0 -633.76873954 0 7469.65495590 0 1484.26834040 0 -400.48759412 0 5509
0.07250000 0.07249820 30924.47533103 0 333.19175664 0 7174.47384032 0 -18.54658862 0 -3.88127564 0 5916
0.07350000 0.07351270 29758.79053178 0 1156.87838888 0 7122.85540972 0 -2559.83716445 0 -2131.58386789 0 5721
0.07450000 0.07449140 28763.68834158 0 925.49272903 0 9541.02471556 0 -1034.75432840 0 -2265.62098301 0 6028
0.07550000 0.07549160 26934.74996482 0 489.10625774 0 10030.92288476 0 -843.93139403 0 -1863.22126653 0 6183
0.07650000 0.07648840 27292.88471428 0 241.52079562 0 9829.99476085 0 998.47502319 0 -5133.47177791 0 6330
0.07750000 0.07749960 26792.56081994 0 466.15635302 0 10752.76016454 0 -528.16501691 0 -4305.71356727 0 6583
0.07850000 0.07848650 26110.67403157 0 471.92710279 0 9813.79052210 0 -322.56638996 0 -4054.64214195 0 6549
0.07950000 0.07947320 25808.54982670 0 371.64271822 0 10351.26992622 0 760.44351812 0 -3300.07473997 0 6828
0.08050000 0.08048110 25101.70784519 0 112.70874339 0 9795.26822320 0 973.86698452 0 -3218.79844874 0 7147
0.08150000 0.08149960 24830.63899177 0 431.86680853 0 8936.65430265 0 795.08354443 0 -2752.87944734 0 7386
0.08250000 0.08250610 24235.04171565 0 292.06781660 0 8875.06488600 0 38.41890802 0 -4241.65081370 0 7227
0.08350000 0.08350160 23931.03200730 0 503.99286228 0 9389.58551243 0 79.24904226 0 -2220.37999066 0 7798
0.08450000 0.08449610 23047.83999431 0 501.85447951 0 7485.65955310 0 -456.41606386 0 -3584.66376247 0 7371
0.08550000 0.08548940 22901.65801854 0 369.90805502 0 9162.78162603 0 161.08632624 0 -2656.71876980 0 8256
0.08650000 0.08650700 22322.14297799 0 -39.77181222 0 7496.46237893 0 1265.78285172 0 -3326.78234223 0 8037
0.08750000 0.08749060 21793.20379553 0 209.90201136 0 7845.40252611 0 1052.46364257 0 -2713.08423269 0 8155
0.08850000 0.08849210 21997.83637923 0 355.52609994 0 6882.75317819 0 203.65101276 0 -853.70162942 0 8718
0.08950000 0.08949900 21125.84647516 0 158.93907051 0 7162.66171557 0 675.61693474 0 -158.54089654 0 8571
0.09050000 0.09049190 20885.16750138 0 458.63208501 0 7328.74129867 0 576.35737677 0 1200.20060416 0 8932
0.09150000 0.09150830 20572.83939532 0 215.80918286 0 6733.66530881 0 582.74257886 0 1430.17657288 0 9285
0.09250000 0.09250820 19963.04538711 0 565.22403328 0 7509.51671773 0 391.22644467 0 2283.66636044 0 9204
0.09350000 0.09350330 19676.44885796 0 250.61335888 0 7183.38007147 0 -134.73475141 0 3781.45486992 0 9349
0.09450000 0.09448040 18952.85916906 0 589.52928227 0 7824.96145014 0 200.94697895 0 1642.76154479 0 9564
0.09550000 0.09549270 18612.24851078 0 133.83969181 0 7181.56111517 0 432.77961404 0 3085.34916706 0 10155
0.09650000 0.09649430 18195.99588932 0 -91.22864408 0 7044.14118498 0 1322.07067623 0 2630.33281226 0 9913
0.09750000 0.09749140 18424.47454645 0 128.12661627 0 5898.95291768 0 919.12860022 0 3779.51391045 0 10476
0.09850000 0.09850240 18147.19462274 0 25.38420063 0 5170.78256444 0 785.81463114 0 2883.28974105 0 10575
0.09950000 0.09950330 17633.33946813 0 195.42467199 0 3853.93584198 0 441.66144456 0 2894.56948835 0 10882
0.10050000 0.10051200 17560.69212812 0 375.07877104 0 3535.35230084 0 -359.47345693 0 2239.15738709 0 10875
0.10150000 0.10150300 16835.54967165 0 320.44020751 0 4635.08884304 0 -634.20684182 0 563.75777704 0 11118
0.10250000 0.10250800 16771.44255329 0 404.26525581 0 4859.86304039 0 -1529.88643345 0 1306.23244699 0 11575
0.10350000 0.10349800 16220.43188890 0 162.42725195 0 4554.96603629 0 79.03309665 0 -852.29193829 0 11364
0.10450000 0.10450100 16064.04601193 0 225.42303237 0 5853.34591583 0 -144.87432366 0 -663.12159226 0 12093
0.10550000 0.10551000 15869.61732943 0 332.03716304 0 5336.19667573 0 -571.41624853 0 -1993.44300990 0 12067
0.10650000 0.10649700 15883.70314955 0 218.43668742 0 6910.78063288 0 -13.99498322 0 -722.16336097 0 12054
0.10750000 0.10749900 15203.36912875 0 23.81590538 0 5850.81712293 0 16.41774428 0 -1487.62897307 0 12807
0.10850000 0.10850100 15514.25537920 0 -74.96717476 0 6207.19946327 0 526.20298417 0 -1645.63416480 0 12736
0.10950000 0.10950300 15425.08215574 0 125.03106320 0 5557.69896998 0 342.32757557 0 -1790.72920328 0 12933
0.11050000 0.11050200 15257.49416985 0 123.01690183 0 5869.26178345 0 199.65041803 0 -1497.10085527 0 13428
0.11150000 0.11150900 14849.00538625 0 389.76018844 0 5202.53666131 0 -20.30066142 0 -1325.55331207 0 13453
0.11250000 0.11250000 14630.95245425 0 213.24489813 0 5325.37166751 0 -427.20517845 0 -2332.02397914 0 13668
0.11350000 0.11349100 14174.21696392 0 104.31204183 0 5352.13472574 0 213.87155075 0 -1247.90384224 0 13791
0.11450000 0.11448600 14381.73325882 0 -79.23395823 0 4607.71576897 0 787.30417889 0 -1841.10541981 0 14205
0.11550000 0.11549300 14477.45028848 0 -307.26053818 0 4149.31659910 0 967.62264064 0 -1740.13116280 0 14776
0.11650000 0.11649800 14399.25735000 0 206.31290003 0 3896.06020799 0 138.90947794 0 -1687.02651181 0 14553
0.11750000 0.11747300 14038.79344918 0 365.88527789 0 3442.44134400 0 -102.71934594 0 -1177.44146802 0 14568
0.11850000 0.11849100 13783.14135953 0 343.64077329 0 4209.69707529 0 -350.88776137 0 -400.75378285 0 16015
0.11950000 0.11950300 13357.23939671 0 172.84632236 0 3816.89124417 0 464.09782686 0 -1154.31632239 0 15270
0.12050000 0.12050700 13339.71530554 0 -20.32118014 0 3845.29579955 0 647.44307625 0 451.13332675 0 15999
0.12150000 0.12150000 13189.20776295 0 -98.84729818 0 3229.71218653 0 599.12094939 0 -113.28437651 0 15670
0.12250000 0.12250700 13471.36781331 0 4.93835544 0 3117.63564137 0 437.78950770 0 795.36526083 0 16887
0.12350000 0.12352200 13426.55937764 0 119.68954275 0 3179.40251718 0 -509.57062523 0 151.49355000 0 16407
0.12450000 0.12449800 13177.78383009 0 104.15809601 0 3124.84491939 0 -114.32029430 0 857.30072283 0 16306
0.12550000 0.12549900 13068.09189227 0 247.45569511 0 3860.54619536 0 -585.48543186 0 -261.18659693 0 17523
0.12650000 0.12650100 13091.49431783 0 165.13461312 0 4016.41078607 0 -509.96325360 0 -396.15204524 0 17154
0.12750000 0.12750600 12766.74407119 0 -14.89081920 0 4353.07297824 0 137.38887484 0 -771.55357010 0 18007
0.12850000 0.12850300 12844.93700968 0 54.73904977 0 4607.58267461 0 -32.99542363 0 -637.31237696 0 17496
0.12950000 0.12949900 12831.51666137 0 87.06489784 0 3777.01839114 0 411.83056124 0 -868.98197146 0 18405
0.13050000 0.13049000 12979.69505260 0 -6.53986882 0 4115.79900193 0 346.49010178 0 -738.33765348 0 18100
0.13150000 0.13148800 12552.90579403 0 82.51517794 0 3337.91790396 0 255.62768902 0 -656.49349296 0 19059
0.13250000 0.13249300 12344.05855549 0 330.01745607 0 3965.49110088 0 -277.64149673 0 -911.76737280 0 18957
0.13350000 0.13349100 12204.97494576 0 276.16304017 0 3757.13187501 0 -491.40879023 0 -1104.71648963 0 19468
0.13450000 0.13450700 11839.85274223 0 109.45170249 0 3898.12317062 0 72.79806938 0 -1115.19767075 0 19953
0.13550000 0.13551000 11951.31927156 0 -21.49706884 0 3625.55700562 0 452.69607640 0 -963.72630315 0 19956
0.13650000 0.13649900 11811.01563016 0 -59.36252613 0 3463.89171890 0 420.09683033 0 -643.87281996 0 19723
0.13750000 0.13749600 11891.98136788 0 -8.44962875 0 3006.50184795 0 277.36865328 0 -1472.54494522 0 20946
0.13850000 0.13851100 11830.86887270 0 194.01830822 0 3233.33900794 0 -308.25763678 0 -990.46385163 0 20955
0.13950000 0.13949800 11531.29564313 0 319.85348319 0 2993.79133625 0 -424.33366756 0 -1047.70330084 0 20506
0.14050000 0.14048300 11359.49300240 0 134.77800708 0 3838.90727011 0 87.64430196 0 -838.25824679 0 21447
0.14150000 0.14148400 11108.38830349 0 34.43805561 0 3540.53188981 0 55.25589955 0 -1216.38266051 0 21771
0.14250000 0.14249400 11192.90322424 0 87.83129954 0 3476.73532497 0 344.43157563 0 -762.89134529 0 22470
0.14350000 0.14350900 11052.32230292 0 38.06764981 0 3355.55290711 0 143.34373848 0 -904.88861246 0 22519
0.14450000 0.14449900 11062.38201855 0 7.50090995 0 3282.22900408 0 191.26436401 0 -393.42915639 0 22218
0.14550000 0.14550500 11060.67397422 0 147.96100377 0 3355.85236943 0 154.89965658 0 -258.90957420 0 23559
0.14650000 0.14650700 10646.19594427 0 268.64764512 0 3348.78727697 0 -438.37290466 0 -657.20000221 0 23044
0.14750000 0.14750500 10574.14752889 0 256.47505647 0 3880.88745056 0 -21.72288561 0 -18.06223605 0 23649
0.14850000 0.14849900 10141.67957749 0 64.85377774 0 4107.45842182 0 -166.32026208 0 -195.81286388 0 23640
0.14950000 0.14949500 10185.22361670 0 196.68463196 0 4099.31748326 0 -44.11667772 0 -166.52655834 0 24457
0.15050000 0.15050000 9955.60256628 0 60.55449707 0 4415.40550509 0 152.64370712 0 -101.97002468 0 24591
0.15150000 0.15149900 10053.60438252 0 109.75593402 0 4510.73434286 0 -231.68179481 0 205.98792796 0 25020
0.15250000 0.15250500 9960.94852321 0 47.00515814 0 4397.10503012 0 356.31690228 0 40.51913708 0 25297
0.15350000 0.15350100 9985.38243009 0 -79.68215350 0 4350.26690541 0 368.57932962 0 812.96144479 0 25452
0.15450000 0.15450400 9943.79044154 0 83.68352462 0 3740.98309226 0 456.26411446 0 468.70067360 0 26061
0.15550000 0.15549900 10004.76984236 0 20.38539817 0 3947.02425796 0 284.29177842 0 870.86747494 0 26128
0.15650000 0.15649500 9678.81065525 0 126.48290088 0 3446.58945166 0 209.82215475 0 1023.90048307 0 26331
0.15750000 0.15749700 9463.25324256 0 213.78393030 0 3476.32495068 0 -164.77414922 0 941.39639633 0 27345
0.15850000 0.15849900 9303.66200967 0 73.02421888 0 3019.06817409 0 331.38610978 0 1050.25871262 0 26980
0.15950000 0.15949700 9358.36379302 0 -149.35627634 0 3067.10414808 0 506.58043853 0 770.15718841 0 27777
0.16050000 0.16050000 9222.39680963 0 102.18031377 0 2360.05143382 0 162.76664257 0 421.94018726 0 28224
0.16150000 0.16150500 9134.90944810 0 257.81820042 0 2351.22284105 0 -212.74357602 0 82.96082223 0 28075
0.16250000 0.16249700 8778.16109826 0 279.76102446 0 2522.20473321 0 -368.31425002 0 -113.33206866 0 28590
0.16350000 0.16349900 8449.49565909 0 191.04475831 0 2908.98804438 0 -134.21124691 0 374.95454963 0 29163
0.16450000 0.16449100 8288.03001392 0 74.70187333 0 2707.01734796 0 156.25389173 0 -378.49818706 0 28996
0.16550000 0.16550500 8352.91351607 0 -14.97888330 0 2526.13101693 0 330.54206969 0 -113.85668227 0 30777
0.16650000 0.16650700 8289.61605509 0 2.73018686 0 2584.63708083 0 115.03900387 0 -296.16157739 0 29211
0.16750000 0.16749900 8350.07416965 0 15.26381615 0 2314.47770556 0 -111.13268430 0 80.57100202 0 30922
0.16850000 0.16850800 8238.18617484 0 87.13865430 0 2427.60791444 0 -162.62800261 0 -253.92186293 0 30867
0.16950000 0.16949900 8306.13084734 0 2.49123811 0 2528.28270914 0 -132.86144824 0 -231.82487125 0 30852
0.17050000 0.17049200 8237.80907414 0 108.75340073 0 2831.08347702 0 -150.27240921 0 -659.62897434 0 31257
0.17150000 0.17149500 8156.93206599 0 208.67976146 0 2710.91035808 0 -225.39197702 0 -939.84030140 0 32608
0.17250000 0.17250900 7963.77887114 0 8.37114744 0 2893.66001020 0 132.17823051 0 -519.76232611 0 32361
0.17350000 0.17350400 7991.83959942 0 71.08669769 0 3052.34176494 0 102.66621911 0 -727.23314710 0 32508
0.17450000 0.17449800 7902.62201117 0 53.47642791 0 2650.37460514 0 269.14342162 0 -531.98260690 0 32791
0.17550000 0.17549800 7936.49452665 0 25.72081846 0 2731.11851892 0 139.51283905 0 -529.21313503 0 33633
0.17650000 0.17650100 7634.47014255 0 115.02902179 0 2475.51079406 0 32.06298670 0 -295.35081089 0 33984
0.17750000 0.17750300 7740.26907024 0 90.95003321 0 2445.27619117 0 209.81882739 0 -157.02472991 0 34069
