### header ###
fiducial parameters:
Omega_m = 0.31
Omega_nu = 0
Omega_de = 0.69
Omega_k = 0
H_0 = 100
w_de = -1
zeff = 0
beta = 0
fgrowth = 0
b_1 = 2
gamma = 0.55
Lx = 3500 Ly = 3500 Lz = 3500
nx = 700 ny = 700 nz = 700
xoffset = 1379.75464 yoffset = 22.6059522 zoffset = 368.141391
bins = 400 dk = 0.001
kx_ny = 0.628318531 ky_ny = 0.628318531 kz_ny = 0.628318531
############################
A(data) = 3.33645348 (not used)
A(ran) = 3.344116 (used)
Ngal = 187893
weighted Ngal = 0
Nran = 9399747
weighted Nran = 0
SN(data) = 6620.47475
SN(ran) = 133.013494
SN(data+ran) = 6753.48825
############################
13 columns: k_central k_mean P_0(k) sigma^{lin}_{P_0(k)} P^img_1(k) sigma^{lin}_{P_1(k)} P_2(k) sigma^{lin}_{P_2(k)} P^img_3(k) sigma^{lin}_{P_3(k)} P_4(k) sigma^{lin}_{P_4(k)} N_modes
### header ###
0.00050000 0 0 0 0 0 0 0 0 0 0 0 0
0.00150000 0.00179520 27496.74091419 0 -35790.18343222 0 -57744.20958350 0 55877.22840121 0 40709.79475057 0 3
0.00250000 0.00253879 35060.04993712 0 -23891.65825814 0 -440.09425843 0 -74121.91464512 0 -37735.46846497 0 6
0.00350000 0.00331552 59298.52992382 0 -11971.06160213 0 -59870.50295044 0 14934.51851472 0 -3424.98380001 0 7
0.00450000 0.00420575 75167.14904552 0 -13618.21526091 0 -28853.41612489 0 -26603.12317607 0 945.09087404 0 24
0.00550000 0.00557378 86041.51309341 0 1622.90830225 0 -28064.94293384 0 -33469.12864686 0 3368.67379310 0 45
0.00650000 0.00659388 96253.39994758 0 -6334.89241373 0 2966.79536288 0 9570.25001952 0 -8346.73571937 0 40
0.00750000 0.00754703 80268.87781777 0 4652.32456310 0 -153.08070028 0 -17772.31216589 0 -14028.36772405 0 57
0.00850000 0.00846663 84889.69229034 0 7509.61653851 0 26555.09829328 0 -25981.01793924 0 -12552.68397009 0 75
0.00950000 0.00948925 76431.87823353 0 4377.81743863 0 37544.69987746 0 -3635.96054835 0 -7636.00072773 0 112
0.01050000 0.01054430 71773.02095543 0 9306.98936875 0 44794.12802676 0 -9956.42331486 0 -9917.09393048 0 105
0.01150000 0.01145670 71102.11445203 0 4432.33067163 0 71876.72364690 0 -8617.29437772 0 -6558.55749139 0 144
0.01250000 0.01249090 69702.07266126 0 2090.82371910 0 66891.11970670 0 10598.55925337 0 -9926.16652958 0 169
0.01350000 0.01339930 66990.71865529 0 458.16514561 0 60661.08346891 0 21986.41244637 0 7195.01473707 0 180
0.01450000 0.01448870 70406.80731535 0 1410.43424231 0 79723.74548776 0 762.88025409 0 581.68891515 0 267
0.01550000 0.01550050 75244.56560022 0 4427.60582173 0 69875.98262941 0 3400.20606602 0 -15180.18852712 0 238
0.01650000 0.01653350 73946.67373334 0 -2845.06947637 0 72289.20526140 0 26400.59791979 0 13291.91224669 0 315
0.01750000 0.01747870 70417.45486442 0 -5463.95617338 0 58349.01255309 0 14167.67315772 0 3609.25294610 0 297
0.01850000 0.01844180 85418.74238477 0 -3027.83021968 0 54428.49625583 0 10599.46873152 0 9263.31223517 0 388
0.01950000 0.01947590 84278.78916243 0 475.39864743 0 39320.40050887 0 11632.11462339 0 -2815.37834214 0 399
0.02050000 0.02045430 80898.96871640 0 2207.01509833 0 43876.10965535 0 -4646.54604949 0 9041.96521768 0 462
0.02150000 0.02154770 78910.87166343 0 3629.51656293 0 36711.97281059 0 1874.27918989 0 -360.66243324 0 571
0.02250000 0.02255340 77141.93666216 0 5891.02271187 0 44088.06242903 0 -4080.25171571 0 -3204.70153742 0 510
0.02350000 0.02348930 69563.76543531 0 1291.07078076 0 33996.07141387 0 2741.59970004 0 -6393.56484559 0 555
0.02450000 0.02439640 66631.25296220 0 3583.51027799 0 44185.66496218 0 3504.64077649 0 -8602.93127768 0 592
0.02550000 0.02547300 64784.56867032 0 4523.40048977 0 35877.02750432 0 -2386.85885685 0 -8649.27029853 0 837
0.02650000 0.02652900 56163.27037050 0 4136.36208107 0 41019.35005740 0 3437.76085889 0 -11947.65917656 0 723
0.02750000 0.02749970 52517.92666953 0 910.69929054 0 41013.02807514 0 7086.79792845 0 8893.79791764 0 826
0.02850000 0.02848090 53248.50381251 0 -1310.61346978 0 36577.43659160 0 11560.57640307 0 -3863.36335938 0 831
0.02950000 0.02946900 54938.35857954 0 -94.86877492 0 25727.91682488 0 8410.39918985 0 5366.13181629 0 996
0.03050000 0.03053250 53633.47925858 0 570.23281782 0 24011.99774502 0 9241.22966205 0 15176.52843213 0 1041
0.03150000 0.03150510 51857.55680323 0 1626.52403246 0 23719.96652938 0 523.64091768 0 15683.95069251 0 1036
0.03250000 0.03246190 51942.62628382 0 1095.49748673 0 20611.65858464 0 4703.03351555 0 16761.57138800 0 1059
0.03350000 0.03345080 49331.09305040 0 1269.98641536 0 23392.77621940 0 -1891.23763002 0 14464.69541199 0 1302
0.03450000 0.03451200 50404.05544317 0 -1173.38208994 0 25926.11651435 0 3128.16118728 0 19923.33890203 0 1339
0.03550000 0.03553350 53019.02694765 0 -984.86168805 0 25437.54928878 0 2006.71917264 0 10239.47066098 0 1365
0.03650000 0.03647120 54222.86546441 0 133.83858269 0 25418.47243003 0 -1488.69372798 0 14076.83625471 0 1308
0.03750000 0.03744890 52818.49810683 0 1466.98825555 0 26443.07720410 0 -399.58920717 0 9911.49287602 0 1579
0.03850000 0.03847530 53757.70066440 0 1070.77520873 0 31043.26205035 0 -1397.90118976 0 15183.62679818 0 1662
0.03950000 0.03950240 51619.65062869 0 1527.32436695 0 36453.99156957 0 4462.29908578 0 16275.88787364 0 1683
0.04050000 0.04050350 50249.99871756 0 487.33943007 0 31799.12712237 0 4328.21760588 0 15891.46698741 0 1822
0.04150000 0.04152450 52133.17304739 0 -1370.50593330 0 30466.63072101 0 5897.05632301 0 22291.19853851 0 1887
0.04250000 0.04250150 51603.90112903 0 -426.27462703 0 26625.63830587 0 5057.13106931 0 15726.98453667 0 1920
0.04350000 0.04349210 52781.34259705 0 1865.51714430 0 25861.01118826 0 -1166.47227424 0 20043.23474104 0 2005
0.04450000 0.04448520 49708.30465861 0 2044.05214157 0 31488.90634373 0 -2922.30857192 0 9274.31470254 0 2151
0.04550000 0.04548030 46021.81261695 0 3165.62725057 0 26710.26413859 0 -2213.66981650 0 11698.10724523 0 2274
0.04650000 0.04648670 43841.28329693 0 396.98943061 0 31894.84415203 0 3427.49041052 0 7878.07719232 0 2311
0.04750000 0.04749250 43694.76858525 0 20.67898215 0 27060.96778609 0 3422.62137506 0 6732.23454440 0 2568
0.04850000 0.04851840 42696.78268385 0 1415.79129044 0 29143.89457297 0 -23.44856494 0 4601.36051312 0 2493
0.04950000 0.04949480 40907.88352807 0 1292.17990045 0 24570.10677546 0 3571.27668775 0 6353.10415912 0 2644
0.05050000 0.05050630 38934.09411916 0 448.04886488 0 24781.72681323 0 3864.15083437 0 9752.74457410 0 2829
0.05150000 0.05149060 39781.46156601 0 -936.85566030 0 18953.30281694 0 4286.69216450 0 7289.88883576 0 2784
0.05250000 0.05249300 39631.95223114 0 36.12003563 0 19822.07627389 0 4885.12878704 0 10450.28104137 0 3055
0.05350000 0.05348950 38516.17781815 0 933.40186157 0 14927.19832473 0 -621.19243132 0 8484.16674076 0 3009
0.05450000 0.05448610 37723.48997226 0 530.90897904 0 14931.41297958 0 1701.87762452 0 9191.38582296 0 3336
0.05550000 0.05550870 37080.42237321 0 943.25195358 0 15819.48511922 0 349.08322363 0 7359.34191105 0 3349
0.05650000 0.05647670 35673.17130442 0 1324.42200998 0 16131.25866543 0 -1805.59140719 0 2892.68398487 0 3324
0.05750000 0.05747970 34550.40943735 0 1333.08423480 0 15324.15226351 0 867.75306684 0 5441.82923546 0 3639
0.05850000 0.05849280 31776.94472847 0 391.97510047 0 13831.49897822 0 1395.57203840 0 3441.31004191 0 3846
0.05950000 0.05951020 31945.53092209 0 102.00263280 0 13586.71626157 0 2770.47008570 0 6666.09773700 0 3787
0.06050000 0.06049470 31317.76917482 0 -90.23043636 0 12285.82977152 0 2787.23997548 0 4065.26750863 0 3930
0.06150000 0.06148310 31833.39892094 0 311.40088200 0 10342.59661020 0 51.49221278 0 5370.72357183 0 4083
0.06250000 0.06249100 30839.84949832 0 750.29063644 0 9982.33235093 0 -281.89829811 0 4137.10519126 0 4303
0.06350000 0.06350600 30851.05160724 0 -133.44928168 0 11205.32536482 0 207.09593854 0 6569.02758131 0 4470
0.06450000 0.06451750 30656.73383670 0 -616.69273272 0 9175.60304970 0 2015.48121823 0 5767.57768983 0 4479
0.06550000 0.06550280 31540.48040954 0 -302.94384432 0 11338.75246411 0 1387.19818471 0 4832.94470540 0 4636
0.06650000 0.06648880 32060.10298656 0 383.57795526 0 8389.00427094 0 -578.73089292 0 4011.12028513 0 4653
0.06750000 0.06749660 31489.57181555 0 543.94779017 0 8587.02650125 0 -12.62632952 0 5004.10405671 0 5220
0.06850000 0.06852730 31129.44065064 0 384.28668274 0 10137.01018357 0 -1752.74185373 0 4641.45519009 0 5029
0.06950000 0.06949320 29874.36080398 0 620.73214664 0 11146.43110902 0 -178.38526612 0 1005.99263648 0 5040
0.07050000 0.07048030 29473.08129839 0 794.07979111 0 10456.79157398 0 -515.29922845 0 1498.08797180 0 5475
0.07150000 0.07148790 27671.42726612 0 808.39076253 0 11424.70924046 0 467.37416644 0 339.62686911 0 5509
0.07250000 0.07249820 28143.57952021 0 95.04623407 0 11555.03080460 0 -444.20243778 0 491.30786034 0 5916
0.07350000 0.07351270 27517.81418839 0 362.65663045 0 10535.63889309 0 1766.35075238 0 -307.68533102 0 5721
0.07450000 0.07449140 26680.31790683 0 473.71389462 0 10355.50676345 0 -144.30534525 0 -5.28839362 0 6028
0.07550000 0.07549160 26069.96933877 0 879.98554795 0 10302.44647725 0 -297.19194959 0 1206.38949206 0 6183
0.07650000 0.07648840 25615.23026389 0 288.90017075 0 10239.74794090 0 1180.74664471 0 464.65793231 0 6330
0.07750000 0.07749960 24798.80725653 0 50.99998546 0 9824.58225674 0 1237.94394738 0 2083.09315483 0 6583
0.07850000 0.07848650 24972.93904862 0 384.68263847 0 10134.85849136 0 620.38942866 0 1367.22293900 0 6549
0.07950000 0.07947320 24242.25099367 0 7.66559204 0 8699.18068479 0 853.99998262 0 3142.62410810 0 6828
0.08050000 0.08048110 24006.67397049 0 528.08405118 0 9199.69312948 0 -238.42856992 0 2455.61318673 0 7147
0.08150000 0.08149960 23218.86625126 0 456.23638647 0 8714.89691087 0 554.04632499 0 3303.01390717 0 7386
0.08250000 0.08250610 23216.98074778 0 230.63256758 0 9203.43086285 0 492.20402905 0 3389.91343525 0 7227
0.08350000 0.08350160 22608.40677123 0 -11.97128343 0 7969.10264568 0 1091.16082872 0 3171.82722966 0 7798
0.08450000 0.08449610 22675.28668882 0 65.39547180 0 7372.72898577 0 1349.14428798 0 4172.21992080 0 7371
0.08550000 0.08548940 22262.13960250 0 214.56142320 0 7528.32738776 0 1052.60450077 0 4214.04482449 0 8256
0.08650000 0.08650700 22234.41161013 0 265.12619009 0 6275.89833717 0 409.25074883 0 5201.74918632 0 8037
0.08750000 0.08749060 21506.94000230 0 263.10315577 0 6037.24905243 0 1150.62295380 0 3822.34811307 0 8155
0.08850000 0.08849210 21534.88981861 0 -98.16729689 0 5474.77009040 0 -133.03003444 0 6189.66428089 0 8718
0.08950000 0.08949900 21295.31996453 0 485.63804046 0 5165.09278041 0 267.98217330 0 3100.61065406 0 8571
0.09050000 0.09049190 21012.27261841 0 371.09037661 0 6161.92519733 0 -959.94420499 0 4201.48958955 0 8932
0.09150000 0.09150830 20224.90854705 0 475.07700272 0 5610.79252977 0 -161.18836525 0 2880.97168089 0 9285
0.09250000 0.09250820 19906.03663479 0 138.55566876 0 6416.62344405 0 1018.31495629 0 3775.82054187 0 9204
0.09350000 0.09350330 19440.31727494 0 260.31150149 0 6288.43138972 0 -431.13368041 0 2930.63806083 0 9349
0.09450000 0.09448040 19431.44431738 0 174.65862394 0 5266.51068530 0 724.30618022 0 2891.24212927 0 9564
0.09550000 0.09549270 19084.62258881 0 378.67897357 0 6748.26132399 0 -316.28877249 0 3416.35484878 0 10155
0.09650000 0.09649430 18331.64122799 0 566.96978768 0 6439.62658652 0 -965.39552829 0 2322.58537053 0 9913
0.09750000 0.09749140 18506.10575599 0 65.46834096 0 7464.90792361 0 152.50284892 0 2675.61816940 0 10476
0.09850000 0.09850240 18138.21075321 0 -203.04654253 0 6717.93799154 0 691.22446709 0 2126.12699899 0 10575
0.09950000 0.09950330 18262.21033510 0 27.54609674 0 6109.64129491 0 812.44792237 0 2788.94801981 0 10882
0.10050000 0.10051200 18488.91440072 0 216.17075588 0 6326.09709455 0 2.64853347 0 1902.45083013 0 10875
0.10150000 0.10150300 18160.83679499 0 498.93749472 0 6774.11490408 0 -336.70877519 0 2759.14597361 0 11118
0.10250000 0.10250800 17031.08747384 0 467.09799564 0 6558.45767062 0 -132.65182462 0 2521.93854448 0 11575
0.10350000 0.10349800 16686.15124875 0 517.55850527 0 7091.28986321 0 -179.29585339 0 2626.32889016 0 11364
0.10450000 0.10450100 16543.40754403 0 138.37710049 0 7651.15130276 0 110.62748028 0 1840.49540398 0 12093
0.10550000 0.10551000 15921.52413114 0 479.64324850 0 7823.04267307 0 478.54078353 0 2317.76069986 0 12067
0.10650000 0.10649700 15252.05948335 0 318.80647420 0 7056.15295128 0 -54.16031111 0 3440.92185002 0 12054
0.10750000 0.10749900 15160.77893246 0 -86.36548696 0 6701.34556090 0 954.54501031 0 2238.14808817 0 12807
0.10850000 0.10850100 15419.53655727 0 -181.89452083 0 6559.44478715 0 965.94121518 0 3465.82158717 0 12736
0.10950000 0.10950300 15275.90555679 0 -72.07769614 0 5246.20270369 0 269.62034309 0 2007.51773883 0 12933
0.11050000 0.11050200 15087.68794458 0 292.18316504 0 5477.18797133 0 -149.65241130 0 1891.71455149 0 13428
0.11150000 0.11150900 15091.90259942 0 268.10861295 0 5501.41114547 0 -813.76001097 0 1386.55489529 0 13453
0.11250000 0.11250000 14549.09942077 0 188.91635762 0 5218.58562329 0 -107.63418805 0 97.70634675 0 13668
0.11350000 0.11349100 14786.67285940 0 110.72663558 0 6031.41508284 0 -37.43966624 0 262.83696704 0 13791
0.11450000 0.11448600 14288.34538052 0 49.25644929 0 5660.86928399 0 -28.02412733 0 -364.95139910 0 14205
0.11550000 0.11549300 14269.82308161 0 279.83311724 0 5755.51046755 0 -26.72179898 0 -283.13607569 0 14776
0.11650000 0.11649800 14078.49993426 0 294.97814668 0 6128.80688324 0 -201.16214817 0 -602.23868485 0 14553
0.11750000 0.11747300 13636.40482390 0 9.17464921 0 5804.13427497 0 428.22335033 0 26.92931528 0 14568
0.11850000 0.11849100 13906.69729353 0 -25.02395855 0 6056.21499921 0 632.73282174 0 589.79990747 0 16015
0.11950000 0.11950300 14085.59830030 0 -141.60463880 0 4854.04016200 0 670.19555767 0 200.20165051 0 15270
0.12050000 0.12050700 14054.98659673 0 -73.27887277 0 4699.90579801 0 669.25391505 0 744.51766842 0 15999
0.12150000 0.12150000 13968.14252462 0 54.21920537 0 4390.72759188 0 11.58264788 0 704.96978747 0 15670
0.12250000 0.12250700 13841.70287941 0 143.07754975 0 4058.29114575 0 229.58555859 0 1225.92108988 0 16887
0.12350000 0.12352200 13631.74652118 0 311.23562316 0 4078.03347632 0 -523.93150704 0 -316.75793012 0 16407
0.12450000 0.12449800 13500.09401341 0 206.40606609 0 4161.16199744 0 -267.26679110 0 258.60012981 0 16306
0.12550000 0.12549900 13079.73764907 0 -36.62612695 0 4238.55636975 0 238.78126998 0 -784.02783931 0 17523
0.12650000 0.12650100 13329.51140434 0 -92.61992383 0 3751.88573886 0 344.69443700 0 -620.94066115 0 17154
0.12750000 0.12750600 13197.08251278 0 101.14794516 0 3613.44541855 0 -54.21842899 0 -1847.43849327 0 18007
0.12850000 0.12850300 13215.71572365 0 221.34590838 0 3558.46635528 0 91.22265484 0 -1105.33205106 0 17496
0.12950000 0.12949900 12472.82735206 0 365.39948346 0 3776.19764257 0 -429.54320277 0 -1466.43369571 0 18405
0.13050000 0.13049000 12383.76504057 0 435.47699314 0 3910.25694008 0 -199.90329732 0 -1199.67931790 0 18100
0.13150000 0.13148800 11826.76512983 0 94.50132357 0 4308.66382566 0 573.33724384 0 -518.42140039 0 19059
0.13250000 0.13249300 11780.73666249 0 47.18905018 0 4206.04807149 0 610.81994393 0 -227.80763972 0 18957
0.13350000 0.13349100 11781.06939840 0 31.27551171 0 3436.90683672 0 589.45829861 0 385.71079243 0 19468
0.13450000 0.13450700 11726.05706154 0 -9.82748815 0 3293.44220420 0 363.21229942 0 580.92584080 0 19953
0.13550000 0.13551000 11845.73107661 0 -0.38395838 0 3672.37294794 0 105.91327793 0 1626.06929338 0 19956
0.13650000 0.13649900 11789.16597217 0 11.03142649 0 3193.23323977 0 70.88284149 0 1253.31634635 0 19723
0.13750000 0.13749600 11760.32886011 0 110.78253521 0 3344.97190522 0 170.43398702 0 1179.72625459 0 20946
0.13850000 0.13851100 11672.04293240 0 66.05151610 0 3360.78795207 0 18.41560159 0 1087.26227300 0 20955
0.13950000 0.13949800 11490.03639048 0 139.36199877 0 3463.92499249 0 -111.33787145 0 1301.71832983 0 20506
0.14050000 0.14048300 11396.75942415 0 389.86555481 0 3631.86789668 0 -114.55431856 0 938.86982167 0 21447
0.14150000 0.14148400 10828.09157422 0 108.45793125 0 3445.44705837 0 92.58010643 0 1281.54344258 0 21771
0.14250000 0.14249400 10900.97182936 0 66.28520762 0 3498.72916851 0 262.87356799 0 1324.20018604 0 22470
0.14350000 0.14350900 10659.27246547 0 88.93065899 0 3098.63642100 0 356.73393128 0 764.57166163 0 22519
0.14450000 0.14449900 10463.91212242 0 96.65845046 0 2874.23932434 0 67.77309169 0 1333.17296437 0 22218
0.14550000 0.14550500 10451.44561705 0 81.36258075 0 2820.60229590 0 114.33693110 0 1282.35309996 0 23559
0.14650000 0.14650700 10373.61868807 0 89.75185121 0 2395.50999047 0 263.17524855 0 682.80513948 0 23044
0.14750000 0.14750500 10080.73345025 0 221.03535486 0 2798.44208440 0 -172.46811254 0 1055.05232794 0 23649
0.14850000 0.14849900 9659.11268947 0 370.72880359 0 2656.90732014 0 -248.10342101 0 643.12860064 0 23640
0.14950000 0.14949500 9445.36314188 0 186.14134014 0 3341.14544227 0 -217.24549286 0 1142.90348073 0 24457
0.15050000 0.15050000 9307.03373354 0 8.06681609 0 3021.98515889 0 181.82575541 0 679.08404291 0 24591
0.15150000 0.15149900 9336.34776707 0 -28.59776404 0 3146.12892633 0 168.35438760 0 640.29036334 0 25020
0.15250000 0.15250500 9460.07006903 0 -33.27137261 0 2790.11259549 0 61.64886547 0 646.02229392 0 25297
0.15350000 0.15350100 9487.12149839 0 -21.59966241 0 2797.53260625 0 -81.58019003 0 257.72281613 0 25452
0.15450000 0.15450400 9586.31007270 0 54.24582424 0 2872.67546557 0 -54.59730427 0 408.66402451 0 26061
0.15550000 0.15549900 9442.85653137 0 132.67289789 0 2702.52541319 0 -90.26115897 0 -215.84689293 0 26128
0.15650000 0.15649500 9278.89536688 0 154.84420059 0 3117.62455018 0 -214.19985018 0 182.97258517 0 26331
0.15750000 0.15749700 9203.17576532 0 102.40058494 0 3113.23243618 0 184.87139809 0 373.49494811 0 27345
0.15850000 0.15849900 9153.34301743 0 -68.76741749 0 3099.70117591 0 433.24544431 0 567.20935753 0 26980
0.15950000 0.15949700 9106.78217264 0 26.28602586 0 2824.67276518 0 346.90158519 0 508.63785557 0 27777
0.16050000 0.16050000 9135.12018084 0 126.28880493 0 2781.68328581 0 2.03353769 0 906.94159301 0 28224
0.16150000 0.16150500 8973.00015505 0 198.98938269 0 3117.63564137 0 -323.53465146 0 663.06502716 0 28075
0.16250000 0.16249700 8850.67534391 0 5.77173689 0 2868.47190193 0 173.86005776 0 622.70970706 0 28590
0.16350000 0.16349900 8764.18619011 0 -2.79916301 0 2885.50798044 0 195.63207737 0 808.23881313 0 29163
0.16450000 0.16449100 8883.86020518 0 -26.33249797 0 2457.87579091 0 245.15316263 0 744.05849287 0 28996
0.16550000 0.16550500 8796.08447253 0 8.61133840 0 2252.76628574 0 423.24783938 0 696.18999596 0 30777
0.16650000 0.16650700 8810.33666061 0 116.69491957 0 1990.69239305 0 29.77431821 0 657.89431114 0 29211
0.16750000 0.16749900 8474.61722018 0 222.49495638 0 2165.01273549 0 -260.69082043 0 999.48543123 0 30922
0.16850000 0.16850800 8368.04190871 0 225.94986423 0 2379.64957883 0 -263.73646311 0 651.90395567 0 30867
0.16950000 0.16949900 8189.37381707 0 -3.25098510 0 2293.48206974 0 133.96280410 0 562.84608065 0 30852
0.17050000 0.17049200 8014.77619471 0 180.40164572 0 2713.09532388 0 -257.15938332 0 -170.80332388 0 31257
0.17150000 0.17149500 7931.61439999 0 159.41155550 0 2492.10322469 0 -314.50087154 0 -103.53776537 0 32608
0.17250000 0.17250900 7806.50569842 0 -6.39874443 0 2925.10355355 0 195.14628294 0 240.43053096 0 32361
0.17350000 0.17350400 7817.08670030 0 -66.19791990 0 2420.06590051 0 435.20858617 0 -36.08121644 0 32508
0.17450000 0.17449800 7960.87297754 0 -122.57103571 0 2101.30490022 0 508.55245335 0 3.99347419 0 32791
0.17550000 0.17549800 8040.85159873 0 80.79692970 0 1918.41106254 0 140.32360555 0 240.46047720 0 33633
0.17650000 0.17650100 7885.00919042 0 106.09095890 0 1461.91957855 0 -94.97037028 0 182.34038695 0 33984
0.17750000 0.17750300 7940.60936072 0 24.14076654 0 1780.50311969 0 81.93810296 0 45.83348409 0 34069
0.17850000 0.17849800 7669.86215201 0 104.48839186 0 1586.27407873 0 -148.64089414 0 -87.42658177 0 34536
