### header ###
fiducial parameters:
Omega_m = 0.31
Omega_nu = 0
Omega_de = 0.69
Omega_k = 0
H_0 = 100
w_de = -1
zeff = 0
beta = 0
fgrowth = 0
b_1 = 2
gamma = 0.55
Lx = 3500 Ly = 3500 Lz = 3500
nx = 700 ny = 700 nz = 700
xoffset = 1379.75464 yoffset = 22.6059522 zoffset = 368.141391
bins = 400 dk = 0.001
kx_ny = 0.628318531 ky_ny = 0.628318531 kz_ny = 0.628318531
############################
A(data) = 3.2678473 (not used)
A(ran) = 3.26700036 (used)
Ngal = 183397
weighted Ngal = 0
Nran = 9399747
weighted Nran = 0
SN(data) = 6749.22602
SN(ran) = 129.94619
SN(data+ran) = 6879.17221
############################
13 columns: k_central k_mean P_0(k) sigma^{lin}_{P_0(k)} P^img_1(k) sigma^{lin}_{P_1(k)} P_2(k) sigma^{lin}_{P_2(k)} P^img_3(k) sigma^{lin}_{P_3(k)} P_4(k) sigma^{lin}_{P_4(k)} N_modes
### header ###
0.00050000 0 0 0 0 0 0 0 0 0 0 0 0
0.00150000 0.00179520 50054.01726748 0 -11858.59686507 0 -24354.82664269 0 53983.51743427 0 -27179.86541738 0 3
0.00250000 0.00253879 74646.19552487 0 -13541.02053015 0 10296.33522773 0 -22139.80370016 0 85167.97042177 0 6
0.00350000 0.00331552 71812.17288066 0 572.98565290 0 9649.45225692 0 -29358.06558604 0 -3278.55781789 0 7
0.00450000 0.00420575 67003.91717966 0 13593.37097974 0 27835.57698095 0 -21842.11597407 0 17403.97351524 0 24
0.00550000 0.00557378 61512.00009878 0 2001.16248297 0 34939.59953826 0 24450.32184842 0 20695.72985751 0 45
0.00650000 0.00659388 56933.22126265 0 -7497.21658032 0 36157.52387514 0 33491.75468864 0 6579.99677509 0 40
0.00750000 0.00754703 71025.80701703 0 710.94683350 0 41068.70588382 0 -1375.51915432 0 24008.00491412 0 57
0.00850000 0.00846663 68569.21780497 0 4430.83336004 0 18877.10629391 0 22997.15322426 0 13493.43929524 0 75
0.00950000 0.00948925 59578.13899889 0 3389.27014583 0 45177.77252920 0 13196.74977687 0 38580.17402454 0 112
0.01050000 0.01054430 69507.64397876 0 -960.73167997 0 20896.48052227 0 29854.84029735 0 48995.25160680 0 105
0.01150000 0.01145670 66945.35565978 0 -7141.89899488 0 19350.47857966 0 27043.22187097 0 31024.73975145 0 144
0.01250000 0.01249090 71083.14850525 0 -4014.59182977 0 -1119.16831926 0 16059.60953315 0 44911.02924259 0 169
0.01350000 0.01339930 82836.82264719 0 -994.53432091 0 -4795.93338118 0 -897.26119632 0 37377.44462748 0 180
0.01450000 0.01448870 79545.06630493 0 -622.16623841 0 3815.82648926 0 -12552.46214615 0 35458.44573150 0 267
0.01550000 0.01550050 81889.41260387 0 -600.66151665 0 -2060.14546834 0 -405.17029748 0 10722.80284159 0 238
0.01650000 0.01653350 83782.12536309 0 -379.00505476 0 13452.40186653 0 -16690.03316769 0 17077.44867709 0 315
0.01750000 0.01747870 81791.03368694 0 4757.41365418 0 19417.69123316 0 2135.95379949 0 -4489.88289259 0 297
0.01850000 0.01844180 81805.56315494 0 -2865.88765304 0 30200.55290622 0 2097.63371403 0 10365.10064881 0 388
0.01950000 0.01947590 90136.49391866 0 2469.98737798 0 26954.27047145 0 -1085.28914906 0 -6242.53601675 0 399
0.02050000 0.02045430 84026.13169595 0 18.77750735 0 28334.01537181 0 10623.53662890 0 12090.84652917 0 462
0.02150000 0.02154770 83060.19935373 0 1674.62655362 0 32392.28433516 0 -2187.23949417 0 -8064.57566901 0 571
0.02250000 0.02255340 82547.89696669 0 6271.88332387 0 28474.54083714 0 -5272.97685312 0 -1290.06148184 0 510
0.02350000 0.02348930 79878.46768519 0 -2639.98215360 0 20133.40617223 0 14319.62255591 0 7201.36999292 0 555
0.02450000 0.02439640 74164.06119353 0 -5254.92038449 0 11147.76205266 0 13404.70971965 0 -11012.31635553 0 592
0.02550000 0.02547300 86096.41451830 0 1609.13303564 0 -2917.58372202 0 -1656.53681140 0 -16570.13732868 0 837
0.02650000 0.02652900 75406.60798764 0 4234.11989097 0 10965.56696039 0 -10014.57446046 0 -23735.05055723 0 723
0.02750000 0.02749970 63334.39466934 0 9475.30937364 0 6689.48907137 0 -9585.22313540 0 -3094.88759643 0 826
0.02850000 0.02848090 60765.78436811 0 3666.18406004 0 11823.65959468 0 216.58002105 0 -17948.77310934 0 831
0.02950000 0.02946900 55728.05180225 0 -710.49209443 0 10207.93838805 0 11145.32198933 0 -10514.88726360 0 996
0.03050000 0.03053250 54577.34011887 0 2403.59547304 0 9038.53803782 0 3795.57396364 0 -8587.12632203 0 1041
0.03150000 0.03150510 51999.08047629 0 1440.48029485 0 4737.46059087 0 -5335.97485179 0 -4116.46447374 0 1036
0.03250000 0.03246190 49848.16465212 0 2914.65564602 0 11327.55035519 0 -403.23155625 0 2970.92128814 0 1059
0.03350000 0.03345080 47656.98778303 0 -11.80203176 0 7018.15451053 0 794.69757078 0 -1758.68673529 0 1302
0.03450000 0.03451200 48482.06192401 0 -407.20664124 0 13050.90053700 0 186.72140974 0 -7052.60376825 0 1339
0.03550000 0.03553350 49198.66415883 0 525.86692091 0 6056.88047103 0 -1855.64597901 0 -9131.65972740 0 1365
0.03650000 0.03647120 47334.34486381 0 1473.11059627 0 13456.94925728 0 -1673.09596844 0 -7035.12404186 0 1308
0.03750000 0.03744890 45594.24697460 0 1424.56442723 0 10112.79810063 0 -2770.71409203 0 -10124.53258700 0 1579
0.03850000 0.03847530 45156.03378318 0 1499.90692810 0 15549.30356156 0 -1521.30184701 0 -9952.69667268 0 1662
0.03950000 0.03950240 42912.28464055 0 1248.78004679 0 15912.20752571 0 -942.09292350 0 -15382.93560734 0 1683
0.04050000 0.04050350 42561.24825714 0 229.18738462 0 15725.65359304 0 41.66408134 0 -13099.81271555 0 1822
0.04150000 0.04152450 43312.34411447 0 -747.85057311 0 14676.31544977 0 3718.37923288 0 -11602.94477541 0 1887
0.04250000 0.04250150 42199.89706057 0 514.26109242 0 12538.81997390 0 630.65987703 0 -13671.00935838 0 1920
0.04350000 0.04349210 41098.76302755 0 1411.49899722 0 14497.85809087 0 -123.68348277 0 -8007.11217762 0 2005
0.04450000 0.04448520 38488.56073775 0 3084.96097516 0 15702.36207945 0 -2869.55883923 0 -9815.14364813 0 2151
0.04550000 0.04548030 36460.86811168 0 1996.79255138 0 18525.18261474 0 -127.82493571 0 -2233.93343333 0 2274
0.04650000 0.04648670 33860.64789914 0 108.31241474 0 18080.53652908 0 2654.33416245 0 -2831.27202737 0 2311
0.04750000 0.04749250 35069.47745452 0 -630.26613954 0 19149.17335505 0 2903.30935155 0 -1725.35768846 0 2568
0.04850000 0.04851840 36260.56109479 0 484.79621861 0 17684.35897409 0 -909.44154880 0 -800.12892992 0 2493
0.04950000 0.04949480 35183.27313521 0 647.78024864 0 18083.08750438 0 -1202.00846926 0 256.15673912 0 2644
0.05050000 0.05050630 34432.84274970 0 602.85202804 0 21003.84330873 0 -318.66894336 0 1132.13392849 0 2829
0.05150000 0.05149060 36601.72631292 0 -499.00736926 0 21224.22539209 0 2327.44331480 0 -2617.74430372 0 2784
0.05250000 0.05249300 35177.17297689 0 -160.45967361 0 18843.16723124 0 1707.95560045 0 -731.50880352 0 3055
0.05350000 0.05348950 34697.81144479 0 1096.74302815 0 19465.60520398 0 -92.18437252 0 -1399.02140065 0 3009
0.05450000 0.05448610 34725.42852519 0 672.52138167 0 16766.78425057 0 1406.99597126 0 722.89094349 0 3336
0.05550000 0.05550870 32672.89161795 0 67.43980122 0 17821.11343247 0 2190.92177156 0 -2045.81564189 0 3349
0.05650000 0.05647670 32916.34339097 0 286.87935466 0 14051.32650173 0 775.64511266 0 -785.10590366 0 3324
0.05750000 0.05747970 32131.64120688 0 375.80968091 0 15001.62025626 0 1682.24620592 0 -2527.91669964 0 3639
0.05850000 0.05849280 32168.46398075 0 447.32128236 0 12319.10336236 0 159.51137627 0 -5113.69617375 0 3846
0.05950000 0.05951020 31367.01408927 0 -63.24555418 0 13016.07417859 0 -75.96050236 0 -2942.50564156 0 3787
0.06050000 0.06049470 31008.10295602 0 512.37780718 0 12958.17813052 0 -1023.20395590 0 -3500.06011215 0 3930
0.06150000 0.06148310 30608.15439407 0 516.22534340 0 13243.44371603 0 507.96905639 0 -4991.62646014 0 4083
0.06250000 0.06249100 30121.58358395 0 327.07385240 0 13594.92374731 0 421.36566326 0 -4627.14754603 0 4303
0.06350000 0.06350600 30406.18369764 0 -16.26779130 0 13618.32617288 0 267.23906311 0 -1599.27296156 0 4470
0.06450000 0.06451750 29902.86518013 0 196.53822816 0 15371.28985054 0 1174.84612794 0 -1777.29776377 0 4479
0.06550000 0.06550280 30425.14964443 0 -119.62188645 0 13850.79766091 0 2276.84527432 0 930.25196164 0 4636
0.06650000 0.06648880 29842.63998070 0 -119.61966821 0 11125.91239467 0 1150.25694430 0 603.49309923 0 4653
0.06750000 0.06749660 30692.11475497 0 351.47559481 0 12285.05338773 0 2022.37994274 0 2590.40450324 0 5220
0.06850000 0.06852730 29948.33908762 0 -229.56337619 0 10394.12631122 0 227.17987797 0 2487.65565471 0 5029
0.06950000 0.06949320 29334.44133654 0 401.81299216 0 10353.85417510 0 1067.40903046 0 121.01937726 0 5040
0.07050000 0.07048030 28912.42129266 0 938.52377632 0 7997.17446515 0 -641.27637075 0 1469.33958931 0 5475
0.07150000 0.07148790 27280.24074976 0 1063.04908094 0 9312.18004892 0 -1121.32001147 0 -137.46540410 0 5509
0.07250000 0.07249820 26107.01393657 0 839.19545293 0 8782.09847318 0 1411.14407892 0 -408.25032287 0 5916
0.07350000 0.07351270 24760.98627494 0 11.92680773 0 7734.26873269 0 1164.68659153 0 -1484.94490341 0 5721
0.07450000 0.07449140 24872.56371624 0 263.11535608 0 6788.56673370 0 1019.47731373 0 -2358.68721660 0 6028
0.07550000 0.07549160 24299.59248189 0 278.01637918 0 6704.25145450 0 -798.89004322 0 -1713.04645985 0 6183
0.07650000 0.07648840 24114.48040483 0 241.25460690 0 5217.28795325 0 51.11511208 0 -3101.57558819 0 6330
0.07750000 0.07749960 24117.36411603 0 -398.01092985 0 6234.09561587 0 335.23475512 0 -3264.09489707 0 6583
0.07850000 0.07848650 24065.01366644 0 22.89289597 0 3345.69283302 0 134.36208719 0 -5511.77032342 0 6549
0.07950000 0.07947320 24016.21239986 0 572.59191541 0 5721.58249609 0 315.01106660 0 -3326.69361265 0 6828
0.08050000 0.08048110 23415.51317315 0 525.42881863 0 4063.20454600 0 -551.80479409 0 -4909.40741716 0 7147
0.08150000 0.08149960 22545.85242044 0 103.35642430 0 3375.32851127 0 1876.39760850 0 -2012.91915174 0 7386
0.08250000 0.08250610 22368.28235730 0 -65.25217353 0 3543.13832109 0 569.27897488 0 -2590.84815112 0 7227
0.08350000 0.08350160 22522.00634700 0 53.23608167 0 2399.80228369 0 1636.80557203 0 -1246.07379474 0 7798
0.08450000 0.08449610 22069.70733545 0 -49.56966470 0 2936.26129768 0 430.18981955 0 -42.69123709 0 7371
0.08550000 0.08548940 21940.93853888 0 798.38872112 0 2079.96543729 0 -1233.70711014 0 -2137.57311424 0 8256
0.08650000 0.08650700 20921.54662737 0 1093.59201909 0 4514.86026812 0 -1865.88315380 0 -255.92826046 0 8037
0.08750000 0.08749060 19559.88037804 0 769.24660114 0 4697.65428503 0 -1028.85602987 0 -997.50010697 0 8155
0.08850000 0.08849210 19269.40192996 0 110.35219677 0 5854.28866757 0 1203.31723050 0 1121.55292660 0 8718
0.08950000 0.08949900 19423.12591967 0 -277.02260794 0 5438.71260912 0 1251.61939321 0 -312.70631588 0 8571
0.09050000 0.09049190 19503.64800951 0 -30.59362493 0 4657.91452636 0 1245.13104300 0 1355.11135194 0 8932
0.09150000 0.09150830 19308.44294322 0 318.08776464 0 4519.78475957 0 133.03558003 0 2258.67789372 0 9285
0.09250000 0.09250820 18850.37650926 0 362.71985028 0 4490.88110032 0 -684.70062504 0 1705.55990191 0 9204
0.09350000 0.09350330 18639.97650315 0 300.13998974 0 5604.89201300 0 -451.29303999 0 2322.25263462 0 9349
0.09450000 0.09448040 18235.81328636 0 436.89666635 0 5316.04397087 0 -540.88994717 0 1114.27710140 0 9564
0.09550000 0.09549270 17817.23151353 0 -35.82256973 0 5763.67358851 0 173.06814630 0 804.96247355 0 10155
0.09650000 0.09649430 18121.01939795 0 12.04259982 0 5998.40768072 0 96.30253395 0 -241.02501912 0 9913
0.09750000 0.09749140 17735.82212793 0 362.27952976 0 5734.02681906 0 -563.37513075 0 -471.83282761 0 10476
0.09850000 0.09850240 17583.87272974 0 250.55346642 0 5751.83928136 0 261.74559326 0 -308.21105375 0 10575
0.09950000 0.09950330 17113.49506717 0 461.26180780 0 6243.83368679 0 16.07436083 0 103.78665183 0 10882
0.10050000 0.10051200 16464.77095767 0 146.87739383 0 6209.55079702 0 280.80692434 0 -231.78161558 0 10875
0.10150000 0.10150300 16193.14754440 0 398.98140958 0 6705.52694215 0 214.31741687 0 757.12170464 0 11118
0.10250000 0.10250800 16100.75787383 0 38.27172784 0 5742.70013508 0 323.84853233 0 1134.75145097 0 11575
0.10350000 0.10349800 16180.94722776 0 -174.78950007 0 6031.10452932 0 797.36278540 0 1399.02140065 0 11364
0.10450000 0.10450100 16334.67121746 0 -116.14590532 0 5386.02942362 0 459.30753890 0 1104.59115911 0 12093
0.10550000 0.10551000 16260.91475776 0 106.17070461 0 5190.97963409 0 -149.20876342 0 1276.55240395 0 12067
0.10650000 0.10649700 16143.68080602 0 610.63693918 0 5880.53043955 0 -494.81156945 0 1684.93027559 0 12054
0.10750000 0.10749900 15541.42881173 0 204.27322891 0 5778.10323574 0 -53.49284288 0 884.06378107 0 12807
0.10850000 0.10850100 14867.74950909 0 421.17378555 0 6726.36730122 0 -26.04224135 0 1533.74616998 0 12736
0.10950000 0.10950300 15069.83111749 0 240.56584357 0 6337.73176015 0 241.03389208 0 1638.14760686 0 12933
0.11050000 0.11050200 14473.23563364 0 -43.67447169 0 5886.08712922 0 568.19647406 0 1459.55715360 0 13428
0.11150000 0.11150900 14688.40485444 0 58.86697145 0 6305.20127950 0 363.51619822 0 1904.30306003 0 13453
0.11250000 0.11250000 14275.47959206 0 213.73845639 0 5721.00575385 0 -61.41007200 0 588.40019842 0 13668
0.11350000 0.11349100 14328.93916135 0 65.24662794 0 5923.25373020 0 -125.20075851 0 1643.33828703 0 13791
0.11450000 0.11448600 14224.90373397 0 101.42611238 0 5684.13861519 0 144.07797572 0 899.46168979 0 14205
0.11550000 0.11549300 14274.48138433 0 -79.61948824 0 5569.15617643 0 627.97802561 0 896.19755053 0 14776
0.11650000 0.11649800 14193.95929449 0 -131.40184672 0 4948.23769768 0 705.85708322 0 502.94918065 0 14553
0.11750000 0.11747300 13988.21759110 0 218.57310914 0 4271.03139441 0 47.84387445 0 782.86991835 0 14568
0.11850000 0.11849100 13979.01189763 0 265.29921276 0 4488.58522255 0 -336.17528862 0 404.74439551 0 16015
0.11950000 0.11950300 13413.02811736 0 289.44253028 0 4353.31698457 0 -103.16144105 0 -303.96312532 0 15270
0.12050000 0.12050700 13129.09347549 0 271.23743961 0 4481.16521179 0 -69.26918324 0 701.77663186 0 15999
0.12150000 0.12150000 13080.62494483 0 -0.77137057 0 3768.40053111 0 468.06403889 0 -806.62282574 0 15670
0.12250000 0.12250700 12916.03158211 0 -172.89068715 0 3778.41588196 0 579.79564783 0 -102.37751525 0 16887
0.12350000 0.12352200 12917.14070181 0 117.41030177 0 3201.67364065 0 402.17900166 0 -926.33787824 0 16407
0.12450000 0.12449800 12772.62240557 0 78.60286912 0 2936.22802409 0 -142.85572581 0 -729.94716299 0 16306
0.12550000 0.12549900 12639.63895416 0 155.32223118 0 3212.49864887 0 -189.97334869 0 -1041.39462802 0 17523
0.12650000 0.12650100 12429.34986003 0 322.43662296 0 3414.69116924 0 -401.03549925 0 -464.66015055 0 17154
0.12750000 0.12750600 12191.55459746 0 190.38150474 0 3873.30107185 0 -188.53592956 0 -1171.43003928 0 18007
0.12850000 0.12850300 11967.51241910 0 109.74850292 0 3812.04439110 0 -41.68903653 0 -915.81898705 0 17496
0.12950000 0.12949900 12045.70535759 0 33.91078011 0 3864.20629035 0 368.44734438 0 -274.93635379 0 18405
0.13050000 0.13049000 12060.23482559 0 19.39561975 0 3997.87739597 0 448.45147533 0 -405.29562800 0 18100
0.13150000 0.13148800 11826.21056998 0 165.15235904 0 3976.40483868 0 4.90215377 0 407.58596017 0 19059
0.13250000 0.13249300 11782.84398991 0 176.26462926 0 4107.59151618 0 40.56383460 0 475.62712609 0 18957
0.13350000 0.13349100 11662.50450303 0 -0.24829530 0 3836.94412825 0 447.84811421 0 659.94729169 0 19468
0.13450000 0.13450700 11663.50271075 0 -22.12094867 0 3877.84846260 0 195.51561980 0 1295.13015884 0 19953
0.13550000 0.13551000 11405.74329367 0 214.96847013 0 3749.53440510 0 -14.94194962 0 356.57421805 0 19956
0.13650000 0.13649900 11570.55848032 0 115.27413724 0 3986.76401663 0 3.24096975 0 1698.80536297 0 19723
0.13750000 0.13749600 11168.61350292 0 -24.71850699 0 3405.39674619 0 138.25842468 0 76.69407413 0 20946
0.13850000 0.13851100 11529.96469949 0 59.82325445 0 3661.91394921 0 -79.77587411 0 870.68114283 0 20955
0.13950000 0.13949800 11044.42537069 0 159.54575898 0 3600.39107974 0 -312.71629796 0 -253.44161410 0 20506
0.14050000 0.14048300 11027.17855944 0 314.30899384 0 4204.59512469 0 -276.79302016 0 458.74521521 0 21447
0.14150000 0.14148400 10860.28931896 0 -9.46326433 0 3890.02659685 0 123.08788549 0 -282.67800926 0 21771
0.14250000 0.14249400 10824.59784718 0 -39.83569752 0 4011.36429146 0 419.11747764 0 372.72854640 0 22470
0.14350000 0.14350900 10656.21129511 0 134.89335552 0 3645.73189287 0 461.03332915 0 489.03083760 0 22519
0.14450000 0.14449900 10691.80294612 0 84.80251548 0 3520.80065044 0 380.57445912 0 739.03528977 0 22218
0.14550000 0.14550500 10441.85173169 0 198.98827357 0 3357.91533206 0 128.76546921 0 939.28685067 0 23559
0.14650000 0.14650700 10148.17901890 0 225.24557322 0 3443.90538200 0 -6.32062913 0 1017.93896471 0 23044
0.14750000 0.14750500 9923.91501660 0 206.78427590 0 3383.08125793 0 -338.89152275 0 1137.26915268 0 23649
0.14850000 0.14849900 9823.31786028 0 1.44044702 0 3746.35123158 0 206.65339978 0 593.59198771 0 23640
0.14950000 0.14949500 9851.68914208 0 41.79462472 0 3484.70989557 0 -57.26640082 0 856.43560947 0 24457
0.15050000 0.15050000 9693.43994402 0 -25.20629783 0 3209.50402569 0 408.50098392 0 591.21625333 0 24591
0.15150000 0.15149900 9946.96252386 0 -74.77030602 0 3074.35779088 0 551.06390213 0 1352.51601185 0 25020
0.15250000 0.15250500 9856.12562086 0 -55.46829597 0 2697.40128020 0 534.06553369 0 1547.23306547 0 25297
0.15350000 0.15350100 9901.41097800 0 124.32122659 0 2821.50068286 0 72.84498514 0 1961.99946655 0 25452
0.15450000 0.15450400 9799.61597241 0 212.16461554 0 2659.38065706 0 -137.62178997 0 2020.57207763 0 26061
0.15550000 0.15549900 9622.41191876 0 178.40855763 0 2815.48925411 0 34.88957824 0 1929.55771548 0 26128
0.15650000 0.15649500 9354.81460999 0 94.18001159 0 3182.26404599 0 79.34564658 0 2565.92623158 0 26331
0.15750000 0.15749700 9104.64157163 0 122.97808264 0 3079.99211893 0 -55.91815492 0 1859.98263702 0 27345
0.15850000 0.15849900 9161.10685529 0 118.02919056 0 2816.54291782 0 219.67335588 0 2329.56173341 0 26980
0.15950000 0.15949700 9000.06267560 0 67.94500524 0 2789.25857333 0 140.87816540 0 1922.29298148 0 27777
0.16050000 0.16050000 8882.49598795 0 29.44757155 0 2526.90740071 0 93.56334104 0 2109.04655569 0 28224
0.16150000 0.16150500 8773.20333323 0 94.49289426 0 2838.25948144 0 -10.15356934 0 1470.09379070 0 28075
0.16250000 0.16249700 8685.97106923 0 173.42195548 0 2433.95207909 0 -127.00196890 0 1296.35019051 0 28590
0.16350000 0.16349900 8454.75288645 0 102.08892231 0 2857.50270815 0 -211.30061130 0 1429.79947219 0 29163
0.16450000 0.16449100 8383.55849324 0 34.18273626 0 2614.12857351 0 217.76567000 0 1385.50123158 0 28996
0.16550000 0.16550500 8516.87468056 0 -44.44087340 0 2372.60666877 0 280.89676303 0 1176.74272262 0 30777
0.16650000 0.16650700 8509.49903458 0 6.52375332 0 2516.18221326 0 225.59827329 0 1368.44297067 0 29211
0.16750000 0.16749900 8336.92001007 0 137.03173830 0 2246.88795136 0 -11.57188942 0 1436.12145445 0 30922
0.16850000 0.16850800 8368.67410693 0 200.49889459 0 2651.87191673 0 -368.68247776 0 1785.82689422 0 30867
0.16950000 0.16949900 8042.57073426 0 205.79383202 0 2858.72273981 0 -34.56604803 0 1527.06926942 0 30852
0.17050000 0.17049200 7937.77001430 0 82.78425037 0 2976.44470422 0 76.32373906 0 1767.10495378 0 31257
0.17150000 0.17149500 7855.42896815 0 17.53496055 0 2840.25589689 0 234.67198151 0 1420.58268752 0 32608
0.17250000 0.17250900 7891.68609098 0 -2.00155067 0 2678.57951898 0 190.18186319 0 1829.78130773 0 32361
0.17350000 0.17350400 7794.01701065 0 -7.46447537 0 2580.06750769 0 330.86482352 0 1477.05906238 0 32508
0.17450000 0.17449800 7782.28252428 0 25.39484818 0 2200.38256256 0 189.11489004 0 1753.34077836 0 32791
0.17550000 0.17549800 7844.79251028 0 -42.25557487 0 2022.28012196 0 286.39023288 0 1442.15506559 0 33633
0.17650000 0.17650100 7811.24163951 0 2.31605266 0 1536.81843154 0 259.80241555 0 1584.18893371 0 33984
0.17750000 0.17750300 7704.78833120 0 168.45753573 0 1432.03989397 0 -141.60242056 0 1241.07166492 0 34069
0.17850000 0.17849800 7461.28110221 0 189.55964704 0 1483.71378055 0 -286.86937259 0 992.39482902 0 34536
