### header ###
fiducial parameters:
Omega_m = 0.31
Omega_nu = 0
Omega_de = 0.69
Omega_k = 0
H_0 = 100
w_de = -1
zeff = 0
beta = 0
fgrowth = 0
b_1 = 2
gamma = 0.55
Lx = 3500 Ly = 3500 Lz = 3500
nx = 700 ny = 700 nz = 700
xoffset = 1379.75464 yoffset = 22.6059522 zoffset = 368.141391
bins = 400 dk = 0.001
kx_ny = 0.628318531 ky_ny = 0.628318531 kz_ny = 0.628318531
############################
A(data) = 3.27938355 (not used)
A(ran) = 3.27630978 (used)
Ngal = 184467
weighted Ngal = 0
Nran = 9399747
weighted Nran = 0
SN(data) = 6694.59159
SN(ran) = 130.316476
SN(data+ran) = 6824.90806
############################
13 columns: k_central k_mean P_0(k) sigma^{lin}_{P_0(k)} P^img_1(k) sigma^{lin}_{P_1(k)} P_2(k) sigma^{lin}_{P_2(k)} P^img_3(k) sigma^{lin}_{P_3(k)} P_4(k) sigma^{lin}_{P_4(k)} N_modes
### header ###
0.00050000 0 0 0 0 0 0 0 0 0 0 0 0
0.00150000 0.00179520 47475.75762490 0 -42631.67735776 0 -62141.86917347 0 73923.60404369 0 -22040.09383960 0 3
0.00250000 0.00253879 75266.19343427 0 -34990.17539634 0 -1556.98222759 0 -88265.96355335 0 28221.99428263 0 6
0.00350000 0.00331552 84197.15795289 0 -1856.45563639 0 -43577.42372154 0 -18836.29068914 0 -29641.77840397 0 7
0.00450000 0.00420575 85403.21470904 0 14525.58608324 0 -384.00163898 0 -47663.42067726 0 29355.29278680 0 24
0.00550000 0.00557378 61540.83721085 0 7630.49949404 0 12581.52108216 0 5299.88409692 0 28919.63057067 0 45
0.00650000 0.00659388 68524.74210520 0 -11193.12504818 0 -16101.75608155 0 74030.63409424 0 49212.52815502 0 40
0.00750000 0.00754703 75351.92838668 0 -30040.83967017 0 -39844.34865270 0 53303.29432543 0 -8736.12546183 0 57
0.00850000 0.00846663 116984.39981138 0 -28297.74715779 0 -81066.55670228 0 20959.25669700 0 34381.37959586 0 75
0.00950000 0.00948925 142398.76849854 0 -13628.30825013 0 -102927.74953511 0 -32815.08076283 0 -1239.28598221 0 112
0.01050000 0.01054430 124530.85021495 0 7930.48309790 0 -64916.99756189 0 -59950.24865650 0 -11986.36745391 0 105
0.01150000 0.01145670 120628.96712856 0 21202.59755804 0 -36674.04091702 0 -63620.21481470 0 -24442.66892252 0 144
0.01250000 0.01249090 100001.11539638 0 14667.33158024 0 -481.17605192 0 -46760.04268583 0 -28554.39745517 0 169
0.01350000 0.01339930 93053.47871605 0 8526.09146522 0 39844.12682876 0 -4708.35729008 0 -34397.24000749 0 180
0.01450000 0.01448870 87725.93317394 0 -1782.45517035 0 30887.76346914 0 12758.98023333 0 -25548.23943432 0 267
0.01550000 0.01550050 93040.16927971 0 2.15626178 0 13351.91562218 0 13843.58838289 0 -18240.69341302 0 238
0.01650000 0.01653350 94719.82014555 0 -3716.32736144 0 14876.51155468 0 18111.92461645 0 6412.58624836 0 315
0.01750000 0.01747870 100789.47767546 0 -7812.10675287 0 -2904.90648391 0 16236.62503644 0 13050.67871307 0 297
0.01850000 0.01844180 96281.90432373 0 229.80183693 0 -6807.73232203 0 2177.26850812 0 16553.38962128 0 388
0.01950000 0.01947590 101966.58640758 0 2304.05198043 0 -2835.89705649 0 -4663.38248646 0 11583.64609272 0 399
0.02050000 0.02045430 93413.27714505 0 6152.61968309 0 -921.96572840 0 -5470.97690104 0 13539.24593863 0 462
0.02150000 0.02154770 88170.46834762 0 7232.31443241 0 10534.38558783 0 -5782.29570818 0 15580.24800105 0 571
0.02250000 0.02255340 82976.34990480 0 4875.74563442 0 18053.69583247 0 874.36563846 0 12105.81964505 0 510
0.02350000 0.02348930 71201.60248866 0 4544.57358475 0 24317.67113292 0 -4359.73878760 0 14768.37238444 0 555
0.02450000 0.02439640 68903.39556902 0 4838.22411515 0 38704.17360643 0 -2763.29408127 0 6121.84161156 0 592
0.02550000 0.02547300 63610.67638532 0 3910.29021367 0 36246.14253876 0 -2520.34141212 0 14465.69361972 0 837
0.02650000 0.02652900 61299.16002935 0 1692.07300642 0 46587.24183738 0 6515.09109055 0 16734.84160336 0 723
0.02750000 0.02749970 56502.77190909 0 145.29911650 0 42542.61504627 0 4601.94834656 0 22539.30861424 0 826
0.02850000 0.02848090 64016.50328166 0 -1605.53948783 0 38953.72553776 0 13591.15274035 0 21550.30658237 0 831
0.02950000 0.02946900 65114.64269150 0 412.20544370 0 39669.21865289 0 4615.23560050 0 25439.32388029 0 996
0.03050000 0.03053250 63044.91442900 0 1653.29818189 0 38706.17002188 0 -3768.15652478 0 26207.94382880 0 1041
0.03150000 0.03150510 61635.55603278 0 4233.57642232 0 46111.09675239 0 -2147.06717883 0 18071.99630743 0 1036
0.03250000 0.03246190 56604.58909707 0 3038.94359903 0 50187.00071889 0 -4068.07358146 0 20978.99902756 0 1059
0.03350000 0.03345080 57295.45975498 0 1599.48369430 0 53387.03286239 0 1096.50013093 0 4796.21066111 0 1302
0.03450000 0.03451200 52186.74352865 0 1578.32169052 0 54940.57681893 0 4367.18098076 0 16879.91445944 0 1339
0.03550000 0.03553350 53371.28336273 0 141.81537154 0 44523.50282122 0 9125.32665394 0 3480.45087594 0 1365
0.03650000 0.03647120 53726.86713689 0 -285.03045213 0 49130.23147366 0 6746.30927333 0 16209.34069195 0 1308
0.03750000 0.03744890 49692.22242303 0 2241.27580571 0 38973.68969227 0 5825.35173474 0 6224.29099777 0 1579
0.03850000 0.03847530 48525.42850408 0 3587.30346734 0 40225.44217984 0 2024.12126066 0 14470.24101047 0 1662
0.03950000 0.03950240 43073.32882024 0 2041.00206241 0 36696.55604683 0 1856.69964272 0 11628.78726430 0 1683
0.04050000 0.04050350 41148.56250184 0 304.95246009 0 33846.45116704 0 7642.97709061 0 13055.55883972 0 1822
0.04150000 0.04152450 40968.77419931 0 -990.97071933 0 27531.56727260 0 8011.40447084 0 13087.83422284 0 1887
0.04250000 0.04250150 40426.63649248 0 -481.30803717 0 18330.08846042 0 6610.59738747 0 5887.55116722 0 1920
0.04350000 0.04349210 41305.72476260 0 980.86774803 0 17915.16678259 0 1174.01428817 0 13794.89802829 0 2005
0.04450000 0.04448520 38064.98792630 0 769.68359430 0 12915.80975817 0 892.53412818 0 6635.86313412 0 2151
0.04550000 0.04548030 37790.81353774 0 1100.47743416 0 14119.09371509 0 -930.97621680 0 9445.37423308 0 2274
0.04650000 0.04648670 35741.27125368 0 668.72264672 0 12823.19826366 0 198.63113703 0 112.76087201 0 2311
0.04750000 0.04749250 35606.29138682 0 -40.46113011 0 12787.37369751 0 1708.75416663 0 3164.22975975 0 2568
0.04850000 0.04851840 36218.19272245 0 -1247.38255598 0 10034.25024384 0 722.10679587 0 -201.72447185 0 2493
0.04950000 0.04949480 37292.37514689 0 -559.62741530 0 11871.12991762 0 1435.04560834 0 -1747.69535912 0 2644
0.05050000 0.05050630 37563.00035242 0 1394.19672998 0 9622.13463884 0 -1010.16181741 0 -2255.01779872 0 2829
0.05150000 0.05149060 35347.53376202 0 783.47106123 0 11662.50450303 0 -3057.11097963 0 -1449.31997882 0 2784
0.05250000 0.05249300 35748.81326760 0 70.25707616 0 9967.10413752 0 1126.86560994 0 -1652.55507169 0 3055
0.05350000 0.05348950 35634.68485101 0 -182.42246181 0 13287.47576791 0 2036.27721251 0 -1615.92084817 0 3009
0.05450000 0.05448610 35330.78605462 0 330.09509445 0 7847.28802959 0 2730.94105977 0 -498.82991011 0 3336
0.05550000 0.05550870 34246.84337687 0 43.06146124 0 10222.36803528 0 1354.04659703 0 -1002.49225472 0 3349
0.05650000 0.05647670 34814.60174865 0 268.77075741 0 6033.71096061 0 -981.68516925 0 -710.68508125 0 3324
0.05750000 0.05747970 34065.05865889 0 569.03496855 0 8981.07454643 0 815.57009431 0 988.22897545 0 3639
0.05850000 0.05849280 34091.56661960 0 381.85105589 0 8817.54593862 0 -523.19837892 0 293.16473597 0 3846
0.05950000 0.05951020 32639.61802711 0 1053.25333579 0 7336.27222140 0 -1407.30652478 0 -1667.72782912 0 3787
0.06050000 0.06049470 32348.80684312 0 543.86349707 0 11004.36396731 0 -1456.47380085 0 -688.93302580 0 3930
0.06150000 0.06148310 32331.83731179 0 -550.81324108 0 9645.80325313 0 1403.35805866 0 -1335.59084531 0 4083
0.06250000 0.06249100 32819.96088949 0 22.12682700 0 11350.17639696 0 669.91384127 0 -1398.48902320 0 4303
0.06350000 0.06350600 32661.80042100 0 377.54656236 0 9801.71220863 0 647.93774364 0 -293.98437543 0 4470
0.06450000 0.06451750 32193.19734994 0 481.73726649 0 11325.66485171 0 35.68381885 0 1302.99381748 0 4479
0.06550000 0.06550280 31476.92785103 0 381.09463626 0 10331.13940375 0 1117.12753902 0 1557.89170574 0 4636
0.06650000 0.06648880 31306.56706590 0 410.26781159 0 12533.27437543 0 773.59545946 0 4195.96617347 0 4653
0.06750000 0.06749660 30563.34595840 0 847.25875311 0 10550.11290510 0 669.22729618 0 3599.27086885 0 5220
0.06850000 0.06852730 29914.62184890 0 140.37462506 0 11774.63650417 0 1001.15687461 0 7474.34653221 0 5029
0.06950000 0.06949320 29468.31208370 0 352.61133338 0 12153.17905601 0 625.53907140 0 6733.86495036 0 5040
0.07050000 0.07048030 29642.11113988 0 -16.03487616 0 11779.51663083 0 436.46078231 0 7517.00327567 0 5475
0.07150000 0.07148790 29652.64777698 0 79.58588191 0 12436.55913804 0 -47.73407160 0 5981.93725325 0 5509
0.07250000 0.07249820 29906.74709907 0 177.26838258 0 11513.10608013 0 -1641.67460749 0 4475.98562282 0 5916
0.07350000 0.07351270 29133.02519996 0 826.33742831 0 13044.68946671 0 -992.77414796 0 3842.34554117 0 5721
0.07450000 0.07449140 28473.43171745 0 1163.99893732 0 14551.65039607 0 -1666.09742317 0 1757.55543320 0 6028
0.07550000 0.07549160 27024.58866010 0 653.66634686 0 15158.22795717 0 396.42821604 0 1575.68198565 0 6183
0.07650000 0.07648840 26999.52255500 0 112.44255466 0 14073.73071957 0 2029.13448168 0 1391.13555962 0 6330
0.07750000 0.07749960 25996.87835088 0 289.40482021 0 13558.21188542 0 1419.91721571 0 2915.55403298 0 6583
0.07850000 0.07848650 25987.00718559 0 497.47345672 0 11740.25379363 0 1721.23176320 0 986.16157633 0 6549
0.07950000 0.07947320 24833.52270298 0 206.21197014 0 11588.08257150 0 1063.22764921 0 3099.31298401 0 6828
0.08050000 0.08048110 23922.49178565 0 485.67575052 0 9073.08711631 0 445.10415209 0 1019.71799270 0 7147
0.08150000 0.08149960 23845.40796686 0 660.85787896 0 10092.96704049 0 496.91224215 0 3154.94642791 0 7386
0.08250000 0.08250610 22177.84650570 0 233.75917600 0 7747.18997714 0 716.99264496 0 85.74404719 0 7227
0.08350000 0.08350160 22678.05948806 0 91.60973761 0 7833.00256792 0 1132.76612672 0 939.77264510 0 7798
0.08450000 0.08449610 21696.15582224 0 355.32424015 0 6515.15763773 0 11.22950417 0 273.42351453 0 7371
0.08550000 0.08548940 21305.52386572 0 311.84452988 0 6495.84786385 0 606.80271240 0 -112.23514928 0 8256
0.08650000 0.08650700 20706.93196642 0 582.14365422 0 7395.80976662 0 -995.46819969 0 -408.28470558 0 8037
0.08750000 0.08749060 20251.41650776 0 518.97596024 0 6977.50527372 0 -466.74196821 0 -1097.36635342 0 8155
0.08850000 0.08849210 19538.03072005 0 286.93924713 0 7928.90814794 0 86.22540514 0 -938.02689070 0 8718
0.08950000 0.08949900 19465.05064413 0 84.33468880 0 7502.00797740 0 -199.48183183 0 -1657.88993743 0 8571
0.09050000 0.09049190 19391.84874427 0 67.95299090 0 7938.51312449 0 309.12718662 0 -1721.00993926 0 8932
0.09150000 0.09150830 19420.24220846 0 44.71848606 0 6880.30202366 0 348.81370754 0 -2500.67671993 0 9285
0.09250000 0.09250820 19247.44136001 0 30.20498939 0 6787.85689710 0 669.95155134 0 -2461.00350845 0 9204
0.09350000 0.09350330 19013.19528046 0 201.77216400 0 6199.11398069 0 -236.10385504 0 -1878.73785106 0 9349
0.09450000 0.09448040 18867.78968847 0 211.24959179 0 5804.62228764 0 493.89987306 0 -3675.84449258 0 9564
0.09550000 0.09549270 18343.95245660 0 410.23564712 0 6340.24946186 0 -62.36524588 0 -2672.61245502 0 10155
0.09650000 0.09649430 17783.07062693 0 344.25744384 0 5469.12467115 0 3.16477323 0 -2101.39362979 0 9913
0.09750000 0.09749140 17350.62485792 0 163.39773168 0 5689.07419783 0 1203.42814247 0 -2261.12904824 0 10476
0.09850000 0.09850240 17452.66386985 0 106.68999445 0 5179.10096215 0 455.83710338 0 -1003.15329006 0 10575
0.09950000 0.09950330 16607.40375042 0 137.96783532 0 3696.01937983 0 1353.28130444 0 -1168.40214251 0 10882
0.10050000 0.10051200 17023.98910780 0 233.89005212 0 5048.05847021 0 -309.44883133 0 65.82958125 0 10875
0.10150000 0.10150300 16193.48028031 0 432.62877376 0 4190.27638943 0 -161.29151338 0 -196.07350701 0 11118
0.10250000 0.10250800 15990.73320010 0 269.23215120 0 5342.11937490 0 57.50719070 0 1768.59117417 0 11575
0.10350000 0.10349800 15793.30989442 0 10.91535711 0 4435.34747720 0 13.93353799 0 623.39181567 0 11364
0.10450000 0.10450100 15756.26529661 0 -15.40467435 0 5247.32291458 0 799.76624778 0 1258.20756420 0 12093
0.10550000 0.10551000 15559.72928669 0 157.22437146 0 4643.97289180 0 302.91278897 0 1543.86134160 0 12067
0.10650000 0.10649700 15641.58232017 0 52.20704042 0 4716.79769096 0 932.52898437 0 3449.49534526 0 12054
0.10750000 0.10749900 15923.52054659 0 -276.24178767 0 3667.21554135 0 848.20150485 0 3215.06071537 0 12807
0.10850000 0.10850100 16092.10674021 0 -152.24553315 0 3618.60282513 0 475.00269170 0 3511.60604817 0 12736
0.10950000 0.10950300 15803.07014774 0 454.59932580 0 3622.66220321 0 -569.28673872 0 2529.90202389 0 12933
0.11050000 0.11050200 15396.02321974 0 423.95102127 0 4163.77951992 0 -864.78728077 0 2627.88165773 0 13428
0.11150000 0.11150900 14726.00401209 0 214.43942004 0 4682.73662513 0 -391.34844784 0 2690.34727894 0 13453
0.11250000 0.11250000 15018.58978759 0 82.21028093 0 4905.18167112 0 -346.12963788 0 978.27462618 0 13668
0.11350000 0.11349100 14796.54402468 0 21.64691091 0 4921.99592570 0 226.67855587 0 1242.80189164 0 13791
0.11450000 0.11448600 14937.06949002 0 -30.35826973 0 4822.06424119 0 99.32344326 0 677.71871656 0 14205
0.11550000 0.11549300 14749.07370175 0 128.30629366 0 4626.12715591 0 18.22328023 0 683.78892865 0 14776
0.11650000 0.11649800 14774.36163079 0 229.28942363 0 4649.85122618 0 -384.26782771 0 105.86114930 0 14553
0.11750000 0.11747300 14327.60821771 0 192.67072779 0 5201.10589690 0 -157.58816272 0 -150.08718622 0 14568
0.11850000 0.11849100 14362.43457613 0 85.26657116 0 4970.30917960 0 -37.92568249 0 -12.82242188 0 16015
0.11950000 0.11950300 14428.53810994 0 25.17424427 0 5051.91820675 0 448.84077634 0 -504.26681485 0 15270
0.12050000 0.12050700 14009.95633712 0 204.91540922 0 5330.27397656 0 -313.41615248 0 92.48638582 0 15999
0.12150000 0.12150000 13812.31120750 0 347.28312236 0 4620.08245357 0 230.92426606 0 -915.25999072 0 15670
0.12250000 0.12250700 13511.51794626 0 261.71010143 0 5741.84611291 0 -320.85280004 0 368.58376610 0 16887
0.12350000 0.12352200 13128.09526776 0 178.74018442 0 4861.22725762 0 349.79638759 0 -577.85579748 0 16407
0.12450000 0.12449800 13174.34555904 0 -23.71974471 0 5555.90219608 0 593.49549430 0 343.65075536 0 16306
0.12550000 0.12549900 12909.48777591 0 53.28022464 0 4354.38173948 0 346.06530894 0 -255.04761942 0 17523
0.12650000 0.12650100 13014.63232298 0 38.86455231 0 4197.09747556 0 659.92067282 0 359.53334939 0 17154
0.12750000 0.12750600 12668.58697820 0 62.21429469 0 4139.07942432 0 199.78683975 0 371.79466762 0 18007
0.12850000 0.12850300 12491.90421081 0 272.68151345 0 3435.11006282 0 73.34786001 0 370.06665914 0 17496
0.12950000 0.12949900 12367.23915712 0 27.29632299 0 3943.25325100 0 -80.19323585 0 376.90881853 0 18405
0.13050000 0.13049000 12310.67405268 0 112.04659893 0 3361.07632319 0 45.81751277 0 -240.17543343 0 18100
0.13150000 0.13148800 12428.24074033 0 60.75369496 0 3678.39546788 0 -33.60288848 0 259.63493848 0 19059
0.13250000 0.13249300 11976.71811257 0 100.49145721 0 3696.81794601 0 -258.81529903 0 -459.42732383 0 18957
0.13350000 0.13349100 12297.80826422 0 101.54412272 0 3533.63316531 0 -10.06004837 0 -550.30970074 0 19468
0.13450000 0.13450700 11831.20160861 0 84.06528362 0 3896.91423015 0 103.20514037 0 45.04745097 0 19953
0.13550000 0.13551000 11840.29639011 0 163.03948602 0 3759.57193834 0 603.52415458 0 257.62521359 0 19956
0.13650000 0.13649900 11859.48416083 0 -67.82366755 0 3730.75700867 0 332.16360268 0 428.03812734 0 19723
0.13750000 0.13749600 11615.81056387 0 174.05193547 0 3537.80345536 0 229.79961869 0 429.63525970 0 20946
0.13850000 0.13851100 11541.27772038 0 135.21500024 0 3451.99086457 0 -38.94030519 0 1124.40336422 0 20955
0.13950000 0.13949800 11309.13896826 0 -40.24684819 0 3329.41095590 0 318.62346945 0 1082.36661866 0 20506
0.14050000 0.14048300 11366.81319239 0 145.76051029 0 3022.17370924 0 291.28034161 0 1032.31093772 0 21447
0.14150000 0.14148400 11169.27897474 0 133.30287788 0 2852.16784242 0 -101.14461780 0 1044.41919742 0 21771
0.14250000 0.14249400 11149.64755614 0 41.79462472 0 2796.66749289 0 435.86296679 0 1181.67830526 0 22470
0.14350000 0.14350900 10953.15591101 0 -16.79262674 0 2513.40941403 0 556.66828395 0 1364.50559575 0 22519
0.14450000 0.14449900 10849.79704664 0 206.71994696 0 2203.27736496 0 -166.64634327 0 952.95896915 0 22218
0.14550000 0.14550500 10799.65374524 0 237.39265212 0 2182.37045871 0 -142.44978800 0 959.57819549 0 23559
0.14650000 0.14650700 10341.40985213 0 119.51541095 0 2975.53522607 0 -271.27404056 0 921.91138153 0 23044
0.14750000 0.14750500 10330.66248229 0 27.63016801 0 2039.70439237 0 158.70726449 0 1103.00068147 0 23649
0.14850000 0.14849900 10501.50018888 0 -74.14354248 0 2525.76500743 0 149.28862004 0 479.14858112 0 23640
0.14950000 0.14949500 10445.80019781 0 98.06148687 0 2186.15255687 0 -19.32751980 0 89.93186133 0 24457
0.15050000 0.15050000 10258.21478382 0 221.95037861 0 2390.66313740 0 -123.14223236 0 572.36787323 0 24591
0.15150000 0.15149900 10136.23379978 0 127.95581183 0 2549.69981044 0 -132.12499277 0 707.88788138 0 25020
0.15250000 0.15250500 9858.09985391 0 165.59489780 0 2507.50889725 0 36.34063954 0 542.98285604 0 25297
0.15350000 0.15350100 9800.92473365 0 125.83184762 0 2686.84246071 0 166.26813345 0 286.77731565 0 25452
0.15450000 0.15450400 9467.13516149 0 164.42366740 0 2607.28530500 0 -38.58583053 0 915.41859484 0 26061
0.15550000 0.15549900 9256.25823391 0 182.45129892 0 2566.90225691 0 113.62265802 0 889.66039905 0 26128
0.15650000 0.15649500 9224.68159620 0 33.61852707 0 2507.99690992 0 99.61159256 0 820.94932483 0 26331
0.15750000 0.15749700 9122.79786103 0 -47.31249521 0 2346.64217671 0 275.01621041 0 264.37531606 0 27345
0.15850000 0.15849900 9171.83204274 0 46.06085363 0 2323.86085818 0 -3.30003038 0 549.86938022 0 26980
0.15950000 0.15949700 9130.17350700 0 64.22346502 0 2000.41937278 0 -190.03878675 0 307.43356085 0 27777
0.16050000 0.16050000 9036.76344631 0 80.46519200 0 2323.42830150 0 -97.25415865 0 -8.50755808 0 28224
0.16150000 0.16150500 8943.25356484 0 92.45255767 0 2105.35318711 0 -16.03842535 0 -411.15067087 0 28075
0.16250000 0.16249700 8931.16416016 0 56.83528599 0 2106.83940750 0 -31.42624108 0 -438.40063265 0 28590
0.16350000 0.16349900 8773.56934273 0 42.09098151 0 2395.93145595 0 305.26745008 0 -241.50748619 0 29163
0.16450000 0.16449100 8807.75241172 0 34.85530644 0 1998.03476543 0 132.08062798 0 -137.59849846 0 28996
0.16550000 0.16550500 8739.14226740 0 90.02524921 0 1868.04593720 0 307.81177066 0 377.81386020 0 30777
0.16650000 0.16650700 8663.08992992 0 -13.19963349 0 1924.16739376 0 59.95113595 0 258.43708921 0 29211
0.16750000 0.16749900 8748.39232565 0 155.51965449 0 1883.76216328 0 -114.85378088 0 794.48018332 0 30922
0.16850000 0.16850800 8484.25547033 0 193.50811316 0 2040.42532017 0 -264.51839250 0 358.03603781 0 30867
0.16950000 0.16949900 8339.42662058 0 101.46193695 0 2443.82324437 0 -79.15454526 0 798.28890035 0 30852
0.17050000 0.17049200 8312.71901833 0 22.52122996 0 2260.07538453 0 168.13034542 0 410.44194339 0 31257
0.17150000 0.17149500 8279.72270741 0 4.70725926 0 2377.02096516 0 59.54065075 0 407.99522534 0 32608
0.17250000 0.17250900 8082.69868482 0 192.26035350 0 2428.96104046 0 46.62062634 0 695.10860426 0 32361
0.17350000 0.17350400 7989.98736953 0 134.47299916 0 2032.45074956 0 98.94234974 0 369.50433545 0 32508
0.17450000 0.17449800 7966.76240312 0 -73.32124114 0 1920.45184278 0 302.47357757 0 980.90878546 0 32791
0.17550000 0.17549800 7847.41003276 0 -12.08751917 0 1782.06697846 0 320.66868617 0 475.20233325 0 33633
0.17650000 0.17650100 7873.28579524 0 85.67295262 0 1708.56561628 0 83.32893906 0 839.18103438 0 33984
0.17750000 0.17750300 7766.12265033 0 85.68792573 0 1323.17979592 0 148.20168274 0 394.81333777 0 34069
0.17850000 0.17849800 7639.81609948 0 151.08761219 0 1609.64323070 0 -232.95395510 0 859.81398806 0 34536
