### header ###
fiducial parameters:
Omega_m = 0.31
Omega_nu = 0
Omega_de = 0.69
Omega_k = 0
H_0 = 100
w_de = -1
zeff = 0
beta = 0
fgrowth = 0
b_1 = 2
gamma = 0.55
Lx = 3500 Ly = 3500 Lz = 3500
nx = 700 ny = 700 nz = 700
xoffset = 1379.75464 yoffset = 22.6059522 zoffset = 368.141391
bins = 400 dk = 0.001
kx_ny = 0.628318531 ky_ny = 0.628318531 kz_ny = 0.628318531
############################
A(data) = 3.3947452 (not used)
A(ran) = 3.41086611 (used)
Ngal = 191172
weighted Ngal = 0
Nran = 9399747
weighted Nran = 0
SN(data) = 6550.34141
SN(ran) = 135.668506
SN(data+ran) = 6686.00991
############################
13 columns: k_central k_mean P_0(k) sigma^{lin}_{P_0(k)} P^img_1(k) sigma^{lin}_{P_1(k)} P_2(k) sigma^{lin}_{P_2(k)} P^img_3(k) sigma^{lin}_{P_3(k)} P_4(k) sigma^{lin}_{P_4(k)} N_modes
### header ###
0.00050000 0 0 0 0 0 0 0 0 0 0 0 0
0.00150000 0.00179520 84744.95217016 0 -23963.08556648 0 50893.28814055 0 -37169.70650864 0 330542.06969032 0 3
0.00250000 0.00253879 77498.18590813 0 -8232.06383412 0 -739.10294607 0 5628.22789138 0 -165624.84402781 0 6
0.00350000 0.00331552 105083.87822184 0 -3468.91603112 0 46367.85796174 0 6903.29407494 0 81150.40615121 0 7
0.00450000 0.00420575 96766.36780643 0 8052.15352842 0 31086.96136633 0 20103.23811653 0 -15959.89967258 0 24
0.00550000 0.00557378 96926.30286643 0 15392.25221277 0 95770.93288033 0 20010.07206217 0 35400.43877146 0 45
0.00650000 0.00659388 70379.74479479 0 2388.42271562 0 39550.09919767 0 16956.11098247 0 -28881.80958908 0 40
0.00750000 0.00754703 91398.89395531 0 2305.48274484 0 131473.93950454 0 38851.57561387 0 64799.43087423 0 57
0.00850000 0.00846663 71714.01578767 0 9116.25405483 0 81130.22017277 0 18004.45091802 0 21206.03582909 0 75
0.00950000 0.00948925 90938.94201787 0 5817.96499757 0 97399.45332824 0 29021.66958260 0 47693.14508508 0 112
0.01050000 0.01054430 79557.71026945 0 -1477.04797119 0 102967.45602018 0 20737.76549394 0 36320.23173438 0 105
0.01150000 0.01145670 76738.99347703 0 7711.74251169 0 85843.20249198 0 22907.75817686 0 40058.07601790 0 144
0.01250000 0.01249090 85059.94216349 0 -1871.82803536 0 83819.05904892 0 37992.34058629 0 33569.50397925 0 169
0.01350000 0.01339930 79573.68159305 0 -6246.50666525 0 73666.39918646 0 28530.99502961 0 32381.30405018 0 180
0.01450000 0.01448870 83853.10902356 0 6801.76525807 0 62242.35541782 0 15317.49754534 0 58575.93844265 0 267
0.01550000 0.01550050 76895.04661809 0 984.76741288 0 46862.52534563 0 14414.11955391 0 39842.90679710 0 238
0.01650000 0.01653350 76875.41519949 0 1097.45286475 0 47135.59061450 0 23849.95535761 0 57046.46238349 0 315
0.01750000 0.01747870 73117.93949737 0 4026.74778163 0 40618.18146378 0 4416.33716563 0 32274.71764751 0 297
0.01850000 0.01844180 68031.62748889 0 4323.54821196 0 52216.91158435 0 3047.19544955 0 42407.63517941 0 388
0.01950000 0.01947590 65660.88414120 0 3760.52578128 0 39889.48982428 0 718.32247947 0 27152.80289682 0 399
0.02050000 0.02045430 63682.99098943 0 1818.69011078 0 45672.32900112 0 3004.10614941 0 20580.93596909 0 462
0.02150000 0.02154770 61242.92766082 0 1168.53523687 0 48007.02595872 0 1872.88169907 0 21475.55191493 0 571
0.02250000 0.02255340 57229.79986904 0 817.06296942 0 32152.71448108 0 10838.43966097 0 8672.02943466 0 510
0.02350000 0.02348930 63821.52003931 0 63.58272657 0 52014.16450414 0 3080.51340519 0 22932.93519393 0 555
0.02450000 0.02439640 58974.99970885 0 481.21376199 0 28000.28125564 0 12867.89578736 0 -5204.33343521 0 592
0.02550000 0.02547300 61751.45904089 0 -384.97988255 0 35851.96139922 0 7588.29748966 0 21495.29424550 0 837
0.02650000 0.02652900 58151.92198332 0 -929.49665113 0 20064.19710327 0 4841.42947107 0 9270.04459172 0 723
0.02750000 0.02749970 63779.37349091 0 -84.03001361 0 27219.90463836 0 9074.09641523 0 28437.71806327 0 826
0.02850000 0.02848090 61368.03636239 0 -830.92474737 0 13579.72880750 0 2586.01238925 0 10315.27899212 0 831
0.02950000 0.02946900 60568.25015046 0 1706.64683921 0 13374.54166395 0 5271.80118625 0 16901.43138152 0 996
0.03050000 0.03053250 60597.97455828 0 2318.98073153 0 21754.71734212 0 -1964.09570277 0 21429.63435957 0 1041
0.03150000 0.03150510 54001.48517332 0 1615.73229783 0 21086.80546190 0 -2752.96817691 0 13983.44837641 0 1036
0.03250000 0.03246190 55321.89217001 0 1020.46664850 0 20964.35864759 0 5734.06009266 0 22658.20624552 0 1059
0.03350000 0.03345080 52826.04012075 0 116.76257587 0 17653.52544658 0 349.27953781 0 9698.26461469 0 1302
0.03450000 0.03451200 53985.73567366 0 1863.66491441 0 25124.99935878 0 2519.90885544 0 21379.50214936 0 1339
0.03550000 0.03553350 51905.80350996 0 1253.51598789 0 22201.91440307 0 -358.44419385 0 13287.25394397 0 1365
0.03650000 0.03647120 49955.74926252 0 2778.23392356 0 23092.31569408 0 78.35198625 0 14772.58703928 0 1308
0.03750000 0.03744890 48061.37282376 0 1294.18740710 0 27842.56443503 0 -920.08577052 0 15432.29143376 0 1579
0.03850000 0.03847530 44328.18684296 0 1633.66676329 0 25826.96121363 0 637.43327101 0 10134.07101638 0 1662
0.03950000 0.03950240 45204.39140187 0 1010.25941994 0 26396.49417692 0 969.34732176 0 9441.15957824 0 1683
0.04050000 0.04050350 41259.69629527 0 137.27796287 0 23691.12941731 0 3145.31926896 0 3034.05238117 0 1822
0.04150000 0.04152450 43932.56384782 0 2350.14699495 0 24233.71077202 0 -1484.64544110 0 4583.99169870 0 1887
0.04250000 0.04250150 39651.25091383 0 -123.71564724 0 19493.66593226 0 220.88562370 0 -4285.53868002 0 1920
0.04350000 0.04349210 39293.00525241 0 481.67737402 0 20900.36244120 0 3986.58655748 0 310.82635800 0 2005
0.04450000 0.04448520 38647.27576608 0 -254.82801372 0 15782.66234535 0 2102.86875899 0 -3352.74683428 0 2151
0.04550000 0.04548030 39463.58786147 0 -963.68970220 0 11389.43923416 0 6872.94856009 0 -1181.76703483 0 2274
0.04650000 0.04648670 40947.59001314 0 -1243.03480678 0 7338.59028156 0 4872.64009928 0 -336.02999394 0 2311
0.04750000 0.04749250 39672.32418804 0 -498.51602923 0 4138.42504370 0 1251.19792773 0 -882.04074674 0 2568
0.04850000 0.04851840 40729.86981705 0 901.02111208 0 4778.48692838 0 -596.22614699 0 1876.77470920 0 2493
0.04950000 0.04949480 39402.25354235 0 1004.88129854 0 4652.82366696 0 -2325.16961942 0 802.85514613 0 2644
0.05050000 0.05050630 38420.12805258 0 1203.81633437 0 8047.40649613 0 -1479.43257853 0 1622.19846565 0 2829
0.05150000 0.05149060 37262.65073907 0 950.82169550 0 8370.44869844 0 -464.13997341 0 -1862.65561548 0 2784
0.05250000 0.05249300 35909.19197547 0 1659.44270500 0 11528.07919601 0 -1007.89588587 0 2166.35477032 0 3055
0.05350000 0.05348950 33988.75122389 0 2031.84073373 0 13838.04278442 0 -3294.14094961 0 -1030.60289339 0 3009
0.05450000 0.05448610 32080.39987698 0 1753.51823751 0 16844.97718905 0 -418.89232634 0 4673.57529645 0 3336
0.05550000 0.05550870 30117.14710517 0 349.66551147 0 17992.47242532 0 1938.63031458 0 2681.34122702 0 3349
0.05650000 0.05647670 30497.13151262 0 -739.20831244 0 14158.35655228 0 3874.06636444 0 2949.04944776 0 3324
0.05750000 0.05747970 31607.13850320 0 -356.88588068 0 13673.00577383 0 2172.92075891 0 3218.02206495 0 3639
0.05850000 0.05849280 30835.85666742 0 179.60197042 0 10165.25946220 0 920.96752067 0 729.99263690 0 3846
0.05950000 0.05951020 30859.81365283 0 32.29423815 0 10592.18181513 0 -337.76243890 0 4100.93679801 0 3787
0.06050000 0.06049470 30640.42977719 0 125.77639163 0 8994.77217466 0 -438.30857572 0 -1637.13830794 0 3930
0.06150000 0.06148310 31035.27638855 0 -42.42593565 0 9104.69702761 0 890.62311494 0 -2172.86530293 0 4083
0.06250000 0.06249100 31096.27797176 0 -92.09375744 0 7919.19225941 0 370.94508193 0 -3027.58621335 0 4303
0.06350000 0.06350600 30916.15693332 0 -447.19595183 0 6002.97725386 0 2438.93202652 0 -1981.80834430 0 4470
0.06450000 0.06451750 30312.35217146 0 602.47492735 0 7962.24828596 0 -1121.79693293 0 -4192.39480805 0 4479
0.06550000 0.06550280 30984.03505865 0 923.07928457 0 4696.97772201 0 186.04041025 0 -998.75563047 0 4636
0.06650000 0.06648880 28572.69793013 0 797.94729148 0 8659.92893879 0 -892.71380557 0 -2826.69136303 0 4653
0.06750000 0.06749660 27630.05710150 0 1171.65186322 0 8286.57706712 0 -1388.73986108 0 -1412.21992502 0 5220
0.06850000 0.06852730 27590.46152840 0 233.30665516 0 10568.45774486 0 -246.15802507 0 -1168.28013934 0 5029
0.06950000 0.06949320 26177.66486113 0 228.40656435 0 9582.08432666 0 755.20847316 0 -2008.41612578 0 5040
0.07050000 0.07048030 27843.89537867 0 -121.90889126 0 11083.89894063 0 805.36508400 0 1409.00347791 0 5475
0.07150000 0.07148790 26009.52231540 0 215.27569629 0 10541.16230917 0 -1131.04699119 0 -2126.75919722 0 5509
0.07250000 0.07249820 26835.48375213 0 736.58524437 0 12168.48490780 0 -245.57462811 0 1513.21636443 0 5916
0.07350000 0.07351270 26137.40381621 0 394.01588071 0 13046.79679413 0 70.25208512 0 -1011.47612425 0 5721
0.07450000 0.07449140 26192.63797701 0 103.55351487 0 12491.90421081 0 -390.71957697 0 1895.96247992 0 6028
0.07550000 0.07549160 25752.65019408 0 225.93766391 0 14455.04607065 0 2250.31513122 0 3707.37676550 0 6183
0.07650000 0.07648840 25419.13790184 0 241.00283673 0 12623.77854253 0 883.68113477 0 2705.09857088 0 6330
0.07750000 0.07749960 25539.14465282 0 17.74447326 0 13382.52732576 0 1380.19963943 0 6168.49118592 0 6583
0.07850000 0.07848650 24867.35085367 0 88.70861322 0 10168.66445966 0 2566.05932594 0 4276.71008725 0 6549
0.07950000 0.07947320 25317.87527371 0 -178.84555079 0 12260.87457838 0 721.64651120 0 9645.04905173 0 6828
0.08050000 0.08048110 25016.41654066 0 255.41362892 0 7871.64429809 0 1216.80412599 0 5283.64658459 0 7147
0.08150000 0.08149960 25189.21738911 0 279.70445936 0 10500.24688362 0 335.62849261 0 7114.25973209 0 7386
0.08250000 0.08250610 23995.69368551 0 177.42365934 0 8032.56647461 0 61.44035097 0 5919.83764154 0 7227
0.08350000 0.08350160 23628.02050668 0 538.04727339 0 8474.83904412 0 604.09202386 0 5247.85529204 0 7798
0.08450000 0.08449610 23670.16705508 0 493.32867642 0 8191.56987406 0 -444.19689218 0 5096.19426497 0 7371
0.08550000 0.08548940 22426.73296521 0 276.03881877 0 8018.64702244 0 825.89710779 0 2227.23435037 0 8256
0.08650000 0.08650700 21694.71396663 0 411.85052540 0 7745.16028810 0 471.48345491 0 4025.81612108 0 8037
0.08750000 0.08749060 21270.91933124 0 485.79886281 0 6735.32898835 0 255.27055248 0 2205.80615787 0 8155
0.08850000 0.08849210 20577.38678607 0 398.75071268 0 6397.56876769 0 465.36111419 0 3277.53742778 0 8718
0.08950000 0.08949900 19872.87395592 0 451.24202048 0 6126.38900230 0 723.46214014 0 2528.85945138 0 8571
0.09050000 0.09049190 19710.27700866 0 -2.29431391 0 4977.07480974 0 988.51956481 0 3678.32892070 0 8932
0.09150000 0.09150830 19047.79981494 0 207.61278831 0 4134.48766878 0 703.51129507 0 2697.41237140 0 9285
0.09250000 0.09250820 19064.54752233 0 257.59526736 0 3967.18805402 0 153.22266760 0 3511.14021790 0 9204
0.09350000 0.09350330 18458.52452108 0 124.70830937 0 3530.39453580 0 179.33134522 0 2553.01607833 0 9349
0.09450000 0.09448040 18620.78873243 0 217.21665575 0 3840.32694332 0 -311.14467535 0 2867.88406849 0 9564
0.09550000 0.09549270 17844.18312212 0 416.86818290 0 4360.13807069 0 -369.12945299 0 1774.70242369 0 10155
0.09650000 0.09649430 18060.12872670 0 285.60830349 0 4786.46149899 0 -769.42849677 0 1583.87838019 0 9913
0.09750000 0.09749140 17475.17899965 0 108.15480883 0 5080.73313642 0 94.61944481 0 1161.28159407 0 10476
0.09850000 0.09850240 17092.08905706 0 224.96718418 0 5126.49541503 0 -57.08871984 0 242.48018416 0 10575
0.09950000 0.09950330 17226.29254013 0 503.87085912 0 5980.45103286 0 -615.71559826 0 992.00330977 0 10882
0.10050000 0.10051200 16486.95335156 0 380.94601422 0 5659.54943156 0 -822.52205656 0 -433.67356451 0 10875
0.10150000 0.10150300 16205.01512514 0 152.16567653 0 6679.22971419 0 111.53862211 0 22.80605190 0 11118
0.10250000 0.10250800 16258.36378246 0 -207.53514994 0 5247.78874485 0 817.27924776 0 -689.62511649 0 11575
0.10350000 0.10349800 16384.80342767 0 -123.37403837 0 5624.04651013 0 502.09183113 0 -909.28849029 0 11364
0.10450000 0.10450100 16103.08702519 0 349.21520887 0 4692.74088478 0 -27.73453618 0 -709.69352825 0 12093
0.10550000 0.10551000 15871.05918503 0 388.41038977 0 5482.32319552 0 -161.15952814 0 -935.99165606 0 12067
0.10650000 0.10649700 15395.91230777 0 369.48991689 0 6121.02086298 0 -822.92244877 0 -41.39877990 0 12054
0.10750000 0.10749900 15023.13717834 0 246.68263868 0 6096.39840576 0 -76.50541287 0 -1481.57317954 0 12807
0.10850000 0.10850100 15017.25884395 0 95.45782839 0 6966.93536303 0 38.04003273 0 -127.62529416 0 12736
0.10950000 0.10950300 14754.73021219 0 146.41156355 0 6767.06090282 0 -199.29882708 0 -1203.76087838 0 12933
0.11050000 0.11050200 14849.55994610 0 9.20111280 0 6915.71621552 0 829.81562767 0 -490.78657408 0 13428
0.11150000 0.11150900 14673.20991462 0 2.85900002 0 6507.30507029 0 277.89104866 0 381.25767686 0 13453
0.11250000 0.11250000 14777.68898987 0 101.51650564 0 5650.73192998 0 600.68148080 0 -711.70436225 0 13668
0.11350000 0.11349100 14565.29256831 0 -1.36067913 0 6017.88382256 0 706.89300102 0 467.25327239 0 13791
0.11450000 0.11448600 14560.07970575 0 150.76818572 0 4862.75784280 0 120.68220487 0 -510.08969325 0 14205
0.11550000 0.11549300 14252.18807847 0 187.03972710 0 4753.65373842 0 33.17532284 0 -348.35342287 0 14776
0.11650000 0.11649800 14006.62897803 0 37.98069483 0 4471.94842713 0 21.87660960 0 -156.71861288 0 14553
0.11750000 0.11747300 13540.13323439 0 142.59508268 0 4219.96752366 0 301.69386643 0 -714.00024002 0 14568
0.11850000 0.11849100 13872.20367102 0 -70.61521091 0 3833.10657411 0 761.27092141 0 -475.82233116 0 16015
0.11950000 0.11950300 13850.57583697 0 -64.62141716 0 3335.45565824 0 482.66449055 0 -1338.64092447 0 15270
0.12050000 0.12050700 13830.83350640 0 89.15913764 0 2329.18463272 0 135.58655533 0 -369.63742981 0 15999
0.12150000 0.12150000 13750.08959262 0 116.91896175 0 3325.58449296 0 -255.78740226 0 -1046.10284112 0 15670
0.12250000 0.12250700 13340.93533720 0 170.71237607 0 2503.54933994 0 -150.41992213 0 -946.11237327 0 16887
0.12350000 0.12352200 13453.06733835 0 135.13181626 0 3538.04746170 0 -381.06469003 0 -1600.96991469 0 16407
0.12450000 0.12449800 13111.12573643 0 185.43483090 0 2800.38304387 0 -102.22700771 0 -1357.68450963 0 16306
0.12550000 0.12549900 13031.38003038 0 85.16919045 0 3190.87081482 0 33.89924526 0 -1865.46168831 0 17523
0.12650000 0.12650100 13127.65161989 0 -16.77732089 0 3006.70148950 0 223.97341293 0 -1998.40077493 0 17154
0.12750000 0.12750600 12882.09251945 0 46.27557920 0 2730.76360062 0 398.13736949 0 -1806.52306773 0 18007
0.12850000 0.12850300 12705.07701616 0 278.98020420 0 2980.47080871 0 -228.01504510 0 -2172.00018957 0 17496
0.12950000 0.12949900 12552.90579403 0 181.14253768 0 2760.37709647 0 138.18855014 0 -1237.44484351 0 18405
0.13050000 0.13049000 12275.95860623 0 -2.68189579 0 2601.99480405 0 628.94295974 0 -1109.57443390 0 18100
0.13150000 0.13148800 12335.07468597 0 95.13174720 0 2694.00737394 0 387.57300440 0 -71.51182327 0 19059
0.13250000 0.13249300 12190.00182988 0 58.65402047 0 2207.31456065 0 201.64794260 0 -134.63936711 0 18957
0.13350000 0.13349100 12148.96440117 0 91.39090829 0 2413.78828304 0 313.93632962 0 430.31515008 0 19468
0.13450000 0.13450700 12106.92876474 0 24.45287282 0 2596.93721824 0 -1.19082854 0 1140.67415014 0 19953
0.13550000 0.13551000 11807.91009502 0 142.27011061 0 2573.11332720 0 -39.25651521 0 299.74403400 0 19956
0.13650000 0.13649900 11893.75595940 0 332.35548039 0 3114.14191433 0 -467.26214535 0 1253.85981500 0 19723
0.13750000 0.13749600 11495.80381289 0 246.69151164 0 3250.48599842 0 -409.48810045 0 204.36528585 0 20946
0.13850000 0.13851100 11291.83670102 0 308.96303691 0 4127.24511718 0 -107.45439975 0 951.86204977 0 20955
0.13950000 0.13949800 11020.55711486 0 1.50495342 0 3624.22606198 0 -271.85854664 0 216.88059248 0 20506
0.14050000 0.14048300 11010.79686154 0 115.19206238 0 4057.62567393 0 98.23473137 0 424.72518682 0 21447
0.14150000 0.14148400 10901.59293639 0 154.73994334 0 3831.79781287 0 122.42463191 0 -136.31191961 0 21771
0.14250000 0.14249400 10793.29848939 0 71.96024036 0 3645.67643688 0 178.38859348 0 517.24351528 0 22470
0.14350000 0.14350900 10703.22687897 0 -29.11084281 0 3635.84963638 0 471.07308062 0 102.62739992 0 22519
0.14450000 0.14449900 10656.26675109 0 92.27332392 0 3373.21009265 0 370.36944881 0 836.16201057 0 22218
0.14550000 0.14550500 10686.36825961 0 -71.68284952 0 3072.13955149 0 304.71399936 0 825.92816314 0 23559
0.14650000 0.14650700 10561.85848267 0 2.67737058 0 2474.00239127 0 354.69204193 0 933.60926695 0 23044
0.14750000 0.14750500 10784.65844697 0 4.74537971 0 2744.98251511 0 56.73624160 0 1138.77755546 0 23649
0.14850000 0.14849900 10523.16129652 0 108.82194433 0 2518.11208153 0 -397.87228988 0 649.83212008 0 23640
0.14950000 0.14949500 10614.25329706 0 193.50922228 0 3005.33727227 0 -342.79118760 0 617.24396520 0 24457
0.15050000 0.15050000 10383.74495088 0 6.43621050 0 3064.78608791 0 126.71137953 0 254.04608434 0 24591
0.15150000 0.15149900 10431.50364494 0 -3.97832362 0 2842.01939721 0 -2.46383176 0 314.35446774 0 25020
0.15250000 0.15250500 10571.27490888 0 -5.96833945 0 3005.23745150 0 440.95271707 0 -118.06911887 0 25297
0.15350000 0.15350100 10314.14769003 0 112.47693737 0 2615.94752981 0 51.27160887 0 475.82122204 0 25452
0.15450000 0.15450400 10369.01584133 0 202.85355570 0 2633.03906431 0 -131.63032538 0 298.68149734 0 26061
0.15550000 0.15549900 9982.86472838 0 229.65099665 0 2853.97570752 0 66.83033995 0 597.26539214 0 26128
0.15650000 0.15649500 9774.78278244 0 184.76492260 0 2812.22844221 0 -75.80822023 0 368.27432171 0 26331
0.15750000 0.15749700 9521.00510507 0 127.76947972 0 3166.08198964 0 193.20643260 0 576.80546113 0 27345
0.15850000 0.15849900 9339.22038708 0 98.04285366 0 2814.66850554 0 216.19072003 0 603.33782247 0 26980
0.15950000 0.15949700 9194.63554367 0 51.52171536 0 2502.45131144 0 354.18295599 0 793.84133037 0 27777
0.16050000 0.16050000 9160.08646517 0 51.06420349 0 2534.75996815 0 154.34620585 0 904.69340739 0 28224
0.16150000 0.16150500 9033.56918159 0 196.19107370 0 2435.54921145 0 -26.41058000 0 755.36485904 0 28075
0.16250000 0.16249700 8684.17429532 0 233.36211115 0 2426.99789860 0 -208.65536083 0 746.00388881 0 28590
0.16350000 0.16349900 8413.30508345 0 282.27428969 0 2649.03257031 0 -115.33402971 0 878.99177670 0 29163
0.16450000 0.16449100 8293.75307155 0 101.63218682 0 2636.32205861 0 165.02591939 0 864.74957070 0 28996
0.16550000 0.16550500 8065.13022885 0 17.13512290 0 2492.86851728 0 348.36784143 0 728.56630897 0 30777
0.16650000 0.16650700 7957.45688888 0 132.61744191 0 2549.79963121 0 -72.85141803 0 694.39987677 0 29211
0.16750000 0.16749900 7985.73944110 0 31.25122199 0 2413.07844643 0 95.21892401 0 1167.78103548 0 30922
0.16850000 0.16850800 7921.64341394 0 -39.60267147 0 2295.33429963 0 142.91118180 0 745.93623251 0 30867
0.16950000 0.16949900 8127.61803246 0 -101.99398166 0 2162.82776969 0 230.35750590 0 1260.82508668 0 30852
0.17050000 0.17049200 8014.52109718 0 70.24576314 0 2115.20217000 0 5.98577481 0 185.18860632 0 31257
0.17150000 0.17149500 8128.28350428 0 122.22831773 0 2284.60911218 0 -485.54376528 0 931.74594587 0 32608
0.17250000 0.17250900 7984.50831824 0 129.18027998 0 2482.28751539 0 -89.39715473 0 703.24621546 0 32361
0.17350000 0.17350400 7906.51502130 0 50.79069457 0 2917.36189808 0 17.05759543 0 575.62868513 0 32508
0.17450000 0.17449800 7812.75004230 0 85.78308820 0 2704.88783814 0 -86.22440693 0 659.38274977 0 32791
0.17550000 0.17549800 7850.22719679 0 -11.36559316 0 2593.57658557 0 446.50386114 0 770.63632812 0 33633
0.17650000 0.17650100 7824.78399099 0 -94.19176826 0 2776.47042325 0 317.85928598 0 1211.01452119 0 33984
0.17750000 0.17750300 8004.55011112 0 -26.41102364 0 1909.41610182 0 364.37243862 0 831.81758872 0 34069
0.17850000 0.17849800 7967.59424289 0 -2.19815323 0 2186.23019525 0 97.47409708 0 1211.53580744 0 34536
