### header ###
fiducial parameters:
Omega_m = 0.31
Omega_nu = 0
Omega_de = 0.69
Omega_k = 0
H_0 = 100
w_de = -1
zeff = 0
beta = 0
fgrowth = 0
b_1 = 2
gamma = 0.55
Lx = 3500 Ly = 3500 Lz = 3500
nx = 700 ny = 700 nz = 700
xoffset = 1379.75464 yoffset = 22.6059522 zoffset = 368.141391
bins = 400 dk = 0.001
kx_ny = 0.628318531 ky_ny = 0.628318531 kz_ny = 0.628318531
############################
A(data) = 3.3975308 (not used)
A(ran) = 3.40036368 (used)
Ngal = 190958
weighted Ngal = 0
Nran = 9399747
weighted Nran = 0
SN(data) = 6576.21452
SN(ran) = 135.250767
SN(data+ran) = 6711.46529
############################
13 columns: k_central k_mean P_0(k) sigma^{lin}_{P_0(k)} P^img_1(k) sigma^{lin}_{P_1(k)} P_2(k) sigma^{lin}_{P_2(k)} P^img_3(k) sigma^{lin}_{P_3(k)} P_4(k) sigma^{lin}_{P_4(k)} N_modes
### header ###
0.00050000 0 0 0 0 0 0 0 0 0 0 0 0
0.00150000 0.00179520 23508.90105145 0 -10430.02851575 0 -5597.02835436 0 19514.85011843 0 -4750.65911524 0 3
0.00250000 0.00253879 25597.59526074 0 -14356.88897766 0 -5123.83352776 0 12881.31613567 0 38481.57328368 0 6
0.00350000 0.00331552 28199.14641692 0 -4467.34558040 0 3183.39534808 0 -21356.09972380 0 -53386.81103845 0 7
0.00450000 0.00420575 37787.26435472 0 -3340.30251131 0 -6796.34166277 0 -8180.43431233 0 5721.87086721 0 24
0.00550000 0.00557378 50817.09161752 0 -13985.44479186 0 -16780.42642281 0 10721.16134444 0 1654.83985827 0 45
0.00650000 0.00659388 66624.37642010 0 -6239.77430871 0 5448.57268321 0 -19245.44494456 0 791.00309307 0 40
0.00750000 0.00754703 59949.02862484 0 87.76563966 0 -10813.96138930 0 1333.52788268 0 15862.62987535 0 57
0.00850000 0.00846663 58545.21582710 0 10317.30868116 0 -1435.97726889 0 -16991.49190074 0 1183.89654465 0 75
0.00950000 0.00948925 72039.76424203 0 -7400.07987744 0 -16221.09736071 0 2418.54640653 0 -6063.33554765 0 112
0.01050000 0.01054430 55771.64020626 0 6473.77638192 0 19175.45949181 0 -10049.07917416 0 -9744.96964504 0 105
0.01150000 0.01145670 55341.07994073 0 12382.65592087 0 7124.45254208 0 -28620.72281292 0 -1317.50110309 0 144
0.01250000 0.01249090 46190.28789860 0 2885.20851813 0 32220.48169443 0 4709.81023688 0 6190.20774955 0 169
0.01350000 0.01339930 47197.81222937 0 -6217.05953736 0 7903.15438862 0 23932.91751078 0 -11425.37471227 0 180
0.01450000 0.01448870 53228.20692209 0 -1654.36293680 0 10781.78582696 0 17407.41178630 0 17172.38932296 0 267
0.01550000 0.01550050 50887.52071814 0 -3513.56919003 0 -1968.31035761 0 8833.26216470 0 2118.57389387 0 238
0.01650000 0.01653350 59555.18022121 0 -2396.18655348 0 -3249.88707378 0 9182.47959181 0 30583.08828897 0 315
0.01750000 0.01747870 57514.39998273 0 -1874.85593213 0 -4530.94250370 0 -3761.23561788 0 9264.76518197 0 297
0.01850000 0.01844180 64125.52974766 0 465.04279684 0 -8442.27528988 0 704.78456448 0 27805.85257313 0 388
0.01950000 0.01947590 63250.87795632 0 -2013.21861406 0 6109.70784209 0 -5407.55743689 0 15348.99654468 0 399
0.02050000 0.02045430 63518.06489081 0 1035.94885032 0 -991.24356278 0 -1997.62439115 0 9936.00442128 0 462
0.02150000 0.02154770 67352.62441172 0 633.02452022 0 16728.96326897 0 -6896.90554549 0 11824.21415453 0 571
0.02250000 0.02255340 64903.13356570 0 2104.33279699 0 14261.06103602 0 -7855.36242097 0 -49.65606512 0 510
0.02350000 0.02348930 67366.82114381 0 2149.20777984 0 28839.44121674 0 2827.88921230 0 16117.72740516 0 555
0.02450000 0.02439640 60419.73902332 0 931.10820204 0 22843.42923456 0 1653.89710653 0 -2841.99721482 0 592
0.02550000 0.02547300 64168.78541576 0 -998.70682920 0 24498.23581923 0 9905.37053531 0 21161.78195327 0 837
0.02650000 0.02652900 62253.11387886 0 -631.99747538 0 22828.23429474 0 8261.22259090 0 12712.84085402 0 723
0.02750000 0.02749970 65966.66844107 0 -517.89013206 0 15685.39254812 0 5646.32872480 0 30015.21900522 0 826
0.02850000 0.02848090 63640.95535299 0 1702.17708684 0 14717.68561438 0 6040.83150905 0 12418.81322292 0 831
0.02950000 0.02946900 60587.99248103 0 4191.06386442 0 16207.78792438 0 -3803.70381100 0 25400.06104309 0 996
0.03050000 0.03053250 54490.27422283 0 3368.98434661 0 14145.26893989 0 -1915.28334500 0 17758.00452183 0 1041
0.03150000 0.03150510 54122.82286794 0 3221.59343037 0 28082.79976093 0 -1908.59535324 0 17667.83309064 0 1036
0.03250000 0.03246190 48479.28912477 0 499.20701080 0 14873.84966741 0 890.12733844 0 8480.19609225 0 1059
0.03350000 0.03345080 48425.38590760 0 1925.08796311 0 28271.23919708 0 2527.08485986 0 5904.39869539 0 1302
0.03450000 0.03451200 45688.63306063 0 298.17241140 0 19058.89101189 0 181.35992514 0 15050.86517071 0 1339
0.03550000 0.03553350 46820.93335707 0 -1822.15056423 0 18997.77851670 0 7561.49006663 0 2193.55038524 0 1365
0.03650000 0.03647120 50029.39481026 0 -1074.13251405 0 15854.64421355 0 2569.35341143 0 12010.65717523 0 1308
0.03750000 0.03744890 49308.35609665 0 510.71856411 0 12426.90979670 0 882.27920748 0 1306.03280544 0 1579
0.03850000 0.03847530 49171.82346222 0 1487.65115547 0 15704.46940687 0 -3650.98912022 0 2887.84822300 0 1662
0.03950000 0.03950240 46796.75454773 0 1608.32337826 0 18257.66294435 0 -4711.83992592 0 727.90860099 0 1683
0.04050000 0.04050350 45084.05191498 0 1471.14745441 0 17407.07905039 0 1084.02475261 0 -6123.32783195 0 1822
0.04150000 0.04152450 44866.66445480 0 -618.40299528 0 18139.87443276 0 1697.06404505 0 -5727.27228012 0 1887
0.04250000 0.04250150 44443.64620319 0 136.84540619 0 15203.70186465 0 2616.71282240 0 -10960.38737142 0 1920
0.04350000 0.04349210 41440.59371749 0 2490.10680924 0 13032.04550219 0 -773.11077416 0 -7181.26165285 0 2005
0.04450000 0.04448520 41535.31253943 0 1454.68811814 0 15195.16164300 0 -205.82156001 0 -8373.90915189 0 2151
0.04550000 0.04548030 35900.65175382 0 1367.69986047 0 13102.03095494 0 2382.99912031 0 -7032.07396270 0 2274
0.04650000 0.04648670 36768.53791502 0 796.93355608 0 13285.81208837 0 2144.17237642 0 -3570.28957122 0 2311
0.04750000 0.04749250 35687.03530060 0 -320.92600194 0 8250.08702916 0 2318.63690442 0 -6008.22339002 0 2568
0.04850000 0.04851840 35320.47124146 0 -179.29918075 0 7943.20470080 0 1138.78864666 0 -6121.26486931 0 2493
0.04950000 0.04949480 36302.26399532 0 -380.95821454 0 7799.19659963 0 -158.35900091 0 -3999.11961003 0 2644
0.05050000 0.05050630 36448.33505913 0 -720.11925338 0 6395.55016984 0 709.77560310 0 -3913.90594388 0 2829
0.05150000 0.05149060 38731.12521501 0 -602.29857732 0 6082.37913281 0 1247.50455915 0 -3528.49794112 0 2784
0.05250000 0.05249300 37756.76356311 0 486.86805420 0 6810.91549556 0 -799.32259990 0 -10.15996896 0 3055
0.05350000 0.05348950 37557.67657789 0 673.91221777 0 7304.66231010 0 1869.79834632 0 -394.87101199 0 3009
0.05450000 0.05448610 37739.79403178 0 252.28036578 0 7750.62824819 0 2411.64768203 0 8516.23139113 0 3336
0.05550000 0.05550870 36772.41983395 0 -194.32775261 0 8759.35042824 0 2264.03494184 0 5720.30700844 0 3349
0.05650000 0.05647670 35951.89308372 0 1271.87191884 0 8367.36534569 0 50.67734254 0 11715.18768853 0 3324
0.05750000 0.05747970 35475.19343889 0 1304.91259455 0 8488.04865969 0 -603.87019992 0 10084.22717729 0 3639
0.05850000 0.05849280 33113.43396074 0 1433.27101683 0 12573.64633232 0 -1534.99947524 0 11173.93727746 0 3846
0.05950000 0.05951020 32068.97594412 0 843.49994647 0 11111.93748652 0 -942.26150969 0 10517.94843395 0 3787
0.06050000 0.06049470 31474.70961164 0 -72.45690416 0 12405.39287462 0 1349.63230064 0 6044.75779277 0 3930
0.06150000 0.06148310 31558.33723663 0 -61.45720959 0 10943.47329607 0 283.55088646 0 8065.75133588 0 4083
0.06250000 0.06249100 31132.76800972 0 -160.84675638 0 11989.91663694 0 430.44935356 0 3506.99211024 0 4303
0.06350000 0.06350600 31792.80514011 0 209.43396285 0 9006.31811068 0 472.59479284 0 4479.29079951 0 4470
0.06450000 0.06451750 31708.84477921 0 137.25910783 0 10270.30418849 0 -787.09344615 0 169.09084307 0 4479
0.06550000 0.06550280 31249.78013753 0 473.95568271 0 10365.40011113 0 -2439.64186312 0 -734.95372930 0 4636
0.06650000 0.06648880 31136.64992865 0 486.69503152 0 11552.70165324 0 -618.67694785 0 -2580.08969008 0 4653
0.06750000 0.06749660 30730.60120838 0 -301.67833875 0 11042.97242389 0 113.69031432 0 -4742.30744394 0 5220
0.06850000 0.06852730 30448.33024605 0 818.45380552 0 10083.40642872 0 -376.62377477 0 -5214.48188042 0 5029
0.06950000 0.06949320 30362.92802955 0 854.93607964 0 11359.04935452 0 555.80427971 0 -5429.20745334 0 5040
0.07050000 0.07048030 27772.91171820 0 1244.11065288 0 11954.20298276 0 -977.84761510 0 -2990.64143632 0 5475
0.07150000 0.07148790 27412.55872935 0 763.36715764 0 12994.00269666 0 389.67811358 0 -2801.56980194 0 5509
0.07250000 0.07249820 26267.50355641 0 259.50517148 0 12752.88007501 0 1898.76855275 0 -1571.92206988 0 5916
0.07350000 0.07351270 26320.96312570 0 -271.16867419 0 12257.65813127 0 1490.60141386 0 -1767.20477455 0 5721
0.07450000 0.07449140 26440.96987668 0 28.48463383 0 10753.28145080 0 977.38400307 0 129.47974229 0 6028
0.07550000 0.07549160 26603.78864788 0 485.72677003 0 12078.97894843 0 -515.58981781 0 2160.74262466 0 6183
0.07650000 0.07648840 25608.13189784 0 729.02881189 0 11636.44019020 0 -260.95146356 0 1206.04566495 0 6330
0.07750000 0.07749960 25244.34063794 0 189.06497966 0 13170.35272814 0 1051.46543485 0 3374.04193242 0 6583
0.07850000 0.07848650 24991.46134752 0 -58.76992348 0 11545.38146325 0 1598.86258727 0 1688.32418185 0 6549
0.07950000 0.07947320 25059.45038481 0 -52.20992413 0 11809.13012668 0 1489.69193571 0 4836.02805815 0 6828
0.08050000 0.08048110 25010.87094218 0 148.55105545 0 10168.24299418 0 716.52348733 0 3220.63958743 0 7147
0.08150000 0.08149960 24860.58522353 0 213.10293080 0 10200.59601567 0 264.84447369 0 4971.16320177 0 7386
0.08250000 0.08250610 24519.86365328 0 70.90358203 0 9004.39933361 0 1209.35084164 0 2597.05922141 0 7227
0.08350000 0.08350160 24646.96877031 0 389.36201447 0 9672.49976418 0 -93.21984667 0 3148.29170974 0 7798
0.08450000 0.08449610 23275.43135569 0 539.46694660 0 8967.65419812 0 -529.93406283 0 1346.49349191 0 7371
0.08550000 0.08548940 22871.26813890 0 923.17910534 0 8936.90940018 0 -48.11361236 0 1619.91367908 0 8256
0.08650000 0.08650700 22157.54961528 0 -89.49109717 0 8755.36868853 0 841.61222475 0 2556.42107579 0 8037
0.08750000 0.08749060 21453.59134498 0 101.03470404 0 7498.10387607 0 2144.32765318 0 737.83854962 0 8155
0.08850000 0.08849210 21639.92345371 0 594.77098195 0 7401.17790594 0 247.90377947 0 3837.76487683 0 8718
0.08950000 0.08949900 20817.73302394 0 18.99001468 0 6580.79534127 0 -43.48337037 0 2006.48625751 0 8571
0.09050000 0.09049190 20763.71889480 0 77.32227952 0 6822.11760447 0 679.49108984 0 3393.54025666 0 8932
0.09150000 0.09150830 20593.80175755 0 502.02195659 0 6039.68911576 0 -179.24705212 0 2277.85457324 0 9285
0.09250000 0.09250820 19802.77759120 0 342.48617968 0 6995.49519517 0 -53.33024593 0 2446.98423550 0 9204
0.09350000 0.09350330 19976.13299950 0 116.56182521 0 6462.36354026 0 966.04990891 0 3446.93327877 0 9349
0.09450000 0.09448040 19323.85970698 0 75.54535886 0 6659.39865405 0 817.02636847 0 3087.44540328 0 9564
0.09550000 0.09549270 19166.25379835 0 630.59998457 0 6029.51848816 0 -20.27437529 0 3503.98639587 0 10155
0.09650000 0.09649430 17946.22213404 0 723.12053127 0 6775.35711814 0 -708.37145757 0 3454.26455995 0 9913
0.09750000 0.09749140 17297.94167242 0 407.15783997 0 6621.11184218 0 318.21087692 0 4284.77338743 0 10476
0.09850000 0.09850240 17016.55800584 0 61.38689140 0 7167.71930138 0 1222.84882833 0 3845.58417068 0 10575
0.09950000 0.09950330 17391.55137466 0 -464.61911312 0 5336.20776693 0 925.83544701 0 4293.79053055 0 10882
0.10050000 0.10051200 17330.66070341 0 -165.89436011 0 4491.23601862 0 1636.41738013 0 3547.82989740 0 10875
0.10150000 0.10150300 17493.14673871 0 238.17901798 0 4315.68455333 0 -411.11739728 0 3830.94379070 0 11118
0.10250000 0.10250800 16933.59585267 0 416.06739848 0 4203.23090747 0 -789.14199023 0 3094.57704292 0 11575
0.10350000 0.10349800 16238.17780401 0 792.22756122 0 5076.05265131 0 -1025.53976198 0 1992.23406943 0 11364
0.10450000 0.10450100 15664.20836194 0 425.04239505 0 5698.82335995 0 -1135.84947947 0 1529.50933275 0 12093
0.10550000 0.10551000 15242.07740609 0 198.04663095 0 6644.23698782 0 -434.21259669 0 507.28916602 0 12067
0.10650000 0.10649700 15270.24904634 0 -28.59909498 0 6697.57455394 0 552.36157218 0 317.75170137 0 12054
0.10750000 0.10749900 15290.98958464 0 26.61388164 0 6591.39852556 0 -443.34619737 0 -894.07247719 0 12807
0.10850000 0.10850100 15055.74529736 0 275.14930477 0 6164.24325749 0 -130.29605439 0 -948.22080981 0 12736
0.10950000 0.10950300 14904.79410690 0 198.38823981 0 6738.40124991 0 25.29147822 0 -601.54548504 0 12933
0.11050000 0.11050200 14592.68782478 0 42.74070382 0 6394.84033324 0 303.07804781 0 -1438.97189206 0 13428
0.11150000 0.11150900 14938.28952168 0 51.84413645 0 5764.21705716 0 815.72426195 0 -822.21815776 0 13453
0.11250000 0.11250000 14317.51522849 0 105.42437797 0 5176.02870060 0 533.92800285 0 -1235.64806961 0 13668
0.11350000 0.11349100 14416.67052921 0 119.46771881 0 4925.96657420 0 583.73524098 0 -25.66170238 0 13791
0.11450000 0.11448600 14139.05786959 0 81.61701281 0 4447.68088821 0 237.21186561 0 -614.63642480 0 14205
0.11550000 0.11549300 13762.40082123 0 250.05879904 0 4401.30859377 0 218.05847760 0 -196.72123291 0 14776
0.11650000 0.11649800 13440.20154989 0 417.08778860 0 4542.37752775 0 -352.03791850 0 -311.85229371 0 14553
0.11750000 0.11747300 13154.15958059 0 16.98905184 0 4614.59231108 0 389.05146095 0 272.78687982 0 14568
0.11850000 0.11849100 13408.81346252 0 -343.80381388 0 3736.51333989 0 1167.71448830 0 372.74518320 0 16015
0.11950000 0.11950300 13414.46997297 0 23.17305961 0 3664.22091818 0 332.76918204 0 -75.47171331 0 15270
0.12050000 0.12050700 13656.25806644 0 181.09484553 0 3372.23406732 0 -252.04079593 0 807.83287532 0 15999
0.12150000 0.12150000 13275.27545127 0 80.66494446 0 3660.48318481 0 -59.04820161 0 792.82870409 0 15670
0.12250000 0.12250700 13285.59026443 0 154.23973036 0 3998.23231427 0 1.23347420 0 1071.88211019 0 16887
0.12350000 0.12352200 13114.56400749 0 123.14112324 0 4057.41494119 0 -217.41518818 0 627.92589698 0 16407
0.12450000 0.12449800 13188.54229113 0 -13.28082105 0 4424.52246898 0 200.56987825 0 1090.23693202 0 16306
0.12550000 0.12549900 13139.18646471 0 -50.64307074 0 3979.68783298 0 128.35287668 0 837.27778498 0 17523
0.12650000 0.12650100 13301.33976409 0 66.30628089 0 4190.12111268 0 105.59008045 0 1073.20639910 0 17154
0.12750000 0.12750600 13429.66491279 0 40.70069997 0 3713.00000236 0 -74.00445887 0 776.55680905 0 18007
0.12850000 0.12850300 12925.68092346 0 22.90853456 0 3787.67703141 0 660.47634179 0 791.78058598 0 17496
0.12950000 0.12949900 12937.77032813 0 253.42497731 0 3876.08496228 0 -177.03768569 0 598.48098733 0 18405
0.13050000 0.13049000 12728.36852975 0 180.89964046 0 3309.51334858 0 58.52680444 0 207.70817261 0 18100
0.13150000 0.13148800 12368.57010075 0 294.06423205 0 3890.45915353 0 4.40368211 0 923.74253815 0 19059
0.13250000 0.13249300 12113.69439488 0 289.53680545 0 3818.42182935 0 -170.08350520 0 384.90224417 0 18957
0.13350000 0.13349100 11709.75300202 0 133.41268073 0 3739.61887503 0 136.01356642 0 221.51116721 0 19468
0.13450000 0.13450700 11717.84957580 0 86.32799871 0 3827.73843479 0 382.67624095 0 690.99487931 0 19953
0.13550000 0.13551000 11463.63934174 0 139.97866932 0 3422.51046309 0 256.81888358 0 973.12054696 0 19956
0.13650000 0.13649900 11383.78272372 0 5.87583886 0 3317.17736567 0 368.09908080 0 1210.61523810 0 19723
0.13750000 0.13749600 11326.21941156 0 8.37847873 0 3098.89151853 0 381.15231048 0 762.76157828 0 20946
0.13850000 0.13851100 11277.63996892 0 88.99909167 0 2792.18664932 0 96.37240849 0 1430.19875528 0 20955
0.13950000 0.13949800 11240.15172324 0 85.48994787 0 2910.10825527 0 -89.78479206 0 1242.64661488 0 20506
0.14050000 0.14048300 11104.28456062 0 46.20759017 0 2855.19573918 0 63.81797086 0 1006.29653527 0 21447
0.14150000 0.14148400 10951.25931633 0 158.27359869 0 2843.06196972 0 -205.57977191 0 307.34039479 0 21771
0.14250000 0.14249400 10886.20944623 0 237.28063103 0 2778.14519398 0 -355.11461653 0 520.24035669 0 22470
0.14350000 0.14350900 10634.52800508 0 92.97850222 0 2897.16482844 0 124.76598359 0 74.11803273 0 22519
0.14450000 0.14449900 10450.75796284 0 25.41947064 0 3048.40439002 0 248.93082431 0 111.50202116 0 22218
0.14550000 0.14550500 10327.73440629 0 155.12702612 0 2824.06274935 0 136.30415578 0 41.34299118 0 23559
0.14650000 0.14650700 10194.55131334 0 125.50687555 0 2874.23932434 0 49.47461314 0 265.03856963 0 23044
0.14750000 0.14750500 10219.41777690 0 73.73616282 0 2691.99986729 0 41.51878666 0 47.90864704 0 23649
0.14850000 0.14849900 9870.95455118 0 165.61708019 0 2969.44615895 0 72.06715950 0 394.75122706 0 23640
0.14950000 0.14949500 9624.70779653 0 279.09222529 0 2895.25714256 0 -389.30101288 0 444.23571137 0 24457
0.15050000 0.15050000 9632.93746467 0 10.58364159 0 3095.50870346 0 231.05957866 0 404.95291002 0 24591
0.15150000 0.15149900 9517.64447239 0 -49.11215282 0 3004.88253320 0 618.87326204 0 1008.48482843 0 25020
0.15250000 0.15250500 9724.79475779 0 -108.96734992 0 2514.59617210 0 399.75890249 0 861.47988584 0 25297
0.15350000 0.15350100 9823.15149233 0 1.51954944 0 2300.07024073 0 115.18984415 0 942.91810855 0 25452
0.15450000 0.15450400 9678.79956405 0 103.16144105 0 2152.10258224 0 53.15300861 0 971.10749472 0 26061
0.15550000 0.15549900 9607.63844443 0 254.03942962 0 2480.76802141 0 -447.96457178 0 1166.06189995 0 26128
0.15650000 0.15649500 9302.12033329 0 133.56019365 0 2647.73490027 0 -186.50845876 0 817.77502427 0 26331
0.15750000 0.15749700 9197.00905981 0 146.57904063 0 2756.57281592 0 97.28155390 0 380.06537318 0 27345
0.15850000 0.15849900 8913.09660033 0 168.73925213 0 2811.60733518 0 -70.60356515 0 740.67235044 0 26980
0.15950000 0.15949700 8867.35650412 0 76.60789553 0 2762.45115030 0 -131.05691050 0 472.42731577 0 27777
0.16050000 0.16050000 8753.62737061 0 92.90918224 0 3025.02414686 0 199.03152924 0 597.75562305 0 28224
0.16150000 0.16150500 8699.08086402 0 89.53701472 0 3079.35992070 0 -118.68357118 0 267.43759553 0 28075
0.16250000 0.16249700 8571.60973749 0 120.95283008 0 2738.87126559 0 -174.70964345 0 398.99471902 0 28590
0.16350000 0.16349900 8605.01642270 0 51.95715575 0 3253.63589835 0 218.65851136 0 781.75081658 0 29163
0.16450000 0.16449100 8446.37903275 0 12.23980130 0 3144.01050772 0 45.30665224 0 516.55142459 0 28996
0.16550000 0.16550500 8546.06671092 0 -24.35249749 0 2879.34127494 0 290.37308170 0 724.13648491 0 30777
0.16650000 0.16650700 8559.13214093 0 22.21478019 0 2900.98020019 0 17.28551953 0 509.23456196 0 29211
0.16750000 0.16749900 8481.02793202 0 114.77946986 0 3014.27677701 0 -187.53106712 0 751.79571186 0 30922
0.16850000 0.16850800 8412.00741341 0 118.69688062 0 3049.79078964 0 -102.38405906 0 453.09757773 0 30867
0.16950000 0.16949900 8384.52342737 0 69.97524884 0 2986.42678148 0 82.60346386 0 861.57083366 0 30852
0.17050000 0.17049200 8267.86621787 0 -38.77970466 0 2864.76744215 0 472.88538220 0 73.69490356 0 31257
0.17150000 0.17149500 8295.32802151 0 26.28835501 0 2756.15135044 0 123.87314224 0 559.33793506 0 32608
0.17250000 0.17250900 8270.02900128 0 49.40950781 0 2250.31513122 0 404.82203389 0 683.43733771 0 32361
0.17350000 0.17350400 8099.59057777 0 45.80564519 0 2066.97764566 0 373.78221011 0 691.26772276 0 32508
0.17450000 0.17449800 8114.47496408 0 34.08446825 0 1751.81019318 0 322.80152334 0 1040.89441503 0 32791
0.17550000 0.17549800 7788.69323612 0 148.41130636 0 1540.84453603 0 29.53253011 0 660.71591164 0 33633
0.17650000 0.17650100 7859.62144060 0 162.53040008 0 1530.97337075 0 -54.18038618 0 1202.42993475 0 33984
0.17750000 0.17750300 7488.80945303 0 117.52343198 0 1555.96183747 0 -25.08074548 0 857.93624842 0 34069
0.17850000 0.17849800 7383.33217005 0 112.85847455 0 1766.56148513 0 -143.02874849 0 804.67964803 0 34536
